-0.001768641
3.1307669E-4
0.0018200241
-0.0016190342
-0.008504087
-0.01315554
-0.0123925395
-0.010073557
-0.010181736
-0.008027648
-0.0014936945
0.0050082933
0.008002796
0.0041302578
-0.003221172
-0.0075053037
-0.009007271
-0.006339035
-4.1128085E-5
0.003954546
0.007065866
0.011622019
0.013180955
0.009936725
0.004129689
-8.9475635E-4
-0.0017057948
5.893384E-4
0.0022209052
0.0021354582
0.0024889235
0.0059782933
0.009081534
0.006203332
-3.4352427E-4
-0.0064679356
-0.0098496955
-0.010227144
-0.009802776
-0.0060959454
1.2253894E-4
0.0045014904
0.007767419
0.005790387
-0.0021787486
-0.0072119967
-0.0075722584
-0.006357151
-0.004317799
-0.001229317
0.0035939629
0.009378274
0.011923219
0.0064089186
-0.0015550249
-0.0053150025
-0.007854862
-0.007900267
-0.004574416
-0.0011780151
0.0031193343
0.0075312043
0.00923373
0.0054658228
-1.400487E-4
-0.0018478367
-0.0038881858
-0.0053710416
-0.00401664
-0.0029345208
0.0017154367
0.007541106
0.00894045
0.005609672
-0.0024629084
-0.007121449
-0.0072680395
-0.007867743
-0.0046234773
-2.2153546E-4
0.0035204114
0.0092102215
0.011221911
0.0075922995
-5.1053584E-4
-0.007409809
-0.0062625827
-0.0051646526
-0.0068272203
-0.003299218
0.0022024629
0.0036186222
0.0029223477
0.0035669766
0.0030495378
-0.0023942715
-0.007859111
-0.00779465
-0.0042479774
-4.743142E-4
0.0047360836
0.010462769
0.010537299
0.0063652685
0.0016863971
-0.0041388473
-0.0059426413
-0.0044372245
-0.0051247855
-0.004568339
-0.0015263045
0.0047919042
0.011953412
0.009602112
2.561611E-4
-0.007375902
-0.011894229
-0.011279945
-0.0064792233
-0.0020256105
8.4411755E-4
0.004976166
0.009355592
0.0075037815
0.0011173275
-0.00307031
-0.00422632
-0.0045304676
-0.0038131431
-5.587852E-4
0.0026679547
0.006401576
0.010620834
0.007607891
3.5094225E-4
-0.003719276
-0.0054877037
-0.0049048057
-0.003392712
-0.0013104759
0.001898464
0.004663568
0.0074251234
0.005752638
-0.0010577943
-0.005444167
-0.006007384
-0.0052371863
-0.0048918636
-0.004162947
-7.8937365E-4
0.0050201514
0.009970683
0.0068748286
-0.001496126
-0.006660178
-0.009403973
-0.008542036
-0.0046120216
-8.769319E-4
0.0040279473
0.007506671
0.009235944
0.008507207
0.0018270982
-0.004368685
-0.0064858096
-0.006587914
-0.003978358
-0.001162006
0.0024467586
0.008682172
0.012213255
0.008777474
1.1348609E-4
-0.0069551985
-0.008410179
-0.008195022
-0.0070200325
-0.0033932438
0.0010206472
0.006773461
0.0105277505
0.00738498
0.001236609
-0.003127081
-0.005003806
-0.005491793
-0.0045848265
-0.0020170594
-8.59158E-5
0.0040765116
0.008445164
0.004142153
-0.0024737995
-0.005089992
-0.0070630996
-0.0072250906
-0.005927792
-0.002407753
0.0033808292
0.0072033857
0.0101894
0.010136347
0.0034149003
-0.004317951
-0.0063594976
-0.0038000115
-0.0033531988
-0.003779459
-0.0010326165
0.003176164
0.008550622
0.00922601
0.0019487778
-0.0050059897
-0.007497862
-0.0062955255
-0.004279046
-0.0028216129
4.515806E-4
0.004518789
0.00834673
0.008171682
0.001872471
-0.003691044
-0.005945617
-0.0047836956
-0.0012271745
-1.6775263E-4
5.388736E-5
0.0016221217
0.004174796
0.0062575634
0.0021167442
-0.0059609096
-0.0095175635
-0.007929489
-0.0048847026
-0.002006156
0.0012470321
0.0048583164
0.0077169216
0.008069642
0.003865014
-0.0025513056
-0.006266986
-0.0056619407
-0.0028126815
-8.7406207E-4
8.661757E-4
0.0046514343
0.008817744
0.009494327
0.004580392
-0.001699787
-0.004400634
-0.005392417
-0.005271151
-0.003272292
-0.0016341778
0.0020055177
0.008120679
0.008851517
0.0024819346
-0.0038523634
-0.0067657605
-0.008065607
-0.0073053697
-0.0039679003
-9.0501824E-4
0.002515461
0.007648345
0.009330154
0.0034079608
-0.0051625473
-0.008254509
-0.006659461
-0.004189274
3.214058E-4
0.003476459
0.0043937503
0.00800198
0.0087617375
0.0021553952
-0.003765544
-0.004481576
-0.0034695575
-0.0034920403
-0.0042219437
-0.002625757
0.0039278716
0.010106162
0.008879462
0.0021927513
-0.0054736375
-0.009460985
-0.0083428435
-0.006470457
-0.002937845
0.002482084
0.0062354985
0.009150542
0.009361611
0.0048231794
-9.850755E-4
-0.0042283335
-0.0046213884
-0.004864017
-0.003715711
-6.643993E-4
0.0028493379
0.008067236
0.009638445
0.0043054405
-0.0030231585
-0.0094173895
-0.010715673
-0.0069678
-0.0034424425
-4.2874024E-5
0.004584974
0.0090942
0.0097926315
0.0046502864
-0.002694142
-0.006668367
-0.0055172755
-0.0045480574
-0.004437348
-9.102289E-4
0.0029557818
0.0058172652
0.007190171
0.003319361
-0.0024709615
-0.005712291
-0.0064961067
-0.005526226
-0.0030497045
0.0011437724
0.0060928967
0.009852832
0.009597961
0.004612623
-0.0023915393
-0.0064487853
-0.0044859983
-0.0031975291
-0.0040442133
-5.2729674E-4
0.0036018
0.0074203988
0.011096962
0.0067092953
-0.0026551744
-0.009253301
-0.010685406
-0.0075050625
-0.0048104376
-0.002216213
0.0022144706
0.0062358305
0.008358097
0.0048550717
-9.0096577E-4
-0.001663537
-0.0019695328
-0.0050733658
-0.005681305
-0.0024345273
0.0021157332
0.007959461
0.011140542
0.00522318
-0.0030670227
-0.006242345
-0.008455077
-0.008882762
-0.0058760676
-0.0021980943
0.0031954253
0.006886299
0.006761032
0.005705563
0.0014042106
-0.0028062293
-0.0029885226
-0.003795826
-0.0041486067
-0.0021853482
0.0012530207
0.006878671
0.009063587
0.00408985
-0.0032246637
-0.0065941312
-0.0057479236
-0.0056280135
-0.002946302
0.0026495706
0.004664861
0.0072849705
0.010067946
0.0067536444
1.4276577E-4
-0.0051117027
-0.005572339
-0.0056417193
-0.0073944633
-0.0038739059
0.0011933944
0.005389646
0.0090460675
0.005460687
-0.0011658608
-0.0054218504
-0.007931333
-0.006626709
-0.002914714
0.0014124388
0.0042905794
0.0055236486
0.006985757
0.004253097
-0.0018186821
-0.005250281
-0.005603899
-0.005176589
-0.0057902243
-0.0027506484
0.005193108
0.010274092
0.009965335
0.004344083
-0.0039751716
-0.008179827
-0.0074055484
-0.0038590115
-6.3238724E-4
5.774764E-5
0.0021115183
0.006113114
0.0079629915
0.0063900705
9.6390786E-4
-0.004680047
-0.0060170586
-0.0055641555
-0.0042318185
-0.002001042
7.8786665E-4
0.0073049
0.010830754
0.0060994225
1.9562947E-4
-0.0067081917
-0.012461815
-0.011311727
-0.006497985
3.0235297E-4
0.0051379777
0.00517987
0.0056265127
0.0059882016
0.0030638708
-0.0031698712
-0.007177219
-0.0041077426
-6.1739836E-4
0.002364749
0.008277094
0.011709433
0.009965314
0.004414986
-0.0022063062
-0.0074282666
-0.009814201
-0.0077294516
-0.00461242
-0.0015305417
0.0027105538
0.0058461986
0.007605508
0.004998795
-0.0017900126
-0.0065682055
-0.007814653
-0.006080096
-0.0047602677
-0.005196547
-0.0027630185
0.0034042129
0.009203373
0.006860898
-0.0021853452
-0.006073378
-0.004855701
-0.0030900384
1.5372218E-4
0.0028654037
0.004991862
0.0081275385
0.009809688
0.0077516995
0.0021234776
-0.003909656
-0.0058274106
-0.0055212625
-0.0065120794
-0.0044035865
0.0014835458
0.0066311858
0.009376747
0.005551884
-0.002165603
-0.0058293142
-0.0069537195
-0.0066690007
-0.004801804
-0.0024172717
0.0030055977
0.008562483
0.009736221
0.007487683
0.002255825
-0.0042740107
-0.007658846
-0.005907691
-0.0026872966
-0.0017634187
-4.1722856E-6
0.004728457
0.007052999
0.004511149
7.840769E-5
-0.004931873
-0.0077378503
-0.0067636045
-0.0045924494
-0.0020638069
-5.5666774E-4
0.0024634292
0.008044626
0.007198691
0.0024078465
-1.8142432E-4
-0.0044312063
-0.005692676
-0.0031516748
-0.0017197363
0.0031356907
0.009007652
0.009054914
0.0043793223
-0.001146536
-0.0047309715
-0.006875667
-0.0063960426
-0.0036083588
-0.002034931
8.9546584E-4
0.005579546
0.008314212
0.0076026837
0.0011733497
-0.0054576737
-0.005093199
-0.0038118404
-0.0046600285
-0.0029348761
4.1766744E-4
0.0055712904
0.010692052
0.0066858935
-0.003339532
-0.007879462
-0.0071659884
-0.0064616078
-0.0053226072
-0.0021775898
0.0014402615
0.006195844
0.010895886
0.009055088
0.0023736667
-0.0028683338
-0.0051444997
-0.0044632307
-0.0033434762
-0.0021616889
3.3909577E-4
0.004115954
0.0077795624
0.0055830018
3.402928E-4
-0.0027646567
-0.008051853
-0.010118015
-0.004674654
-0.0013098023
2.9003204E-4
0.005796241
0.009943103
0.0075926282
0.0013728325
-0.0047187377
-0.00789966
-0.0073669334
-0.0053064367
-0.0019787843
0.0017902988
0.0046809767
0.008198546
0.006873946
-0.0018237418
-0.0076514627
-0.007848845
-0.007909564
-0.006634145
-0.0019707794
0.0019906205
0.004730113
0.00935285
0.010432768
0.0045720115
-0.0014167086
-0.0028991657
-0.0013325482
-6.6998723E-4
-2.8049605E-4
0.0025532125
0.0058792215
0.0084686875
0.0064032017
-0.0021015406
-0.007825064
-0.00735243
-0.0058769966
-0.0033108145
8.8328857E-4
0.004218892
0.00731714
0.008920261
0.007999026
0.0073806862
0.002397335
-0.0048297485
-0.0042235856
-0.002638448
-0.0037616412
-0.0026726946
9.586954E-5
0.0044473317
0.0015353098
-0.0074338773
-0.01077901
-0.013117566
-0.012548086
-0.0077921813
-0.0053656655
-0.0011828726
0.0017049147
0.0024079143
0.0038870003
0.0012516051
-0.0013193502
-0.0017079154
-0.0011343788
2.4877634E-4
-0.0027966413
-0.0078421235
-0.011003366
-0.0070823827
0.0038523225
0.009591622
0.016097894
0.0303009
0.039376885
0.037848882
0.02848582
0.014151821
3.5332065E-4
-0.007163315
-0.01644865
-0.036137234
-0.0453428
-0.036903035
-0.027730087
-0.010986698
0.012094298
0.02280512
0.026515398
0.030407293
0.022507241
-7.121562E-4
-0.0271367
-0.046398807
-0.045461465
-0.021677664
-0.0027665077
-8.741399E-4
0.0018587188
0.012112163
0.026539145
0.035527002
0.028101165
0.010992897
-0.0019669202
4.468886E-4
0.015847178
0.02258387
0.011542481
-0.0019427902
-0.0033365402
-0.0022986562
-0.018880079
-0.038350984
-0.033874176
-0.018395571
-0.008341861
0.0014597796
0.009915841
0.013870235
0.011845503
0.003810245
-0.0021987087
-0.0040932773
-0.004188457
-0.0033193002
-0.0034112537
-0.0018106719
0.0037792178
0.011139264
0.013043668
0.0070065805
0.0018287986
-0.0010858185
-0.0017547614
0.0023397824
0.0045500607
0.005772283
0.009103125
0.010768996
0.0098813595
-2.507519E-4
-0.015603627
-0.016355392
-0.008135038
-0.010416453
-0.0139268
-0.005115026
0.004028609
0.006299725
0.00807778
0.005373463
-0.0024625934
-0.005848418
-0.005150252
-0.0044855545
-0.0014790013
0.004038831
0.008802643
0.010774753
0.008668888
0.0016943685
-0.007767704
-0.011924843
-0.008304909
-0.0058546574
-0.0055278162
-0.0013630447
0.005490878
0.012793301
0.0126708485
0.0027197015
-0.0041091517
-0.0063906834
-0.00845317
-0.0062151607
-0.0018679808
0.0011156454
0.0052156253
0.010208326
0.011361418
0.007830647
0.0028043382
-0.002267238
-0.0037417763
-0.0035659135
-0.0063815536
-0.00469606
0.0034062436
0.008129367
0.0040666126
-0.005231589
-0.011074222
-0.012878416
-0.013332384
-0.010404175
-0.007998839
-0.0074176346
-0.003317635
0.00283942
0.0061329408
0.005430446
0.0026998182
0.0010452619
0.001334114
0.0018585541
0.0029963034
0.0053167716
0.008123305
0.013682216
0.017316857
0.011243909
9.763042E-5
-0.007945474
-0.009125466
-0.0083355075
-0.009593167
-0.0038957617
0.006649016
0.010289911
0.008376316
0.005988758
0.004231092
0.0025679083
0.0038209169
0.008060279
0.008612795
0.00905574
0.01328151
0.015320807
0.011971279
0.0029703646
-0.008388919
-0.018369144
-0.0242442
-0.023645723
-0.019808544
-0.014214289
-0.007387723
-0.0014403298
0.0026982431
0.0014705982
-0.0021579396
-0.0033298573
-0.005166575
-0.0065779076
-0.0034318918
9.010488E-4
0.0012680531
9.862183E-4
-0.0014324865
-0.015970906
-0.03253188
-0.033526056
-0.017628549
0.011086921
0.035740048
0.041126493
0.040539227
0.04179929
0.03135539
0.0030580396
-0.03099673
-0.03993908
-0.013477464
0.008767488
0.0069604344
0.003206902
0.007053624
0.01196427
0.0010844723
-0.019586397
-0.010444703
0.018704899
0.028926235
0.027628908
0.033621695
0.04295134
0.034981027
0.0017979066
-0.030118825
-0.03626343
-0.025042418
-0.022666523
-0.029729009
-0.032565296
-0.039203044
-0.03875183
-0.020213999
-0.009381325
-0.004960032
0.0080094235
0.014624343
0.015139922
0.024304325
0.02996937
0.010206454
-0.021341288
-0.033360865
-0.028288553
-0.018427791
-0.0030224482
0.009297817
0.015572326
0.02073361
0.022638379
0.022235118
0.018210707
0.017888535
0.028761743
0.028951384
0.015655199
0.0059564463
-0.0064149047
-0.016473303
-0.022227094
-0.032452717
-0.029148309
-0.011098461
0.005475663
0.018061204
0.019110128
0.0124621
0.0076496126
0.0040474413
0.0020421336
-0.0031153131
-0.007151677
-0.0039220294
-0.0017594257
-0.0031919861
-0.008256784
-0.016239678
-0.021749234
-0.02230436
-0.017137744
-0.010371084
-0.0033157852
0.005700466
0.01419986
0.020819789
0.020404398
0.013932493
0.009961824
0.007100199
0.004369211
0.002507544
-0.0023263858
-0.0065714284
-0.005318058
-0.0040053357
-0.008498555
-0.016180506
-0.016150113
-0.0020963403
0.010516119
0.011580166
0.01252643
0.014252287
0.011669681
0.0039535346
-0.005641461
-0.005427378
-0.0021606993
-3.7436438E-4
0.011261039
0.020726046
0.018063962
0.009603755
0.0021585308
0.0021145667
-0.0057144477
-0.026948426
-0.03955735
-0.03782448
-0.031089304
-0.02746896
-0.028712733
-0.02568752
-0.012682946
4.3456617E-5
0.0019339458
0.0017607778
0.0053905295
0.012124365
0.023200132
0.028510636
0.027814487
0.02438909
0.01838683
0.015340774
-2.468143E-5
-0.010743959
0.025618894
0.070677266
0.07113954
0.054451488
0.055198926
0.046591867
0.0048302216
-0.0358506
-0.042871382
-0.026700929
-0.02143888
-0.03768972
-0.047266748
-0.047066767
-0.048126947
-0.041791946
-0.034411255
-0.0313446
-0.030545747
-0.03465525
-0.035838705
-0.030381393
-0.021752736
-0.009274212
0.004943157
0.015181374
0.025193958
0.03635136
0.036118016
0.030494854
0.028616788
0.027815884
0.031806387
0.03213024
0.026866116
0.015477448
0.0092935115
0.040122285
0.06103331
0.0397903
0.03665489
0.04866756
0.036370207
-0.0095036
-0.07152036
-0.093648255
-0.07832322
-0.05372629
-0.017702349
7.7873864E-4
-0.0024750063
-0.0072275973
-0.015993038
-0.026182909
-0.039932996
-0.047312696
-0.032129325
-0.0038466374
0.019688562
0.027878111
0.03670809
0.052872237
0.051353823
0.032433387
0.016233834
0.0039478694
-0.01955263
-0.0452977
-0.0409734
-0.01798758
-8.0856174E-4
0.016652957
0.03316395
0.0428255
0.0376035
0.0134943975
-0.011899746
-0.024624974
-0.025131363
-0.029131437
-0.040883813
-0.037185367
-0.01641509
0.004029595
0.008995989
-1.2822804E-4
0.009308352
0.033295427
0.038259782
0.03461766
0.03494736
0.02785878
0.012959454
0.0065107467
0.01300196
0.007298351
-0.012924204
-0.020614086
-0.017260153
-0.018384118
-0.027387576
-0.032128237
-0.01700991
-0.0012658793
-0.0041718767
-0.006173879
6.9571316E-4
0.001512369
-0.0020194896
-0.0029234488
-0.005923656
-0.0084486315
-0.006407168
-0.0056003975
-0.0047745495
8.1071246E-4
0.008579144
0.014581279
0.014895422
0.008788041
0.001361108
-5.970661E-4
0.0024103767
0.0043572993
0.006977733
0.011370757
0.013419555
0.013869875
0.011756957
0.0040854933
-0.006002545
-0.011545403
-0.010651941
-0.009441515
-0.00887391
-0.004495521
0.0022797592
0.008233027
0.010067898
0.004867732
-0.0036333483
-0.008063528
-0.0075716865
-0.007026766
-0.005118174
4.637701E-4
0.005965105
0.009442118
0.00862095
0.002624266
-0.0045943717
-0.0098765865
-0.009485568
-0.0054817363
-0.003937712
-0.0024230669
0.0027406695
0.0091250995
0.010124158
0.0033413654
-0.0051218686
-0.010395889
-0.0100143785
-0.005527716
-0.002110424
8.224374E-4
0.005179969
0.010379594
0.011165971
0.0034129962
-0.0035429574
-0.0048162346
-0.0050577726
-0.0033105332
-1.7824613E-4
0.0022535566
0.0055321143
0.009211473
0.00892195
0.0023914906
-0.005633103
-0.011611794
-0.012606191
-0.00701689
-0.0023304215
-2.6178617E-5
0.0047337795
0.009343134
0.009888176
0.005315018
-2.0565226E-4
-0.0026727037
-0.0043478687
-0.0042683454
-0.0027948644
-0.0029084512
0.0010304655
0.010159509
0.013128246
0.0059927227
-0.0024743825
-0.006115412
-0.0056416625
-0.0033498607
-7.607254E-4
0.002363188
0.0060528484
0.00926726
0.009305564
0.002079712
-0.0085906945
-0.013955631
-0.013651935
-0.011208885
-0.0077513554
-0.0036153614
0.0026162476
0.009403048
0.009487869
0.0018332151
-0.0052651963
-0.008596092
-0.010828454
-0.009672756
-0.0049667433
-0.0014666159
0.00330051
0.0096675
0.010421625
0.007043507
0.0037416548
4.7606343E-4
-7.7992195E-4
-0.0010658735
-0.0015836473
-0.001081605
0.0019759112
0.008108771
0.008445117
7.3591137E-4
-0.004741432
-0.006957363
-0.0069284714
-0.00423097
-7.308336E-4
0.0046681496
0.009009928
0.013744838
0.018516257
0.013760805
0.005446313
0.0015821198
3.2112672E-4
8.223244E-4
-0.002243261
-0.0038877432
4.4649348E-4
0.0013931245
-0.0011810446
-0.00885815
-0.018190093
-0.018828176
-0.020708958
-0.020530738
-0.008638161
-3.2432412E-4
0.004872364
0.01197798
0.010938402
0.0050267805
-0.0011516873
-0.0072895125
-0.0104490295
-0.012509985
-0.013840347
-0.014294737
-0.013312479
-0.00675782
0.005895211
0.017361524
0.019880436
0.019679582
0.022121571
0.022817079
0.023500985
0.01638428
-0.001583183
-0.0069039105
6.31359E-4
-0.0030805916
-0.015678477
-0.02051237
-0.0136025725
-0.002869706
0.0040523927
0.012829807
0.02501245
0.026812583
0.015076014
0.0014494596
-0.0031485115
0.002807559
0.002793847
-0.0121136205
-0.024699006
-0.024199462
-0.016721316
-0.01120978
-0.008717781
-0.0040842975
-0.0039321133
-0.005392329
7.4406376E-4
-0.0029385102
-0.014045568
-0.00402666
0.021231044
0.032677867
0.018244453
-3.9852207E-4
-2.5992666E-4
-5.3920655E-4
-0.01408965
-0.021628471
-0.02149256
-0.020839306
-0.013191225
-0.0011271402
0.006553202
0.0074161887
0.005009299
0.009399305
0.0151171
0.009314156
0.004530146
0.0073688985
0.008024458
0.004168519
-0.008242897
-0.011244213
0.011428587
0.027163627
0.02659625
0.030912625
0.03043664
0.020091875
0.008305826
-0.0057957834
-0.015105532
-0.013098614
-0.0059463433
-0.002070883
-0.0044216444
-0.0065834303
-0.0038546037
-0.007487577
-0.025644561
-0.041091695
-0.042231284
-0.042857938
-0.0451628
-0.037670944
-0.02660819
-0.019269362
-0.0060343435
0.013100422
0.026439978
0.032203875
0.037091695
0.045022734
0.04281697
0.02865587
0.029731167
0.038694207
0.024839494
-0.0026107596
-0.015474591
-0.006756113
1.9803346E-4
-0.0020449257
-0.0019972802
-0.007766118
-0.0027186694
0.015204173
0.007751705
-0.0056758677
-0.0030796186
-0.01197178
-0.03368897
-0.046196654
-0.03514632
-0.0131083615
-0.0031366167
-0.0019632007
-0.0039737807
-0.0072608083
-0.009315272
0.0022415593
0.036642443
0.0556983
0.04363249
0.029360024
0.010167692
-0.022654599
-0.053329155
-0.053569146
-0.018286364
0.016642982
0.037898563
0.04616205
0.033668578
0.013036728
-0.012396504
-0.038571723
-0.04978924
-0.049317174
-0.03249144
0.0029198152
0.028289964
0.028225638
0.01268361
-0.014810948
-0.03946162
-0.033634048
-0.008589131
0.013979947
0.040184755
0.05711858
0.041822024
0.005543708
-0.019668706
-0.023135653
-0.017703315
0.0027029712
0.030785842
0.03593236
0.025609404
0.015042796
0.0051977644
-0.0021018086
-0.0044088913
0.012529089
0.02444454
0.0060546584
-0.0048212456
-0.01011061
-0.035627082
-0.052834693
-0.04746286
-0.030794976
-0.014845409
-0.009905528
-0.00610171
8.551402E-4
0.005925237
0.008238725
0.0044176076
5.9381844E-5
-0.0012633291
-0.003635983
-0.0052492726
-0.005067928
-0.0030421682
3.9392023E-4
0.00516742
0.0118380105
0.017035289
0.02146619
0.02482097
0.022766128
0.015078252
0.0053354762
6.5833813E-4
-5.475231E-4
-0.0035197774
-0.0045710313
-0.0031178151
0.001570648
0.0060920687
0.0035345934
-0.0011791547
-0.007025288
-0.012272823
-0.011178452
-0.008174848
-0.0028249603
0.0027103333
0.0053563574
0.010796384
0.010508841
0.0018553725
-0.0036778522
-0.006638619
-0.008624987
-0.009277043
-0.009135684
-0.0068398584
-0.0027321076
0.0040232018
0.00586593
-0.0028122952
-0.009688606
-0.00891856
-0.006353269
-0.0029936337
0.0021833375
0.008030831
0.0127303405
0.01485683
0.012659949
0.0056407913
-0.002331473
-0.0068042455
-0.008569875
-0.010199593
-0.009340799
-0.00457627
0.0015393727
0.007277603
0.009078442
0.0040904726
-0.001992647
-0.001929478
-0.0013655956
-0.0042944914
4.4212615E-5
0.00934106
0.011844638
0.008379831
-5.314302E-4
-0.009123044
-0.008945719
-0.005642521
-0.002431826
0.0020240631
0.005666192
0.0085951025
0.010137806
0.008924091
0.00367946
-0.004406903
-0.0086697955
-0.007909725
-0.0071745827
-0.0058426927
-0.0011816215
0.00332678
0.005293124
0.0058456603
0.001287711
-0.0066074594
-0.0076635825
-0.0052907504
-0.006421761
-0.0033734094
0.0041428218
0.0092771035
0.013240919
0.012219504
0.0039409595
-0.0058365297
-0.013337842
-0.0138646085
-0.010027415
-0.006633148
-9.405162E-4
0.0043506343
0.008347749
0.010957636
0.0071799993
0.0010027838
-0.0028143788
-0.0035374819
-0.0018331261
-9.1546E-4
0.001829212
0.006601882
0.009487727
0.008593409
0.0013426723
-0.0065794536
-0.008425121
-0.007144699
-0.005539374
-0.003953394
-0.0015496957
0.0030634778
0.007886609
0.0075711287
9.0257096E-4
-0.005392118
-0.0066894973
-0.0049261195
-0.0036548367
-0.003011646
-3.132477E-5
0.004499879
0.008269606
0.008112866
0.0013508182
-0.0061657913
-0.008624913
-0.007004698
-0.004070163
-0.001975538
7.980419E-4
0.0058498993
0.010097016
0.00994429
0.005136114
-0.001962986
-0.0062521
-0.0047440287
-0.0033203543
-0.0041701337
-0.0016001896
0.003531268
0.007202705
0.006936206
0.0019436232
-0.0043330267
-0.008324345
-0.007728263
-0.0047917743
-0.0019372144
0.0013541225
0.0036295182
0.0077063334
0.011080069
0.0068985345
3.8987992E-4
-0.0045148837
-0.0070065595
-0.0061341436
-0.0045463713
-0.0012241023
0.003286341
0.008840156
0.01151384
0.0044641197
-0.0027552517
-0.0057506207
-0.008773089
-0.0066126124
-0.002372721
-1.1294506E-4
0.0038523714
0.007728113
0.007826594
0.0025816117
-0.0037290347
-0.006954813
-0.008056581
-0.0063310945
-0.003556325
-3.1013507E-4
0.0045495457
0.008650065
0.010359435
0.005575639
-0.0039494717
-0.00884649
-0.009020309
-0.007053385
-0.002746624
9.774247E-4
0.0047157314
0.009005174
0.008976146
0.0046939184
-4.505884E-4
-0.0048197047
-0.005041635
-0.0034430819
-0.0031530384
-5.788084E-4
0.003071586
0.007047488
0.009909621
0.0048320936
-0.0034365403
-0.008185019
-0.009923223
-0.0075685233
-0.0039443267
-4.4129998E-4
0.004886802
0.009881841
0.010540534
0.004996553
-6.4585893E-4
-0.0032156853
-0.0058354214
-0.005365257
-0.0028378707
-0.002184617
9.6092507E-4
0.0073836856
0.009988467
0.0045662406
-0.004025428
-0.009104646
-0.009411862
-0.0067204195
-0.0037831876
-4.4712008E-4
0.0038511483
0.006908649
0.008317143
0.005974464
-8.7933836E-4
-0.0054752356
-0.004322373
-0.0024534804
-0.0032727558
-0.0032921776
0.0010418289
0.007714179
0.010417695
0.005909141
-0.00152158
-0.00663681
-0.0071676876
-0.00540745
-0.0041442704
-0.0015620383
0.0024692903
0.007898952
0.010846501
0.0058707534
1.0137286E-4
-0.0031438202
-0.0055165766
-0.0044258707
-0.0051791132
-0.0061502443
-3.7441807E-4
0.006553242
0.009004183
0.0057411976
-5.427907E-4
-0.00559815
-0.0073395013
-0.0047783223
-0.0016564382
1.8664969E-4
-2.2681765E-4
7.0803246E-4
0.007898191
0.007901988
-7.9859176E-4
-0.003665087
-0.0036810297
-0.0033311269
-0.0020488598
-0.0014604868
0.002870038
0.008042426
0.009585384
0.0059959344
-0.0021085113
-0.0069667045
-0.007151401
-0.0065972637
-0.0056737484
-0.0020255363
0.0041192775
0.007414055
0.008048273
0.005056148
-0.0026986864
-0.0065839966
-0.0064355037
-0.006445504
-0.005018501
-0.0032133972
8.718627E-4
0.0074169007
0.009783049
0.0056246016
-7.4867555E-4
-0.005784006
-0.00907351
-0.007542694
-0.0020710058
0.0010724958
0.004346602
0.010097303
0.011955443
0.0074034664
5.8339554E-4
-0.0044436236
-0.0057643587
-0.003773594
-0.002148039
-0.0018275942
0.0013231758
0.0069023897
0.009152214
0.0045237513
-0.0037059926
-0.009247521
-0.010094793
-0.007252358
-0.0044232137
-0.0030825501
0.0012257344
0.007829676
0.010738991
0.007007663
-2.1292044E-4
-0.0042867027
-0.0046953154
-0.004610924
-0.0044208807
-0.0032222597
0.001024009
0.006618801
0.009515634
0.008157486
0.0015872631
-0.0053741643
-0.0071795904
-0.0060665132
-0.0041878596
-0.0026052254
3.218802E-4
0.00694442
0.010185107
0.006622092
4.3524217E-4
-0.0063689277
-0.0080423085
-0.004705443
-0.003949175
-0.003789334
-1.6538723E-4
0.0054139313
0.009160174
0.007329475
8.391736E-4
-0.0054132435
-0.006398429
-0.004133878
-0.002966238
-5.860822E-4
0.004049651
0.008167976
0.008915728
0.0063951164
0.0010373619
-0.0060632084
-0.007683374
-0.005901666
-0.004429973
-3.1221873E-4
0.0013064165
0.0055693467
0.011546512
0.006735218
0.0010270152
-0.006164628
-0.0155657595
-0.012310159
-0.007958923
-0.005457794
0.0034871483
0.0086125
0.010055974
0.008861987
0.0037366557
-5.000897E-4
-0.003427135
-0.0027083477
-0.002132355
-0.0024891316
0.0010950533
0.004527913
0.007405596
0.0068677897
0.0011591578
-0.0040109027
-0.007955605
-0.0074213385
-0.0050118
-0.003700893
0.0014100057
0.004796944
0.005449147
0.0059352624
0.0018815479
-0.0029494504
-0.0050335303
-0.0044461093
-0.0025376447
-0.0018374891
0.001175994
0.0062318277
0.00848659
0.005601968
-7.0952455E-4
-0.005032917
-0.0066524865
-0.0064159404
-0.0045162914
-0.002181784
0.0019267835
0.006825895
0.009490822
0.0076833097
0.0013263051
-0.005283296
-0.008149897
-0.006235299
-0.0035942346
-0.0034557765
-0.0015712559
0.0039852075
0.0082420735
0.0072733047
0.0033568437
-0.001662744
-0.0066204844
-0.007002876
-0.004390524
-0.001183378
0.0033294484
0.0070588184
0.010259516
0.009714373
0.0032878672
-0.0037072445
-0.008111193
-0.007382265
-0.0056532864
-0.006344522
-0.0021730333
0.0053242925
0.009703613
0.00818907
-2.8041814E-4
-0.0081558665
-0.00972085
-0.0068072127
-0.0030940406
-9.7404607E-4
0.0016199219
0.0054652495
0.008861867
0.008456639
0.0026081202
-0.0031468153
-0.0051418673
-0.0053030187
-0.0049179136
-0.002077561
0.0029675884
0.0071859336
0.010935438
0.010562146
0.003516108
-0.0042944867
-0.008254316
-0.0066664186
-0.0068891393
-0.010555398
-0.0046422468
0.005585388
0.009156821
0.009666668
0.0056359745
-0.00174075
-0.0052143624
-0.0057150126
-0.005490833
-0.0033035306
-5.665858E-4
0.0025499642
0.007975649
0.008593202
0.0012899892
-0.0051260064
-0.008170811
-0.00749633
-0.0041836817
-0.0021094766
0.0017718165
0.0068284515
0.01023181
0.009813634
0.0026587022
-0.0034743466
-0.004044608
-0.0034176882
-0.003354761
-0.00432891
-0.0020915223
0.0039351704
0.00781403
0.0082520265
0.0034306366
-0.004927484
-0.008823231