-0.0054680593
-0.0015953812
3.0855447E-4
-3.5804018E-4
-1.7147204E-4
0.0018771684
0.0033963697
2.8841794E-4
-0.003562887
-0.0029479961
-6.5020524E-4
1.002647E-4
-7.8263326E-4
3.8073838E-4
0.003990609
0.004471957
0.0020869705
-9.727117E-4
-0.003603421
-0.0034521127
-0.0025777002
-7.7898824E-4
0.00214304
0.0029313294
0.004016715
0.0043211333
0.0012612754
-0.0010320826
-0.0024771378
-0.002987729
-0.0021197547
-0.0026533126
-0.0020971827
0.001024387
0.004189716
0.0050626
0.0026137347
-3.4913284E-4
-0.0022222153
-0.0020136759
-5.4863736E-4
-3.081176E-4
0.0012082555
0.0027044108
0.0022726085
0.0026617185
0.002111442
-4.8064612E-4
-0.0022873126
-0.001302996
-0.0016557487
-0.00425687
-0.001531227
0.0017810251
0.0029943371
0.004987836
-9.975042E-4
-0.0072676255
-0.006318706
-0.0066298535
-0.0031723068
0.0012746571
5.932878E-4
0.0025274293
0.0052752914
0.006463138
0.005508129
0.0010402607
-0.0013861322
-0.0018466306
-0.0014963615
-0.0012980559
-0.002387159
3.092225E-4
0.0038143683
0.004374847
0.0044795116
0.0016213729
-0.0025130003
-0.002826388
-0.0013954766
-0.0014260157
-0.0020405736
-0.0013297811
1.7024462E-4
0.0017039777
0.001856796
-0.00193764
-0.005603163
-0.0036130447
-7.904749E-4
-0.0013381465
-3.6085155E-4
0.0022264377
0.0036272747
0.0052100383
0.003793455
-3.6305754E-4
-0.0020005864
-0.0029545308
-0.004052208
-0.0027827204
-6.020547E-4
-4.8674067E-4
-8.415803E-4
0.0020299137
0.0031683363
1.7262637E-4
-5.2590494E-4
-3.1216885E-4
-8.252661E-4
-3.4044348E-5
-3.0442403E-4
4.0349734E-4
0.0032548192
0.004312032
0.003468022
0.0013315945
-9.7345386E-4
-0.0021635937
-0.0024128153
-1.8107102E-4
0.0022080573
0.002723033
0.0042896126
0.0049272953
0.002780713
-7.4836E-4
-0.0041519813
-0.0032447977
-9.771537E-4
-7.984589E-4
-3.9955764E-4
-0.003737565
-0.005296993
3.8482266E-4
-6.4834877E-4
-0.0072029936
-0.007469892
-0.004599803
-6.741919E-4
0.002027381
0.0017460092
0.0020223982
0.0022679898
0.0038289763
0.004606254
6.8107946E-4
-0.0013350267
-5.25777E-4
-5.8203714E-4
2.0625557E-4
5.25623E-4
2.1541513E-4
0.0016822518
0.004543814
0.005563283
0.002076881
-0.0021046193
-0.0033067858
-0.0024329948
-8.582006E-4
-4.3354932E-5
7.148127E-4
0.0017616595
0.003003634
0.0040220683
0.0012324163
-0.003419923
-0.0050411215
-0.003505845
-3.601671E-4
5.796144E-4
3.0764274E-4
0.0028964323
0.0048449314
0.003402552
4.8088894E-4
-0.0017757535
-0.0028409038
-0.0039730687
-0.004149025
-0.003019965
-0.0014298864
0.001078818
0.0024936267
0.0012419075
-0.0010440642
-0.0024527507
-0.002898539
-0.0026652836
-0.0015755779
-0.0013161353
-5.686243E-4
0.002212608
0.003752352
0.0036656177
0.0013260664
-0.0023117259
-0.002116686
-0.0015433594
-0.002186487
6.425189E-4
0.003476025
0.0043447865
0.006038371
0.0061348528
0.0022400972
-0.0025060566
-0.004220138
-0.003640972
-0.0021911168
-4.9944676E-4
4.126784E-5
9.940872E-4
0.0020093431
0.0010287821
-2.8926335E-4
-0.0015434972
-0.0025520471
-0.0029809242
-0.0025406927
1.6976304E-4
0.002345089
0.003285053
0.004334359
0.0028827786
6.015285E-5
-0.0023147552
-0.0030978273
-0.0013026629
-0.0014344308
-0.002459511
-3.7018856E-4
0.0026506323
0.0053281677
0.004813489
3.736142E-4
-0.0032372638
-0.004840245
-0.0045783073
-0.0030505392
-0.0020643927
-0.0016314366
-7.636481E-4
0.0018753608
0.0037932633
0.002600741
9.484371E-5
-0.002777068
-0.0032408566
-5.8860506E-4
7.0157344E-4
0.0013948947
0.0040511796
0.004455946
0.001080102
-1.12809386E-4
3.1916125E-4
-0.0018925682
-0.0036874628
-0.005087701
-0.005062926
4.599077E-4
0.004866035
0.0052237413
0.005218474
0.001976009
-0.0024718577
-0.0027255842
-9.2260865E-4
-5.4633623E-4
-0.0011519813
1.650336E-4
0.0031661326
0.004149427
0.0020837246
-9.5007435E-4
-0.003637572
-0.0053650443
-0.004805745
-0.0027891914
-3.0046856E-4
0.0017911614
0.0013477666
0.0019010069
0.0034534563
2.2768656E-4
-0.002691393
-0.00183657
-0.0024183919
-0.002989871
-0.0017865136
-5.403432E-4
0.0022723319
0.0053064437
0.004612459
0.0018018951
-6.775834E-4
-0.0029026065
-0.00269293
-3.1972743E-4
9.595014E-4
0.0010374167
0.0014214986
0.002988928
0.0031015438
4.3592774E-4
-0.0015264229
-0.0025112317
-0.0025976342
-0.0020717822
-0.0029519657
-0.0027538864
-1.5978375E-4
0.0030295334
0.0035323664
-3.9594749E-4
-0.0028380316
-0.0021166918
-0.0015413872
-0.0010430982
-0.0018809941
-0.0014600483
0.0028258557
0.0063498034
0.006250956
0.0021468988
-0.002182888
-0.0021414456
-0.001510133
-0.0019231412
-0.0016338197
-0.0016048026
3.590236E-4
0.003468498
0.0032125968
9.628536E-4
-0.001663497
-0.0041928897
-0.0045155836
-0.0038038273
-0.0025705916
5.638867E-4
0.003293825
0.0037992198
0.0032912036
0.0018290842
-0.0012109447
-0.0027313428
-3.118858E-4
9.458854E-4
-0.0015111916
-0.0021558118
0.0010453581
0.0035306937
0.0030271043
0.0022180313
-2.1968919E-4
-0.0041023334
-0.0030560435
-1.4753109E-4
0.0013631666
0.0015940097
-0.0037761934
-0.0048175147
0.0021052132
0.0032792268
8.631282E-4
-0.0013860452
-0.0036599748
-6.2399416E-4
0.0010752912
-6.054559E-4
0.0014270579
0.0041998657
0.004589473
0.0027370073
-6.529193E-4
-0.0035834513
-0.005007462
-0.003448248
-9.846136E-4
2.8914888E-4
0.0024272944
0.0051180087
0.005996536
0.0033946477
-0.002440302
-0.006842574
-0.0058339383
-0.0030359447
-0.0015342229
3.858919E-4
0.0018965871
0.0036122727
0.004348671
9.626032E-4
-0.0013529354
-0.0011442312
-0.0012395254
-0.0014636843
-0.0021128503
-2.3333294E-5
0.0019444326
0.001564546
0.0032812806
0.0019492435
-0.0011675492
-0.0015525689
-0.0033403183
-0.0028486012
-0.0014000816
-0.0022764474
-3.8429233E-5
0.002530571
0.0026651528
0.0018175668
-8.282329E-4
-0.0035345044
-0.0036291792
-0.0012103532
-3.5179936E-4
9.925153E-5
0.0031421566
0.005270953
0.0060238955
0.0036072943
-9.987865E-4
-0.001876855
-0.0018017906
-0.0017438122
-0.0014927256
-0.0021241284
3.877627E-4
0.0034500845
0.0043742335
0.0038215665
-4.507465E-5
-0.004587082
-0.00698502
-0.0055277017
-0.0018129726
-2.4393512E-4
6.4886507E-4
0.0021659932
0.003774518
0.0027177157
-0.001012827
-0.0020064178
-0.002390704
-0.002798197
-0.0015929443
-8.0460083E-4
0.0012398591
0.0023873202
0.0036525526
0.0042959843
-0.0016158002
-0.0038477927
-0.0018121665
-0.0042893607
-0.002788519
9.986109E-4
0.0010496486
0.0032067918
0.005624318
0.0040973714
8.249105E-4
-0.0017032779
-0.003239807
-0.002529518
-2.5614703E-4
-6.4602355E-4
1.3602251E-4
0.0039960556
0.0050973548
0.0036348065
7.899258E-5
-0.0044618347
-0.005631809
-0.003582077
-0.0011749668
-8.725321E-4
-3.9267892E-4
0.0016346708
0.002270205
0.0023591819
7.51602E-4
-0.0023304333
-0.0022277231
-0.0012377271
-0.0021334365
-0.0028167889
-0.001720981
8.835487E-4
0.0035163453
0.0038903304
6.3554185E-6
-0.0034262587
-0.0028665462
-0.0028208431
-0.0017030429
0.0019800558
0.003463369
0.004100792
0.0051722364
0.0041758576
5.3722813E-4
-0.0033578293
-0.0024286625
3.5235178E-4
-2.6663634E-4
4.8532482E-4
0.0023879532
0.0017220827
0.0026188116
0.0028888662
-0.0016803961
-0.00410716
-0.0018451565
-0.0013856667
-0.0027295891
-0.0012822725
0.001049585
0.0018786461
0.0030133878
0.0021014092
-0.0011061358
-0.0025091746
-0.004148221
-0.0050230543
-0.0031223916
-0.0024621368
-7.077492E-4
0.0027652734
0.0038045573
0.002838996
4.4924087E-5
-0.002012952
-0.0023810796
-0.002012454
4.77343E-4
7.982232E-4
6.19688E-4
0.003093385
0.003421714
0.004181194
0.0032007333
-0.0019765017
-0.0022795773
-4.165706E-5
1.5934557E-4
0.0010205875
0.0019541765
0.0047395155
0.0072395313
0.004050817
-0.0021567212
-0.005578594
-0.0058051627
-0.006205861
-0.003424673
0.0014713301
9.96473E-4
8.4927154E-4
0.0016332528
-0.002209164
-0.003080098
-0.0010477549
-3.7031082E-4
0.0013727333
2.2105091E-4
-0.0014646503
8.335222E-4
0.0019877097
0.0033561809
0.0042967815
1.2909634E-4
-0.0025074694
-0.0016927568
-0.0020799004
-0.0012987113
4.8384763E-4
0.0014990363
0.003387005
0.0041538635
0.0025332517
2.1515146E-4
-0.0028912248
-0.0047355243
-0.00317843
-0.0015944213
-0.0017417725
-0.0015727389
1.3184517E-4
0.0037878528
0.0048281667
3.610115E-4
-0.0027893016
-0.0021831654
-0.0017513997
-0.0013273839
6.1865017E-4
0.0027672974
0.0029989954
0.0034765427
0.004714892
0.0026897613
-5.70206E-4
-0.0014752503
-6.2071363E-4
-6.9260725E-4
-0.0028288641
-0.0018432626
0.0018653816
0.0038534058
0.0049053025
0.0025145006
-0.0022591539
-0.0045141974
-0.004066241
-0.0013013869
-1.1964983E-4
-0.0012505398
6.457159E-4
0.003923133
0.0029553687
-0.0017013992
-0.004296572
-0.0042039654
-0.0036936502
-0.0016395617
-2.9851185E-4
4.225295E-4
0.0022452353
0.0028705331
0.002517606
-5.6002827E-5
-0.0037693062
-0.004662012
-0.004684806
-0.003563029
-5.3241866E-4
0.001038748
0.0019687037
0.0050150896
0.0069812555
0.0052471077
0.0038116204
0.0016476788
-0.0025442252
-0.0034300254
-0.002317527
-4.1378295E-4
0.0041786465
0.007897205
0.0067475946
0.0012922778
-0.001965455
-0.0033155158
-0.0057130456
-0.0034113433
-5.0483574E-4
-8.3734095E-4
0.0015614945
0.0030529571
5.8095733E-4
-7.7646493E-4
-4.640045E-4
-0.002438978
-0.0031202834
0.00126136
3.641776E-4
-0.0045267367
-0.002676468
-0.001387782
-0.002307196
7.9135934E-5
7.3423114E-4
-3.798792E-4
3.992183E-4
0.0011880286
-1.6882291E-4
-0.0015866035
2.0520184E-4
0.0022015218
0.001379982
-8.380308E-4
-0.0027844033
-0.0019485513
-2.0579009E-4
-0.0016713267
-0.003039443
-0.0014594044
0.0011804135
0.0047915666
0.006333099
0.003557032
5.980842E-4
-0.0017899547
-0.0017335142
0.002035596
0.0025252113
3.9769037E-4
7.8338664E-4
0.0026919134
0.0058881273
0.008807385
0.009667575
0.0062112724
-0.0029786145
-0.0092919925
-0.006594688
-0.0018254586
-5.5264466E-4
0.0010297073
0.002522751
-5.6825957E-4
-0.0028653878
-0.0025615494
-0.0042570033
-0.0065537994
-0.009052124
-0.008356311
-0.001479799
0.004697926
0.004933328
-4.6164615E-4
-0.0059408704
-0.009132537
-0.011167656
-0.0065901633
5.9788435E-4
0.0028988207
0.003638997
0.006473358
0.013301933
0.0145037165
0.004890253
-9.0741995E-4
-0.0017394581
-0.004179153
-0.0041304
-0.0010289422
0.0023092404
0.0031853882
0.005010045
0.01025841
0.011547141
0.008078973
2.2764454E-4
-0.010142547
-0.011111516
-0.0036118398
0.0022618063
0.0039948043
5.2100635E-4
-0.0044328594
-0.004017327
-9.7334414E-4
-0.0027588676
-0.0072568315
-0.007473604
-0.0017540551
0.005681185
0.00790691
0.0069480776
0.0050083185
-0.0023780025
-0.0074358387
-0.0063272673
-0.00556445
-0.0026766323
-9.016369E-4
-0.0035247102
-0.0025657944
0.0025686221
0.004093647
-0.0015254756
-0.005012936
-0.001861257
-0.0019598093
-0.0046593943
-0.004051199
1.1716673E-4
0.0041489955
0.003012487
0.0037514262
0.004569546
-0.0018414872
-0.0027518037
0.003229291
0.006706673
0.007806548
0.0043081786
-0.0011934865
-0.0035923095
-4.2232612E-4
0.005549636
0.001333252
-0.0065371967
-0.004318305
-8.2979444E-4
0.0026420595
0.005881857
-6.7127985E-4
-0.0046363077
0.0022454008
0.0054586204
0.0018853074
-0.0026601877
-0.003646313
7.7068445E-4
0.002462371
0.0017350449
7.778542E-4
-0.009144449
-0.019299444
-0.017788453
-0.011950592
-0.002232838
0.009738004
0.0110399695
0.00434693
-6.145409E-4
-0.0015492137
0.0023886373
0.005311399
0.0059012147
0.006621291
0.0038575716
0.0044160914
0.0050640963
-0.004437028
-0.008724021
-0.007878967
-0.011487882
-0.0067979186
0.0012453623
0.0045879073
0.0075056246
0.006908406
0.008515505
0.009970512
0.0045336974
0.0019372546
0.0042450284
0.007664882
0.0058437753
-0.0010629211
-0.0011923237
0.0021184613
0.0019019333
-0.008380675
-0.023085294
-0.016958037
-0.0053560897
-0.008669977
-0.005943312
-8.219088E-4
-0.0046135257
-0.0044681705
-0.0026081058
-0.0018810073
0.0032241046
0.0015524962
-0.014423523
-0.023823801
-0.010790173
-0.003550581
-0.017543664
-0.0132121425
0.0113196
0.020920156
0.029858315
0.044166427
0.042374305
0.031187493
0.022057109
0.022796007
0.018279226
-0.014297022
-0.03424231
-0.013665108
0.016504345
0.04132425
0.0479898
0.038166344
0.038948476
0.03122004
0.0012778537
-0.026244655
-0.054813135
-0.082898416
-0.09990565
-0.10276283
-0.07707116
-0.044950277
-0.01117958
0.04532638
0.075719744
0.064146355
0.049359586
0.033493537
0.0057934457
-0.050654214
-0.09471237
-0.090029396
-0.096850276
-0.09396797
-0.04165455
0.0014838068
0.03357084
0.061274372
0.059668012
0.051294122
0.055464502
0.08300686
0.12697586
0.15087914
0.14084749
0.093310274
0.019053172
-0.04397587
-0.109305725
-0.19973426
-0.1818916
0.016158218
0.17431135
0.17854339
0.15559432
0.13428923
0.06316942
-0.06871606
-0.19483109
-0.21414642
-0.1634627
-0.11377169
-0.059616618
-0.030663142
-0.05384023
-0.06600662
-0.017087549
0.024488755
0.00547868
-0.034422606
-0.04921644
-0.024585763
-0.026839366
-0.05061055
0.0037740744
0.076783456
0.11965028
0.16126582
0.16083479
0.1503704
0.13213935
0.053402867
-0.031085903
-0.08814116
-0.11106585
-0.09277491
-0.05386938
-0.013860331
-0.009856692
-0.0017194116
0.022730695
0.024315298
0.10182405
0.21450955
0.19469753
0.10486465
0.035011142
-0.045911092
-0.1623276
-0.27692816
-0.30318102
-0.22750263
-0.0953085
0.036408495
0.10219813
0.121954404
0.12137084
0.0631219
-0.035261713
-0.081157304
-0.04943182
-0.040105116
-0.06892422
-0.06691097
-0.056243107
-0.035799276
-0.0024174626
0.009784355
0.019294208
0.005164729
0.020689728
0.14605258
0.24371733
0.24269189
0.22069894
0.16549052
0.043948945
-0.12190455
-0.21951768
-0.17431985
-0.09175012
-0.03700184
-0.007927853
-0.022860916
-0.03931961
-0.044952977
-0.056972437
-0.042967293
-0.010092662
0.009021946
0.013646491
0.007964381
-0.0027617803
-0.002770913
0.0042650215
-0.005181752
-0.010138971
0.01105535
0.03476109
0.053833853
0.058527697
0.047498465
0.05958507
0.100084886
0.12610768
0.097562976
0.026657932
-0.04657849
-0.11047793
-0.14109519
-0.12318724
-0.09045539
-0.06554288
-0.047128417
-0.03129342
-0.018108657
-0.0012143903
0.035181265
0.06648245
0.049092345
0.0027857483
-0.014861974
1.2905367E-4
0.009110842
0.0075048343
0.00744234
0.006790332
0.012558185
0.024874957
0.028300878
0.02123117
0.01744649
0.018273441
0.012113022
0.004643467
0.0044512963
0.0041518556
8.659417E-4
-0.0031215504
-0.005273117
-0.007849866
-0.015784435
-0.018904734
-0.010858096
-2.6050268E-4
0.006772737
0.009164012
0.00969261
0.0071028145
0.004033756
0.008809075
0.011363025
0.0050976253
-5.0469715E-4
-0.004300966
-0.006798175
-0.0087076975
-0.011681295
-0.013052541
-0.0146591
-0.01618397
-0.017880663
-0.021225797
-0.019647434
-0.015318612
-0.011672728
-0.0042838636
0.0026768802
0.008626381
0.016345188
0.0195568
0.01624952
0.0100077735
0.0045519937
0.0020898287
0.002009366
0.0039372942
0.0053455755
0.006270112
0.008065401
0.0077001518
0.0057587717
0.0018154372
-0.0028282125
-0.0027648653
-0.0025355476
-0.0024346337
0.0013732765
0.003459198
0.005853452
0.009231075
0.006322604
3.4122748E-4
-0.0039186156
-0.0059318612
-0.005089544
-0.0032045934
-3.4809916E-4
0.002496008
0.0030154574
0.002585922
0.0015555454
-0.002926267
-0.00844456
-0.0076548564
-0.003952746
-0.0033832595
-0.0023054667
-2.873911E-4
0.0026212977
0.0057626883
0.0029866623
-0.0030259318
-0.006326373
-0.0065948446
-0.0052027875
-0.00377375
-0.0011566695
0.001327851
0.003845328
0.007914315
0.0074109836
0.002925678
7.212351E-4
1.0611446E-4
-0.0024242238
-0.005896307
-0.0035751157
-6.8354956E-4
-0.0021395788
-3.1413502E-4
-0.0032416503
-0.0105440095
-0.007791571
-0.0045413077
-0.0048917634
-0.0015723725
2.920503E-4
0.0016388897
0.004587763
0.005300881
0.0029330608
-0.0022200157
-0.005185084
-0.003130575
8.997925E-5
0.0016599962
0.002749003
0.0065016854
0.009977489
0.009892432
0.0070143524
7.012201E-4
-0.004000207
-0.0034345512
-0.0021458974
-0.0011110855
0.0017466281
0.0055347895
0.0059230016
0.0045675244
0.0055517033
-7.832613E-5
-0.0099904435
-0.008607562
-0.0028300656
-0.0016883478
1.9188956E-4
0.0022965348
0.0051576174
0.00835935
0.006327488
0.001958025
-0.0018139553
-0.003721544
-0.0012800412
2.0356302E-4
-4.871987E-4
0.0013464555
0.0038292848
0.0050243638
0.0042985897
3.1051532E-4
-0.0032323592
-0.002887033
-0.001991619
-0.0028665697
-0.001537219
0.0023271411
0.004895386
0.006528126
0.0050558117
-7.254431E-4
-0.004411666
-0.0048409756
-0.004262259
-0.002426036
-7.784925E-4
0.002465569
0.007400005
0.009295042
0.0077856537
0.0037350743
-8.8408584E-4
-0.0026349644
-0.0035705944
-0.005806468
-0.0069103586
-0.0034644357
0.003025517
0.005150245
0.0018391402
-0.0020060418
-0.005607457
-0.0077732042
-0.006571254
-0.0037361146
-1.7198396E-4
0.003476584
0.004839762
0.0059033222
0.0070620063
0.0025643918
-0.0031476782
-0.0022675255
-4.2536823E-4
-0.0010804579
-7.531442E-4
0.0015273499
0.0044743144
0.0052702515
0.004864866
0.0030108467
-0.002433684
-0.0052445782
-0.00360951
-0.0021173959
-5.8339466E-4
5.887597E-4
0.00294114
0.005687377
0.0034442
6.820938E-4
5.4473752E-5
-0.0016423034
-2.5071745E-4
0.0024423832
0.0012523724
3.876772E-4
0.0021189381
0.005172034
0.0058792606
8.0296333E-4
-0.0045545287
-0.006076505
-0.0048469803
-0.002693933
-0.002770785
-0.0030275164
-0.0010569383
0.0022304065
0.0046991827
0.0023513364
-0.0011584007
-0.0043592784
-0.00890933
-0.006211714
2.6598602E-4
0.0021634824
0.005382857
0.0076324195
0.0046840757
8.106652E-4
-0.0030947872
-0.0047759116
-0.0030013947
-0.0011978103
-2.4666122E-5
0.0019957821
0.0042444216
0.004847377
0.0040889583
0.0014058378
-0.002671654
-0.004065979
-0.0031174023
-0.001607812
-1.2849389E-4
-1.5945185E-5
0.0014112542
0.0049139806
0.005882469
0.0027079699
-9.799534E-4
-0.0026889099
-0.0040844986
-0.0036085574
-6.7968555E-5
0.002115814
0.0034375226
0.0056659644
0.0050658337
2.1417742E-4
-0.0054538115
-0.0067440416
-0.003844204
-0.0025652144
-0.0027464004
-9.562559E-4
0.0016052158
0.00392115
0.003758862
-7.1336527E-4
-0.0038722917
-0.0042394493
-0.0045927814
-0.0019130762
0.0011655202
0.0019687396
0.0053400453
0.007801157
0.005268636
0.0012441437
-0.0027211607
-0.0042164125
-0.0024715734
-0.001447335
-0.0020956865
-0.0018920681
0.0016004333
0.005534262
0.0038015428
-0.001683322
-0.005550195
-0.007073423
-0.0060736714
-0.0034086346
-6.936029E-4
0.0015248217
0.0028062987
0.0050464137
0.006273364
0.0024284776
-0.0013896369
-0.002056476
-0.001618949
3.9379534E-4
8.6187007E-4
6.178473E-4
0.004238075
0.007317991
0.006775892
0.0032538006
-0.0033965504
-0.0066675665
-0.00389318
-0.003318249
-0.0049039973
-0.0015923099
0.002715619
0.004128477
0.0046880366
0.0012273468
-0.0041537764
-0.0052328394
-0.004254619
-0.002903595
-0.0019959214
-0.0018103691
0.0013653571
0.0049678907
0.0045936075
0.0013577675
-0.0033643728
-0.006662378
-0.005253026
-0.001397269
2.2015284E-4
0.0011685957
0.0045477487
0.006895113
0.0060906983
0.0031143092
-8.7679096E-4
-0.00332173
-0.004389049
-0.005074734
-0.0050967135
-0.002297728
0.0044658384
0.008564419
0.0067985957
0.002993822
-8.8905735E-4
-0.0034390928
-0.004720552
-0.0034395172
-7.973166E-4
-4.3772827E-4
0.0022773736
0.0052787093
0.0025738296
-5.766488E-4
-0.00239842
-0.0032513647
-0.002086289
-0.0013986462
-0.0012164374
-0.0010109079
0.0018418182
0.0063649383
0.005548652
0.0011107707
-0.00404082
-0.008577648
-0.0075728553
-0.0030136758
3.5811975E-4
0.002158837
0.0041545783
0.0060953614
0.005177673
0.0029443002
2.6912286E-4
-0.0025863855
-0.0021474478
-0.0010211719
-0.0019596887
-0.0013910095
0.001817256
0.0050637526
0.0052979547
0.0013075435
-0.0032270122
-0.0044007655
-0.004686897
-0.0043364675
-0.0015957676
-0.0010890971
-4.563443E-4
0.0038037498
0.0050654644
0.003193085
4.7570412E-4
-0.0028858958
-0.0035947743
-0.0033567178
-0.0030604994
-0.0020399017
-3.0913565E-4
0.004491648
0.006966761
0.0034343274
-8.320577E-4
-0.0038247965
-0.0043256213
-0.0023425964
6.736337E-5
0.0022399412
0.002491785
0.002310989
0.0035992835
0.0027760826
-0.0012381908
-0.00383103
-0.0041305767
-0.0046869027
-0.0028360412
9.36789E-4
0.0024911484
0.0044537936
0.005205502
8.603993E-4
-0.0037054718
-0.0051135193
-0.004235124
-0.0028593035
-0.0014446954
9.187087E-4
0.0022871252
0.003987711
0.005748876
0.0025558923
-0.0019908615
-0.0034180388
-0.003402884
-0.003221368
-0.0030018978
-1.3645193E-4
0.003418289
0.0035161288
0.003980001
0.0041325963
-2.1139791E-4
-0.0047142166
-0.005935701
-0.004735686
-0.001571054
8.560554E-4
0.0023931446
0.006358581
0.0077123167
0.0027936024
-1.6252915E-4
-7.874223E-4
-0.0034843527
-0.0035769418
-0.001973556
-0.0017598752
8.715559E-4
0.00584632
0.007890946
0.0033721577
-0.0027677289
-0.0051570013
-0.006588427
-0.0053135
-0.0015546866
-0.0016035611
-3.490415E-4
0.0048261457
0.005925349
0.0033944398
-1.0083204E-5
-0.0037752774
-0.003391947
-0.0011392584
-0.0010504932
-6.550526E-4
3.9639397E-4
0.0036393756
0.0071375854
0.003772784
-0.0019907143
-0.0041211178
-0.004704205
-0.0039929114
-0.0032344197
-0.0017216774
0.0034905619
0.006729544
0.00482604
0.0029474238
-5.232012E-4
-0.00565781
-0.0048819347
-0.0020825425
-0.0022688576
-3.835487E-4
0.00212267
0.0035915435
0.0050881645
0.0031252648
-2.5524027E-4
-0.0018560113
-0.0028513998
-0.003391835
-0.0018940803
0.0023938296
0.005605798
0.0072169285
0.00740654
0.0030113007
-0.0014856731
-0.0031117045
-0.003204465
-0.0022663325
-0.0024390784
-0.0011799424
9.63741E-4
0.0024435734
0.0046553146
0.0017360568
-0.0037902473
-0.0057179704
-0.007328354
-0.0064714793
-0.0020678283
0.0014719756
0.002320089
0.0017407605
0.0028660682
0.002447187
-0.0012003147
-0.003190303
-0.0034089743
-0.0024615952
-8.649315E-4
-4.47135E-4
8.978326E-4
0.0043847137
0.0066724685
0.005098104
0.0015334303
-0.0018302223
-0.0034295425
-0.001981128
-3.156932E-4
4.7953683E-4
0.0020905172
0.0040210746
0.0047789225
0.0029093476
-2.0839351E-4
-0.0029725558
-0.0045318753
-0.0034876408
-0.002324447
-0.0018669368
-4.641052E-4
0.0019605022
0.0049857604
0.0039585917
-0.0011187774
-0.0038503434
-0.0045910995
-0.0047850832
-0.0029401802
8.9461935E-7
0.0020784338
0.003190465
0.0046575204
0.0041133496
5.9507485E-4
-0.0012948448
-0.0010542858
-0.0014100109
-0.0023556943
-0.0017363386
1.3953609E-4
0.0012278934
0.003017565
0.003172851
-9.359758E-4
-0.0043253778
-0.0046680006
-0.0036218925
-0.002880228
-0.0018568893
0.0016825239
0.0045415196
0.0037202218
0.0011528603
-4.159776E-4
-0.0010493668
-0.002417976
-0.0024942826
-0.0012445769
-2.1334982E-4
0.0011845012
0.0026369356
0.005053278
0.004680439
5.9999054E-4
-0.0013822636
-0.0027200237
-0.0027623714
-0.0010995296
-0.0010610934
2.9823056E-4
0.0024345594
0.0049164407
0.006060667
0.0017995883
-0.0024499346
-0.0046450375
-0.0044865436
-0.0018679746
-5.5605266E-4
0.001174088
0.002294112
0.004728521
0.006446047
0.001578705
-0.0010979347
-0.005313231
-0.009379043
-0.0033280125
-0.0035011712
-0.0041268608
0.003235743
0.0021883126
0.0029347313
0.005830174
-4.8456917E-4
-0.0024940395
-6.275051E-4
-0.0011128024
-9.3444117E-4
-0.0013346412
8.2365266E-4
0.0039961413
0.0028402717
-7.8898243E-4
-0.0037381724
-0.0038445329
-0.0017030411
-2.4198591E-4
-3.851653E-5
0.0020914448
0.005174903
0.0056469734
0.005797373
0.0035112386
-0.001631276
-0.0031210377
-0.003127049
-0.002819053
-2.2350694E-4
0.0014117671
0.002532367
0.0037261914
0.003939856
0.0020029978
-0.0032804282
-0.005230111
-0.002270811
-0.001557096
-0.0011386549
0.0013012121
0.0020383243
0.0021191323
0.0025611718
6.4609965E-5
-0.0041795885
-0.0045128013
-0.0027962888
-0.0035852576
-0.003019748
-4.68482E-4
0.0026033833
0.0068441085
0.0045892317
-0.0022682415
-0.0038644637
-0.0039185574
-0.0034492128
-0.0015165585
-9.7655744E-4
0.0014343464
0.0042029056
0.0054452308
0.0059032347
0.0023774887
-0.0017960503
-0.0031697354
-0.0027875071
-0.0017897689
-0.0020558923
-1.0289377E-4
0.0037958785
0.0037835147
0.0020250396
0.0010937834
-0.0014893856
-0.0041544745
-0.003429854
-0.0020018301
-0.001729755
7.403389E-4
0.0037747747
0.0038937996
0.0028382782
0.0019121458
-2.2590504E-5
-0.0020531975
-0.00129301
-4.377169E-4
-0.002997464
-0.0040352554
1.8317795E-4
0.0051959064
0.00517595
0.0015819123
-0.001458679
-0.0045125782
-0.0051436727
-0.0025037795
-8.4026565E-4
3.7447887E-4
0.0013427346
0.0016190477
0.0016207307
-1.8816658E-4
-0.0025847813
-0.0047483593
-0.004642848
-0.0015120121
-3.1351016E-4
7.3586137E-4
0.0034805574
0.004262202
0.0038161355
0.0018726357
-0.0015163712
-0.0036395094
-0.004486885
-0.0034421945
-5.13902E-4
0.0021799686
0.004139577
0.0055105216
0.004667084
0.0012108536
-0.0016889394
-0.0022641094
-0.001323262
-0.00107474
-0.0019580307
-9.453286E-4
0.001312005
0.0032755407
0.0038894827
0.0013022352
-0.0012396713
-0.0031372253
-0.0047740317
-0.003578237
-0.0026191287
-0.0018699158
0.0012317492
0.0039850576
0.0047294395
0.0023196738
-0.0017857435
-0.004076524
-0.0038045996
-0.0023201958
-0.0023966199
-0.0014166682
0.0026073025
0.0051027155
0.0047508497
0.0023506158
-8.2265347E-4
-0.0033271369
-0.0037234514
-0.0014159605
-0.0012835441
-0.0010432216
0.0028072365
0.0037059716
0.003526528
0.003768591
1.2059118E-4
-0.0022147472
-0.0019492526
-0.0025505489
-0.0025291676
-0.0011106735
0.0019187605
0.0046359375
0.004531201
0.0020562375
-0.0013075364
-0.0034407198
-0.0036604593
-0.0015100159
5.618391E-4
-2.9321335E-4
5.8420305E-4
0.00320918
0.0032777935
0.0018502403
-0.001718916
-0.0042463695
-0.0019462567
-7.107627E-4
-0.0012366317
-6.243171E-4
-0.0019166942
-0.0032671879
-0.0024043554
-0.0025315399
-0.003147369
-0.0034003053
-0.0042502726
-0.0033280763
-4.6929362E-4
0.0012974874
0.0019571239
0.0035346008
0.0056112236
0.0048376955
0.0015010089
-5.5128726E-4
-7.6979626E-4
-3.3232564E-4
-2.0010963E-4
7.26147E-4
0.0040899827
0.0066948617
0.0069027864
0.0051111914
8.010097E-4
-0.0022823731
-0.0031682956
-0.0037497682
-0.002430283
-5.2874413E-4
7.34105E-4
0.0019678823
0.0019414529
0.001605338
8.118282E-5
-0.0041478444
-0.006571861
-0.005331869
-0.0036029806
-0.0020787362
-6.461124E-4
1.2450007E-4
8.092498E-4
8.241121E-4
-0.0015486125
-0.0050270087
-0.0056415643
-0.0033158222
-0.0014812828
4.0183123E-4
0.0026915239
0.0037669078
0.004539117
0.0019925095
-0.0027293116
-0.0015572875
8.145724E-4
-7.012455E-4
-9.701775E-4
-1.965058E-5
0.0022838705
0.0060028792
0.007183992
0.0052086175
-2.2171806E-4
-0.0040535247
-0.0023673382
-0.0017636388
-0.0012463805
0.0014789922
0.0016542987
0.0020133115
0.003915749
0.003031878
-5.864498E-4
-0.0040405244
-0.0045621363
-0.0038282142
-0.0036682226
-0.0018386539
6.2851544E-4
0.0029357034
0.004338902
0.0018292262
-0.0013682776
-0.0028753444
-0.0046247235
-0.004841349
-0.0028718945
8.438657E-4
0.0043952772
0.004172702
0.0038987556
0.0038152093
-1.530476E-4
-0.0025695255
-0.0022749659
-0.0017829343
3.670414E-4
-4.1843516E-5
9.9371275E-5
0.004608508
0.0037091721