0.005511298
0.003021721
-0.0015393423
-0.0038657328
-0.0026894622
-0.0011385499
-2.362807E-5
0.0014200716
0.0034386788
0.005025041
0.0048590302
0.0018998946
-0.002893444
-0.0045259395
-0.0027767678
-0.002078371
-0.0012695073
0.0010694063
0.0035581703
0.005677695
0.0053931237
0.0014232739
-0.0037335576
-0.006288908
-0.005523386
-0.0038872915
-0.0027074493
-0.0018219664
1.8544697E-4
0.0024007559
0.0010425827
-0.002741414
-0.0065517086
-0.009134856
-0.008426662
-0.007447503
-0.006378291
-0.00259005
-5.899078E-4
5.1805744E-4
0.0034238596
0.002670798
-2.9024231E-4
-9.79869E-4
-5.203909E-4
0.0015928305
0.003616324
0.004336539
0.006901697
0.008678702
0.007177518
0.0053481995
0.0026527648
-1.8581159E-4
-2.0557607E-4
2.55134E-6
-5.5378885E-4
8.423547E-4
0.003993687
0.006835722
0.0062318947
0.0025308097
-5.280492E-4
-0.0029518364
-0.0043939957
-0.003824248
-0.0021567103
9.5908163E-4
0.0039437874
0.0047742263
0.003699482
9.852345E-4
-0.0018029737
-0.003522898
-0.0045826896
-0.0058691152
-0.006049742
-0.0033412026
-0.0012322342
-2.9396528E-4
3.9465597E-4
-0.002639165
-0.007658475
-0.011700489
-0.013194888
-0.010790458
-0.007499331
-0.003422943
7.4957375E-4
0.0042362255
0.008860157
0.009038373
0.005299631
0.004215401
0.0038596473
0.004153076
0.005556758
0.0069522364
0.008544351
0.009148058
0.009794668
0.007764627
0.0029153104
8.947841E-4
-0.0012810029
-0.002587625
9.357455E-5
3.7316763E-4
5.136933E-4
0.003038711
5.7233876E-4
-0.0045945947
-0.005944139
-0.005883053
-0.0059300964
-0.005147895
-0.004803043
-0.0037426024
-7.9374027E-4
0.0028660991
0.0050824746
0.0016971445
-0.0037729542
-0.003941506
-0.0025097518
-0.0030310065
-0.0018258903
0.0010931102
0.0025498918
0.00339046
0.004604274
0.0028030525
-0.001520996
-0.004655197
-0.0055019604
-0.0038353943
-0.0027757275
-0.0024215672
1.2867252E-4
0.0031379326
0.005134076
0.0030504526
-0.0019892466
-0.0039182515
-0.00416947
-0.0035658136
-0.0014692119
0.0012091554
0.004588514
0.006112529
0.0066008726
0.0051261466
1.5724689E-4
-0.002415511
-0.0023823443
-0.00185052
-6.3362345E-4
0.0012282821
0.004590252
0.0053738533
0.0050367224
0.0049214195
4.9098587E-4
-0.0025823212
-0.0027418083
-0.0018521337
0.0010530982
-1.29378E-4
-6.78922E-4
0.003590441
0.0043269102
0.0012576757
-0.0042400467
-0.008169907
-0.004966819
-0.0019538035
-0.003855417
-0.0054167956
-0.0030207457
0.0010385022
0.0029106617
0.0016396471
-0.0027858324
-0.005978683
-0.004670189
-0.00218151
0.0011894334
0.0042865537
0.004012262
0.0038661275
0.005719731
0.0036452957
-0.0036430953
-0.006657858
-0.0026677763
-1.9827888E-4
-0.0013747752
-0.0023239115
8.993144E-6
0.0050158263
0.006320242
0.0028737118
-0.0015047118
-0.0052659777
-0.006194614
-0.004531086
-0.0015082603
0.0015791846
0.0027834189
0.004720682
0.005248981
0.0016997975
4.4252764E-4
6.025489E-4
-6.6014443E-4
-1.4530323E-4
3.2353247E-4
6.5342867E-4
0.0020398689
0.003953996
0.0062099723
0.0035328341
-0.002379314
-0.0052059786
-0.0062769
-0.0052824337
-0.0027401247
-0.0012976881
-0.001131604
-8.36305E-4
0.0016422054
0.0018842686
-9.276809E-4
-0.0018436883
-0.0015510992
3.8491306E-4
0.001803495
0.0016558922
0.0024679515
-1.6878231E-4
-0.0015462477
0.0018298178
-9.340787E-5
-0.0038117107
-0.0030299171
-0.0022319695
-0.0011131488
0.0011233885
0.003060075
0.005242941
0.0065078484
0.0053438726
0.0019682285
-0.0024821584
-0.0047019366
-0.0033572451
-0.0025658414
-0.0020183057
2.9846164E-4
0.0014436953
0.0028485092
0.0034745205
2.1759584E-4
-0.0018892114
-0.0023185683
-0.0021450662
9.5225376E-4
0.0024617428
0.0016384816
0.0036744056
0.006407664
0.005038426
2.7077587E-4
-0.0036056007
-0.0042998535
-0.002877641
-0.0010906871
-9.720769E-4
-0.001173906
0.0020313768
0.0051668026
0.0030442912
-0.0012593821
-0.0041030333
-0.004838074
-0.0033866584
-0.0016837941
-4.3517924E-4
0.0010389886
0.003547734
0.0052963495
0.0027041347
3.3031898E-5
3.997856E-4
4.2438143E-5
-6.8222795E-4
-6.873914E-4
3.319458E-4
0.0014475773
0.0017841669
0.004385729
0.004053311
-0.0015623226
-0.0045001428
-0.006334884
-0.0070083793
-0.003522993
-0.0018718885
-0.001408789
4.0722423E-4
6.7693763E-4
3.384111E-4
-8.875277E-4
-0.0023114407
-8.3826255E-4
2.2539259E-4
-0.001234773
-7.863538E-4
0.0037959793
0.009868444
0.012879385
0.010540624
0.0052611534
5.944506E-4
-0.0019364478
-0.0024683445
-2.7103702E-4
0.0032039685
0.002960949
0.0016223231
0.0026155992
2.4112598E-4
-0.004553767
-0.007233486
-0.0076925773
-0.0047616577
-0.0040297452
-0.0065702694
-0.004776302
-0.0016013555
1.3901708E-5
-2.2910548E-4
-0.0045259525
-0.006877221
-0.006326037
-0.00573006
-0.0017563797
0.0022337614
0.003489031
0.00518032
0.007494141
0.009222922
0.0060510435
-0.0011388549
-0.0036495032
-0.0020680733
-6.9225655E-4
0.0015924451
0.0036467211
0.0051340014
0.006977248
0.0054316954
4.452833E-4
-0.002473539
-0.0030132502
-0.0025397234
7.275888E-5
0.0024244497
0.0025941888
0.0026325947
0.0040716943
0.004875248
0.0015627926
-0.0029171905
-0.0036561356
-0.0031866792
-0.005018357
-0.0073615154
-0.006159914
-0.0015878635
0.0016606423
0.001171537
-0.0019503175
-0.0046270643
-0.005719678
-0.005853456
-0.0037676399
-0.0024086353
-0.0024573256
0.0014049178
0.0048001916
0.00365633
0.0025208322
6.217609E-4
-0.0013096613
-3.1278422E-4
7.4319576E-4
0.0020432966
0.0040398343
0.005832312
0.008751693
0.008551048
0.004283184
0.0016691532
3.198487E-5
-0.0016805098
-0.0012135307
8.2432793E-4
0.0024858122
0.0037930598
0.00591539
0.0052375942
-2.416926E-4
-0.004756553
-0.0058565903
-0.0058205947
-0.0056098243
-0.004629651
-0.0037748667
-0.0021270115
0.0038606327
0.0059851697
8.4531633E-4
-0.0031726586
-0.010423451
-0.014911299
-0.0068932115
-0.0017618692
-0.001508534
0.0030537576
0.0062312875
0.006137495
0.004127909
0.0016967275
0.0015248812
0.0015960499
0.0012965872
0.0013944788
0.0030267052
0.006141256
0.008201556
0.007914726
0.0035776997
-0.0021055464
-0.0044301255
-0.0040785824
-0.001914322
1.8613823E-4
7.341575E-4
0.002300441
0.0044007082
0.0029845238
-5.191474E-4
-0.0020652006
-0.0033900966
-0.004297776
-0.0032157868
-0.0028012365
-0.0015803693
9.357448E-4
0.0027473632
0.0037132828
0.0015442828
-0.0010516203
-0.0015215643
-0.002758971
-0.0025582772
2.4622036E-4
0.0026260596
0.0046844385
0.0070571154
0.0060056094
-0.001124168
-0.0072652153
-0.004410138
0.0021171963
-5.61771E-5
-0.005965721
-0.0021568427
0.0030723347
0.0038990066
0.005809149
0.003379594
-0.0015470266
-0.004454798
-0.0060264138
-0.002868299
-6.8966474E-4
-1.409947E-5
0.0030556018
0.003536235
0.003637009
0.0023009195
-0.0016507143
-0.0024621487
-0.003353809
-0.0036405784
-0.001542449
-0.0012338687
-3.0739073E-5
0.0031418432
0.0049387254
0.0021625077
-0.003737084
-0.0057996796
-0.004278153
-0.0017687706
5.328142E-4
5.8233395E-4
0.0021531694
0.005775387
0.006571511
0.0040914393
0.0013190518
-2.1288714E-4
-0.0016803292
-0.002167695
-0.001942404
-0.0023593954
-1.7804239E-4
0.0023408362
9.906937E-4
-0.0016127726
-0.0045083347
-0.00658024
-0.0058772466
-0.004773841
-0.004368752
-0.0028338677
4.578347E-4
0.0036632821
0.004484092
0.0025786227
-7.97512E-4
-0.0030413563
-0.0020509867
4.5970283E-4
0.0014127358
0.0019258731
0.0046002856
0.0077832136
0.0074239406
0.0035182964
8.705638E-4
2.1244625E-4
-0.001011102
-0.0010782301
-8.5507485E-4
-0.0016670409
-2.569295E-6
0.0017192323
7.2538684E-4
-4.809051E-4
-0.0035172978
-0.0073253303
-0.00716829
-0.0047711455
-0.004316141
-0.005743118
-0.004169312
0.0010455846
0.003369454
7.9061225E-4
-0.003684637
-0.0050223107
-0.0015340846
1.317662E-4
5.5978086E-4
0.003425929
0.0051409593
0.0076727923
0.008542293
0.0027982695
-5.4785627E-4
0.0010124597
0.0017525976
0.0025452697
0.0027952336
0.0030673486
0.00581867
0.0075312047
0.00582502
0.0027001651
-0.0013925133
-0.005557861
-0.0066585187
-0.005776887
-0.004630372
-0.0022152453
-0.0014075917
-0.0019182306
-0.0012762283
-0.0026001697
-0.005130214
-0.006201308
-0.0065801158
-0.007355852
-0.007980064
-0.0049732653
-9.657768E-4
9.6042344E-4
0.004326748
0.0051461044
6.343923E-4
-0.0025703697
-0.0014169422
0.001160547
0.0016425104
0.003004518
0.006644108
0.0083554555
0.010331093
0.01070352
0.005223463
8.209015E-4
7.7501545E-4
3.9547513E-4
-0.0025515854
-0.0037414534
4.054124E-5
0.0025349588
0.0025074233
0.0015697575
-0.002942124
-0.0054084533
-0.0051275063
-0.0056083966
-0.0035040227
-0.0048345504
-0.007898926
-0.0011983757
0.0045838226
9.2665304E-4
-0.0028996808
-0.0052181957
-0.006339822
-0.004811614
-0.00338702
-3.9272278E-4
0.0027897619
0.0027181124
0.004871599
0.0056885863
-0.0021251752
-0.0063028745
-8.1944314E-4
0.002615731
0.0029495233
0.004750626
0.006389907
0.008283487
0.008596743
0.0056002815
0.0024521798
-3.1350707E-4
-0.0012605615
4.4067658E-4
0.0011712132
0.0011484305
0.0011942422
0.0014129663
0.0022713763
6.152219E-4
-0.002869176
-0.0070173535
-0.010647092
-0.008527371
-0.0061945464
-0.006662704
-0.0032370677
-7.8523846E-4
-0.001330184
-0.001651036
-0.005320309
-0.007367181
-0.0040218234
-0.00199058
-0.0019734642
1.3732353E-4
0.0041595926
0.0069807647
0.008416444
0.0078450125
0.003596521
-5.0019904E-4
-0.0021665015
-0.0013167218
0.0015312165
0.00340104
0.0050922735
0.0055708787
0.0043177423
0.0039656265
0.0015420315
-0.0014900953
-0.001675631
-0.0013182284
-0.0012304677
-0.0015480842
-4.8792153E-4
0.0016921264
0.002342035
0.0023767368
3.0675638E-4
-0.0038600923
-0.0062845782
-0.0052121393
-0.0031130298
-0.003332136
-0.0013902469
0.002512489
0.003019215
0.0028262767
4.7459092E-4
-0.002759746
-0.001868106
-0.002260478
-0.0035036404
-0.0022718403
-0.0014690809
2.3156208E-4
0.002824209
0.0020711683
-0.0033206553
-0.007118988
-0.0050239093
-0.0032264423
-0.002343863
8.8032195E-4
0.0032948744
0.0047123376
0.005937192
0.005033866
0.0013942448
-0.0022835315
-0.0022200022
-3.178584E-4
-4.2375855E-4
-0.0018795051
-1.3062912E-4
0.0053527076
0.007386622
0.0050285244
0.0023197033
-7.7223044E-4
-0.0016501148
6.1190594E-4
0.002539967
0.003314227
0.00423133
0.0067020548
0.009151736
0.0078478195
0.0020190084
-0.0040407698
-0.0058706244
-0.0053778603
-0.0041716355
-0.0031105739
-0.003454819
-0.001337931
0.001009457
-6.3470495E-4
-0.003881393
-0.00918436
-0.011737257
-0.009543427
-0.009703392
-0.0077313636
-0.002510618
-8.5779186E-4
5.681402E-4
0.0017176337
-7.8030705E-4
-0.0034332254
-0.0028119297
-3.7267077E-4
-9.8490294E-5
4.8820258E-4
0.0033905343
0.0057272636
0.009073601
0.010541971
0.006690517
0.002263843
4.5149973E-5
0.0011695686
0.0030840712
0.0027674264
0.0035479423
0.004675399
0.0048937974
0.0054918197
0.0030299237
-0.0019111163
-0.00414215
-0.0039360267
-0.0033525866
-0.001589937
1.6372639E-4
0.0019252207
0.005359624
0.004166856
-0.0019234443
-0.0044719735
-0.00474728
-0.0044810073
-0.004559345
-0.0058582597
-0.0026194314
0.0016027555
0.002146609
0.002084175
-8.0872973E-4
-0.004747298
-0.0057537043
-0.0056643733
-0.005077789
-0.004112619
-0.002764275
-8.6431793E-4
0.0021680589
0.0030803073
-0.0013041267
-0.0028658544
-0.0012284305
-0.0013094166
0.0023413312
0.0048906584
0.0036721462
0.0054254774
0.003723981
5.7501387E-4
0.0038639037
0.00388629
-2.3802804E-5
0.001219441
0.0028286553
0.0012170369
0.0014292154
0.004022062
0.006768041
0.0067198863
0.0016067073
-0.0031888322
-0.0037945255
-0.0036127132
-0.0028531416
-9.663468E-4
-1.8562304E-4
0.0010530617
0.0032064263
0.0026455682
2.8793223E-4
-0.001961057
-0.004266196
-0.0033656703
-0.0010446166
-0.002165696
-0.002757672
2.3593919E-5
0.0031736789
0.0034751703
-9.970466E-4
-0.0067639556
-0.008811701
-0.006949277
-0.0045922073
-0.0030799985
-3.3520834E-4
0.002901971
0.0058682766
0.007572609
0.004599882
-6.9949013E-4
-0.0030560056
-0.0012445064
9.6347736E-4
0.0012630962
0.0031485737
0.005029429
0.0051132594
0.0047322763
0.0013503074
-0.0023700995
-0.0035339026
-0.0032431528
-0.0016591863
-9.7364443E-4
0.0011756201
0.0046901056
0.004634586
0.002862191
4.4954714E-4
-0.001946559
-0.0036732748
-0.0052253962
-0.0041382224
-0.0031865716
-0.0021677837
0.0015771661
0.003957607
0.004759105
0.00298294
-9.781364E-4
-0.0027340532
-0.003727872
-0.0032440764
-0.0013704753
4.647739E-4
0.0032051103
0.0035799863
0.0037281597
0.0034487024
-0.0010326058
-0.0016977284
0.0010808163
0.0010778642
0.002157622
0.0038515427
0.005580343
0.008681761
0.008675673
0.004409054
-0.0015264397
-0.006408662
-0.008310902
-0.008160935
-0.006183971
-0.0033278337
-0.0024840254
-0.0027060972
-0.0024923254
-0.004317956
-0.00724496
-0.007831192
-0.0060593598
-7.797913E-4
0.005274061
0.0068219258
0.011048816
0.022878619
0.028952185
0.01989312
0.0029017394
-0.012103449
-0.016887905
-0.014174633
-0.017211461
-0.016364427
0.0035675846
0.02467292
0.029460117
0.023818718
0.017815262
0.011530828
-0.0077628014
-0.037122995
-0.050211277
-0.039399035
-0.027136888
-0.031397454
-0.043074213
-0.037648667
-0.00890802
0.020168524
0.035963736
0.044147834
0.049426183
0.053060703
0.036311276
0.008186239
0.009753601
0.012083886
-0.003848974
-0.0034489017
-0.0060837665
-0.010814173
0.0012158186
-0.004400572
-0.016619984
-0.0066966214
0.017058231
0.043283906
0.0377388
-0.0073195477
-0.041776184
-0.034178462
-0.020304816
-0.0410586
-0.057291318
-0.035884462
-0.015489373
-0.01661467
-0.023645356
-0.016982624
0.009094017
0.03696085
0.053430457
0.058978576
0.0559163
0.039891362
0.021042272
0.013107802
-0.0045725387
-0.026337655
-0.026331559
-0.024858607
-0.029405216
-0.024490142
-0.011122878
0.008599874
0.023756009
0.024877697
0.01824493
0.010311503
0.0024945184
-0.012124548
-0.028147137
-0.027416123
-0.016059343
-0.008399106
-0.003761694
-0.0028660113
-0.0036370566
-0.002076358
-5.45578E-4
0.008123086
0.023649862
0.029554196
0.027188085
0.025594534
0.021327194
0.005750574
-0.018494353
-0.027112793
-0.018260974
-0.013683976
-0.011035727
-0.0072329245
-0.005752646
-0.0017631022
4.8451495E-4
-0.0014306671
-0.0034945798
-0.004482729
-0.0019067752
0.0026118536
0.0050453395
0.006043188
0.008572604
0.009772928
0.0060217287
0.0032975127
0.0016616399
-0.0022086075
-0.0029182965
-0.0013311844
-7.984857E-4
4.2917015E-4
0.0032519167
0.0074789478
0.008770898
0.005489032
7.8443874E-4
-0.0056820037
-0.011879937
-0.013292047
-0.009888009
-0.0057636537
-0.0034773562
-0.001157496
3.5391928E-4
4.7556E-5
-5.399984E-4
-0.0019982902
-0.0014384022
0.0015144981
0.0027582487
0.004345598
0.0070923995
0.009939546
0.011868385
0.008088899
0.0012101141
-0.002187458
-0.0022621793
-0.0012368839
-5.331666E-4
0.0013806763
0.0044411155
0.005722951
0.006012922
0.0037001513
-0.001143698
-0.002558916
-0.0020063154
-0.0026569038
-0.002253957
-0.0019247674
-0.0026036405
-0.0014356639
8.0388354E-4
4.3616572E-5
-0.0035068335
-0.0061092465
-0.0064352006
-0.0051188353
-0.0032107343
-0.0014404621
0.001489882
0.004883492
0.0048441635
0.0019363919
-5.885404E-4
-0.0026141913
-0.0027433718
-0.0012565951
-0.0015435246
-0.0010162978
0.0019398375
0.0040927264
0.005878846
0.006039979
0.002695501
-5.358121E-4
-0.0011613942
2.1547916E-4
0.0011868351
8.690369E-4
0.0017002549
0.0028896513
0.003088978
0.0027388888
5.333303E-4
-0.0025205312
-0.0045310967
-0.0047527016
-0.0023318226
-1.7346084E-4
4.352449E-4
0.0028543344
0.005753758
0.004365781
-4.398995E-4
-0.0039035522
-0.0053137112
-0.005893166
-0.0040214425
-0.0014586011
-2.1552807E-4
0.003348218
0.0063189208
0.003830299
6.132096E-4
-0.0025712503
-0.0063320533
-0.0059494036
-0.004743012
-0.0048957164
-0.0028834636
-0.001331143
8.908863E-5
0.0018115381
-5.6632794E-4
-0.003584598
-0.0036993907
-0.0028591123
-0.0011734073
4.532376E-4
0.0019044912
0.0043556876
0.006806963
0.0070466246
0.0043948754
0.001998104
6.740346E-4
-4.2629897E-4
4.017106E-4
0.0016244006
0.0033456772
0.0066460143
0.006978122
0.004520156
0.0014250291
-0.004033263
-0.0077531124
-0.0063697686
-0.0040330077
-0.0021069224
-4.315547E-4
-6.9963787E-4
2.460924E-4
0.0018221601
-0.0020685585
-0.0054367464
-0.0033804998
-0.003437886
-0.0041897157
-0.0021102203
-8.370645E-4
0.0021963418
0.0057614115
0.0037296514
-9.271247E-4
-0.004756875
-0.0066108666
-0.004660399
-0.0019320586
-2.6152746E-4
0.002078828
0.0042180954
0.0051765563
0.004777069
0.002615643
-0.0013033575
-0.0050032833
-0.003975861
-4.3211112E-4
6.053649E-4
0.0023200652
0.005297082
0.0071936436
0.008310489
0.00540712
1.1299296E-4
-0.0023632848
-0.00299557
-0.0017677669
5.1920964E-5
4.526279E-4
0.00320737
0.006607202
0.004701182
-5.646226E-5
-0.0035085862
-0.0057094926
-0.00569295
-0.0047722873
-0.0067481697
-0.0067530405
-6.4004876E-4
0.0027125282
-4.072794E-4
-0.003687815
-0.0058574346
-0.006690168
-0.004623224
-0.0020463946
5.8789266E-4
0.0037945032
0.0054879654
0.0064094113
0.0069200774
0.0054415786
0.0027686963
-3.066278E-4
-8.993342E-4
0.001386119
9.5706125E-4
4.1147973E-4
0.0039963913
0.0064365123
0.0053442796
0.0022736602
-0.0017698549
-0.0048273066
-0.0059573017
-0.003961022
-7.097531E-4
7.041522E-5
3.9840877E-4
0.0015742899
0.0010266091
-0.0022821855
-0.0067738523
-0.008275041
-0.006460244
-0.004981723
-0.0029738373
1.3289983E-4
0.0032673243
0.0065665687
0.006641068
0.0031903128
-1.37444185E-5
-0.0020059322
-0.0019581225
-0.0018912685
-0.0016090373
0.0019125451
0.004591917
0.0057153855
0.0059653423
0.0030437307
6.0618605E-4
-3.9614606E-4
8.36214E-5
0.0013187921
2.1952164E-4
0.0014008641
0.0037163356
0.0041624485
0.00476128
7.9981564E-4
-0.004493597
-0.0061305403
-0.006966719
-0.005401358
-0.00321395
-0.0017868408
-8.840451E-4
-0.0012872714
8.133877E-4
4.7729618E-4
-0.003686027
-0.0037579217
-0.00308188
-0.0034462376
-0.002275171
-0.0019015339
-0.0015620769
6.653979E-4
0.002941064
7.161053E-4
-0.004821098
-0.00664384
-0.0033630193
9.748362E-4
0.002010769
0.0022490954
0.00566121
0.008057279
0.008070927
0.0065553053
0.002129755
-0.0015928091
-0.0013130269
3.8123215E-4
3.22701E-4
-3.896504E-4
9.3309995E-5
0.0029134194
0.006725897
0.0035252876
-0.0037880086
-0.0045079147
-0.0036553864
-0.004349778
-0.0018330674
7.5239723E-4
0.0017004823
0.00237088
0.0024330558
0.0013068266
-0.0025903662
-0.004647988
-0.0014374966
-0.0015512328
-0.006460144
-0.005920092
2.8212427E-4
0.0059309322
0.0082628615
0.004742913
-2.2116021E-4
-0.0029498283
-0.0057608923
-0.004555053
-6.147785E-4
-7.087377E-5
3.336815E-4
9.904313E-4
1.6613587E-4
-7.347458E-4
-0.0030142292
-0.005232751
-0.0050807656
-0.004007349
-0.002761422
-6.341541E-4
0.0022445284
0.0038850475
0.003730676
0.0030565548
8.3465327E-4
-0.0027885856
-0.003488861
-5.487536E-4
0.0016842713
0.0029637904
0.0048259385
0.0061703944
0.0068822447
0.005515831
0.0020291328
-2.890359E-5
-4.338603E-4
-3.9722683E-4
3.6124085E-5
1.0247013E-4
5.935235E-4
0.003360169
0.0049113166
7.039977E-4
-0.0038476998
-0.005066433
-0.005667735
-0.0034922194
-7.8244065E-4
-0.0010441294
4.3594386E-4
0.0040956317
0.004886135
3.891566E-4
-0.0037283099
-0.0028285405
-0.0033790495
-0.004606826
-0.0017699818
6.0678605E-4
0.0027546703
0.0050452175
0.003976423
9.1128354E-4
-0.003151651
-0.0060433005
-0.006494907
-0.006677174
-0.004285772
6.69546E-5
0.002443552
0.004577149
0.0055047553
0.002694334
-0.001025817
-0.0037605711
-0.0037129372
-0.0025787123
-0.004099558
-0.0019554475
0.0025095188
0.0029179263
0.005752056
0.005311254
-0.0019782076
-0.0032920595
-0.0022785605
-8.378146E-4
0.0035621135
0.0021639469
0.0019478695
0.006805803
0.007126834
0.004783534
0.0014961384
-0.0010050287
-1.3573952E-4
7.341891E-4
7.5572677E-4
-7.5296045E-4
2.2370579E-4
0.0046595936
0.004875292
0.0025799407
-0.0011642001
-0.005989308
-0.0064768493
-0.0069311587
-0.007000802
-0.0033584598
-0.002651069
-0.0030808314
-4.8254261E-4
-3.2999247E-5
-0.003424888
-0.0057262606
-0.0042050285
-0.0026115603
-0.0022961607
-4.3737664E-4
0.0021294502
0.004599947
0.006723966
0.00535823
3.3733452E-4
-0.0023885784
-4.7730218E-4
4.6904417E-4
2.1782993E-4
0.0020515497
0.0039072246
0.006211915
0.007386871
0.0038693468
3.6051676E-6
-0.0021996214
-0.0042038197
-0.004506806
-0.003999853
-0.0043209093
-0.003984324
-0.0011501685
0.0014884018
2.7820584E-4
-0.0029393774
-0.0046401545
-0.0037635898
-0.0026508265
-0.0019055405
0.001320706
0.005389227
0.007051291
0.006162413
0.0038178822
1.9151528E-5
-0.0030898042
-4.3166694E-4
0.0018195519
-0.0013394707
-0.0015749584
-1.47445E-5
6.6133094E-4
0.0028303412
0.0017403121
-0.0015796346
-0.0038965812
-0.004820951
-0.0023690085
-2.320202E-4
0.0017618287
0.005333317
0.0061260303
0.00668972
0.007641746
0.0032816767
-0.0013706812
-0.0010703444
-7.2086824E-4
-1.756908E-5
0.0017835089
8.636011E-4
0.0024388803
0.0072349547
0.0072135287
0.002458671
-0.0040498856
-0.008855329
-0.009890057
-0.0076407758
-0.0035771884
-0.0048597436
-0.007550179
-0.0042822133
-0.0012916935
-0.0013368067
-0.006675272
-0.010466876
-0.0023647342
0.00269268
4.4976338E-4
0.0021799805
0.0044803736
0.006744167
0.00792314
0.0048618433
0.0023008992
7.6058897E-4
2.3723044E-4
0.0013594661
0.0026661078
0.0046798307
0.0064381347
0.0068666944
0.004690745
7.3986506E-4
-0.0013842224
-0.0013974197
-8.790344E-4
-0.0017702527
-0.0016917334
0.0013794104
0.0028224555
0.002030742
-8.674603E-5
-0.0024824548
-0.0033086922
-0.0054795938
-0.0057348283
-0.0025993057
-0.0019672022
-2.2151039E-4
0.003572633
0.0046819053
0.0038283207
-6.402499E-4
-0.005156248
-0.0035678323
-0.0013122744
-0.0012646484
-9.231111E-4
-9.943718E-4
3.8725307E-4
0.0034343146
0.002712701
-0.00224912
-0.0048845224
-0.0033660128
-0.0029046708
-0.0026424122
0.0015064615
0.0055505247
0.006958548
0.008179612
0.0076570087
0.002947679
-0.0031372542
-0.005322487
-0.004441434
-0.0040444527
-0.0022771007
4.5972585E-4
0.0027019659
0.004981111
0.0036781828
1.6348754E-4
-0.0018180409
-0.004392446
-0.0044446737
-0.0014805149
-0.0013728087
-0.0014645861
1.556653E-5
0.001007397
0.0028795754
0.0018850503
-0.0025993248
-0.0037311923
-0.0017154071
-3.1307357E-4
-4.0494697E-4
1.5933687E-4
0.004053823
0.007104465
0.006133759
0.0026814358
-0.0027612273
-0.006083596
-0.005024209
-0.003498286
-0.0023577777
-4.3116952E-4
0.0017983553
0.0039546527
0.0056855963
0.0047288835
4.2850856E-4
-0.001988742
-0.0014482525
-0.001007948
9.311458E-5
4.5138452E-4
0.0013822869
0.004494195
0.004829031
0.0027374239
-0.0010051109
-0.0046623438
-0.0032749295
-0.0021941725
-0.0018491271
0.0010248661
0.001046202
0.0011040405
0.0019000238
-0.0019401988
-0.006463697
-0.008178406
-0.006835293
-0.004927673
-0.004718909
-0.003102018
-7.540551E-4
0.0016852656
0.0025740082
-6.206845E-4
-0.0021870735
-0.002435578
-0.0031022308
5.632956E-4
0.0041739363
0.0050895633
0.007449985
0.008962033
0.0078028487
0.006094459
0.0040968275
0.0023419878
0.0033861105
0.005062528
0.0029877108
0.0013519818
0.0038138318
0.0059514027
0.0045568137
0.0010057499
-0.001901881
-0.0041749435
-0.005611976
-0.0042440724
-0.0033776995
-0.004428812
-0.002906415
-5.695827E-5
4.889332E-4
-3.807873E-4
-0.0029216236
-0.0056114774
-0.004396123
-0.002495055
-0.0028926742
-0.0021496606
1.2032156E-4
0.0023143152
0.0022690275
-6.145149E-4
-0.00282672
-0.0037440422
-0.0023751054
2.761144E-4
2.0216402E-4
0.0014365519
0.004674654
0.005504615
0.0050242427
0.00296617
-6.269845E-5
-0.001456811
-0.001125399
1.6328487E-4
9.710354E-4
0.0015889766
0.0025905287
0.0050520343
0.0070555154
0.003093878
-0.0027916138
-0.005359665
-0.005290549
-0.0025708117
-9.002301E-4
-5.312453E-4
8.812793E-4
8.6499535E-4
6.41678E-4
6.7048817E-4
-0.0017580006
-0.0044393977
-0.0041384026
-0.0025307194
-0.0017184486
-4.4790187E-4
5.365201E-4
0.0027175145
0.0065931897
0.005006324
-9.8184224E-5
-0.003187199
-0.0043815556
-0.0015369128
0.0017780865
0.0027203674
0.0032036242
0.003337413
0.0048719584
0.003946794
-4.756877E-4
-0.0028319138
-0.004038853
-0.0042476384
-0.003704405
-0.0032195332
-0.0012368531
4.6276714E-4
0.001865437
0.0010456071
-0.0030043914
-0.004947601
-0.004475682
-0.002813488
-9.149363E-4
5.624581E-4
0.004328764
0.007509315
0.0070910007
0.0044137873
-1.8254445E-4
-0.0043127355
-0.0046994747
-0.002629596
-0.002569893
-0.0023995433
6.0957123E-4
0.0026019209
0.0043158326
0.003689533
-0.001916021
-0.0056680823
-0.0057127215
-0.0030977498
-8.02641E-5
-4.3653155E-4
0.0014182238
0.00623042
0.007091843
0.003990309
3.8093262E-4
-0.0013872188
-0.0015856154
-0.0015472479
-0.0013314573
-1.6605607E-4
0.002338631
0.0040296833
0.0049884394
0.0044137724
-0.0011930513
-0.006851409
-0.0072464095
-0.0057589463
-0.0038746642
-0.0020852268
-0.0026550086
-0.001965405
0.0010095724
5.160278E-4
-0.0011350559
-8.229075E-4
-0.0018210955
-0.0018072225
8.989106E-5
3.420772E-5
-5.1671483E-5
0.0030540098
0.006045366
0.0038879644
1.7356484E-4
-5.5568916E-4
-8.42774E-4
-0.0015196478
-0.0012049319
0.001187202
0.002992558
0.0033777452
0.0062999264
0.0042740977
-0.0030972976
-0.0044683046
-0.004937171
-0.005805894
-0.001456569
0.00226738
0.0034731666
0.0041275057
0.0055683153
0.0061435867
7.812343E-4
-0.0048680715
-0.005310841
-0.0037897285
-0.0020129103
-0.0011433928
-7.307147E-4
0.001305398
0.0035538375
0.002552101
-0.001174328
-0.003692576
-0.0037584794
-0.0021552327
-8.2588044E-4
-4.3169947E-4
7.8154175E-5
0.0013199784
0.003572499
0.0017643719
-0.0033512102
-0.0044761295
-0.0038121727
-0.0020414246
2.7316832E-4
0.0010096413
0.004131312
0.005970198
0.0063286605
0.008550206
0.00532553
-9.873803E-4
-0.0036393087
-0.0034475643
-0.0014712204
-6.492443E-4
1.687125E-4
0.0030495955
0.005404399
0.0043765814
-2.4413578E-4
-0.003135975
-0.003674387
-0.0035597763
-0.0015726971
-0.001802871
-0.0021164159
0.0014291536
0.0036511
0.0025899454
-9.822961E-4
-0.0031755632
-0.0012452515
-7.7501964E-4
-0.0020575025
-0.0014648642
0.0010443975
0.0035156647
0.0031070216
0.0017759493
3.1838015E-5
-0.0038841933
-0.006097324
-0.0057197926
-0.0038969105
-9.227288E-6
0.0021287885
0.0023766283
0.004324243
0.004443935
1.7996815E-4
-0.0047302004
-0.0072454857
-0.005895449
-0.0019247031
0.001032733
0.0022265858
0.0040237415
0.0068000928
0.006021568
0.0020930204
5.7094364E-4
-9.961849E-4
-0.002550831
3.866226E-5
0.0015001103
5.3076656E-4
0.001988927
0.004640791
0.0049994458
0.001977953
-0.0013714422
-0.0036708876
-0.0043978067
-0.001135785
6.8293384E-4
-4.3436023E-4
0.0014101065
0.0030648129
0.0013027403
-0.0014945468
-0.0031519092
-0.0035347452
-0.0044713756
-0.0030321523
8.808603E-4
0.0022084096
0.0021139393
0.0018688438
2.3394954E-4
-0.0024435201
-0.0046744165
-0.0042742495
-0.0032052402
-0.00418316
-0.005277057
-0.0028455518
0.0021280982
0.0031062008
5.5816746E-4
-0.0010547498
-0.0030268964
-0.004201992
-0.0037553874
-0.0024385173
0.002069992
0.0062189447
0.0071417964
0.008686874
0.008721597
0.0043274653
4.804576E-5
-0.00140838
-8.5208745E-4