-0.0035687406
-0.0014483473
-9.556149E-4
3.508698E-4
-0.0014112835
0.0010039735
0.005171034
0.006749665
0.010332801
0.00862258
-5.007716E-4
-0.0052789226
-0.0017319425
0.0021260846
0.0010313089
5.710264E-4
0.0015700061
0.0022948738
0.004604148
0.004290175
0.0032396002
0.0027302331
-0.0027958548
-0.0069849202
-0.006825713
-0.008567125
-0.0109838955
-0.009736925
-0.0048490367
-9.026232E-4
4.741514E-4
3.5173778E-4
6.914424E-4
0.004876467
0.0072065988
0.0059264535
0.005339217
0.0013612488
-0.0019559495
-1.665957E-4
7.4078393E-4
-2.51122E-4
-0.0026087852
-0.0036031203
-0.003200048
-0.006118354
-0.0059934845
3.1941105E-4
0.0056195157
0.0064896154
0.0014714831
-0.007028874
-0.010833011
-0.0063565914
-0.0012944461
-0.0015940411
-0.0025853154
-0.002486576
-0.0017851838
2.57118E-4
0.001971874
0.003945396
0.005603844
0.006639515
0.006507823
8.0051913E-4
-0.00564009
-0.0049533662
-0.0019474085
-0.0021762857
-0.0020657736
-0.0011604719
-0.0018024123
8.045036E-4
0.002670879
-0.0018120974
-0.0034872715
-0.0023053037
-0.0019801424
-7.646126E-4
-0.001666316
9.2298345E-4
0.0058717513
0.0027995177
-9.0561097E-4
0.0011179022
0.0040144804
0.0042660017
5.968075E-4
-0.0036536858
-0.0049741347
-0.0027737832
1.9511145E-4
0.0014808711
9.789665E-4
-0.002463063
-0.0036417525
-0.0017954381
-0.0026933812
-0.001689208
2.18056E-4
-0.001503146
-0.0014055669
-1.2723541E-4
-5.367342E-4
-0.0010231844
-0.0011686473
-3.7884095E-4
2.3189504E-4
-2.630898E-4
-4.543281E-4
9.214126E-4
0.0017994349
0.0012057796
0.0031056642
0.0037793873
1.0990928E-4
-0.0015231622
-0.001758596
-0.0021006155
-0.0015893322
-0.00264788
-0.0023148872
-5.609E-4
-2.3499546E-5
2.4498676E-4
-2.3874847E-4
8.7779766E-4
0.0015538165
7.4366886E-5
8.259379E-4
4.6398304E-4
-7.885962E-5
0.0019106349
0.0019168733
0.0010091031
-9.0839627E-4
-0.00224188
-0.0015744928
-0.003151798
-0.0028703795
-9.6197106E-4
-9.953799E-4
-3.7710893E-4
-0.0010061624
-0.0020830221
-0.003199632
-0.004092977
-0.0026078585
-0.0033555063
-0.0034070762
5.692433E-4
0.0027310469
0.0026173622
0.0030237085
0.004815725
0.0042481422
0.0021071397
0.0035012348
0.0045858505
0.00454405
0.004474751
0.004030287
0.0034524137
4.9199647E-4
2.4229677E-5
-4.307312E-4
-0.003534916
-0.0018419765
-4.946744E-4
2.2843122E-4
2.5911527E-4
-0.0027794042
-0.0029460457
-0.013366934
-0.021672752
-0.00528708
0.0038968814
-8.4325665E-4
9.6270314E-4
6.28726E-5
-0.0016843568
2.8781202E-5
-1.21276644E-4
2.5701808E-4
5.650195E-4
0.0018761365
0.0028638954
0.0016643449
0.0022517869
0.0024208925
0.0015637681
0.0019627626
0.002800537
0.0036226888
0.0031064586
0.0017937818
2.6738064E-4
-0.0013506344
-0.0024316392
-0.0034708418
-0.0026415617
-0.0013114662
-0.0022473093
-0.0025794194
-0.0010971493
-3.4325832E-4
-0.00150669
-0.0022534658
-0.0015780728
-4.8251412E-4
7.3655066E-4
5.4626275E-5
0.0010689906
0.004437595
0.0022251531
-8.495073E-4
-5.0855876E-4
-0.0011323318
4.4186466E-4
0.0017439685
-6.6090684E-4
-0.0012504812
-4.520328E-5
9.5833524E-4
0.0013052536
5.300409E-4
-4.2304728E-6
-1.638994E-4
2.2688886E-4
1.5593167E-4
3.9175898E-4
0.002516605
0.0032315997
0.0023730104
4.930514E-4
-0.002295467
-0.002526831
-0.0018988674
-0.0015928275
-2.9190694E-6
4.714796E-4
-0.0010006528
-0.0032670521
-0.0031971345
-0.0011077523
-0.0018862758
-0.002789239
-0.0017892984
-0.0018228372
-0.0020473266
-0.0019953975
-0.0017835026
-7.543208E-4
-1.0408841E-4
-0.0014209531
-0.0022937283
-2.6301897E-4
2.6927743E-4
-0.0012319455
-0.0010804111
-1.8430052E-4
0.0015297493
0.003049217
0.0030763561
0.0025274735
9.177694E-4
5.5389095E-4
0.0012025917
3.155084E-4
5.6388316E-4
0.0018231652
0.0021619399
0.002907624
0.003562757
0.002859351
0.0023209443
0.0024394107
0.0021755765
0.003247361
0.004278451
0.0028871957
0.0016466731
-5.4181E-4
-0.002858901
-0.0018580802
-0.0010744935
-0.0010399796
-0.0014077055
-0.0041898405
-0.005618942
-0.0047298702
-0.005032342
-0.0061201765
-0.005061869
-0.0029137349
-0.0028002553
-0.0025553477
-0.0019101317
-0.002163157
-4.2154975E-4
0.0013210868
0.0011012336
6.162088E-4
-8.773554E-4
-9.492914E-4
0.00120986
0.0025290742
0.0049543954
0.007558005
0.0057927533
0.0037087894
0.0042066234
0.0028546439
0.0018483456
0.00332931
0.0025812893
6.2049745E-4
-3.710015E-4
-7.9979893E-4
-5.5633118E-5
9.7527675E-4
0.0031460153
0.0037712632
5.433789E-4
-0.0010479144
-0.0011433619
-5.2587775E-4
0.002522347
0.0026966569
-5.6696543E-5
-6.711005E-4
-4.3495558E-4
-0.0016047499
-0.0018680075
-5.917802E-4
-0.0017217022
-0.002403569
-4.6037926E-4
-0.0012819599
-0.0017491415
-7.0476194E-4
-0.001672576
-7.4749523E-6
0.0021441053
0.0013488387
0.0015049787
0.001252613
8.316708E-4
3.205015E-4
-0.0027373966
-0.0031019463
-9.3284604E-4
-0.0024704933
-0.0031615472
0.0017198343
0.0055719297
0.0046096826
0.004072859
0.0040625166
0.0017549631
8.2186627E-4
0.0013358435
9.337029E-4
0.0010578856
0.0014401289
0.001935438
0.0016834008
6.9369585E-4
0.0017960329
0.0023738127
0.0017066762
0.0030753387
0.0047409395
0.005739892
0.005978855
0.004676062
0.0010856792
-0.004393299
-0.005427905
-0.002946583
-0.0035384854
-0.0030882442
-8.782087E-4
-0.0016030436
-0.0032721846
-0.002790011
-7.997715E-4
-7.2648964E-4
-9.626848E-4
2.6882105E-4
-3.6206207E-4
-6.153281E-4
-1.9361655E-4
2.623474E-4
0.0023575595
0.0018395851
0.0018326391
0.003457222
8.2091E-4
4.0509138E-5
0.0020547158
9.106446E-4
-6.236492E-4
-4.5286704E-4
9.6403365E-4
0.0033133856
0.0052022734
0.0029220013
-0.0011548206
-6.25202E-4
-1.2403307E-4
1.9381133E-4
0.0020109226
8.2859444E-4
0.001523275
0.0027484
0.0025763973
0.0043658195
0.0023809099
0.0010142913
0.0019485675
8.839363E-6
3.1193034E-5
-3.1772227E-4
-5.373897E-4
8.5325656E-4
5.680121E-4
3.4739258E-4
-0.0023414672
-6.370004E-4
0.0020383345
-0.0026904093
-0.0013832122
-0.008254289
-0.01990839
-0.0042711054
0.0096989265
0.004826263
0.00420362
0.0030299549
0.0012486079
0.001718271
-7.9861184E-4
-2.6026097E-4
6.9945335E-4
-2.7101513E-4
0.0012039129
0.0033791584
0.004201942
0.002936343
0.001620218
0.0021459996
0.0023878105
-0.0012000978
-0.005665225
-0.004738404
-0.0035492897
-0.0031165313
8.2646104E-5
-4.3261115E-4
-0.0027773303
-0.0025942177
-0.0026517413
-0.0031242275
-0.005032741
-0.004558939
0.0012194365
0.006621889
0.008929156
0.008842364
0.008493366
0.008055946
0.0053466656
0.0011925241
-0.0024164792
-0.0029764702
-0.0013351281
0.001477298
0.0050369618
0.0047926013
0.0042382665
0.0063901497
0.00567007
0.0046694963
0.0042731105
-7.534419E-5
-0.0030184782
-0.0017148644
-0.0031003663
-0.007645854
-0.010086957
-0.01035448
-0.009475074
-0.00893314
-0.009880936
-0.010044091
-0.010510125
-0.010468942
-0.008747042
-0.007462907
-0.0037331057
-1.8416438E-4
5.504514E-4
0.0028772054
0.0054695415
0.009868654
0.012452964
0.0056600897
-0.0027410176
-0.006018246
-0.0010045241
0.008985562
0.014745113
0.019685498
0.020667607
0.016637439
0.01720659
0.016127955
0.011443733
0.0054908535
-0.004693555
-0.008784736
-0.00576823
-0.008178055
-0.013373426
-0.008540242
-0.001517644
-0.011159635
-0.020494271
-0.012746043
-0.0046106675
4.4889815E-4
0.004394713
0.003961018
0.006153175
0.006116095
-4.6381034E-4
-0.0049387384
-0.0064195096
-0.0061728335
-0.003878917
-0.0014304509
7.907169E-4
4.279789E-4
-0.0018359827
6.9642597E-4
0.0064732293
0.008595878
0.009007299
0.009310194
0.006552411
0.002628149
-0.0017767745
-0.0073242015
-0.010559578
-0.011066498
-0.009656616
-0.0066684666
-0.006221803
-0.0066536833
-0.004875583
-0.0049485713
-0.0028717879
0.004204243
0.008649663
0.012356046
0.016160095
0.0154122785
0.013572751
0.009580273
0.00246034
-0.0030726735
-0.006550792
-0.005039119
0.0048799855
0.016955703
0.020926299
0.020352595
0.024214817
0.027500724
0.02598087
0.01691824
-0.0033233033
-0.03354222
-0.06189548
-0.053508274
-0.018087408
-0.006029027
-0.006371729
-0.0022981728
-0.0024406062
-0.0013487604
-0.014862927
-0.030639034
-0.018537167
-0.0062030707
-0.005016949
-3.2291326E-4
0.0027967782
0.0064340793
0.010944201
0.01429424
0.01749098
0.015914971
0.014502724
0.016519036
0.018160537
0.019608354
0.019631058
0.018395718
0.015652208
0.007757015
-0.002852669
-0.008097569
-0.008189419
-0.009737282
-0.011318482
-0.010958766
-0.010488101
-0.009284744
-0.0062844483
-4.314636E-5
0.004734102
0.0050000297
0.006355638
0.007833311
0.008413666
0.007308967
0.0014768125
-0.0015064818
-0.0016711876
-0.0061254557
-0.010976746
-0.0139427995
-0.013918329
-0.011428376
-0.0122511685
-0.013855969
-0.01298754
-0.010161672
-0.0037361889
8.3794986E-4
6.0306035E-4
-1.9149252E-4
-0.0024510247
-0.0027887258
-8.842735E-4
-0.0054538157
-0.011642284
-0.012852236
-0.008355935
0.0040766574
0.017309735
0.029632105
0.04123074
0.04408828
0.043817062
0.041601047
0.029863553
0.012622669
-0.005179427
-0.016206108
-0.019160315
-0.02164787
-0.021234721
-0.017247027
-0.012660145
-0.008161918
-0.0075399484
-0.009215912
-0.008513279
-0.0054939566
-0.005170485
-0.008626348
-0.011163112
-0.014776623
-0.017780473
-0.01506464
-0.0112173585
-0.00708148
-2.4410164E-4
0.005864467
0.010551091
0.015469803
0.014357511
0.0090683615
0.011927073
0.010140952
1.2624812E-4
0.0060652713
0.013589845
0.0044978205
-0.0023911914
-0.003479606
-0.0059712925
-0.009185106
-0.011352802
-0.009876879
-0.007585291
-0.0035812536
0.0021949527
0.0055362415
0.0067761317
0.0059155086
0.0071125655
0.00829505
0.0037097938
0.0019702166
0.0028077972
-0.0012399623
-0.0046937615
-0.003438732
0.0015099135
0.009018152
0.014736295
0.012985564
0.0037209117
-0.006833666
-0.0124574285
-0.009648292
-0.002466165
0.0022799203
0.003463967
7.3168764E-4
-0.004312192
-0.0093041165
-0.013403932
-0.013274764
-0.0085336035
-0.002392896
0.003524618
0.008484039
0.008855931
0.0029117842
-0.002142345
-0.004001573
-0.005719923
-0.0050089895
-0.002575948
9.167967E-4
0.0044150967
0.0047233375
0.004001405
0.0015224336
-3.4978695E-4
0.0015052068
6.82552E-4
-4.223105E-4
-3.0997617E-4
-0.00233574
-2.3405011E-5
0.0015376289
-0.0031639868
-0.004118999
-0.001518792
5.3165015E-4
0.0019797042
5.9310254E-4
7.2712527E-4
0.00441803
0.0066381586
0.0063871765
0.0051736557
0.0035156168
0.0029628738
0.004720328
0.005115028
0.0021989099
-2.4766208E-5
-0.0013253907
-0.0019093718
-9.104407E-4
-0.0018145455
-0.0034318268
-0.0028442903
-0.0012705585
0.001758941
0.0033878807
0.0015222136
0.0014072969
0.003099702
0.0022898111
6.095271E-4
4.6987968E-4
4.384337E-4
-8.4383215E-4
-0.002788343
-0.0052290997
-0.008516117
-0.010784706
-0.010021364
-0.008574753
-0.009091936
-0.0092921695
-0.008409655
-0.007492914
-0.004618672
-0.0018668108
-0.00113336
0.0010569168
0.003574441
0.0053290813
0.0074351695
0.008015181
0.0076412787
0.0069059534
0.0076725837
0.008823829
0.0053850906
0.005883089
0.012136055
0.016354747
0.022698902
0.025962561
0.025496934
0.0296664
0.026507067
0.007200688
-0.029679561
-0.0639655
-0.054839037
-0.021343285
-0.0061498154
-0.002947217
-0.002071038
-0.003534297
-0.005165779
-0.0074444166
-0.0071350555
-0.006645267
-0.006624048
-0.0038979473
-0.001280133
0.0011077798
0.002735264
0.004091168
0.0068473667
0.008112527
0.009156152
0.011266153
0.012528396
0.01217923
0.009265675
0.0060423966
0.004063287
0.0030878766
0.0026560382
-2.2741998E-4
-0.0026484649
-0.0029197556
-0.0044875504
-0.0051153055
-0.004137286
-0.0019384966
-1.659388E-4
-0.0027045042
-0.0037561276
-0.0017806451
-5.764191E-4
0.0023822242
0.004045504
0.0034650057
0.003244434
0.002363551
0.0030456828
0.0027585917
0.0010356045
0.001495035
-2.0409976E-4
-0.0034328743
-0.0055619967
-0.0077166907
-0.007831252
-0.006829985
-0.0059881313
-0.0046791844
-0.0023511224
8.894381E-4
0.003072916
0.0041367514
0.00296129
0.0015490591
0.001936397
3.1350282E-4
-6.4884615E-4
1.7320308E-4
0.0011006256
0.0023009195
8.6930627E-4
2.9217318E-4
-0.0010767379
-0.0011072003
0.0062727104
0.0021579543
-0.0075984425
-0.001031929
-3.995396E-4
-0.01051396
-0.010477779
-0.0053757415
0.0026542798
0.009481175
5.583085E-5
-0.009295873
-9.96077E-4
0.0056936657
0.0036461914
0.00490152
0.0059720576
0.006709598
0.009350219
0.008508454
0.0076955035
0.0067945495
0.003185434
4.6202593E-4
-0.001513839
-0.0026742101
-0.0043679522
-0.005165946
-0.0035038616
-0.005203879
-0.0063644424
-0.0042250385
-0.004685256
-0.0051603112
-0.0044019455
-0.004712055
-0.0053480053
-0.0054810406
-0.004200547
-0.003682024
-0.003659169
-0.0017871336
-8.1289856E-4
-9.205345E-4
-8.530603E-4
-0.0022803608
-0.0027531385
-9.0264E-4
-7.5460225E-4
-6.8024197E-4
0.0027253337
0.0066057486
0.00862375
0.009519581
0.011232003
0.011677667
0.009375846
0.006834209
4.8416734E-4
-0.0054352237
-0.0048499387
-0.0067998786
-0.008767541
-0.0067276075
-0.009146977
-0.01062635
-0.0063481946
-0.0026014233
-3.3335484E-4
0.0019257178
0.0044268924
0.009340281
0.017592665
0.019273117
0.011928306
0.008134542
0.0034100309
-0.009440247
-0.0197538
-0.019716987
-0.010003329
-0.0012196399
-4.8524712E-4
-4.4777934E-4
-6.173006E-4
-0.003295127
-0.0074500614
-0.016801303
-0.025451878
-0.022100959
-0.010586178
-0.0031423643
-0.0018581002
0.0011208482
0.005424682
0.0047709085
0.0023991643
-3.7649256E-4
-0.0054591135
-0.004252575
0.0037128676
0.009315757
0.0148657905
0.024628486
0.041202754
0.06025765
0.06589377
0.051665653
0.017106581
-0.018257394
-0.018751541
-0.009982871
-0.039491665
-0.07359782
-0.064265326
-0.033758644
-0.015214567
-0.0043077115
0.002277638
4.205211E-4
-0.0015384819
-0.0012978376
-0.003167782
-0.004857517
-0.003464861
-7.033697E-4
-0.0033461144
-0.0083205905
-0.005615315
0.001961642
0.008094137
0.011745163
0.015543429
0.019870859
0.020295845
0.018697945
0.01688457
0.013751287
0.010486246
0.004777451
-0.001998646
-0.0059045227
-0.007968853
-0.010189377
-0.012911288
-0.012877886
-0.010477445
-0.008138558
-0.0049038064
-0.0028745057
-7.1541977E-4
0.0026686883
0.0036496758
0.0039402
0.004938624
0.005653714
0.004805571
6.0205796E-4
-0.0019718446
-0.0018629481
-0.0053044236
-0.0092211515
-0.009020685
-0.0077029774
-0.006014117
-0.004866281
-0.006241641
-0.0062197507
-0.003434339
-0.001596138
-1.902209E-4
0.0019332698
0.0025091097
0.0023597963
0.002942523
0.0010193081
-9.902914E-4
-6.0606046E-5
-0.0022181387
-0.0051456727
-0.0036305753
-0.0017289129
-7.830942E-4
-0.0012655753
-0.0011260246
0.0011439433
9.6779614E-4
0.0011407336
0.0028662449
0.003532168
0.00454281
0.0039173183
0.0035518694
0.005063636
0.0056245695
0.0039663613
-4.4487908E-5
-0.0023117268
-0.003618676
-0.0020530752
0.0020303829
4.493738E-4
0.002804735
0.004320207
-0.0019840186
-0.0015568458
-0.011212702
-0.023704056
-0.010590014
-6.013584E-4
-0.002894469
-0.0022298736
-0.0045585376
-0.004540695
-0.004970454
-0.008179047
-0.0068428805
-0.0065033515
-0.0051167468
-0.0012096579
0.00191445
0.005799892
0.0077109844
0.008237027
0.0075429436
0.005303515
0.0035523823
0.0017751609
0.0014694446
0.0018223155
0.0035398388
0.005608095
0.0032092407
8.521566E-4
1.5845086E-4
-7.780541E-4
-9.296089E-4
-0.0020085666
-0.003192743
-0.004477843
-0.0046598422
-0.0026321497
-7.868106E-4
0.0021795016
0.002632856
7.90165E-4
0.0018483474
0.001334231
1.3568264E-4
4.3906472E-4
-4.306821E-4
-9.606668E-4
-8.057121E-4
5.7671114E-4
3.6506355E-4
-0.0018200891
-6.989888E-5
0.002556108
0.0018783633
-0.0022403242
-0.004372224
0.0010027208
0.004325431
0.004858579
0.008647985
0.008155487
0.004141314
0.001676014
-0.001011429
-0.0032692766
-0.005766481
-0.008078923
-0.006700474
-0.0018328616
0.0025206306
0.0044513014
0.0061753606
0.0065056267
0.003453464
-0.0040526893
-0.015523722
-0.020262085
-0.0140642105
-0.006790796
-0.0030831299
-0.0020207267
-0.001388569
5.151187E-4
0.0025022079
0.0048502046
0.0058841994
0.0039422507
0.0030983044
0.0055017457
0.008074405
0.0095183905
0.0117300255
0.014561892
0.01674972
0.015829543
0.008941899
0.001233703
-0.0021699858
-0.0027326455
-9.5325394E-4
-3.1509832E-4
-0.002357417
-0.0026754185
-0.0026635004
-0.004151098
-0.004281657
-0.0028951436
-0.0024068514
-0.0036589282
-0.0040015504
-0.0025191067
-0.0013226809
-8.239475E-4
-0.0014333316
-0.0025334377
-0.0024611747
-0.0015514975
-0.00104579
-0.0013570018
-8.617531E-4
-5.255058E-4
-0.0018762473
-0.0023843858
-0.0035527088
-0.0058076396
-0.005870446
-0.0062127155
-0.007381853
-0.0067400024
-0.004510614
-0.0025116296
-0.0027449275
-0.0026668352
-0.0016306567
-5.9691485E-4
0.0032650959
0.0059136907
0.006058997
0.008054264
0.009266435
0.011122756
0.013835029
0.0132681
0.013591022
0.013695904
0.0085873315
0.0018273052
-0.0024278902
-0.0020354716
9.314518E-6
-0.0015296135
-0.0032761898
-0.002569472
-0.0031815898
-0.003942413
-0.002360769
-0.0023729694
-0.0035585456
-0.0024169195
-0.0025556737
-0.0038258703
-0.004740905
-0.008165887
-0.009828069
-0.008302362
-0.0063100047
-0.0026133384
-0.0017106024
-0.0024804585
0.0010373216
0.0050870846
0.009196121
0.011014397
0.003843738
-0.0038220212
-0.0028458436
-8.393636E-4
-0.004206597
-0.007717908
-0.008004146
-0.0058880905
-7.5601233E-4
0.0050110044
0.008206217
0.008625514
0.008858505
0.009403674
0.009811059
0.013623536
0.013405877
0.010225599
0.014007763
0.0030317649
-0.019200798
-0.019273676
-0.0072876555
0.0024449767
0.0068276627
0.003942773
0.0054563484
0.004589882
0.002118454
0.0035856257
-8.1204966E-4
7.7569175E-6
0.0021357206
-3.839778E-4
5.6350866E-4
-0.00904694
-0.0118548125
0.0024426794
0.004741539
0.0038162058
0.0056789634
0.0025899755
0.0043417583
0.005391489
0.004816006
0.0054657687
0.0026861518
0.0016036009
0.0014559051
4.1131067E-4
-8.530892E-4
-0.002465297
-0.001098521
-5.281605E-4
-0.0014627823
-0.0017239163
-0.0023661258
-2.2293888E-4
0.0031717746
0.005137512
0.0061530243
0.006485239
0.00686269
0.0047655045
0.0024488803
0.0027223022
0.0027282725
0.0025423006
5.1404047E-4
-0.0020507453
-8.364596E-4
9.10293E-4
0.0019019283
0.0025451526
0.0018764023
0.0028448296
0.0048529236
0.005924623
0.0073614856
0.0060742665
9.950623E-4
-3.6856657E-4
0.003747406
0.0061564636
0.0042115324
-0.0020230154
-0.009607521
-0.008177924
-0.0012386921
-0.0014675936
-0.0015984676
0.0037709528
0.0069021867
0.005892664
-0.004905911
-0.018250747
-0.013479495
-0.0013005419
0.0029818458
0.005574265
0.0071600936
0.007890209
0.008320762
0.006497706
0.0055029467
0.004537188
0.003267339
0.0034312191
0.002160029
4.991846E-4
6.271521E-4
7.484857E-4
0.0028961918
0.008718366
0.012443608
0.012485586
0.012449859
0.009727122
0.0037617038
-0.001981149
-0.0064801713
-0.0072382493
-0.0058375355
-0.0059456145
-0.0064189653
-0.0073555107
-0.008247797
-0.007513164
-0.005908447
-0.0041453084
-0.002128707
0.0014462033
0.0035724794
-0.002267298
-0.012786212
-0.01690038
-0.010166048
-1.246155E-4
0.0037834027
0.0032276069
0.0034330585
0.0031446598
0.002375536
0.003077051
0.0032778948
0.0020634807
0.0038419694
0.013179873
0.02342617
0.024430368
0.02204211
0.024592059
0.030170089
0.03125237
0.011920012
-0.028380012
-0.054721545
-0.03837219
-0.008414962
-0.0073504685
-0.012235523
0.0015050315
0.005686498
-0.0010755335
-0.0022794495
-0.005263372
-0.0069200974
-0.0061056316
-0.00710983
-0.005721487
-0.0048072324
-0.003532139
-4.2026836E-4
0.0016265237
0.004689509
0.006446996
0.007950934
0.010866312
0.010204967
0.008625585
0.0077295974
0.0048140893
0.0026370299
0.0029548444
0.0010212449
-0.004740615
-0.005907734
-0.0043480094
-0.004878962
-5.756991E-4
1.1636755E-4
-0.005037657
-9.7481045E-4
0.0045699854
0.0051349527
0.007595978
0.007965629
0.0052151293
0.0020381378
-4.6509845E-4
-0.0023268426
-0.00599254
-0.0071852007
-0.006644431
-0.008569218
-0.008349404
-0.0065553305
-0.006411343
-0.0070080515
-0.0069249044
-0.0042694877
-0.0017509175
-4.0598973E-4
0.0017643912
0.0024694933
0.002206309
0.0029017292
0.0027986274
0.0027373228
0.0048377663
0.0074001676
0.009979228
0.015768943
0.024179466
0.028984003
0.024243277
0.014057263
0.010087544
0.010686771
0.005340505
-0.009903579
-0.029258655
-0.035622682
-0.024936723
-0.012383687
-0.0065234364
-0.006504638
-0.006379504
-0.004957682
-0.0066732108
-0.008078688
-0.008342636
-0.008797434
-0.0074940585
-0.006564679
-0.0035083806
0.0018618419
0.0026437377
0.0015530493
0.0028559987
0.004663106
0.007384013
0.009888658
0.009775365
0.009493159
0.010716206
0.013042521
0.015881239
0.015321093
0.011982547
0.009164084
0.0032416494
-0.0054509416
-0.011997128
-0.014141373
-0.010725946
-0.0051685395
2.9185676E-4
0.0049618986
0.0058409604
0.0056196884
0.0042579905
-0.0020989266
-0.00691329
-0.0042032585
-2.2464644E-4
-0.0011400504
-0.003806113
-0.004086341
-0.0017729118
9.02822E-4
-1.9807208E-5
-0.0032601503
-0.0062483014
-0.010256729
-0.012473761
-0.010246344
-0.005103948
-7.1470364E-4
-0.0012086629
-0.0024733872
2.0161089E-4
0.0027092271
0.0027343284
0.0024859842
0.0031638166
0.0042557926
0.0057764
0.007610896
0.007523285
0.006405673
0.006442979
0.00629116
0.006503746
0.008521889
0.0095656235
0.007542639
0.004382314
6.38323E-4
-0.0052225725
-0.01216694
-0.01631729
-0.015186956
-0.0118919555
-0.008741142
-0.004148999
-2.0320594E-4
0.002553389
0.0062270216
0.00799097
0.0070089567
0.0063261953
0.0057670283
0.0045405263
0.004200652
8.389102E-4
-0.009499138
-0.015739236
-0.011292805
-0.005783975
-0.0025503347
-0.0029823864
-0.008559984
-0.009412387
-0.0049462705
-0.0035135502
-0.0021317392
-7.177301E-4
-9.87041E-4
0.0030693328
0.002624509
-0.0069304146
-0.0074162423
-0.00288385
-0.0055644074
-0.004547081
-8.223372E-4
0.0016075807
0.011855485
0.027236931
0.03949074
0.046303615
0.05018312
0.051635046
0.037387487
-0.009141126
-0.070305124
-0.08673822
-0.046660487
-0.0097253695
8.9365325E-4
4.636266E-4
-0.0070449794
-0.009626262
-0.006126782
-0.006566508
-0.005871027
-0.0037461945
-0.004878771
-0.0067292503
-0.006881504
-0.006273408
-0.0062483177
-0.0042019617
0.0016903145
0.008079866
0.01113733
0.0120214075
0.013839727
0.015411432
0.016147878
0.015852802
0.014197876
0.01191018
0.0067674327
0.0023307938
0.0015579087
-0.0011343866
-0.0047677252
-0.006380663
-0.006506192
-0.0053565344
-0.005941563
-0.008467638
-0.010726162
-0.010497631
-0.008304282
-0.007444879
-0.0038522251
0.0026376566
0.0062734713
0.0073655257
0.0055917744
0.003582169
0.0011506957
-0.0060027214
-0.0097929
-0.008029112
-0.007473758
-0.005526777
-0.0014279532
0.0013641013
0.0036850695
0.009425026
0.016714329
0.016732449
0.010736657
0.0076122037
0.0071033286
2.7095637E-4
-0.012508096
-0.015386509
-0.0077708336
-0.005572072
-0.007465273
-0.0037146911
0.0038732816
0.008450156
0.007283775
0.0031368702
1.4876609E-4
-0.0013130716
-0.0038351368
-0.005255923
-0.005360199
-0.0057437173
-0.0023717734
-3.6364325E-4
-1.9087153E-4
0.0041962517
0.004381593
0.0031026204
-2.0711315E-4
-0.012700408
-0.011349357
0.0035004988
0.006078625
0.003003513
0.0015914841
-7.2993024E-4
-0.0014584456
-0.0027255027
-0.0035459306
-0.0035112877
-0.00255094
0.0014657928
0.0044121975
0.005576393
0.0074153524
0.008450308
0.008078491
0.008106944
0.009333807
0.009393999
0.0083786715
0.0070894305
0.004209693
0.0014418876
-0.0012327946
-0.004201645
-0.006094494
-0.00866042
-0.010775406
-0.01120094
-0.012613236
-0.014376457
-0.014205575
-0.011581224
-0.008291365
-0.006237233
-0.0043529533
-0.0026871143
-0.001268808
0.0013130645
0.003251715
0.0027154868
0.0010534632
6.944649E-4
0.0033313339
0.008580859
0.014650133
0.01754263
0.015894908
0.014260535
0.012349497
0.0070511773
0.0032515586
0.0037635253
0.0045029433
0.0027792668
-0.0010092498
-0.004691797
-0.009181028
-0.013741735
-0.013141065
-0.010061434
-0.007692912
-0.004256685
-0.0025326821
-0.00226456
-8.905128E-4
-7.120639E-6
1.688762E-4
4.1508887E-4
0.001657787
0.0035876872
0.00421389
0.0035436994
0.0015292915
-0.0016018464
-0.004008902
-0.0055534914
-0.0069757523
-0.006412048
-0.0035143215
-0.0012739988
7.500795E-4
0.0024166869
0.0019891178
9.711299E-4
-0.0016095729
-0.0035200238
-9.77673E-4
0.0029795805
0.0070505
0.009520288
0.009592161
0.009504037
0.009431261
0.010131895
0.007904375
0.0058846897
0.008857033
0.0073619555
0.0030948769
-0.0017598929
-0.006451312
-0.0031056574
-0.010057349
-0.02201612
-0.010563614
1.0091348E-4
-0.0031659002
-0.002043314
-0.0023375207
-0.004651487
-0.0040233596
-0.0040381053
-0.0021668037
4.7553628E-4
0.0012812782
0.0012923051
0.0026367195
0.0058047017
0.0074322866
0.007911611
0.008066133
0.0079778535
0.007932681
0.0067237234
0.006315931
0.004609691
-3.078227E-4
-0.0035545612
-0.0049380017
-0.0056726495
-0.005076279
-0.0043386538
-0.004374827
-0.0046304
-0.0026571297
-6.46933E-4
-0.0015760456
-0.001563599
1.0894222E-5
4.989889E-4
8.3505537E-4
0.0026476844
0.0043965797
0.00338697
0.0020724111
0.0019301389
8.128722E-4
-4.1276962E-5
-5.0993654E-4
-8.732692E-4
-2.768459E-4
-4.051308E-4
-0.0010747076
-2.770837E-4
0.0033864228
0.007220323
0.004988858
5.9038866E-4
0.0020149504
0.005843097
0.0080302
0.008905907
0.0059896475
9.174845E-4
-0.0020883842
-0.004620137
-0.00630013
-0.0064342744
-0.0081708515
-0.009254366
-0.00819677
-0.008008871
-0.0075728083
-0.005695385
-0.004128768
-0.004570744
-0.005080853
-0.0020403282
-2.9018376E-4
-0.0026075365
-0.0029332687
-0.0016232199
-0.001337765
-7.2474015E-4
-8.9058344E-4
6.0186133E-4
0.0076606846
0.014576232
0.01776557
0.020085763
0.019396074
0.016781658
0.0150567265
0.011698237
0.008052186
0.005019466
0.0013333404
-0.005782631
-0.015162935
-0.016383372
-0.013365063
-0.013490844
-0.013045534
-0.010644064
-0.0036480448
-0.007970499
-0.024442147
-0.017937668
-0.0014650294
-0.0017052258
-0.0033676785
-0.0021615797
1.8329537E-4
0.0031315032
0.002929352
0.0044892803
0.0059589185
0.0061993385
0.004761635
0.004348493
0.008507334
0.010024945
0.014126471
0.011796623
-0.0012369152
0.0060456875
0.017482512
0.010543729
0.008227556
0.0048973137
-0.008904283
-0.020422263
-0.021839457
-0.012044495
-0.0064535793
-0.0071547427
-0.004158629
-0.002566145
-1.8894284E-4
0.002141957
4.1439215E-4
0.0020445997
0.0035502673
0.0013089869
4.3511592E-4
-0.0012470635
-0.0030877362
-0.0010268891
0.0012756446
0.0012260617
9.5108047E-4
6.148741E-4
3.5117244E-4
6.616029E-4
1.3459554E-4
-6.069814E-4
0.0013517152
0.0045332797
0.0041060564
0.0020695566
6.649353E-4
-0.0025923299
-0.003455722
-0.0023544163
-0.0039435653
-0.0030313267
-7.0304365E-4
-1.5197191E-4
0.0011968024
0.00125852
8.699652E-4
8.4689946E-4
8.520175E-4
0.002734731
0.0025738569
0.0014384415
0.0016924557
2.0286701E-4
-3.626961E-4
7.1136375E-5
5.032479E-4
0.0019111377
0.0017305957