0.0056742975
0.0031375766
0.0037822756
0.004958838
0.003634344
0.0037540642
0.0037134115
-2.9283858E-4
-0.0039329473
-0.0045937113
-0.004272306
-0.005196083
-0.0066209245
-0.00663271
-0.006977121
-0.005789205
-0.0038694984
-0.0056993044
-0.005740972
-0.0035029715
-0.0034470144
-0.002084756
-0.0012372024
-8.120673E-4
0.0035351804
0.0068866997
0.0078093274
0.00809246
0.0061787674
0.005035268
0.0048375744
0.0038071868
0.0026934126
-8.052008E-4
-0.0037227026
-0.0024138817
-0.0012328785
-4.4146276E-4
0.001258349
0.0016727352
0.002041482
0.0034421023
0.0037991947
0.0019815546
3.7915295E-4
5.7074375E-4
8.450469E-4
0.0014056071
0.0020396523
0.0023609523
0.0037187643
0.005324849
0.0077259606
0.010446826
0.012410431
0.015351927
0.014929708
0.007423754
-0.0015746743
-0.0052163587
-0.0041189445
-0.004279537
-0.003913169
-0.0033697828
-0.0075830533
-0.008268913
-0.0032090156
-0.001711512
-0.003256431
-0.003333915
-0.0021259848
-0.002377384
-0.0027708756
-0.0023315141
-0.004153889
-0.004483193
-0.0025718543
-0.002354159
-0.0027389359
-0.0031415548
-0.0013808059
0.0021058773
0.0050836084
0.0069028703
0.004009685
6.1349396E-4
-4.2426694E-4
-0.0013031436
5.740364E-4
9.853212E-4
2.0342846E-4
0.0017885646
2.8086605E-4
3.465471E-5
0.0031945382
0.003379751
0.0036118135
0.0048885616
0.0054800785
0.006820661
0.005930965
0.0016597054
-0.0010292182
5.4998626E-4
0.0025894272
0.0022847133
0.0011884666
-2.3595401E-4
-0.0011127724
-0.0014553077
-0.0031340243
-0.003918621
-0.0033263525
-0.0045778733
-0.0063024405
-0.0067919767
-0.0069253775
-0.006327722
-0.006410105
-0.0068302406
-0.003792655
-5.12455E-4
-0.0013635295
-0.003104767
-0.004193123
-0.0040260726
-0.0017027982
-0.0019118213
-0.00414206
-0.0032015338
-6.9119193E-4
0.0032180215
0.0067083407
0.0049482156
0.0031557006
0.0037799312
0.0034781843
0.0042598746
0.0046558846
0.0031116724
0.0021508955
0.002361562
0.002692028
0.0017509174
0.002147253
0.003076316
0.0015140205
0.0011862423
6.3425815E-4
-3.9507763E-4
9.0729294E-4
5.98382E-4
6.287934E-4
0.0013382074
6.182004E-4
0.002490844
0.0033015772
0.0020284795
0.0025405767
0.0026513296
0.0037033078
0.004569748
0.0027764956
0.0021170832
0.001989854
0.0011176501
0.0017289214
0.0026017479
0.0020774396
0.0018763244
0.0020906555
5.7385943E-4
-8.830012E-4
-1.2473225E-4
3.6461293E-4
-0.0012237795
-0.0033605893
-0.0050724586
-0.005819846
-0.003816812
-0.0015049076
-7.708084E-4
8.7156775E-4
0.0015883676
0.001789358
0.001895755
-3.1615194E-4
9.6160435E-4
0.0032853151
0.0016109347
0.0030496453
0.003786281
2.0533094E-5
-4.4571654E-5
0.0020043848
0.0022445882
0.0027051216
0.0031988346
0.0037530977
0.005073344
0.006532483
0.0072248173
0.0063645793
0.0035442882
0.0020022597
0.004782204
0.006144182
0.0029623318
0.0012745193
0.0017081922
0.0011921112
5.38983E-4
-0.001576428
-0.0043826373
-0.0042624874
-0.0046001123
-0.0066992515
-0.0068164417
-0.006148655
-0.0055498728
-0.0054598814
-0.006249236
-0.006561223
-0.00852006
-0.009763704
-0.009181682
-0.0115856
-0.01136501
-0.006261451
-0.004075851
-0.003561436
-0.0012963983
0.0010334459
0.001518387
-6.608821E-5
6.485559E-5
0.0012248706
-0.0010237934
-0.0036221577
-0.004520948
-0.004514918
-0.0012223216
9.607297E-4
-9.7042084E-4
-0.0011901828
-0.0017561745
-0.0042142393
-0.003702305
-0.0033161389
-0.0038613072
-0.0016285052
2.4042856E-5
-0.0010689426
-0.0012876566
-9.006931E-5
-4.5983255E-4
4.042553E-5
0.0023716593
0.0021443828
0.0023691687
0.004082637
0.003356965
0.0018421015
-3.609425E-4
-0.0022851941
-0.0012806873
0.0010026651
4.6467045E-5
-0.005638248
-0.0066011925
-0.0027795273
-0.0032787845
-0.0034865246
-0.0065401956
-0.015043155
-0.016141415
-0.012431429
-0.01104903
-0.009782633
-0.009022123
-0.007165605
-0.0049339426
-0.0035028371
-0.0013053245
-7.6477486E-4
-0.0017229709
-0.0018226337
-9.4335346E-4
-2.1802001E-4
1.1077736E-4
0.0020898897
0.0043605305
0.0060640103
0.0068412977
0.003852862
0.0017370918
0.0024056488
6.4915593E-4
-8.398813E-4
-4.6247053E-5
-1.125365E-4
-0.0010228816
-0.002218246
-0.0030565741
-0.003424859
-0.00350891
-0.0027752293
-0.002828508
-0.0031025119
-0.0017230314
2.1654958E-4
0.0023578352
0.0035986693
0.003235224
0.0028279736
0.0014495441
-9.490208E-4
-0.001742721
-0.0014029144
-0.002306886
-0.003297201
-0.0028424172
-0.0037610955
-0.0062330095
-0.006805523
-0.0061470023
-0.0056878715
-0.0048002326
-0.004661162
-0.0059562204
-0.0051584695
-0.00239795
-0.0035067042
-0.0056391335
-0.0046464032
-0.0048457305
-0.0051986687
-0.0037601006
-0.001723442
0.0010798974
0.0025016272
0.0049214023
0.007530126
0.006256613
0.0071366527
0.009745154
0.009606759
0.009281732
0.008657177
0.009162906
0.011471434
0.013754121
0.015192229
0.013504423
0.011780366
0.012161733
0.012245442
0.009788517
0.003872872
0.002648199
0.004528447
4.7015346E-4
-0.001499174
-0.0014926299
-0.005679161
-0.0086453045
-0.011912882
-0.013788333
-0.011886595
-0.015204192
-0.019670533
-0.01701544
-0.013789018
-0.015558617
-0.019834822
-0.022634441
-0.023437098
-0.023386275
-0.02100708
-0.0152050825
-0.0073750457
-7.483588E-5
0.0037426923
0.00484072
0.007931093
0.0107469745
0.0092753945
0.01110457
0.017959299
0.021115907
0.022372497
0.02484502
0.023079999
0.019186672
0.01911524
0.019071035
0.017922435
0.019504724
0.020355744
0.021996535
0.026544936
0.023940591
0.014277661
0.0046969866
-0.0040717954
-0.00892243
-0.012608717
-0.01762752
-0.019945567
-0.021649925
-0.02214192
-0.021004329
-0.021846266
-0.021192007
-0.019702652
-0.019932307
-0.018500406
-0.017162442
-0.015775234
-0.010477729
-0.005279243
-0.0035300956
-0.002004366
-4.453248E-4
-2.0737463E-4
0.0021311885
0.006114262
0.0067314226
0.0062080626
0.008523492
0.011366046
0.012479287
0.012496623
0.010536946
0.0065963073
0.005175593
0.006774806
0.009420748
0.0142958155
0.017478758
0.017646236
0.019661754
0.021016592
0.021100907
0.023226727
0.023759175
0.021697873
0.019122075
0.014280179
0.0085451985
0.0049642846
0.0020142328
-0.0016443895
-0.0051166667
-0.00809103
-0.009858121
-0.010772966
-0.0117945215
-0.012454331
-0.013656701
-0.015307481
-0.016134148
-0.016521141
-0.017347308
-0.01935373
-0.020247305
-0.0210267
-0.02386191
-0.024986887
-0.027459702
-0.029275738
-0.023459138
-0.018659431
-0.014415431
-0.0047022183
0.0066080284
0.01952567
0.028462699
0.03539203
0.035627697
0.011791103
-0.006005182
0.0020452722
0.007125174
0.009897406
0.015538929
0.018121328
0.024982372
0.031588987
0.038105287
0.044225775
0.04893062
0.061519526
0.060682658
0.036292862
0.010700593
-0.011339681
-0.024680106
-0.030616624
-0.03714596
-0.035933387
-0.03399296
-0.036779802
-0.034655754
-0.0309102
-0.029815463
-0.03065965
-0.029718338
-0.027230373
-0.029217955
-0.029915733
-0.0260712
-0.020307781
-0.014226492
-0.013200102
-0.010934917
-0.0034737599
0.0025864488
0.008173333
0.011077036
0.011877223
0.01872589
0.029198755
0.03670669
0.040877778
0.04457632
0.04728092
0.04784279
0.047648523
0.044851117
0.041031938
0.03821128
0.034838255
0.032032683
0.027756933
0.023700548
0.02218223
0.019213246
0.017386846
0.015660465
0.010953694
0.0064439103
9.761692E-4
-0.0032249263
-0.012568479
-0.031611416
-0.0440813
-0.05484671
-0.063909434
-0.050443906
-0.032322515
-0.02422541
-0.016304936
-0.012772313
-0.006211896
0.006249117
0.013690327
0.021167455
0.02904899
0.034212932
0.038434304
0.041254
0.04115254
0.03286311
0.021674853
0.01002599
-0.007115508
-0.021709383
-0.033877876
-0.04536286
-0.051164728
-0.054335006
-0.052602492
-0.047461793
-0.04342841
-0.036962725
-0.02680413
-0.013530629
-0.0046808417
0.0013580376
0.015790055
0.033295523
0.047699273
0.058161024
0.06438651
0.06699832
0.068055764
0.07166306
0.072695546
0.07907954
0.095238455
0.112913735
0.13876952
0.1251262
0.0394778
-0.037647195
-0.07033941
-0.08896121
-0.09446759
-0.09249788
-0.087431245
-0.07867943
-0.073015496
-0.06645705
-0.057174545
-0.049622692
-0.04924922
-0.04920858
-0.039902005
-0.028117724
-0.015746405
-0.0044902503
0.006857548
0.02154907
0.0306533
0.041923724
0.05450893
0.04938432
0.035604417
0.026999382
0.024636347
0.026241774
0.025741898
0.02170841
0.0137876365
0.0060862647
0.0020745234
-0.001989683
-0.007291309
-0.012234395
-0.011977865
-0.00972617
-0.009813322
-0.0058870646
-0.0011055914
0.0016746154
0.0052781748
0.008067599
0.010351281
0.010023003
0.011768089
0.018334273
0.019519676
0.015701137
0.009764936
0.0018979997
-0.003431725
-0.008104333
-0.01271624
-0.015221902
-0.016577257
-0.018340787
-0.020378549
-0.019793537
-0.019195858
-0.019550469
-0.017433967
-0.013780969
-0.008771719
-0.005529155
-0.0043610185
-5.1248913E-5
0.0033672866
0.0027939451
8.1039226E-4
-3.93819E-4
7.1503734E-4
0.0011240179
0.0010904758
0.0020805865
0.0030456025
0.0048431084
0.004511981
0.0022933662
0.0022243878
0.0032427956
0.003385336
0.0020313698
0.0021187996
0.003387212
0.0019021933
8.395825E-4
0.0015317287
0.0025597273
0.0059501952
0.008783333
0.0071118656
0.0054607303
0.0052856207
-2.1981858E-4
-0.004622961
4.345535E-4
0.0047211996
0.0062465454
0.008516104
0.0063049295
0.0038607563
0.004259663
0.0033462946
0.0019585888
0.002587691
0.0061501255
0.0074053807
0.0043988144
0.002747372
0.002270439
0.0028290164
0.0046399846
0.00447931
0.0034766032
0.003720594
0.0047327983
0.0048162295
0.005038082
0.005988657
0.0025576898
-0.0016086801
-3.140508E-4
2.597805E-4
-0.0012713191
-4.8859464E-4
0.001121569
0.00226694
0.0015679187
-0.0010687801
-0.0012222619
9.1264915E-4
0.001959391
0.0016682812
2.2507664E-4
-6.469888E-4
4.0321433E-4
9.385452E-4
6.0628026E-5
-9.0464577E-4
-7.8022864E-4
0.001558889
0.0026363614
1.1195256E-4
-1.8342702E-4
6.731465E-4
-0.0032809116
-0.0059964466
-0.0042449976
-0.003829524
-0.005264868
-0.006536668
-0.006438386
-0.006461993
-0.007905926
-0.0062392433
-0.0029230819
-0.0014862806
-5.3595187E-4
-0.0016915437
-0.0019413347
4.479854E-5
-0.0012170114
-0.0016865538
0.0015468907
0.0027778072
0.002985656
0.0049029444
0.004821365
0.0033684669
0.004712559
0.0052006035
0.0032277196
0.0027575034
0.0018377181
-4.836767E-4
-4.3253033E-4
0.0017104594
0.002235924
9.648474E-4
-4.7679868E-4
-0.002330222
-0.0017143416
-0.0011469184
-0.0035490943
-0.0027005137
-0.0050774156
-0.011044933
-0.0090586515
-0.008253297
-0.008380671
-0.0026590854
-0.0014526196
-0.001152277
0.0013023277
6.164729E-4
1.5872717E-4
-0.0019844703
-0.004762997
-0.0057654986
-0.007519712
-0.007698459
-0.007737886
-0.007817814
-0.007009499
-0.007846748
-0.008052287
-0.008714869
-0.009731407
-0.008776268
-0.0099686645
-0.011653116
-0.012167752
-0.013500558
-0.011186231
-0.006365185
-0.0047083613
-0.004482136
-0.0039883684
-0.0029426387
1.1609208E-4
0.0017930922
2.5665396E-4
0.0011457779
0.0053878273
0.008580213
0.010696814
0.011934946
0.008609689
9.006504E-4
-0.0046317833
-0.0065559866
-0.007940369
-0.0070298216
-0.0036944994
1.3014363E-4
0.0020541453
-0.0037523936
-0.012274283
-0.013169952
-0.0117423665
-0.012987846
-0.0121570425
-0.011233455
-0.01208389
-0.010233517
-0.0071303057
-0.005252112
-0.0032800466
-0.0013588244
0.0011920163
0.003151389
0.003253413
0.004343612
0.006322163
0.007669557
0.0084708305
0.008730289
0.009319611
0.009501973
0.008880743
0.008161637
0.004950989
-3.7606372E-4
-0.0027666625
-0.0025696945
-0.0046060234
-0.008254395
-0.009428021
-0.007873095
-0.006982943
-0.00860099
-0.011976369
-0.01700849
-0.022021614
-0.02632066
-0.032259967
-0.038053725
-0.04309118
-0.047072943
-0.04664063
-0.045476723
-0.043651097
-0.03722575
-0.028296959
-0.016532743
-0.007570755
-0.0049776053
-3.6155642E-4
0.0043675075
0.0073454366
0.0120172305
0.01371945
0.014103926
0.015863685
0.015850592
0.016126819
0.018275648
0.020639936
0.020054167
0.016999593
0.017010784
0.01965755
0.023018872
0.028217766
0.035311237
0.041465685
0.042355917
0.04327421
0.047236815
0.04660004
0.042950206
0.037970454
0.029754128
0.023024047
0.015049898
0.003624439
-0.0074234977
-0.019936336
-0.032211635
-0.042348795
-0.05218523
-0.06018764
-0.06529225
-0.06662486
-0.06705905
-0.0706116
-0.074862234
-0.07867134
-0.08614215
-0.101554416
-0.11374903
-0.11282556
-0.10844498
-0.08145348
-0.01319318
0.052090354
0.083997525
0.100337766
0.1115695
0.11895144
0.12028823
0.11503712
0.11112598
0.108448304
0.10427523
0.099836454
0.09593179
0.09313892
0.08689205
0.07846217
0.073916934
0.06890932
0.05948678
0.046699096
0.029770553
0.01042797
-0.008325956
-0.027217576
-0.04565308
-0.060823698
-0.07298318
-0.08047039
-0.081912994
-0.082028545
-0.08050908
-0.07334149
-0.06304193
-0.053510647
-0.04484939
-0.036264215
-0.030247312
-0.029121995
-0.031585842
-0.033872038
-0.035250146
-0.04063727
-0.047601834
-0.052823264
-0.060007755
-0.065559976
-0.0670876
-0.06408029
-0.055822305
-0.049302533
-0.040521257
-0.024506353
-0.005266632
0.017212769
0.03648883
0.053476628
0.07251151
0.087380566
0.101258695
0.11051434
0.10868369
0.10138166
0.09121717
0.083428234
0.077635914
0.08252083
0.11176612
0.14871988
0.17952034
0.1807197
0.1281796
0.054515854
-0.018276878
-0.08458762
-0.11931833
-0.13549109
-0.14861521
-0.15374607
-0.16621076
-0.18128474
-0.18714392
-0.19993629
-0.20987421
-0.19229028
-0.16178109
-0.13727778
-0.11456006
-0.08951264
-0.060397267
-0.029205494
-5.665995E-4
0.027990019
0.058331814
0.087592155
0.11226238
0.13505918
0.15487881
0.16334467
0.16509418
0.16156526
0.15106249
0.1391869
0.1203687
0.0973104
0.07654019
0.05623866
0.03865683
0.023428308
0.021878313
0.019664997
-0.019052764
-0.06882236
-0.095947236
-0.10596909
-0.11743279
-0.13946898
-0.14189765
-0.12776463
-0.12018601
-0.08759745
-0.038800072
-0.0121881245
-0.0031066337
-0.005833971
-0.009880449
-0.009047
-0.010036318
-0.009027415
-0.010078368
-0.010746197
-0.0016001097
0.008257564
0.0135533335
0.023364961
0.04081796
0.0534668
0.055800293
0.05658954
0.055604313
0.050695147
0.040437423
0.024174493
0.013331794
0.007798535
-0.0013294687
-0.0075849984
-0.0048179287
0.002982717
0.008906887
0.0091419015
0.008133799
0.010442161
0.0093896715
-0.0031246184
-0.020969858
-0.032947704
-0.034936324
-0.0281642
-0.018463673
-0.012606867
-0.011685047
-0.01042917
-0.006262
-0.0011396849
0.0049575954
0.008960146
0.008761392
0.008185579
0.008274584
0.009602756
0.012893617
0.01695263
0.02209997
0.026755087
0.028291484
0.029334716
0.032570437
0.030649967
0.02060234
0.0124387015
0.0063175117
-9.0153585E-4
-0.0045769303
-0.007184841
-0.010132976
-0.012345459
-0.016997766
-0.021684522
-0.023179902
-0.021583064
-0.018200142
-0.014791043
-0.010298552
-0.006537008
-0.0039198566
-0.0012385097
-0.0049828524
-0.012191285
-0.010826769
-0.005028012
-0.0031112616
-0.0018861975
7.36563E-4
0.0026301816
0.0028028684
0.0012788714
-6.8467675E-4
-0.0015753076
-2.723704E-4
0.0010304482
4.6613743E-4
0.0021913408
0.006511911
0.01106314
0.01718909
0.021369604
0.023125133
0.029464442
0.037013527
0.037475824
0.032833613
0.027606357
0.023461984
0.018416055
0.009829181
0.003273479
-8.610591E-4
-0.007991927
-0.014929765
-0.021752223
-0.027906287
-0.032445043
-0.04108464
-0.048697144
-0.054061145
-0.06006167
-0.062199946
-0.066722155
-0.07179696
-0.07500973
-0.0811105
-0.069844864
-0.036474936
-0.010688052
-0.007242594
-0.010951359
-0.0026659297
0.014406241
0.03441138
0.052037172
0.059601184
0.06558858
0.06537925
0.05686372
0.05373195
0.04992552
0.04735389
0.050222225
0.05055407
0.049757987
0.044441365
0.03218724
0.010585899
-0.012210883
-0.018477965
-0.020814722
-0.020150255
-0.009741353
-0.009741366
-0.014421071
-0.009706764
-0.001988892
0.001981646
-0.00120885
-0.0019383619
0.003916817
0.0037924596
-0.018649286
-0.052859318
-0.053798936
-0.021782158
0.0060798395
0.02406128
0.027963417
0.008812044
-0.025328731
-0.05007422
-0.049793962
-0.044634283
-0.042961504
-0.034120064
-0.02577075
-0.01987688
-0.013987719
-0.009729785
-0.0014804066
0.008598604
0.016529202
0.02224084
0.023715328
0.02626364
0.02958987
0.028267039
0.032406837
0.043957345
0.049404394
0.049698405
0.0484203
0.042547945
0.036237355
0.02986181
0.02012273
0.007975463
-0.003576467
-0.008533639
-0.0099012675
-0.0149109885
-0.020343952
-0.024210364
-0.026519299
-0.024600636
-0.018797502
-0.013198603
-0.014671796
-0.020310631
-0.023090482
-0.029350229
-0.035706043
-0.030596973
-0.024394397
-0.023961874
-0.017867621
-0.0055369493
0.004943991
0.011022408
0.014625621
0.02014072
0.025179481
0.025409382
0.026049357
0.028520519
0.027050642
0.020708758
0.008910687
-0.007492321
-0.023609314
-0.036143832
-0.041363023
-0.043734666
-0.0467932
-0.04090005
-0.02943035
-0.019345693
-0.0062500113
0.0075685685
0.02046846
0.027514651
0.025818745
0.024292603
0.017865986
0.010883998
0.01814472
0.023006301
0.016988061
0.019210692
0.030590229
0.031743854
0.019317422
0.011273035
0.01681791
0.03265771
0.04422502
0.03519315
0.01466468
-0.010697914
-0.037873477
-0.058162533
-0.08347941
-0.10428738
-0.10776144
-0.11225399
-0.10671346
-0.08214522
-0.049859416
-0.010275327
0.014922473
0.026203161
0.048931032
0.066575766
0.068718776
0.07108398
0.068815246
0.047777504
0.019883977
0.010309822
0.011728289
0.0091361515
0.01084251
0.018862909
0.035158336
0.05701248
0.07078468
0.086752
0.10607947
0.1062605
0.0917968
0.068408296
0.023455981
-0.034168433
-0.08329404
-0.12021798
-0.1524385
-0.17277434
-0.15549183
-0.09694985
-0.03621384
-0.00504427
0.00888191
0.015225677
0.0056814565
-0.010826604
-0.027672531
-0.047362756
-0.06701438
-0.08160389
-0.07515625
-0.045756344
-0.008390778
0.03271448
0.0695457
0.08886198
0.09214362
0.10272984
0.11803788
0.11160338
0.10586872
0.10408849
0.07719154
0.043240488
0.015702965
0.0023767774
0.010829
0.020581312
0.008319583
-0.048862897
-0.097618565
-0.07271371
-0.038009293
-0.03718947
-0.026276032
0.0032416296
0.014371881
0.0010713656
-0.011182186
-0.035831336
-0.056508016
-0.049784403
-0.075009555
-0.11043984
-0.0814351
-0.014080406
0.037215564
0.053012013
0.07638934
0.113468096
0.09966631
0.06107564
0.03635669
-0.004243163
-0.058409546
-0.0996819
-0.11583123
-0.10649952
-0.06464029
-0.009586822
0.012232281
0.020406762
0.04262826
0.06016762
0.06428822
0.05579807
0.053482518
0.054400276
0.031117704
0.011488108
0.0094689
-0.01605213
-0.056715667
-0.05156525
0.00781992
0.065732874
0.092600696
0.09834877
0.094694585
0.09189202
0.07517692
0.018115237
-0.06588835
-0.13522345
-0.16005263
-0.13996863
-0.102839045
-0.0707226
-0.044547465
-0.032048944
-0.029632682
-0.018837703
-0.01160474
-0.017018463
-0.015238774
6.580706E-4
0.023346338
0.054112714
0.09492175
0.12439666
0.12687811
0.11161253
0.072156005
0.025239294
0.004207737
-0.019669943
-0.06280766
-0.08305262
-0.061709095
-0.022003658
0.0084860055
0.025425034
0.03078935
0.017569114
-0.0010639504
-0.01364517
-0.029673427
-0.044916954
-0.049848706
-0.04922943
-0.046355367
-0.036167145
-0.018512027
-0.0027173904
0.009535261
0.023294859
0.033599745
0.035883673
0.035684977
0.0347802
0.02942171
0.020209573
0.008784304
-0.0035945957
-0.013750867
-0.02010466
-0.023041466
-0.024498127
-0.023465376
-0.01605854
-0.005401486
-7.9534575E-4
-0.0022226705
0.002788754
0.015020015
0.028344793
0.043921195
0.05191822
0.052005198
0.050835904
0.042302243
0.034348723
0.015198916
-0.022681192
-0.04444298
-0.059475176
-0.07086984
-0.046485428
-0.02052674
-0.015456572
-0.0084452145
-0.004202801
-0.0030586952
-6.2076666E-4
6.782521E-5
-5.674881E-4
-0.0026961446
-4.6926178E-4
0.0018816458
0.0020626332
0.0044807284
0.0054125115
0.009321184
0.009165074
5.8321806E-4
0.002458758
0.010118114
0.010591722
0.009741986
0.00951184
0.0072638346
0.0028037329
-1.1674841E-4
-3.627724E-4
-0.0017229434
-0.0041867895
-0.005962567
-0.0052321325
-0.0033724126
-0.0028470065
-0.0017377676
0.0010036918
0.00491841
0.0077129295
0.00823739
0.009045974
0.0102280695
0.009562211
0.006169859
0.0038280874
0.0037410746
0.0010936399
-0.0024732654
-0.004419017
-0.006627264
-0.008362618
-0.009469378
-0.0088245785
-0.005637074
-0.0029079635
-0.0015770117
-9.0694166E-4
9.06627E-5
8.4309885E-4
8.9310715E-4
0.0015346198
3.9067309E-4
-2.5289062E-5
0.0032422238
0.0028731422
2.1153908E-4
2.1775177E-4
-0.0028792094
-0.0082136635
-0.011223447
-0.012653934
-0.01194665
-0.010004506
-0.008110751
-0.006575604
-0.0061655245
-0.005545467
-0.0036493684
-9.821821E-4
3.6882737E-4
4.2302132E-4
0.0038858377
0.010894176
0.016012901
0.016327946
0.012817498
0.009102404
0.006594349
0.002295422
4.314129E-4
0.0075030173
0.013748517
0.014359702
0.014961131
0.008709225
2.2705445E-4
-0.0031463203
-0.010488126
-0.01314152
-0.010196201
-0.012394536
-0.009128334
-0.008540272
-0.016725834
-0.014355194
-0.008311821
-0.00742365
-0.005515447
-0.005548227
-0.004340327
-0.0018011914
-0.0022105267
-6.457349E-4
0.0018963197
0.0027163757
0.0027955722
0.0018634724
0.0018619549
0.0033979265
0.005073633
0.004351681
0.0016228594
0.0011161993
7.007956E-4
-4.5348456E-4
3.319892E-4
1.2390148E-5
-4.7544125E-4
6.6208123E-4
-1.8834019E-4
-6.2235654E-4
0.0010827166
5.176642E-4
-0.0010180471
-2.8522764E-4
4.3817313E-4
-4.9024413E-5
9.2145544E-4
0.0027438516
0.0026139712
0.0036465395
0.0058139735
0.0033763882
-2.4667973E-4
-9.28803E-4
-0.0014673083
-2.432013E-4
0.0015621122
-0.0013479698
-0.00477225
-0.0048800064
-0.0049712546
-0.0062569105
-0.008988928
-0.010249173
-0.007997774
-0.00807468
-0.009463793
-0.008388494
-0.0077443663
-0.006050251
-0.0040923785
-0.0042645778
-0.0033862721
-0.00207761
-1.09142136E-4
0.0031875975
0.00527916
0.006999223
0.008608179
0.010253235
0.0099945385
0.0076002236
0.008578851
0.009655629
0.009054323
0.009713668
0.008606957
0.0075954725
0.005618085
0.0016579176
0.0010904005
-1.8814066E-4
-0.0026278913
-0.003144534
-0.0044756248
-0.0039134133
-0.0031630686
-0.0055377255
-0.009313237
-0.014878365
-0.018548151
-0.02074847
-0.023766058
-0.021776529
-0.016404113
-0.012959632
-0.010784984
-0.009329339
-0.0066354885
-0.0021545177
-1.18225034E-4
-0.0016995363
-0.0016689909
0.0014656417
0.003000558
0.0046694535
0.009839128
0.012594739
0.010788077
0.009989452
0.009670719
0.007107432
0.004132278
0.002360288
0.00268458
0.0020954183
-7.5937656E-5
0.0025091763
0.0073153544
0.01028335
0.012702718
0.011840392
0.012027072
0.014948496
0.01408716
0.012396147
0.010534774
0.008710752
0.011542652
0.012804354
0.00861763
0.0034404502
-7.7926344E-4
-0.0044665616
-0.008847813
-0.011751721
-0.012791454
-0.014850397
-0.01607171
-0.01529385
-0.017099991
-0.023376117
-0.028212326
-0.03085146
-0.03505062
-0.040412918
-0.049938917
-0.05123505
-0.02707053
0.0024646914
0.01763459
0.026703278
0.03231543
0.03244109
0.0306866
0.029326633
0.028840058
0.028103784
0.026565593
0.025587497
0.024068914
0.019474527
0.016611416
0.01755457
0.014217253
0.0084420005
0.006536198
0.00388377
-0.0011637642
-0.0049466966
-0.0077108857
-0.010859584
-0.013449615
-0.016030733
-0.019101124
-0.018102422
-0.014697427
-0.015017574
-0.0150828175
-0.01232471
-0.010006811
-0.0070402334
-0.003453207
-0.0010109604
0.0015663765
0.0028932416
0.00207953
0.0025489603
0.0036298784
0.0040222895
0.0032688498
-1.912585E-4
-0.0018678507
-0.0016296846
-0.0023569653
-8.183137E-4
7.539924E-4
0.0012925272
0.0020445012
0.0022964661
0.0038171897
0.0037889413
0.0052432856
0.008011315
0.0047885026
0.0033153773
-1.5385265E-5
-0.008667511
-0.0069747576
-0.001165517
4.0996445E-5
4.7829768E-4
-2.2899541E-4
0.001370919
-0.0019621782
-0.010407598
-0.008878775
-0.0024873652
0.0020610346
0.0074955015
0.01063786
0.01092853
0.0098102745
0.008034458
0.006400776
0.0050009983
0.0037639055
0.00207933
0.0015610104
0.0022102543
0.0037223112
0.0069396184
0.0093757445
0.008666751
0.0029487787
-0.003399379
-0.0031953647
-6.384232E-4
0.0011551172
0.0057830266
0.011138179
0.013224418
0.012969727
0.013319878
0.015051107
0.017151302
0.018468115
0.019374903
0.01994187
0.018079644
0.014611359
0.011786264
0.008340725
0.0037057635
5.799816E-4
-9.1776846E-4
-0.0027441366
-0.0037644748
-0.0052797003
-0.0072807134
-0.0058850045
-0.004526212
-0.0058458126
-0.0072732894
-0.0080077695
-0.0101668425
-0.01620244
-0.020722006
-0.022545412
-0.024842504
-0.026416184
-0.031825315
-0.0361438
-0.03463886
-0.034019843
-0.03060376
-0.026801342
-0.026086599
-0.022819487
-0.018403245
-0.009728851
0.0015178676
0.009354512
0.016585294
0.023308374
0.030627526
0.03806497
0.045085352
0.050116673
0.04975874
0.05030601
0.051125888
0.052581772
0.058192637
0.0657546
0.07781769
0.08639759
0.10092498
0.10750572
0.047239475
-0.028499288
-0.04199744
-0.03978169
-0.047802623
-0.048486758
-0.052220725
-0.052811142
-0.049858976
-0.062396392
-0.078646235
-0.073556006
-0.058521707
-0.050804857
-0.043620497
-0.040087394
-0.04075092
-0.04083281
-0.041496433
-0.029287668
-0.011062237
-0.0015037248
0.00935659
0.018722367
0.02468552
0.031696014
0.034232695
0.033868838
0.03174257
0.029010022
0.02565477
0.0189466
0.014578364
0.011845776
0.008610162
0.005876761
0.0022293436
0.0031714877
0.007422021
0.010634073
0.0155406855
0.020222384
0.022392923
0.02118242
0.020866236
0.023259064
0.020519147
0.018237075
0.02068852
0.020013386
0.018281622
0.017422924
0.017739806
0.019104302
0.021989029
0.03057531
0.02127579
-0.017143145
-0.04558879
-0.052723773
-0.056251734
-0.05406499
-0.048511956
-0.044521097
-0.040304445
-0.03655649
-0.032167565
-0.02982516
-0.02865248
-0.023575349
-0.017784957
-0.013761505
-0.010524937
-0.0075912494
-0.0041240132
2.749548E-4
0.0062613846
0.013183576
0.019032033
0.024192879
0.0306963
0.034532767
0.032434978
0.029992452
0.027619697
0.024843032
0.023908354
0.019832056
0.015404805
0.015005691
0.012356403
0.008221543
0.006714161
0.006684639
0.006166168
0.0036436722
0.0017576443
0.0013718641
7.9740264E-4
0.00235817