0.0062530674
0.004021952
0.003994895
0.005549845
0.007415319
0.0064020725
0.0043980773
0.005666602
0.005660167
3.1948354E-4
-0.0053541996
-0.0075431415
-0.0069575645
-0.0061184783
-0.006608788
-0.0058279126
-0.0039233533
-0.0032280372
-0.0025566465
-0.0027858298
-0.0041488493
-0.0060008243
-0.008910805
-0.0071736556
-0.0014014624
0.0010121239
0.0027937957
0.0025451398
-0.0033417463
-0.006856049
-0.004491801
-0.0023140344
-0.005784512
-0.008097883
-0.0010513631
0.0042770156
0.003957603
0.0062423823
0.0071745818
0.00546273
0.0026629455
-0.001057966
3.7566974E-4
0.002886517
0.0025289436
0.0049493043
0.008227231
0.0094886245
0.0073131737
0.001376539
-0.0016139674
-0.00206742
-0.004209979
-0.0038206368
-0.001071875
-5.705329E-4
9.163693E-4
0.0053815665
0.00701963
0.004163459
1.5375852E-4
-0.0039381087
-0.006513568
-0.0056391326
-0.0031352367
-0.0014625337
6.287412E-4
0.0031532762
0.0030986543
0.0013987467
-6.3538103E-4
-0.003149902
-0.0041716835
-0.004349999
-0.004042743
-0.002005233
5.547902E-4
0.0019632138
2.1443262E-5
-0.003382236
-0.0053329594
-0.006972957
-0.006230901
-0.0035285703
-0.0014617422
0.0016081177
0.0043471376
0.006272769
0.00785231
0.0056546703
4.0045215E-4
-0.0022388375
-7.0476945E-4
4.117123E-6
-8.8532094E-4
-4.6054894E-5
0.0021474583
0.0050423425
0.0043283086
2.5595972E-4
-0.001356887
-0.0047061653
-0.00761068
-0.004987259
-0.0029962189
-0.0015049607
-2.1444508E-4
3.0626231E-4
0.0022846952
8.039235E-5
-0.0049664993
-0.0068398016
-0.0068793804
-0.005942456
-0.004217341
-0.001125158
0.0018075252
0.004017208
0.0054904222
0.0021234257
-0.0019719515
-0.0036545212
-0.004196624
-0.0023754882
-0.0030865306
-0.002235582
0.0033972175
0.0045661493
0.0036648754
0.00222761
-0.0014360294
-0.0029341378
-0.0033014736
-0.0016239767
-5.0741484E-5
-6.9797033E-4
0.0020375822
0.0048834505
0.0052024354
0.0036316537
-0.0010883674
-0.0035414665
-0.0038222924
-0.0030790486
8.0905843E-4
0.0014090377
2.5450325E-4
0.0044593518
0.007941134
0.0056708893
7.5093826E-4
-0.0037788395
-0.0042961338
-0.0025097148
-0.0036883901
-0.0040373714
-0.0012739043
3.3980212E-4
3.112184E-4
-0.002142363
-0.005629708
-0.007019058
-0.006383697
-0.002496172
7.977943E-5
-5.045667E-4
0.002454992
0.005779373
0.0060435305
0.0056551737
0.0025922474
-0.0013337513
-0.002005609
-1.4870054E-5
0.001275822
7.9701125E-4
0.002742391
0.006236439
0.00638329
0.004049744
5.648361E-4
-0.0031938858
-0.004559858
-0.0040164185
-0.0028677809
-3.200867E-4
0.0018254811
0.0018208858
0.0014618284
-1.5135361E-4
-0.004164456
-0.005663305
-0.0030271597
-0.002132592
-0.0036725623
-0.003062332
4.1668033E-4
0.005523167
0.007904625
0.0048377253
5.2416796E-4
-0.0034459934
-0.004113693
-3.970617E-4
5.54744E-4
3.7894316E-4
0.0026929255
0.004961219
0.0071874023
0.006263687
0.0021738042
-9.967565E-4
-0.003653521
-0.0048816637
-0.003726625
-0.0012866484
0.0013605311
0.0053354884
0.008364311
0.003902248
-0.0023560678
-0.005805366
-0.008432145
-0.006430339
-0.004557275
-0.003057816
0.001858515
0.0037458655
0.0048089353
6.4347667E-4
-0.009253189
-0.007943832
-0.002255617
-0.0013057531
0.0011698933
0.0032678072
0.005804009
0.0067874584
0.0044561327
0.004201544
0.0022361004
-0.0010860295
-0.0017996347
-0.0030015945
-0.0029711586
-6.112361E-4
0.001668423
0.004994562
0.0081637
0.0059984876
3.241403E-4
-0.002190134
-0.0026261474
-0.0018058578
2.464477E-4
-6.159321E-4
-3.6916017E-4
0.0034461122
0.00390096
3.0289736E-4
-0.0020713934
-0.0016819603
-0.0013868443
-0.0012504586
1.1578761E-5
3.3103195E-5
3.7645327E-4
0.0030480532
0.0049225823
0.0037457158
-0.0010927068
-0.0057789753
-0.0052407407
-0.003399475
-0.00522593
-0.005735178
-0.002016349
0.0011300764
0.00424544
0.005920972
7.0641976E-4
-0.0055172164
-0.007077775
-0.004986575
-1.09554094E-4
0.0033101863
0.004969147
0.007057058
0.007295896
0.00578462
0.0030484297
4.984571E-4
0.001782782
0.0034997659
3.482094E-4
-0.0035633624
-0.0030141277
5.200422E-4
0.0044893655
0.004118988
-0.0020129464
-0.0052899686
-0.0037468274
-0.0023823467
-0.0016316023
-0.0025877964
-0.0044448357
-0.0032237978
7.8736234E-4
0.0024640034
3.0717938E-4
2.543679E-4
0.0033270929
0.00552307
0.00374481
-0.0031801306
-0.0070280326
-0.0035747662
5.358953E-4
0.0012674516
-0.0013961064
-2.0865393E-4
0.006292332
0.0060076276
0.0013947621
0.0019930624
0.0017282459
-0.0011412504
-7.035918E-5
0.0015703286
-2.4446606E-4
-0.0011548948
1.6735411E-4
6.930754E-4
2.930552E-4
8.732475E-4
0.0020882816
0.0039667618
0.0054606246
6.739716E-4
-0.0065110526
-0.008381664
-0.008419135
-0.006647931
-0.0035182815
-6.3457945E-4
0.004599997
0.00779346
0.010597889
0.011784072
0.0027648471
-0.008778135
-0.014839828
-0.011156901
-0.002040207
-5.247314E-4
4.7355462E-4
0.006085752
0.0148735475
0.022039745
0.008234009
-0.012804026
-0.015138011
-0.007565877
-8.606037E-4
0.0012304931
0.001950145
0.005235246
0.00482929
0.0032231412
0.0034224174
8.0139306E-4
-0.0069153514
-0.0123057505
-0.006786019
-0.002223281
-0.003161556
0.00127233
0.0057482603
0.0046449946
3.7172306E-4
-0.00484587
-0.0059353467
-0.0033904884
-5.0202396E-4
0.0030057011
0.007972156
0.0134076765
0.015454336
0.009629447
-0.0028837682
-0.0101419045
-0.005989357
-8.2027115E-4
-0.0010096317
9.77709E-4
0.00818618
0.011449517
0.009484738
0.006951449
0.0043368023
0.0025037932
-0.00566944
-0.015192449
-0.013175462
-0.011273565
-0.011101895
-0.0046541635
0.001206776
0.0048861387
0.0037597
0.0014010494
9.791073E-4
-0.0067722267
-0.008761177
-8.541491E-4
-7.80991E-4
-0.0011305931
0.004312654
0.0074280887
0.00602038
0.00173036
0.004812621
0.010532285
0.0035667748
-0.003375625
-0.0018428966
-0.002553299
-2.5851754E-4
0.008432293
0.011620139
0.0057876618
-0.0017845021
-9.422158E-6
0.0062405965
-0.001422655
-0.013047105
-0.008335075
0.002983754
0.004674345
-0.0012899246
-0.0038088958
-1.5380977E-4
8.5104565E-4
-0.0045919926
-0.007995877
-0.0034823548
5.6674896E-4
-1.9058678E-5
0.0031725774
0.0063262368
2.1424773E-4
-0.0061539575
-0.004714809
-0.0026731738
-1.9521089E-4
0.004298534
0.0012502269
-4.316012E-4
0.007381421
0.0069971313
0.0021518527
4.9936114E-4
-0.008247044
-0.009720969
9.3904167E-4
0.0045030923
0.004143068
0.005302307
0.0034868717
0.0028250378
0.002302481
-0.002926289
-0.0034365337
0.0035367238
0.0019824875
-0.00495516
-0.0035594762
9.629609E-4
0.0055763344
0.005187435
-0.0027330245
-0.003795094
4.0237614E-4
2.862033E-4
-0.00193437
-0.00294756
0.0018192509
0.0070700212
0.005796778
9.784021E-4
-0.004452936
-0.0043215984
-0.0013159687
-0.0030148975
-0.0025195424
0.0038218545
0.011234546
0.010720937
-0.0058937063
-0.020852052
-0.014270958
-0.002416054
0.0018503334
0.008776654
0.010438601
0.0020046544
0.0024896427
0.0049977168
-0.005334386
-0.0118233
-0.0077105532
-0.0030933488
0.0050656423
0.012793227
0.007692538
5.270329E-4
0.0015684152
9.009901E-4
-0.0012195467
-0.003340074
-0.0107589355
-0.012631678
-0.0018712044
0.011994251
0.01797819
0.012418283
0.009114313
0.01720465
0.021470202
0.013425477
0.005346626
0.0029839554
-1.14288225E-4
-0.005961796
-0.013644147
-0.016634777
-0.011700988
-0.010823412
-0.009404104
-0.0021047078
-0.006751558
-0.017708775
-0.017021924
-0.00847501
-0.0030020045
-0.004287004
3.2138597E-4
0.0116942935
0.011716933
-0.0018784291
-0.014275141
-0.010903032
-0.0044643716
-0.008068184
-0.006263068
1.790326E-4
0.015445955
0.040356394
0.040527835
0.029144313
0.03163718
0.025739247
0.009833431
-0.008712444
-0.023641301
-0.021983054
-0.014979603
-0.011561301
-0.008510948
0.007176048
0.021196853
-0.0090325875
-0.03716956
-0.015095923
0.0049216775
0.0077587226
0.011536986
0.010569981
0.010954668
0.0034469357
-0.015279432
-0.021685187
-0.0093367
0.006011717
0.013433446
0.019078907
0.015745671
6.585244E-4
-0.0045622657
-0.0028771989
-4.351874E-4
0.005616476
0.003567689
-4.0233307E-4
0.0012801843
0.0013422299
1.1982695E-4
-0.004622377
-0.012131476
-0.013601764
-0.009654217
-0.011060752
-0.017397732
-0.014201991
-0.0027535106
0.004224189
0.002285608
-0.002158611
0.002844312
0.010997152
0.011459387
0.0073986333
0.0022210113
0.0061423453
0.019148266
0.026241727
0.028515618
0.030442594
0.03482758
0.03399231
0.0043735825
-0.030565854
-0.038043413
-0.041398585
-0.03992802
-0.019629
0.0016283847
0.028556116
0.041532326
0.016370498
0.0017852337
0.0045071705
-0.018484792
-0.051816598
-0.059132982
-0.026524795
0.02356474
0.048415754
0.043353565
0.026239205
0.0021713611
-0.026723886
-0.04154674
-0.030905921
-0.017934326
-0.006355039
0.017537083
0.03743153
0.042724658
0.03366865
0.008947558
-0.00946743
-0.010959486
-0.02109348
-0.040388823
-0.0425362
-0.03600457
-0.026276276
3.3265082E-4
0.017071903
0.011333014
0.014235782
0.027390124
0.03334394
0.02615092
0.008327577
-0.0011246329
0.0133680375
0.040144496
0.050822783
0.03947924
0.023443174
0.0030569222
-0.020043634
-0.031107314
-0.03221613
-0.024249883
-0.0012133666
0.022180233
0.026467882
0.015428645
0.01065108
0.014926364
0.0067930687
-0.009055186
-0.024587689
-0.06464003
-0.10587549
-0.094957344
-0.057176776
-0.03323718
-0.017512456
-0.007029745
0.0019910089
0.014902536
0.02705285
0.038851343
0.04470343
0.038941365
0.026808944
0.01596277
0.010263027
0.006657095
0.010676185
0.018880168
0.015429826
0.010275838
0.018705877
0.035380363
0.034868483
0.020674685
0.03758799
0.052712798
0.024801113
0.011253649
0.014139474
-0.014854986
-0.057008676
-0.082808524
-0.08836323
-0.07343891
-0.031063545
0.015335962
0.02280856
0.010747294
0.01043974
0.0058732214
-0.025080722
-0.056995057
-0.034895375
0.0024355352
-0.010238355
-0.032396026
-0.018966595
0.02035638
0.042478703
0.03185601
0.03926581
0.059234608
0.049188573
0.017294256
-0.011930766
-0.0039425804
0.025231779
0.0314464
0.017696429
-0.011904325
-0.019209117
0.009825169
0.012280477
-0.0021909536
-0.0027981303
-0.008440826
-0.02321624
-0.05559681
-0.066383936
-0.030204615
-0.018140374
-0.026807727
-0.014928136
-0.014415012
-0.019599563
-0.014445541
-0.015105034
-0.018282393
-0.021238046
-0.0043112584
0.0427585
0.07078813
0.06538318
0.072211556
0.09119047
0.07639588
0.031191366
0.0069729583
0.010843025
9.598394E-4
-0.019322136
-0.0028665958
0.03660446
0.03848629
0.015823139
0.031737722
0.05343021
0.008297146
-0.046970055
-0.043429438
-0.03739972
-0.07501869
-0.12116461
-0.13090329
-0.10319319
-0.0713912
-0.05809096
-0.07846521
-0.10242669
-0.07818004
-0.033933513
-0.0015798509
0.025407154
0.03619178
0.031794768
0.02564051
0.036817007
0.06653106
0.080358
0.08636895
0.13297473
0.1955446
0.17341228
0.10370024
0.114564225
0.11226412
0.013812846
-0.053367916
-0.06649507
-0.07028788
-0.046498597
-0.011616937
0.020086953
0.033412263
0.010022397
-0.06132209
-0.16859825
-0.20554991
-0.13789254
-0.05817171
0.009730533
0.064775474
0.04945565
-0.03447473
-0.10317648
-0.120625496
-0.099306874
-0.03245286
0.024980413
0.017245544
0.014703456
0.06304536
0.077614024
0.02680633
0.02588055
0.095865645
0.09452209
-0.011325224
-0.086271904
-0.04450308
0.010373304
0.0050794156
0.036092654
0.09440047
0.1007996
0.04889345
-0.06869047
-0.15441881
-0.103815414
0.040772337
0.1903839
0.28244865
0.28297412
0.10116039
-0.17594808
-0.24551806
-0.1371544
-0.04806713
0.03788713
0.090911746
0.02515907
-0.1005107
-0.16278972
-0.18283065
-0.2063911
-0.111053824
0.07062408
0.1429923
0.1436737
0.18549351
0.15232837
-0.04624341
-0.19841866
-0.19830751
-0.1827147
-0.110277705
0.04717579
0.15104927
0.15776119
0.10166701
0.07545558
0.10097738
0.0899961
0.07061754
0.07102852
0.0120708365
-0.14599395
-0.2695425
-0.16000324
0.06950441
0.15574087
0.11616099
0.04768051
-0.06786093
-0.15724202
-0.11332955
-0.049061887
-0.07655559
-0.08637657
-0.043811604
-0.0041627027
0.07309486
0.15938395
0.19789304
0.19914745
0.09224962
-0.08700148
-0.13100262
-0.060254026
-0.02349788
0.0075980225
0.057388075
0.08295641
0.08040012
0.081410296
0.07538587
-0.032206062
-0.15944356
-0.13036364
-0.051204998
-0.039655637
-0.033624645
-0.03059022
-0.070400916
-0.11426634
-0.07037213
0.03226144
0.075110555
0.06997202
0.03511285
-0.055018708
-0.15434155
-0.20032594
-0.13107562
0.002356942
0.06147002
0.05772358
0.0479085
0.033144232
0.036203325
0.05678105
0.08720852
0.120874904
0.10848483
0.045616005
-0.004691315
-0.046629976
-0.07977034
-0.0075063407
0.08211845
0.05921142
0.08737605
0.15354858
0.07852459
0.01247013
0.024223773
0.0034737024
0.017214553
0.041007813
0.0034637228
-0.0011732194
-0.0010481239
-0.057113986
-0.0713253
-0.0509554
-0.056934845
-0.038866352
-0.050542437
-0.133629
-0.14308107
-0.07225219
-0.03563123
-0.019005274
-0.04241639
-0.16303122
-0.28857446
-0.2921608
-0.1667047
-0.012511302
0.066308744
0.10855154
0.16429596
0.1219864
0.010496715
-0.0016176028
0.03753517
0.07690734
0.15203607
0.19723353
0.21844415
0.26244292
0.29034698
0.27348512
0.20177533
0.10491459
0.032470368
0.012304353
0.026621291
0.0072119716
-0.036797125
-0.07658314
-0.122253686
-0.14461234
-0.15983751
-0.19445683
-0.22483931
-0.23874734
-0.23888618
-0.23079264
-0.15581205
-0.013570333
0.0791996
0.10040555
0.038456067
-0.08534738
-0.107153855
-0.026175553
0.024143906
0.039237984
0.056468002
0.084516734
0.10894552
0.10816868
0.09728992
0.08271525
0.05943484
0.050848845
0.053140596
0.0440838
0.049081836
0.064702034
0.06355335
0.052810717
-0.0053700046
-0.08869863
-0.09000988
-0.03973837
-0.012892661
0.0029529645
0.014899543
0.020580601
0.021036576
0.020356286
0.017380072
-0.0012432891
-0.018691653
-0.025263652
-0.033428878
-0.04130424
-0.0484832
-0.05045988
-0.041889668
-0.029387383
-0.021222271
-0.01945426
-0.020109653
-0.021139361
-0.0067783403
0.023571929
0.041190844
0.043478277
0.030017663
0.0031807343
-0.005190963
0.0025821016
0.0033053374
2.489935E-4
-0.0029658608
-0.008149871
-0.011194609
-0.009847746
-0.007833967
-0.00483578
-0.0051981397
-0.0062302374
0.013979812
0.042650957
0.05524459
0.05257347
0.020253517
-0.024494756
-0.03768622
-0.03102317
-0.026065813
-0.021245778
-0.017997403
-0.014656097
-0.011554868
-0.010982697
-0.012100953
-0.008215463
0.0055804667
0.015343473
0.014771989
0.008208749
-0.008708442
-0.02301891
-0.01886969
-0.005154728
0.009154623
0.01653912
0.010358711
0.002368682
0.0023181294
0.0036903676
0.0018599547
-6.168788E-4
-4.0290333E-4
0.001052834
-1.4536998E-5
-0.001160242
-2.1458021E-4
1.1528498E-4
-0.0030296822
-0.009895001
-0.014167391
-0.013054851
-0.0117342835
-0.00984427
-0.005957168
-0.0011225125
0.0063377786
0.013115987
0.015209226
0.0142428
0.01135114
0.009244247
0.008568848
0.0054181274
0.0026636254
0.00469318
0.007840414
0.009428498
0.008958491
0.0038889071
-0.00248316
-0.004956429
-0.005684846
-0.00424958
0.0014174115
0.006836967
0.011220175
0.01396584
0.009771441
0.002395695
-0.003089549
-0.009703453
-0.017196082
-0.022289312
-0.023350446
-0.02069749
-0.016683156
-0.011128444
-0.006336458
-0.0075913384
-0.010625309
-0.009302725
-0.0061838883
-0.0018350643
0.0057984013
0.013177162
0.01630663
0.017611858
0.020980507
0.022003911
0.01756067
0.014267689
0.01369372
0.014075102
0.015142251
0.0147980545
0.016269661
0.01792849
0.02067695
0.03180794
0.03446855
0.021761082
0.008685139
-0.014558468
-0.040917262
-0.03975695
-0.021749688
-0.011854775
-0.009922625
-0.009242028
-0.009967335
-0.012740649
-0.011895267
-0.00900177
-0.009098527
-0.007948093
-0.0052937893
-0.0017431405
0.0021468073
-9.517034E-4
-0.0073481835
-0.0073108813
-0.0036091795
-4.998117E-4
0.0031889873
0.007194249
0.010624674
0.0128954565
0.012718458
0.009710269
0.0039450186
-5.421395E-4
3.3569388E-4
0.0014599806
0.0010962837
0.0027839355
0.0044907886
0.005905101
0.005382651
0.0013748803
-0.0012408406
-0.0032333517
-0.0055921264
-0.0057400246
-0.0039745253
2.6347183E-4
0.0036710012
0.005151749
0.0064701815
0.0029569985
-0.0024852578
-0.004949867
-0.006208416
-0.004328082
-0.0026619441
-0.003753973
-0.0015474688
0.0025265056
0.0041075065
0.0024545381
-0.0016285444
-0.0038879383
-0.0032596772
-0.001203807
9.881567E-4
0.0025809037
0.005602227
0.00785122
0.007525887
0.0057107112
-1.3141303E-4
-0.005573553
-0.005880562
-0.0063426797
-0.006928404
-0.0048249424
-0.0017972529
6.72212E-4
-8.063424E-5
-0.0032866641
-0.0068609035
-0.0107923625
-0.011216221
-0.008851553
-0.0072300592
-0.0042114547
6.4270035E-4
0.0065302923
0.010037896
0.0069167027
0.0018949206
-9.909164E-5
6.4965547E-4
0.0023098215
0.0028720463
0.0044494816
0.007676936
0.010667386
0.01272356
0.0099521335
0.0026182225
-0.0021805034
-0.0032258607
-0.0039881463
-0.002765382
0.0012682673
0.003449197
0.004529658
0.005251728
0.001408151
-0.0031034842
-0.0049847895
-0.006646287
-0.0072377934
-0.008648709
-0.009450171
-0.0044422774
0.0015170681
0.0029456527
9.5737254E-4
-0.0023514673
-0.0038919298
-0.002640494
-0.0011647369
-6.6874357E-4
4.700132E-4
0.0032919573
0.0067525757
0.007552535
0.0037710315
-6.0730043E-4
-0.002936314
-0.0030054864
-8.286654E-5
0.0020176717
0.0026258347
0.0049410253
0.007821284
0.009451222
0.0066940025
5.216586E-4
-0.0028841018
-0.0036699246
-0.003442973
-0.0029028985
-0.0028379373
-9.741024E-4
0.0013462778
0.0021628407
0.0018248345
-9.027217E-4
-0.003592599
-0.0036013823
-0.0034335156
-0.003956133
-0.0032768084
-0.0012716369
0.0019178378
0.004867755
0.003522188
-7.702941E-4
-0.0033404855
-0.0033056936
-8.930059E-4
8.3627325E-4
0.0012382355
0.003537277
0.0055576772
0.0074772798
0.008352335
0.0030580908
-0.0012785956
-5.18181E-4
-0.0017733417
-0.003414929
-0.0018761863
0.0013448036
0.005423459
0.007212789
0.0041358965
-0.0011053997
-0.0036902975
-0.0040800786
-0.004715498
-0.0026573453
1.2763988E-4
-2.4734432E-4
0.0014009529
0.0042054886
0.0019445963
-0.0013099891
-0.0024847344
-0.004434734
-0.005579183
-0.0049162433
-0.0043229163
-0.0027735399
4.2143703E-4
0.0027157005
8.798531E-4
-0.003598263
-0.005734406
-0.006263827
-0.0064747236
-0.0037416648
-6.1267166E-4
6.752759E-4
0.0032345736
0.007004366
0.007421251
0.0018473779
-0.0029899206
-9.832482E-4
0.0011738096
-3.379118E-4
-2.2203298E-4
0.0023023805
0.0045547048
0.0061972337
0.0051677623
-1.1642922E-4
-0.004890719
-0.006182739
-0.005322528
-0.0019866389
3.148478E-4
2.1202562E-4
0.0036355911
0.008367171
0.007200397
9.6191926E-4
-0.004275887
-0.0041503003
-0.002304475
-0.002073724
5.703664E-5
0.0023410209
0.0030100667
0.0052589052
0.0043707644
-0.0013480202
-0.0054291557
-0.008378818
-0.009100803
-0.0049399803
-0.0016789944
-4.8807537E-4
0.0017822611
0.0032370791
0.0019106208
-0.0015713528
-0.0044780658
-0.00462183
-0.0030716278
-0.002764616
-0.0031812275
-4.426402E-4
0.003026474
0.004169553
0.0046601035
0.002399842
-0.0023222314
-0.004450241
-0.002849455
6.1032554E-4
0.003484745
0.0046285684
0.0055053313
0.0068910485
0.005813038
0.0011158234
-0.0033485102
-0.005125492
-0.0025590037
0.0012146484
0.0010493124
5.4268783E-4
2.516785E-4
8.1495696E-4
0.004557694
0.003622573
-3.6733306E-4
-0.0014677151
-0.0016181706
0.0014310457
0.0010419284
-0.004365342
-0.0019819406
0.004209477
0.005634373
0.0036580293
5.970633E-4
-5.3858483E-4
-0.0014964461
-0.0019218908
9.178754E-5
0.0011819733
0.002367101
0.0038418693
0.002899894
-3.9611015E-4
-0.004801534
-0.00670415
-0.0066762767
-0.0057496326
-0.002203359
3.8212415E-6
0.0012008395
0.0029280803
0.0016816604
-3.7329423E-4
-0.0032694645
-0.006269699
-0.0039450424
-7.9858024E-4
-1.0602076E-4
0.0014662041
0.003966194
0.007248106
0.007741637
0.0033529093
-8.8700827E-4
-0.0019886815
-2.9540647E-4
0.0019553776
0.0037151368
0.005645291
0.0072726426
0.008877312
0.007537055
0.0031333044
3.7872244E-4
-0.0020893048
-0.0034186724
-0.0021721292
-0.0024052646
-0.0019713219
7.591699E-4
0.0024041773
0.0022724026
-1.3431103E-4
-0.0038796389
-0.006212837
-0.0065408396
-0.0060781473
-0.004314168
-2.0597255E-4
0.0033143642
0.00507808
0.0050146244
8.238678E-4
-0.0034468991
-0.0037824044
-0.0030587513
-0.0024443516
-0.0012357384
0.0010198354
0.004411379
0.0075737895
0.008331846
0.0039115255
-0.0025630922
-0.0038645496
-0.0018948282
-0.0019072794
-0.0013513331
0.0019500846
0.0048866207
0.0055560097
0.0052113915
0.003361914
-0.001426752
-0.0046944222
-0.004716735
-0.005738123
-0.0044736373
7.6174294E-4
0.004300197
0.005924043
0.0052954326
0.0013119291
-0.0021432578
-0.003626383
-0.00424937
-0.0038037566
-0.00216561
1.0253102E-4
0.0037749202
0.006840118
0.0052693407
0.0031317559
9.1525004E-4
-0.0038372471
-0.003750678
-7.2195084E-4
-4.935168E-4
7.413465E-4
0.0028698181
0.0057270117
0.0064498303
0.0011585238
-0.0037582878
-0.005400712
-0.0048636803
-0.0026812148
-0.0013112421
1.5105083E-4
0.0015717113
0.0031339037
0.00437085
0.0014668916
-0.0026242773
-0.0038175585
-0.0028830487
-0.0024408083
-0.0043185526
-0.004372164
-3.6635945E-4
0.0044965562
0.0058118696
0.0015850945
-0.0026355097
-0.004179569
-0.004447997
-0.0019040855
0.001268674
0.003336262
0.005667286
0.0073806313
0.0066607576
0.0032824415
0.0010576927
6.9265487E-4
2.631466E-4
0.0019464463
0.002342293
-4.9546907E-5
0.00174243
0.0055072196
0.0049228226
7.426428E-4
-0.0040891008
-0.0059380815
-0.0053796326
-0.004672658
-0.0034008704
-0.0023723925
1.0367608E-4
0.0025591825
7.286189E-4
-0.0024815036
-0.0056072255
-0.0065794233
-0.0034332937
-0.0014253138
-1.9447927E-4
0.0018347405
0.0040804734
0.008372346
0.0092697535
0.0056648757
0.0024829481
-0.0013107641
-0.003158125
-9.3235594E-4
0.001576834
0.0029577909
0.0047508217
0.0068382975
0.006072319
0.0025335897
-0.0017193346
-0.0036086976
-0.0011968241
-0.002455079
-0.0068192747
-0.003988716
0.0012202759
0.0028357096
0.0031601982
7.016084E-5
-0.0053634346
-0.0063217967
-0.0041715894
-0.003714355
-0.0012690908
0.002694151
0.003804345
0.0051151267
0.0057224818
0.0038027165
0.0010550118
-0.0023088641
-0.0020099387
2.45212E-4
-0.0014730792
-0.0019418831
0.0022895988
0.0054076007
0.0050727003
0.0028449602
-0.003663947
-0.010112397
-0.0070876223
-9.130402E-4
0.0017192569
0.0038870752
0.005205341
0.006857523
0.0072049103
0.0035243481
-5.7615E-5
-0.0023858652
-0.0027262613
-0.0016609605
-0.0018012818
-3.895786E-4
0.002466552
0.0047568264
0.0050981683
0.0012839241
-0.0023308313
-0.003690384
-0.005609955
-0.0054988274
-0.0023348145
2.674219E-4
0.0013975202
0.0025135642
0.0031982383
0.0018688901
-4.669154E-4
-0.0020534587
-0.0023036366
-0.0016772505
-0.0022735493
-0.0024524804
0.0019211837
0.0072640767
0.0075952485
0.0038772272
-4.4165572E-4
-0.0028404135
-0.0036544346
-0.004345231
-0.0031641372
-5.13075E-4
0.0017024573
0.0033329367
0.004473142
0.0050317156
0.0015052916
-0.0038271844
-0.0051049027
-0.0045402176
-0.0014032464
0.0018191959
0.0013934571
0.0046223802
0.007609915
0.0043987907
0.0011247733
-0.0016633334
-0.0025516965
-5.508106E-4
5.140748E-4
9.099024E-4
0.0010287119
0.0029683122
0.0052656443
0.0032132324
-9.893501E-4
-0.0046323966
-0.003949908
-0.0012204911
-0.0034428255
-0.0048023425
-0.0022593872
1.8426002E-4
0.0026096243
0.0016797141
-0.0028008583
-0.0047181216
-0.0033548223
-0.004084031
-0.004388634
0.0013666205
0.002620633
-4.2424293E-4
0.0046797167
0.0071344892
0.002443133
1.06145235E-4
-0.0014695246
-7.458757E-4
5.8965455E-4
-3.6494603E-4
0.0027664818
0.006796361
0.007530975
0.005583613
-7.96713E-4
-0.0061697005
-0.006185858
-0.004531916
-0.00307018
4.0962914E-4
0.004612767
0.0047757844
0.0036902183
0.0039049364
0.0024122542
7.296125E-5
-0.0021019352
-0.0020931966
9.914671E-5
2.7735622E-4
7.347604E-4
0.0034217024
0.0062941527
0.0057086465
3.4536197E-4
-0.0017611255
-0.0016240379
-0.0032892434
1.8913159E-4
0.0029805296
7.013409E-4
0.0012390432
-4.639669E-4
-0.0045246542
-0.0019769918
3.5198286E-4
-0.004210396
-0.008303458
-0.0063750264
-0.0028663222
-7.0983986E-4
0.0036676761
0.006500753
0.0023527741
-0.002915741
-0.0050540604
-0.004939071
-0.0025700652
5.196398E-5
0.002493369
0.0050410363
0.0059721265
0.007299699
0.008988577
0.005171075
-9.435788E-4
-9.875131E-4
7.5614924E-4
3.9143412E-4
0.0015445892
0.0025646342
0.003820929
0.0058557624
0.003731792
-9.543474E-4
-0.0046865824
-0.0060319356
-0.0047190953
-0.00404253
-0.0033018403
-0.0011668165
0.0020879365
0.0050257896
0.0033450993
-3.7438942E-5
-0.0025378359
-0.0046771327
-0.0032124014
-0.001005124
7.3225165E-5
0.0013273024
0.0028641033
0.006049818
0.0044306847
-0.0012075349
-0.0031739757
-0.004658376
-0.0040292903
-0.0015166465
-0.0014185589
0.001454489
0.0056833583
0.007755198
0.007572326
0.0014284543
-0.0051622083
-0.0050715026
-0.0027342592
-0.0025063802
-0.0020026835
0.0010424171
0.0053167
0.008562974
0.007787929
0.0038853886
-5.193978E-4
-0.004594147
-0.004226884
-0.0012974883
-5.568596E-4
9.175468E-4
0.003622553
0.0057047745
0.005653479
0.0024818142
-0.0018456883
-0.005324463
-0.0048849066
-0.0027879844
-0.0029599795
-0.00210222
1.7630657E-4
0.0027688532
0.003939975
4.669784E-4
-0.0034280873
-0.004899244
-0.0058830925
-0.0052566426
-0.0022862877
6.8017165E-4
0.0024866422
0.0052317632
0.0063894764
0.0028490121
-9.384456E-4
-0.0027804177
-0.0029342338
-0.0014006218
-1.9800125E-5
0.0013066309
0.0031919824
0.0058345348
0.0065595317
0.0027434512
-9.079849E-4
-0.0013015259
-0.0014984977
-0.0020240105
4.204731E-4
0.0032591484
0.0027644613
0.0039244746
0.0047470685
2.149053E-4
-0.0032263775
-0.0039379555
-0.0044712126
-0.0038488088
-0.003585966
-0.0026615197
0.0019663353
0.0068046884
0.004856383
-0.0010318224
-0.0034494963
-0.005001501
-0.0066868006
-0.004843
-0.001887708
-4.9567956E-4
0.0016824619
0.0052686315
0.0054484042
0.0027629372
2.4277279E-4
-0.0031537963
-0.0036958137
-0.0026977751
-0.002280402
7.073936E-4
0.0013703934
0.002082725
0.0038126372
-6.1765575E-4
-0.0031488964
-0.0031321733
-0.00548479
-0.0032043452
4.6669444E-4
0.0029773049
0.0074668024
0.00883142
0.005869436
0.0028084505
-2.7714964E-4
-0.005936414
-0.008194542
-0.0030534898
5.623839E-4
0.0029974512
0.0063859653
0.006011645
0.00531667
0.0028989892
-0.0030530368
-0.005926562
-0.005564375
-0.0036143635
-0.001204028
4.4091492E-5
0.0016676318
0.0034084558
0.004450882
0.002240782
-0.0035713003
-0.0061213337
-0.0043709693
-0.0031473076
-0.002746414