-0.039298557
-0.043882743
-0.040756505
-0.036108214
-0.029798912
-0.02426046
-0.02091741
-0.01686402
-0.007798221
-4.9096276E-4
0.0052197566
0.02541335
0.057385717
0.07845366
0.07445816
0.07053132
0.078680225
0.06990238
0.044252798
-0.01762602
-0.10302203
-0.10847223
-0.053411845
-0.028830359
-0.021296734
-0.0142102055
-0.012788116
-0.018795105
-0.04226284
-0.071920015
-0.090135664
-0.0950104
-0.09589512
-0.09075431
-0.08482769
-0.068822816
-0.009718785
0.02409002
-0.011973203
-0.038191482
-0.053941395
-0.038458712
0.07636053
0.15664779
0.106161945
0.06731504
0.07377012
0.046040066
0.054360636
0.10477062
0.073707126
-0.0029737358
-0.028752496
-0.0056474134
0.03444204
0.05042984
0.04646966
0.04038613
0.031794667
0.03918935
0.032846667
-0.003314335
-0.03389983
-0.058250263
-0.0760606
-0.08870867
-0.101784095
-0.10395919
-0.103561446
-0.0984204
-0.07613007
-0.05155253
-0.042208716
-0.04449058
-0.04983353
-0.057732295
-0.072107084
-0.121117614
-0.16996251
-0.12121288
-0.02449642
0.023542052
0.046887297
0.06179906
0.07090621
0.089850776
0.09656427
0.08970074
0.0915378
0.09951243
0.1069141
0.10794847
0.07868266
0.03259122
0.027406972
0.046300735
0.042876
0.037291534
0.036648773
0.028192304
0.016115062
-0.001049759
-0.017921666
-0.028789852
-0.036260094
-0.048428316
-0.06850819
-0.0777791
-0.07229895
-0.0662627
-0.06291578
-0.059809066
-0.04488344
-0.014781138
0.004872996
-3.5200172E-4
-0.00994349
-0.008820749
-0.006433367
-0.0052270168
-0.0023700106
-0.0038232713
-0.007386758
-0.0102492925
-0.014176767
-0.0142312655
-0.0099345585
-0.0055248225
-0.003512146
-0.005062995
-0.0063970266
-0.0049307533
-0.0015199065
9.632071E-4
0.002250718
0.010944828
0.026901482
0.034320194
0.026244134
0.017021341
0.019697811
0.024603222
0.019125905
0.0067807026
-0.0015828811
-0.0010075613
0.0021368403
0.0072832727
0.014845109
0.014899534
0.013680046
0.017656077
0.017538214
0.0110906875
-0.0036838579
-0.019627942
-0.02482983
-0.024867902
-0.020695698
-0.013900118
-0.0116882
-0.01009115
-0.010177295
-0.014086139
-0.016038533
-0.019900111
-0.036288764
-0.05431537
-0.05034368
-0.033266407
-0.020236164
-0.0061161467
0.0075758537
0.017883044
0.025092203
0.029061738
0.034230772
0.032369897
0.023457216
0.019348279
0.013630319
0.001074931
-0.013464071
-0.0268633
-0.036114857
-0.03769459
-0.034009106
-0.035238035
-0.03309728
-0.018866118
-0.013557704
-0.020416059
-0.020592352
-0.015525311
-0.019593678
-0.038519975
-0.057462946
-0.063386716
-0.062225074
-0.045978807
-0.0064913756
0.026279643
0.030239766
0.03121741
0.05011766
0.07076304
0.08193222
0.088660374
0.08699869
0.07258097
0.04669048
0.009167911
-0.023791533
-0.03433538
-0.035711877
-0.044126887
-0.055817906
-0.059838645
-0.049533695
-0.035109483
-0.029417753
-0.034114063
-0.043784868
-0.04633542
-0.040889103
-0.03690795
-0.036136672
-0.03693929
-0.03591717
-0.029595455
-0.019442935
-0.009752376
6.002892E-4
0.012726539
0.018232277
0.021297468
0.028643603
0.031010268
0.02873468
0.025089487
0.02119319
0.024437161
0.037635002
0.056435604
0.063753515
0.056017984
0.043721326
0.020738257
2.5548847E-4
-0.0060112937
-0.019925488
-0.037325636
-0.03994382
-0.033700787
-0.026313998
-0.017828308
-0.004361221
0.0038263113
-0.004785037
-0.011178904
-0.008866776
-0.017701495
-0.03403365
-0.047665272
-0.06361816
-0.07770242
-0.084719025
-0.07931316
-0.054716762
-0.018980537
0.026346901
0.07627292
0.107387654
0.11257146
0.09879956
0.07518491
0.044922803
0.008588131
-0.016643167
-0.038548637
-0.072400086
-0.08121694
-0.04447726
-0.0013985474
0.021424836
0.038255453
0.043744683
0.018017469
-0.009733334
-0.021615447
-0.023788054
0.010521582
0.05155814
0.050052833
0.03915164
0.02661357
8.8374084E-4
-0.0033311069
0.015720231
0.026140215
0.014390797
-0.008995484
-0.04276568
-0.09009738
-0.10088319
-0.06702107
-0.041482624
-0.008981374
0.034895837
0.05646024
0.06896869
0.06444329
0.015047029
-0.06282644
-0.119837195
-0.11723244
-0.07144173
-0.01326169
0.034826886
0.05891835
0.07419326
0.08163441
0.08581583
0.095949456
0.09189234
0.085502185
0.08723075
0.07829346
0.056313194
0.0016228346
-0.07894663
-0.14708292
-0.19767073
-0.20206012
-0.15692073
-0.10124551
-0.012614344
0.07870603
0.111563876
0.13205175
0.13313937
0.095387496
0.06883277
8.3901454E-4
-0.10279667
-0.13623074
-0.122176535
-0.07467438
0.009450898
0.05644315
0.074683376
0.095317736
0.09162748
0.0720009
0.056146916
0.018093184
-0.064215615
-0.11596711
-0.07379643
-0.0043055997
0.04217615
0.07463637
0.089033306
0.087002315
0.07372273
0.045942243
-0.005083995
-0.06821385
-0.1040631
-0.08916169
-0.047303263
-0.033659574
-0.053953502
-0.0564457
-0.014863423
0.036653094
0.04511646
0.029481353
0.024244139
0.008820392
-0.007983139
-0.021887232
-0.050062682
-0.069771774
-0.06796261
-0.048953842
-0.02777974
-0.0068246587
0.04327925
0.105928235
0.15055813
0.1657051
0.1375161
0.09075192
0.041958272
-0.0049364576
-0.021930564
-0.01880936
-0.013870844
0.006525336
0.03476302
0.040064875
0.017165266
-0.0053388826
-0.002417984
0.023900276
0.04316836
0.04624719
0.065583
0.09051713
0.09156545
0.07798633
0.04704499
0.008612147
-0.013623958
-0.032963827
-0.05106963
-0.046550956
-0.01575456
0.023354074
0.046173304
0.04860108
0.040331498
0.024256779
0.0012959734
-0.026551962
-0.055678234
-0.08336667
-0.10840155
-0.12872586
-0.14148791
-0.14592822
-0.14530794
-0.13514891
-0.113387376
-0.087925784
-0.059075154
-0.028054837
-9.048066E-4
0.020884907
0.039875
0.05749649
0.069216825
0.07727145
0.086924724
0.10021882
0.12297572
0.1554394
0.1888219
0.21282673
0.24103643
0.2857337
0.33236432
0.3775647
0.36448294
0.23717156
0.083190024
-0.023929615
-0.0970558
-0.13583371
-0.15366898
-0.16424708
-0.17475271
-0.19123256
-0.20123784
-0.20841476
-0.2114789
-0.20931123
-0.20675002
-0.19896084
-0.1958155
-0.18371841
-0.15074247
-0.11171711
-0.06963189
-0.03280488
-3.274899E-4
0.023222338
0.042111978
0.06386927
0.06605419
0.07542937
0.07012184
0.06540858
0.19606425
0.31042075
0.23498532
0.14833373
0.11408985
0.073105045
0.05242013
0.031416196
0.014280323
0.011946374
0.0064073857
0.008913791
0.009870867
0.009211103
0.011992028
0.00805294
0.005205886
0.0017975545
-0.004366897
-0.012581005
-0.024433825
-0.032335054
-0.039757878
-0.047280587
-0.050635945
-0.05436162
-0.05880466
-0.05872682
-0.051814657
-0.043571524
-0.032924313
-0.019750196
-0.009882221
0.0010360833
0.008927082
0.011319362
0.01527287
0.017685877
0.021408238
0.028002918
0.032746084
0.036686584
0.038794708
0.041770786
0.044563923
0.043439846
0.043100797
0.039825533
0.029949732
0.018808225
0.009002367
0.002654201
7.493339E-5
-0.0049578245
-0.018230466
-0.03637256
-0.05274471
-0.06368617
-0.07136633
-0.07774636
-0.07487136
-0.06546489
-0.05236249
-0.050377186
-0.060524035
0.01810616
0.12892824
0.059600312
-0.060421865
-0.08956395
-0.119743414
0.0021231924
0.20437916
0.1616636
0.115615144
0.21327384
0.1720803
0.07956668
0.08129928
0.07448655
0.0661236
0.06265804
0.03870477
0.021030657
0.004736471
-0.008048143
-0.016826065
-0.027619652
-0.033055305
-0.04090517
-0.045781326
-0.046410795
-0.049347963
-0.04597303
-0.043707196
-0.04438375
-0.038629588
-0.03197623
-0.022363413
-0.00979195
-8.084744E-4
0.02706432
0.07594578
0.09793788
0.093193285
0.09041227
0.07414026
0.046822224
0.013677917
-0.02646383
-0.042054582
-0.04288683
-0.048983086
-0.04911259
-0.05240222
-0.054433703
-0.053255867
-0.052807752
-0.0436541
-0.038054653
-0.030179258
-0.022084573
-0.02201858
-0.0146247195
-0.019906016
-0.023977816
-0.033799242
-0.034917276
0.1024098
0.21326558
0.11471178
0.09341989
0.18586384
0.14761697
0.080796435
0.060171753
0.03242747
0.051830996
0.072191596
0.045141317
0.02208513
0.008551083
0.0029247322
0.005255417
0.0015508408
-0.0060485248
-0.016077332
-0.025519073
-0.034770615
-0.046814397
-0.05539446
-0.05806998
-0.06021101
-0.06595613
-0.07236841
-0.078137815
-0.08371415
-0.08684928
-0.09082676
-0.089933045
-0.07825492
-0.07073282
-0.064078756
-0.056413326
-0.060827427
-0.05695696
-0.06731178
-0.056436855
0.09100601
0.1892209
0.09067478
0.02915426
0.0037608156
-0.013785575
0.18075204
0.35766762
0.2749789
0.15713432
0.10618091
0.06561552
0.03817939
0.016831698
0.0021005387
-0.01447043
-0.02884432
-0.03942281
-0.052698173
-0.05975263
-0.07146135
-0.08108124
-0.091104984
-0.10135768
-0.100503385
-0.11332494
-0.1253597
-0.13899699
-0.1503826
-0.14543305
-0.1640812
-0.07191986
0.13810502
0.17748234
0.09242266
0.07024875
0.056725916
0.04531043
0.047494262
0.043047015
0.04428584
0.038616985
0.032335456
0.026388481
0.019186994
0.016770067
0.0024400225
-0.011860026
-0.020417698
-0.02974495
-0.032955028
-0.034970652
-0.030010996
-0.020385655
-0.012432635
0.001987825
0.016707463
0.030503279
0.043059394
0.05082484
0.057415426
0.058979
0.056143023
0.049615618
0.039779056
0.027356155
0.006434183
-0.017286321
-0.039881896
-0.061184373
-0.0756631
-0.083817996
-0.086616814
-0.086723454
-0.08525041
-0.08154393
-0.077680334
-0.07338714
-0.068395525
-0.060378138
-0.05954324
-0.057407133
-0.031506497
-0.029494321
-0.06693055
-0.08974055
-0.120900854
-0.13352658
0.0105371615
0.25389373
0.33581367
0.21044035
0.08646483
0.035533722
-0.0018947195
-0.020429784
-0.028775161
-0.036078744
-0.037740882
-0.04369423
-0.04311468
-0.04836184
-0.026317433
0.013642983
-0.021353574
-0.05410548
-0.063990206
-0.09818444
-0.009108693
0.10896723
0.057563074
-0.00898646
-0.0109342085
-0.02063207
-0.016026363
-0.004821027
0.001307975
0.013948277
0.021681862
0.029822364
0.03570354
0.03391708
0.030593108
0.02446436
0.016033644
0.0036042004
-0.013986104
-0.031270113
-0.04386672
-0.048459154
-0.049997102
-0.054558232
-0.052594837
-0.045948904
-0.04063616
-0.029747365
-0.026852421
-0.022391232
-0.0046775453
0.0017616898
0.03032719
0.06793814
0.038727853
-0.009452936
-0.028257411
-0.025649333
0.011224409
0.041602064
0.047733657
0.056253612
0.0581924
0.058734823
0.06191243
0.061422396
0.06410485
0.064048335
0.061125975
0.0570965
0.048476085
0.037334
0.022969207
0.007055371
-0.011367475
-0.030348359
-0.04692762
-0.06496936
-0.081346124
-0.094758146
-0.10735297
-0.11469561
-0.11496538
-0.11095972
-0.102412224
-0.088754304
-0.074486606
-0.057962444
-0.037287585
-0.0152973635
0.006806596
0.028659824
0.05363015
0.078599066
0.103663765
0.13080719
0.15613817
0.18451816
0.21183969
0.24228728
0.24425179
0.17103311
0.09244374
0.051013406
0.017604806
-2.2535177E-4
-0.032937523
-0.079242624
-0.1102749
-0.13809513
-0.15463533
-0.17116706
-0.18026955
-0.18274646
-0.18973848
-0.18836819
-0.19244887
-0.09487956
0.039611507
-0.011395174
-0.07541127
-0.08195474
-0.11099293
0.01815427
0.18411858
0.17102544
0.07446691
0.032076735
0.15905583
0.27692977
0.19235577
0.09801102
0.067338936
0.030722925
0.012574033
-0.001484451
-0.017453227
-0.024372125
-0.032093655
-0.04025861
-0.048150748
-0.06167509
-0.073348925
-0.08094046
-0.096544765
-0.09583058
-0.11005603
-0.1042292
0.043354455
0.149022
0.0913748
0.060293704
0.044009518
0.0036738652
0.0016831651
-0.006925831
-0.010722209
-0.007138819
-0.018719148
-0.01626837
-0.019935131
-0.02601062
-0.026644807
-0.035902426
-0.03901597
-0.04554876
-0.050481852
-0.04861868
-0.050493263
-0.045620184
-0.040041335
-0.032555137
-0.020552184
-0.01342244
-0.0036629492
0.004079011
0.008172697
0.014406758
0.018460026
0.023101034
0.023430046
0.015296514
0.0054350025
-0.0013647366
-0.0033532334
-0.00945268
-0.01693935
-0.018147817
-0.020096429
-0.019727508
-0.017863067
-0.016854731
-0.009180357
-0.0040490585
-0.0015600771
0.0014466847
-0.0017189994
7.67069E-5
-0.0054992926
-0.009027905
0.01847111
0.02652237
0.0035610728
-0.0042681186
-0.0057045287
-0.0063273883
-0.0037264973
-0.0049591498
-0.004144437
-0.0018821592
-7.0595543E-4
-0.0028022088
-0.0025178238
-0.0032150855
-0.00903115
-0.01481553
-0.026216747
-0.030095072
-0.037428044
-0.0214706
0.034592703
0.01838738
-0.014079512
1.18583055E-4
-0.024492493
0.06506986
0.230814
0.20736913
0.13005604
0.11935146
0.09483464
0.07904772
0.06325705
0.03832018
0.018914688
-0.0070560994
-0.028834313
-0.05078151
-0.074846536
-0.10242079
-0.12552086
-0.1331105
-0.13884632
-0.1382338
-0.13725586
-0.1342748
-0.12970254
-0.12884223
-0.124536574
-0.13230355
-0.069180526
0.024612598
-0.029096065
-0.099963754
-0.12230457
-0.15419646
-0.020938344
0.20468223
0.35893527
0.4782698
0.43651283
0.25435257
0.13673079
0.07154784
0.021765621
-0.004464672
-0.027001685
-0.04114983
-0.052879855
-0.06088945
-0.06555206
-0.07342435
-0.07863943
-0.08476692
-0.08981676
-0.0964648
-0.10444557
-0.10652701
-0.10760523
-0.10465641
-0.09896986
-0.09070742
-0.07671392
-0.062202428
-0.04088893
-0.0188353
-0.0010875877
0.020045375
0.039614916
0.058172114
0.07153066
0.07858497
0.08648891
0.08794207
0.08663893
0.08020724
0.067483634
0.059968274
0.050221544
0.042074878
0.03476459
0.024672575
0.019376855
0.008231833
0.0010688555
-0.008386327
-0.026460059
-0.035362847
-0.05719164
-0.034135785
0.041265495
0.024307072
-0.044545125
-0.07603622
-0.115344316
-0.1292583
-0.12438236
-0.15103784
-0.17075793
-0.17678297
-0.15573204
-0.086956866
-0.018340293
0.027418844
0.059573613
0.07961054
0.09164998
0.096852005
0.09790153
0.09624488
0.09462419
0.09146988
0.0837851
0.077774346
0.07044106
0.06003727
0.052831233
0.046944927
0.040106166
0.03306454
0.025818048
0.01635516
0.0044451766
-0.007722069
-0.022386324
-0.04151573
-0.06315214
-0.07953397
-0.08445104
-0.0830872
-0.078221954
-0.0660048
-0.050520267
-0.039642718
-0.026767269
-0.007004837
0.010151134
0.025565559
0.035138115
0.02687448
0.007023361
-0.016093608
-0.03041879
-0.041793026
-0.07110676
-0.08191098
-0.04776214
-0.011549124
0.007194087
0.017697625
0.021390142
0.025548266
0.026059436
0.011373004
-0.007533368
-0.0061754845
0.014012867
0.022844197
0.01819287
0.02205808
0.02969498
0.031694766
0.03062226
0.023623126
0.016580282
0.015381413
0.011670012
0.0070106615
0.0060374322
0.0038368034
0.0013100213
-0.0016895778
-0.006584481
-0.008348395
-0.008673541
-0.010152547
-0.01017173
-0.010072166
-0.009328994
-0.0072627724
-0.0059402985
-0.0043438748
-0.0043425728
-0.005575089
-0.0047619836
-0.0067813257
-0.010802008
-0.011695928
-0.012670216
-0.013557788
-0.014545643
-0.01772156
-0.019003846
-0.018230954
-0.017878065
-0.017900577
-0.017615853
-0.015038989
-0.012084722
-0.012112399
-0.013671878
-0.0129828155
-0.010970127
-0.011089
-0.012208857
-0.014974773
-0.016681459
-0.014517808
-0.01590876
-0.018515972
-0.019174432
-0.020011712
-0.014397764
-0.0069126748
-0.0025155628
-0.0033637169
-0.016838433
-0.02514609
-0.016261164
-0.0062219
-0.0030305388
-0.0034996967
-8.3518424E-4
0.0044420315
0.008495877
0.008913999
0.0017650813
0.0028072507
0.017527604
0.029815707
0.032761674
0.017838033
-0.0053978865
-0.023695914
-0.036893886
-0.030585038
-0.025057385
-0.035175864
-0.02685256
-0.016676005
-0.02644723
-0.02704472
-0.019063286
-0.016177857
-0.013646422
-0.011570623
-0.010269039
-0.00985778
-0.008945316
-0.0065589026
-0.004097551
-1.3140758E-4
0.0029574505
0.004867244
0.00780688
0.009394221
0.009724631
0.0092801675
0.009040998
0.010534286
0.009804527
0.005397295
3.5318616E-4
-0.0032173789
-0.004467838
-0.0065186317
-0.010161643
-0.01099087
-0.010211942
-0.0101477755
-0.008172535
-0.005071648
-0.003170274
-0.002248336
-0.0013601942
1.7209083E-4
4.0663875E-4
-0.0011135454
-0.0024725199
-0.0023788058
-6.438086E-4
-7.9770724E-4
-0.0026379863
-0.003948155
-0.007363751
-0.009901321
-0.008274662
-0.0058395793
-0.004519771
-0.0040012924
-0.0025923143
-0.0018411741
-0.002659077
-0.0019457404
-0.0010547469
-5.763086E-4
-0.0016878954
-0.003864049
-0.0011863535
0.0017431388
0.0018685207
0.0024273049
0.0015165007
0.002206351
0.0027432418
4.7777419E-4
5.869057E-4
6.1099854E-4
0.0012554339
0.0030232363
0.0026120974
0.004256922
0.0024319154
-0.0055558467
-0.008174568
-0.0037436017
0.0018371781
0.004055453
0.003542506
0.0046122316
0.006836221
0.008146416
0.0063732686
0.0023214323
-6.666863E-4
-8.3522697E-4
-0.0010653896
-0.007497714
-0.011252999
-0.004468335
7.26531E-4
4.480698E-4
-4.0632128E-4
-9.865509E-4
-0.0011710086
-0.0036617613
-0.0066171475
-0.0076825046
-0.007733634
-0.0043876073
3.416177E-4
0.003405882
0.0061545647
0.007465638
0.0066015813
0.0068824557
0.008425303
0.008154275
0.00757372
0.007741472
0.007988665
0.007140522
0.0029938994
0.0011467349
0.0014946182
-0.0024093376
-0.0052814363
-0.0047406545
-7.4616546E-4
0.006145488
0.0090631815
0.01029738
0.010099657
0.0087533
0.011132357
0.008628695
0.0048821536
0.00916669
0.008053383
-0.0028534003
-0.011786978
-0.012726343
-0.009102019
-0.007594562
-0.0092912605
-0.010812359
-0.009589902
-0.008220332
-0.005045179
-9.1670104E-4
-0.009051944
-0.017214421
-0.007984826
0.0010574546
0.0044011315
0.009774891
0.010450418
0.0069340095
0.0040968126
0.0031346518
0.002495973
5.9621286E-4
0.00465306
0.017334556
0.03376274
0.045919444
0.048758417
0.04954463
0.049602974
0.046137642
0.026042247
-0.030419834
-0.08085668
-0.0705279
-0.029636921
-0.007539667
-0.00903319
-0.012497745
-0.0032800252
0.0059957765
0.007265744
0.0041839764
-2.8020708E-4
-3.295335E-4
-0.00383119
-0.011422088
-0.009754677
-0.0038142812
5.215316E-4
0.0054033827
0.009589895
0.011363047
0.009548094
0.010868301
0.015050683
0.016469348
0.019191746
0.0151569
0.003914381
0.0045286664
0.014491184
0.016284145
0.0052810167
-0.002769774
0.0025042477
0.002007011
-0.007509382
-0.007909586
-3.918795E-4
0.007678707
0.011762556
0.011159499
0.011809854
0.01005126
0.0021496832
-0.0049456344
-0.004722733
-0.0011624539
-0.0045096967
-0.011096562
-0.01275973
-0.013037771
-0.012714341
-0.010394706
-0.009581431
-0.010903888
-0.013160589
-0.015697852
-0.012761169
-0.0028872776
0.0036458487
0.0068773977
0.01581979
0.02895854
0.038494542
0.036364507
0.030692356
0.031994544
0.03086653
0.026406405
0.011311121
-0.020040203
-0.026354821
0.0078045777
0.03640306
0.032753203
0.016913053
0.007759865
-0.008503315
-0.028886529
-0.027350495
-0.015078245
-0.009732565
-0.008661596
-0.009991572
-0.00947733
-0.011988769
-0.016252488
-0.011194644
-0.0056941058
-0.0048109354
-0.001625484
0.0025699476
0.0046478314
0.003887656
0.004228476
0.006256119
0.0054601133
0.004962725
0.0072677457
0.009505245
0.009980887
0.010021216
0.010447219
0.008387788
0.0066714194
0.008217349
0.00810879
0.0064378716
0.0049611484
0.0022817955
0.0018474862
0.0050474093
0.0073887417
0.008984398
0.012587765
0.015880724
0.017514588
0.01638421
0.012931916
0.015374028
0.014408268
-0.0058112447
-0.024242928
-0.022123426
-0.014238697
-0.009963388
-0.007968226
-0.00742211
-0.0061399424
-0.0045340564
-5.2963215E-4
0.0043728803
0.003701258
5.99955E-4
-6.283803E-4
-8.627892E-4
9.608096E-4
0.0036535028
0.004913822
0.0064939503
0.008030785
0.007779611
0.008670853
0.009282112
0.0067756735
0.005353603
0.0037637702
9.4809977E-4
6.089453E-4
6.258229E-4
0.0014312892
0.0024345615
0.0013434127
0.001945381
0.002846739
0.0029397043
0.0037871357
0.004452214
0.007088843
0.009288534
0.0094065275
0.010076583
0.008984871
0.008194834
0.008876988
0.007782274
0.0060227853
0.0022773368
-0.0023526296
-0.006062572
-0.011303388
-0.014107444
-0.014730533
-0.015594656
-0.012829895
-0.010048821
-0.008343198
-0.004031212
0.0014481635
0.008346606
0.013000283
0.013777821
0.016583607
0.02016227
0.022092797
0.023463529
0.022937791
0.021381753
0.020611152
0.017108673
0.007427022
-0.0021780145
-0.006122152
-0.008697771
-0.013451022
-0.01849188
-0.021363033
-0.023562182
-0.024007984
-0.02113817
-0.018203948
-0.012784126
-0.009436005
-0.010790991
-0.0076405974
-0.007879658
-0.008757327
3.191593E-4
0.009600688
0.024507081
0.0416185
0.049760997
0.058392186
0.05635182
0.04254655
0.036777712
0.031442713
0.015434026
-0.0064412574
-0.020240897
-0.021873185
-0.019299721
-0.014339141
-0.015968572
-0.01908739
-0.012096557
-0.009168444
-0.01196353
-0.0120047135
-0.01208784
-0.016418258
-0.02146032
-0.014517056
-0.0048940615
-0.001699328
0.004539526
0.01058018
0.019213924
0.027463773
0.025910664
0.02467198
0.022949833
0.020370537
0.019768797
0.01335228
0.0061295726
-8.2841597E-4
-0.010060913
-0.018283816
-0.024422659
-0.023716109
-0.022375686
-0.021816885
-0.016954632
-0.016925812
-0.01675934
-0.009277231
-7.683484E-4
0.0064274096
0.009241664
0.010714492
0.011817589
0.009325114
0.009373889
0.011115476
0.012690405
0.015596758
0.017865794
0.026453815
0.04308797
0.05594896
0.057979997
0.052994322
0.044215303
0.026385926
0.0050069904
-0.009363643
-0.02375658
-0.04079752
-0.050567534
-0.049981933
-0.043466784
-0.035966206
-0.02873139
-0.02461489
-0.024222702
-0.0200871
-0.013201455
-0.007479005
-0.0013970276
0.0011217797
0.0028975336
0.0075798314
0.010239369
0.014621564
0.01882105
0.015290039
0.011632659
0.013277414
0.015467948
0.01316372
0.009260956
0.011050811
0.010510613
0.0017020827
-0.0047892937
-0.005708239
-0.00288676
0.0034576005
0.01012513
0.016204985
0.020813458
0.023586718
0.024493545
0.022163818
0.018919012
0.01895817
0.025597671
0.03692793
0.05213202
0.0730331
0.0933906
0.10566888
0.1087452
0.10564657
0.09030561
0.056811694
0.02146565
-0.009797836
-0.043379445
-0.06733851
-0.07417064
-0.07286881
-0.075620264
-0.07763249
-0.06305073
-0.04275838
-0.037204925
-0.044009082
-0.045222502
-0.037499458
-0.034348056
-0.03337273
-0.035109766
-0.039215725
-0.029852413
-0.015724296
-0.003926301
0.009607608
0.01728072
0.027475307
0.04359988
0.05601331
0.06539506
0.07492797
0.08417586
0.08990079
0.09638279
0.10251518
0.10366026
0.101268716
0.091444075
0.07274978
0.040376503
0.017349541
0.024924323
0.02615979
0.01135868
-0.006101768
-0.017546115
-0.028943134
-0.057210773
-0.02803246
0.038090702
0.024477476
-0.005391404
-0.017747609
-0.05119602
-0.06844017
-0.082963884
-0.086399056
-0.066802055
-0.06895288
-0.076657236
-0.068250164
-0.0371235
2.3563195E-4
0.003825805
-0.017361369
-0.030165141
0.009529274
0.07296098
0.09676581
0.09854182
0.08367074
0.06778009
0.06121347
0.043640558
0.031827644
0.0142817795
0.0031400553
-0.013475117
-0.025806034
0.08842796
0.18649574
0.10510509
0.025992133
0.0014496768
-0.031102272
-0.0432467
-0.056529213
-0.062156532
-0.059561163
-0.06501423
-0.0616557
-0.06488175
-0.06457036
-0.063494764
-0.04951815
-0.009744077
-0.023625884
-0.054167815
-0.05476822
-0.08177077
-0.035547707
0.11230486
0.18968748
0.15487751
0.089794666
0.046719976
0.020174384
0.006307376
0.03327042
0.053258732
0.030440679
0.015381668
0.010809735
0.0038801248
0.002319258
-0.004836481
-0.012295644
-0.018333975
-0.02823959
-0.035414893
-0.042259395
-0.046062008
-0.044888772
-0.042630255
-0.03723154
-0.030909732
-0.021515613
-0.011284377
-0.0046534427
0.0041852403
0.009769822
0.012865208
0.017771492
0.018634083
0.021714998
0.02139283
0.013900741
0.009001888
-4.6628257E-4
-0.007334241
-0.009702618
-0.017899295
-0.020219527
-0.022653671
-0.025312012
-0.023211969
-0.02669917
-0.025843369
-0.025800092
-0.023051566
-0.0140775945
-0.016411833
0.016773261
0.0701673
0.065536544
0.04960969
0.053506132
0.046928324
0.044003166
0.041115955
0.033972785
0.03102799
0.025153916
0.020198932
0.017071396
0.015533165
0.01515977
0.014725238
0.01699541
0.017621398
0.018434694
0.0201544
0.023521045
0.030426519
0.03556796
0.041167583
0.0443473
0.044494294
0.044007376
0.03893404
0.033461858
0.02459319
0.011365278
-0.00544221
-0.024825241
-0.03888404
-0.054063752
-0.06614935
-0.076788366
-0.08967608
-0.09668816
-0.110117555
-0.11446394
-0.11708192
-0.122608915
-0.110764675
-0.12287567
-0.05259906
0.10628713
0.08990979
-0.01109267
-0.04286346
-0.08924214
0.0045865197
0.18031248
0.13263667
0.025320645
0.12197606
0.3201352
0.3843469
0.2700364
0.1481777
0.08631267
0.041491147
0.016411623
-0.0016943148
-0.017252883
-0.027637463
-0.04060327
-0.04886088
-0.059416804
-0.070452385
-0.07971203
-0.09129285
-0.09483389
-0.09766744
-0.10055907
-0.09779649
-0.097652875
-0.09286946
-0.084151395
-0.078463614
-0.06876388
-0.05609625
-0.04414251
-0.033364248
-0.022695748
-0.013007538
-0.006422866
4.3027598E-4
0.0029873238
0.0024043878
0.0033101381
-1.1646423E-4
-7.9749717E-4
9.386231E-4
-0.0019497352
-0.0034087964
-0.005259489
-0.005822725
-0.0056665256
-0.005736974
-0.0019977058
-0.0020073107
0.003246627
0.008846427
0.009336588
0.018402223
0.012893141
0.037217285
0.11141153
0.11853468
0.08194767
0.075677
0.059154302
0.06646322
0.095427565
0.08104607
0.056513324
0.041501958
0.025148818
0.0132847065
-0.0011663807
-0.014468582
-0.02769772
-0.041718137
-0.054331824
-0.07051148
-0.08444577
-0.09770357
-0.111584425
-0.12500088
-0.14161475
-0.15990134
-0.17992952
-0.18958497
-0.18721615
-0.17809366
-0.14564025
-0.098506376
-0.055821344
-0.019765265
0.008515382
0.038949776
0.06883448
0.09128999
0.10982849
0.11792913
0.120359495
0.121546544
0.116515934
0.111047134
0.104947105
0.09675684
0.08926037
0.079780035
0.068522535
0.057613168
0.045596078
0.028779496
0.010178146
-0.0050255954
-0.01966977
-0.03410075
-0.045678187