0.0019492859
-0.0010510971
-0.0024622842
-0.0014163811
-0.0053863768
-0.008151116
-0.0067784195
-0.004146655
-9.462765E-4
-0.0017304115
-0.0038280187
-0.0031695734
-6.7766116E-4
5.1291136E-4
-0.0010439428
-2.3920866E-5
0.0014168698
6.949195E-4
0.0025199505
0.0048872223
0.0046040183
0.0014853973
-6.643169E-4
1.5022825E-5
3.1958063E-4
0.0027668385
0.0037158492
5.682201E-4
0.002052746
0.005740531
0.0037821145
-0.001515919
-0.002431473
5.8222347E-4
-5.0917565E-4
-0.0040832614
-0.0041311774
2.700997E-4
0.0016741473
-0.0012836339
0.0015245428
0.0026237739
-0.001909047
-0.0016699375
-2.459176E-4
0.0010519852
0.0017585859
3.6017038E-4
-5.380398E-4
-0.0039566685
-0.0020107094
0.0016679419
-0.003904696
-0.0049865553
-0.0020481048
-0.0012124646
0.0018661093
0.0012889653
0.0016782422
0.006252224
0.008176803
0.0052288705
-0.004285401
-0.008792035
-0.0031254925
5.7115423E-4
0.0019220745
0.00582211
0.006946011
8.043147E-4
-0.002103722
4.3238397E-4
-0.0013842296
-8.1624824E-4
7.203691E-5
-0.0016175908
0.0031338148
0.0014817389
-0.0040888623
-0.0020930313
-0.0055502844
-0.006551933
-6.410004E-4
-4.6710772E-4
0.0015549395
0.0036055066
0.0018165605
0.003009844
0.0017950911
-0.0010289563
-0.0025578428
-0.002606286
3.908486E-4
-0.0019565742
-0.0028996964
0.0034011968
0.003559148
0.0025319273
0.0043443125
0.0036554118
0.0055640535
0.0040371246
-0.0024829363
-0.0025476739
7.4804464E-4
2.6580953E-4
-0.0013329611
-0.0013813834
-0.0023979764
-0.002095967
8.517351E-4
0.0029244684
0.005760342
0.0032355408
-0.0015005465
0.0019457194
0.0011592503
-0.0024031429
-5.996369E-5
-3.2336536E-4
-0.0039603217
-0.0061035124
-1.9009812E-4
0.0018068147
-0.0043307054
0.0030072904
0.0022202025
-0.011794054
-0.008612528
-0.0067805047
-0.004658777
0.010754247
0.007425672
-0.0068338867
-4.7824395E-4
0.013540015
0.01344149
0.0043008868
-0.0022104827
-0.005784229
-0.0036308765
-2.923286E-5
-0.0020841493
-0.0015930779
0.0040692063
0.008680059
0.0070356852
0.0040223766
0.007817269
0.01013681
0.0077427407
0.0034458623
-0.0068157213
-0.017364359
-0.018525021
-0.0135101015
-0.010120103
0.0011483621
0.017433772
0.010111544
-0.009101928
-0.009298468
0.0015743256
0.005695134
-4.2793035E-4
-0.0029959858
0.002431932
0.0010672751
-1.7100414E-4
0.0036915008
-0.0023629558
-0.009477591
-4.4438377E-4
0.0077608004
0.001723911
0.0036903962
0.008834776
-0.0051295236
-0.010689562
0.0060688774
0.013844706
0.003982066
-0.00653705
-0.007250137
-2.1584323E-4
0.007662303
0.0060248547
-0.007895743
-0.013695134
3.0225294E-4
0.015150785
0.01215309
0.0038974504
0.0062021078
0.0024030562
-0.0076756272
-0.009480111
-0.011243452
-0.00742797
-0.0029580984
-0.010348776
-0.009039237
0.0026960275
0.01156677
0.01158776
0.0041442146
0.003261534
-0.0038480617
-0.014509592
-0.011792937
-0.0060615316
0.010620555
0.012790559
-0.0071736597
0.0029014505
0.009692867
-0.0024158033
0.005084216
0.0032264572
4.1659724E-4
0.008813099
0.002007682
8.2334323E-4
0.0032621978
8.3029456E-4
9.5817866E-4
-0.007351108
-0.007120074
-0.0022342238
-0.005960262
-0.0021235608
1.2373162E-4
0.0015477109
0.005487037
7.548146E-4
0.001421183
0.0052123964
0.001009095
-0.0028948926
-0.006527732
-0.008348063
-0.004033269
0.0020769674
0.004126107
0.0036361492
0.0059912745
0.004469131
-0.001968
-0.0010328044
0.0023328688
-0.0023517432
-0.0055228057
-0.0015355545
7.4137707E-4
0.0010875309
0.0024012309
0.0024010227
-5.3058993E-5
-0.004049231
-0.0027979466
-9.304321E-4
-0.0041945474
1.3372384E-6
0.005412035
0.0015004385
-9.1315614E-4
-1.930974E-4
6.2053284E-4
-6.346584E-5
-4.4755475E-4
0.0033574887
3.500146E-4
-0.0052225664
-0.0022823191
-0.0012440402
-6.0853E-4
0.003800012
0.0053870003
0.0045398106
0.0018678594
0.001265419
0.0019356372
-6.900505E-4
-0.0017054812
-0.002327548
-0.0014134662
0.00326513
0.0040291627
0.0029268619
0.0036118533
0.0044795396
0.0015346231
-0.00479838
-0.003028544
5.1321974E-4
-0.001496324
-4.6698793E-4
-0.0011146562
-0.0028471064
-0.0019463095
-0.00403185
-0.0033115612
-8.9423766E-4
-0.0021252437
-4.7286117E-4
0.00377724
0.00363782
-0.0017471416
-0.0054220413
-0.0054251733
-0.0038870766
-8.064688E-4
-0.0010463117
-9.188449E-4
0.003573623
0.005679145
0.0038159424
0.0010552304
0.0038479918
0.0063285236
0.0027053705
0.0032938784
5.668003E-4
-0.0040320633
2.9389354E-4
4.5986264E-4
-1.5132112E-4
0.0021749137
3.453916E-4
0.0022348615
0.006085997
0.005954124
-4.6287247E-4
-0.005450369
-0.0018811349
-0.0026657619
3.775306E-4
0.0061299023
-8.699416E-4
-0.0027073803
-0.0040984172
-0.009352886
-0.0015368523
0.0019024484
-0.0021288174
-0.0022034745
-0.0043111998
-0.004707996
-0.0034180265
-0.0018890464
-0.001569735
-0.004069198
3.041456E-4
0.005716129
0.004772395
0.0017256276
-0.0019195395
3.3582293E-4
0.004041554
0.0031714705
0.0073436005
0.01109822
0.004618832
-7.8104604E-5
0.0014067936
7.9311855E-4
0.0015387194
0.0017324231
-0.0014722756
-0.0010665177
-0.002332606
-0.0033801484
-3.8144313E-4
-0.0012183939
-0.0010326613
-0.0013425427
-0.00398201
-0.0041993563
-0.008393025
-0.009507524
-0.00426133
-0.0021689034
-3.9519058E-4
0.0012511996
0.0026827923
0.006016552
0.006351742
0.0023072993
0.0010723476
0.003775412
0.001015426
-0.0021200706
6.75443E-4
9.1131084E-4
-0.0012351178
-6.3238817E-4
0.0020562976
1.5778697E-4
-0.0027934203
4.597742E-4
1.4941242E-4
6.205949E-5
0.001914616
-0.0010249906
-0.0023619118
-0.005245574
-0.0017309827
0.0060383105
0.004852515
0.005437898
0.0012849338
-6.2484184E-4
0.0017225498
-0.0049653864
0.0010891277
0.0015624223
-0.0024217789
0.00945482
-5.1502848E-5
-0.0018176663
0.010746685
-0.0031987454
-0.0051206737
0.0017579318
-0.0048894226
-0.007936718
-0.004842684
0.0058008158
0.0011238639
-0.0087272385
-0.0050030667
-0.0075291586
0.00434461
0.014535763
-0.003236531
-0.0116167385
-0.005592059
0.007893192
0.014741317
-0.0045361645
-0.016238885
-0.0051280567
0.0019415513
-0.0070914775
-0.012362041
-0.0011793302
0.0045552314
0.0054513463
0.011246222
0.010908866
0.006371434
0.0029185636
0.005102937
0.009802381
0.0076296604
6.373254E-4
-0.008698832
-0.006538895
0.006225714
0.009268692
0.009123781
0.008744546
0.007888319
0.009048581
-0.004548175
-0.017448341
-0.011836139
-0.0074580326
-0.009726007
-0.014472359
-0.0076128272
0.010031609
0.0058091595
-0.008143838
-0.014634695
-0.01771359
-0.001950404
0.008424481
0.002867649
0.005796772
0.0017677683
-6.4234395E-4
0.0046241363
5.728544E-4
0.0013385697
-0.004013709
-0.007154188
0.009387907
0.010176533
0.0057213395
0.010226685
5.8170717E-4
-0.0043288213
0.0015829281
0.0027307975
0.004147153
-0.0023919959
-0.010845499
-0.0024312828
0.0010700487
-0.0022878915
0.008179265
0.007184282
-0.0015076095
0.004527416
2.1097966E-4
-0.0015561075
0.012056032
0.011034149
0.0033605758
-0.0012870354
-0.0071629556
-0.008203308
-0.0074094557
-0.005599933
-0.0039806403
-0.0049959095
-0.005044998
0.0017053087
0.0063337227
-0.0012159058
-0.0028867978
-0.0019984017
-0.004743893
0.0025777
3.3679983E-4
-0.00889255
-0.0048160097
-0.0034360262
-0.0069980305
-0.004126179
8.8406727E-4
-9.159426E-4
-4.325635E-4
8.619052E-4
-0.0015725807
0.022349598
0.031932507
-0.0026852065
-0.005016572
0.008978558
1.3167581E-4
0.0032751663
-0.0015744369
-0.012869235
-0.0040922365
7.9619E-5
-0.004726792
-0.0069579356
-0.0061983755
9.791512E-4
0.01593312
0.024803799
0.012737718
-9.995903E-4
-5.20677E-4
-4.6748086E-4
-0.011249338
-0.021008585
-0.010767013
0.0075883046
0.0061642644
-0.003460623
-0.0036750268
-0.018634932
-0.018731173
0.029384144
0.027397506
-0.0094278455
0.009189241
-0.0037727295
-0.018629678
0.010266981
-0.024721136
-0.026650447
0.039993323
0.032682907
-0.010365396
-0.042022582
-0.03930156
0.0049485746
0.012402488
0.020535469
0.023979906
-0.003651041
0.027159339
0.041476704
-0.004243026
-0.012452449
-0.014597349
-0.020316755
-0.0091346465
-0.009987388
0.0040860577
0.019235078
0.0076097366
-0.0028769216
-0.005472133
0.0017680243
0.0062618847
-0.0018212243
3.0201857E-4
0.005761797
-0.0018587298
-0.013338298
-0.012554986
-9.743364E-4
-2.159933E-4
-0.004344923
-0.001774852
6.836959E-4
0.006227096
0.007598902
0.0016823339
4.7652613E-4
0.0017177309
0.004901022
0.008480587
0.006548887
0.0034494058
-5.488093E-4
-0.0050455173
-0.0063495813
-0.0046234503
1.3160697E-4
0.0014204392
-0.0020973145
-0.0016263981
1.5687504E-4
6.953539E-4
0.0029573885
-2.9783923E-4
-0.0052823913
3.0710748E-5
0.0021032516
-0.0030411028
4.2159323E-4
0.003378988
6.37318E-4
0.0015495039
0.0025120846
0.0048457524
0.005261962
-6.460925E-4
-3.7630534E-4
8.4632274E-4
-0.002386593
0.0011967815
0.0024175087
-1.17467214E-4
0.004301762
0.004059262
-0.002821494
-0.0049849492
-0.0031596567
-0.0037629013
-0.007104162
-0.005820383
-0.003480299
-0.0029503554
0.0011516296
0.0018497957
0.0012691958
0.0029413954
0.0023405356
0.006858761
0.009712986
0.005036947
0.004351471
0.0030849176
-9.6149265E-4
-0.0020848163
-0.0032605017
-0.001982715
0.0044177687
0.008465548
0.0029467756
-0.0025229284
-5.17285E-4
-0.0016885286
-0.0027340224
-5.9008214E-4
-0.0023046553
-0.0019180109
-0.0024251654
-0.0055963993
-0.004841255
-0.0055970685
-0.004325004
1.8949991E-5
0.0011626611
0.004111884
0.0049176835
0.0035149583
0.008115619
0.008849545
4.180752E-4
-0.004974114
-0.0020358104
7.1513926E-4
-0.0011451092
-3.2255636E-4
0.002947541
-6.752229E-5
-0.004406557
-5.302987E-4
0.0025705113
-6.649196E-4
-0.0022174108
-0.0038922415
-0.0017012861
0.006696877
0.005481231
-0.0016063958
-0.0035944295
-0.0033261569
-5.0181354E-4
0.0015028744
0.003022662
0.0066428287
0.0076843477
0.004053394
-0.0031853141
-0.0036073322
0.001835212
-7.912711E-4
-0.0023806046
0.002166369
0.0015222516
-0.0010561397
1.2529403E-4
-4.1138838E-4
-0.0032233952
-0.0012886171
-2.2008637E-4
-0.003887897
-0.0020394267
0.0013994722
0.0012363544
0.00226941
0.0020642884
-0.0015568335
-0.003873268
9.7033475E-4
0.002755473
-0.002651376
7.9396654E-5
0.003676596
0.0025836986
0.0036292898
0.0011874714
7.0223014E-4
0.0016446776
0.0010714536
0.0026071607
-0.0034672644
-0.0051998864
0.0029192497
0.0022489505
-0.0016204506
-0.0042985133
-0.00445319
3.7296122E-4
-0.0018143827
-0.0028788878
0.0036902274
0.003916206
-8.5259654E-4
-0.001308164
0.0029789219
0.005815854
0.0038833683
5.866963E-4
-0.0016752951
-0.0032643387
-0.0038829376
-5.4149615E-4
0.0016467473
3.3896902E-4
0.0031279554
0.0027786687
-0.0010773783
0.0015256921
0.0021566895
-2.9462168E-4
-6.7497813E-4
-4.8495733E-4
0.0035550504
0.003312145
-0.0029362002
-0.0018557858
-2.0597032E-5
-0.002224497
-8.5905375E-4
-0.001047046
-0.002031677
0.0010263454
0.002183608
0.0022488472
0.0031591358
0.0018098768
-3.6394806E-4
1.2591979E-4
0.0047208657
0.0042332043
-0.0035110386
-0.0047963667
-9.6759526E-4
0.0011437497
1.8111708E-4
-0.0022429985
0.0012102776
0.0010986385
-0.0052460344
-0.0054800212
-0.0032723967
9.097718E-4
0.001289302
-0.0052174786
-0.003965565
-0.0016137693
-0.00277164
7.284606E-4
0.006439125
0.01007533
0.0057702623
0.0021460159
0.0020920832
-0.0029915294
-0.0022526393
-2.6464692E-4
3.8798028E-4
0.006115931
0.0059395097
0.0061425013
0.005064713
0.0018245958
0.0076883323
0.002907096
-0.0079713985
-0.0044667223
4.8876647E-4
-0.0028878327
-0.010872167
-0.009495487
-0.0020362588
-0.006451259
-0.014934491
-0.014175084
-0.0066233804
-0.004603826
-0.0076228227
2.9331035E-4
0.01779685
0.020442737
0.009161451
0.021133438
0.031645797
0.0107113775
0.009426276
0.009299166
-0.027560823
-0.037218943
-0.0040913927
0.014291587
0.0075650536
0.0038926248
-7.7684276E-4
-0.008689835
-0.0032024796
-0.006856603
-0.013361503
-0.00593553
-0.0071666315
-0.0036241147
-0.0059997262
-0.02270151
-0.013558566
0.0028310833
3.4338422E-4
-0.0047857766
0.007328475
0.03173937
0.03899736
0.02138057
-0.0019027039
0.012376784
0.028989818
-0.0045696124
-0.014609942
-0.010766799
-0.025792671
-0.011518789
-0.0012462084
0.0026588368
0.0019347396
-0.01208265
-1.2257377E-4
-0.0060782824
-0.017048752
-0.014649472
-0.026429836
0.0055287806
0.01816923
-0.008371958
0.019939331
0.031294584
0.0069346107
6.013904E-4
-0.0025272004
-9.7173237E-4
-0.0023079386
0.009102779
0.01613616
0.002299793
0.018364033
0.024645464
6.404347E-4
-0.0048616426
0.00656348
0.0149770435
-0.01683935
-0.050525308
-0.035631996
-0.025649955
-0.014138435
0.0070699574
0.00602381
0.015598013
0.011779831
-0.01948247
-0.014099832
0.0029480394
0.0119198095
0.029353403
-0.007783636
-0.047716465
0.003747874
0.031095492
-0.018653946
-0.041082412
-0.018601967
0.01686986
0.040092036
0.020566078
-0.02426611
-0.0112045165
0.063893184
0.05760502
-0.0033309665
-1.0475111E-5
0.0040463046
-0.0108164
-0.0143474
0.004357326
0.029611895
-0.0067192013
-0.024168989
7.8615436E-4
-0.0038316876
0.012038928
0.0026738662
-0.028012834
-0.009345983
-0.0036217032
9.308497E-4
0.003829187
-0.012229441
-0.017569177
-0.027936863
-0.0039722044
0.016321415
0.0060904734
0.012549714
-0.032208215
-0.05346093
0.018202519
0.037259724
-0.007703523
-0.0088446615
0.03442741
0.023306776
-0.018604157
-0.008748389
-9.386481E-5
0.015540066
0.019474294
-0.010593751
0.013422023
0.0052398886
-0.05063109
-0.022615165
0.016578183
-0.005697809
-0.01624399
0.012828448
0.00816612
-0.01169199
0.031231934
0.072334304
0.06595314
0.012941682
-0.033938885
-0.012830225
-0.020679142
-0.029712241
-0.0015255103
-0.014674815
-0.0028550252
-0.0018045357
-0.033244994
-0.0044197063
0.009541306
0.004031172
0.0048673297
-0.0094944
0.003786679
9.882485E-4
-0.00980135
-0.011583717
-0.04273538
-0.029306127
0.0079743825
0.010655612
0.020272944
0.0155494325
-0.0013589109
0.0051858276
0.006922588
0.0038467525
0.020008339
0.020261118
-0.0023901185
0.003540258
0.010054399
-0.0057367943
0.003753486
0.013530513
-7.407203E-4
-0.0071725957
-0.003162707
0.0056183445
0.004707712
-0.010256088
-0.0125920465
-0.0052320207
-5.95589E-4
0.0019757652
-0.007139804
-0.0057351505
0.017269852
0.010965082
-0.016239641
-0.020018015
-0.013916498
-0.0012554063
0.0070186355
-0.0053989966
-0.010335909
-0.0028294276
0.004168305
0.006527886
8.2929194E-4
0.0026025085
0.011459005
0.004326203
-0.014394656
-0.012974934
0.00411042
0.007429456
0.0055569354
0.008509043
0.006978671
0.0017995028
0.0031126256
0.01263608
0.008930442
-0.0053232443
-0.0030090958
6.08605E-4
-0.009113766
-0.012034274
-0.006052266
-4.3630955E-4
0.0041997414
4.4013976E-4
-4.9292983E-4
0.009320817
0.0055416217
-6.933728E-4
0.0017806225
-0.003103812
0.0037826058
0.004193964
-0.014535849
-0.009715703
-0.0050995685
-0.0059022545
0.010134889
0.0027506473
-0.007090806
0.0070709297
-5.454151E-4
-0.021509683
-0.01352662
0.011311721
0.013578982
-0.0026956098
-0.0070868754
-0.0032145462
5.9707684E-4
0.0055366815
0.009378861
0.008352963
-4.5996E-4
-0.0032611715
0.0032124142
0.0064464356
0.002581636
-0.003754621
-0.0015677172
0.0055714576
0.011455414
0.0122249685
0.0030300482
-0.0025597343
-0.006731857
-0.0074596023
0.0051797032
0.0010684308
-0.012500019
-0.005021835
-9.430049E-5
-5.9577817E-4
0.001123881
-0.015799036
-0.02873223
-0.010978271
0.011226329
0.017840937
0.008839282
-0.0028162638
0.001367632
0.0034117727
-0.0019953852
0.005312736
0.005697277
-0.0046757343
-0.002188667
0.0037891679
0.006228815
0.0062019313
-0.0040849806
-0.016906926
-0.010856433
0.012779114
0.018584004
0.00555637
5.836447E-4
-0.0058478024
-0.01039975
5.5001414E-4
0.007947584
0.006308418
0.003730284
-0.0013058468
-0.0074633495
-0.009942268
-0.0012394025
0.008396089
0.001401798
-0.0075213383
-0.0044205883
-0.0022364708
2.0981854E-4
0.011989168
0.011652656
-0.008112156
-0.010774976
0.0055093076
0.0027883986
-0.010223485
-0.0025670894
0.0061343294
-0.0075556873
-0.010605186
0.005795168
0.002778976
-0.0040242374
0.0032277103
-0.0016201631
-0.0063711684
0.0010629697
0.01252602
0.023147881
0.010407097
-0.0068289232
-0.0048487973
-0.008819065
-0.01025846
1.1346008E-4
-0.0043306667
-0.015058446
-0.007403785
0.008931148
0.013644542
0.010014454
0.0061550164
0.0023245262
0.001953417
-0.0013851452
-0.010832053
-0.0138704
-0.0054728743
0.0047549205
0.009258538
0.0069205407
-0.006991942
-0.015083812
-0.0033106264
0.004384121
0.009333305
0.010912644
-0.0051819896
-0.008111275
0.004277303
0.00956409
0.011170565
0.0027448665
-0.0013876752
0.0033396229
-0.0071169427
-0.01131583
0.004616076
0.009721941
0.0039847246
0.004850781
-2.823616E-4
-0.0065443492
0.00389222
0.00888043
-0.0027849895
-0.015755601
-0.015322295
0.004087312
0.008007876
-0.008239074
-0.008154767
-5.8433277E-5
0.0020303566
-0.0034134842
-0.015034825
-0.015316483
-0.00332679
0.010576851
0.012417759
0.0017097569
-1.783276E-4
0.004202642
0.004200579
0.0024972975
1.11946305E-4
-0.0033159014
-0.0043593585
0.0022791368
0.003558817
8.0403086E-4
0.008099205
0.0062276362
-9.21041E-4
0.003903749
0.004267602
0.0029510795
0.0054278765
-0.002642197
-0.009575099
8.5711427E-4
0.008587916
-2.3190651E-4
-0.0018207419
0.006118464
0.0043476927
-2.5273988E-4
-0.0022494372
-0.0021548872
-0.001966171
-0.007038089
-0.0038614098
0.0034211113
-3.005808E-4
-0.0024773204
-0.0031620322
-0.0042284806
0.001999739
4.9070168E-5
-0.007678433
-0.004335981
-0.0016591313
-0.0027697466
-0.0018016156
-0.0035614742
1.9535338E-4
0.0086230915
0.0058371415
-0.0011269357
3.5254503E-4
0.003767895
0.0015952629
-0.001983107
-0.0039249333
-0.006001705
-0.0017777961
0.0041712574
2.48614E-4
-3.7310936E-5
0.0054546185
0.0036753006
0.004711409
0.0066714976
5.636733E-4
4.0443245E-4
0.0014753286
-0.005249696
-0.0057630837
-0.001300118
9.852187E-4
0.0040276684
0.0036959255
8.2820945E-4
0.0021505621
0.0043857233
0.0020855549
-4.8469585E-5
9.151834E-4
-0.0024971762
-0.0059180646
-0.0022527263
0.0022349234
0.005932815
0.0023964874
-0.006998605
-0.0057758293
-0.0032246152
-0.0044788206
0.0026084154
0.0058430806
-0.001149541
-0.0062331953
-0.00592528
-0.0015985664
0.0011296814
-4.8810305E-4
-6.270075E-4
9.1686344E-4
-3.3962277E-7
3.05705E-4
0.0031662707
0.0011384955
-1.06529615E-5
0.0043078903
0.0034253802
6.8355614E-4
0.0020851875
0.0038886296
0.0028694312
-0.0012801255
8.643193E-4
0.0041458393
0.0011818174
0.0029658736
0.002027764
-0.00401174
-0.004940324
-0.004684334
7.0527114E-4
0.0039138854
-0.0028257356
-0.005473853
-0.0068287635
-0.007871647
-0.0035924288
-6.8224216E-4
0.0031959158
0.006331926
0.0037906491
-9.714264E-4
-0.0023073456
0.0013593074
6.435669E-4
-4.029213E-4
0.002561163
0.0011388601
0.003837543
0.0086948015
0.0069695334
0.006473354
0.0045731375
0.0010406219
9.148885E-4
8.517812E-4
-0.001643332
-0.0058184955
-0.005562574
-0.0030283923
-0.0023444106
-7.1773754E-4
-3.4658494E-4
6.014847E-4
-3.99108E-5
-0.0027329002
-0.002550259
-0.0045426334
-0.0036308984
-0.0011412578
-0.0042145224
-0.005227494
-0.0058061318
-5.316572E-4
0.0058484143
-8.263603E-4
-8.207054E-4
0.0035862587
0.001445647
0.0056577823
0.0047285794
-1.32191335E-5
0.004318687
0.0062618554
0.00255903
-0.0021543645
-0.0020404244
0.0013429001
0.003055672
0.006094665
0.0033564009
-1.373353E-4
9.5308595E-4
-0.002709664
-0.0023089903
2.9114928E-4
4.4173395E-4
0.0062930537
0.005094869
-0.0024796822
-0.0032579876
-0.0026728518
-0.0017142232
-9.183746E-4
-0.0019161816
-0.00146995
-0.0022421253
-0.0027778924
-3.1697963E-4
-0.0015689462
-0.004248435
3.3151047E-4
0.0014103142
-0.0036296216
-5.833089E-4
0.0015559971
-0.0011272384
3.469669E-4
-0.0018125138
-0.0035933785
-3.147478E-4
0.001409639
0.004577785
0.0050645424
0.0026237844
0.0021899089
-1.6499238E-4
-3.46824E-4
0.0015107484
0.0020199115
0.0032091811
0.0010233745
-5.168797E-4
0.0027064867
0.0037564822
0.0018039055
2.2200159E-4
0.0011707749
0.004149844
0.0040316097
-0.0017686591
-0.0067078024
-0.0053052
-0.0040797475
-0.0027542682
0.0012557893
-0.0016953781
-0.004694952
9.964333E-4
0.0025961637
0.0018186764
0.0050203153
0.0036950207
0.0025687865
0.0032627715
-0.0033278537
-0.00572529
-0.001434067
-0.004115946
-0.003967929
0.0016977708
0.0012569651
0.0023981298
0.005219137
0.0019503738
-6.3714833E-4
2.5012737E-4
0.0010313496
-8.729284E-4
-0.0031902266
-0.0011718692
7.174182E-4
-0.0013343759
-0.0031533823
0.0011975274
0.008343188
0.006727565
0.002360079
0.0030449156
6.08313E-4
-0.0030226104
-0.0028153537
-0.0013115326
5.1347184E-4
-1.649651E-5
-0.0013240392
-5.9313903E-4
-7.281697E-4
-0.0011447116
5.036492E-5
7.4577425E-4
-8.006211E-4
-0.0030693559
-0.0031449338
-8.9992845E-4
6.2133383E-4
5.0187914E-4
-1.7190183E-4
-0.0014257318
-6.9305353E-4
7.7933917E-4
1.6561677E-4
0.002711093
0.0068423417
0.009008846
0.0103772
0.0071207625
0.0037337567
0.0018870559
-0.0031756135
-0.003911111
-0.0023578075
-0.0043499996
-0.0043905205
-0.0022487396
0.0021557505
0.0041891546
-0.002442875
-0.0054725125
0.0011577131
4.952242E-4
-0.009148433
-0.0073122163
0.0019317277
0.0032029205
0.002173879
-0.0013093414
-0.0052481676
-0.0018250115
0.0018571592
0.0056234184
0.0064437203
-0.0014143679
-0.004644327
-3.0637163E-4
0.0036834872
0.0039655203
0.0025313264
0.0054066386
0.0049379393
1.8920591E-4
0.0010921193
7.5991295E-4
-0.0036775437
-0.0034534428
4.1050135E-4
7.9638814E-4
-0.0021493197
-0.0047334703
-0.0036260316
0.0038343915
0.0060173017
-4.4811524E-5
-3.6755478E-4
9.426829E-5
-0.0014539228
5.7969836E-4
2.9059258E-4
-3.1059413E-4
3.4865225E-4
-1.7795638E-4
-4.177943E-4
-4.918381E-4
0.0024071203
0.0030953237
2.1590012E-4
6.4472173E-4
-3.1076386E-4
-0.0023386765
-0.0041655595
-0.0035357226
0.0053608567
0.007282704
3.887097E-5
-9.1326376E-4
4.3386655E-4
7.812036E-4
9.2465925E-4
0.0013306026
0.0028943697
-8.593888E-4
-0.003387068
-0.0010690601
-0.0028277729
-0.0029319283
8.319012E-4
0.0038264014
0.005308296
0.0011444333
-0.003063606
-0.004441097
-0.0066886023
-0.002825153
0.0035201106
0.0037128467
8.043423E-4
-0.0018016901
8.650043E-4
0.0035890874
-7.549439E-4
-0.0030471773
-0.0018834089
-0.0017736247
2.574069E-4
0.0050945515
0.007399578
0.004518906
0.0055808513
0.005153731
-0.0038497655
-0.005064894
-0.001323955
0.001935349
0.007377112
0.001337874
-0.0069519873
-0.00659146
-0.0023647142
0.005345238
0.002471117
-0.002766019
0.0020819758
0.001186921
-5.5540248E-5
0.0024020039
2.5691968E-4
-0.004463873
-0.0069369585
9.7498525E-4
0.00268633
-0.008240081
-0.006409912
0.0013479112
0.0040278225
0.008531837
0.0085119745
0.0019482716
-0.0022490395
9.904105E-4
1.1442688E-4
-0.005650863
1.279868E-4
0.0041281693
-0.0015526144
1.4591047E-4
0.005119886
0.003983773
1.38709765E-5
-0.0013167204
7.1589445E-4
0.0028858476
0.003895969
-8.5418974E-4
-0.004507531
0.0013581867
0.002415943
-0.0032654556
-0.0036874204
-0.0028786466
-0.0010179721
0.0026710199
-0.0014719625
-0.0052780807
-0.0012550526
-8.133027E-4
-2.5992971E-4
0.0025611508
5.3679778E-5
-9.587747E-5
0.0016946094
4.800635E-4
6.3907367E-4
0.0021593461
0.005154921
0.004100818
-3.5483876E-4
8.3938945E-4
0.0015156129
0.0014911474
0.0038626073
0.0011332675
-0.0021521922
-1.4425565E-4
0.002184427
0.0016009576
-1.7464129E-4
-0.0018615999
-0.0033502912
-0.0013032783
0.0030908445
0.0042619724
6.1801285E-4
-0.0033273136
-0.003578814
-0.004587669
-0.0033070405
0.0010155739
9.161157E-4
0.0028312332
0.0044690254
4.9255684E-4
-0.0011241043
0.00109329
0.005432389
0.0030236277
-0.0024368363
2.0539755E-4
-0.0018921385
-0.0042470386
0.0015353655
0.004974797
0.0036402135
-0.0034982646
-0.0032500895
0.0038299006
2.738758E-4
-8.5811707E-4
0.002156858
0.0030211634
0.004468806
-3.8332303E-4
-0.0010113685
0.0026179051
9.6118497E-4
0.002026536
0.0026003893
0.0017746536
-0.0011533273
-0.0063294163
-0.0026089083
0.002328991
0.0024927517
0.0010036135
-0.0014794944
-2.8350856E-4
-0.0028622986
-0.004156487
0.005179294
0.007752379
-9.158891E-4
-0.0056932443
1.3752704E-4
0.005629997
0.0018840997
-0.0016814235
-0.0018322797
0.0010240204
0.0040456895
0.002263318
0.003182461
0.0024910695
-6.734148E-4
0.003288107
0.0038722465
-0.0028461807
-0.006840943
-0.002445919
0.0046355017
0.0022607085
-0.0037989095
-0.005592319
-0.0014491867
0.004719079
0.0019261725
-0.0019295493
-0.0037035204
-0.0021646882
0.0060689813
0.0014141451
-0.0013248042
0.008428739
0.0037951644
0.0010025145
0.005160165
0.004953166
0.009454916
0.0031663808
-0.0036495035
0.002054417
-0.001332961
-0.0041059465
0.0014755893
0.0033894738
-7.0488953E-4
-0.0059421677
-0.0057526543
-0.006447695
-0.0055758697
0.0014763435
0.0038642564
0.0014598923
-0.0024434177
-0.0020789783
0.0050295005
0.005634124
3.2246046E-4
-1.06777145E-4
0.002064512
0.0034060208
0.00364407
8.103267E-4
0.0034541918
0.008324529
-0.0013496294
-0.0068732905
-0.0013502251
-0.0027978588
-4.3187157E-4
-3.7406685E-4
-0.006279926
0.0015162779
0.0062110987
-0.0026206586
-0.0011718596
0.011411565
0.005938336
-0.011521288
-0.011439148
-0.004002073
6.837183E-4
-0.0016511614
0.0014738234
0.020248285
0.01665318
0.010445313
0.0045598154
-0.0102526685
0.020888727
0.017361855
-0.010423478
0.03508331
0.014069343
-0.03790278
-0.008039246
-0.027553944
-0.0486333
5.651042E-4
0.010575363
-0.011609347
-0.0030540137
0.043626707
0.06879368
0.02120094
-0.037167206
-0.06010617
-0.044118945
-0.0027512996
0.01828442
0.014284618
0.007656183
0.00910608
0.0101534445
0.0015668116
0.002102847
0.012671533
0.016822526
0.013895857
0.007795656
-5.580485E-4
-0.008955555
-0.012632856
-0.013084313
-0.0068821255
0.004546734
0.00886658
0.008130446
0.0024941894
-0.005739997
-0.0072572273
-0.0016514796
0.005381413
0.0011819937
-0.0010343501
0.00964699
0.009071069
0.0015075448
0.001316805
0.0024170666
0.0020863006
-0.0013763736
-0.0010564893
0.002195246
0.0012640102
7.972439E-4
5.3406914E-4
0.003472618
0.009598523
0.007544781
-0.0013825644
-0.005616345
-0.0038604734
-0.00384376
-0.003587977
-0.001429021
-7.5299095E-4
-7.357598E-4
-0.002559977
-0.0026789017
-0.0016686382
-7.0218317E-4
0.005064577
0.006197314
0.0014509354
-0.0014743456
-0.0011547856
0.0029567175
0.001351988
-0.0033364503
-0.0022359248
3.5647926E-4
0.0049530203
0.00483497
0.001948765
0.0056997524
0.004802369
0.004019729
0.0073435563
0.0023550703
0.0012798281
0.006863294
0.00500557
-4.0132838E-4
-0.0028423462
8.1641495E-4
0.0071011833
0.008032807
0.0042269942
7.85811E-4
0.0038229532
0.005508191
-0.0020558601
-0.0057769385
-0.0038645878
-0.0017892184
5.147389E-4
-0.0044047157
-0.0076564355
-0.0027927158
-0.0033326452
-0.005069684
-0.0031145008
-3.2220138E-4
0.002908709
-7.643981E-4
-8.61234E-4
0.0037369959
-0.0018597466
-3.3824617E-4
0.00923753
0.0070877853
0.00330882
0.0036601298
0.0022983877
-4.5162832E-4
-9.2134747E-4
0.0031899577