0.01202566
0.015898177
0.019346079
0.020961333
0.024701735
0.025754627
0.025955817
0.028920094
0.028645353
0.02336923
0.016227778
0.007639521
-0.0013605694
-0.006610725
-0.008586968
-0.008675748
-0.005923308
-0.0015473862
0.0016817763
5.8809674E-4
-0.0016590612
-0.0018848837
-0.004552664
-0.008458439
-0.0124020325
-0.017478244
-0.02094757
-0.024038743
-0.02760829
-0.032980952
-0.037092783
-0.036411922
-0.036530804
-0.035389945
-0.03306474
-0.028865868
-0.016935239
-0.005315315
0.0021854814
0.007053193
0.0074025686
0.005288009
0.0034037805
0.0093315365
0.017723482
0.019250631
0.019858802
0.0171986
0.011947274
0.007921595
0.0040280297
0.0040932368
0.0058526304
0.012587044
0.023030069
0.030185001
0.037558544
0.041849095
0.044118106
0.0407818
0.032272596
0.024930088
0.007980623
-0.0040933113
-0.016198387
-0.036624014
-0.04819952
-0.07071447
-0.04237064
0.028673418
-0.0039549666
-0.061545957
-0.06998237
-0.09322135
-0.053121388
0.0076544993
-0.024053562
-0.0660403
-0.08462501
-0.11376605
-0.14345358
-0.1390133
-0.07549472
-0.011125365
0.022631127
0.051814742
0.0705227
0.080735564
0.08762174
0.086305864
0.074758336
0.063686386
0.0668001
0.06488361
0.05866206
0.059367765
0.055399258
0.05411143
0.050847355
0.040070295
0.031594284
0.018660428
0.006413641
-0.0017889368
-0.011848137
-0.018136978
-0.022739723
-0.027039919
-0.029591812
-0.03228046
-0.0344064
-0.03566566
-0.033368286
-0.026467683
-0.016373424
-0.006843285
9.3630754E-4
0.0093170395
0.013497383
0.013975687
0.012728139
0.007158718
0.004160846
0.0038178337
0.001366201
0.0010593719
0.004802157
0.0112228785
0.016967582
0.018962601
0.018386107
0.017833684
0.018968705
0.020722477
0.021518122
0.021385426
0.01960581
0.016749851
0.011841674
-9.793253E-4
-0.020519383
-0.039217282
-0.054655615
-0.059777908
-0.055514585
-0.05163959
-0.04627366
-0.040278863
-0.03274973
-0.024621818
-0.022126412
-0.01836034
-0.014659205
-0.013005014
-0.009514392
-0.0047125123
0.0046439203
0.01268372
0.023919785
0.03561718
0.038934406
0.05283553
0.06900452
0.08697272
0.115932964
0.14071411
0.18302728
0.19914156
0.12865499
0.030487627
-0.03778088
-0.032420263
-0.0063625216
-0.06526213
-0.12010555
-0.13862263
-0.15548262
-0.057794914
0.058517493
0.020350644
-0.05133569
-0.07227958
-0.08769542
-0.09004438
-0.08706118
-0.08268857
-0.06845315
-0.057626516
-0.04592552
-0.041663833
-0.044233274
-0.040760074
-0.045341592
-0.042651054
-0.042265795
-0.051554125
0.021712396
0.12823655
0.11207631
0.046787847
0.02792239
0.0059222053
-0.007901874
-0.0050808103
-0.011862133
-0.008145935
-0.008527842
-0.00980561
-0.0017128063
-0.012937725
-0.014261876
-0.028459907
-0.039641313
0.079609975
0.18973738
0.12528887
0.047095645
0.025601858
-0.0012243086
-0.015562573
-0.029124498
-0.040751204
-0.038087867
-0.040814944
-0.036875006
-0.030237785
-0.02696687
-0.017710997
-0.014506245
-0.014846676
-0.0208169
-0.03219012
-0.035548348
-0.04150524
-0.047167905
-0.048545178
-0.05252657
-0.04823303
-0.045113914
-0.045393944
-0.03837114
-0.034569193
-0.023313103
-0.01272132
-0.0093961805
0.006698041
0.0038818908
0.027169686
0.12106259
0.14594908
0.08938311
0.063653685
0.040887278
0.033211835
0.055406984
0.037151564
0.009242563
0.0012469628
-0.011426691
-0.016668912
-0.023310002
-0.029611003
-0.030327942
-0.03497529
-0.033055067
-0.036999997
-0.04131323
-0.040323842
-0.0494569
-0.054954465
-0.06490029
-0.07264719
-0.087477386
-0.08149179
0.03608792
0.09213718
0.0027221816
-0.02886952
-0.058608536
-0.034166355
0.14042404
0.16639431
0.107229546
0.1417946
0.09119904
0.031073451
0.035254966
0.012341037
-0.0028821698
-0.02183432
-0.031735826
-0.046393882
-0.057640444
0.036096036
0.092378706
0.031257484
-0.0041907337
-0.005490633
4.8195382E-4
-0.0049489867
-0.02819894
-0.030920558
-0.03284738
-0.03273099
-0.027523471
-0.026607377
-0.014163443
-0.006703071
6.417544E-4
0.011010088
0.015908279
0.025078071
0.026140869
0.024805935
0.022053739
0.013263401
0.008715479
9.6796325E-4
-0.0014786858
-0.00487221
-0.013786039
-0.013683319
-0.015372412
-0.012683515
-0.011405708
-0.014248419
-0.008405651
-0.005952496
0.0027337119
0.009189937
0.009737723
0.014351212
0.0053209728
0.003244641
-0.003470628
-0.016916126
-0.016285593
-0.035945676
-0.04064194
-0.051186167
-0.057841737
0.06563449
0.1620364
0.0970291
0.03350068
0.020190334
0.005611404
-0.006987108
0.033578217
0.098386966
0.07549955
0.031245261
0.022614017
0.009351767
0.014275077
0.007483687
-0.015400264
-0.028236637
-0.023264123
0.015898988
0.012310654
-0.029208478
-0.042712215
-0.05659337
-0.060090065
-0.05915465
-0.06274537
-0.056191385
-0.05804347
-0.051612258
-0.04954635
-0.051936883
-0.047697585
-0.054360826
-0.050701648
-0.06259409
-0.009453627
0.123420015
0.10571832
0.022770682
0.008201698
-0.031862717
0.04230235
0.18205646
0.14752823
0.06801197
0.047523562
0.025643798
0.015282898
0.009099761
0.005549085
0.011425365
0.011358187
0.008032892
0.0024659217
0.0012206872
1.3265213E-5
-0.007897448
-0.015048896
-0.034244217
-0.062639534
-0.07346481
-0.06499786
-0.053425923
-0.045522757
-0.03607453
-0.025343321
-0.019190995
-0.01479949
-0.007802889
-3.3698743E-4
0.0034941582
0.0046425234
0.0048786877
0.0035024292
0.0021378635
-0.0012020357
-0.0042557893
-2.8166352E-4
0.0034751412
0.0029163705
0.0031806105
0.0022475028
0.0012369704
2.2155158E-5
-0.0052257376
-0.008958389
-0.0100285495
-0.010415629
-0.0100091025
-0.013319606
-0.016836656
-0.017047467
-0.016305288
-0.01423476
-0.013566605
-0.013541684
-0.012039387
-0.009445138
-0.006039735
-0.0029178152
0.0034014084
0.007374362
0.0059779384
0.004332204
0.001260289
0.0018301919
0.0031697962
0.0011110917
-5.1721185E-4
-0.005800163
-0.006435428
-0.0043976624
-0.0050457236
-8.082192E-5
0.0019976303
0.0054915445
0.0104564745
0.010760954
0.014534572
0.0131203225
0.012641393
0.011044908
0.0040220437
-0.0011041663
-0.01835227
-0.025005702
-0.04059453
-0.05063952
0.037753507
0.09748469
0.037698355
-0.005595108
-0.02178784
-0.041741863
-0.04966318
-0.059469696
-0.07070509
-0.077806756
-0.026246607
0.026681798
-0.018823767
-0.06755572
-0.09708925
-0.121833734
-0.0737782
-0.014462999
0.010617932
0.02931678
0.037009843
0.044963215
0.047877997
0.04871034
0.05252505
0.047500394
0.047379512
0.045819968
0.042627823
0.04641897
0.043075986
0.037655707
0.03458106
0.032721736
0.030142251
0.023068242
0.016524272
0.0041308273
-0.0091214
-0.017266726
-0.02608573
-0.030249096
-0.035283122
-0.04014187
-0.04002549
-0.04169661
-0.03949999
-0.03677085
-0.034771577
-0.025903206
-0.01730603
-0.011308909
-0.006788374
-0.002652943
-2.9316493E-6
-0.0023641489
-0.0023494826
-0.0031670697
-0.007910782
-0.0088595
-0.010136659
-0.011229909
-0.009853715
-0.009847849
-0.006989985
-0.0027102905
-2.9281387E-4
0.0037956894
0.007337801
0.010717455
0.015700573
0.017102554
0.01636717
0.017761668
0.01743701
0.015067974
0.013783942
0.011589857
0.010960945
0.016046155
0.021048624
0.025009815
0.03280817
0.038084812
0.039314277
0.04214842
0.04212872
0.038308233
0.036558107
0.03673175
0.034553193
0.029477885
0.024614282
0.01793186
0.010212724
0.006532806
0.0033236057
-4.7060332E-4
-0.0013801204
-6.738726E-4
9.312217E-4
0.0034302087
0.00615229
0.007252873
0.0073065995
0.008212911
0.005284726
-0.0027048364
-0.0134225255
-0.027736263
-0.0424146
-0.05667905
-0.07267614
-0.086002566
-0.09585171
-0.10253102
-0.09758147
-0.08870223
-0.08987788
-0.08579047
-0.070226714
-0.05538352
-0.0384593
-0.021500943
-0.006337513
0.00951291
0.021297943
0.032900125
0.046542507
0.06275735
0.08020862
0.095779255
0.11751124
0.13754417
0.15624847
0.18011954
0.20083305
0.24043956
0.25490686
0.17292883
0.07096183
0.0057819546
-0.053647965
-0.09135423
-0.111133434
-0.13001312
-0.13571906
-0.13685048
-0.13684632
-0.13522464
-0.13178994
-0.12271741
-0.11732397
-0.11040676
-0.099271804
-0.088308945
-0.07324695
-0.05986348
-0.04670109
-0.032975435
-0.02108642
-0.0060758786
0.009565745
0.022868231
0.02570318
0.024105195
0.030982694
0.041639652
0.06397113
0.08242234
0.08052478
0.06963931
0.048714858
0.047998942
0.058199868
0.037872672
0.006707717
-0.04959528
-0.09547106
-0.07681394
-0.044718217
0.030541735
0.116395794
0.09583384
0.05950813
0.057777215
0.044165257
0.058969077
0.06410799
0.03467596
0.021493671
0.006392611
-0.015511906
-0.03646965
-0.05717293
-0.056800418
-0.04846324
-0.040486105
-0.039499566
-0.056100026
-0.06419777
-0.062176056
-0.059743557
-0.05834684
-0.0638764
-0.06338522
-0.06061931
-0.04960923
-0.031173721
-0.030276068
-0.031433187
-0.043920796
-0.053384475
-0.045553368
-0.059771236
0.001284376
0.0919913
0.03254434
-0.026828775
-0.030895537
-0.048455592
0.06927191
0.18664749
0.120961286
0.05564607
0.045403924
0.027779905
0.024455583
0.019835187
0.0155092105
0.015427762
0.009920203
0.0064846473
-0.0014472433
-0.010859751
-0.01873553
-0.029096067
-0.03960377
-0.048575424
-0.051266436
-0.04595925
-0.034938592
-0.025195528
-0.017989537
-0.009906625
7.4030244E-4
0.01645777
0.02916824
0.040539842
0.048625827
0.048476413
0.045871712
0.033694524
0.025008844
0.0060430164
-0.0096708285
0.065938756
0.13596542
0.0793075
0.013160615
-0.0081271855
-0.027241837
-0.033205163
-0.040388905
-0.049439892
-0.051351067
-0.05946952
-0.06809652
-0.08500525
-0.1066761
-0.09425896
-0.0424992
0.0057519632
0.032029316
0.054664053
0.06752209
0.06799449
0.07133396
0.072541706
0.07382159
0.073777914
0.07017189
0.07003228
0.04907777
0.01956575
0.02437802
0.04570023
0.05974862
0.061609842
0.053392276
0.05175151
0.047473073
0.036926042
0.029107317
0.016111538
0.009103991
0.011181359
0.010815077
0.012185309
0.014498055
0.022897756
0.029085612
0.012694756
-0.007932533
-0.020722011
-0.047488783
-0.091801815
-0.12433669
-0.13692664
-0.15779619
-0.17153513
-0.14545228
-0.1081567
-0.08227278
-0.056592524
-0.035609316
-0.023232017
-0.012338787
-0.0016990193
0.012397411
0.03251669
0.05416949
0.076002896
0.09220636
0.10591485
0.12711734
0.1491199
0.17882918
0.21183215
0.2372795
0.2716662
0.25552598
0.14726898
0.048917394
0.0022625152
-0.032046106
-0.054257885
-0.07778733
-0.1023712
-0.11251523
-0.12335439
-0.13453175
-0.13945492
-0.13843101
-0.12792559
-0.114041895
-0.09859303
-0.08318557
-0.069988474
-0.0549752
-0.041754164
-0.031413484
-0.021496888
-0.0066170576
0.018809136
0.04288395
0.05919514
0.07263325
0.08056363
0.08229994
0.079893924
0.07461512
0.06407991
0.048254397
0.03297941
0.015313267
-0.0046324627
-0.021526359
-0.03866135
-0.05157448
-0.05644587
-0.05324087
-0.04506133
-0.04683716
-0.047997884
-0.042032182
-0.042944342
-0.017013904
0.027410915
0.0184271
-0.015462574
-0.026195487
-0.047245502
-0.024387166
0.10529595
0.18044768
0.09907978
0.021310551
1.3027592E-5
-0.02686765
-0.017837502
0.0049859937
0.0020032441
0.010374402
0.021376977
0.031656254
0.04332033
0.044897605
0.04509594
0.034413923
0.018184181
-0.005304823
-0.039214857
-0.06554661
-0.09233261
-0.106142856
-0.10789522
-0.10555154
-0.08577717
-0.07242162
-0.052693397
-0.032120753
-0.025460497
-0.0047544395
-0.0024623352
-2.7138443E-4
-0.0015123566
-0.028641295
-0.026143638
-0.06933683
-0.062117614
0.10341785
0.12608346
0.012537616
-0.02952898
-0.07302407
-0.0010341156
0.19910194
0.23999575
0.13978131
0.09373451
0.08918963
0.052120242
0.0120191
-0.005424495
-0.01923171
-0.03087463
-0.046788596
-0.059293386
-0.07349155
-0.087871596
-0.09971022
-0.121196315
-0.048481405
0.06371343
0.022850137
-0.04929968
-0.050596245
-0.050380208
-0.02190916
0.013121953
0.0334926
0.05879401
0.06732655
0.073532075
0.0735086
0.0640751
0.052432906
0.029410195
0.024561668
0.028060485
0.031622678
0.06338735
0.093061715
0.0928396
0.06886157
0.034989856
9.2737144E-4
-0.0460307
-0.10055447
-0.13251963
-0.13455944
-0.14407171
-0.16539983
-0.14981909
-0.10704504
-0.07488544
-0.05532543
-0.039534416
-0.015473407
0.010675215
0.028952224
0.036893595
0.04213283
0.06067281
0.07726392
0.08708349
0.0920404
0.08229775
0.099053666
0.14072402
0.15318863
0.13336098
0.08562926
0.051608693
0.055910017
0.03554664
0.014034951
0.02552487
0.012462621
0.00697213
0.042458598
0.04798381
0.009680514
-0.04210144
-0.10035331
-0.13918978
-0.17234868
-0.22897601
-0.25027058
-0.23081914
-0.1969797
-0.06310482
0.07859256
0.07982319
0.08092434
0.1050984
0.0713465
0.055081032
0.0151837235
-0.042225115
-0.06197608
-0.10986789
-0.07291844
0.03452703
0.034916725
0.046427898
0.09234458
0.11086133
0.21340217
0.28732938
0.21151978
0.09915653
-9.283087E-4
-0.060589716
-0.062515706
-0.052184824
-0.04256941
-0.05709707
-0.09688501
-0.12571163
-0.13092457
-0.102081165
-0.055409953
-0.028510997
-0.03929841
-0.055608716
-0.034314826
-0.021991802
-0.03656245
-0.016175117
0.009825242
-0.009007588
-0.029147638
-0.0268613
-0.037991237
-0.049760286
-0.011478126
0.047469508
0.07665413
0.07736331
0.056953736
0.044811282
0.047897268
0.041811224
0.036927573
0.01696795
-0.013344059
-0.0052104606
0.0032438645
-0.029688882
-0.07091021
-0.08771632
-0.06244488
-0.015175734
0.018927915
0.03720253
0.047873035
0.06431237
0.08095532
0.08424116
0.08969806
0.08281298
0.036149923
-0.019137828
-0.049424555
-0.066606365
-0.09365226
-0.11120627
-0.076626875
-0.017330095
0.013805764
0.020198034
0.0012150898
-0.03860315
-0.075154245
-0.12532118
-0.17781235
-0.17553884
-0.11831663
-0.050789732
-0.005502838
0.01570283
0.029212333
0.040764533
0.05066242
0.056204926
0.06397418
0.08085829
0.08647328
0.076432504
0.069617555
0.06833057
0.06622062
0.06174987
0.06174655
0.06520148
0.06081904
0.047110505
0.024721332
0.0044934917
0.003203116
0.009021033
-0.003707682
-0.038653664
-0.07298019
-0.08861442
-0.09762466
-0.10990976
-0.10624521
-0.07966614
-0.05554539
-0.0434862
-0.034559526
-0.030753661
-0.03413602
-0.046910543
-0.05564284
-0.03371294
0.001959124
0.025097376
0.04849912
0.06826021
0.06595892
0.057576127
0.05659965
0.053191278
0.03497224
-0.013253043
-0.0571404
-0.0353615
0.017804977
0.048929144
0.07328692
0.08509858
0.07413743
0.042924598
-0.02214273
-0.07203318
-0.063416846
-0.047105446
-0.045427285
-0.037321705
-0.028290175
-0.019108051
-0.0065255966
0.0026482684
0.0022894216
-0.013179055
-0.026939359
-0.016108854
0.006004992
0.017536951
0.019073592
0.01586155
0.010887953
0.008754578
0.006528187
-1.5868264E-4
-0.003982459
-8.7180786E-4
0.0010424434
1.0265245E-4
0.0010802782
0.0019404055
1.90617E-4
-0.003683524
-0.008164887
-0.009050021
-0.008443785
-0.012185756
-0.014925157
-0.011603145
-0.0079409005
-0.006472837
-0.0047578705
-4.2229955E-4
0.00766548
0.0155304335
0.021605805
0.027648525
0.032611895
0.039491724
0.04664989
0.044682823
0.035756957
0.02669983
0.017694533
0.009264317
0.0016537937
-0.004590214
-0.007995578
-0.009353535
-0.009732951
-0.009201309
-0.005712037
0.0019555413
0.009317891
0.012827194
0.01563845
0.018739376
0.01806994
0.0129420655
0.0043284367
-0.0075040315
-0.020305196
-0.033838406
-0.048014395
-0.06091911
-0.07114572
-0.07787073
-0.08157387
-0.0770924
-0.06463128
-0.05628547
-0.050545372
-0.03935768
-0.020470276
0.0047856057
0.024168776
0.036601324
0.049917106
0.060468517
0.06885704
0.07602269
0.08035373
0.08773278
0.10496041
0.125639
0.1362596
0.15013866
0.17519213
0.19626713
0.21395846
0.19044808
0.09339802
-0.0026273073
-0.04250927
-0.058171272
-0.07570721
-0.10184015
-0.132461
-0.15535152
-0.17448023
-0.19724977
-0.21544442
-0.23249649
-0.23834594
-0.15163156
0.009444297
0.05597803
-0.024037112
-0.0549554
-0.03242495
-0.03410943
-0.03361401
-0.015543326
0.0043329224
0.024792062
0.043015435
0.061772596
0.080181964
0.09518406
0.106193736
0.110002734
0.11282409
0.11536247
0.118464455
0.12580071
0.1127989
0.07478644
0.042845342
0.018960664
-0.0038924676
-0.01959732
-0.030940708
-0.037215415
-0.038395394
-0.037784763
-0.03415918
-0.03175323
-0.0324768
-0.034058686
-0.03519775
-0.03649436
-0.042598248
-0.05004217
-0.055221207
-0.06028501
-0.0616913
-0.060078286
-0.05853438
-0.055859163
-0.052121405
-0.047193423
-0.041723315
-0.03480032
-0.023707885
-0.012474799
-0.0045845634
0.00372828
9.6971885E-4
0.00867979
0.07684017
0.10930366
0.030511929
-9.793096E-5
0.050646793
0.04866429
0.011822801
-0.0018047774
0.009063603
0.004116981
-0.0327266
-0.045228343
-0.076896705
-0.06809923
0.096373364
0.17927988
0.07919468
0.010907552
-0.0145634785
-0.043672584
-0.052965216
-0.07317519
-0.09150846
-0.1027781
-0.11641804
-0.106320485
-0.07265016
-0.034022514
-0.0093202675
0.0049248864
0.019829806
0.027713496
0.034055553
0.039598223
0.042005952
0.044662535
0.043547746
0.043873236
0.044474237
0.04396553
0.04734875
0.049067188
0.049720604
0.049006138
0.046699513
0.045991894
0.04046332
0.033085614
0.02740871
0.017216114
0.004113112
-0.00807354
-0.019766124
-0.031928647
-0.04153202
-0.04684004
-0.051106345
-0.054629993
-0.05591284
-0.0504384
-0.039194547
-0.030596226
-0.022222647
-0.013048947
-0.007937373
-0.0054447805
-0.0074155633
-0.0124527505
-0.014208105
-0.017573891
-0.01726509
0.003211082
0.030058
0.043032795
0.051450256
0.06036314
0.06664208
0.07356557
0.077885225
0.07992863
0.08266191
0.08149524
0.077677876
0.07574631
0.07248805
0.066168934
0.060866594
0.05528725
0.047213584
0.04055244
0.033882435
0.024799123
0.017730925
0.014651619
0.011693687
0.0044477917
-0.0029986398
-0.008351959
-0.01433204
-0.013973343
-0.013859359
-0.022429027
-0.021889197
-0.013133351
-0.010292161
-0.008390573
-0.008543886
-0.01285913
-0.019520205
-0.030145327
-0.04131809
-0.05524352
-0.06730426
-0.06567415
-0.060236685
-0.06051402
-0.05812603
-0.048904326
-0.03555737
-0.020194177
-0.006291341
0.0044603054
0.015525669
0.029070165
0.04430089
0.05987959
0.07471971
0.09035067
0.10423146
0.11025721
0.10833529
0.1020417
0.093548045
0.08393973
0.07759314
0.077038184
0.07875776
0.07649173
0.05521712
0.012778202
-0.027979765
-0.055221893
-0.070895776
-0.07928216
-0.08756943
-0.09058007
-0.085699975
-0.081501685
-0.07548578
-0.06528072
-0.05806394
-0.05709138
-0.05476847
-0.046358056
-0.03994213
-0.034036677
-0.025231287
-0.018609839
-0.011397512
-0.005245814
0.0030082685
0.017165735
0.025378332
0.023619995
0.014902391
0.0051007243
-0.0022704601
-1.9980768E-4
0.019391075
0.028193701
0.0077605885
-0.017806223
-0.019825825
0.005273994
0.025751399
0.036689527
0.048520166
0.049793374
0.051246315
0.04470284
0.022338787
0.008969687
8.3615415E-4
-0.008016997
-0.0120534375
-0.008015133
-0.008359475
-0.02253102
-0.022689546
-0.017939009
-0.01876202
-0.019066934
-0.031864278
-0.028840557
-0.021849198
-0.025357246
-0.023631303
-0.042652514
-0.047792118
-0.062018394
-0.070710205
0.061390907
0.16504696
0.08558918
0.01521673
0.0062885215
-0.016624857
-0.030883124
-0.033258703
-0.048424233
-0.062376674
-0.07530198
-0.09500845
-0.009218032
0.13324858
0.095008954
-0.0304182
-0.07277566
-0.09589074
-0.11608126
-0.12676738
-0.15434904
-0.13860424
0.033713043
0.22604163
0.17243141
0.042061575
0.0059104958
-0.040092297
0.028843746
0.1779859
0.16844328
0.09294389
0.051900692
0.016433332
0.0025415577
-0.010651566
-0.019041631
-0.0053365626
0.013169759
0.030540261
0.04342256
0.050297286
0.029009108
-0.023836369
-0.06899723
-0.10647677
-0.13698758
-0.120563574
-0.066851005
-0.028918836
-0.016356988
-0.00849348
8.5677754E-4
0.007065678
0.009324539
0.011498933
0.013872249
0.016125593
0.0144098755
0.010519118
0.013414942
0.014367701
0.011182838
0.011522858
0.013244651
0.015858531
0.014934025
0.016033547
0.017854668
0.014084874
0.01662079
0.016760303
0.014259101
0.012753013
0.007714707
0.013784899
0.0118597755
0.0055314186
0.0036925648
-0.008750703
0.022967335
0.07203446
0.05634648
0.011898787
-0.023176093
-0.014876826
0.032447286
0.040783875
0.019449605
0.018517377
0.036524314
0.043945853
0.025737705
0.012824098
0.012880269
0.015457991
0.014285298
9.09267E-4
-0.012798708
-0.026086872
-0.03545079
-0.039517283
-0.044705912
-0.044605684
-0.045570448
-0.045711875
-0.045984555
-0.045594223
-0.044125553
-0.051231526
-0.050508928
-0.054976605
-0.058933865
-0.06476498
-0.0639706
0.03472673
0.0850148
0.012841142
0.017697899
0.0034413598
-0.01210618
0.11478352
0.15119393
0.08124347
0.042893518
-0.0026553469
-0.04261488
-0.05188951
0.058403272
0.17448795
0.11141121
0.04882576
0.030869607
-0.0076769744
-0.016122997
-0.043485392
-0.0668099
-0.093770005
-0.09403298
0.04134876
0.121370934
0.054744914
0.0026131466
-0.023331
-0.042352203
-0.04681304
-0.04862765
-0.0437151
-0.041632097
-0.03424588
-0.02659022
-0.02319921
-0.014429685
-0.008958784
-7.173289E-4
0.0031737317
-0.0028736747
-0.0068741324
-0.011441811
-0.0095882835
-0.007036799
-0.013707055
-0.01718943
-0.016405769
-0.010575276
0.006503368
0.032944996
0.05635005
0.06921315
0.07571142
0.06918327
0.055721126
0.034471583
-0.01980952
-0.07715285
-0.086715125
-0.052122314
-0.005752984
0.016639987
0.016297475
0.014630267
0.007279866
-3.4346915E-4
-0.0069252183
-0.018013673
-0.026613286
-0.043234874
-0.048004728
-0.032316566
-0.02512134
0.014697798
0.07062763
0.06502468
0.04797194
0.04866938
0.03854063
0.048400592
0.058336828
0.03519104
0.011568187
-0.0074641304
-0.027975941
-0.03867894
-0.047102977
-0.056291915
-0.06405709
-0.07141269
-0.07409714
-0.07863515
-0.077626035
-0.062246136
-0.04864114
-0.03357431
-0.024983503
-0.02439483
-0.017553346
-0.03909486
-0.0195478
0.07857286
0.074662544
-0.0022105982
-0.018500468
-0.045445863
0.011643287
0.18310012
0.21837848
0.13620174
0.09750041
0.07310581
0.04967008
0.03932471
0.031771835
0.03095878
0.021849168
-0.014005136
-0.07916562
-0.11293001
-0.08425532
-0.07587749
-0.09109358
-0.090638824
-0.09861039
-0.06555344
0.001970454
0.0035668905
-0.019293403
-0.011975982
-0.02075301
-0.03646384
-0.023448104
-0.0035035291
-0.01678001
-0.054277934
-0.07659728
-0.11586435
-0.15628916
-0.049313515
0.16611551
0.24438469
0.16381635
0.08192699
0.03687151
0.028671818
0.04869229
0.030224396
-0.011541468
-0.010492514
0.012261288
0.010111059
-0.0132030435
-0.023909098
-0.0037846658
0.025816957
0.0455294
0.061256148
0.065609284
0.052940995
0.036137056
-0.009969417
-0.097783156
-0.15661822
-0.13609448
-0.075207554
-0.038698923
-0.039298557
-0.043882743
-0.040756505
-0.036108214
-0.029798912
-0.02426046
-0.02091741
-0.01686402
-0.007798221
-4.9096276E-4
0.0052197566
0.02541335
0.057385717
0.07845366
0.07445816
0.07053132
0.078680225
0.06990238
0.044252798
-0.01762602
-0.10302203
-0.10847223
-0.053411845
-0.028830359
-0.021296734
-0.0142102055
-0.012788116
-0.018795105
-0.04226284
-0.071920015
-0.090135664
-0.0950104
-0.09589512
-0.09075431
-0.08482769
-0.068822816
-0.009718785
0.02409002
-0.011973203
-0.038191482
-0.053941395
-0.038458712
0.07636053
0.15664779
0.106161945
0.06731504
0.07377012
0.046040066
0.054360636
0.10477062
0.073707126
-0.0029737358
-0.028752496
-0.0056474134
0.03444204
0.05042984
0.04646966
0.04038613
0.031794667
0.03918935
0.032846667
-0.003314335
-0.03389983
-0.058250263
-0.0760606
-0.08870867
-0.101784095
-0.10395919
-0.103561446
-0.0984204
-0.07613007
-0.05155253
-0.042208716
-0.04449058
-0.04983353
-0.057732295
-0.072107084
-0.121117614
-0.16996251
-0.12121288
-0.02449642
0.023542052
0.046887297
0.06179906
0.07090621
0.089850776
0.09656427
0.08970074
0.0915378
0.09951243
0.1069141
0.10794847
0.07868266
0.03259122
0.027406972
0.046300735
0.042876
0.037291534
0.036648773
0.028192304
0.016115062
-0.001049759
-0.017921666
-0.028789852
-0.036260094
-0.048428316
-0.06850819
-0.0777791
-0.07229895
-0.0662627
-0.06291578
-0.059809066
-0.04488344
-0.014781138
0.004872996
-3.5200172E-4
-0.00994349
-0.008820749
-0.006433367
-0.0052270168
-0.0023700106
-0.0038232713
-0.007386758
-0.0102492925
-0.014176767
-0.0142312655
-0.0099345585
-0.0055248225
-0.003512146
-0.005062995
-0.0063970266
-0.0049307533
-0.0015199065
9.632071E-4
0.002250718
0.010944828
0.026901482
0.034320194
0.026244134
0.017021341
0.019697811
0.024603222
0.019125905
0.0067807026
-0.0015828811
-0.0010075613
0.0021368403
0.0072832727
0.014845109
0.014899534
0.013680046
0.017656077
0.017538214
0.0110906875
-0.0036838579
-0.019627942
-0.02482983
-0.024867902
-0.020695698
-0.013900118
-0.0116882
-0.01009115
-0.010177295
-0.014086139
-0.016038533
-0.019900111
-0.036288764
-0.05431537
-0.05034368
-0.033266407
-0.020236164
-0.0061161467
0.0075758537
0.017883044
0.025092203
0.029061738
0.034230772
0.032369897
0.023457216
0.019348279
0.013630319
0.001074931
-0.013464071
-0.0268633
-0.036114857
-0.03769459
-0.034009106
-0.035238035
-0.03309728
-0.018866118
-0.013557704
-0.020416059
-0.020592352
-0.015525311
-0.019593678
-0.038519975
-0.057462946
-0.063386716
-0.062225074
-0.045978807
-0.0064913756
0.026279643
0.030239766
0.03121741
0.05011766
0.07076304
0.08193222
0.088660374
0.08699869
0.07258097
0.04669048
0.009167911
-0.023791533
-0.03433538
-0.035711877
-0.044126887
-0.055817906
-0.059838645
-0.049533695
-0.035109483
-0.029417753
-0.034114063
-0.043784868