0.0056520826
0.006463576
0.0045065996
-1.2397963E-4
-0.0046455488
-0.0064552985
-0.0057278043
-0.0039926525
-0.0044871136
-0.0034266466
0.0010231304
0.0034196703
0.0031618725
8.0162444E-4
-0.0010416656
-5.053233E-4
-6.596839E-4
-1.5134316E-4
0.0012274261
0.002268225
0.0041845688
0.005362215
0.004789442
0.0016846613
-0.001732949
-0.0024737413
-0.003747153
-0.0041770907
-0.0017516251
1.6580995E-4
0.0019752264
0.0035370816
0.003131117
3.3335458E-4
-0.002877386
-0.00213233
-8.226195E-4
-0.0022106403
-0.001973549
-1.7592477E-4
0.0021258832
0.0039043564
0.0018359682
-0.0015218138
-0.0036978438
-0.0036426238
-5.72041E-4
1.2789982E-4
-6.172116E-4
0.0011580636
0.0011304626
6.947585E-4
0.0019709314
9.6696906E-4
-9.768213E-4
-0.0022481761
-0.001964054
-4.0743413E-4
-0.0011931128
-6.348486E-4
0.0027560773
0.0039032171
0.0037183643
0.0021369737
-0.0021433302
-0.004726479
-0.003537892
-0.0015740953
2.013416E-4
0.002453729
0.0031991175
0.0028278546
0.0023369119
-1.6961261E-4
-0.0018806872
-0.0012791705
-0.00201391
-0.0036618055
-0.0037361586
-0.0015199597
0.0016000204
0.0034251877
0.0033357688
8.429073E-4
-0.0022924067
-0.0033567888
-0.0026908556
-0.0011693661
-3.8653376E-5
-9.474241E-5
0.0012650971
0.004830879
0.0058328044
0.0027865379
-4.148212E-4
-0.0017859229
-0.001455787
-0.0017091216
-0.0019737964
5.2460015E-4
0.0024515183
0.0034886908
0.0031887973
-5.898406E-4
-0.0014787104
-0.0014116162
-0.003984145
-0.0039800513
-0.0056860195
-0.007124959
-0.0011361333
0.003472228
0.0034090888
0.003326641
0.0016380848
-2.0663794E-4
-4.189928E-4
-0.001151313
-0.0011799742
3.732102E-4
0.0019414388
0.004054515
0.0046392926
0.0014370662
-0.001963183
-0.0036281217
-0.0037754243
-0.002284192
-7.710797E-4
6.820656E-4
0.0023616494
0.0036282707
0.003792544
0.0015321348
-0.0021868364
-0.003793318
-0.0023415668
-0.0021156722
-0.0025127053
3.164073E-4
0.0023919747
0.0031663973
0.003459502
6.203029E-4
-0.0018162456
-0.0034031451
-0.004121126
-0.0027108644
-0.0025354282
2.6157673E-4
0.0050162384
0.0060039517
0.0058867843
0.002607808
-0.0030053158
-0.0046722675
-0.0035300478
-0.0017675715
-0.0017462071
-0.002033615
0.0010368369
0.0033764627
0.002609604
0.0010717204
-8.3504687E-4
-0.0027567223
-0.0028942674
-0.0015637384
-0.001098497
-9.182696E-4
4.060753E-4
0.0032008213
0.004982879
0.0028447951
4.4492164E-4
-0.0022470257
-0.0053355484
-0.002755313
2.534953E-5
-0.0017438218
-6.714819E-4
0.003965893
0.0064884024
0.003678465
-0.0014460209
-0.0031981731
-0.002810585
-0.0025757707
-0.0019287667
-0.0011209307
9.852179E-4
0.0041961554
0.0057079126
0.004417506
6.080599E-4
-0.0028972775
-0.0028739206
-0.0022882568
-0.002535812
-6.1789487E-4
0.001994153
0.004068379
0.0041238307
1.5515725E-5
-0.0034026739
-0.0045783585
-0.005498836
-0.004554478
-0.003441054
-0.0021042922
0.001706803
0.0053882166
0.0061169616
0.0031735469
-4.7390358E-4
-0.0017474695
-0.0023068043
-0.0023975577
-0.0015233437
-0.0011655244
4.6229476E-4
0.004489122
0.006141992
0.004170036
0.001357907
-0.0030194286
-0.0057372325
-0.004249129
-0.0030487701
-0.0013092634
0.0026031341
0.0053530927
0.005099959
0.0018109215
-0.0015199033
-0.0026040496
-0.0020211574
-0.0015596636
-0.0023484987
-4.2826054E-4
0.0030201003
0.00373164
0.0042088064
0.0024388866
-0.0017067723
-0.0029704163
-0.0032483973
-0.0031412456
-0.0013820678
-4.934499E-4
2.2635527E-4
0.0031061724
0.0052493215
0.0013155623
-0.0037396452
-0.0027627295
-0.0017004246
-0.0030366518
-0.0029337704
-0.0023000683
7.475788E-5
0.0035562257
0.0045061596
0.0037239264
0.00129292
-0.002376602
-0.004136691
-0.0035492235
-0.0019682343
1.0693616E-4
0.0029833955
0.005850406
0.0061154775
0.0038205867
9.497401E-4
-0.0023290757
-0.004963369
-0.005203307
-0.0039727082
-0.002253331
2.89996E-4
0.0025856413
0.0033938831
0.0020479523
-0.0019813874
-0.0052720276
-0.0047830525
-0.0034020673
-0.0020485641
-3.1751886E-4
0.0010123902
0.0045723785
0.00735964
0.004790113
0.0018903619
7.2523317E-6
-0.0021725502
-9.33123E-4
0.0012542456
8.260597E-4
0.002409376
0.0065844683
0.0065156138
0.003067649
5.315049E-4
-0.0045673307
-0.008539511
-0.0061118677
-0.0035614157
-0.0010288317
0.0027769606
0.0040562456
0.0023243064
-0.004004988
-0.0070409123
-0.0023650837
-0.0035673333
-0.0082222875
-0.0052933698
-2.776748E-4
0.003260428
0.00659655
0.007101033
0.0035005857
-4.034212E-4
-0.0021270534
-0.0037531666
-0.0036171372
-0.0016515122
2.3758665E-4
0.004142392
0.0059951963
0.005628589
0.0066731223
0.0024171213
-0.0034406723
-0.0029807026
-0.0024427671
-0.0020706665
-3.5784603E-4
-4.5083722E-4
0.0020976781
0.0054356405
0.0032758291
-7.4942276E-4
-0.0041205366
-0.0060760328
-0.0048387893
-0.0031140703
-0.0018852897
0.0012237942
0.0057938737
0.0075573176
0.00421739
1.9134655E-5
-0.0015855148
-0.0027048946
-0.004451902
-0.003372685
-3.769103E-4
-4.0967064E-4
4.6472845E-4
0.0035840173
0.0029982573
-2.9086895E-4
-0.0047086454
-0.006674292
-0.0043913834
-0.004080523
-0.001658117
0.003926316
0.0053089806
0.0057105348
0.0050672675
0.0014476663
-0.0013912262
-0.0021979464
-0.0010432875
-0.0017514265
-0.002764998
-8.973741E-6
0.0028333869
0.0053052367
0.0055247317
0.0026317604
-3.2169506E-4
-0.0038440553
-0.0040178406
-0.002615298
-0.0034774179
-0.001164257
0.0020590483
0.0035013896
0.0037021316
-1.2960729E-4
-0.0037260368
-0.004091209
-0.0039068284
-0.0037370757
-0.0020604972
0.00108111
0.0027673694
0.004864582
0.005897363
4.45737E-4
-0.0053466386
-0.006994674
-0.0066720485
-0.004339785
-0.0017720369
9.3821995E-4
0.004215531
0.0065189814
0.007664808
0.0054106303
2.3555334E-4
-0.0018005028
-2.4354126E-4
5.1602347E-5
-3.8353767E-4
0.0015403627
0.0053534536
0.008112705
0.0059082094
7.6004677E-4
-0.0026198037
-0.004967781
-0.005677376
-0.004749348
-0.004025125
-0.0023535104
1.5769392E-4
0.0033955814
0.004268997
-7.825705E-5
-0.0035964947
-0.004386055
-0.0051275
-0.005301908
-0.005718933
-0.0039359652
0.0016125488
0.005879428
0.005923531
0.0021845694
-0.0025558847
-0.0041074036
-0.0024856126
-7.867742E-4
-4.5116883E-4
5.553534E-4
0.0045013716
0.007855465
0.006496169
0.0028610504
-0.0010930208
-0.004118876
-0.0039570904
-0.002700943
-7.722225E-4
0.0011726079
0.0021314642
0.006351256
0.007865838
0.0017087356
-0.0023091042
-0.0036864332
-0.0054839808
-0.0042236666
-0.001979591
9.503564E-4
0.005207551
0.0066128746
0.0045397417
0.001140238
-0.0022226176
-0.0049832454
-0.0062051527
-0.0041729747
-0.0014311448
-0.0011513354
7.6150143E-4
0.0048943753
0.0040657707
-2.3421754E-4
-0.003654258
-0.006736719
-0.00616954
-0.0047478606
-0.004847128
1.17820484E-4
0.0057691867
0.007539629
0.00858381
0.0050708544
-0.001875054
-0.0055006593
-0.0053413636
-0.003253894
-0.0015174265
5.2172114E-4
0.0046211206
0.0077681774
0.00686851
0.0018149598
-0.004290779
-0.00604192
-0.003968235
-0.0036064498
-0.0035813143
-4.2710424E-4
0.004003034
0.007905062
0.00769069
0.002936847
-0.0010459167
-0.0040857014
-0.0054922
-0.0046083024
-0.0052064788
-0.0033882156
0.0032991879
0.008376963
0.00888567
0.004745319
-0.001029065
-0.0041590934
-0.0061269114
-0.006485853
-0.004108263
-0.0020291747
0.0011344514
0.005747855
0.006465622
0.0028898232
-0.0014172642
-0.0041175433
-0.0047035967
-0.0044649625
-0.003447576
-0.0018844076
0.0015644274
0.0071199965
0.007180182
8.104344E-4
-0.003614615
-0.0045822673
-0.004473152
-0.0033100892
-9.845274E-4
0.0013080079
0.0033416902
0.006223344
0.0072353724
0.0044713872
2.5537715E-4
-0.0028402777
-0.0034449154
-0.00372231
-0.0035787513
-0.0011225492
0.0027181113
0.0072463504
0.0070348815
0.0016366197
-0.0016419059
-0.0042601377
-0.0067913816
-0.0068127266
-0.0067025856
-0.005951909
-0.002057088
0.005167701
0.008844452
0.0052326685
7.982931E-4
-0.0031667375
-0.004125424
-0.0013968733
-0.0014840448
6.148062E-5
0.004326772
0.00680229
0.008710279
0.005043449
-0.0024794585
-0.006249199
-0.0075477855
-0.0058343126
-0.0016842802
0.0011312722
0.0028301447
0.005496741
0.007884054
0.0046460275
-0.0015480664
-0.0047630663
-0.0062479926
-0.0063685253
-0.00613176
-0.005075109
-1.651185E-4
0.0049706474
0.0063667125
0.0041441186
-4.0400107E-4
-0.004841805
-0.0059779063
-0.0023887209
7.9496665E-4
0.00163058
0.004989833
0.009108546
0.009188708
0.0052896384
-1.9489601E-4
-0.0047940155
-0.006233041
-0.0042283186
-0.00327381
-0.0027134158
0.0016248579
0.0047420957
0.0045383074
0.003363253
-8.6005457E-4
-0.005376292
-0.006808906
-0.006917437
-0.005105327
-0.0012629132
0.002161442
0.0043858346
0.005125703
0.0033548619
-2.5235538E-4
-0.0028793006
-0.002535936
-6.9244136E-4
-6.4893096E-4
-0.0013838095
6.26642E-4
0.0056927614
0.01026178
0.0077280067
-2.3666226E-4
-0.00505199
-0.0061348374
-0.004565859
-0.002552394
-0.0023926082
8.5985125E-4
0.0050271205
0.006044855
0.0050344532
-4.4259644E-4
-0.0048273015
-0.0043903273
-0.0044150874
-0.0032020167
-0.0017351635
-6.3697994E-4
0.0036321045
0.005807515
0.002850885
-0.0028684966
-0.006981121
-0.0059061986
-0.004525472
-0.0028472333
9.1597607E-4
0.003119151
0.0059633795
0.007671246
0.0044132955
-1.4948567E-4
-0.003598656
-0.0036553068
-0.0013400493
-5.8048073E-4
-3.9568678E-7
0.002613954
0.007455296
0.0104313325
0.0076995404
0.0015719193
-0.0047211857
-0.008054517
-0.008975218
-0.008256757
-0.0037803466
8.1065967E-4
0.0038881807
0.006498028
0.0048439656
-9.221553E-4
-0.0057119876
-0.0068273214
-0.0068395697
-0.0064971275
-0.0031116607
0.001058164
0.0051334556
0.008067023
0.0056067025
0.0011435014
-0.0015360313
-0.0033598435
-0.003968976
-0.0025506092
5.6644663E-4
0.003380937
0.006544635
0.0096634785
0.008853725
0.0041591376
-0.0024203912
-0.005687371
-0.0032152878
-0.0013577217
-0.0013681754
2.0096973E-4
0.0038389573
0.0043984423
-0.0026882072
-0.007031895
-0.0034867742
-0.003242217
-0.00588261
-0.0031807285
4.9320183E-4
0.0010505622
0.0039232075
0.006245481
0.002019719
-0.0018930151
-0.0039560692
-0.006946007
-0.0064549698
-0.0039655673
-9.460344E-4
0.003734492
0.0073215286
0.008483621
0.0053391648
-4.620581E-5
-0.0034367682
-0.005463186
-0.0053308685
-0.0035380581
-0.0010744242
0.0021930183
0.0037036282
0.004528584
0.0051702796
0.0027470852
-1.50659525E-5
1.443528E-4
-2.2725621E-4
-0.0026992357
-0.0023088863
-2.4404024E-5
0.0011921215
0.0050843237
0.0059587937
-7.312258E-4
-0.0050813137
-0.005758935
-0.005774647
-0.0030091738
-5.039853E-4
0.0014082362
0.0051940875
0.010074493
0.011717297
0.00434544
-0.0040286384
-0.0050143083
-0.0046534613
-0.0047460706
-0.006333301
-0.00848711
-0.0026056275
0.0055549745
0.0057181357
0.0014075072
-9.736596E-4
-3.7341114E-4
-5.891189E-4
2.9677595E-4
0.0032724827
0.0039539123
0.006651671
0.008366013
0.0032511705
-0.001760873
-0.006193495
-0.009818853
-0.010311624
-0.010446896
-0.008336207
-0.005317854
-0.0016972604
0.0025221477
8.571949E-4
-0.0038596543
-0.008229154
-0.010265935
-0.0068309116
-0.0031132926
0.0025270435
0.009582337
0.011871397
0.013588588
0.01294306
0.0075461664
0.0025014207
-4.3974514E-4
-7.095931E-5
0.0036129674
0.014203363
0.02587451
0.026622009
0.025858177
0.019740067
-0.0025732205
-0.018322611
-0.020725202
-0.025618143
-0.027599104
-0.020921627
-0.012485768
-0.0067028976
-0.0043435893
-0.0030696613
-0.0028119208
-0.005619539
-0.00642097
-0.0020765516
6.7606545E-4
-5.938656E-4
-0.0012648918
0.0018037682
0.006651374
0.0054837284
-0.0019451805
-0.0077620945
-0.008761648
-0.003466763
0.0061376663
0.014956851
0.01972667
0.018816574
0.016643558
0.013267038
0.0018976022
-0.0113037815
-0.014685115
-0.012121634
-0.010607119
-0.004905961
0.0044116857
0.009215786
0.010142819
0.008102352
0.0056426525
0.004538231
-0.0015616062
-0.0071872473
-0.0049051335
-0.0017760325
-0.0029983867
-0.0065888795
-0.007783726
-0.00721968
-0.0071988353
-0.0040393895
5.1512965E-4
0.0036952244
0.005226942
0.0043613855
0.0032789148
0.0020270857
0.0036148129
0.0051601245
-0.002954745
-0.009661799
-0.004769235
-5.8412773E-4
-0.0014689339
0.0018309042
0.008743503
0.011407759
0.010376965
0.006713868
-5.94999E-6
-0.0064243656
-0.012166131
-0.013002487
-0.008824962
-0.006663783
-0.0032054302
0.0011783958
0.0035094905
0.005167076
5.9495814E-4
-0.0066080536
-0.007595853
-0.004361144
-4.7969038E-4
0.0027098053
0.0078539895
0.015304856
0.01887846
0.013368437
6.851841E-4
-0.0070776436
-0.007027355
-0.00803102
-0.0078754155
-0.002409575
0.0020201693
0.0024931622
0.0056849057
0.008964829
0.0044582705
-4.5345805E-4
-0.0018589995
4.2664713E-5
0.0034874165
-0.0054846825
-0.016041653
-0.011545165
-0.006874221
-0.006646698
-0.0049962173
-6.920107E-4
0.0098258
0.016618198
0.011729549
0.0032842422
4.918893E-4
0.0026149852
-3.3057242E-4
-0.0099131
-0.01709607
-0.012927643
-3.0637864E-4
0.008290414
0.013598796
0.01690712
0.012883195
0.005973315
3.5997826E-4
-0.0029195184
-0.008850033
-0.018124474
-0.014176166
-4.098007E-5
0.0056574508
0.0020582238
-0.003394975
-0.0023544447
-9.2608665E-5
-0.0053793755
-0.0075032553
-0.007335562
-0.00839843
0.0019128133
0.012831972
0.0120073715
0.012238831
0.01217762
0.008660135
0.009652606
0.00858266
0.003812093
5.970966E-4
-0.0016549123
-1.932179E-4
-0.006078482
-0.020359788
-0.02001492
-0.009371915
-0.0029255443
5.693135E-5
-4.0363107E-4
0.002649308
8.18026E-4
-0.017289694
-0.026480997
-0.018148638
-0.012600714
-0.0050458754
0.0065467064
0.0034808351
-0.0040306738
0.015122712
0.05710901
0.06910213
0.02150105
-0.027866926
-0.026706886
-0.0011794914
0.017836794
0.02356779
0.016061693
0.002599934
-0.010904509
-0.017356537
-0.01667837
-0.012225917
-0.006845255
-0.008358177
-0.0138388965
-0.021391451
-0.026601713
-0.023440357
-0.020907404
-0.012466231
-1.9553374E-4
0.011840835
0.038154796
0.04291081
0.013770099
-0.0027399627
-0.011274609
-0.023647845
-0.026414493
-0.009758943
0.02879505
0.041064415
0.010514665
-0.0018472638
0.017268045
0.029201008
0.019432515
-0.0063339197
-0.03595396
-0.03986273
-0.0074886223
0.016418764
0.0095088575
-0.0014485604
-9.827135E-4
0.007210247
-2.8314977E-4
-0.02079833
-0.020240806
-0.010939667
-0.0074331253
0.0013184332
0.0073057613
0.009721971
0.009668582
0.002670915
-0.0049315556
-0.009218471
-0.0051422496
-1.3695292E-4
-0.0059576984
-0.012337367
-0.009863053
-0.0058479407
-0.013311599
-0.0059079584
0.034889944
0.045317717
0.018181158
0.011870107
2.9153627E-4
-0.028041061
-0.025089318
0.0018490377
0.024
0.031250548
0.017405435
-0.0022476146
-0.007734623
-0.0043232697
-0.010434715
-0.023205891
-0.02849778
-0.02278609
-0.007249306
0.0028353715
0.0063096145
0.013966685
0.010209704
0.0028499477
0.0023383677
-0.004340671
0.0037033272
0.013243056
-0.0074847555
-0.018452778
-0.010616834
-0.01034661
-0.009230879
-0.006351222
0.012402959
0.044061236
0.039893225
0.009245524
-0.006379741
-0.012402925
-0.020295093
-0.01718186
2.694303E-4
0.0020803118
-0.009476157
-0.0041603274
-0.0037958664
-0.014067494
-0.004812629
0.013135004
0.019709665
0.015760053
0.012568908
0.010736844
-6.369884E-4
-0.008698225
-0.009661848
-0.009202528
-0.0010142688
2.338709E-4
-0.006744891
-0.009211214
-0.011566376
-0.008632745
-0.0024825034
6.313881E-4
0.0054654293
0.007901154
0.007883063
0.007381948
0.005946596
0.00548149
0.0023558866
-0.0019650133
-0.0050358926
-0.0057661505
-0.0025951467
0.0020626367
0.010525352
0.015789194
0.012465866
0.00861064
-4.2234265E-4
-0.01128715
-0.012982485
-0.012510334
-0.01002216
-0.0032248413
-4.3892663E-4
-0.0019311854
-0.0026357786
-0.0023072762
-0.0034519813
-0.0052251504
-0.0045083724
-0.001124172
0.0029406063
0.0056039523
0.0075561577
0.007466679
0.0040559564
9.930303E-4
-0.0013433787
-0.001227511
0.0019839224
0.0030398204
0.0035552718
0.005185215
0.005692295
0.0050862236
0.0016482428
-0.0027101254
-0.005125007
-0.0054431404
-0.003303381
-0.002056196
-0.0012145384
0.0021650717
0.0046813884
0.003769725
1.724277E-4
-0.0034642862
-0.005630308
-0.0063322685
-0.003958006
-0.0013769029
-7.285224E-4
0.0010562855
0.0030559087
0.0027594746
6.9536985E-4
-5.36078E-4
-9.879427E-4
-0.002649918
-0.0027811583
-0.0014074885
2.2264723E-4
0.003207748
0.0035529148
0.0016153193
-7.5328536E-4
-0.0040977085
-0.00151657
0.0046372307
0.006126515
0.0065587666
0.006242275
0.0041157934
0.0034839222
0.0025424557
-2.4523832E-5
-0.0028831435
-0.004971766
-0.0056498763
-0.0054916907
-0.004496523
-0.0026817627
-7.0560013E-4
3.6112373E-4
0.0010743382
5.5811513E-4
-0.0037762474
-0.0071870442
-0.006673863
-0.0044552363
-2.9752773E-4
0.0019493072
0.0025963322
0.005405354
0.0054044686
0.0029325893
0.0018650875
4.4139757E-4
-3.928516E-4
3.525785E-4
0.0013742795
0.0015726316
0.002070502
0.0042953226
0.003669913
-1.840415E-4
-0.002492574
-0.0045596687
-0.005657062
-0.004074643
-0.0019434678
9.3137467E-4
0.0020099909
0.0016319312
0.004425941
0.004299322
-4.7181212E-4
-0.0018690785
-0.0016099
-0.0022234614
-0.0017463291
-1.0802547E-4
0.0029638452
0.004959625
0.0050491984
0.0033706531
-9.621609E-4
-0.0037850123
-0.004978831
-0.005466586
-0.0031155501
-0.001553849
1.0550374E-6
0.0038849558
0.00530569
0.0026251355
-0.0015270443
-0.0029939252
-0.0022819194
-0.0032886325
-0.0028619561
-3.450097E-4
0.0018970302
0.0049507087
0.0055304836
0.0025456748
-2.3786808E-4
-0.002556031
-0.0032928071
-0.0019113394
-8.56625E-4
0.001137219
0.0040709716
0.004509372
0.003342023
9.063452E-4
-0.0024144424
-0.0024587885
-0.0017979263
-0.0024955776
-7.229766E-4
9.141588E-4
0.0019903583
0.0048793526
0.0043950533
-1.1567235E-4
-0.003758772
-0.005332755
-0.0047081877
-0.002547551
-1.2747753E-4
0.0022500432
0.0042184456
0.005172798
0.0049614985
0.003631772
7.501978E-4
-0.0017832612
-0.0014969418
-6.6363707E-4
-0.0014693411
-0.0016601713
0.0011903385
0.0053040776
0.0055315713
0.0016988546
-0.0016439463
-0.0048548183
-0.0072643594
-0.005078726
-0.002488082
-0.0022307362
0.0012044365
0.0061806934
0.006794891
0.003303186
-0.0019623039
-0.0044922517
-0.0021314982
1.6248558E-4
-5.089459E-4
-0.0013357195
0.0013708936
0.005628245
0.005845638
0.0031523125
-1.4538455E-4
-0.0036930677
-0.003936681
-0.0020492629
-8.081546E-4
0.0013228223
0.003659012
0.0054851756
0.005269484
0.0023190523
3.741781E-4
-0.0014991033
-0.0033072988
-0.0025324612
-0.0028215572
-0.0026248132
9.789082E-4
0.003225991
0.003827361
0.0031339126
-0.0010759536
-0.0047544106
-0.0047065336
-0.0036829906
-0.0031852277
-0.0011400495
0.002432646
0.0041602133
0.0040337406
0.0030868307
3.403767E-4
-0.0019986234
-0.0022014438
-0.0019395705
-0.0016323988
-5.082248E-4
0.002280686
0.005636621
0.006216136
0.0031080307
-0.001181876
-0.0038547972
-0.004764496
-0.00496625
-0.004008038
-0.0019882144
6.357634E-4
0.003858074
0.0068673356
0.007748474
0.0035899042
-0.0027155052
-0.0040767347
-0.0026103717
-0.0031561172
-0.0031332779
-6.455117E-4
0.0032768564
0.0068821404
0.0062040365
8.20266E-4
-0.003996792
-0.0051574013
-0.0038915016
-0.0013053211
0.0012608885
0.0020130193
0.0030133186
0.0050454373
0.0025127803
-0.0035045939
-0.0051616565
-0.00362295
-0.0029422746
-0.0024819886
-8.2979014E-4
0.0029723782
0.005638833
0.006088397
0.0057672802
7.8843924E-4
-0.0056093764
-0.0069103832
-0.0052879835
-0.0026055416
-1.1471902E-5
0.002541539
0.004397769
0.0039390624
0.0033220642
-0.002004104
-0.0078913
-0.003744634
-0.001299977
-0.003427196
-3.4553328E-4
0.0027133173
0.005791804
0.008975767
0.006194794
0.0013233441
-0.002381822
-0.004520782
-0.0051673586
-0.003950884
4.1545148E-4
0.0035640814
0.004916075
0.005491561
0.0040987195
0.002266149
-0.0015541984
-0.0038588115
-0.003428479
-0.0056579607
-0.004629271
1.4783561E-4
0.002946378
0.005726452
0.0041055353
-0.0023854186
-0.0059169643
-0.006155223
-0.0050215493
-0.0030939563
-0.0012807143
0.0011827726
0.0050595305
0.0075234417
0.005240839
1.4662552E-4
-0.0036367935
-0.0031971468
-0.0019042937
-0.0030780784
-0.0022007513
-4.991552E-4
0.0016311221
0.0062143984
0.0055219335
3.6409358E-4
-0.0036148394
-0.005496352
-0.0030035896
-0.0020758875
-0.0025333783
0.0015923975
0.0054861708
0.007543124
0.0062247408
9.1337174E-4
-0.0017790507
-0.0025669548
-0.0040538334
-0.0042291535
-0.002204804
7.966359E-4
0.0036531603
0.0069930935
0.00618906
-5.1238643E-5
-0.004643071
-0.0067840847
-0.0073951283
-0.005410288
-0.0026659316
-1.374138E-4
0.0025786422
0.005612732
0.0057464773
8.571819E-4
-0.0037948757
-0.004081385
-0.0025606772
-0.0018965809
-7.4039534E-4
0.0010395388
0.0029739896
0.0056390674
0.0056603313
0.0023085051
-0.0019303621
-0.0050823595
-0.00456925
-0.0036225086
-0.0026638496
0.0017807984
0.0055511124
0.0062965797
0.0041511576
-0.0011117952
-0.0046487483
-0.0040123165
-0.0022721908
-0.0019762162
-0.0023321034
-0.0011838103
0.0033328487
0.0075254054
0.002947498
-0.0046385676
-0.004840287
-0.0025775074
-0.0021794077
-0.00150953
-0.0012823294
-0.0030194398
-0.0010950736
0.008072505
0.01058453
0.002491905
-0.0023121317
-0.0024392102
-0.0014438779
-0.001659399
-0.005162126
-0.0044915075
0.0019945146
0.00695828
0.0064424668
0.0013009363
-0.0036449868
-0.0055128755
-0.0044264733
-0.0020404616
-6.1893376E-4
3.2112282E-5
0.0012497555
0.004481793
0.0067544384
0.0035737758
-0.002070627
-0.0052821785
-0.00510294
-0.0037394625
-0.002951457
-9.775261E-4
0.0035776303
0.00816972
0.007389837
0.0013682412
-0.0040184376
-0.006069443
-0.005073965
-0.0034304117
-0.0017399703
0.0014043442
0.0044533536
0.0066629797
0.00587871
0.0019437392
-8.5754204E-4
-0.0032779218
-0.004107036
-0.0017636494
-6.4508925E-4
4.89792E-4
0.0033874288
0.004486554
0.0033277688
8.944468E-4
-0.0032739413
-0.006917412
-0.007324768
-0.006190396
-0.0032295748
9.916739E-4
0.0025700068
0.0039252825
0.004705281
0.0017620309
-0.0016432023
-0.0036538304
-0.0035135986
-0.0032643268
-0.0036143754
3.6846782E-4
0.005245215
0.006886192
0.0062433504
0.0033400469
-2.6735692E-5
-0.0033768965
-0.0031249842
-7.763521E-4
-0.0023552955
-0.0012921159
0.0032357308
0.0063085733
0.007420321
0.003432033
-0.0015022836
-0.005400065
-0.007591045
-0.0034997566
-0.0013980254
-0.002451232
0.0018010847
0.0074788276
0.0059269364
-0.0038493392
-0.009182613
-0.00619656
-0.005246936
-0.0041166563
-5.8493833E-4
0.0015686776
0.0042987606
0.00655469
0.0061954535
0.0033649935
-0.0010528885
-0.0037763726
-0.0029289708
-5.332972E-4
-8.245149E-4
-0.002409905
8.951988E-4
0.0071693193
0.008241285
0.002871053
-0.0034091235
-0.006335276
-0.0048108934
-0.0029409018
-0.0029267943
-9.0246805E-4
0.002040693
0.004830974
0.0065049063
0.0023925228
-0.0027918045
-0.0043549016
-0.0048920377
-0.0044784043
-0.0027410774
4.863749E-4
0.004093506
0.0071228277
0.0077194143
0.0032911417
-0.0014296512
-0.00538412
-0.008657373
-0.005495337
-4.042529E-4
6.480884E-4
0.0012915772
0.005071571
0.008164313
0.004928393
-1.9397477E-4
-0.004110597
-0.0062378678
-0.003449467
-0.00176402
-0.001839652
0.0016158277
0.006043017
0.008344569
0.0049657803
-0.0021631145
-0.006543779
-0.0060671656
-0.0027635705
-0.002220381
-0.0010038499
0.003777039
0.0056007653
0.0054283845
0.003213375
-0.0018665618
-0.004959226
-0.005304629
-0.0029874917
-0.0016781217
-0.0027330099
-8.2796556E-5
0.004818476
0.006952336
0.0045439345
-8.6820306E-4
-0.00491626
-0.006863268
-0.0065430608
-0.0037249345
-5.1335397E-4
0.0022526642
0.005097122
0.006854422
0.0049813413
0.0010914608
-0.0018254333
-0.00256721
-0.0017225303
-0.002888049
-0.0020851474
0.00319951
0.0055269846
0.0059757773
0.0046159658
-0.0025288356
-0.0068381117
-0.0049430407
-0.0036722824
-0.0023899265
0.001025063
0.00440602
0.00734471
0.008673159
0.004715274
-0.0027993415
-0.0063601322
-0.0043536266
-0.0031705988
-0.0036616477
-0.0014804133
0.0010225284
0.0027988963
0.00515799
0.0031158198
-0.0026913271
-0.0063246517
-0.0069457293
-0.0054184846
-0.0036457595
-0.0010884616
0.0032612497
0.006037977
0.0071368953
0.0062385406
9.2556066E-4
-0.0040288744
-0.0034952324
-0.0012379624
-0.0024327165
-0.0036842371
8.7375156E-5
0.0056769303
0.007746163
0.0049127336
-5.9146023E-6
-0.0032366503
-0.004569235
-0.004360758
-0.002586225
-2.3288449E-5
0.0026310866
0.004725486
0.0060408926
0.0032508546
-0.003421779
-0.0055888207
-0.0035376905
-0.0027230412
-0.0014715515
-5.707969E-4
1.8922884E-4
0.004241733
0.007029821
0.004406194
-6.870933E-4
-0.0051127886
-0.0066553303
-0.005250771
-0.0023537185
5.545961E-4
0.0024389548
0.005152853
0.007407148
0.004451979
-0.0016368148
-0.005001668
-0.0041486565
-0.0022101132
-0.0023495671
-0.002027178
0.002071215
0.006665093
0.0070772963
0.0036434566
-4.4721575E-4
-0.003346008
-0.0050333147
-0.0051561086
-0.0035905542
-0.002331799
-5.89169E-4
0.003509441
0.0052790227
0.0029575003
-1.4939523E-4
-0.0033860563
-0.0037799373
-0.0017012039
-0.0013591576
-0.0010885088
3.502462E-4
0.0037998387
0.0073386403
0.0051378724
5.719925E-4
-0.0025744615
-0.005309122
-0.0052240435
-0.0033201864
-0.0017337694
0.001320848
0.0058988584
0.008425782
0.0062070275
0.0017620437
-0.0025304114
-0.0046658763
-0.0032575966
-0.002596346
-0.002650136
-2.6752E-4
0.00331991
0.0063706357
0.005205296
5.0510453E-6
-0.0054310123
-0.008284464
-0.0057435804
-0.002981294
-0.00166236
0.00277128
0.0061119446
0.0077677914
0.007264508
7.096638E-4
-0.00460387
-0.005823816
-0.0061247107
-0.0039053417
-0.0015031409
-2.8686566E-4
0.0025779766
0.0066961367
0.006646639
0.001068887
-0.0022412487
-0.0027030047
-0.004093019
-0.00344012
-0.0011912676
0.0014108203
0.004838055
0.007112666
0.0068802694
0.0032974025
-5.7386677E-4
-0.0012372915
-9.2923816E-4
-0.0023284876
-0.0038650637
-0.0011614041
0.0037525825
0.0049063717
0.0029168369
-0.00121791
-0.0064222985
-0.007806897
-0.005992313
-0.0048650247
-0.0035324837
-0.0010803649
0.0025929546
0.0063407375
0.0048778155
2.875706E-4
-8.360173E-4
-0.0016207767
-0.0029303392
-0.0020183884
-0.001059666
0.0012664953
0.0048403824
0.006007869
0.0051801354
0.0022202164
-0.0018975437
-0.004243176
-0.00509897
-0.0040956996
-6.389664E-4
0.0021767723
0.003792603
0.0061971457
0.0064815674
0.0034481836
-4.484921E-4
-0.0037507636
-0.0037536917
-0.0029638559
-0.0023997563
0.0014623674
0.0031114956
0.002263782
0.0032222436
0.0022026242
-9.5842924E-4
-0.004212666
-0.004291889
-0.0018859765
-0.0012493504
0.0013625071
0.0013977006
-8.2880806E-4
0.0028114805
-1.1717246E-4
-0.00719684
-0.0038479064
-0.0010974301
-0.002716761
-0.001321094
9.28849E-4
0.0037226651
0.0070659374
0.0074505643
0.0031908154
-0.0020420363
-0.0035494475
-0.0027389969
-0.0028925205
-0.003087233
-8.9571426E-5
0.00342818
0.004840563
0.0063017816
0.0039438303
-0.0018270751
-0.0037860123
-0.0031241605
-0.0032517526
-0.0032285366
-9.206238E-4
0.0026477429
0.0052057626
0.0061970414
0.0027600506
-0.0030129906
-0.006411247
-0.0068357224
-0.0036111118
-0.0012635824
-9.0088426E-5
0.0046126936
0.0074695884
0.00615806
0.0037212688
3.0569156E-4