0.0026433484
4.5435852E-4
-0.0015135326
-0.0023106928
-0.005858483
-0.006064621
-0.0022805233
5.480767E-4
-0.0027947892
-0.007251646
-0.0024983687
4.2643276E-4
-0.0024666192
-8.665939E-4
0.0017397475
0.0020367792
0.001493579
0.0018930569
0.0024891018
8.4050225E-5
4.3114973E-4
0.0013183684
-0.0015907179
0.0022074077
0.009741586
0.01181149
0.014724249
0.01923972
0.022531323
0.020772591
-0.0031102956
-0.035307482
-0.03590079
-0.017813575
-0.011381536
-0.008111664
-0.0022904824
0.0017057846
0.0029436979
0.0011731607
5.7896913E-4
-6.4562727E-4
-0.0017166688
0.0016736607
0.005395781
0.0076691355
0.0083732605
0.006743
0.0039111883
0.0038952085
0.0064211963
0.003211607
0.0012883404
0.0037097286
9.1768184E-4
0.003864507
0.010544021
0.0072650537
0.003399971
5.892836E-4
-0.0026209631
-9.854574E-4
9.3321585E-5
-0.0026001518
-0.008262324
-0.013492128
-0.013603595
-0.01115422
-0.007348486
-7.031936E-4
0.0057691406
0.005637
0.0012401892
7.1400485E-4
9.199414E-4
0.0010718908
0.00426466
0.005232171
0.0041434728
0.0042583505
0.003977926
0.0033778895
0.004462936
0.004056351
-0.002700379
-0.0060914424
-3.570356E-4
0.0068055512
0.01612456
0.018554771
0.004087594
-0.009159184
-0.009117073
-0.0049109743
-0.003401503
-0.004594069
-0.0073161083
-0.007722305
-0.0021576916
0.0022247385
0.0017883325
0.0012874771
-6.694338E-4
-0.0014147176
4.353079E-4
3.3318618E-4
2.1094945E-4
1.5275479E-4
1.535224E-4
0.0018686947
0.0035479206
0.0048908624
0.0042241965
0.0024921494
0.0018346682
7.3072774E-4
3.6577773E-4
8.1414066E-4
0.001911937
0.0036657748
0.00445756
0.004794068
0.0032983318
0.0010607757
-6.73054E-4
-0.0037201396
-0.005631689
-0.0058817896
-0.0033197044
0.0010863668
0.0017638846
0.0018328741
0.0017111964
-8.073493E-4
-0.001312205
1.6126642E-4
0.0017304437
0.0023713287
0.0024504669
0.0018783462
-2.4115111E-4
3.7915137E-4
-2.3945684E-4
-0.0036838911
-0.0022693854
-0.0014963778
-0.0020323438
9.265172E-4
0.0020316667
0.0023234058
0.001966662
0.0010108826
0.0029490737
0.0016944569
-7.835167E-4
0.0014741028
0.003911039
0.0055805
0.005231163
7.3541194E-4
-0.0037286675
-0.0038815672
-1.0211605E-4
-7.830371E-4
-0.006975811
-0.0066580647
-8.818418E-4
6.8685255E-4
6.1617757E-4
0.002430075
0.00303327
0.0013101128
-9.6762495E-4
-0.00223664
-0.0025387935
-0.0023151417
-0.0015247167
-8.106252E-4
0.0011039265
0.0034821196
0.003819729
0.0067369607
0.009651459
0.0051551946
0.0022720478
0.002662175
-0.0012767442
-0.0022141782
9.2234643E-4
0.0023681235
0.0038052371
0.0035539055
0.0018063834
4.2246756E-5
-0.0017451543
-0.0016158335
-0.0032094792
-0.0056884447
-0.00405403
-7.5515744E-4
0.0015480393
-3.9835137E-5
-0.0034426386
-0.004073899
-0.0053256396
-0.004838658
-0.0020220936
-0.0029386012
-0.0021650307
0.0018147238
0.0029807074
0.003377625
0.0027927319
-6.400213E-5
-8.399765E-4
8.465065E-4
0.001648648
0.0012777033
0.00114049
0.001457465
0.0028596595
0.004285895
0.0041144197
0.005709008
0.0077405744
0.005005676
2.2171068E-4
-0.0041748113
-0.00524503
6.397748E-5
0.0045933905
0.0054487414
0.005841386
0.003459771
-0.0023035794
-0.007889501
-0.0071406406
-0.0021062035
-0.0019646217
-0.0016665614
0.002392808
0.0045614345
0.0052701756
0.0022296607
-0.0012653155
-5.093363E-4
-0.0036842274
-0.007887296
-0.0076147853
-0.00689232
-0.003400563
-6.2402454E-5
-1.6429294E-4
4.1712512E-4
1.3460711E-4
-6.9125457E-4
-7.8845193E-4
-8.678785E-5
0.0026817317
0.0033061763
0.0034774125
0.006231342
0.005754383
0.002483444
1.1710476E-4
5.3504726E-4
0.0049317353
0.0075238184
0.006235324
0.0055376203
0.004898304
0.0018444884
-0.0012288197
-0.0017747219
-0.001910119
-0.001217377
-3.1886614E-4
-0.0024093292
-0.0019413834
1.9939043E-5
-0.001984161
-0.0014522518
-0.0018970047
-0.007059409
-0.006237683
-0.0038090113
-0.004851755
-0.0011362194
0.0020269381
9.003339E-4
0.0016749785
0.001432169
3.938836E-4
8.033438E-4
-8.4738196E-5
0.0011028209
0.003666089
0.0027743147
0.0015216579
0.001470144
8.298512E-4
5.648646E-4
6.29059E-4
-7.983986E-5
4.287073E-4
0.0012934372
7.573324E-5
0.0010387216
0.0029368638
0.003034455
0.0055654356
0.0059639253
0.00233393
-9.886628E-4
-0.004760737
-0.0060882582
-0.0052754236
-0.0029844975
1.2807369E-4
-9.5091E-4
-9.105273E-4
-2.8134875E-5
-0.0013569532
-2.6999338E-4
-9.38503E-4
-0.0013887563
3.082737E-5
-1.0111465E-5
0.0025296258
0.0034213974
0.002949272
0.003302428
0.0035298988
0.0040280786
-0.0085757915
-0.016590076
-6.8034185E-4
0.0061815917
0.0018880622
0.0040412075
0.002907248
0.0030798512
0.0045568445
0.0027384406
0.002361714
-0.0015120938
-0.004729846
-0.0038754921
-0.0043070153
-0.003291212
-0.0012494882
2.3757337E-4
8.319721E-4
3.3245338E-4
0.0016186159
0.002022554
0.0014457501
0.0035561637
0.004880878
0.0031527432
0.0021490555
0.0027080858
3.5859906E-4
-0.0036267652
-0.0037023176
-0.0024950665
-0.0020251218
2.1823421E-4
0.0012482468
-1.7503217E-4
-2.3036437E-4
8.150275E-5
-6.20804E-4
-9.340162E-4
-0.0027660977
-0.0054899585
-0.0048095225
-0.0022214495
-0.0011475215
2.5610407E-4
0.0030541378
0.003727151
0.002162835
0.0012495351
5.857925E-5
-9.083366E-4
5.5897265E-4
0.0021794648
0.0017866101
0.0015993281
0.003371619
0.0047699115
0.0038529255
0.0018737174
9.4123563E-4
7.52705E-5
-0.0039795227
-0.005913871
-0.0013793664
0.001061257
5.606277E-4
0.002152251
0.0018489298
-4.66048E-4
-8.88145E-4
-0.0010315736
-0.0020251302
-0.0022779116
-0.0023145147
-0.0010985248
0.0029635134
0.0040789456
0.0013455796
3.0793005E-4
-0.0010580155
-0.002787641
-0.002386279
-0.0021365017
-0.0017274057
-2.4666506E-4
0.0011458616
8.2728744E-4
-6.280785E-4
-5.514421E-4
-0.0010999722
-0.0022287539
-0.0015309292
-0.001104535
8.222791E-4
0.0032787514
0.0014295921
1.2552648E-4
0.0011834933
7.8211124E-5
-1.2907137E-4
0.0011240456
4.1724273E-4
0.00158919
0.004680087
0.0046658614
0.0027739329
0.0014292459
0.0011836982
4.334482E-4
-0.0024080486
-0.0032892942
-0.0017333064
-0.0015753923
-9.42594E-4
0.001233253
0.0017601945
8.158991E-4
0.001158573
0.0011275782
-0.0012380386
-0.002489816
-0.002228876
-0.0021931129
-0.0010622629
8.038582E-5
0.001161121
0.0010045666
-0.0031575118
-0.0046199393
-0.0013108891
-3.6052617E-4
-1.6204089E-4
7.2331756E-4
3.794879E-5
1.5836704E-4
5.107319E-4
7.5703487E-4
0.0013703322
-3.4176637E-4
-0.0020346425
-0.0030293174
-0.0043890476
-0.0016435044
0.0027648327
0.004995069
0.0074650873
0.007940723
0.005414875
0.0031369831
0.0012078204
-9.1472984E-4
-0.0026166108
-0.0033453857
-0.002759829
-6.040035E-4
0.0010146525
4.3287688E-5
-0.0014868365
-0.0027232082
-0.0029627986
-0.0019696937
-0.0011659205
4.573226E-4
-3.1478272E-4
-0.0024321119
-1.1573482E-4
2.5170445E-4
-0.0020009628
-7.764716E-4
-1.4963979E-4
-3.9768798E-4
7.9117226E-4
9.188451E-4
4.890412E-4
0.0014005477
0.0026111943
0.0028427364
0.0029892682
8.99672E-4
-0.0027731024
-0.0021396466
-3.9521365E-5
6.7973713E-4
0.0025501028
0.0037829566
0.0024266844
-7.847186E-4
-0.002206806
-0.0022999982
-0.004604087
-0.005173163
-0.0034514403
-0.0019240811
-3.0712428E-4
-6.1823823E-4
-3.7951322E-4
0.0017112944
0.0027591153
0.00322457
0.0022108264
1.4736154E-4
-6.1949465E-4
-2.748871E-4
3.355837E-4
6.8690226E-4
0.0014219607
0.0010916693
4.9962814E-4
0.002869109
0.0038089454
0.0017640482
0.0015184283
0.002121532
4.2801016E-4
-0.0019578033
-0.0013897871
1.52042E-4
-0.0011650734
-0.0033152325
-0.0050598485
-0.006368371
-0.005625263
-0.0036713155
-0.0011924441
0.0014319133
0.001841267
6.7333196E-4
3.5106204E-4
-1.3178715E-4
-0.0010706973
-0.0016382551
-0.0015614764
4.4970063E-4
0.001836962
0.0010701756
0.0012931646
0.0012466089
4.6997739E-4
4.8222963E-4
0.0013089114
0.0041782116
0.004740353
0.0020539477
2.8269202E-4
-0.0021574341
-0.0012108515
0.0021113246
-4.123926E-5
-8.756331E-4
9.910308E-4
-1.3873247E-4
-2.5071774E-4
3.9397235E-4
0.0015442648
0.004634315
0.005029793
0.0036485128
0.0031329952
0.001752068
-9.2804246E-4
-0.004663128
-0.0076226564
-0.008064927
-0.0065525263
-0.0044472134
-0.0032840425
-0.0029874751
-0.0041085985
-0.0060546533
-0.004899335
-0.0022765084
-0.0022102871
-0.001886149
6.27399E-4
0.003448332
0.005589848
0.006127644
0.0056903427
0.0038542387
-2.0937625E-4
-0.0017176489
2.6570715E-4
0.0015976819
0.0014988319
5.449603E-4
0.0019017011
0.004949395
0.005329005
0.0064554717
0.009642691
0.011272259
0.010009888
0.005699429
8.197347E-5
-0.0081417635
-0.015543009
-0.014779875
-0.011007914
-0.007032459
-0.0016661821
5.549733E-4
0.0015692794
0.0025519887
0.0014121705
-4.3849568E-4
-0.002213392
-0.0013800832
-2.9009648E-4
-0.0025322773
-0.003998028
-0.0031817984
-0.0012868642
-8.6124626E-4
-0.0024837381
-0.0017035963
2.3773685E-4
0.0022964105
0.005164661
0.004512174
0.003317978
0.004641114
0.0048612035
0.004897345
0.0048234356
0.0046808417
0.004392908
5.7586655E-4
-0.0025787032
-0.0022436972
-0.0022015283
-0.0023554214
-0.003415507
-0.0056531015
-0.006072217
-0.0034449948
-4.6287145E-4
6.237972E-5
4.1069183E-4
-3.6022675E-4
-0.0020234925
-0.001120925
-0.0022717754
-0.0036195137
-0.0017174538
9.655422E-6
0.0037051036
0.0053059272
0.004195628
0.0056630885
0.0036279517
0.0010023653
0.00223314
0.0013080606
7.5842533E-4
0.0027462624
0.0038553777
0.0037418196
0.0026754409
-5.043407E-4
-0.0031916539
-0.0031701967
-0.0055519007
-0.0058902497
-0.0039240965
-0.006222622
-0.0017214115
-8.932374E-4
-0.011032206
-0.005839391
0.0010129042
-0.004134703
0.0039712475
0.0130287865
0.0011689762
-0.010763325
-0.0031566715
0.008989755
0.008927653
0.0056908634
0.004402972
0.0022356585
0.0012156676
2.7713142E-4
0.0011711646
0.0013318447
-4.6908808E-5
0.002798808
0.0034201895
-7.9814665E-5
-0.0018596178
-0.0030888987
-0.0044346265
-0.005706181
-0.004493426
-0.0013124662
-0.0010423972
-0.0020202445
-0.0023430677
-0.0026488793
-0.0023086106
-8.895343E-5
0.0024406877
0.0013416213
1.7019651E-4
0.0019076283
0.0024148836
0.0014644285
0.0016851558
0.0027474286
0.0026122495
0.0044527976
0.009311818
0.010405961
0.010796688
0.014632258
0.01665474
0.016115969
0.013712884
0.011247487
0.01072639
0.0102248695
0.011840159
0.0152897835
0.01652952
0.016549112
0.01808127
0.019591432
0.017583065
0.0156240985
0.014021365
0.009573332
0.009227587
0.011256986
0.010489269
0.012296896
0.01378377
0.0130141545
0.012642625
0.009538349
0.006406869
0.0036190858
-4.4159792E-4
-0.0018368368
-0.003743008
-0.008428241
-0.012343932
-0.014809121
-0.016656239
-0.018221973
-0.018697206
-0.018949246
-0.017856589
-0.0144737875
-0.013312904
-0.013320007
-0.011218928
-0.0061639464
3.2332935E-4
0.002367522
0.0042133806
0.011445506
0.019529114
0.027428782
0.035155244
0.042621434
0.04800685
0.051433396
0.05855918
0.062007017
0.060035646
0.06060762
0.057292793
0.050489508
0.042535927
0.03201568
0.025214136
0.017566897
0.009033881
0.0031526638
-0.0063294754
-0.014916879
-0.02147249
-0.02582842
-0.024970658
-0.027998043
-0.03150451
-0.029772865
-0.028474336
-0.027813694
-0.028652094
-0.028140882
-0.02387847
-0.018589452
-0.013061559
-0.010064126
-0.0045680725
0.0047472697
0.010391148
0.014141396
0.017709361
0.020964578
0.022946013
0.024172327
0.02709442
0.029113246
0.03380982
0.038034063
0.036658816
0.034609623
0.030398946
0.030517258
0.030646995
0.024739925
0.02559685
0.016020622
0.003934736
0.017896183
0.026434984
0.02287083
0.025497114
0.023897402
0.022998938
0.01920879
0.00594
-0.0053805397
-0.014200109
-0.018911967
-0.020715002
-0.023321796
-0.027336176
-0.035466995
-0.03998337
-0.041747727
-0.044326413
-0.041308302
-0.035876233
-0.02897151
-0.021351157
-0.01624218
-0.012176992
-0.010255973
-0.004672359
0.005217194
0.012372845
0.018286971
0.023798136
0.031335972
0.03958361
0.04325779
0.046377484
0.050648645
0.054750383
0.059352092
0.06446397
0.06388821
0.05014672
0.03411472
0.022722496
0.009106946
-0.004500711
-0.016755546
-0.025789738
-0.030194404
-0.035897326
-0.03907373
-0.036333315
-0.03383564
-0.036724094
-0.044300005
-0.048842445
-0.045756143
-0.033799477
-0.020791212
-0.01735357
-0.01315802
-0.0044433847
8.156706E-5
0.005025398
0.01003293
0.012612707
0.017681351
0.023069076
0.026696093
0.028466996
0.029728925
0.032820832
0.032801818
0.029419815
0.025687078
0.016769463
0.004742719
-0.0023781243
-0.008130306
-0.01753588
-0.026228948
-0.032946534
-0.03877991
-0.043140493
-0.047185704
-0.049429897
-0.05074487
-0.05173758
-0.049317446
-0.04534963
-0.03990687
-0.03346411
-0.029939122
-0.027744627
-0.02501526
-0.022953944
-0.023416705
-0.02394085
-0.022014717
-0.020844672
-0.018313041
-0.013748963
-0.008947323
-0.001984867
0.0030179431
0.008828221
0.020748341
0.032140926
0.04253047
0.056653503
0.073040426
0.08580156
0.09420398
0.10322155
0.10832907
0.10613406
0.101011194
0.093835905
0.0838074
0.06999152
0.05410494
0.036327276
0.016467484
-0.0028311491
-0.02401479
-0.045786574
-0.06657407
-0.08702883
-0.10526704
-0.12350858
-0.13922136
-0.15629472
-0.17615817
-0.19666952
-0.23192306
-0.24285825
-0.18926826
-0.12762888
-0.08831052
-0.052687455
-0.024896529
0.0072821514
0.04794406
0.081462674
0.1063074
0.12071641
0.1303251
0.13889484
0.14258446
0.14663023
0.14889619
0.14598942
0.14099082
0.13143377
0.11690306
0.09980194
0.08234614
0.06506527
0.04573276
0.02548728
0.0065731793
-0.009219967
-0.023185706
-0.03784835
-0.051136345
-0.06337488
-0.07093534
-0.07045428
-0.06996541
-0.06797456
-0.061615746
-0.057304524
-0.05181718
-0.04570398
-0.04292032
-0.03909761
-0.035982814
-0.035238564
-0.03431916
-0.032071292
-0.029404571
-0.028918063
-0.026648967
-0.02247313
-0.020244256
-0.017982138
-0.014629954
-0.007038153
0.0014064277
0.007431154
0.015966099
0.0219499
0.026929075
0.034022383
0.03598638
0.03684484
0.037287764
0.034266774
0.030107744
0.025748985
0.023804886
0.02090011
0.019026358
0.01809401
0.0143183125
0.013490429
0.0015322808
-0.013703894
-0.0045582247
0.0033780732
-0.0015524267
-2.3125978E-4
-2.9505946E-4
-0.0034472402
-0.0049773525
-0.007633567
-0.009922458
-0.011877301
-0.013349777
-0.0149582345
-0.015408313
-0.014544225
-0.0136969
-0.011432158
-0.012564311
-0.015991447
-0.01720429
-0.017987339
-0.017467633
-0.018887665
-0.020816343
-0.018643383
-0.01745609
-0.018059975
-0.018293092
-0.018376153
-0.019546311
-0.020641029
-0.018587442
-0.017977556
-0.018033223
-0.015318103
-0.013917634
-0.013288373
-0.013862519
-0.016072763
-0.01793052
-0.019283254
-0.018252173
-0.016823225
-0.015248398
-0.014391827
-0.01654192
-0.015258188
-0.012924385
-0.014669734
-0.01650156
-0.018067354
-0.017867869
-0.016918011
-0.017318213
-0.015783174
-0.013927972
-0.013039217
-0.013641019
-0.016370839
-0.015982406
-0.013054786
-0.013378279
-0.014035011
-0.01093387
-0.010126053
-0.011334338
-0.007509232
-0.0061236774
-0.011113899
-0.01381
-0.013460471
-0.012964613
-0.01273741
-0.011949424
-0.010463051
-0.010648528
-0.011291285
-0.011208767
-0.011163586
-0.011845961
-0.012671555
-0.0115740765
-0.011619055
-0.011633232
-0.009353672
-0.009433474
-0.008892545
-0.008324835
-0.010706676
-0.009373549
-0.0068635545
-0.006868099
-0.0070462017
-0.00811827
-0.0073984857
-0.0061687427
-0.0070287897
-0.0057242205
-0.003065004
-0.003575556
-0.0060826885
-0.006855143
-0.0068655848
-0.00725834
-0.0062889187
-0.006699678
-0.00726064
-0.005291669
-0.005402307
-0.0064666057
-0.006368761
-0.006917506
-0.0068381587
-0.007040003
-0.006733887
-0.0044415807
-0.0031921735
-0.003440761
-0.004717472
-0.0062036915
-0.00689582
-0.008038611
-0.008371919
-0.007571097
-0.006390245
-0.004076865
-0.002935892
-0.0034039654
-0.0033241175
-0.003786175
-0.004459728
-0.003007153
-0.001662251
-0.0026254796
-0.0032365178
-0.003210514
-0.0023972155
-3.7644897E-4
-0.0012624024
-0.0025088345
-0.0016299209
-0.0018397719
-5.916236E-4
-4.2614387E-4
-0.0020420356
-1.4276721E-4
5.747914E-4
-5.7592976E-4
-0.0019542612
-0.0030091105
-0.0015406787
-0.0030184106
-0.002505214
-0.001712916
-0.0068815374
-0.0029599555
-0.0028639794
-0.012955355
-0.0056899255
0.0026542305
-9.658201E-4
6.0806697E-4
0.0015191558
0.0030284591
0.0019499129
-0.010105848
-0.010318986
0.0015881984
0.0030934983
-6.6245353E-4
-9.871403E-4
-6.8298675E-4
4.6950122E-4
0.0022426588
0.002407453
0.0021560802
0.0019626175
5.092114E-4
-0.0010396688
-0.002487291
-0.0030027672
-0.0015973061
-3.875936E-4
-1.0114429E-4
-1.7485948E-4
0.00111487
0.003002141
0.0018349354
-1.551746E-4
4.1042545E-5
8.0520596E-4
-2.3943129E-4
-0.0014610863
-2.5704916E-4
-1.1258455E-4
2.8685421E-5
0.0025234313
0.0024014218
8.890209E-4
-3.8023823E-5
-0.0011287349
-3.419984E-5
5.207721E-5
-0.0019025333
-0.0015819002
5.945376E-4
0.0025984743
0.0030219664
0.0015749667
-1.6621823E-4
-2.3890416E-4
9.7301736E-4
9.93598E-4
4.3629034E-4
3.272335E-4
0.0012063297
0.002248821
0.0013925564
0.0019879101
0.0026499706
7.745045E-4
0.0012789607
3.7825987E-4
-0.0031148642
-0.0014213248
0.0012050018
0.0010590992
0.0017244829
0.0024214343
0.0026404068
0.0018363846
4.8515032E-4
7.3058176E-4
0.0012668464
0.002482579
0.0048773377
0.0056694546
0.0045482
0.0025216297
8.704611E-4
0.0015566739
0.0027565213
0.0022221003
0.0020922814
0.0028022465
0.0023447247
0.002419697
0.0037537771
0.0033290512
0.0011897609
-4.703921E-4
-2.9143266E-4
0.0011436061
5.9674314E-4
-8.901868E-4
-7.919615E-4
-0.0025343585
-0.0045939465
-0.0018310683
0.0013027401
9.393104E-4
4.1588844E-4
0.0011316085
0.0020912732
0.002228087
0.0021044682
0.003451392
0.004321645
0.0036231503
0.0039487556
0.004078999
0.0020928401
0.0012644378
0.0021045203
0.0023940552
0.003589393
0.0041771815
0.0036160732
0.0047966987
0.0037507582
0.001756261
0.0034456716
0.00326181
0.0015484078
0.0015016905
0.0016345616
0.0029795547
0.0024058907
9.678072E-4
0.0017282215
3.1165135E-4
-8.4206025E-5
0.0017713205
9.151942E-4
3.3736418E-4
0.0014236796
0.0029473454
0.004653701
0.0042225863
0.0016033521
-2.3200318E-4
5.9596024E-4
1.1462404E-4
-0.0018314347
-2.9048263E-4
0.0019390604
0.003211089
0.0026704918
-5.784714E-4
-6.4995995E-4
6.782603E-4
4.4043275E-4
0.0016404777
0.0026348962
0.0029226732
0.0029677635
0.0037436152
0.0046263332
0.002161558
6.82618E-4
0.0013458185
0.0011187933
0.0015037325
0.0017465844
0.0033080985
0.0045121755
0.0034092253
0.004582085
0.004000864
0.002174694
0.003658554
0.0027749382
0.00272897
0.0051252428
0.0046388963
0.004895683
0.005310819
0.004233447
0.0023200072
-0.0015742648
-0.0032058284
-0.003685857
-0.00320511
0.0012911949
0.0034747953
0.0037400713
0.0037082036
0.0014842951
0.0022547005
0.0022597956
-2.8487566E-4
1.667646E-4
-0.0011392434
-0.0033014396
-0.001790994
3.7062506E-5
0.0013416463
0.0020381322
0.0018739699
0.0016827717
0.0027232794
0.005203539
0.005355657
0.0034879402
0.0026104627
0.0028943508
0.003374087
0.0029700112
0.0035099029
0.0034665666
0.0015712073
0.0018477766
0.0024232347
0.0018385027
0.001723038
0.0019945498
0.0035937328
0.003570371
0.0015603559
3.5984456E-4
-4.8915617E-4
3.47115E-4
7.6794275E-4
5.7531568E-5
7.899485E-4
-1.0129703E-4
-2.695835E-4
0.0024472887
0.0024568506
0.0010180117
0.0011529485
0.0010435005
0.001217166
0.0017524346
0.0011666634
0.0026435303
0.0058999853
0.004565104
0.0025046756
0.004110393
0.003906611
0.002417863
0.0019280976
0.0017420134
0.0030487936
0.003728111
0.003294688
0.0026057507
5.538822E-4
-1.640779E-4
9.6426014E-4
8.9621113E-4
1.544339E-4
-6.2023185E-4
-0.0018207327
-0.0011049983
0.001135598
7.920472E-4
-4.011237E-4
1.3517222E-4
1.1432813E-4
7.72414E-6
5.0880486E-4
8.169108E-4
0.001800131
0.002574535
0.003173153
0.0043906337
0.004096495
0.00268437
0.0028298527
0.0033022966
0.0027011845
0.0027921863
0.0022358978
1.2867952E-4
4.609086E-4
0.001814807
0.0011205454
0.0014526561
0.0024029047
9.37564E-4
-0.0010772035
-4.0570958E-4
0.0021326437
0.0028715327
0.0015429922
4.7848833E-4
0.0018982094
0.003921324
0.0012796434
-4.153464E-4
0.0023026844
0.0020842524
0.0026867823
0.0037051507
0.001176823
0.003298578
0.004037427
9.250327E-4
0.0014823754
-8.892592E-4
1.7774153E-5
0.0048949393
0.0031884261
0.0041460195
-3.817093E-4
-0.012445615
-0.007476047
0.0036351962
0.0050590388
0.0046092626
0.001838973
-2.5852848E-4
4.8729117E-4
0.0010453695
0.0027073752
0.0025228441
0.0016702749
0.0012427917
-1.2672787E-4
0.0014113866
0.0010946463
-0.0017513493
4.8869247E-6
0.001377628
0.0011286575
0.003196405
0.003935115
0.002661288
0.001276827
7.4343366E-4
9.702368E-4
7.017448E-4
0.0013712663
0.0021121963
0.0027220042
0.0045227692
0.0044047013
0.0033618512
0.002986723
0.0017056786
9.421203E-4
1.6488519E-4
1.9139101E-4
0.0016048547
0.0011715174
8.3960744E-4
0.0014419713
2.976071E-4
-0.0016085936
-0.0021387814
-0.0012985467
-5.9765327E-4
9.6904655E-4
0.0016174956
-3.4313273E-4
-1.4073815E-4
6.6185785E-5
-0.0016291683
-0.0012605157
-9.085025E-4
2.0317647E-4
0.0031926367
0.003379848
0.0017393637
0.0034806412
0.0067645977
0.005544598
0.0029782944
0.00131483
-0.0014089061
-6.665212E-4
-1.13678965E-4
-0.0015939128
-8.2502214E-5
-1.6091776E-4
7.34376E-5
0.0014657056
-1.802442E-4
-2.1803268E-4
-2.045396E-4
2.014976E-4
0.0027019654
0.0020287586
0.0014932296
0.0018460568
0.0020467774
0.0041763643
0.0030109307
3.4582432E-4
0.001038321
0.0016567714
0.0014318037
0.0017833204
0.002596876
0.0043732035
0.00479922
5.8200996E-4
-0.0028596662
-0.0024560902
-0.002647088
-0.0013155158
-0.0012601413
-0.0039028309
-0.0013929002
0.001082384
5.6077895E-4
0.0013385557
6.0490856E-4
-5.0777075E-4
-0.001593815
-0.001674201
9.306615E-4
0.0019190954
0.0027971922
0.0038565025
0.0040234276
0.004880652
0.002434056
-4.0485195E-4
3.2753844E-4
2.908796E-4
-4.4261554E-4
1.6146837E-4
0.001450467
0.0015058692
9.86094E-4
0.0024150724
0.0037932694
0.0039258255
0.0019666913
-0.0016368125
-0.002144337
-0.001189708
-0.0011160973
5.4583023E-4
0.0017677834
0.0015161774
0.0016246991
8.6012686E-4
4.501047E-4
0.0015165162
0.0011389838
5.416234E-4
6.548691E-4
4.769746E-5
4.120437E-4
4.597853E-4
8.527761E-4
0.0025473179
0.0017346187
0.0016552532
0.0016079708
-0.001547529
-0.0011215296
5.216318E-4
-4.1553698E-4
1.12074355E-4
4.2394435E-4
-5.6167174E-4
-0.001696529
-0.0015121407
4.4928052E-5
9.828296E-5
0.0012914558
0.0033624189
0.0030770795
0.0020594364
-2.9212594E-4
-0.0020275053
-0.0015786007
-0.0024076744
-0.0026461368
-9.0536557E-4
7.1786076E-4
0.00285091
0.0033313523
7.273458E-4
6.3413405E-4
0.0031951196
0.002536586
9.0815744E-4
0.001316681
0.0016807837
0.0023473948
0.00289721
0.0024345482
0.002382229
0.0024008795
0.0014825211
0.0014715468
0.0024272467
6.37937E-4
-6.312567E-4
0.0013533517
0.0014090758
0.0016981912
0.0036228604
0.003396927
0.0010717578
-0.0033122757
-0.0045301123
-0.0033203776
-0.00493369
-0.0032027084
-0.0020241577
-0.004645812
-0.0022917807
-3.0955268E-4
-0.0026894524
-0.0034639637
-0.0025359672
-0.0012699531
-6.2743295E-4
6.599421E-4
0.0031957303
0.00373649
0.0035267551
0.0049488153
0.004796879
0.0019246555
0.0013774879
0.002597084
0.0028921736
0.0048730513
0.0056029423
0.004753868
0.0048298114
0.0029460876
0.0027487364
0.0038188247
0.0028526597
0.0033601
0.0019451202
-0.001010745
-0.0022854605
-0.0049164905
-0.006751223
-0.0070718178
-0.006152231
-0.0040848358
-0.0032249854
-0.0012101623
-2.557687E-4
-8.998338E-4
5.399772E-4
1.7649702E-4
-0.0010356152
-8.974567E-4
-5.062781E-4
0.0011396045
4.902192E-4
-6.430787E-4
9.6684945E-4
0.0018004862
0.002896258
0.003504125
0.0027442474
0.0032889105
0.0027792538
3.694292E-4
-0.0019460415
-0.0021630826
-1.0506782E-4
3.5787458E-4
3.4675418E-4
0.0018084502
0.0026970436
0.004113296
0.0046520135
0.0029838302
0.0038361333
0.005063861
0.002094651
1.7891031E-4
2.2396773E-4
-0.0021798331
-0.0033948768
-0.002608912
-0.0035857211
-0.0036253869
-0.0018727554
-7.485963E-4
2.4906814E-4
6.7862717E-4
4.5072398E-4
2.53841E-4
-0.0010963179
-0.0032539219
-0.003492788
-0.0013940097
-6.62835E-4
-0.0019745382
-0.0019396483
-0.0011252007
-2.7016056E-5
0.0026925346
0.0039835963
0.0035075452
0.0045548095
0.005463095
0.005317874
0.0048531434
0.0015572548
-0.0021587312
-0.0014644789
0.0010220021
0.0012845029
-0.0012671071
-0.003993071
-0.0030692404
-6.529893E-4
-6.4622285E-4
-0.0020253593
-0.0023859781
1.21669305E-4
0.0028147644
0.0014187393
-5.2806694E-4
-3.4880952E-4
5.478417E-4
0.0030198835
0.0032369015
-3.5798887E-4
-0.0015534536
-9.0412603E-4
2.3349615E-4
0.0028369522
0.0016118744
-0.0017144055
-0.0020687638
-0.0027231995
-0.0030112956
-0.0018002321
-8.999874E-4
0.0016673509
0.0032313392
0.001736308
8.3428883E-4
7.2009553E-4
3.6531256E-4
-0.0014037165
-0.0024289812
5.252993E-5
0.0012838916
0.0017748943
0.0033296165
0.0025889426
0.0021367096
0.0013934592
-9.2281334E-5
7.9250964E-4
-2.419233E-4
-0.0010882067
9.2091894E-4
0.0011501334
0.002553663
0.0039380086
0.001572641
-7.548443E-4
-0.0026384413
-0.0031516578
-0.0030993472
-0.0048718704
-0.0047276216
-0.003278616
-0.001348571
0.0013198986
0.0010404963
2.2477642E-4
1.3048961E-5
-5.124925E-5
0.002113323
0.0011438007
-0.0015690534
-5.292559E-4
-0.0017801247
-0.0037019674
-0.0019377104
-0.0019113728
-0.002631859
-0.0028608292
-0.0040231016
-6.232566E-4
0.0057349955
0.008151209
0.0086807655
0.010142681
0.00982672
0.0061596134
0.0031634574
0.0017992216
-7.850232E-4
-7.589366E-4
0.0011083966
0.0012205205
0.0035611321
0.00488514
0.0031465935
-4.885381E-4
-0.010539461
-0.015967041
-0.009213589
-0.0032907464
-0.002147446
-0.0039291945
-0.005876876
-0.0035542417
-0.002585239
-0.0029837477
-0.001105757
-0.0016643078
-0.0031346818
-0.0013669578
7.9267775E-4
3.117662E-4
5.6978106E-4
0.004503033
0.0057995412
0.0047475933
0.0075657917
0.008774873
0.00804351
0.011607956
0.011313472
0.002126451
-0.0043580947
-0.0026682236
4.7522184E-4
-0.0017076079
-0.0093918275
-0.013173483
-0.009805695
-0.0065441076
-0.0021170601
0.003863322
0.004608855
0.0026214009
0.002742729
0.002468525
3.572507E-4
-4.6568233E-4
-0.0016552507
-0.005963534
-0.0054452615
8.3095604E-4
0.0033272286
0.0024686519
0.0021555885
0.0023335794
0.001400736
-3.7742368E-5
6.478257E-4
1.1463679E-4
-1.4100246E-4
0.002072704
0.0012841525
0.0012680255
0.002272753
-0.00102203
-0.0027695447
-0.00211867
-0.002624382
-0.002210692
-0.0010140076
-2.935233E-4
-3.3101212E-4
3.2799967E-4
0.0018612504
0.0012329058
-9.8482116E-5
3.2044417E-4
5.751906E-4
-5.659967E-4
-0.0017209118
-0.0018080258
-0.0011889517
1.9731006E-4
9.730115E-4
3.4458855E-5
-0.0013513361
-0.0027005952
-0.0026694308