-0.0027082423
-0.0041733016
3.4519377E-5
0.00517181
0.007696898
0.009271993
0.008427895
-8.653282E-5
-0.007099937
-0.006893802
-2.931816E-4
0.011162497
0.013339973
0.008905671
0.0063939327
0.006184345
0.00843729
0.002286024
-0.003662706
-0.009049413
-0.020942433
-0.009141402
0.018731534
0.031209672
0.026156435
0.0033666084
-0.013207053
-0.016029224
-0.02378929
-0.024737423
-0.017569698
-0.010586298
-0.0030795704
-0.0024361885
-0.0025416631
0.0019120581
0.0023423096
-0.0021493789
-0.005705907
-0.007804959
-0.008582847
-0.0029925415
0.0030276373
0.0070594954
0.01466223
0.017359547
0.015325206
0.010532281
6.915387E-4
-0.0010395685
0.004516406
0.0060864617
0.0030949435
-0.0012290226
7.986984E-4
0.008136349
0.011270979
0.004273469
-0.006199943
-0.008607349
-0.008142059
-0.0074786837
-0.005888405
-0.0020357731
0.011140309
0.012745011
-0.002200977
-0.0066948663
-0.009969482
-0.018708678
-0.017234696
-0.011038849
-0.0063781226
-0.0012220053
0.0067799804
0.015856992
0.018010883
0.012076599
9.487369E-4
-0.00605372
-0.0055116075
-0.0037274417
0.001609191
2.8648932E-4
-0.0044143517
0.009407746
0.01845001
0.0069026332
-0.005447178
-0.012185833
-0.0025373432
0.006520143
-0.0058664214
-0.0025321268
0.01057678
8.335362E-4
-0.0032955136
-4.4173026E-4
-0.010603057
-0.0152595965
-0.010954549
-0.004054944
0.0046091895
0.004816866
0.0031363273
0.007050676
0.006866012
0.001775948
-0.005023585
-0.012383664
-0.013323542
-0.007959639
-0.0029552542
0.0017708514
0.0060047684
0.008204663
0.010460161
0.0072344397
-0.0022310815
-0.004652057
-0.00313619
-0.0040814895
7.998345E-4
0.0067610973
0.015855527
0.030485721
0.021849567
-0.003539234
-0.011771591
-0.011999378
-0.009431996
1.8796085E-4
0.005035989
0.0076023936
0.0054652006
0.0019886217
0.0074294326
-0.0013249392
-0.021741712
-0.024816448
-0.01803897
-0.0117516965
-0.005136749
1.9814866E-4
0.0050773965
0.008303563
0.009418002
0.0032868357
-0.006672362
-0.009766786
-0.010330944
-0.0065567507
0.0034387843
0.008615794
0.007043334
0.0065851044
0.011531195
0.0074704723
-0.008472221
-0.012776446
-0.006856305
-0.0015198116
0.0037813012
0.0041931765
0.005704028
0.00760013
0.0027805057
-0.0015765176
-0.0066716005
-0.009733153
-7.2098366E-4
0.012272576
0.016973471
0.009692446
-0.0018383749
-0.0021972682
0.006254561
0.0047255913
-0.004331738
-0.0041432115
0.0016044191
0.0066355267
0.0076607196
0.0027079557
0.007803965
0.017241498
0.013157311
0.0052073915
-0.009415462
-0.029459087
-0.031440303
-0.016044991
-3.6581597E-4
-9.1566204E-4
-0.012202657
-0.008277719
0.0015652949
-7.961112E-4
-0.0074114804
-0.01209287
-0.010556828
-0.005104929
9.677633E-5
0.007212712
0.0109271845
0.015746213
0.019309515
0.005614468
-0.006684027
-0.0028603438
0.001000937
0.009254606
0.018772684
0.008456391
-0.002132374
0.0075208503
0.013862029
0.0065887943
-0.0023699254
-0.012999651
-0.017708385
-0.010135838
-0.0047881273
-0.0021585822
0.0036850504
0.0031956509
1.1837107E-4
3.5670286E-4
-0.0034863625
-0.005563167
0.0017756878
0.010143897
0.008396447
-6.279935E-4
8.85332E-5
0.008865116
0.008873465
3.8808215E-4
-0.008844332
-0.01079144
-0.0048721936
-0.003521243
-0.009427438
-0.012639998
-0.006981141
-0.0017316513
-0.0027955396
-0.0030108935
-0.008396887
-0.01561921
-0.010898447
-0.005110288
-0.004726151
-0.0015995809
0.007846399
0.018400352
0.01976211
0.012976539
0.0013578413
-0.006056277
-0.0016196339
0.002354686
0.0064573428
0.012896162
0.016668456
0.020414358
0.016068386
0.013537385
0.013465515
-0.008742031
-0.026205957
-0.018966712
-0.0149575155
-0.014694
-0.008806368
-0.0025897692
0.0033919343
0.00458869
-0.0027564412
-0.005642636
0.0023980208
0.0041431184
-4.4299624E-4
-0.0011742582
-0.0036011715
-0.0019456558
0.002068965
5.47209E-4
-0.001967605
-0.008355667
-0.007539112
-4.7670078E-4
-0.0071870447
-0.008448547
0.0037385083
0.00860745
0.009703633
0.011175015
0.0048974208
-0.010772195
-0.019164436
-0.009232516
-0.002248449
-0.0015302249
0.0050176578
0.01161021
0.020844666
0.02366813
0.009774694
9.197318E-5
6.318455E-4
0.0025872386
0.0051563475
0.0036772722
0.0016878672
0.0031291463
0.0031156593
-9.7299233E-4
-0.009736795
-0.017425206
-0.018654868
-0.013161745
-0.0046292357
-0.0010836027
0.0013770203
0.0059578363
0.005909608
0.0028349499
-0.0041639744
-0.012953103
-0.012582659
-0.004904566
0.0024144365
0.0039057005
0.0046088826
0.013364741
0.015302627
0.0045971125
-0.0031797045
-0.006795852
-0.004185705
0.004799134
0.0062132827
0.0031045692
0.0051370645
0.0079003265
0.006709406
0.0011317466
-0.005174182
-0.010507507
-0.013295252
-0.008148951
-6.097507E-4
0.006990289
0.013783697
0.0042655584
-0.0070813578
1.23722775E-5
4.9996324E-4
-0.008595099
-0.0066401344
-0.0016660925
0.004066095
0.009569143
0.009986113
0.014880871
0.010498891
-0.006353002
-0.009115709
-0.0081781205
-0.011629863
-0.00528404
-0.002747886
-0.005667516
-0.001684641
0.0039306288
0.009088611
0.007322543
-0.001986902
-0.0074230493
-0.007888814
-0.0010073993
0.0072383545
0.004623793
5.28225E-4
0.0040522045
0.0079090465
0.006126843
-2.548506E-5
-0.004936453
7.47356E-4
0.010364825
0.0045923195
-0.0056374557
-0.0032086947
0.0031876194
0.007205737
0.0048528994
-0.0022794285
-0.006912762
-0.009912816
-0.008051099
-0.004669272
-0.002081837
0.0032290732
0.0024240778
0.0012820509
0.0047169384
9.787824E-4
-0.005478463
-0.008783444
-0.007919471
-0.0031278925
-0.0015154248
-4.417843E-4
0.004833079
0.012876435
0.01258085
-0.0055032526
-0.021808911
-0.02097811
-0.012614898
-0.0042832107
8.2772033E-4
0.0046911063
0.012225494
0.02108833
0.025058068
0.01682208
-1.0433074E-4
-0.0035748477
0.0094548045
0.008510411
-0.006791785
-0.0067462884
0.003211681
0.0078615025
0.008336961
0.0018846885
-0.0053095035
-0.0068268334
-0.005614178
-5.5735646E-4
0.0010713744
-0.006888442
-0.0111937355
-0.0049795136
-0.00179831
-0.008610237
-0.015383825
-0.0157738
-0.011402951
-0.0053086528
-0.0011583087
0.0014472371
0.005605498
0.011061111
0.0124701
0.0067323404
-0.0018199692
-0.0054158075
-2.1851932E-4
0.0054540215
0.0078135505
0.01312693
0.01602246
0.012874945
0.0070354813
-0.0033515838
-0.013647369
-0.017543312
-0.014426735
-0.007646681
-0.0024972463
0.0050094314
0.015397941
0.017321702
0.008284976
-0.0023965165
-0.008613698
-0.009080779
-0.002977572
0.002032928
0.001293578
0.0043597855
0.0100527555
0.010278403
0.0076760747
0.0034442025
-0.001383359
-0.003747609
-0.0041244477
-0.002657874
-0.0020223465
-0.004593168
-0.0065181
-0.0075783883
-0.010738201
-0.012349415
-0.013733485
-0.017598068
-0.014173716
-0.004423284
0.0017207399
0.006912182
0.010621476
0.008607282
0.004009736
-0.0013947269
-0.0078062727
-0.007157107
0.002967506
0.006996488
0.007993553
0.014858895
0.017242754
0.027926318
0.03870996
0.016484803
-0.011075955
-0.02114809
-0.023245793
-0.0059095956
0.014911007
0.013837041
0.0036085339
-6.644882E-5
0.002623325
-9.492004E-4
-0.010695311
-0.013743164
-0.013466658
-0.013800196
-0.011542685
-0.0068256157
-0.0015309295
0.0017152766
0.0012454113
-0.0043817507
-0.011126417
-0.01148092
-0.0033766879
0.0055987043
0.0063227904
0.0069874953
0.012384863
0.013960406
0.011832414
0.0036232509
-0.008861329
-0.012207876
-0.006752957
-8.88627E-4
0.0012121176
0.0014545594
0.006122984
0.013290753
0.014674239
0.0077775954
-2.9534186E-4
-0.0070665996
-0.010894193
-0.003270635
0.0033477976
1.651326E-4
0.0023990744
0.0063569695
0.0053656343
0.002714702
-0.0025043336
-4.3896827E-4
0.0065851184
0.0050869146
-9.6203876E-4
-0.004626532
-0.0020426938
0.002028951
-0.0027980816
-0.013766247
-0.019358866
-0.014268223
-0.007492845
-0.0017883027
0.004466926
0.004329056
0.0063304645
0.010594113
0.006844408
0.002599602
-0.0045806705
-0.008828742
-0.0016304002
-8.458388E-5
-6.5152376E-4
0.005458515
0.011618351
0.016184693
0.012554589
0.0038519064
-0.004850598
-0.010150278
-0.0035711178
0.0011362531
0.0034608599
0.011504313
0.0073954384
-9.5935445E-4
-4.4528002E-4
-0.0037341665
-0.00794001
-0.008903152
-0.010994149
-0.010626416
-0.0056352858
0.0018278006
0.006256875
0.008218027
0.011543056
0.0063427193
-0.010237392
-0.020496748
-0.016025187
-0.007755386
-0.0015419086
0.005762081
0.010272418
0.008341815
0.0054179407
0.0034786167
5.973321E-4
-0.0011800424
-0.004780403
-0.010903295
-0.007301593
0.004330771
0.010161704
0.011959357
0.010994861
0.003476129
-0.00414102
-0.005893085
-0.0019999156
0.00399977
0.007318053
0.007865594
0.008504503
0.010162234
0.008452282
0.0015886944
-0.0053402833
-0.0108608855
-0.012814693
-0.009879933
-0.005246571
9.400007E-4
0.0049104816
0.005935269
0.0038844314
-0.006678272
-0.013521068
-0.011451568
-0.012393944
-0.008546473
0.001974021
0.0057283086
0.005278083
0.007471375
0.009362335
0.0043306537
-0.006159924
-0.013153941
-0.011092445
-5.921654E-4
0.0057789586
0.003951316
0.0075520026
0.01708601
0.02061352
0.011137873
-0.004587846
-0.011895625
-0.007144393
9.5021364E-4
9.0927107E-4
-0.0016440314
4.103366E-4
8.8942726E-4
0.005029395
0.0021410102
-0.015608684
-0.020594977
-0.01294274
-0.0051487293
0.0032876073
0.0074760467
0.016896594
0.019715648
0.0038979906
-0.008431565
-0.018241948
-0.022572605
-0.013336085
-0.00810781
-2.2225731E-4
0.014425481
0.022085208
0.025527531
0.024246216
0.020953882
0.0104477145
-0.012218486
-0.016703077
-0.0055013564
-0.008639513
-0.012228872
-0.006459845
-0.0032805265
-0.0035044674
-0.0075667407
-0.012534222
-0.012121269
-0.0066027264
9.736209E-4
0.007907185
0.014605191
0.016751125
0.0102243265
0.0021132391
-0.0046858806
-0.012108957
-0.013578111
-0.003881738
0.0076212627
0.013060164
0.020101849
0.024181245
0.014217166
0.003649247
-0.0011397486
-0.0098133
-0.01747192
-0.017740717
-0.013426938
-0.0070081307
-7.687424E-4
0.003397083
0.002922508
-0.0016404057
-0.0058406997
-0.009145153
-0.010269139
-0.00668206
-0.0022271562
1.6806505E-4
0.0019795373
0.0050366167
0.010587816
0.015042468
0.014009091
0.0047308058
-0.0070581213
-0.005864316
-5.9257826E-4
-0.0047024298
-0.001977481
0.0064074183
0.008760391
0.008845153
7.2893855E-4
-0.009510831
-0.009009328
-0.0039893757
-2.5789908E-4
0.0012846766
0.0026144658
0.0011764547
-0.0013563648
2.3010875E-4
-0.0041716206
-0.0072615365
-0.0019278539
0.0050054295
0.017902533
0.01694768
0.008706556
0.021779459
0.021921888
0.002715912
-0.005829937
-0.012978468
-0.020220941
-0.021663504
-0.01867515
-0.011454094
-0.0062959343
-8.2131557E-4
0.005539125
0.00890627
0.0058154454
-0.0031276469
-0.00884207
-0.013893176
-0.015340046
-0.007110723
5.13144E-4
0.0035553065
0.0034082017
0.0042410027
0.0026040345
-0.0067404546
-0.009783473
-0.0039291186
0.0070049935
0.015953014
0.014945179
0.020838983
0.026067853
0.015785186
0.0034396192
-0.012035957
-0.023506768
-0.020304855
-0.012636411
-0.005595466
-2.226043E-4
0.0057968665
0.01130413
0.018143052
0.023211949
0.012471891
0.002772105
-0.0060494686
-0.021827884
-0.011697838
0.004837717
-9.5611904E-4
-0.0020363675
9.755369E-4
-0.0028573372
-0.008858217
-0.014618977
-0.011905045
-0.004971918
0.0018486301
0.009277096
0.012197105
0.0110617345
0.0052964794
3.280079E-4
-2.777343E-4
-0.0023402153
-7.1348157E-4
-0.00192902
-0.012162639
-0.009154409
0.004326534
0.007191611
0.0070112944
0.0043326765
-0.006775408
-0.013055913
-0.010422789
-0.0029522704
0.0038996353
0.0029782308
0.003994549
0.0090204105
0.008203562
0.0043528
-0.0031726724
-0.010382796
-0.0073627704
-0.0027057892
-0.001776053
8.559534E-4
0.0038154288
0.0064802524
0.007776121
0.0032484257
-0.0044957595
-0.010875408
-0.0103237955
0.0018085473
0.011158043
0.0069463067
0.0028857419
0.0110342875
0.027967272
0.026951917
-0.003040863
-0.023689784
-0.021517511
-0.0138552915
-0.0025376487
0.0011883856
-0.0012282359
0.0048712883
0.0089417035
0.0048168213
-0.004583949
-0.013892626
-0.011781049
-0.008024917
-0.010940017
-0.009665115
-0.003128269
0.005267647
0.012276477
0.01042314
3.819191E-6
-0.012430131
-0.01726112
-0.011096668
-0.0046036607
8.160913E-4
0.011981296
0.02359191
0.030838935
0.025683522
0.0019690273
-0.017288709
-0.0183326
-0.013011559
-0.0041162856
-0.0038327188
-0.016669499
-0.017573977
-0.007737947
-0.00710978
-0.014051335
-0.017501434
-0.01309676
-0.011400655
-0.013437409
-0.010667651
-0.010288902
-0.009457482
-0.00530906
-0.010294396
-0.019773671
-0.025487773
-0.023044202
-0.0060359268
0.008838832
0.010334775
0.015978035
0.025242653
0.026867142
0.028178895
0.023297124
0.01114059
0.012408592
0.019137401
0.022522338
0.035221983
0.045285676
0.05193488
0.068105645
0.07268397
0.059396245
0.04629564
0.037180193
0.032113302
0.025458101
0.016034385
0.010642779
0.0032133306
-0.008014708
-0.020009374
-0.03653643
-0.0543132
-0.06302937
-0.05981369
-0.05588127
-0.05274178
-0.035813645
-0.006856267
0.016148333
0.019729964
0.004292337
-0.0135602895
-0.026548484
-0.054225516
-0.10581284
-0.15859698
-0.2001952
-0.22833781
-0.23927689
-0.2568943
-0.27122542
-0.23000377
-0.14081435
-0.051230825
0.02159691
0.10352965
0.19473757
0.24953772
0.30640316
0.3908151
0.4001277
0.32381368
0.2542687
0.21488675
0.20538385
0.2412641
0.28060487
0.23097585
0.13485824
0.13096984
0.18122622
0.22712652
0.28856668
0.2126277
-0.054187138
-0.29638278
-0.49061552
-0.7073058
-0.7954995
-0.69392055
-0.5134182
-0.3549895
-0.2825363
-0.23204213
-0.17808253
-0.18488428
-0.15669386
-0.05374892
0.029133033
0.104823686
0.19255243
0.27384117
0.3063709
0.2610705
0.22426555
0.22324261
0.23459658
0.25108194
0.19530323
0.09547514
0.044249568
0.049360145
0.093382105
0.10854121
0.11417393
0.18164176
0.22553067
0.19525144
0.13122371
0.043294713
-0.05069923
-0.12723172
-0.15564609
-0.15660872
-0.1748109
-0.16991302
-0.13586041
-0.09236761
-0.036795978
-0.04083901
-0.09595965
-0.10341615
-0.0870516
-0.09034114
-0.09634524
-0.10958364
-0.12525065
-0.13264346
-0.122289434
-0.088925846
-0.075890206
-0.07363143
-0.009689855
0.083886676
0.13296358
0.1529877
0.16496238
0.15867388
0.1515122
0.15031582
0.13451535
0.11378276
0.09990271
0.07914449
0.053764433
0.028951025
0.006618514
-0.010524324
-0.042283688
-0.07844863
-0.089969285
-0.10207727
-0.1185962
-0.10352125
-0.06822881
-0.040093508
-0.019135417
0.006609994
0.032808278
0.026713751
-0.0058456725
-0.020862907
-0.018581774
-0.016519517
-0.014014739
-0.012187942
-0.0068527265
0.0012463356
0.0074317255
0.014880493
0.02164539
0.02773766
0.027387323
0.015962195
0.009825957
0.008021965
0.003180948
0.007064614
0.01142677
0.006904744
0.0012793327
-0.008304793
-0.017465696
-0.014915524
-0.0025065283
0.014126388
0.02458686
0.027988363
0.037201803
0.043270975
0.02800831
5.8165006E-4
-0.016640825
-0.016320245
-0.011217735
-0.010239465
-0.008225859
-0.0031420947
0.0072665797
0.013913114
0.0036606395
-0.0067127175
-0.010250031
-0.01150917
9.794042E-4
0.011750909
0.0073587853
0.0046913465
0.006589431
0.0053912727
-0.009679664
-0.033925798
-0.04304041
-0.040933114
-0.04024067
-0.036773626
-0.029039165
-0.018031463
-0.010236901
-0.0115017705
-0.015856642
-0.011728372
0.0028527493
0.017051922
0.029014755
0.037196808
0.033989944
0.02507918
0.016416902
0.008135673
-0.0022968345
-0.013181793
-0.0100251455
0.0061048665
0.021977436
0.033643875
0.03957072
0.045818817
0.053207807
0.045383714
0.0132288495
-0.023805974
-0.0399046
-0.04573217
-0.05147606
-0.042686433
-0.03474392
-0.035818286
-0.022249402
-0.006352186
-0.001980232
0.0029129798
5.175611E-4
-0.0038905023
0.004552417
0.013304356
0.022377245
0.036160298
0.042520985
0.037374046
0.021049792
0.0016080269
-0.011594873
-0.018746851
-0.015832406
-0.009179908
-0.009250432
-0.009433176
-0.00450867
1.7622988E-4
-0.0015316522
-0.00415244
0.0020996719
0.012214665
0.015660739
0.0081218155
-0.0030769648
-0.007150304
-0.004960886
-0.0023665193
-0.005221956
-0.012186303
-0.015309116
-0.012034752
-0.004553063
-3.5897078E-4
0.0013431341
0.0047819484
0.0011351673
-0.0054219533
-0.0073814415
-0.012334413
-0.015130021
-0.010597813
-0.0077623487
-0.007230938
-0.0080458885
-0.007159207
0.007632352
0.023934238
0.021183813
0.013310199
0.014449189
0.019994652
0.027187785
0.04378808
0.068618886
0.07459751
0.074854195
0.0777517
0.02242912
-0.05397328
-0.06782671
-0.060787536
-0.061124623
-0.054095402
-0.050066758
-0.040238936
-0.030039767
-0.024596289
-0.017846506
-0.02301046
-0.026345408
-0.019288903
-0.01185361
-0.0029710606
-0.005712608
-0.007939409
0.007916837
0.01779711
0.017669437
0.018917896
0.020449247
0.026779797
0.032469016
0.032746177
0.03466578
0.036322642
0.03336571
0.022661926
0.004026024
-0.009748473
-0.013580432
-0.015600606
-0.016116232
-0.013795461
-0.011021697
-0.0073265736
-0.0027331018
0.0011081656
6.068717E-4
-0.0042814543
-0.008419972
-0.008564497
-0.00485664
-0.0023493285
0.0010971186
0.010638337
0.01708849
0.0149744265
0.0048321662
-0.008646486
-0.011532487
-0.0056898044
3.780347E-5
0.0043223733
0.0052733673
0.00634847
0.002999448
-0.006531237
-0.011758763
-0.016139822
-0.015146539
-3.8632515E-4
0.008742721
0.0023015388
-0.002930537
0.004096679
0.011984305
0.0061546424
-0.0066920156
-0.014367221
-0.01245605
-0.005800586
-0.0034626496
0.0014206639
0.010905931
0.017075928
0.022031382
0.020627473
0.013015203
0.005406489
-0.0057490654
-0.009387305
-0.004333102
-0.0053629535
-0.0041933325
0.0037962326
0.010835283
0.013193321
0.005184031
-0.007729785
-0.016518617
-0.017532788
-0.008649436
-6.8387954E-4
6.255469E-4
0.004752524
0.011948037
0.011254191
0.001986496
-0.004654957
-0.0065980502
-0.006975246
-0.0058224937
-0.0055321753
-0.0031220256
0.0023764584
0.006412168
0.0050128787
-0.005328438
-0.013721174
-0.012423769
-0.0093260715
-0.003903453
0.0033799764
0.007180033
0.008147013
0.006295824
0.0029423775
-0.001534864
-0.006408503
-0.0072051072
-0.003564173
0.0022936517
0.006764353
0.008493065
0.010422143
0.012154362
0.012465077
0.010398145
0.0050086696
-0.0018770588
-0.0070971474
-0.0073928847
-0.0046327505
-0.003049734
-0.0011360297
0.0034757087
0.005751108
-1.2340174E-4
-0.008913272
-0.012957974
-0.010135678
-0.0052779815
-0.006153737
-0.0050772373
0.002411993
0.0046191453
0.002978166
-2.5218894E-4
-0.010135853
-0.016970696
-0.011960371
-0.0013337224
0.006312267
0.009196649
0.009224555
0.008296516
0.008789324
0.00668072
-1.037734E-4
-0.0034193702
-9.7350805E-4
0.0019285696
0.0035228543
0.0052732727
0.006555813
0.0075768298
0.007329119
6.334224E-4
-0.007990247
-0.011359207
-0.007824359
0.0036604605
0.011448586
0.010371884
0.009816172
0.005761018
-0.0020680488
-0.0054751695
-0.008612728
-0.012000999
-0.010038789
-0.0061967256
-0.005195548
-0.003995187
4.241881E-4
0.007557155
0.012740291
0.006004643
-0.0074393325
-0.011652141
-0.008850279
-0.0070582363
-0.004958901
-4.1176705E-4
0.0029335015
0.0020074437
0.002962076
0.0033937988
-0.0031454233
-0.0063793696
-0.0042687557
-0.0034052255
0.0025612281
0.011515391
0.013158209
0.010710501
0.007457813
-6.703224E-4
-0.010499894
-0.012511774
-0.0060622743
3.4962912E-4
0.0053071235
0.010299759
0.011669654
0.012215636
0.012037541
0.0074021607
1.343489E-4
-0.012719824
-0.019287843
-0.0074507697
1.1881416E-4
-0.002622879
1.7356906E-4
0.0038400094
0.0027785997
-0.004867238
-0.015034853
-0.015947487
-0.010716365
-0.0035219863
0.0037070971
0.004529135
0.0037982294
0.0066230195
0.007862697
7.1773597E-4
-0.011461504
-0.014835458
-0.008832696
-0.0030869027
0.0016465659
0.006437855
0.009465837
0.012120546
0.014230649
0.0072261943
-0.0047988603
-0.0057107187
-2.9868417E-4
0.0022205466
0.0045967526
0.0063490504
0.007905512
0.0078030243
0.0048219897
4.6688705E-4
-0.008123175
-0.013690472
-0.011690008
-0.008664034
-0.0016936539
0.0063237986
0.010229928
0.011101539
-4.1855758E-4
-0.017218394
-0.019001702
-0.012365141
-0.009713828
-0.008863452
-0.004935866
0.0030354075
0.008560501
0.009683013
0.010332151
0.0067163524
-0.0016832942
-0.0057719494
-0.0021563377
0.0015915196
0.00120865
0.0026209075
0.005476009
0.0068535395
0.008539734
0.0033577892
-0.0072848257
-0.009921682
-0.0054457043
0.0021854828
0.010668958
0.012325017
0.007728539
0.002568022
-5.2384223E-4
-0.003391263
-0.007967867
-0.010647531
-0.011491164
-0.009197198
-0.0033869667
-5.1615626E-4
0.002483968
0.005727979
0.0041423454
0.0011571462
-0.0050084707
-0.011622228
-0.011356254
-0.006250303
0.0025545107
0.0081004985
0.00772853
0.009006672
0.007139603
0.0020234494
-5.4748746E-4
-0.0046068938
-0.006226348
-0.0019382185
0.00126986
0.0026416592
0.006708557
0.011966575
0.010646701
0.0037469387
6.4775685E-4
-8.2831155E-4
-0.005335076
-0.0071251527
-0.0031782966
0.0016569614
0.0036995052
0.004893361
0.0055760653
0.0028078374
-0.0013714505
-0.0042546093
-0.005446609
-0.003341457
-9.816712E-4
-4.259453E-4
0.003207479
0.008005658
0.005074929
-0.005894563
-0.0146294525
-0.015140744
-0.013088157
-0.010300658
-0.0024645962
0.004954593
0.00621731
0.007062322
0.009156422
0.006589675
-5.304182E-4
-0.006694526
-0.007787165
-0.003741464
1.7976778E-4
3.372359E-4
5.4882345E-4
0.004921403
0.010065804
0.00868317
-1.5146147E-4
-0.007802877
-0.0069882968
-7.393611E-4
0.005470101
0.008415272
0.0069924854
0.006742299
0.0073319133
0.002157841
-0.0047427216
-0.009254354
-0.010491846
-0.0067751217
-0.0034749173
-0.001558678
0.0027212407
0.008466914
0.012454225
0.00853893
-6.7596044E-4
-0.0074254847
-0.010957382
-0.008350026
-7.8162435E-4
0.0039799185
0.004566943
0.004496499
0.0042099007
-5.452237E-4
-0.009087
-0.014905742
-0.013658538
-0.0069000274
-0.0023279577
-1.4807552E-4
0.0028493472
0.0047986344
0.0071200994
0.0033894912
-0.008632461
-0.013700463
-0.009839959
-0.004910301
6.911658E-4
0.0049067233
0.007821348
0.01120078
0.013312826
0.012554403
0.0075668157
0.0017095598
-7.759844E-5
-0.0014569255
-0.0037923655
-0.0019413484
0.0011367046
0.003435901
0.006635642
0.0032611424
-0.0052779103
-0.008684302
-0.0071812253
-0.0034810589
1.2403745E-4
0.0018795975
0.0022637094
0.001513554
0.0010852561
-0.0022506963
-0.008931601
-0.013631805
-0.014900204
-0.010974138
-0.005695905
-0.001954045
0.0042295605
0.008199643
0.008776471
0.007681786
7.528716E-4
-0.0064142775
-0.0067631663
-0.0011669659
0.005619621
0.00890824
0.010899846
0.011504766
0.007892457
0.002990957
-0.0015787429
-0.0054438943
-0.0044479063
-4.21998E-4
-6.121062E-4
-2.259368E-5
0.0031122963
5.409397E-4
-1.01110105E-4
3.3561487E-4
-0.0085640075
-0.015276362
-0.016328229
-0.013731395
-0.0031404835
0.0030107982
0.004020527
0.008904454
0.0077860793
4.8779222E-4
-0.003856682
-0.006889884
-0.0068250364
-8.405259E-4
0.0045731394
0.005993841
0.0071252547
0.010152306
0.012893592
0.008564503
-0.002355169
-0.008718976
-0.006861712
-0.0018136643
0.0012356675
0.0027720788
0.0053795655
0.0056244847
0.0059621106
0.006155977
-0.0017224912
-0.009571753
-0.00862997
-0.0038324448
-6.427494E-4
-0.0013959609
-0.0017163325
1.3117083E-4
0.0011118689
6.2910764E-4
-0.004447177
-0.01062366
-0.009565684
-0.0029613844
0.0030153964
0.005544764
0.0062363655
0.0077394303
0.008468382
0.004338376
-0.0029403693
-0.0076623233
-0.008645133
-0.0054082237
-6.544007E-4
0.0018406175
0.005015416
0.007890357
0.007716159
0.004166397
-0.0025435304
-0.007007918
-0.0071969945
-0.0039124126
6.4505107E-4
0.0030265707
0.005544111
0.005599325
0.0039118407
0.0050556795
0.002095267
-0.0029169824
-0.0031233316
-0.0012372255
0.0012124105
0.001018895
-6.806391E-5
0.003466741
0.0069512622
0.003195491
-0.007014923
-0.013747678
-0.011865844
-0.0057894443
7.6432485E-4
0.0046168724
0.006666491
0.007169246
0.0036904267
-6.72036E-4
-0.0067124306
-0.013369708
-0.012983033
-0.0074630557
-0.0021146608
0.0011524073
0.0028281265
0.00720166
0.011207552
0.008608212
0.0017029033
-0.004513836
-0.0050576204
-0.0014273212
-4.15378E-4
0.0027012944
0.010504534
0.013706292
0.01118837
0.0038999992
-0.006905813
-0.010560372
-0.00723821
-0.0047732387
-0.0021078612
4.2911828E-4
0.0023428763
0.0057684383
0.006337655
-5.364226E-4
-0.008914215
-0.012052383
-0.0118974885
-0.0086462395
-0.0012026122
0.0059192446
0.008787212
0.008328933
0.008591439
0.005380666
-0.0053019924
-0.012176827
-0.010112173
-0.0036073753
0.002476282
0.0026607981
0.00365821
0.008361966
0.009319873
0.0060777944
-0.0024716072
-0.010966625
-0.011624844
-0.008248434
-0.0019018234
0.004190622
0.0062606554
0.008076451
0.009244013
0.007539222
3.979306E-4
-0.007861957
-0.008346683
-0.005498197
-0.0024974628
0.0016361184
0.003968432
0.0058336104
0.0071593053
0.0063331686
0.0013851874
-0.0052837594
-0.0058986563
-0.004603673
-0.003165973
0.0027704262
0.0061203046
0.0044072727
0.0016892715
-6.0920935E-4
-0.0038592264
-0.01066084
-0.0127174575
-0.0073315254
-0.0044444045
-0.0029866213
6.644589E-4
0.004153424
0.006249435
0.0040757675
-0.002258555
-0.006629565
-0.0057672067
-0.003217748
1.8769124E-4
0.006231091
0.00994318
0.01052073
0.0109652085
0.0068477346
-7.472586E-4
-0.004649818
-0.0036789312
1.6977885E-4
0.0035775248
0.004606577
0.004947842
0.00466591
0.00311435
0.0016718907
-3.9103534E-4
-0.004985843
-0.008459761
-0.0064146835
-0.0019317422
0.0023147927
0.0061594257
0.00594628
0.0035683252
0.0021843486
-0.0019278226
-0.0050110053
-0.0034804835
-0.0029293322
-0.0019372992
-4.3901065E-4
-0.0039869025
-0.005741978
-2.4724926E-4
0.0024532767
-0.0016890705
-0.0064371377
-0.009297887
-0.0071813767
-8.5514033E-4
0.0035702381
0.00789536
0.010537115
0.00830469
0.0058322176
8.6595694E-4
-0.004774086
-0.004471514
-0.0019856922
0.001150079
0.0038627246
0.005951771
0.011341061
0.014817111
0.011114787
0.0015526057
-0.007942316
-0.009623372
-0.0059756134
-0.0018418316
0.0026253678
0.006652735
0.008062342
0.005322885
0.0019847779
-0.00285882
-0.010806767
-0.012981398
-0.008179279
-0.0028277887
8.591786E-4
0.0014188642
0.0012966916
0.0025545133
0.0026223331
-0.0016025277
-0.0080160415
-0.0082258
-0.0044597243
-0.0034543665
6.123594E-4
0.007656963
0.009718776
0.008333007
0.006157928
0.0011362968
-0.005190014
-0.0064050043
-0.0012936577
0.0022940491
0.0040066116
0.007667462
0.006794811
0.002503486
-5.5858167E-5