0.0057941293
0.0040048766
0.0016400677
-0.002082076
-0.002018249
1.9048418E-4
-7.529866E-4
-0.0013804351
8.2607917E-4
0.0053734626
0.008154602
0.005418578
0.0025672782
0.0018694395
4.7822844E-4
-9.673206E-4
-0.0031373804
-0.0043236893
6.088777E-4
0.0076096687
0.007806386
0.0016167953
-0.003995829
-0.0054802536
-0.006658712
-0.009058789
-0.0070822514
-0.0025323362
0.0010179656
0.0061870096
0.008998254
0.006768237
0.0025776809
-0.0024123501
-0.005960821
-0.007648747
-0.0072637587
-0.0052576615
-0.0040251967
-0.0026464323
-0.0019075224
-0.0010331888
6.3516677E-4
-1.8951307E-4
-0.0033477058
-0.009690569
-0.01461489
-0.010755187
-0.002014162
0.005488524
0.0067128153
0.0035562878
0.0017229065
0.0015826907
0.00724636
0.014460985
0.015972178
0.014941748
0.012274911
0.013412958
0.01788684
0.017476602
0.015051755
0.009577012
4.836985E-4
-0.009909279
-0.022112342
-0.024039667
-0.012075072
-4.5792933E-4
5.291572E-4
-0.008899911
-0.016778832
-0.018575624
-0.021547232
-0.024956647
-0.024745323
-0.021070516
-0.014632952
-0.0032108172
0.010789629
0.017058106
0.016693518
0.019105218
0.021919709
0.019128218
0.012255197
0.002994575
-0.005453184
-0.004125983
0.004231633
0.006646738
0.0038367033
0.00678618
0.014969537
0.012179453
-0.0030163783
-0.012434403
-0.013152421
-0.00961632
-0.0043431907
-0.005038059
-0.006501415
-0.0038743787
-0.005066156
-0.00892515
-0.00864793
-0.0042496314
-4.2892274E-4
7.1448745E-4
0.00261475
0.0062836227
0.0090860715
0.009863581
0.009546209
0.008560656
0.0070626033
0.0041436953
-0.0011226556
-0.0032127337
-0.0012802747
-0.0013153193
-0.0027455091
-0.005341027
-0.006693965
-0.0023962143
0.0016376583
0.0012078427
6.257173E-4
0.0033094485
0.0030062848
-0.0047038314
-0.00782771
-0.0053953202
-0.00608268
-0.0050637834
-0.00408606
-0.0048701633
-0.0019212399
-2.8313478E-4
-0.0012804319
-0.0017535456
-0.0025922009
-0.0019259981
-0.001326084
-0.0014906073
1.508391E-4
0.0018027651
0.0037671933
0.006368731
0.0077783316
0.008372899
0.006711725
0.0041692667
0.0036648863
0.0036988137
0.006305831
0.010245158
0.00936394
0.00697301
0.0062038163
0.0047467616
0.0027995585
-7.787275E-4
-0.0047683576
-0.005888075
-0.005622648
-0.004438557
-0.0022067602
-0.0015973134
-0.0031720025
-0.005647203
-0.009087503
-0.012349191
-0.012132037
-0.008595593
-0.004851749
-0.0025584586
-0.0015976474
3.060061E-4
0.0023285595
0.001234048
-4.834389E-4
-4.0283144E-4
2.6331082E-4
0.0021927638
0.004197068
0.0036807053
0.0040548304
0.006661011
0.006298119
0.0041292957
0.0040024556
0.0049793795
0.0069765705
0.0074797967
0.005856204
0.0048029213
0.002561956
0.0012402687
0.0015238533
-0.0013095739
-0.0039754994
-0.0033963618
-0.00176167
-2.3924661E-4
-5.2105397E-4
-0.0020985915
-0.0029231964
-0.0027732966
-0.0029385313
-0.0038658658
-0.0043821568
-0.004495204
-0.0033691218
-0.0016622761
-0.0012580836
-4.1417358E-4
0.0011734382
0.002077086
1.9478577E-4
-0.0031449867
-0.003653057
-0.0043406594
-0.004493343
-0.002863113
-0.0043798247
-0.0031170791
0.00186612
0.004003222
0.006674318
0.0071488246
0.0023949947
-0.0012885188
-0.0011048381
7.452059E-4
-2.0756567E-4
4.818716E-5
0.005263419
0.0064912834
0.0040214597
0.0036891033
0.0026115184
9.817935E-4
5.816589E-4
9.0311567E-4
0.0020336586
0.002393527
9.3633E-4
-6.0351053E-4
-4.6108168E-4
-5.964503E-4
-0.0029952356
-0.0048672925
-0.005488922
-0.0059621935
-0.0031782528
9.197563E-5
-0.0024327354
-0.0042490195
-0.0015466782
-9.6148456E-4
-7.195344E-4
-1.1509722E-4
-0.0028875305
-0.0036058752
-5.480221E-4
2.9808911E-4
-0.0017309486
-0.0019313728
4.397612E-4
4.9583905E-4
-0.00222802
-0.0043824813
-0.0036843757
-6.594633E-4
0.0013003411
0.003616265
0.0053830794
0.0046280078
0.0057763816
0.004293365
-0.0011838365
-0.0010018678
0.0025122564
0.0031034644
0.002126535
0.0022774155
0.0039769835
0.004927985
0.0053760395
0.0033677397
-0.0013407671
-0.0031066681
-0.0039580925
-0.004904602
-0.0035688316
-0.003274134
-0.0024547554
-2.949818E-4
-3.3696563E-4
-8.832626E-4
-0.0013525316
-0.0028879072
-0.0037025672
-0.0028366996
-0.0025900963
-0.002892992
-6.4115797E-4
0.0012809259
0.0019976161
0.0042635435
0.0034521995
3.7814808E-4
4.9395213E-4
0.0014050779
0.0018934376
0.0024416468
0.0026432658
0.00342505
0.004316466
0.0042009335
0.0018411176
-0.0011329732
-0.0023160863
-0.0028527137
-0.0017471764
4.1014908E-4
-7.776549E-4
-0.0034366525
-0.0015870308
0.0020861195
3.8678627E-4
-0.0023123175
-0.0013446235
-0.0014247725
-0.0011343337
0.0010721814
0.0017120623
0.0014684657
5.985494E-4
5.231181E-4
5.6440674E-4
-0.0016983165
-0.001553221
7.536041E-5
7.0222426E-4
0.002858361
0.0036471835
0.002934816
0.002172939
5.241769E-4
-0.0013797571
-0.0042309216
-0.004093307
-6.23668E-4
-1.2493435E-4
-6.186314E-4
0.0014989668
0.00342497
0.0018233779
-5.109934E-5
4.009232E-4
-0.0018983397
-0.004489857
-0.003172727
-0.0016458237
5.4312014E-4
0.0035191197
0.003398225
0.0015602917
0.0033543801
0.0054103127
0.0018408941
-0.0011992713
-0.0012091212
-8.1215036E-4
3.6557292E-4
8.799482E-4
0.003186046
0.0039534247
0.001812774
0.0020306865
-5.183058E-4
-0.0017033298
-1.679162E-4
-0.002595235
-0.0017386277
-0.0014198867
-0.0016276677
0.0027672509
8.042544E-4
-0.0054030255
-0.012002559
-0.01089657
1.8215174E-4
-0.003591275
-0.0072366167
0.006713626
0.009996111
0.0046101827
0.0036721693
0.0015768228
-3.2333145E-4
-0.0034581977
-0.0033313103
0.0013033597
0.0021997557
0.0018243107
0.0019025048
0.003008847
0.005440718
0.003904951
-3.4138525E-4
-0.0019425191
5.7257366E-5
0.0013774964
8.320725E-4
0.0014299111
0.0011745549
5.405101E-4
9.809595E-4
2.4406357E-4
-9.2818256E-4
-0.0028792233
-0.0047087953
-0.0033580638
-6.578261E-4
0.0014334513
0.0027244557
0.0024873607
8.629032E-4
-7.93596E-4
-0.0014933447
-0.0019338205
-0.0030055172
-0.0037062243
-8.6528366E-4
0.0035501972
0.0036644766
0.0013970601
8.028428E-5
-4.9118424E-4
-0.001157066
-0.0036643834
-0.00380327
-0.001865432
-0.003607585
-0.0026910913
0.0018500622
0.003731678
0.0046728547
0.0021438529
-0.0017363346
-0.0011051315
-0.002114875
-0.0036720035
-6.061884E-4
0.0016249828
0.0020185139
0.0030838484
0.0028619005
0.0015694114
0.0020626523
0.0017289133
-0.0023303474
-0.0039386796
-0.0020435564
-3.8965594E-4
0.0021745933
0.002575647
0.0019327292
0.0025725837
-4.526544E-4
-0.0027429033
-0.0010688268
-1.5044358E-4
3.8267413E-4
3.8036445E-4
0.0013753935
0.0043440284
0.004482508
0.0025166462
3.5861734E-4
-0.0018041793
-0.0015864887
-0.002094782
-0.0045814123
-0.0040099383
-0.0018377233
-0.0012860087
1.4730037E-5
0.0015914268
-3.779798E-4
-0.003879937
-0.0036463786
1.466219E-4
0.0029331732
0.0022257247
9.519678E-4
0.0013533471
2.4016305E-4
-0.0024365268
-0.0029042438
-0.0015336107
-4.694406E-4
-5.2596844E-4
-9.394342E-4
-1.14981E-4
0.0015415002
0.0028515365
0.0025875485
9.4880327E-4
-2.2079017E-4
-0.0017355875
-0.0030320112
-5.7706394E-4
0.0031271405
0.0028457246
0.001631864
0.002879762
0.002725965
0.001984961
0.002239534
-1.5223917E-4
-0.0016936442
-7.012435E-4
-7.3276873E-4
0.0011052006
0.004771646
0.006568646
0.0052927607
0.0014668046
-0.0027888026
-0.005464581
-0.002301709
-0.0020609037
-0.013218569
-0.01294091
0.0019902287
0.0045646625
0.0011814528
0.003942895
0.0016813142
-4.059049E-4
4.490854E-4
-0.008375415
-0.011897978
7.780467E-4
0.006052789
0.0028376505
0.0039286693
0.0021812872
-2.1243322E-4
-7.011864E-4
-0.0021638363
3.004937E-4
0.0023407799
0.0016381164
0.0021659797
0.0028370933
0.0034856282
0.001216631
-8.9420064E-4
7.1662024E-4
2.640612E-4
3.5456466E-4
0.001881121
9.2044787E-4
0.0013790706
0.002367198
4.2630648E-4
-0.0023047773
-0.0039870357
-0.0043194033
-0.002497183
6.1066495E-4
9.772234E-4
3.1313146E-4
0.001833047
0.0019580931
9.441206E-4
4.985009E-5
-0.0028258718
-0.004717357
-0.0034123764
-0.002369185
-0.0016350449
7.875448E-4
0.0013157746
8.288181E-4
0.0024355876
3.3260806E-4
-0.0035601181
-0.0024982637
-5.7507167E-4
3.831253E-4
0.0011236112
7.312172E-4
0.0021879866
0.0048666266
0.0042451373
8.22994E-4
-0.0014422134
-0.0021612297
-0.0022245198
-7.921096E-4
3.055491E-4
8.3779404E-4
0.0021656887
0.0023766137
0.0012378142
-0.0014530572
-0.0046243113
-0.0037565639
-0.0011793481
-0.0012675413
-0.0011342843
0.0016330095
0.003353717
0.00215383
0.0020076474
0.001570379
-0.0018581137
-0.0028089846
-0.0012146853
-0.0013857128
-0.0013438433
-1.3185471E-4
0.0015779827
0.0038685466
0.0041059996
4.885859E-4
-0.003654556
-0.0041022687
-0.002666516
-0.0016605514
9.5281337E-4
0.0037287816
0.0043497114
0.0040609706
0.0025577536
-2.155597E-4
-0.0030541078
-0.0047540367
-0.004083211
-0.0025377916
-3.9974955E-4
0.0027794398
0.0036747232
0.0025616202
0.002233185
9.6155924E-4
-0.0020603877
-0.0041590286
-0.0040542567
-0.0027468505
-8.820863E-4
0.0010203023
0.002122969
0.0020703468
9.546646E-4
-5.043013E-4
-0.0025291005
-0.0034733424
-0.0011604282
8.8265835E-5
-7.566688E-4
2.3101094E-4
0.0014548153
0.002855247
0.005161039
0.0034834968
-0.002393081
-0.004758649
-0.0018220358
-7.311952E-4
-6.541841E-4
0.0023450896
0.0038547341
0.0046188
0.004586979
5.865016E-4
-0.0012300424
-0.0013496651
-0.0040436233
-0.0036435705
1.6198528E-4
0.0020137208
8.7728724E-4
2.4181103E-5
0.0013717681
3.263535E-4
-0.0027980192
-0.0030569509
-0.0021365525
-0.0013961456
-5.9895555E-4
-4.883431E-4
0.0010623003
0.003144632
0.0022869168
1.231412E-4
-0.0011454081
-0.0025592293
-0.0035145453
-0.0017760756
6.984078E-4
5.189855E-4
-3.4506302E-4
3.0391905E-4
0.0011865878
0.0010063401
-0.0010181337
-0.0025075113
-0.0018351653
-0.001122805
-1.4033924E-4
0.0010400318
0.0027418726
0.004569836
0.0029134576
0.001291863
9.7299763E-4
-0.0019059341
-0.00220229
3.971372E-4
0.0010699012
0.0015082302
0.0012270293
0.0019735638
0.004145155
4.1814937E-4
-0.0047660195
-0.0033169948
-0.002040944
-0.002414948
0.0012937011
0.0021285992
-0.0023171012
-0.0016579783
0.0022768418
9.271528E-4
-0.0025406207
-0.0023083184
-8.1615575E-4
-0.0021105972
-0.00202878
0.0012743234
0.0022172194
0.0019177187
0.0021968149
9.002723E-5
-0.0022866128
-0.0031350062
-0.002905798
-4.126115E-4
0.0010865103
-2.1662776E-5
0.0010181674
0.003577111
0.003911794
0.0021146839
-8.4075145E-4
-0.002119294
-0.0016372049
-0.0013658167
3.2332496E-4
0.0020295659
0.0032489533
0.0044156634
0.00247287
1.2855405E-4
-0.0016799823
-0.0038556377
-0.002634587
-0.0010235606
-8.4207434E-4
-5.794563E-4
-9.006073E-4
0.0016087504
0.003435901
3.1654557E-4
-0.0024801558
-0.003308004
-0.0027505027
-0.0021112964
-0.0030138614
-0.0033207266
-0.0018122159
0.0012600132
0.0027451105
0.0014259863
1.7676977E-4
-0.0011698346
-0.0013559946
-5.391887E-4
-0.0010518833
8.3892455E-4
0.0054776752
0.0072561833
0.0057286355
0.0036950014
3.5974156E-4
-0.0030785345
-0.0038053344
-0.0041577606
-0.0026140984
8.577647E-4
0.0010859617
0.002344151
0.0043005003
0.0017550505
-0.001932227
-0.0057635186
-0.006182984
-0.0024937976
-8.968416E-4
5.807551E-4
0.0015258496
0.002149136
0.004787728
0.0021105206
-0.0035480657
-0.0036032228
-7.224196E-4
7.098363E-4
1.0921799E-4
-6.0983805E-4
-0.0013046792
-6.8173086E-4
0.0032922272
0.0038024937
-6.402954E-4
-0.0024938988
-0.0015699212
7.96991E-5
0.0018995377
0.001837881
0.001366973
0.0012576057
-3.908621E-4
-0.00142839
-0.0010441693
-0.0023952127
-0.0037710704
-0.0018202472
8.192138E-4
2.6654633E-4
-8.1770944E-5
0.003898382
0.0055759917
0.0016191547
-0.0018247046
-0.004067838
-0.0049084276
-0.002520555
3.1296702E-4
0.0018923635
0.0030134993
0.0050474796
0.005534605
0.0023699743
3.5456562E-4
-3.6270573E-4
-0.0021112934
-0.0021962945
-9.880577E-4
2.413423E-4
0.0016412191
0.0019058343
0.0015860777
0.0015739497
-5.7020578E-5
-0.0035746638
-0.005674897
-0.005818943
-0.005169589
-0.0035422123
-0.0028701283
-0.0028653252
-0.0024093664
-0.0044259583
-0.008725268
-0.0124591505
-0.012641004
-0.008398579
-0.0055686324
-0.0054735835
-0.004601372
-0.003965258
-0.0011768679
0.002880431
0.0014404277
-1.9664844E-4
0.0029724492
0.0055479035
0.0089821
0.013084066
0.01191177
0.011848356
0.015417754
0.013981005
0.009026808
0.004721256
0.0020193197
0.0021592285
0.0018736238
0.0015918957
0.0032435164
0.0065219393
0.0124472035
0.016822465
0.019549746
0.023315378
0.024004407
0.024581684
0.026865551
0.025007613
0.019594166
0.0129712885
0.0052043363
-0.0052065114
-0.01880123
-0.030810034
-0.040681712
-0.05150622
-0.058964938
-0.060252327
-0.061852824
-0.061421428
-0.052497875
-0.041376643
-0.02986041
-0.021653753
-0.020044792
-0.011849727
-0.0020669524
0.003853182
0.016717384
0.027947046
0.035352897
0.040714584
0.039838754
0.040773284
0.033016093
0.019130424
0.027286287
0.054465275
0.08088294
0.08554145
0.063456856
0.034720488
0.01585793
0.018070236
0.012650389
-0.025259385
-0.04179525
-0.017807968
-0.0067549758
-0.02700093
-0.055220813
-0.06819966
-0.06482496
-0.05576627
-0.025532352
0.033210922
0.0723989
0.062642656
0.04063908
0.021116264
-0.0027806414
-0.016568182
-0.037880693
-0.07767431
-0.102830246
-0.09872462
-0.066816896
-0.019986656
0.017950196
0.043698844
0.048736252
0.015928948
-0.029461594
-0.033728886
0.0037873436
0.03062129
0.032578476
0.035180893
0.042707145
0.04270677
0.0279814
-0.0042722
-0.04786551
-0.07178015
-0.04805672
0.0048247655
0.05861646
0.0999343
0.10098339
0.06128689
0.03178235
0.022214765
-0.0014358623
-0.025320696
-0.028684357
-0.033390112
-0.045941204
-0.049118165
-0.038935877
-0.020942574
0.010361438
0.042197976
0.03653901
0.015993897
0.01917286
0.016801288
0.00861048
0.0021221936
-0.038026664
-0.075087346
-0.07420153
-0.06577692
-0.023481147
0.041924804
0.04743242
0.011992861
-0.009267444
-0.022397807
-0.022622697
-0.0057404637
0.0124002285
0.02399169
0.021934425
0.0059851636
-0.010051589
-0.012730125
-0.0058122408
0.0045722667
0.022060484
0.033246845
0.029002458
0.016053395
-0.005012357
-0.017856667
-0.01542841
-0.013997619
-0.011253737
-0.006048751
-0.006334192
-0.0073708235
-0.004934403
-6.9717126E-4
0.0042778333
0.010023778
0.014976108
0.019996284
0.020224923
0.007970896
-0.002061374
-0.0020580164
-9.948353E-4
0.0041325632
0.008324646
0.0052508605
0.0016715345
0.0010796529
0.0020385522
-0.0022883536
-0.007852923
-0.007886852
-0.008821562
-0.008607064
-0.007949589
-0.009863743
-0.008099067
-0.005579409
-0.0031717017
1.9726242E-4
4.1559637E-5
-1.8670321E-4
0.0017711842
0.0031468072
0.0021786315
-0.0012723814
-0.0030638452
2.8610032E-4
0.005344088
0.0067810067
0.0067419442
0.006896798
0.0062337653
0.0063329367
0.004411895
0.002050048
1.29568225E-5
-0.005926511
-0.007349079
-0.002382504
6.33217E-4
0.0033763356
0.0055421717
0.0037379179
-3.3740475E-4
-0.0035956262
-0.004770856
-0.0034959589
3.182772E-4
3.6714217E-4
-0.0030328464
-0.0011591143
0.0022252232
0.0032164145
0.0032325084
-7.881969E-4
-0.0044538574
-0.0027225185
-4.3090023E-4
0.002417683
0.0065792906
0.004702156
3.4910842E-4
2.012077E-4
-0.0023226927
-0.0046964954
-0.0021882667
-0.0010643669
1.1060967E-5
0.0011183909
-3.4773318E-4
0.0013971968
0.0057710838
0.0057199127
-9.3653443E-4
-0.009125013
-0.0116036935
-0.0063604685
0.0043768045
0.012883172
0.013443143
0.011043649
0.010061339
0.0065946863
-0.0026674825
-0.011261514
-0.0139944805
-0.011781779
-0.005319878
-0.0037353956
-0.008338173
-0.008401653
-0.008363221
-0.009718381
-0.0067925043
-0.004551251
-0.0022820127
0.0023581285
0.0058235507
0.00859071
0.011549065
0.012457569
0.0090981815
0.005060434
0.0017089013
-0.0034881425
-0.004304407
4.4717184E-5
0.00355821
0.009134188
0.018141696
0.025216363
0.024044162
0.012192593
-0.003961911
-0.013852387
-0.013445148
-0.011398973
-0.016996043
-0.02538402
-0.025920583
-0.020096058
-0.015884854
-0.010995609
-0.004319846
0.0010250199
0.0070643392
0.010742482
0.009747704
0.005685407
-2.949985E-4
-0.0021577142
2.3789001E-4
0.0049408632
0.009625258
0.008111292
0.0054490995
0.0029229636
-0.0012834119
-0.0010700625
-2.1416238E-4
-2.7255504E-4
0.0016348262
0.0068460875
0.01134532
-8.7934415E-5
-0.009787165
-4.5059735E-4
5.989752E-4
-0.005279663
-0.006809129
-0.0146144135
-0.0143834045
-0.006401826
-0.004933336
-8.588705E-4
0.0020690076
0.0023671954
0.0087864995
0.012283683
0.012051186
0.013131608
0.010056437
0.004576616
-0.0019421832
-0.00983297
-0.010927574
-0.006455739
-0.0048692976
-0.0049912706
-0.004885188
-0.004099789
-0.0010049623
0.0017307318
0.002865725
0.003348201
0.0033115316
0.0038455103
0.004504946
0.005720667
0.006931916
0.005771076
0.0037012126
6.9039286E-4
-0.0029331648
-0.0044539482
-0.005606855
-0.0062491875
-0.0042344294
-0.0014859816
5.095353E-4
0.0025371667
0.004656041
0.004314268
0.0028134773
0.0038373894
0.0033718434
8.8636944E-4
6.469357E-4
-0.0013467456
-0.006421269
-0.010218613
-0.013183034
-0.016120367
-0.016653402
-0.012666557
-0.0056771343
0.0037855874
0.016764631
0.02521812
0.026207011
0.028515724
0.028797787
0.020802546
0.008694918
-0.0047893943
-0.01544186
-0.019406058
-0.018896932
-0.015329055
-0.009744247
-0.0020928776
0.0077881627
0.013220126
0.009425466
-0.0010401476
-0.01781047
-0.036560748
-0.043935962
-0.03675569
-0.02557615
-0.014881342
-5.755597E-4
0.012590238
0.011694462
-6.2581623E-4
-0.0068411725
0.0012890209
0.014280789
0.02051689
0.027342305
0.043694682
0.059278265
0.06428984
0.05849997
0.050990164
0.04581121
0.02528239
-0.010571646
-0.03682887
-0.04240841
-0.029294338
-0.011594356
-0.006909045
-0.014781236
-0.028933326
-0.04595758
-0.057167355
-0.053636886
-0.040442716
-0.029411035
-0.022176366
-0.017500916
-0.014154114
-0.010590896
-0.007837901
-0.002564163
0.005022849
0.01182308
0.0184104
0.023053706
0.027636852
0.03197089
0.031940483
0.030465487
0.02854158
0.023475308
0.016972275
0.013663667
0.012368015
0.008982402
0.006481882
0.0034780605
-0.0030153692
-0.00905533
-0.012482951
-0.01148185
-0.009454811
-0.008842588
-0.006486429
-0.0047634477
-0.0020205965
4.718491E-4
2.9486048E-4
0.0019232893
-0.0013439312
-0.0058649494
-0.0032842343
-0.004943586
-0.007990874
-0.0057166293
-0.006005084
-0.007955325
-0.009649121
-0.012394297
-0.013730514
-0.011877531
-0.008044667
-0.006273387
-0.0051150466
-0.0023894797
-4.863332E-4
0.0011506542
0.0025990398
0.0036882025
0.004101933
0.0028679788
0.0038473317
0.007109599
0.008699839
0.009670436
0.009986488
0.009443052
0.01033623
0.008250322
7.304415E-4
-0.002082359
0.0024115436
0.0047174315
0.003371502
7.691864E-4
-0.0023318839
-0.001967868
-3.5435628E-4
-0.002080533
-0.0038060725
-0.0036412687
-0.0030142504
-0.0013372257
-3.2203295E-4
-0.0012276082
2.4225701E-4
0.0036171367
0.0013263198
-0.0038671384
-0.0024871626
9.2997693E-4
-6.8086514E-4
-0.0021807505
-2.7820494E-4
0.002137553
0.0020793278
-8.264231E-4
-0.0030050764
-0.004095674
-0.0044907304
-0.00326761
-0.001983321
7.5944455E-4
0.002167603
-1.1716747E-4
0.001266743
0.0036642165
0.0017026424
2.944538E-4
-3.976568E-4
-2.8361694E-4
0.0022528046
0.0039930455
0.003963231
0.002699475
0.0014230927
2.2734492E-4
-0.0021179297
-0.0030793615
-0.0032336577
-0.003910639
-0.002100056
1.63209E-5
-1.3274615E-5
5.8295036E-4
0.0012012919
0.0015421048
0.0029268651
0.002152592
-5.894754E-4
-0.0023704881
-0.0033075148
-0.0012303523
0.0015060444
0.0012616094
0.0024375627
0.0036550465
0.002721411
0.0037781294
0.0043262923
0.0018782985
-0.0017471665
-0.0047273827
-0.0036357224
-3.6832303E-4
0.0012111119
0.0018039444
0.001366174
1.7921905E-4
-4.911989E-4
-0.0012052745
-0.0023892436
-0.002516198
-9.858863E-4
-3.4867218E-4
-0.0010221853
-0.0012012996
-9.85677E-4
7.669011E-4
0.0022647262
-0.0010864311
-0.0036420762
-0.0010783277
-4.0302993E-4
-5.199982E-4
0.0018662424
0.00235395
0.0026608445
0.0025786357
-5.5998017E-4
-0.0020918925
-0.0015907995
-4.5376152E-4
5.155701E-4
1.5545833E-4
0.0025424436
0.0045081065
0.0029885944
0.0031287044
0.0025259324
7.4210524E-4
2.0941011E-4
-0.003044195
-0.0067981877
-0.005844607
-0.0010473443
0.0030743738
0.0050504943
0.007184186
0.005177492
-3.0667827E-4
-0.0021242835
-0.004188686
-0.0062872875
-0.0043722247
-0.0035361995
-0.0019623348
0.0025256467
0.0039140573
0.002772928
0.0023447275
0.0018272675
0.0011445704
0.0016518238
0.0015296185
-0.0023949805
-0.0049086637
-0.0020210862
7.6340174E-4
0.001578435
4.412004E-4
-0.0029358948
-0.0037014054
-0.001183335
5.178979E-4
6.440342E-4
8.201746E-4
0.0012422536
0.0012357582
0.0010026527
-0.0018752042
-0.00538901
-0.003808496
-0.002220331
-0.0027847174
1.6404397E-4
0.0039503095
0.005503129
0.0062563126
0.0060735308
0.0036657148
-3.7775195E-4
-0.0019909076
-0.0017371823
-0.0019765403
-5.2467093E-4
0.0022461214
0.0047260104
0.0042506545
5.324651E-4
-7.7838753E-4
-8.633928E-4
-0.0024245991
-0.0031107203
-0.003388897
-0.002134188
6.766404E-4
0.0016613437
6.868077E-5
-0.0024421902
-0.0020869733
-0.0010384087
-0.0029486339
-0.0030099545
-0.001174577
-7.089499E-4
-0.0010070762
-0.0014199525
0.0011655523
0.0032690763
-6.2359025E-4
-0.0040221675
-0.002965022
-7.920495E-4
0.0012245781
0.0028905536
0.0036509586
0.0034843925
0.0039555724
0.003312279
6.041976E-4
-6.892143E-4
-0.0022074732
-0.0022573145
6.185151E-4
-2.935385E-4
-7.3221663E-4
0.0019752346
0.0019112922
0.0025259694
0.0015903786
-0.0025888977
-0.0023932643
-0.0014880013
-0.0014163015
0.001504236
0.0027641004
0.0024995992
0.0020037347
-4.0103897E-4
-0.0022551173
-0.0034735757
-0.003887342
-0.0019878964
-6.21484E-4
-4.8562256E-4
3.1248266E-5
5.470752E-4
0.0011969605
8.357824E-4
-0.0016609887
-0.0028167677
-0.0014909934
-0.0013829471
-0.0014522864
0.0010925789
0.0033546214
0.0029294447
0.0017522532
0.0017174513
0.0012851378
-5.835875E-4
-0.001240107
-3.6731386E-4
4.1838095E-4
8.1451534E-4
0.0012686319
0.003221958
0.0030686392
-5.385978E-4
-0.0015443987
-0.002222978
-0.0045068595
-0.0038137222
-0.0023863565
-5.976252E-4
0.0026180919
0.004033313
0.0026973572
-0.0010551527
-0.0033213587
-0.0030815736
-0.0023788272
9.860575E-4
0.0033755426
0.0031971815
0.003715301
0.0043208315
0.005990628
0.0048643653
-2.7376454E-4
-0.0039674398
-0.0054406463
-0.002664307
7.2862436E-5
-7.376533E-4
7.0257677E-4
0.0016532039
0.0010861434
-1.9833227E-4
-0.0036548025
-0.004681653
-0.00523007
-0.00376406
5.6207617E-4
-4.6256062E-4
-2.4975336E-4
0.0032183074
0.0033936873
0.0027546375
-0.0013594888
-0.004976509
-0.0033069323
-0.0023537348
0.0010568491
0.0056422385
0.00595065
0.0065292325
0.005870621
0.0022642391
-7.481223E-4
-0.00350505
-0.0052566286
-0.004863965
-0.002899125
-0.0012545022
-0.0021776762
-0.0020791527
0.0013700966
0.0029985132
0.0016010215
4.5207512E-4
-9.417156E-4
-0.0016883555
-3.834649E-4
4.430912E-4
0.0018861125
0.004288255
0.0042262026
0.0031751264
0.001194077
-0.0024301745
-0.0040693954
-0.0033831266
-7.6514616E-4
0.0015087455
0.0011520277
0.0027934394
0.0046891132
0.0030938254
-8.101933E-4
-0.0068616904
-0.007834758
-0.003860311
-0.002545477
0.0013082772
0.0059623155
0.00523519
0.0042779455
0.004389656
0.0038178877
8.1842963E-4
-0.0037144173
-0.003712905
-0.0018107898
-0.0024652008
-0.003324633
-0.0035343054
-0.0030878873
-0.002130955
-0.0023600915
-0.0046184887
-0.0064914958
-0.0047843885
-8.1506633E-4
0.0014801899
0.0018798697
0.0030324569
0.0025409178
4.8847817E-4
0.0017146025
0.0014742784
-5.9534656E-4
0.0021036335
0.003909499
0.0025474932
0.0039624013
0.006497658
0.0072236164
0.007269802
0.0054974863
0.0014603816
-8.195137E-4
-0.002931643
-0.005255008
-0.002432345
4.8448791E-4
0.0022717728
0.0047619073
0.0025401516
-0.0014928652
-0.011064471
-0.02077495
-0.012115487
-0.0014346507
-4.917739E-4
0.0031787187
0.00502489
0.004227008
0.0036335124
3.364831E-4
-0.0019998758
-0.0050003263
-0.0060973736
-0.0015390335
0.0021324696
0.0036302574
0.003680751
0.0038339866
0.0046402323
0.0017269911
-0.001776418
-0.0020548252
6.289982E-4
0.0038531865
0.0026308487
0.0011711178
0.0026273676
0.0033773666
0.0032034635
3.59595E-5
-0.0032765751
-0.0031835146
-0.00427589
-0.0041473624
-0.0016356021
-4.832503E-4
0.0015427433
0.0027625707
0.0021200029
0.0017045946
-2.2673448E-4
-0.0018639943
-0.0023514521
-0.0021043906
-3.4923467E-4
-1.662126E-4
-3.3729748E-4
3.0757365E-4
5.786136E-4
0.0024570636
0.0012718997
-0.003791161
-0.004627046
-8.63217E-4
0.0025143293
0.0014154064
-8.3440536E-4
0.0018438356
0.0052072033
0.0055270754
0.0024228455
-0.0025978372
-0.0028699306
-9.6783816E-4
-0.0019720758
-0.0015279305
4.4156527E-4
5.4630573E-4
5.383953E-4
7.8380376E-4
-0.0014530263
-0.004351478
-0.0041879225
-0.002574899
-5.5272813E-4
0.003004557
0.005817661
0.0051826243
0.0025484897
0.002249517
0.002613768
-0.0014094759
-0.0045868917
-0.002492599
-0.0010615895
-0.0014937237
-4.4710422E-4
0.001378018
0.00296909
0.003063434
-2.634001E-4
-0.0048703756
-0.0049645384
-3.512045E-4
0.0023332613
0.0027552957
0.0038802647
0.0029902752
0.0012101323
9.199278E-4
-0.0014931095
-0.0053364118
-0.005501444
-0.0026404725
-7.9811795E-4
6.7587587E-4
0.0031367387
0.003224142
0.0017479504
0.0019957784
-5.7671405E-5
-0.0046058176
-0.004053381
4.6405813E-4
0.0019244371
5.773239E-4
-0.0011860125
-0.0020854436
-0.0010836214
-7.281179E-5
1.2702515E-4
1.4947684E-4
2.633331E-4
6.7916524E-4
5.1742536E-4
0.0010371592
0.0025973946
0.004081946
0.0049354765
0.0024806352
-9.239303E-5
-4.5816944E-4
-0.0023890384
-0.0024437662
-5.7781674E-4
-5.2570703E-4
1.5214356E-4
1.1430685E-4
-5.5071415E-4
-1.8896615E-5
-5.6020776E-4
-0.0014445842
-0.0012426066
-5.2583823E-7
-1.5614797E-4
-0.00272805
-0.0026550046
2.9936293E-4
9.895301E-4
-9.663632E-4
-0.0016937893
-0.0017793505
-0.0017248048
0.0016103294
0.0031921766
0.0036614875
0.0057540103
0.0026957423
0.0018862978
9.448454E-5
-0.011398742
-0.011468976
-0.0017566757
-7.6364045E-4
-0.0020813239
-0.0021369068
-1.1920301E-5
0.003244563
0.003388025
0.0028918001
-4.980114E-4
-0.0017414299
0.0015219103
0.001536605
0.00405488
0.0071430765
0.0048259897
0.0049861213
0.005296654
0.0010808714
-0.0031854466
-0.0058611818
-0.0073102107
-0.006807397
-0.0042917756
-0.0031035645
-0.00303738
-0.0010745516
4.6041864E-4
7.477862E-4
-6.0933636E-4
-0.0019709123
4.390067E-4
0.0024706118
0.0041478747
0.006516502
0.005918553
0.008233411
0.010319503
0.0056505986
0.0032332044
-5.267845E-4
-0.007854268
-0.009604106
-0.013615766
-0.018770147
-0.016816458
-0.01590015
-0.013856136
-0.010417003
-0.014491472
-0.016104313
-0.009540269
-0.005056472
-0.002161315
0.005723586
0.016431497
0.02645458
0.03626116
0.044129886
0.046987437
0.043450236
0.0326525
0.017269082
0.0049533886
0.0012354434
0.0024109762
0.002600448
-0.0014762123
-0.01367277
-0.031448346
-0.046393465
-0.051088825
-0.04553395