0.0034460786
9.114553E-4
-0.0049602934
-0.00651697
-0.0036408887
-0.003518953
-0.002432816
-2.4721384E-4
-4.138824E-4
0.0012829712
0.0030601413
6.575989E-4
-0.0024510596
-0.0032222345
-0.0027386139
-0.002928771
-0.0013639714
0.00290876
0.004667622
0.00500737
0.0056451447
0.0028227826
2.3713279E-4
8.3507865E-4
7.311507E-4
-3.793232E-4
-9.723055E-4
4.6602014E-4
0.0036064605
0.00517074
0.0037883746
1.3884188E-4
-0.0030964792
-0.0038423333
-0.0035246979
-0.0036274355
-0.0031088928
-2.2057522E-4
0.002445963
0.0020984823
8.229839E-4
-0.0011106695
-0.003258902
-0.003168813
-0.0027824745
-0.0028834424
-0.0016794273
-0.0012908886
-7.296228E-4
0.0025799728
0.003592927
0.0017967969
0.0010101616
-0.0012245103
-0.0020467772
9.165411E-4
0.0015066799
6.640722E-4
0.0019987687
0.0038586378
0.004150634
0.0014804937
-0.0016717744
-0.002826217
-0.0018902204
-1.17494135E-4
1.5562984E-5
5.579481E-4
0.0025071758
0.003558168
0.0030804714
3.6412777E-4
-0.0029158911
-0.005604123
-0.0057788626
-0.0021202147
3.8928707E-4
0.0030012224
0.004454502
0.0013468893
0.00224956
6.048221E-4
-0.0079932865
-0.006313715
-2.0219042E-4
-0.0011923631
-3.1549984E-4
0.0021642623
0.0031955708
0.0053413957
0.0048895115
4.2954038E-4
-0.0030377987
-0.0028352141
-0.0019196258
-9.6764637E-4
0.0016571545
0.002928205
0.0029087728
0.0046038926
0.005162976
0.0016931159
-0.0022979628
-0.0031901207
-0.0028281435
-0.0029543876
-0.0031368297
-0.0026558463
-7.796514E-4
0.0010725129
0.0021555987
6.18681E-4
-0.0045308964
-0.0067579593
-0.0048033865
-0.0029282833
-9.456283E-4
3.5919444E-4
0.0023813264
0.0052894116
0.0045459284
0.0018948892
8.3725405E-5
-6.770551E-4
2.8897E-4
0.001053845
0.0011706136
0.0010848471
0.0022582628
0.006084967
0.006918937
0.002838344
-6.7981955E-4
-0.0029091
-0.0054088063
-0.0071757208
-0.005958596
-0.0010874834
0.0030097326
0.0036880614
0.0035513632
0.0019069642
-0.0013441482
-0.0018684362
-0.0017331686
-0.003184591
-0.0024251682
-2.593928E-4
0.0023228498
0.0052853324
0.0044935555
0.0016919507
3.5451766E-4
-0.0011741674
-0.002212659
-0.001895945
-0.001217116
2.8411314E-4
0.0023498707
0.0025763256
7.899678E-4
-6.018912E-4
-0.0022004717
-0.0038512952
-0.0031695366
-0.0014187342
-0.0011766711
-0.0021980384
-5.266825E-4
0.0034420206
0.004032514
0.0014534411
-0.0024694153
-0.0044055814
-0.0017895027
-9.630842E-4
-0.0012693736
0.0012918098
0.00280809
0.00405768
0.0047916467
0.0017338261
-0.0025776126
-0.004168994
-0.0018428758
-3.1581311E-4
-0.0011466692
-0.0011478816
-5.0675956E-4
0.0031383843
0.004444478
-0.0027249905
-0.006255677
-0.0030632382
-0.0010964671
8.359539E-4
0.0016331647
0.002026319
0.0046145413
0.0044827205
0.0023299672
0.001336998
-3.0784472E-4
-0.001907321
-0.0022650564
-0.0016837303
-4.884174E-4
3.1502527E-4
4.5549168E-4
0.0014602123
0.0034186326
0.0027653042
-5.430458E-4
-0.002875731
-0.003468831
-0.0028234096
-0.0027153194
-0.0020079426
0.001075678
0.0017531287
9.571044E-4
0.0014988432
-1.6616675E-4
-0.0011405277
-4.2087742E-4
-0.0019280838
-0.0023902438
-6.185232E-4
0.0010469749
0.0027673605
0.00324897
9.3628175E-4
-0.003143583
-0.005024432
-0.0036826455
-0.0027300848
-0.0016291528
0.0012939653
0.003178047
0.0032761672
0.004499225
0.004268315
-0.0012618194
-0.0048627635
-0.0022261862
5.5791903E-4
0.0014004323
0.001406144
0.002888565
0.0057603074
0.0053092004
0.0016952887
-0.003434162
-0.006433135
-0.004474188
-0.0030364054
-0.002727284
-0.0016809069
1.8247076E-4
0.003410069
0.0031944588
0.0019235148
0.001380329
-0.0034432348
-0.0058581037
-0.0037463063
-0.002884092
-0.0017378735
0.0010327087
0.0048717908
0.005742277
0.0026689612
6.7905907E-4
-2.8391913E-4
6.669963E-6
7.19139E-4
7.588394E-5
6.3859165E-4
0.0023705352
0.0047106585
0.0053521255
0.0032745868
0.0015197002
-7.822718E-4
-0.0028168163
-0.00652487
-0.011330584
-0.0072113285
4.110998E-4
0.0027660625
0.0033863247
0.0010162705
-0.0025302926
-0.003832171
-0.00567744
-0.006137722
-0.003468108
-2.873057E-4
0.0014748658
0.0028470117
0.0052931183
0.005345591
0.0019515107
-6.3078874E-4
-0.001050414
-0.0010543125
-7.321329E-4
0.0012196333
0.0034015628
0.005597669
0.008242468
0.0065716
0.0011642544
-0.002069202
-0.0031580983
-0.0035338348
-0.003519843
-0.0026737165
8.840939E-4
0.004641985
0.0046972577
0.0021199624
-6.553397E-4
-0.00203343
-0.0014702282
-9.082043E-4
-0.0011949837
-9.85729E-4
8.13221E-5
0.0021068265
0.0034416944
0.0016039032
-0.0014654412
-0.0031655116
-0.0038557085
-0.004268352
-0.0032867242
2.758318E-4
0.0021562234
7.4223516E-4
8.3486934E-4
3.7289053E-4
-0.002639929
-0.0040097823
-0.004719563
-0.005249774
-0.0033733177
-0.0014364519
-4.1466273E-4
0.001981938
0.0045337947
0.0036434538
0.0010227292
-4.2052887E-4
-0.0014065256
-6.134894E-4
8.1952E-4
0.001314912
0.0037620116
0.00544784
0.004662231
0.004136487
0.0021986056
1.4514185E-4
1.2249926E-4
-3.2119334E-4
-0.001405399
-0.0014210867
4.490664E-5
0.0016302082
0.0023813103
0.0013245408
-0.0020050085
-0.004580663
-0.00483873
-0.0040316023
-0.004032849
-0.0032492923
0.001390457
0.0047116256
0.00443204
0.0034984122
9.061475E-4
-0.001622133
-0.0032086351
-0.0032422151
-0.0024307151
-0.0046520494
-0.003257814
0.002470887
0.0040140464
0.0035192808
0.0017521492
-0.0021483412
-0.0040640947
-0.002307012
-0.0010941633
-0.0048745903
-0.0063492283
-0.0028506094
0.0010478335
0.0055989027
0.0037578342
-4.456448E-4
0.0018969862
0.0016314756
2.7118684E-4
0.001980932
0.0021767705
0.0043438915
0.006591552
0.005355159
0.0019256312
-0.0021755002
-0.0019959211
-4.5298747E-4
-5.367239E-4
9.1582123E-4
0.0024191518
0.004640907
0.005817466
0.003068012
1.954261E-4
-0.0036848383
-0.007522003
-0.0073735407
-0.005974397
-0.0037811217
-0.0019001572
-0.0010869757
0.0019102712
0.0015602697
-0.0034880573
-0.0054380335
-0.006252628
-0.0064951633
-0.0033942808
-0.0012744102
0.0010328637
0.0045032892
0.00491809
0.0040293
0.0025122855
-5.6429453E-5
-0.0012440985
-0.0016887303
-0.0012650782
0.0012390899
0.0041348003
0.00629716
0.008441569
0.007577109
0.0015621119
-0.0015523178
1.2893324E-4
-5.220786E-4
-8.419308E-4
9.961111E-4
0.0018391971
0.0027117971
0.0029495892
0.0017711576
-0.0012023016
-0.004900627
-0.0062007653
-0.0067207227
-0.0065034674
-0.0051634824
-0.004261096
-0.0010846236
0.002275711
0.0015514309
-0.0010248201
-0.0026319595
-0.0022159666
-0.0016174093
-0.0016437416
1.2900552E-4
0.0033993446
0.0054955217
0.00576649
0.005239166
0.0011147732
-0.0038070164
-0.0014990299
0.0015251902
6.1578763E-4
0.0010573522
0.0017615781
0.0037626135
0.005165009
0.0014912126
-0.0016418162
-0.003888226
-0.0062308954
-0.004128677
-0.0011334422
-3.0506984E-4
7.022987E-4
0.0017059178
0.0022480763
0.0015993774
-8.569606E-4
-0.0018321415
-1.5574705E-4
1.7146004E-4
1.4453044E-4
0.0019223698
0.0028330435
0.0039732363
0.0042759925
7.4762554E-4
-0.0022276826
-0.0032103085
-0.0040636873
-0.0031596061
-0.0014605713
-0.0010695041
5.243033E-4
0.0035479227
0.0029772792
-2.700909E-4
-0.0028810478
-0.004917819
-0.003459795
-0.001008674
-0.0010025027
8.320302E-4
0.0030528116
0.0042116176
0.0047798892
4.5576075E-4
-0.004776685
-0.0054183314
-0.0042522135
-0.002131441
4.9033546E-4
0.0018673646
0.0033708806
0.005116256
0.0050588776
0.0032399544
2.558386E-5
-0.0025609122
-0.002174415
-0.0017970711
-0.0012097841
0.0012981315
0.0029419067
0.0050341045
0.0054691383
0.0016845058
-6.976818E-4
-0.0021252309
-0.0033754949
-0.0021380554
-8.925057E-4
7.7671447E-4
0.0020353938
0.002262531
0.0031911999
7.261221E-4
-0.0031810421
-0.0033344587
-0.0029482006
-0.0034603279
-0.0031566324
-0.0018898997
-6.393372E-4
0.0016022096
0.004537337
0.0018948249
-0.0034741668
-0.005015087
-0.0067288335
-0.0059674294
-3.7591244E-4
0.00228424
0.0030511313
0.0043306258
0.0040484406
0.003474335
8.49388E-4
-0.001948601
-0.0014761484
-0.0016239765
-0.001037167
0.002058664
0.00492073
0.0079491725
0.006955655
0.0010678264
-0.0020609864
-0.002134867
-0.0018849759
-0.0011697713
-4.2552943E-4
8.242883E-4
0.0021486527
0.003623354
0.004325274
0.001642292
-0.0026537955
-0.0052561956
-0.005242472
-0.0042350017
-0.0029045634
-3.2656945E-4
0.0012378726
0.0020647524
0.0018320421
-0.0016767066
-0.0038979247
-0.0053532925
-0.0064009586
-0.0027389352
-5.6314113E-4
4.886579E-4
0.004178303
0.0043432964
0.0033262996
0.0030144977
9.101166E-4
-9.352676E-4
-0.0028068463
-0.0026910985
-0.001047643
-1.7880365E-4
0.0016711589
0.0031711108
0.0051719374
0.0043946058
-9.6316525E-4
-0.0021187568
-0.001923282
-0.0026635218
-5.984906E-5
6.287515E-4
0.0012628305
0.004092682
0.0039154454
0.002060078
-2.1141097E-4
-0.001838061
-0.002227164
-0.0020897677
4.0475925E-4
0.0013782626
-8.351602E-4
-5.6640024E-4
0.0017873043
0.002138368
2.9293614E-4
-0.002361468
-0.0043550525
-0.003798838
-0.0017466515
3.1191294E-4
0.0025844334
0.0024726046
0.00141364
0.0014893049
-0.0010403994
-0.0042189145
-0.0045959083
-0.00274074
-4.4706895E-4
-1.8436501E-4
9.981332E-4
0.0032086298
0.0026227897
7.133926E-4
-0.0014752427
-0.002347207
-0.0016145707
-0.0010633022
1.8875282E-4
8.746171E-4
0.0018574124
0.0035562802
0.0036337632
0.003735261
0.0023094625
-3.184167E-4
-9.1560686E-4
-5.6464825E-4
0.0011101748
0.0010834958
-1.5426439E-4
0.0023292913
0.0031613242
0.001085109
-6.2588946E-4
-0.0038964213
-0.0056999647
-0.002932729
3.0004504E-4
-0.0018101857
-0.00519217
-0.0019784933
0.0023640255
0.003053772
0.0015109982
-0.0013059768
-0.0012111888
-5.764034E-4
-0.0015966705
-9.799432E-4
-3.0410232E-4
0.0019123711
0.0052306564
0.004847328
0.0014396923
-0.0027929496
-0.00382503
-0.0021193498
-0.0010232602
6.4028474E-4
1.6597615E-4
-6.1362586E-4
0.0012633264
1.7011001E-4
-0.0030982597
-0.0045988555
-0.0033914463
-9.7388524E-4
-5.0692377E-4
0.0015907227
0.00457817
0.005341665
0.0073729176
0.006933849
0.0024500634
-4.3775988E-4
-0.0015546791
-0.0020635312
-0.0026472465
-0.0021689455
-8.3748956E-4
-0.0013931564
-8.377679E-5
0.0016819582
-0.0011452951
-0.0035278008
-0.0025295052
0.0011805452
0.006668607
0.010772631
0.013769889
0.014742953
0.0136312125
0.011524765
0.0045802305
-0.0033887003
-0.006561341
-0.0081172865
-0.00811789
-0.006230422
-0.005170554
-0.0036801023
-7.004144E-4
0.0017479841
0.0011927118
-0.0012050278
2.8791887E-4
0.0061423345
0.0104230875
0.011643353
0.011908335
0.012322574
0.010569182
0.003627892
-0.003391226
-0.008943693
-0.017574714
-0.027209962
-0.035375614
-0.037344366
-0.030900491
-0.02236532
-0.011227276
0.0024000066
0.0149816675
0.028510453
0.0386316
0.03826796
0.031311866
0.023319347
0.011873841
5.5302404E-5
-0.005864285
-0.0019698553
0.02149526
0.04723888
0.04323607
0.021127485
0.007391288
-0.0034241339
-0.033479862
-0.06540758
-0.056277566
-0.024090664
-0.012397068
-0.021185415
-0.020620665
-0.0013726415
-0.012377059
-0.0632251
-0.0860725
-0.04672963
0.02587051
0.07372536
0.08345558
0.090200074
0.10190151
0.1021489
0.04657266
-0.047507875
-0.082933545
-0.06344055
-0.032220144
0.016468303
0.06253708
0.07558624
0.037085902
-0.016024735
-0.04040391
-0.061898917
-0.07808424
-0.06480826
-0.030425347
-0.02511692
-0.07544466
-0.088909164
-0.06454614
-0.0820866
-0.05306508
0.060642708
0.15350899
0.1846802
0.15538152
0.07624217
-0.0066766646
-0.036363978
0.0014654555
0.052261554
0.080314584
0.07548302
0.015501061
-0.06738401
-0.10793491
-0.096559025
-0.068032
-0.048693232
-0.052010465
-0.07038028
-0.0532519
0.017211763
0.07431147
0.07934027
0.05881322
0.009138132
-0.05900267
-0.07684049
-0.033766292
0.030728176
0.08238945
0.07345265
0.018128566
-0.010216105
0.0153870545
0.05319044
0.059729
0.047959518
0.0066620475
-0.055190057
-0.054563887
-0.040467672
-0.07296261
-0.072548695
-0.0695042
-0.10171785
-0.09380503
-0.06933783
-0.045952585
0.015543088
0.066911705
0.10107938
0.13173434
0.08981413
0.015944066
0.0010449002
-0.008526664
-0.033586457
-0.021470925
0.02365234
0.1006454
0.16296956
0.16619135
0.16755775
0.09815717
-0.07691297
-0.14656219
-0.121269256
-0.16402106
-0.1519606
-0.042981658
8.089455E-5
-0.019840173
-0.045087177
-0.07043208
-0.070013456
-0.07452026
-0.083884016
-0.052200835
0.020907432
0.1355268
0.2287611
0.24491386
0.19554654
0.045046795
-0.12442208
-0.16789608
-0.114658274
-0.032699976
0.024890212
0.040544596
0.03491789
-0.0041995617
0.0010781782
0.06631039
0.070643395
0.019518644
-0.05039751
-0.11553178
-0.1089251
-0.05546536
-0.018013343
-0.03092338
-0.06436304
-0.04439255
0.0049366867
0.031640504
0.04064542
0.069136955
0.11251704
0.1097997
0.10516869
0.14364263
0.15957785
0.12705006
0.038953654
-0.08114017
-0.15592511
-0.15926109
-0.121692196
-0.08647082
-0.056007236
-0.047646694
-0.078978874
-0.08458162
-0.06687047
-0.050692745
0.010823034
0.08489862
0.10975461
0.07916874
0.011194726
-0.045843273
-0.0567076
-0.0467383
-0.0259371
0.062470004
0.16375749
0.19055802
0.18703544
0.08985052
-0.10009872
-0.18210289
-0.1508488
-0.078074545
0.02148543
0.062130637
0.04442298
0.0012290603
-0.053060398
-0.04044158
0.022523662
0.036282904
-0.014665175
-0.06782034
-0.075834304
-0.05696312
-0.04578398
-0.04294117
-0.04081544
-0.00811725
0.117218755
0.26177412
0.29694098
0.24330473
0.059666015
-0.21245043
-0.2859637
-0.17429003
-0.10033203
-0.05465818
-0.011921329
0.017011365
0.047021814
0.04503567
0.008712478
-0.030946769
-0.042832967
-0.026526988
-0.016741617
-0.0066075656
0.004672327
0.0035692865
0.013907078
0.038065415
0.0642356
0.09113377
0.08455724
0.036829382
0.0037185044
-0.009658522
-0.029793438
-0.031013396
-0.016061364
-0.007504222
-0.0024384568
-0.012983486
-0.026547667
-0.029709484
-0.038976222
-0.040621754
-0.028585184
-0.022347063
-0.018940173
-0.00564868
0.011422187
0.016545556
0.014720105
0.010099471
-1.9602705E-4
0.0013102621
0.014117823
0.023539694
0.035734016
0.050572716
0.0524017
0.033450153
0.016176865
0.012143284
-0.00794386
-0.031412154
-0.021994144
-0.012856329
-0.036448095
-0.056040563
-0.04070284
-0.01686844
-0.0066558663
0.0036734992
0.011315334
0.008118009
0.0069115
0.004153407
-0.005374969
-0.005506325
0.0010691754
-0.004383088
-0.015971856
-0.021632783
-0.021163687
-0.008699709
0.00637392
0.008540311
0.0058028167
-0.0018851695
-0.013426318
-0.016675422
-0.011227374
0.0074118115
0.0381594
0.07172313
0.09324353
0.07796149
0.035146132
-0.0072622313
-0.036776397
-0.05037804
-0.06121677
-0.066382445
-0.04117707
0.019331563
0.083354786
0.120507106
0.13267066
0.08096087
-0.04355926
-0.1236271
-0.118295886
-0.09636406
-0.068696655
-0.039376006
-0.031947523
-0.028865987
-0.014328884
-6.228783E-4
0.007566653
0.012304143
0.009610695
0.011939062
0.020565268
0.014878783
0.0016145026
-0.010182895
-0.014037248
0.0033737519
0.028461548
0.051313993
0.06699926
0.06782835
0.05720319
0.021726554
-0.023850854
-0.045206595
-0.04363352
-0.0043157525
0.054948427
0.068444856
0.039788246
-0.0017913663
-0.038755704
-0.042231757
-0.045052152
-0.068395704
-0.0580229
-0.022731276
-0.0060784183
0.0036122885
0.0076636537
0.006167403
0.008501265
-7.269188E-4
-0.012228848
-0.004202963
0.0101548685
0.013724566
0.0070597194
0.0023066923
0.0030368664
1.6219328E-4
-0.0037519818
-0.0022062093
0.0011289786
0.0023159662
0.0025675267
0.0049861856
0.009318755
0.011246704
0.0076692603
0.002189812
-1.7104806E-4
5.827824E-4
0.0015820367
-8.550911E-5
-8.2458736E-4
0.0033567683
0.006678533
0.004419969
-4.5523705E-4
-0.003100288
-0.001733507
0.0013507832
0.0034782174
0.0042751976
0.005108956
0.0047431216
0.001507237
-0.0026707035
-0.006818284
-0.008952073
-0.007435031
-0.0050230543
-0.0021180573
0.0015491793
0.002391516
-0.001351066
-0.0056301476
-0.009219257
-0.016139382
-0.020235814
-0.014175735
-0.0053553167
3.4760335E-4
0.0045932303
0.00915826
0.013459045
0.015511999
0.015985027
0.011794404
0.003481157
-0.001494191
-0.0063924054
-0.011505119
-0.010953842
-0.007965404
-0.0031945575
0.0022397882
0.0065677557
0.012090782
0.01332622
0.011089515
0.013061859
0.016014675
0.013638186
0.004122669
-0.004167024
-0.003227644
-5.023919E-4
-0.0020369058
-0.005880668
-0.009864681
-0.0120310215
-0.014419713
-0.019898925
-0.026041914
-0.026306903
-0.019094663
-0.011962354
-0.007747513
-0.0024203504
0.0027936406
0.0053366884
0.00694217
0.0070468187
0.0033804907
-7.61309E-5
0.0021438685
0.009796662
0.016739223
0.014643408
0.0071243984
0.00824027
0.019463921
0.026261581
0.02265076
0.022760715
0.029994374
0.028569844
0.017104736
0.0012909821
-0.021000674
-0.04130186
-0.04613812
-0.036478262
-0.024164366
-0.01783606
-0.01791855
-0.0167014
-0.009367948
-0.0046703448
-0.0015254406
0.0053646048
0.005105866
2.9600912E-4
-1.4175566E-4
0.0029257406
0.0094876075
0.007003115
-0.0020042127
1.7070433E-4
0.0044536586
0.0050955117
0.003821584
-0.0022056585
-6.8661233E-4
0.008662634
0.013219437
0.012451783
0.009264921
0.0058551123
0.0018439521
-0.0012276602
-0.0046411953
-0.010563541
-0.009620874
-0.0053154873
-0.0026021926
0.006670249
0.011358237
0.0048944806
6.257569E-4
-2.7924316E-4
-0.0012449507
1.1335671E-4
0.0035719788
0.006097822
0.0076463255
0.009230608
0.0063900617
-7.541474E-5
-0.006655573
-0.013616221
-0.015066307
-0.0107743945
-0.00746879
-0.0032142545
0.0026225992
0.0028036637
-0.0023918087
-0.0038419936
-0.0030607372
-0.0036345988
-0.0011335356
-0.0015257399
-0.0030095882
0.0034621628
0.004119597
-0.0022803464
-6.679645E-4
0.0016837231
-1.8539079E-4
7.6990365E-4
0.002491578
0.002907907
0.0032310633
0.003450015
0.004441959
0.0049615
0.0027577358
-6.5017276E-4
3.849745E-4
0.005480398
0.006598589
0.0057669478
0.006916047
0.005492371
0.00452908
0.0043962635
6.25911E-4
-0.0023901188
-0.0057074795
-0.007956623
-0.00492825
-0.004250911
-0.0038582461
2.6347969E-5
0.0016650624
0.002069859
-8.2232634E-4
-0.006090357
-0.0070377123
-0.006805241
-0.005474318
-0.001263626
0.0019523652
0.004241354
0.005617829
0.0053965626
0.0046874746
0.0019941626
-0.0018739545
-0.0023306021
-8.4175495E-4
-4.973585E-4
0.0013702936
0.0032976076
0.0044644014
0.0057875854
0.0014231824
-0.0055397064
-0.008155654
-0.007813945
-0.0055474867
-0.0030541187
8.245293E-7
0.0020454272
0.0014803989
0.0023928874
0.0011443358
-0.0012756527
-0.0012830043
-0.003815937
-0.0028739606
0.0018894881
0.0027174244
0.0040321387
0.006508214
0.0066027646
0.0037308375
8.968484E-5
-7.6188403E-4
-0.0011943744
-0.0013605494
-6.449111E-4
-2.1037535E-5
0.0026560372
0.0052421996
0.005156125
0.0033304137
7.01145E-4
-0.003221588
-0.006909344
-0.00620821
-0.0047485223
-0.0040440867
-0.0014470464
1.8635602E-4
0.0015056607
3.8213475E-4
-0.0030325789
-0.004399225
-0.007308701
-0.008237546
-0.007138582
-0.006492385
1.3775537E-4
0.0021188513
-0.0020572331
0.002031652
0.0050137667
6.779868E-4
-0.0010279175
0.0011451446
0.002817663
0.0029599364
0.0042318185
0.0061414368
0.0074692834
0.00647527
0.0010192809
-0.0010806064
0.0017392599
0.0022916198
0.0015991764
3.0445147E-4
-8.835925E-5
0.0033305786
0.0058935885
0.0040544798
-7.064454E-4
-0.004402981
-0.0049477257
-0.00540309
-0.006065508
-0.0051535647
-0.0037591867
-0.0015908686
0.0014795923
0.0019288613
-9.930675E-4
-0.003362474
-0.003780736
-0.0030203455
-9.349275E-4
6.8494503E-4
8.0507185E-4
0.0017706947
0.0029276202
0.0019615206
5.5670994E-4
-0.0012140581
-0.002880687
-6.0300046E-4
0.0014282812
-0.0014281124
-0.0020067398
0.002740756
0.0054098684
0.0028905252
-1.5538852E-4
-0.0018611292
-0.004014069
-0.0034087896
6.381009E-4
0.0018842927
0.001402196
0.004456099
0.0073879375
0.0056573255
0.0020670649
-5.5462244E-4
-0.001197583
-1.6304935E-5
-8.307459E-4
-0.002321151
-4.0719897E-4
0.002147527
0.0043475134
0.004929713
1.480019E-4
-0.005759474
-0.0077711623
-0.0070514777
-0.005375234
-0.0032308013
-6.296832E-4
0.001708414
0.003415804
0.003171191
-1.08307446E-4
-0.002940831
-0.0037545252
-0.0034182228
-0.0016298494
-6.8165734E-4
3.923961E-4
0.004569886
0.0077115013
0.006173427
0.0020783464
-0.0012520576
-0.0025564996
-0.0031142784
-0.0020921452
7.3947106E-4
0.0017699009
0.0022996995
0.005032705
0.0053302175
9.425383E-4
-0.0029568102
-0.0029536227
-0.0010358448
-3.3809568E-4
-0.0012400923
-0.001760824
-3.2072474E-4
0.0018441492
0.0013800423
-0.0019596838
-0.004924484
-0.005531301
-0.004014971
-0.0018854572
4.0716463E-4
0.003228471
0.0043030484
0.0031602278
0.0026198458
0.0014980509
-0.001619054
-0.0027066027
-0.001160965
-0.0012517001
-0.001689636
9.35384E-4
0.004830663
0.00707652
0.0055183927
8.2290545E-4
-0.0035643352
-0.0056549385
-0.003997
-0.0010982663
4.935847E-5
0.0017305203
0.0024716542
0.001954987
0.0031923542
0.0013614855
-0.003780595
-0.0048157466
-0.0028395245
-0.0019109533
-0.0011659458
3.7219367E-4
0.002980238
0.005378333
0.004103952
-3.634869E-4
-0.003984099
-0.0049720285
-0.0032195074
-0.0013309086
-8.2072767E-4
9.413113E-4
0.0027169911
0.0035625184
0.003866695
7.48207E-4
-0.0018376122
-0.0015715397
-0.0026213084
-0.0019226612
3.3E-4
8.0924894E-4
0.0031713403
0.0054596174
0.003645305
9.473389E-4
-5.4166745E-4
-0.0012351994
-9.0253184E-4
5.870003E-4
0.002411476
0.0034376995
0.004030946
0.003820912
0.0016980973
-9.4760954E-4
-0.0031468535
-0.0051588085
-0.005230212
-0.0037808775
-0.00333347
-0.0021258618
3.206199E-4
0.0015627156
0.002109398
3.894745E-4
-0.0040526246
-0.0057740216
-0.0055885976
-0.005496047
-0.0011134715
0.0036558372
0.004181712
0.0054492005
0.006565466
0.004497529
0.001371092
-0.0015128459
-0.0010002202
9.3774596E-4
5.12694E-4
0.0023663065
0.005256283
0.005872719
0.0063656927
0.003735683
-0.001590165
-0.0042119157
-0.0045802104
-0.004165797
-0.0025969262
-6.560275E-4
4.4177094E-4
0.001319265
0.0017239626
-7.605685E-4
-0.0040855543
-0.0048284307
-0.004082396
-0.0028967492
-0.0014237573
-5.3692906E-4
8.550175E-4
0.0037903308
0.005019505
0.0026013113
-0.0014646553
-0.004719419
-0.004301713
-0.0025215815
-0.001498617
0.0020258885
0.0046786014
0.005388195
0.007106432
0.0040478124
-0.0012749993
-0.0015452567
-0.002355561
-0.0047180126
-0.003067146
-3.0955957E-4
0.0010995055
0.0030637004
0.003161845
4.9371837E-4
-0.0025362116
-0.005326443
-0.0050987224
-0.0023951773
-5.773741E-4
0.0012096835
0.0021734745
0.003723284
0.005735819
0.0027905896
-0.0018704324
-0.003874452
-0.0040817657
-0.0027024592
-0.0018321264
-0.0014109489
3.7199196E-5
0.002744585
0.0042402456
5.230539E-4
-0.0030104157
-0.002543377
-0.0029438816
-0.0032850374
-0.0013275816
0.001053302
0.0032127805
0.005198622
0.005826211
0.003939095
9.379332E-4
-0.0015046477
-0.0020804408
-0.0017082491
-0.002050924
-7.447726E-4
0.0012910854
0.0045219627
0.008312705
0.004537255
-9.834126E-4
-0.0023186894
-0.006011798
-0.0074464106
-0.004971436
-0.003822156
-9.392216E-4
0.003587973
0.0052783107
0.0016045001
-0.0032103262
-0.0043756543
-0.0038219925
-8.6445577E-4
9.3170453E-4
-8.9285115E-4
-1.9694324E-5
0.0024523803
0.004735316
0.0046886303
-5.5660825E-4
-0.003116859
-0.0018881223
-0.0010217412
4.9002792E-5
-2.589899E-4
0.0016359403
0.0060160113
0.0067717214
0.0047780164
0.0014349518
-0.002288252
-0.0033817464
-0.0019487542
-5.170396E-4
-3.5101292E-4
8.403117E-4
0.003241616
0.003966038
0.0019956082
-0.0018535092
-0.0044354717
-0.0043333666
-0.0027793862
-0.0011022602
-0.0012452258
-0.0012457063
0.001424849
0.0038665778
0.0027763725
-3.581789E-4
-0.0016096679
-0.0021168806
-0.0033515166
-0.0020866636
1.6735721E-4
5.4522144E-4
0.0018524175
0.0036536609
0.0021075618
-9.31915E-4
-0.0028547514
-0.0037285648
-0.0013045853
0.0023052022
0.0022041295
0.0020988865
0.004277538
0.004215945
0.0022737763
5.0461903E-4
-0.0016958491
-0.00213305
-0.0016186142
-0.0025899298
-0.0016822774
0.0010248609
0.0037279425
0.0055615613
0.002735298
-0.0011246523
-0.0032381508
-0.0049581025
-0.003522588
-0.0029587809
-0.0026002156
0.0013514451
0.002225759
0.0026349335
0.0043918327
0.0013327582
-0.0020135485
-0.002467635
-0.0022824055
-0.0016445449
-8.1470114E-4
6.4219866E-4
0.0032222758
0.005925475
0.004642726
6.5771805E-4
-0.0020608574
-0.00458665
-0.0039305985
-0.0015864167
-9.5363526E-4
7.042823E-4
0.0012509869
0.0016200354
0.0015965508
-0.0011917235
-0.0024048833
-0.0027542866
-0.0019294508
-0.0036980128
-0.00960512
-0.0042022546
0.005961569
0.0060793175
0.00436261
0.0016964874
-0.0016417598
-0.0014534149
-0.0027668446
-0.002567732
0.0020416225
0.0043782946
0.0036603753
0.003959712
0.0038923756
3.3001992E-4
-0.0028095895
-0.0025982673
-0.0016081615
-7.1818515E-4
-6.008341E-4
2.4108982E-4
0.0023426404
6.7361427E-4
-0.003689611
-0.0060631656
-0.007283812
-0.0069252
-0.0046593393
-0.0034584983
-0.0026172935
-5.723294E-4
0.001158603
0.0023195131
0.002095718
-0.0010203978
-0.0049833884
-0.00594991
-0.0032013792
-0.0013850848
-0.0019072638
3.7934023E-4
0.004357186
0.0042517777
0.0013280427
-0.0013973075
-0.0041798083
-0.00532084
-0.004062687
-0.002289631
5.9051823E-4
0.003892339
0.0065355445
0.008978508
0.0077226874
0.003901882
0.0025451272
0.0021039422
0.0016463825
0.001735121
0.0024499479
0.0039942292
0.004313414
0.0046241824
0.004544415
0.0013821033
-0.0017551562
-0.0035102554
-0.004606932
-0.004576881
-0.0036588414
-0.0023472349
-0.0034504265
-0.005952516
-0.007410954
-0.010462983
-0.014006454
-0.014718748
-0.012233345
-0.008578128
-0.0063238423
-0.0034762125
0.0019460829
0.006995699
0.00692292
0.0027304094
2.014857E-4
-1.1149976E-4
0.0011312503
0.0030563981
0.004728609
0.008117424
0.010618666
0.012371148
0.012466185
0.0055530313
-7.5888906E-6
3.9816726E-4
0.001037472
0.0018410805
0.0017609005
0.0022055877
0.0031666118
0.003357973
0.003908192
-0.0031838592
-0.013089465
-0.012186566
-0.006978412
-0.0047846735
-0.0037258293
-0.0016174413
7.968232E-4
0.0021087741
0.0030739312
0.0010795685
-8.4774283E-4
-5.000854E-4
-0.0010553113
1.8018206E-4
-0.0022997772
-0.005733613
0.0012006148
0.006246732
0.0032241868
-3.8385406E-4
-0.0040786937
-0.0052201403
-0.00442311
-0.0030127906
-9.0078125E-4
3.8777952E-4
0.0032112894
0.004367422
0.0034337493
0.0034032692
-6.6411035E-4
-0.0050780084
-0.0045334133
-0.0037296154
-0.0034842372
-0.0016666572
0.0014222056
0.0041356604
0.0051375907
0.0032581997
-6.668082E-4
-0.0016522576
-2.7946947E-4
1.4996718E-5
5.945549E-5
1.9825019E-4
0.0022657563
0.004297879
0.0031317244
0.0022425826
-1.6353416E-4
-0.003231057
-0.0013099096
2.1981377E-4
-4.3300333E-4
3.3610506E-4
0.0013952767
0.0043747453
0.005844048
0.001389163
-0.0028670933
-0.004425068
-0.0055089258
-0.0048543764