0.002667964
0.0027012248
0.004773528
0.0044042156
0.0010841098
-9.86894E-4
-0.0029375213
-0.0022732003
5.72192E-5
0.0012797765
0.0035271049
0.0046726973
0.0024232185
-9.999645E-4
-0.0029531764
-0.0038891148
-0.0034600839
-2.9964984E-4
7.0851453E-4
-3.688576E-4
7.0239353E-4
0.0019760595
0.0028862667
0.001482504
-0.001592186
-0.0025800958
-0.0042917565
-0.0052183135
-0.0032196122
-9.352764E-4
0.0016844397
0.0039215293
0.0045386725
0.0013454828
-0.0023730232
-0.0015483494
-0.0012608481
-9.721515E-4
0.0010208981
0.002283214
0.005116824
0.004599357
0.0019670033
0.0018689784
-0.0018116111
-0.0031468384
-1.991667E-4
-0.0012388981
-0.0015481234
-1.4929635E-4
0.0011804302
0.0042707315
0.0038946636
2.9144305E-4
-0.002034033
-0.0041286927
-0.005269544
-0.004103165
-0.0030961172
-0.0011498879
0.0030287558
0.0030562833
0.0010980315
0.0017285916
-0.0010225872
-0.0023261507
4.9756473E-4
2.4477358E-4
0.0010494313
0.0022306147
0.002334479
0.0055098115
0.004360851
-1.3662592E-4
-0.001764361
-0.004088017
-0.0038540657
-0.0013985038
-0.0012996051
0.0016449529
0.0053849057
0.0047041387
0.0042910143
0.001922206
-0.005844324
-0.008711641
-0.004213538
-0.0017489725
-0.002153911
-0.0020923286
-2.0761385E-4
0.0033685698
0.005160626
0.0027410677
-0.003820916
-0.008472912
-0.006233865
-0.0022374545
0.0012065705
0.004376078
0.0053306827
0.0049478356
0.0028782585
2.7411102E-4
-0.0013376704
-0.0016565421
5.213071E-4
6.6376565E-4
-7.415734E-4
7.0379674E-4
0.0023889495
0.0057175066
0.0066774534
1.7139621E-4
-0.00367728
-0.003726047
-0.0054511656
-0.0042420016
-8.9993037E-4
0.001116154
0.002931239
0.0037011895
0.002968809
1.7914585E-4
-0.0044362852
-0.006034905
-0.004155854
-0.003705211
-0.0034286482
-8.0869277E-4
0.0021654996
0.0047846707
0.00479109
7.3425553E-4
-0.0027299568
-0.0036441456
-0.0038903898
-0.0023002122
0.0015401162
0.0034738262
0.003589272
0.0055571464
0.0053636497
0.0012786133
-0.0014530026
-0.0026979048
-0.0028426037
-0.002193271
-0.0033064727
-0.0029770439
0.001448894
0.006089827
0.005860607
7.1354944E-4
-0.0037179773
-0.0055765496
-0.005196178
-0.0025418585
-0.0018391144
-0.0023022764
-1.9295327E-4
0.002821571
0.004926589
0.0029664617
-6.1638124E-4
-1.4396152E-4
6.692718E-5
-3.4113956E-4
2.1903907E-4
-9.493795E-4
0.0014073557
0.0043188827
0.0023601814
0.0019626215
-2.9233558E-4
-0.004351457
-0.0035797341
-0.0025284817
-2.7175108E-4
0.0013666685
2.4423673E-4
0.0042764856
0.0051754704
-0.0011322069
-0.0033833224
-0.0030465908
-0.0027613142
-0.0025119677
-0.0024862718
6.757895E-5
0.00246535
0.0047225296
0.005024807
-1.723517E-4
-0.004548193
-0.00569024
-0.004066079
-3.2447485E-4
0.0012649487
0.0026208323
0.00486776
0.005703421
0.0046038846
0.001341785
-0.0017648309
-0.0030777177
-0.0031001433
-0.003721885
-0.0031203136
0.0015039437
0.004368475
0.004351666
0.0030341747
2.9299765E-5
-8.8174443E-4
-0.0037350396
-0.005283896
-0.0018531727
-0.005843277
-0.007973879
0.0013518588
0.0070675225
0.006536051
0.0029170413
-0.0019021167
-0.0033456539
-0.0034555267
-0.0015266722
2.0756909E-4
2.2878376E-4
0.003154627
0.005401297
0.0050886297
0.0025600286
-0.0023145322
-0.0029704194
-6.321035E-4
-5.544789E-4
-2.2602081E-4
0.0014972461
0.0030192803
0.0039048325
0.0031459506
-1.5289708E-4
-0.0028945664
-0.0035161434
-0.004393086
-0.0043054745
-0.0029195845
-0.0013287432
5.7655113E-4
0.0014870283
0.0024115513
0.0016421613
-0.0022696732
-0.004300597
-0.004436281
-0.0044763037
-0.0025575003
6.05391E-4
0.0030784574
0.0036960149
0.003537857
0.0032159374
0.0013771165
-1.3875596E-4
-4.0061172E-4
-9.28384E-4
-4.4964277E-4
0.001460886
0.0029423118
0.0040849377
0.004091694
0.001799706
-4.8261273E-4
-0.0027983598
-0.005007772
-0.0035507397
-7.6906406E-4
5.484821E-4
0.001911411
0.0019957568
9.2405436E-4
-9.548649E-5
-0.0026972508
-0.004703369
-0.0028515863
-0.0012429259
-0.002063528
-0.001269924
6.0445373E-4
0.0022943874
0.003196563
2.375156E-4
-0.0031318832
-0.0036946752
-0.0027149033
-3.4156174E-4
9.738114E-4
0.0017710591
0.0032614688
0.004351855
0.0058989315
0.004455612
2.7745435E-5
-0.0025846742
-0.0036227803
-0.003089465
-0.002412577
-0.002418108
-3.9326717E-4
0.0024840364
0.0038854026
0.0026903462
-5.498767E-4
-0.0030411952
-0.0026274775
-4.0658514E-4
-1.7515283E-4
-4.3608394E-4
4.488482E-4
8.604824E-4
0.0028507009
0.0037366964
0.0010237332
-0.0015823365
-0.0037281273
-0.003985367
-0.0025424128
-0.0023451324
-6.26547E-4
0.0035117087
0.006379224
0.004918695
4.123356E-4
-0.0030992574
-0.0060245963
-0.006596908
-0.0027660565
-0.0014533894
-0.0032463423
-5.229963E-4
0.0037860973
0.003175292
8.4869313E-4
3.4294886E-4
3.9524725E-4
6.855146E-4
8.6730835E-4
3.2238092E-4
0.0011066656
0.0037916366
0.0050304504
0.0031588667
-0.0013920994
-0.004725043
-0.0022749295
-3.966514E-4
-0.0015519289
2.5153818E-4
5.273839E-4
8.439876E-4
0.005248706
0.0033519666
-0.0020406495
-0.0022911315
-0.0020771734
-0.0015197056
-4.236275E-4
-0.0015577198
-0.0016953107
7.296147E-4
0.0026768262
0.0017498626
-6.511305E-4
-0.0025164825
-0.0040018386
-0.004553628
-0.0032579838
-4.0651683E-4
0.002311388
0.0047905813
0.0071540065
0.0053392365
-3.990852E-4
-0.0036779616
-0.0034700565
-0.002676967
-0.0012613744
-1.0068798E-4
-3.6567074E-4
5.292959E-4
0.0012157531
-2.617106E-4
-2.7741987E-4
-5.785221E-4
-0.0018863566
-6.980622E-4
-0.0010716576
-0.0023546205
4.5605202E-4
0.0031969878
0.0036888318
0.0033561555
9.2406955E-4
-0.0016786029
-0.0020556683
-0.0012960497
-5.5835827E-4
-7.155212E-4
1.3441146E-4
0.0036131581
0.005185384
0.003672561
0.001364289
-0.002404099
-0.0039952532
-0.0019796856
-6.7833735E-4
-4.7104154E-4
-2.4216592E-5
0.0017155015
0.0024667338
0.0015307273
0.0025081562
-7.0349063E-4
-0.007946836
-0.007675964
-0.0029091225
-5.952951E-4
5.211499E-4
0.0025664943
0.005794816
0.0049786284
-2.62025E-4
-0.003591957
-0.0040982333
-0.0033993085
-0.0022598929
-9.4307814E-4
0.0014410196
0.0042585703
0.005239769
0.0033410706
-4.642079E-4
-0.003701183
-0.0036186895
-0.0019119347
-0.0015986514
-0.0016264981
-0.0010185323
0.0014692664
0.004971992
0.004748952
3.0751183E-4
-0.0037766632
-0.0036049965
-0.0019203335
-0.0014689355
2.219052E-4
0.0013097521
0.0019529588
0.0043194927
0.005014355
0.003024241
-6.524536E-4
-0.0020670814
-5.751806E-4
-0.0013768524
-0.0010921474
9.0439315E-4
0.0016788432
0.0034398055
0.003332991
6.15588E-4
-0.0030560691
-0.005383789
-0.002929787
-0.0019851495
-0.0029149868
-2.2007382E-4
0.0015770133
0.0013164892
0.0014105245
2.4798512E-4
-0.0030268545
-0.0050648362
-0.0033444713
-0.0020908767
-0.0015934276
5.837263E-5
0.0015919554
0.0045440136
0.0048035155
-4.996854E-4
-0.004015335
-0.0027156016
-9.6307945E-4
-0.0010258113
-4.7876467E-5
6.55749E-4
4.2188732E-4
0.003842101
0.005056891
0.002980824
0.0038933929
0.0025060067
4.958219E-4
0.00158837
9.494048E-4
3.2315208E-4
-1.3067422E-4
-4.3615687E-4
4.7202187E-4
-0.001183008
-0.002431786
-0.0030351023
-0.0050628125
-0.0031229586
3.1593318E-5
0.0010912593
0.0026466222
0.0025459798
0.0017283951
8.980941E-4
-0.002242488
-0.0037720564
-0.0024869004
-0.0023641346
-0.0027604864
-9.808834E-4
0.0018931212
0.0041709985
0.0052926764
0.0023518202
-0.0025457642
-0.003432645
-0.0028486936
-0.0021993048
4.0875E-4
0.0016662414
0.0017799123
0.0024005112
0.0019239988
1.8723702E-4
-0.0021336507
-0.0030573406
-0.002875696
-0.0028080558
-0.0014056608
-2.1300784E-5
0.0016293463
0.004747042
0.0056665586
0.0033371127
-2.1724244E-4
-0.002515963
-0.0020645747
-0.0013448158
-6.792721E-4
0.0016211481
0.004266439
0.005691313
0.0045168074
0.0011479364
-0.001609245
-0.0037197007
-0.0048292247
-0.0027417687
-4.8166155E-4
-5.356485E-4
5.9415084E-5
0.0019473522
0.0029254246
4.493374E-4
-0.004161966
-0.005371781
-0.0038546678
-0.0025508888
-0.0010294596
2.6501212E-4
0.00275751
0.004759173
0.0028984621
0.0013484566
2.0763742E-5
-0.0035468966
-0.0035015838
-6.9363386E-4
-6.6728913E-4
-2.465298E-4
0.00183916
0.0038991557
0.0058593354
0.0041453526
-4.4860406E-4
-0.0033180376
-0.005103048
-0.0051478143
-0.0026661104
-4.373335E-4
0.0017052615
0.0044750213
0.0036565752
-0.001546548
-0.0027822591
1.1784135E-4
-5.046684E-4
-7.806062E-4
6.66572E-5
-0.0020336276
-1.0031852E-4
0.0050779525
0.0055535473
0.0034374017
3.0045255E-4
-0.0035704223
-0.004623849
-0.0033126262
-0.0016931358
3.6426514E-4
0.0017953388
0.0023124919
0.0035228122
0.0029154518
-5.9231377E-4
-0.002478084
-0.0024605077
-0.0021506622
-0.0017994342
-0.0020440768
-2.1817023E-4
0.0028712044
0.0029926158
0.0010189279
-0.0013071845
-0.0026925446
-0.0019022587
-5.6299265E-4
6.222283E-4
0.001988598
0.002595597
0.0028626542
0.002963783
0.0017871176
0.0010319776
0.0024272937
0.004704976
0.0063183857
0.0045145075
-0.0019247445
-0.008788741
-0.011118862
-0.007955434
-0.003464883
-0.0018461581
-0.0016532608
-0.0011381606
-8.689275E-4
-7.893711E-4
-0.0019571912
-0.0025399195
8.797048E-4
0.005029531
0.007925632
0.007211211
-0.0015658049
-0.009689261
-0.01134398
-0.009330888
-0.0014116671
0.0058849915
0.010116552
0.0149732
0.010949642
3.7002485E-4
-0.005719257
-0.0039825425
0.005923588
0.013574837
0.017228324
0.016336158
-0.0022602924
-0.022672744
-0.02296439
-0.014637476
-0.0065819845
0.0035460119
0.007483543
0.0015456913
-1.8160041E-4
0.0084559135
0.017097425
0.014392807
-0.003569134
-0.017271137
-0.013723265
-0.0123676965
-0.016845603
-0.01577021
-0.010085414
-3.5983362E-4
0.008825478
0.01293614
0.011782584
0.003236323
-0.004285402
-2.252861E-4
0.0060509215
-2.0967412E-4
-0.009027399
-0.005092455
0.0035488724
0.007692287
0.0076184925
0.008176288
0.010693918
0.0032978246
-0.010633433
-0.013367645
-0.0043876446
0.0035189062
0.00424252
0.007686984
0.0127854515
0.010913182
0.010361688
0.004396706
-0.011855333
-0.016770916
-0.0070790183
0.0012506853
-0.0010637806
-0.008254663
-0.008628795
-0.0060638827
-0.0053818123
-0.0069659613
-0.011930218
-0.008473802
0.008996076
0.020563731
0.010016047
-0.0043169954
-0.0031507318
-0.0013055683
-0.008304304
-0.011563915
-0.0046584294
0.0048669707
0.009150591
0.01294305
0.016961988
0.017755227
0.015632534
0.004196001
-0.008201754
-0.014479316
-0.021497935
-0.008247968
0.022791505
0.020072997
-0.0134318
-0.021030113
4.1192787E-4
0.006189198
-0.008768857
-0.014464211
-0.0054902723
3.6228207E-4
-0.0026998646
5.2134995E-4
0.010544583
0.011795931
0.00748241
-0.001970546
-0.011566884
-0.0037552943
0.0065563
0.009839655
0.014194111
0.00483115
-0.008558084
-0.0039441907
0.0026311537
-0.0022302542
-0.008730468
-0.0013179593
0.010716204
4.4430382E-4
-0.016596198
-0.016221078
-0.007665916
-8.8244985E-4
-0.00636421
-0.016661933
-0.01208244
-0.0029985267
0.0065924907
0.0162327
0.010633141
0.004015811
0.010016702
0.015941147
0.020089542
0.024506874
0.017331967
-0.007237591
-0.02097733
-0.007081158
-0.002014974
-0.013749286
-0.011712276
-0.00174133
0.0047264737
0.009535901
0.0049823793
0.005507105
0.018965457
0.011927796
-0.012639302
-0.022905296
-0.031934742
-0.042299457
-0.03283485
-0.009851691
0.021421945
0.042873677
0.02877738
0.012887115
0.019406162
0.013526922
-0.00602945
-0.012299062
-0.011296067
-0.012372126
-0.015885424
-0.01688277
-0.0074882577
-6.775043E-4
0.005183589
0.019692566
0.020473357
0.012408851
0.010042722
-0.003604706
-0.012676228
-0.002049436
0.0015103334
-0.0031727203
-3.9697762E-4
0.0020686958
5.756358E-4
9.024695E-4
0.0026954776
0.004488759
1.846872E-4
-0.0064701745
-0.0066459873
-0.011802776
-0.010228205
0.0073757963
0.007384252
-0.0023179583
0.0025956428
0.007298425
0.002590446
-0.009433106
-0.007863326
0.0049206694
-0.0034232982
-0.022482244
-0.037146986
-0.033748515
-0.0062867366
0.007372003
0.006229348
0.0112751555
0.012757655
0.0030864952
-0.010669636
-0.0043186634
0.009142994
0.007270201
0.0097486265
0.004652235
-0.005154481
0.0042393203
0.0041357814
-0.0024161015
0.012273541
0.03737918
0.060539898
0.069974214
0.059298217
0.032846466
-5.0193403E-4
-0.027675552
-0.044942435
-0.045723867
-0.031228695
-0.016000165
-0.0034146728
6.17808E-4
-0.007916715
-0.01985417
-0.03251705
-0.042961705
-0.038296636
-0.02490293
-0.0235196
-0.021747906
-0.013167608
-0.012324312
0.0059521277
0.03560297
0.03136685
0.018371634
0.025601726
0.0345386
0.038129896
0.03143427
0.024384739
0.036250446
0.042448677
0.022718629
5.592738E-6
-0.018197509
-0.038620975
-0.04969711
-0.05644623
-0.062340397
-0.05570684
-0.059980925
-0.06819659
-0.028756617
0.034958955
0.066142775
0.05940437
0.02418126
-0.021729158
-0.036421277
-0.013793106
-0.008918518
-0.0118202735
0.039682023
0.101366505
0.11032501
0.09205202
0.09235649
0.1109778
0.11322486
0.117965885
0.107058086
0.02120862
-0.055240627
-0.09868037
-0.18937965
-0.24730906
-0.21465608
-0.16578937
-0.13198608
-0.093677044
-0.044757333
-0.039025404
-0.07271292
-0.03288082
0.07950422
0.1444571
0.1339177
0.11903176
0.11217671
0.06829747
-0.0061853104
-0.06999168
-0.06246927
0.0044210423
0.050124004
0.10779576
0.17848626
0.21154478
0.2344208
0.16703309
0.006788251
-0.089528054
-0.15043446
-0.23103629
-0.27969113
-0.25404274
-0.13482405
-0.032988813
-0.013987774
-0.018962014
-0.06970974
-0.12978889
-0.119376585
-0.052012477
0.061983187
0.17391759
0.23490365
0.23203748
0.15644746
0.10384216
0.10606294
0.05532495
-0.026203005
-0.015763622
0.0814838
0.1455527
0.10824908
-0.044896808
-0.2673509
-0.357879
-0.21868034
0.011169236
0.18772832
0.2254336
0.15883029
0.0656366
-0.086029164
-0.24503437
-0.28966206
-0.22782189
-0.14187475
-0.081312604
-0.012860859
0.07181584
0.089551225
0.039124645
0.018766085
0.04001589
0.048419192
0.08510047
0.1445454
0.104259446
0.019750211
0.027726848
0.06504148
0.028148893
-0.04584155
-0.050527234
-0.014498653
-0.036708888
-0.03662438
0.050533507
0.11695744
0.13610196
0.17263968
0.16052826
0.014141987
-0.13874826
-0.17011587
-0.15163597
-0.14206344
-0.12994447
-0.11546083
-0.098155625
-0.07300928
-0.013227563
0.049818028
0.04330904
-0.0076205744
-0.042685322
-0.029707184
0.037478432
0.1059218
0.12772673
0.11839626
0.08817949
0.0050209565
-0.07570785
-0.033704635
0.07700315
0.111436464
0.060742978
-0.0047138315
-0.0441769
-0.051506616
-0.014694869
0.034148473
0.009689638
-0.04732348
-0.047591962
-0.051807284
-0.09495363
-0.09687602
-0.051563878
-0.015340385
-1.1041021E-4
-0.0100288065
-0.030404756
-0.014424577
0.045981366
0.12082773
0.16788211
0.1696137
0.14564312
0.06451616
-0.0782239
-0.17452317
-0.165119
-0.09335904
-0.032578673
-0.013001592
0.0128650665
0.046275128
0.032695998
-0.018968858
-0.046970036
-0.030783704
-0.02604599
-0.026522027
0.025383417
0.06421088
0.03891595
0.011830892
0.016986037
0.039581474
0.044108007
0.033551086
0.04660104
0.061418727
0.050743036
0.01147402
-0.037666623
-0.041185476
-0.018560376
-0.019159395
-0.02232358
-0.023055637
-0.029970167
-0.035197936
-0.041147582
-0.04051543
-0.035114847
-0.028932223
-0.013109418
-0.0027455937
6.997403E-4
0.012826433
0.017428134
0.011578979
0.0151127875
0.025518656
0.03362316
0.03670119
0.030824749
0.019270858
0.010021055
0.0042001917
-0.0011140581
-0.0057989764
-0.009273415
-0.010629997
-0.008822173
-0.009676823
-0.014535307
-0.014061944
-0.008626731
-0.0033104206
0.0038586
0.009260771
0.010910169
0.01422243
0.016237447
0.011731826
0.0050221398
0.0011805668
-9.6820964E-4
-0.0034763888
-0.006075668
-0.008266724
-0.008788186
-0.008397138
-0.009449652
-0.011466791
-0.014361608
-0.015158643
-0.010726668
-0.006714409
-0.0041852994
1.638262E-4
0.0040455367
0.009881974
0.017890492
0.024820972
0.028436216
0.014021591
-0.012834799
-0.01935335
-0.010514947
-0.008770092
-0.001841919
0.014833643
0.019521458
0.0091249775
1.6379869E-5
-0.0053253355
-0.008079943
-0.002012767
3.0808384E-4
-0.0130333025
-0.023317138
-0.017680973
-0.006283086
9.4728806E-5
-0.00102014
-0.0036709234
-0.0043185754
-0.004889415
-0.004813658
-0.0034972325
0.0011001449
0.008381807
0.009774059
0.0042597638
5.58598E-4
-3.4436185E-4
-0.002454579
-0.0029229496
-1.6107806E-4
0.0020351058
0.0044271867
0.0074227536
0.0070691407
0.0044002864
0.0026342296
0.001599261
7.543007E-4
4.0706559E-4
7.194606E-4
0.0022530113
0.0060367677
0.009489996
0.008375572
0.0025731004
-0.0037422993
-0.004912674
-0.0032170713
-0.002867536
-5.180777E-4
0.0016562849
0.0021913724
0.00392496
0.002355877
-0.0012584754
-0.0032623033
-0.0046682213
-0.004148364
-0.0048980312
-0.0048788665
-9.781426E-4
4.7310427E-4
0.0014011195
0.0012792901
-0.003184033
-0.005432158
-0.0060159364
-0.005162793
-0.0024729888
-0.0024418049
5.7965657E-4
0.0055348445
0.005381637
0.003948422
0.0019167155
-3.258535E-4
-8.075433E-4
-0.0012893889
1.15804454E-4
0.0020309214
0.0026129058
0.005181155
0.006916812
0.0055303634
0.004028779
0.002015181
1.0039844E-4
-6.9178172E-6
7.303564E-4
0.0026680524
0.0046116062
0.0053963014
0.007151045
0.0070246677
0.003648246
0.0021111658
8.50609E-4
-7.4408686E-4
0.0012419978
0.002042568
-4.221947E-4
-0.0012511029
-0.0010386226
-0.001944756
-0.00445758
-0.007871968
-0.00926571
-0.007971743
-0.00540566
-0.0027861877
-4.8295845E-4
0.0027881938
0.0062198644
0.0064569674
0.0033542165
-1.2579066E-4
-0.002168749
-0.0014813662
5.449665E-4
3.3549953E-4
0.0011437616
0.005974989
0.008974452
0.007186426
0.00294472
-7.72978E-4
-7.4378535E-4
8.026758E-4
9.268883E-4
0.0011069287
8.629942E-4
3.908103E-4
0.002186174
0.0033885825
-0.0013094848
-0.007630397
-0.0065092877
-8.714595E-4
0.0012150981
6.8314106E-4
4.104614E-4
0.001329469
0.0040858705
0.0051682596
0.0026211648
-4.867465E-4
-0.0028323147
-0.003195436
-0.0010298509
4.1753202E-4
0.0011183335
0.0023608867
0.0034321425
0.004606551
0.00308664
-0.0012959429
-0.003971586
-0.004322325
-0.0024041596
-8.05598E-4
-0.0014427188
6.592689E-4
0.004066603
0.0038533004
0.0013356459
-0.0017689103
-0.0040152813
-0.0042992462
-0.0022393982
6.5320273E-6
6.2614505E-4
0.0030632871
0.0050415946
0.0034947023
0.0023752775
2.140592E-4
-0.003542886
-0.004237891
-0.0022343297
-2.8909018E-4
-3.0640987E-4
5.43532E-5
0.004119406
0.006060168
0.0016857694
-0.0028516876
-0.0042966
-0.004795454
-0.0033419759
7.983491E-5
0.0019024144
0.0020491572
0.0035668798
0.005722784
0.0041151782
2.4806336E-4
-8.8566646E-4
-6.62257E-4
3.8580777E-4
0.0019459786
0.001423011
0.0023616431
0.004170107
0.0027434372
6.4760516E-4
-0.0013912008
-0.0020874029
-0.0010552416
-0.0019424566
-0.0020205993
1.6423236E-4
0.0015570573
0.0023469657
0.002866188
0.002759489
-6.556824E-4
-0.00452076
-0.0026116723
-0.0020085874
-0.0031618401
0.001041054
0.0030374788
0.0022994631
0.0034560605
0.0012042364
-0.0018128321
-0.0031308937
-0.0044597536
-0.0019334769
0.0012051745
0.0012012491
0.0018435285
0.0025061038
0.0017763185
0.0012481455
2.687794E-4
-0.0012694969
-0.0021799493
-0.0021955688
-6.4495794E-4
5.542807E-4
1.9179938E-4
0.0021294844
0.004510136
0.0033663763
0.0012274366
5.647115E-6
5.066544E-4
6.164005E-4
-3.7643505E-4
0.0010391177
0.00220669
0.0024939177
0.0028270814
7.0566055E-4
-0.0013529508
-0.0028544478
-0.0029784355
-0.0017083728
-0.0022457496
-0.0013051003
7.183662E-5
0.0018823929
0.003209323
-0.0027339058
-0.006504571
-0.0062547727
-0.007646132
-0.0030153454
8.6523354E-4
4.933919E-4
0.0020453937
0.0016000781
0.0016847225
7.930076E-4
-0.002222199
-0.0014205333
-7.332528E-4
7.4082555E-4
0.0029970345
0.0023318685
0.0030622182
0.004069729
0.0042999554
0.0036725693
6.233698E-4
-0.0018738048
-0.0039571924
-0.0035654414
-8.76579E-4
-4.9020385E-4
3.5923754E-4
0.0022490586
0.003643375
0.0035378807
1.8735301E-4
-0.0027842058
-0.004292377
-0.0044303536
-0.002559879
-0.002382383
-0.0026305278
-2.678851E-4
0.0019160885
0.00125047
-0.0013057523
-0.002851617
-0.0023190537
-9.3185436E-4
1.5753455E-4
4.1831608E-4
-3.3390895E-4
5.7062507E-4
0.0037679723
0.0025728545
-0.0011592272
-6.57117E-4
-7.8820996E-4
-0.0016083145
0.0011772395
0.0015235461
-0.002000396
-0.0025078095
-0.0012360484
-0.0026850915
-0.0026700234
-0.0012163235
-0.0011578726
0.0013638933
0.0015924601
-0.0011766399
9.6728007E-4
0.0031368593
0.0037167987
0.004026479
2.9263066E-4
-0.0019020798
-5.919785E-4
5.3203624E-4
7.40296E-4
-6.6441855E-5
0.0015313294
0.0032847568
0.0030791755
0.0034064243
6.432537E-4
-0.0036613957
-0.0044658678
-0.002809459
-0.0015461247
-0.0021751923
-0.0017406675
9.166834E-5
0.002314886
0.0036754769
2.4803283E-4
-0.0025091188
-0.0023357314
-0.0040804264
-0.004363092
-0.0023409275
-1.3426448E-4
0.0019751305
0.0031986346
0.0038264543
0.0011400398
-0.002659539
-0.0026619583
-0.0010876835
-3.726046E-4
-0.0011549261
-3.19763E-4
0.0023282524
0.0018098814
8.2504743E-4
7.0224167E-4
-0.0010942842
-0.002028128
-0.0010024724
-2.7654157E-4
-0.001111388
1.150957E-4
0.0030146067
0.0015869286
-7.502449E-5
1.9939049E-4
-0.0013317254
-0.0010150943
3.3821867E-4
1.3309675E-4
0.001182513
0.0022164176
0.003142267
0.003980412
0.002036147
-4.3607556E-4
-0.0019380455
-0.0028276294
-0.0016083426
9.810949E-5
1.5812441E-4
1.6110452E-4
0.0017703143
0.0034223415
0.0032150217
0.0010364768
-0.0025457407
-0.0045185126
-0.0041475813
-0.0038746845
-0.002294566
2.525036E-4
0.0018981259
0.0033279867
0.0022860118
-9.6851756E-4
-0.0029295566
-0.0030444255
-0.0015797174
-1.2173149E-4
-5.162169E-4
-0.0018409382
-3.2059063E-4
0.003437216
0.0021143397
-0.0023092914
-0.002795313
-0.0020838927
-0.002877296
-0.0034490281
-0.002771431
-5.094969E-4
0.0032817556
0.005843361
0.003464189
6.1547535E-4
0.0010403561
4.201187E-4
-7.9179584E-4
-9.655068E-4
-0.0010216408
5.5524684E-4
0.0032495745
0.0051555936
0.004257533
8.768131E-4
-0.0015585636
-0.002629058
-0.0023647868
-0.0013199331
-7.1383425E-4
7.5760705E-4
0.0018277186
0.0013877195
0.00101345
5.969466E-6
-0.0019934766
-0.0032862567
-0.0030865106
-0.0028020274
-0.0030349863
-0.0017868753
0.0010705071
0.0029179747
0.0022819869
4.1313715E-6
-0.0021089627
-0.0020182005
-0.0012609105
-0.0036254216
-0.0043216315
5.456095E-4
0.0037414029
0.003549261
0.0034297372
0.0016741598
-8.230151E-4
-0.0014783143
-8.9883286E-4
3.6022236E-4
7.93642E-4
-6.60332E-4
-2.1924503E-4
0.0030884957
0.0035985354
5.4364995E-4
-0.0018106217
-0.002649933
-0.0034219944
-0.0033411204
-7.713732E-4
8.3414954E-4
5.6707754E-4
0.0025809347
0.003770637
0.0016883712
-6.54826E-4
-0.002953795
-0.0038176186
-0.0024864583
-0.0012259553
-9.540382E-4
1.9138042E-4
0.0038197974
0.0056630955
0.003123434
-6.3737476E-4
-0.0038743054
-0.0050012674
-0.0032754454
-4.8393072E-4
9.7324175E-4
0.0014429886
0.0034461122
0.004197396
0.0016501175
-6.1261863E-4
-0.0010854868
-0.0015501827
-0.002575609
-0.0015390549
9.062497E-5
2.9507824E-4
0.0024333566
0.0034462635
0.0010662249
-6.896629E-4
-0.0020939987
-0.0017560386
4.1925441E-4
5.159619E-4
1.9596935E-4
0.0023165767
0.004618675
0.002356282
-0.0012499163
-0.0013433136
-0.0028557226
-0.0031930949
5.6678837E-4
-0.0011457951
-0.004117938
5.6710467E-4
0.0044222698
0.0031540878
7.1619486E-4
-0.002282599
-0.0028874618
-0.0017444594
-0.002703673
-0.0014357503
0.0019886096
0.0024737515
0.0035494603
0.0056906254
0.0041703377
-1.5593649E-4
-0.0031554154
-0.0019937898
2.1255594E-4
7.550341E-4
0.0015738336
0.0021250222
0.0032680854
0.004505176
0.002159129
-5.9700763E-4
-0.0013453864
-0.0034298152
-0.0045467815
-0.0016835713
-0.0016946562
-0.0043341327
-1.0923774E-4
0.0041082227
9.693605E-4
-0.0017791671
-0.0023161226
-0.002181192
-0.0021381695
-0.0023504302
6.479051E-4
0.0031091936
0.0038015724
0.004569243
0.0013146953
-0.002044641
-0.002611802
-0.002681799
-3.2366396E-4
0.0018808304
0.0033560647
0.005555959
0.0055391146
0.004791412
0.0036613813
7.4816344E-4
-0.0017399988
-0.0035437993
-0.0041233543
-0.0022827443
-5.35169E-4
-8.7879715E-4
1.1370606E-4
0.0027071144
9.455278E-4
-0.002204563
-0.0024991394
-0.0038097554
-0.0034147832
-8.975639E-4
-0.0013718487
-4.253501E-4
0.0030165366
0.0037314657
0.0018821971
-0.0012619757
-0.002609814
-8.1885344E-4
1.7183558E-4
5.6309375E-4
0.0010763364
0.001571613
0.0035572865
0.003699815
0.0020284127
2.5228577E-4
-0.0035365336
-0.0037295274
-9.57874E-4
-0.0010475697
6.0433836E-4
0.0026984042
0.0033476187
0.0040359693
9.086218E-4
-0.0017792219
-0.0026090662
-0.0042469776
-0.0030095002
-0.0014045052
5.8403285E-4
0.0021450962
0.0010538138
0.0040847715
0.0043394906
-0.0021630523
-0.00471753
-0.0047426354
-0.0025975546
0.0010541043
0.0010774257
0.0018180427
0.0029245173
0.0036277615
0.004246403
1.2470009E-4
-0.0033498877
-0.002425676
-0.0011178228
-2.8091716E-4
-2.9530856E-4
8.691771E-4
0.0031149704
0.0034433878
0.0020015577
-8.964838E-4
-0.0033731505
-0.00473729
-0.004984039
-0.0026416294
-2.9289504E-4
0.0017974608
0.003754476
0.002370852
0.0010138681
0.0011673755
-4.0714393E-4
-0.0016494009
-0.0018107631
-0.0011461017
6.4312917E-4
0.0011388541
0.0031482738
0.006039156
0.0025028961
-0.002543258
-0.0024941154
-0.001675229
-0.0013693077
-1.0498051E-6
0.0010230365
0.0015323046
0.002597929
0.0032517256
0.0016136555
-0.001384337
-0.003588766
-0.0037185277
-0.0018067702
-6.949859E-4
-0.0015938844
-0.0016446019
0.0011783282
0.00395552
0.0027014548
9.864738E-6
-0.0010048469
-0.0013276712
-9.152848E-4
-1.9427112E-4
6.5704156E-4
0.0011767312
9.4503834E-4
0.0021867254
0.0019763866
-0.0012532852
-0.0024998223
-0.0031042963
-0.0037701968
-0.0013635309
9.591291E-5
-9.834132E-4
8.727239E-4
0.0046368646
0.0042326967
0.0015235876
3.39532E-5
-0.0015832098
-0.0011146477
0.0012974847
0.0023978073
0.0037610806
0.004746103
0.0055614524
0.00616867
0.0023116905
-0.0015880261
-8.701743E-4
-2.1807743E-4
-0.0014792152
-0.0018575907
5.2143703E-4
0.0034666364
0.0039659273
0.0023690488
-0.0010392194
-0.00670287
-0.011882562
-0.010381183
-0.00538328
-0.0048651337
-0.002921141
0.0010121571
6.623371E-4
0.0021106978
0.0036290267
5.419067E-4
-3.360762E-4
-8.9852634E-5
-0.0011030338
-6.243012E-5
0.0016240656
0.0037396466
0.0062349113
0.0046491898
-2.578871E-4
-0.0020244662
-0.0011523931
-0.0018819186
-0.0019147625
8.989366E-5
0.002718847
0.0056650913
0.0062655923
0.0037593765
7.484218E-4
-0.0015837582
-0.0028540879
-0.0022596864
-8.4093696E-4
-7.2216796E-4
-6.0530897E-7
0.002391137
0.0036060438
0.002426798
-7.260008E-4
-0.0024296045
-0.0021898567
-0.0036615627
-0.0039494066
-0.002033082
-6.33336E-4
0.0017473866
0.0036740126
0.0030616203
0.0011331941
-0.0019247364
-0.0051428275
-0.0060138274
-0.0038989368
-0.001361663
-2.3753225E-4
0.0010562576
0.0048145396
0.0070314063
0.0024495383
-0.0015141522
-9.7150105E-4