0.0076303454
0.0029772979
-2.4213047E-4
-0.002607917
-0.006184797
-0.00925826
-0.0077857696
-0.002475536
0.0014663155
0.0037139794
0.00580752
0.0072394405
0.0069643646
0.0021699232
-0.004774406
-0.0076168305
-0.006360905
-0.0014669667
0.006153907
0.010035554
0.009699325
0.010268037
0.009765201
0.003756241
-0.0059837676
-0.01238637
-0.010190585
-0.0039763716
3.1650375E-4
0.0037726548
0.005022964
0.0041950904
0.0046008914
2.806002E-4
-0.008675315
-0.011906996
-0.008945256
-0.0027962257
0.0039452384
0.006691927
0.006345038
0.004524851
0.0019111659
-0.001750056
-0.007554444
-0.011449891
-0.010091852
-0.004729847
-1.5991465E-4
0.0018937517
0.006435309
0.010818065
0.010203573
0.0051643546
-0.004496235
-0.011223666
-0.008837285
-0.003033787
0.0021991765
0.006041471
0.008182099
0.010485091
0.011973024
0.008563203
7.276094E-4
-0.00584099
-0.006789651
-0.0026842523
-1.4281568E-4
1.505669E-5
0.0028844534
0.003373768
-5.196474E-4
-0.004481394
-0.008689291
-0.0095544085
-0.007913093
-0.0054740235
0.0012997817
0.005808124
0.005828235
0.006489676
0.005102147
8.5207145E-4
-0.004547147
-0.008643551
-0.007917093
-0.003682335
7.504512E-4
0.0026091286
0.0037707824
0.006286717
0.0060336823
0.0015124802
-0.0049642143
-0.00795426
-0.0047838585
-0.0015363486
0.0015587844
0.0065244245
0.009092242
0.009036577
0.0068519902
0.0026231473
-0.002430455
-0.0064693308
-0.005027481
-0.0027818321
-0.0032772834
-8.2783063E-4
0.0012556703
0.002538004
0.0047400617
-1.4769811E-4
-0.008165005
-0.009889724
-0.0061935075
-0.0013334136
0.0014547397
0.005053889
0.0077355653
0.0069118557
0.0073706824
0.003828074
-0.0046306667
-0.009541937
-0.009477725
-0.0037546575
0.0012833923
0.0030002047
0.00802765
0.012213443
0.012321079
0.007025287
-0.0018491546
-0.004947144
-0.005971097
-0.008881488
-0.0103206625
-0.0074650035
3.619898E-4
0.0033877264
0.003682317
0.0045283786
-0.002341415
-0.0069768573
-0.006905898
-0.00868889
-0.00605903
-0.0012879042
0.0056164577
0.013479934
0.01500197
0.010657161
-0.0017006592
-0.010849525
-0.007992846
-0.0056131575
-0.0035578657
0.0010723593
0.0071968753
0.01352373
0.014298669
0.013724453
0.0035573966
-0.016017465
-0.017139334
-0.0058229673
-0.0018534277
-0.0011103587
-6.755611E-4
0.0031284732
0.007284039
0.0036998547
-0.0033958515
-0.008861277
-0.008296785
-0.0031938332
-0.0014419203
-5.1532715E-4
0.0036210448
0.006886834
0.007758315
0.0070938915
-2.277511E-4
-0.010003954
-0.008757759
-0.00332927
-0.0024400288
6.7008997E-4
0.0042511434
0.005964432
0.008402278
0.008424338
0.003332382
-0.0059038294
-0.010732539
-0.006113844
2.5522817E-4
0.004446845
0.006997249
0.0074923937
0.006412104
0.0032279529
-0.0022862256
-0.008479153
-0.009958305
-0.0055475715
-2.9752468E-4
0.0048930305
0.008311382
0.00867854
0.00800643
0.003934412
-0.004258414
-0.012161614
-0.013927118
-0.008973439
-0.0035907668
0.0010037337
0.0057573635
0.009269985
0.009861827
0.005917463
0.0010687589
-0.0056446237
-0.014508991
-0.015416474
-0.010273138
-0.00656716
-0.0026255401
0.0015778017
0.005582803
0.0064771026
0.0020580103
-0.0036428908
-0.0060415026
-0.0017275147
0.003421138
0.005932959
0.012024899
0.016441163
0.015527282
0.015923915
0.010843859
-0.0053844405
-0.014528961
-0.006470339
0.0021312612
0.0054044495
0.008938501
0.007344124
0.0034633363
-7.6533784E-4
-0.012561864
-0.018867511
-0.0105577
-0.0046974723
-0.0062798453
-0.0050300183
-0.0011374849
0.0015209478
0.0028296646
9.517067E-4
-0.0052684913
-0.010224606
-0.0074837226
-0.0030046534
-0.0033550886
-0.0035227544
-2.4539997E-5
0.007225411
0.013455853
0.0110048335
0.0016699962
-0.00733258
-0.008499286
-0.004572379
-6.008432E-4
0.005759039
0.006575126
0.0051134047
0.008751645
0.008546667
0.0066745467
6.423101E-4
-0.0022069945
0.006487332
-4.0369804E-4
-0.009232551
0.0015546369
0.009447608
0.015058374
0.008602931
-0.011246027
-0.013487963
-0.009537392
-0.00645173
0.0010944708
9.7349833E-4
0.0050760754
0.012137874
0.010588401
0.009246317
0.001774491
-0.015148811
-0.025976075
-0.023254994
-0.01519978
-0.009779976
-0.0033882896
0.0037589693
0.008368131
0.008014859
-1.877172E-5
-0.0065762536
-0.0061219702
-0.0036323275
8.7241555E-4
0.0065301894
0.009134369
0.009507694
0.00980614
0.008305908
0.004886344
0.0011986236
4.5198822E-4
0.0028155493
3.4276434E-4
-8.9993887E-4
0.00628978
0.009619208
0.009944042
0.010521179
0.0029284542
-0.007025861
-0.012634891
-0.0126075605
-0.0063508963
-0.0021582018
-0.0019325983
9.314823E-5
0.001773916
-9.6513826E-4
-0.0067323977
-0.01306866
-0.014113344
-0.0082127135
-0.0044486197
4.29429E-4
0.008278934
0.008824861
0.008878761
0.0073764324
-0.002026987
-0.0066977334
-0.007283183
-0.0048680645
0.0024990784
0.005152376
0.0063170735
0.0067729596
0.005724583
0.0074755326
0.0029699684
-0.0037246882
-0.0043860297
-0.0037586323
-1.888831E-5
0.0024951315
0.002095488
0.004817603
0.0062216045
0.0042676353
-0.0013013696
-0.0088978065
-0.012387208
-0.010364473
-0.0023643808
0.0036450925
0.002907619
0.004871491
0.009262277
0.0099566905
0.00400085
-0.005314038
-0.006715841
-0.003191673
-0.0032885885
-0.0057780156
-0.007011018
-9.813294E-4
0.007250481
0.007294501
0.0011888464
-0.005864467
-0.008090091
-0.0049351305
-8.123305E-4
0.0057640765
0.010574006
0.0103905555
0.010293271
0.007156572
-2.2753952E-4
-0.007288894
-0.013158032
-0.013259728
-0.008110948
-0.004486801
-0.0014399445
0.002032964
0.004410513
0.0043061436
-0.0010409404
-0.007334073
-0.007435633
-0.003409643
-3.0151693E-4
0.0036803768
0.007491413
0.0050008344
0.0022748916
0.0032297752
-2.532731E-4
-0.004288713
-0.0022319881
0.0035930178
0.010118367
0.011433418
0.009614978
0.010270237
0.00865777
0.0050203097
0.0016373493
-0.0073112138
-0.016218826
-0.014474258
-0.010124353
-0.007243376
-0.0015968338
0.0010779307
0.0050597335
0.00854743
0.001620847
-0.003255177
-0.00545923
-0.0061424244
-0.0015496613
-0.011124034
-0.01788595
-7.774981E-4
0.011437298
0.010982674
0.003658058
-0.0059937504
-0.0032496918
0.0024045922
0.00509499
0.0078340145
0.0041131456
5.8029353E-4
0.0014519162
0.0028959936
4.3629433E-4
-0.007725904
-0.009910293
-0.005774313
-0.0047218283
-0.0025904526
0.0034312545
0.007908832
0.009669982
0.010875366
0.0076219966
3.5917808E-4
-0.005913184
-0.011327254
-0.009095366
0.001389554
0.008288223
0.01036876
0.011816446
0.010508225
0.0017365937
-0.0071460856
-0.0068539577
-0.0048750783
-0.0022818998
-8.524712E-4
-0.005866082
-0.004040622
0.0029753898
0.0017052983
-0.0051099816
-0.012735543
-0.014626805
-0.009743244
-0.003951094
-4.037223E-4
-5.153612E-4
0.0021067732
0.0062204236
0.0059837718
0.0040620626
-0.0014730198
-0.005449003
-0.002302698
0.003309144
0.008566814
0.0079027545
0.0059372694
0.0071021165
0.0050072465
0.002885195
-0.002302977
-0.007827257
-0.002643585
0.0023320932
0.0055159912
0.010832645
0.011823489
0.013617622
0.009027613
-0.009261322
-0.023305146
-0.023670385
-0.017325921
-0.010946148
-0.004237424
0.002491676
0.006406212
0.010288623
0.0109300325
0.00493826
-0.003919735
-0.010946129
-0.00944226
-0.0051962035
-0.0034812621
0.0022360098
0.008009886
0.009801991
0.008374496
0.003590349
-0.0010534324
-0.0043808436
-0.0025601855
0.0037290307
0.008136215
0.009346117
0.0019141397
-0.0079362625
-0.0062784
-0.003216569
-0.007459636
-0.0061177122
0.0027287854
0.003454171
-0.0014079441
0.0015374129
0.0050677103
0.005180073
0.00815263
0.0086273635
9.4213634E-4
-0.009237014
-0.009068183
-0.0023661025
-0.004663252
-0.0063202237
-3.9590625E-4
0.002054687
0.0026727694
0.0014502992
-0.004900282
-0.008505566
-0.007283222
-0.0053865984
-0.0018556154
0.00515573
0.011878042
0.013548359
0.010182228
0.0032689504
-0.004107946
-0.008498061
-0.0066725556
0.0011498425
0.0047527337
0.0012088523
7.9837156E-4
0.0063531618
0.010002911
0.004428323
-0.0052127754
-0.009116665
-0.006511145
0.0013092614
0.006079437
0.001410544
-0.0011027954
0.0025956933
0.0035541807
-0.0014332004
-0.008718882
-0.01104067
-0.00840053
-0.0049252114
-0.0013325423
8.9020573E-4
0.0051059434
0.011941249
0.015858753
0.011417561
-0.002995531
-0.0119829
-0.0084737
-0.0042994875
1.3384003E-4
0.002232516
2.501609E-4
0.0030693228
0.0055725216
0.0022230328
-0.0047601103
-0.008936524
-0.0040341085
-0.0015888766
-0.0023996537
7.3925353E-4
-0.0010232718
-0.0032158683
-9.5257454E-4
-0.001988284
-0.0054902895
-0.0094607435
-0.009381624
-0.002349119
0.0062163332
0.0119170295
0.012918244
0.013591715
0.013998119
0.011136679
0.0051804474
-0.0064534987
-0.011273913
-0.0036964456
0.0020847567
0.0069283433
0.009816737
0.007737535
0.0075709033
0.0031350434
-0.0073502683
-0.01612705
-0.01746851
-0.0076299766
8.454833E-4
0.0013706523
0.003371779
0.004582109
3.0368133E-4
-0.004987097
-0.009170721
-0.012714093
-0.011639623
-0.0053617437
-0.0016993999
-0.0011087987
0.002352326
0.009172225
0.0134436125
0.0056060925
-0.010434893
-0.017594468
-0.011567374
-0.002142738
0.005959493
0.012254371
0.014619544
0.017780012
0.017594539
0.003662346
-0.008811407
-0.009443847
-0.006641954
-0.0012506691
0.0010978644
0.0011239827
0.005182233
0.0072427867
0.008957053
0.0063173315
-0.0029076668
-0.0035512731
-0.0024468673
-0.0069972244
-0.0048654824
8.7684864E-4
0.0019741482
0.0014037964
0.0032168592
0.0024353096
-0.0046045617
-0.007937922
-0.0063721
-0.004922248
-0.002467061
-1.4332167E-4
0.00370428
0.00568249
0.0037638056
0.0013291115
-0.0066231606
-0.012614375
-0.009245798
-0.004761774
0.0020746256
0.009295402
0.008715178
0.0031156077
-3.9453845E-4
-8.247116E-4
-0.005042651
-0.009565761
-0.0076155006
-0.0036638672
8.2318723E-4
0.0041416707
0.0071394956
0.011503652
0.0125708785
0.010008449
0.0013450915
-0.006269775
-0.004216343
-0.0042595933
-0.0031049217
0.004841344
0.008454114
0.010348182
0.011385665
0.007242041
-3.9261868E-4
-0.009046877
-0.009163019
-0.0032479553
-0.0011635625
4.378278E-4
0.0024778473
0.0042543057
0.004772072
-2.4105035E-4
-0.007491402
-0.012477285
-0.0143093765
-0.0114327
-0.004883072
2.8999656E-4
0.0026797634
0.005803519
0.0062975143
0.0011616541
-0.0055021252
-0.012288205
-0.012586905
-0.0028503453
0.004471111
0.0051575354
0.0066573177
0.010447405
0.013425352
0.008698256
-0.0047003767
-0.012123936
-0.005670587
0.0039405357
0.009211527
0.01279924
0.014911297
0.014408976
0.0128335245
0.008706061
1.534434E-4
-0.008160557
-0.011343342
-0.012392007
-0.014616433
-0.012374248
-0.0036401073
0.0023499036
0.002950778
0.0017885859
-0.004041716
-0.013136327
-0.015253483
-0.007567773
-7.9412287E-4
0.0014136453
0.010375158
0.023199905
0.022014948
0.006943701
-0.0068192
-0.012964231
-0.011797259
-0.0031055727
0.0039021631
0.0024216964
0.0010968463
0.0022848519
0.002197903
0.0014758891
-0.0027539057
-0.008113599
-0.0070701577
-0.0011271568
0.0041799895
0.007447072
0.0074358243
0.0042213863
0.0025493372
0.0010908511
-0.0038016562
-0.0077016647
-0.0071449853
-0.0011681151
0.0060049323
0.008180653
0.008089891
0.0069479896
0.0038906722
-2.5202357E-4
-0.006159454
-0.010472023
-0.010585069
-0.007973268
-0.004590561
3.6697485E-4
0.0062571494
0.007817102
0.0071375654
0.0047157574
-7.15753E-4
-0.0036071357
-0.005290037
-0.0034611183
2.8382128E-4
-0.0012093715
0.0019947179
0.008285549
0.008531409
0.0039042542
-0.0046619046
-0.007897475
-0.007551517
-0.0027596352
0.009810894
0.0058847917
-0.003122277
0.0043998696
0.0037784376
-0.0029902852
-0.0042462084
-0.011332092
-0.013298962
-0.0040771905
0.0036370803
0.009184612
0.011848649
0.006885321
0.0028908402
8.7017997E-4
-0.009400419
-0.015500563
-0.011473653
-0.009302758
-0.0032544245
0.004967274
0.007650963
0.0107906945
0.010730998
0.004630391
-0.0027328585
-0.008070604
-0.006711989
4.8558263E-4
0.008140267
0.010056755
0.007965265
0.009808158
0.012445198
0.008693609
-2.3973796E-4
-0.00443271
-0.002909003
-0.005635457
-0.007970329
-0.004632459
-2.3686362E-4
0.0038973524
0.0039207297
-5.7694764E-4
-0.0053711804
-0.0106615145
-0.015706439
-0.015392178
-0.008572591
-0.0037796486
-0.0019415513
8.303172E-4
0.0010940044
-3.9321702E-4
-0.006158889
-0.013314863
-0.012538021
-0.011054747
-0.010304041
-0.0068058604
-0.0041186367
1.856117E-4
0.0035059373
0.004669511
6.0849753E-4
-0.012349893
-0.016471583
-0.008330086
-0.002942164
-0.0014104993
-0.0021747304
-4.4309298E-4
0.005579022
0.0034197448
-0.014618107
-0.038083035
-0.043339193
-0.028557207
-0.016230613
-0.0080023585
0.004476936
0.018351065
0.032249447
0.04147481
0.04455859
0.04897891
0.055926163
0.06380562
0.07164754
0.07425899
0.07015833
0.064149015
0.057807032
0.046710953
0.029476827
0.011173338
0.0025509691
0.008612353
0.009361573
-0.0016030368
-0.003059278
-0.003897223
-0.014399123
-0.021449707
-0.033746053
-0.049935658
-0.059808277
-0.07211784
-0.08227146
-0.086100236
-0.079254754
-0.06344878
-0.057381127
-0.04501107
-0.021850562
-0.016852599
-0.01976456
-0.009051646
0.010092207
0.016102051
-0.0028522313
-0.03564672
-0.07736195
-0.12243109
-0.16293706
-0.17786159
-0.13448009
-0.06885725
-0.034238372
-5.0975446E-4
0.047321197
0.062955216
0.08129931
0.14547561
0.15729164
0.13832678
0.23395815
0.35982195
0.40669024
0.40242186
0.307404
0.15372065
0.04976394
-0.047150724
-0.18321969
-0.2517283
-0.17340182
-0.033130944
0.042228803
0.013144766
-0.02020853
0.053053115
0.11859257
0.052377373
-0.08500753
-0.25257465
-0.40068042
-0.481678
-0.5183924
-0.47275913
-0.35447
-0.20100936
0.018097976
0.20273061
0.28035933
0.33428046
0.33367932
0.25128144
0.18531857
0.113322794
-0.027605308
-0.173448
-0.27134618
-0.3013535
-0.24124005
-0.12535043
0.0019495726
0.118245155
0.19955708
0.23498882
0.2342892
0.21830389
0.19157451
0.16161063
0.13470282
0.08360647
0.030604035
0.018892407
0.018140536
0.01683026
0.03402944
0.05150304
0.058437437
0.05693842
0.04612331
0.033274982
0.014077892
-0.011720846
-0.035722837
-0.061772164
-0.08210665
-0.106263034
-0.15378775
-0.18340437
-0.1851791
-0.20031482
-0.19779082
-0.15183224
-0.10289261
-0.07135314
-0.04901626
-0.0212205
0.0107058715
0.02863868
0.027066998
0.0125451805
0.0058397586
0.02025308
0.0476024
0.07035194
0.07186632
0.067726456
0.0710106
0.0636128
0.04318217
0.028685978
0.034783382
0.051181585
0.063196324
0.07454638
0.08207502
0.08418918
0.084145285
0.077422746
0.060589027
0.036709484
0.016338073
-0.0049313162
-0.025329646
-0.026772717
-0.027009048
-0.03935205
-0.04816711
-0.052764956
-0.05379249
-0.054562155
-0.055978864
-0.047475275
-0.03867476
-0.038854185
-0.035004586
-0.019889826
-0.0037796185
0.002863643
-0.0030078695
-0.020952472
-0.0315975
-0.023353424
-0.017883131
-0.020112833
-0.018153602
-0.013367094
-0.006193938
0.0011887316
0.00270208
0.001199188
0.0060695116
0.01379682
0.016255422
0.024930019
0.038006417
0.044028465
0.054968134
0.06529468
0.06005416
0.04755233
0.033450525
0.030534346
0.047020655
0.062112853
0.07400831
0.08357435
0.055157766
-0.0074031386
-0.05028549
-0.06084723
-0.060649686
-0.055964697
-0.044607066
-0.031425223
-0.03393281
-0.048090283
-0.04239756
-0.024322925
-0.027969955
-0.053824537
-0.07855696
-0.08313845
-0.0699965
-0.05005429
-0.023487693
0.0059887725
0.028512387
0.03422817
0.026213717
0.017371623
0.00792789
0.005016776
0.012236728
0.012174776
0.0063384078
0.006535331
0.013899027
0.02305841
0.021730356
0.014961553
0.013569787
0.016448397
0.02311379
0.02680949
0.024752768
0.020855602
0.01793698
0.019103851
0.014609239
0.004438548
0.0027251954
0.006079774
0.007710383
0.0057099927
-7.588532E-5
-0.0042087147
-0.0053879432
-0.0071865227
-0.01680519
-0.02909335
-0.029832786
-0.025679871
-0.02289211
-0.017040316
-0.011913047
-0.007830522
-0.003513215
-0.0028569142
-0.0058998545
-0.010067929
-0.014129794
-0.016409006
-0.012753732
-0.0046956297
0.0035180475
0.012607872
0.019000245
0.01888053
0.012634319
4.678086E-4
-0.01230597
-0.01728984
-0.011450317
-0.0019922152
0.0038623577
0.0077437907
0.009674249
0.009652404
0.006907629
-9.610077E-4
-0.005219419
-0.002281235
0.0015288236
0.007878958
0.014986868
0.018694825
0.019933524
0.015556802
0.006242062
-0.0022445845
-0.005605165
-0.0027831227
2.3710909E-5
0.0017461696
0.006182744
0.009029518
0.008344229
0.0070079165
0.0031507413
-0.0037722143
-0.007789228
-0.0050364095
0.0030006461
0.0091015855
0.0039816927
-0.0021299704
0.003480625
0.0073814527
0.0020722672
-0.005739261
-0.012146336
-0.011775155
-0.006576845
3.363846E-4
0.00517645
0.0036644526
0.005089178
0.0061315587
-5.501688E-4
-0.0076277
-0.013869754
-0.012241051
-0.008038142
-0.014442273
-0.0118453065
5.314611E-4
0.0032031208
0.0034030054
0.0024356158
-0.0045146653
-0.008592617
-0.0029084506
0.0074625807
0.010931286
0.010708024
0.012803008
0.0119133005
0.007618713
0.0011505559
-0.004570598
-0.008708377
-0.011628651
-0.0047075953
0.004467205
0.0049895495
0.0064539104
0.009212889
0.00780438
0.0026848938
-0.006141536
-0.011126411
-0.009033359
-0.003640941
0.0035215798
0.0065450678
0.0055093127
0.007089317
0.0074634836
0.0018253896
-0.005287455
-0.010760997
-0.012986477
-0.0076037585
-9.711472E-5
0.0013304747
0.0030108597
0.0076616686
0.008183455
0.0036734974
-0.0037590405
-0.0101032555
-0.010306333
-0.0055108774
0.0011158384
0.0058009205
0.0065233856
0.00659919
0.006524353
0.0037012761
-0.0029536006
-0.010607584
-0.010781665
-0.004140581
-6.805514E-4
4.8602483E-4
0.0031610883
0.005467325
0.0068625314
0.0037601774
-0.0037896894
-0.009486879
-0.011049495
-0.00667326
1.6678355E-4
0.0036252772
0.0071020564
0.010173903
0.009114697
0.0049925675
-0.0018531083
-0.0065652826
-0.004371101
3.20192E-4
0.0023631633
0.0032248052
0.005419018
0.0059837652
0.0048458003
0.003051618
-0.0017842451
-0.0054856683
-0.0060417587
-0.005222746
-0.0022014421
4.6968038E-4
0.004286243
0.007755227
0.0046868064
1.14545204E-4
-0.0033189028
-0.0071703633
-0.007674229
-0.0047883433
-0.002868877
-0.0051537543
-0.0052771973
0.0020553384
0.006826783
0.0032168527
-0.0050020525
-0.011677745
-0.00962927
-0.002244173
0.0024654448
0.004206133
0.0062152985
0.008814037
0.009182369
0.0068090344
0.0016519274
-0.0038939042
-0.004289795
-0.0019920566
-3.0174435E-4
0.0019148967
0.0029610519
0.0046305084
0.0075915554
0.005636093
-0.0011843297
-0.006563266
-0.007390945
-0.0056137247
-0.0034410544
0.0019590089
0.008579089
0.009293406
0.005921798
9.5506554E-4
-0.006366943
-0.011480765
-0.011670864
-0.0072209816
7.842453E-5
0.0039742803
0.0036437856
0.0049826326
0.008130665
0.0054093986
-0.0047120634
-0.011087087
-0.008285878
-0.0033098431
0.0010794066
0.0063144723
0.008844497
0.0075094253
0.0055762343
0.0018353758
-0.0035959168
-0.006514781
-0.007057638
-0.004993545
-6.7143154E-4
0.0018000421
0.003302663
0.005389013
0.0059997337
0.0029778406
-0.0043563372
-0.010762286
-0.010054141
-0.0036156382
0.001765655
0.0037814633
0.006129709
0.008826545
0.0089215515
0.004018637
-0.0038886408
-0.008247235
-0.008766734
-0.006103402
-0.0012027599
0.0016970338
0.004519758
0.0068453625
0.0066526276
0.0030328098
-0.0057249153
-0.0101243835
-0.007300928
-0.0028436722
0.0044874423
0.008460758
0.008294584
0.009515248
0.008117727
0.00410972
-0.0030003241
-0.010202863
-0.007620735
3.3538602E-4
0.004044027
0.0026652983
0.0016891882
0.003856493
0.0049051815
0.002141635
-0.0070476076
-0.015261153
-0.012330955
-0.007554071
-0.0039823805
0.0017946652
0.0025212446
0.001454413
0.0023233013
-6.266181E-4
-0.0050396724
-0.007039091
-0.0073621906
-0.0053961026
-0.0012133102
0.0014086058
0.0027368078
0.008320897
0.012947406
0.008036348
-5.7985296E-4
-0.004579524
-0.0034443694
6.171142E-4
0.0051359874
0.008665624
0.011417296
0.01272039
0.011276185
0.007708382
0.0015755842
-0.0060491315
-0.00871863
-0.005536959
-0.0031743748
-0.0036180476
-0.0036435653
-0.0018473743
1.8509247E-4
-0.0013582242
-0.008563032
-0.014335275
-0.012013428
-0.007473667
-0.0056136344
-0.003225716
1.1426924E-4
0.0024123958
0.003927154
0.0025286227
-0.0032430855
-0.006410698
-0.0033746418
-3.7223555E-4
0.0011252208
0.004530773
0.0093110595
0.012280269
0.01225161
0.008185245
-0.0017956691
-0.008373175
-0.005035926
-0.0010571082
0.0037399677
0.010090136
0.010507083
0.009465711
0.008175319
0.0019248136
-0.0057764077
-0.011736811
-0.012850298
-0.008165722
-0.0029004305
-6.796934E-4
4.5202937E-4
0.0027515506
0.003388134
0.0015645716
-0.0031679682
-0.010507089
-0.011894153
-0.0066229883
-0.001116908
0.0031809944
0.0046606115
0.004806022
0.005032314
0.0039237426
-5.6702516E-4
-0.0077356906
-0.007872353
-0.0023067163
-5.8421266E-4
8.793043E-4
0.0042121643
0.0082639465
0.010873104
0.007120799
-8.602337E-5
-0.0069647464
-0.008955644
-0.004165591
5.978612E-4
0.00540547
0.009389147
0.0082109645
0.0058257263
0.0026321055
-0.0030026424
-0.0069837766
-0.0061245686
-0.0032493756
-0.0018542783
0.0014822363
0.004558705
0.00315792
0.002504356
-9.2980714E-4
-0.009279187
-0.011967938
-0.009967921
-0.00769426
-0.0019362455
0.0041489745
0.006997012
0.007620739
0.00661319
0.004605841
-8.168306E-5
-0.006638962
-0.008870385
-0.0049797194
3.3846758E-5
0.002136987
0.0036554642
0.006192929
0.0067682317
0.004912174
-3.2716777E-4
-0.0063092033
-0.0058661858
-0.0014190513
0.0055485084
0.012783179
0.0101252
0.006121835
0.008184619
0.0023236736
-0.008073661
-0.011402626
-0.011342434
-0.008380578
-0.0036059653
-0.0014254943
-2.2132423E-4
0.0016986234
0.0047930037
0.004498735
-0.0027815218
-0.009246991
-0.011428488
-0.009993304
-0.0024264595
0.0058269124
0.008829213
0.007261
0.0049503264
0.0049963323
0.0024666602
-0.0033688128
-0.0064893365
-0.005744236
-3.414775E-4
0.0051203137
0.006123874
0.007112302
0.008089937
0.005733545
-0.0017247717
-0.009307757
-0.008907431
-0.0052961004
-0.0024479115
8.077517E-4
0.0033379702
0.0065630423
0.007223473
0.0037697328
-0.001427558
-0.007121853
-0.008100682
-0.0058343057
-0.0031126698
2.6344534E-4
8.115512E-4
0.0016732259
0.0043898327
0.004760173
-9.467608E-4
-0.011285383
-0.013754678
-0.00813836
-0.0033395488
0.0021373762
0.006515634
0.007904888
0.007178619
0.0042825215
-1.8634966E-4
-0.006513346
-0.0077554877
-0.0021061173
0.0016609357
9.946562E-4
0.001038041
0.006391794
0.009894938
0.007463116
0.0023726656
-0.0061645154
-0.008823116
-0.005168063
-2.2053224E-4
0.007634257
0.0029831429
-0.002333931
0.009155352
0.009922907
1.0545831E-4
-0.0059650247
-0.013632281
-0.009651543
-3.4041764E-4
-0.0018329943
-0.0010329653
0.0035947436
0.0053377696
0.004704898
-0.00237134
-0.010537825
-0.010466679
-0.005399921
-9.97715E-4
0.002859566
0.0060203033
0.0066357614
0.0056577036
0.004998098
0.0024178347
-0.00486438
-0.0091941105
-0.0052860053
-0.0021392996
-7.581376E-5
0.0039484426
0.004256798
0.0054050684
0.0068632965
-6.543653E-4
-0.008696644
-0.009114237
-0.004918005
0.0017279119
0.0061280685
0.00767125
0.0072374307
0.0035253272
0.0010852024
-0.0021025885
-0.008751771
-0.010361655
-0.0060927877
-0.0017034693
0.0010293911
0.0017655394
0.004062242
0.0082447175
0.0076449797
3.8190666E-4
-0.007025026
-0.0089548575
-0.0066547487
-0.0028769928
0.0013435549
0.006090242
0.009354972
0.007540205
0.004609888
0.0017857559
-0.005376554
-0.009926833
-0.0069320966
-0.0021376607
7.2546565E-4
0.0015369204
0.0032453889
0.0049034534
0.0023505096
-0.0031946353
-0.009091359
-0.010371401
-0.0059577427
-0.0011856135
0.0043897387
0.008828636
0.007816857
0.005811559
0.005048329
0.0020443106
-0.0033627918
-0.006248269
-0.0044579753
-0.0021414612
8.202515E-4
0.0054584094
0.008507014
0.009354455
0.0061114007
-0.0011280645
-0.0080590965
-0.013475811
-0.012601662
-0.0038650269
0.002609631
0.0030420157
0.0031103033
0.0037688469
0.0029629043
3.755581E-4
-0.0048166844
-0.0087129
-0.0060248016
-9.482625E-4
0.0020095815
0.0029011462
0.00395028
0.007634841
0.0077251405
0.0016201341
-0.0053072176
-0.009618823
-0.0059346873
0.0018667342
0.006004757
0.007384689
0.0082377065
0.0119941365
0.009886939
1.831606E-4
-0.0031075133
-0.009126022
-0.016145352
-0.011520405
-0.00959247
-0.0050006667
0.007564457
0.009801717
0.006895566
0.003758951
-0.0042173793
-0.008947959
-0.006377464
-3.393311E-4
0.002759312
0.0041294647
0.0070282454
0.006614569
0.0039791884
1.7981944E-4
-0.005303496
-0.009177245
-0.008915886
-0.0028363934
0.0014222825
0.0014927688
0.004123363
0.0064280513
0.006279831
6.493434E-4
-0.009021719
-0.011689073
-0.009021054
-0.0036461528
0.00369829
0.007612656
0.0107618915
0.010465456
0.0045972657
5.984265E-4
-0.0028869433
-0.006488905
-0.0053760693
-7.3356513E-4
0.004169991
0.00618169
0.004929749
0.0054423423
0.007160933
6.809787E-4
-0.010779374
-0.013255996
-0.00852759
-0.003752538
8.2459283E-4
0.003904095
0.0061322465
0.006814342
0.003986463
-8.310282E-4
-0.0059684115
-0.0084916195
-0.007942212
-0.00513904
-8.375887E-4
0.0010491301
0.003104115
0.007349978
0.006903149
9.937503E-4
-0.005804649
-0.009414494
-0.006131274
6.027324E-4
0.0050613456
0.006752887
0.007418027
0.008213451
0.0072098006
0.0020641675
-0.004560764
-0.0083246855
-0.006606871
-9.2132785E-4
0.0019051336
0.0014439446
0.002826447
0.0050494256
0.0055985013
9.204536E-4
-0.007339578
-0.009931545
-0.008006272
-0.0045409314
0.0015405364
0.0057905754
0.0072464775
0.005869602
0.003004016
0.0016937611
-0.003139244
-0.008263333
-0.004864544
9.181569E-4
0.0012763282
8.571349E-5
0.0033120944
0.00728064
0.0060012774
-2.1831333E-4
-0.0076889945
-0.009194456
-0.005184036
-0.002131538
0.0015729276
0.0059030177
0.007788229
0.007373377
0.005105514
0.0010498845
-0.004859928
-0.008430308
-0.0070556225
-0.0035867272
-1.8765313E-4
7.705577E-4
9.602044E-4
0.0026837897
0.00368069
9.816819E-4
-0.00681503
-0.011516623
-0.0083805965
-0.003543755
0.0018589705
0.0055449037
0.0066731307
0.00785755
0.0066510607
0.0036748766
-0.002092347
-0.0073142825
-0.0037198567
0.002807681
0.0057834536
0.0051518995
0.0048512025
0.008765681
0.009448802
0.0045321737
-0.0029496823
-0.00848811
-0.0054910774
-6.0120435E-4
0.004042078
0.00806541
0.007282732
0.00765751
0.002772497
-0.005054481
-0.0090385415
-0.022637958
-0.025797745
-0.008225605
-9.76846E-4
-2.6343163E-4
0.0032269093
0.0044707195
0.008185639
0.0042641372
-0.0066663995
-0.010766905
-0.008436015