-7.8922854E-4
0.0011382811
0.0028794874
0.0024092228
0.0014611611
0.0015990864
0.0023854156
0.002880172
0.0027308664
0.0028646607
0.003050453
0.001364233
2.9621358E-4
3.5290266E-4
-2.0295907E-4
7.9492835E-4
0.0014565096
4.4256155E-4
-8.021431E-4
-0.002187529
-0.0017105254
-0.0015582476
-0.00195039
-3.223798E-4
1.3231393E-4
2.421168E-4
-3.40617E-4
-0.0023653363
-0.0013521924
-0.0012569925
-0.0024099785
-8.1951334E-4
-8.1546075E-4
5.9370643E-5
0.0024700365
6.032784E-4
-0.001328641
-0.0016583321
-0.0030740546
-0.001844811
0.0016663932
0.0032636912
0.003228778
0.0033994445
0.0040452476
0.0038099356
0.0030503043
0.0027568946
0.0012860406
1.60657E-4
9.749139E-4
4.7483935E-4
2.7639256E-4
0.0015230646
1.4936143E-4
-4.31459E-4
9.452453E-4
-6.8967167E-4
-0.0010766758
4.1858497E-4
-0.0018280711
-0.0030129775
-0.001039489
-0.0016543377
-0.0034662564
-0.0027974483
-0.0015612231
-0.0013105362
-6.461064E-4
-3.4657776E-4
-6.8035716E-4
0.0012104069
0.002770863
0.0021405064
0.0027317964
0.0026614298
0.0018337029
0.003015294
0.0041542905
0.004645705
0.003937881
0.002691702
0.0018920518
-4.8564048E-4
-7.78672E-4
8.0853305E-4
4.872836E-4
9.7428955E-4
4.1795624E-4
-2.099054E-4
5.423359E-4
-0.0023538468
-0.003341243
-7.58368E-4
-5.2075484E-4
-4.64754E-4
-0.0019908699
-0.004085359
-0.0029325734
-0.0025412312
-0.002723586
-0.0024241568
-0.0029088403
-0.0025478685
-0.0022594056
-0.002650238
-0.002539455
-0.0014226226
-4.482193E-4
-5.9330126E-4
0.0010561767
0.0031905018
0.0029396506
0.0027179688
0.0021345254
0.0010139663
8.025526E-4
2.6021127E-4
3.904973E-4
0.0024000795
0.0045600766
0.0043982067
0.0033390063
0.00509735
0.00621908
0.004257994
0.003357125
0.0026469913
-3.328755E-5
-7.3578936E-4
0.00144718
8.6688524E-4
-0.0018995192
-0.0018549784
-0.0027268294
-0.0056099216
-0.0053529465
-0.0039016414
-0.0039717597
-0.003983029
-0.0023595684
-2.138693E-4
-5.1237625E-4
-7.908074E-4
-7.713565E-5
-0.0015856456
-0.0029575187
-0.0031462624
-0.0035480186
-0.0026614135
-0.0011022608
-3.5666907E-4
4.409119E-4
0.0020865677
0.0024957536
6.735939E-4
-3.878898E-4
-3.228899E-4
2.8453767E-4
0.0021542357
0.0030475052
0.0024261305
0.0028175786
0.0034979752
0.0016531454
-7.4571127E-4
-8.98791E-4
-4.90807E-4
5.763866E-4
0.0013024061
5.295447E-4
0.0019755284
0.003744837
0.003994608
0.0045849723
0.002283982
-0.0012527428
-0.0020207423
-9.6434355E-4
0.0010995091
8.698213E-4
-0.0020562198
-0.0032723248
-0.0020814468
-0.0012762325
-0.0018156603
-0.0017147167
-0.0025202916
-0.003091251
-2.707193E-4
-2.2318274E-4
-0.0014051491
0.0012221737
0.0014408308
-6.553766E-4
-0.0018929599
-0.0019353059
-9.858034E-4
-0.0023810477
-0.0019673493
5.370456E-4
7.427764E-5
5.855181E-4
8.4878417E-4
1.1645983E-4
0.0016498432
0.0023198512
0.0032202664
0.0034790116
0.0020567009
0.0032212634
0.0025316298
2.9517E-4
0.0012407987
7.8318716E-4
-4.6074291E-4
-4.6956362E-4
-9.823259E-4
2.6906107E-4
0.0021781144
0.0017158015
3.9142667E-4
7.514109E-4
0.0022800504
0.0014418962
-0.0015173015
-0.0027128737
-0.001623963
-0.0018436637
-0.0042586187
-0.0037940987
2.024423E-4
0.0019646361
-5.2572082E-5
-0.0019029053
-9.061899E-4
6.551109E-5
4.91765E-5
0.0012258423
8.263225E-4
-3.661873E-4
8.9952804E-4
0.0015468228
0.0012352787
0.001112863
1.9659288E-4
-3.034865E-4
-4.89375E-4
-5.1337865E-4
-1.3747213E-4
2.9448868E-4
0.0019042215
0.002436935
6.8376097E-4
1.4944595E-5
6.37081E-5
-4.2761164E-4
-0.0013142083
-0.0025397534
-0.001533962
6.920708E-4
0.0011857799
0.0015776415
0.0014775809
6.904452E-4
0.0012430757
6.461409E-4
-8.585992E-4
-9.093895E-4
-0.001389276
-8.319808E-5
0.002695891
0.0026169207
0.0030859828
0.0027394784
-0.0014317392
-0.002822968
-0.0021433884
-0.0023124905
-8.095829E-4
2.489215E-4
9.400579E-4
0.0014245727
2.2376873E-4
7.5091615E-5
-0.0011927537
-0.004096029
-0.0035449527
-0.0020884823
-0.0026097742
-0.001977167
-1.5508094E-4
7.674684E-4
0.0016870195
0.0015378911
-7.244357E-4
-6.785973E-4
3.5680726E-4
-5.3888274E-4
6.867892E-5
4.1346502E-4
0.0012555285
0.003528229
0.0014737208
-4.1860854E-5
8.568622E-4
-1.6123144E-4
0.0019256027
0.0035793553
0.0013846316
0.0015924637
0.002064597
0.0023227884
0.0037676687
0.0020959652
-0.001483435
-0.0029795705
-0.001955919
-0.0020758957
-0.003612442
-0.0027245076
-0.0018655878
3.0299363E-5
0.0029590107
9.727644E-4
-1.796439E-4
1.4978434E-5
-0.0036499668
-0.0035335396
-0.0012795308
-0.001892759
-9.683358E-4
-0.0010135374
-0.0015759999
1.5200296E-4
1.6735193E-4
-8.010585E-4
-0.0010114292
-9.164639E-4
-2.6969227E-4
9.1768836E-4
0.0037192896
0.0053035393
0.0034578438
0.0014198737
9.0282125E-4
0.0011533335
2.2994871E-4
-9.3980914E-4
3.7791915E-4
0.0029160548
0.0051622638
0.005605215
0.003991679
0.0019466857
-9.1342395E-4
-0.0030018247
-0.0038959328
-0.00453853
-0.003071429
-0.0018796303
-0.0015044807
5.0633267E-4
9.896321E-4
-8.628111E-5
-9.6725376E-4
-0.001869456
-0.0019715843
-0.0031386944
-0.0033904228
-0.001542561
-0.0014617682
3.8231243E-4
0.0027150817
3.6931518E-4
-2.6012977E-4
0.0016569258
0.0017285051
7.925122E-4
-1.1496282E-4
0.0015684116
0.0038898906
0.00346771
0.0019726784
7.72709E-4
9.0062554E-4
6.9024024E-4
5.944277E-4
0.0011230103
-5.077828E-4
-7.2634144E-4
5.842421E-5
8.398121E-4
0.0033929294
0.0015285354
-0.0019628108
-0.0029654922
-0.0040918146
-0.002991393
-0.0030079212
-0.0034590354
-0.0013790929
-0.0013079377
-6.006898E-4
7.164627E-4
3.7641435E-5
-8.0582197E-4
-0.0015199627
-4.719996E-4
3.3198588E-4
8.320687E-4
0.0024948763
0.0028482564
0.0033253096
0.0033168753
0.0022672792
5.7551893E-4
-8.4061426E-4
4.6959528E-4
8.774778E-4
0.0025841403
0.00404973
0.0017840905
0.003014603
0.003458293
0.0053521437
0.00532191
-0.0065679597
-0.007471766
-0.00498241
-0.012931446
-0.004252144
0.005905629
0.0021102377
9.959313E-4
-0.0026005206
-0.003961053
-4.872719E-4
-0.0016557238
-0.0022405908
-0.0029856486
-0.0024149395
0.0013460617
0.0019253702
0.001260329
3.5965166E-4
-6.449496E-4
-9.257362E-4
-0.0017893283
-0.0013459135
-2.759538E-4
9.199171E-4
0.0021157626
0.0018439495
0.0013579999
0.0010132268
2.4637693E-4
-9.989799E-4
-6.668785E-4
5.698556E-4
6.698613E-5
0.0014758598
0.0040370366
0.004121059
0.0032811603
0.0025675755
0.0027479166
0.001965187
4.8182445E-4
1.7764037E-4
-5.2550685E-4
0.0010832011
0.0028822226
0.0012658638
8.9847273E-4
9.315791E-4
-4.779371E-4
-0.0020404458
-0.0032409232
-0.0030427238
-0.0037012626
-0.0037165242
-0.0019937751
-0.0018413549
-0.0020107217
-0.0034519054
-0.004402376
-0.0025714927
-0.0037210272
-0.0038242263
7.3141407E-4
0.0020162992
0.0011221891
0.0021380794
0.002748838
0.0024307433
0.0010443262
-8.218974E-4
-0.0014635245
-4.6234683E-4
0.0014221292
0.002724008
0.0033961148
0.003347321
0.0022405435
0.0013448534
0.001451765
0.0016570472
4.63624E-4
-8.9202425E-4
-6.31347E-4
-1.2683167E-4
3.955476E-4
0.0012547456
0.0012923701
1.5187445E-4
-0.0011614793
-7.628492E-4
4.213233E-6
-6.310808E-4
-2.778655E-4
0.0010877058
0.0022006293
0.0040458078
0.0051315837
0.0039479826
0.0018786931
-5.113654E-4
-0.0027816014
-0.0025366268
-3.9282235E-4
-1.2600303E-4
-0.0011050282
-9.41292E-4
-2.5366677E-4
-0.0012692574
-0.0043678377
-0.005242232
-0.0046835314
-0.0066124056
-0.006419612
-0.002924477
-2.1150753E-4
0.0013612999
0.0017384243
0.0019698984
0.0017847111
5.746654E-4
-2.3014727E-4
-5.3708244E-4
0.0014099673
0.003008685
0.0030939123
0.0061203493
0.0056104986
0.0017069222
0.0029541845
0.0030440872
0.0010890875
0.0019344962
0.0016562517
0.0011488638
0.0011622525
3.3496402E-4
8.368362E-4
2.1725493E-4
-0.002525794
-0.0039851964
-0.0036194785
-9.534577E-4
0.0018198935
4.3785406E-4
-0.0012540113
-2.7317373E-4
-0.001421004
-0.003877758
-0.0041673533
-0.0033732562
-0.002128054
-0.0018806567
-0.002355625
-0.0019054723
-4.700141E-4
0.003095535
0.004664663
0.0014794683
-6.528976E-4
-5.7746907E-4
-3.5392318E-4
2.4046439E-4
4.4022533E-4
0.0011974641
0.0024653566
0.0027438747
0.0022676904
0.0021557724
0.0027842757
0.0014361595
-2.1108234E-4
0.0011175838
0.0012559025
3.8196653E-4
0.0010336572
7.807208E-4
9.207928E-4
0.0012563154
-6.603782E-4
-0.0019190205
-0.0018804971
-0.0032121956
-0.0037655008
-0.0017720878
-0.0012992035
-0.0019648457
-0.0010512789
-0.0014621504
-0.0017657764
-0.0011425356
-0.0023505783
-0.002551324
-0.0018159415
4.1812292E-4
0.004694614
0.0047909482
0.002535504
0.0017611895
0.0016621398
0.0022783978
0.0012676971
6.9186144E-4
0.0012892407
3.8849848E-4
8.897624E-4
0.002968565
0.003162201
-5.337339E-4
-0.0019233695
0.0013208897
-5.354443E-4
-0.0014379576
0.0010365411
-3.6256923E-4
0.0013048756
-0.003404877
-0.011318626
-0.0021694128
0.002767815
-0.0032499854
-0.002154652
-0.0011080572
2.108612E-4
0.0027805706
0.0016845313
0.0034634199
0.0032800268
-8.944632E-5
-1.3368059E-5
-3.7096764E-4
-0.0012997983
-0.001595153
-0.0012743268
-6.7908084E-5
-0.0011016714
-9.6851046E-4
0.0013545469
8.7831035E-4
-9.440153E-5
-1.8971428E-4
-0.0013148083
-0.0013354681
-2.9754278E-4
2.7498376E-4
0.0020236787
0.0039719357
0.0036100005
0.0015628851
-0.0013495523
-0.0032139386
-0.002341398
2.9143956E-4
0.0043751765
0.006913961
0.005444793
0.004200568
0.0048032966
0.004204582
0.0013865425
-0.0012992215
-0.0014785432
-0.0016098688
-0.002953201
-0.0026598002
-8.7769097E-4
9.611429E-4
0.0010392426
-0.001279706
-0.003263729
-0.004960144
-0.006737699
-0.0063150153
-0.003905257
-0.0012433749
6.4839324E-4
0.0016685659
0.0018922972
0.0011737887
0.001146703
0.002011961
0.0013594817
5.3655975E-5
-5.7005484E-5
8.2744856E-4
0.0023227201
0.002271389
0.0011916002
0.0018144035
3.5061024E-4
-0.0021118417
-4.5223554E-5
2.4783175E-4
-0.0018507348
1.3000061E-4
9.5879624E-4
-7.8643824E-4
-5.0263037E-4
4.6555398E-4
9.4015745E-4
8.218377E-4
6.254302E-4
9.1676984E-4
7.543272E-4
4.793065E-6
9.5093757E-4
0.003785143
0.002605403
3.6458517E-4
0.0018365044
1.7745042E-4
-0.0018824609
-1.7405393E-4
0.0013579929
0.0026475964
0.002792285
0.004297152
0.00355702
-0.0010228368
-2.6596175E-4
-0.0059624193
-0.014963006
-0.007152455
5.436716E-4
5.6400715E-4
0.00333513
0.0037471747
0.0036914896
0.003041253
-2.3240632E-4
-0.001353548
-0.0026418199
-0.0027730162
-0.0016200253
-0.0020916774
-5.0556268E-5
0.0026358655
0.0019035995
3.2607894E-4
-2.9751618E-4
-0.001373611
-0.0027237753
-0.0027308194
-0.003071424
-0.0021050335
0.0014125056
0.0025285496
0.0016547835
6.6642225E-4
-6.4026396E-4
-0.0010646398
-0.0011968696
3.8533643E-4
0.0022168113
4.553012E-4
-3.0382877E-4
0.0029401467
0.005681677
0.005516705
0.0039560604
0.0026865
0.0012879953
-2.8318437E-4
-2.256644E-5
0.0010368504
9.567722E-4
0.0012505687
8.504354E-4
-7.739655E-4
-0.0010526703
-0.0018401208
-0.0033076357
-0.0029851142
-0.0014615332
-6.531096E-6
-7.564819E-5
6.9770653E-4
0.001336405
-0.002514264
-0.0053443788
-0.005089599
-0.003712353
-1.5894667E-4
-2.489197E-4
-0.0023774742
2.3400191E-4
0.002942122
0.0029330447
0.0015675604
-0.0012115843
-0.0028113502
-0.002389435
-0.0024448787
-0.0017102675
0.0010731963
0.0014261046
2.6495452E-4
9.345455E-4
5.722272E-4
1.00216304E-4
-1.6926051E-4
-0.0011948944
-1.9929084E-5
0.0010839221
9.48552E-4
0.0013856296
0.0013283845
0.0015092295
0.0015868866
9.71929E-4
6.4986205E-4
5.026916E-4
-6.487389E-5
-4.252333E-4
0.002313993
0.004631383
0.0036452932
0.003921476
0.0021050696
-0.001798237
-0.0017080297
-0.0013649978
-0.0016074342
-6.15344E-4
-7.467988E-4
-0.0013193275
-0.001167573
2.9432905E-4
9.188899E-4
-0.0022369546
-0.0054240366
-0.005025242
-0.0030412888
-0.0020655207
-0.0016392174
-8.7256765E-4
2.7976595E-4
0.0022027886
0.0035446277
0.0036966598
0.0035157988
0.0029768224
0.0019999226
9.854476E-4
0.0015882988
0.0025007012
0.0019420121
0.0011692013
-9.7240706E-4
-0.0031174195
-0.0042993785
-0.005947412
-0.0052179727
-0.0044468883
-0.0042608916
-4.960311E-4
0.0017452438
5.3875236E-4
-7.042744E-4
-0.0018774144
-0.0016172309
-1.7920526E-4
0.0014298493
0.0022408308
0.0028558953
0.0054944116
0.006892788
0.0066574016
0.0063796323
0.004885716
0.0043138512
0.0030351444
4.12943E-4
-7.078122E-4
-0.0021222164
-0.0021130966
-5.8066566E-4
-0.0018757865
-0.005020277
-0.007595126
-0.0077115335
-0.0062516555
-0.0053222845
-0.0037828193
-0.0016501052
0.0012137345
0.0037867348
0.004793
0.005577689
0.004506591
0.0017514915
2.5286866E-4
6.4011845E-5
-2.1375046E-4
-0.002288257
-0.004351697
-0.0053072483
-0.006286431
-0.005979615
-0.006179592
-0.006808444
-0.0055225194
-0.0049489276
-0.0039373236
-1.2033496E-4
0.0031127224
0.0046461346
0.0068349773
0.008471621
0.006469718
0.0021452561
-0.0022674343
-0.005887202
-0.0064147552
-0.0019122519
0.0057537854
0.012114979
0.01758904
0.021470776
0.020726597
0.016727092
0.0063768537
-0.0036244008
-0.0043554623
-0.0045143235
-0.0014038975
-1.5621845E-4
-0.012537173
-0.015100875
-0.0056192228
-0.0071320934
-0.01234811
-0.014225003
-0.015877323
-0.015186349
-0.013048391
-0.009200848
-0.003193628
0.0026537478
0.004773353
0.004693017
0.007379412
0.010518757
0.010388373
0.0058915736
7.632032E-4
1.8664022E-4
2.5816978E-4
-0.0034202212
-0.009802817
-0.014618081
-0.014672543
-0.012259094
-0.010512439
-0.009480693
-0.0041971137
0.004524574
0.010924565
0.015025545
0.016599992
0.020659512
0.028418867
0.029598266
0.017432243
-0.0056243865
-0.023446845
-0.0305436
-0.030817289
-0.02218014
-0.01140174
0.017357273
0.06574152
0.09250538
0.08743536
0.044171024
-0.030462218
-0.081785694
-0.088963315
-0.06451635
-0.03216934
-0.01536083
-0.0069111935
-0.005132486
-0.0021694463
0.011412387
0.021605594
0.025436176
0.0130791385
-0.015191407
-0.032523554
-0.030702688
-0.011095916
0.012194946
0.020912379
0.015132212
0.0034773545
0.011471476
0.036952794
0.04547307
0.029672282
-0.010585987
-0.056422543
-0.064319424
-0.03847912
-0.011743651
0.006009796
0.006605311
-0.009906169
-0.015887933
0.0038997682
0.030325936
0.039323498
0.023364708
-0.0024335515
-0.016280252
-0.012759993
0.0026015216
0.021414561
0.032496814
0.03634248
0.04680751
0.052122477
0.023767082
-0.022348719
-0.04625364
-0.036391746
-0.012761541
-0.0015781256
-0.0021340805
-0.0036381711
-0.0036517014
-0.002520224
-0.007525794
-0.014234136
-0.019052109
-0.026022391
-0.024968911
-0.01908273
-0.016823562
-0.014012089
-0.012542861
-0.0097519895
-0.004804624
-3.7390192E-4
0.005926479
0.009443473
0.009573888
0.009003118
0.009094503
0.012164136
0.01291334
0.011606085
0.012551662
0.013431977
0.011763757
0.008975675
0.008686219
0.004636325
-0.004617216
-0.008758017
-0.008474154
-0.0053580515
0.0012960561
0.010642432
0.02587834
0.03999509
0.039785936
0.01635623
-0.020015951
-0.037449416
-0.030985124
-0.023293665
-0.021188147
-0.020683734
-0.01987529
-0.017544584
-0.016674496
-0.017225286
-0.011098314
0.0035817763
0.023112254
0.044927143
0.055481993
0.04214811
0.006185852
-0.03614989
-0.049767114
-0.02758494
-0.0029222006
0.008138065
0.008272055
0.0019605868
-0.0015081853
6.5370236E-4
0.0070579546
0.011347712
0.0062833577
-5.5120076E-4
-0.0017115676
-8.8210666E-4
9.905662E-5
0.0018388215
-9.010956E-4
-0.009851349
-0.015300521
-0.013514741
-0.008739135
-0.0010673217
0.0062709237
0.007398438
0.0029944133
-7.1689807E-4
-1.2668648E-5
9.135648E-4
6.0705165E-4
0.0019482217
0.0030389652
0.0035795628
0.0038743454
0.0013085036
-0.0020224545
-0.0037650738
-0.0032416186
0.0010354012
0.0052853837
0.006637377
0.007975354
0.012672498
0.019297829
0.016390255
0.0023468067
-0.0074556824
-0.009467194
-0.0089784525
-0.008292065
-0.010245715
-0.009730917
-0.0045451103
-0.0024209514
-0.0046274527
-0.006190437
-0.0043918197
-0.003111994
-0.004811901
-0.0047654784
-0.003217046
-7.433037E-4
0.003998469
0.004695922
0.0012077964
0.0010292926
0.0013420378
-0.0016586577
-0.0022279774
9.6303737E-4
0.003668872
0.0055278176
0.0058241338
0.0038418302
0.0013678732
-0.0013038901
-0.004221588
-0.0069945827
-0.008231004
-0.0073353634
-0.006576505
-0.0045249076
0.0023589162
0.012088183
0.017213257
0.011936519
0.0023365798
-2.3304416E-4
0.0037349062
0.006905956
0.008895431
0.008251638
0.001712661
-0.0029971483
-0.002314414
-0.0014655918
-0.0013001829
-0.0043878495
-0.008186542
-0.009639215
-0.009490706
0.0021508317
0.017077373
0.016107671
0.004329988
-0.0122046545
-0.024450915
-0.022762066
-0.016869387
-0.010211216
-0.002356057
0.0041112867
0.013587483
0.020612637
0.017271914
0.007073049
-0.0021750557
-0.005731193
-0.0063160285
-0.0037891993
0.0023012978
0.0051750154
0.0028376763
-0.0013801734
-0.005350088
-0.0076010376
-0.0060665626
-8.60101E-4
0.0029183754
0.00222973
7.5148157E-4
0.0033700275
0.007059901
0.00527734
-7.189056E-4
-0.006775149
-0.008297432
-0.0034447855
0.003811343
0.011303111
0.011531895
0.0027504808
6.468789E-4
0.0057814736
0.008337345
0.011798514
0.0123358425
0.0052164225
-2.546268E-4
-0.0036707812
-0.009970169
-0.012545618
-0.00823983
-0.0034422795
-0.0026084972
-0.0045348643
-0.0065230653
-0.0086088795
-0.0085883085
-0.0050708484
-0.0032868476
-0.002706831
3.4860178E-4
0.002223048
9.156441E-4
-7.1151304E-4
-1.5118529E-4
0.0016609834
0.004036291
0.007304173
0.0060601607
0.0021316994
0.0043086344
0.008489259
0.008542707
0.0035256343
-0.003837819
-0.004528586
-8.996985E-4
0.0024252303
0.008974521
0.009197634
0.0017174032
-0.0013692543
-0.004454781
-0.007635073
-0.007683648
-0.01220479
-0.013235805
-0.0052913567
9.841177E-4
0.0044241855
0.0060452814
0.00577269
0.0055636084
0.0037230721
0.002123718
5.75312E-4
-0.0017323
-9.531724E-4
0.0012639047
0.0035119366
0.0050318437
0.0025275354
-0.0011292403
-0.00279041
-0.0035051268
-0.0039320136
-0.0029966647
-4.303929E-4
8.177592E-4
0.0017053494
0.003851523
0.0038570217
0.0019328815
-2.2886004E-4
-0.0032872744
-0.0056682285
-0.005286097
-0.0040411633
-0.0042420374
-0.0027292666
7.286932E-4
0.0025716044
0.0037510637
0.0032252911
0.0012030188
9.692203E-4
0.0012711476
0.0015005235
1.028234E-4
-0.0015403588
0.0012371838
0.0026780898
0.0013866723
0.001579217
-2.899379E-4
-0.0011292504
8.6558994E-4
-1.5252543E-4
-0.0018484714
-9.7652414E-4
0.0023235304
0.0048036864
0.002424407
8.80524E-5
-0.0013941932
-0.004497403
-0.004271961
-0.0025629904
-0.0026798502
-0.0017020744
-0.0010285097
-4.204713E-5
0.002202706
1.8705113E-4
-0.00268392
4.1117365E-4
0.0019500845
-2.3337838E-4
0.002009812
0.0042611784
0.0035245775
0.0043244367
0.0031465818
0.0015528174
0.0019652243
2.801525E-4
-1.5552701E-4
0.0012188734
0.0014237004
0.00129649
-2.6155717E-4
-0.0011117029
-0.0015257553
-0.002755436
-0.0019729577
-0.0028634714
-0.0040517347
-0.0029407942
-0.0048575005
-0.005014393
-0.0013292659
-8.246596E-4
-0.0028664186
-0.005139544
-0.005423136
-0.0031237784
-0.0012349826
2.475E-4
8.561828E-4
0.0016578995
0.004853104
0.007863675
0.008154094
0.0054089576
0.0021032752
4.3309215E-4
-2.6395023E-4
2.3072245E-4
3.1570625E-4
-0.0016329483
-0.0034299653
-0.0027212037
6.3446804E-4
0.0025816148
0.0016759493
0.0029153998
0.004559496
1.7409974E-4
-0.0055873995
-0.0059349565
-0.00445546
-0.0042507453
-0.0055648927
-0.008818436
-0.009069136
-0.0052068518
-0.001969028
6.8095274E-4
0.003813558
0.0062847678
0.007410936
0.008910238
0.011976334
0.012276144
0.0072396863
-0.0014731532
-0.012404008
-0.020707073
-0.021458508
-0.015174181
-0.0032996647
0.010989341
0.017990056
0.013827984
0.007869302
0.0046450836
0.0013907658
0.0011372468
0.0054387157
0.007315338
0.0023343943
-0.004626075
-0.0071426756
-0.0036735446
0.0034141168
0.011314388
0.014598467
0.0055832653
-0.005477082
-0.0028077697
0.0022742683
-1.4950371E-4
-0.0023818908
-0.004429108
-0.006349575
-0.0034607027
0.0012013196
0.0013455069
-0.004258809
-0.012885586
-0.017841592
-0.010145231
-0.001687679
-0.008427594
-0.0115670245
0.0010001143
0.012945899
0.016922858
0.014126035
0.008138763
0.004403678
0.0025087916
7.3879404E-4
-9.5409853E-4
-0.0012222533
-0.0020533071
-0.003664416
-0.0019363485
3.0799655E-4
0.0025541198
0.007184501
0.010028417
0.009187683
0.0070763733
0.0065038987
0.00495381
8.923324E-4
-5.736324E-4
-0.0032947834
-0.007660254
-0.0041175704
0.0016269204
0.0019106021
0.0016851139
0.0013980512
8.75635E-4
0.00485539
0.010266503
0.011409133
0.0086680325
0.0022277245
-0.008260908
-0.020498289
-0.026243828
-0.02207841
-0.018787006
-0.013965919
0.0016613527
0.015042999
0.015876463
0.008469929
3.5949884E-4
-0.0015932749
-0.0021232236
-0.0031465928
-0.0013308908
-0.001379887
-0.003008011
-0.0055595147
-0.00794697
-0.002443476
0.006598518
0.011694066
0.012406081
0.008773855
0.0062898328
0.0045633605
-1.0824526E-4
-0.001740943
-4.1988303E-4
-9.371756E-4
-0.0014465341
-9.78488E-6
0.0020425406
0.0023304012
0.0030480798
0.004417258
0.002004179
4.8304428E-4
0.0038623128
0.006297252
0.0014459247
-0.010724814
-0.016527262
-0.0072833053
0.0040058587
0.005938772
0.0015300979
-8.40615E-4
-8.8380283E-4
-0.005461214
-0.009247286
-0.0060280734
-0.004011748
-0.0049508405
-0.003492003
-0.002470708
-0.0010298607
0.0015014646
-0.00120162
-8.4790366E-4
0.0025328167
-0.0056217276
-0.008210743
0.0011971669
-7.46773E-4
-0.004046896
0.0016011704
0.0024155101
0.0013755717
0.0019031462
0.0012946416
0.002376574
0.0033167016
0.0037449878
0.0048715635
0.004571297
0.0027678567
0.0016582204
0.001615131
0.0016529767
0.0028530788
0.0027174596
-1.1042145E-4
-0.0010428628
-1.460853E-4
0.0014366038
0.0025550541
-1.2053838E-5
-0.005323134
-0.009634966
-0.009139883
-0.006499142
-0.0040903795
-0.0022274768
-0.007936693
-0.012567717
-0.0046889037
0.003627931
0.0056260866
0.0045897076
0.0037263946
0.005758762
0.005131448
0.0020719026
1.9020717E-4
-7.359232E-4
2.119708E-5
-4.4429078E-4
0.0016260719
0.006619254
0.00799491
0.008304142
0.004417568
-0.0017066731
-0.001334615
-1.0896797E-4
-1.7803119E-5
-2.9089043E-4
-0.001990511
-0.0018877108
-0.0011953642
1.5221816E-4
-4.0449412E-4
-0.0019690723
-7.704318E-4
-0.0078114057
-0.014574691
-0.0023786826
0.01074517
0.009395184
0.0055666175
0.0045749852
0.0024852466
0.0014955797
0.0024677808
0.0023306035
0.0022892535
0.0028296688
0.0049590007
0.007621255
0.005886922
0.004469712
0.00442935
6.784727E-4
-0.0032100691
-0.0050631296
-0.00573243
-0.005267345
-0.002277356
7.016138E-4
-7.052936E-4
-0.0022109419
-0.0039002362
-0.0022194716
2.59611E-4
-0.011457251
-0.017345069
-0.0053040357
0.0020641678
0.0013898083
-0.0052284184
-0.005496766
0.007630492
0.009857815
0.00458739
0.004082013
0.0029217983
0.0053192126
0.006151636
0.004608251
0.0065463562
0.007023053
0.0075862417
0.0065738014
0.0028513388
9.5889677E-4
-4.327755E-4
5.4339285E-4
0.0019528166
5.6592905E-4
3.3767227E-4
0.0011585354
-4.4733482E-5
-0.002577329
-0.0022277802
-0.0029742094
-0.0074975253
-0.0065312046
-0.0034515625
-0.0033034848
-0.0015020171
-0.0015259688
-0.0018364165
7.5347105E-4
6.73831E-4
-0.0010200669
-0.0013652255
-0.0024150652
-0.0034913311
-0.0019417575
-1.1307789E-5
-2.6881177E-4
-6.801132E-4
-0.0015780806
-0.0018272282
-0.0015311248
-0.0045431512
-0.0048459517
-0.0012287587
-6.9038296E-4
3.0766608E-4
0.003264085
0.0053117783
0.0054676817
0.0021668333
7.149868E-4
0.0025503985
0.002934933
0.003398601
0.003988895
0.00471575
0.006874051
0.00601583
0.0020045273
-4.6786515E-4
-9.753499E-4
-0.0020366893
-0.0030405393
-0.0017286711
-9.344033E-4
4.9171824E-5
0.0025548434
9.2281157E-4
-0.002140464
-0.0027413333
-0.0039049108
-0.0035387937
-0.0029148252
-0.0046545453
-0.0044288132
-0.0027567015
-0.0013719007
7.484282E-4
8.221108E-4
-0.0016288138
-0.0034677323
-0.0026733573
-2.770108E-4
-0.0013076953
-0.0032175868
8.4569206E-4
0.004363828
0.0021881098
-1.2652187E-4
-0.0018626723
-0.0024049242
-9.382953E-5
0.0016240474
0.0026889944
0.0038314683
0.0043475456
0.004520223
0.0031786286
0.0017654158
4.2351475E-4
-0.0013639311
-6.540955E-4
-2.3436869E-5
-3.0407378E-5
0.0022469251
0.0027415908
0.0012021207
7.371355E-4
2.3591387E-4
-7.929619E-4
-0.0032230706
-0.004501177
-0.001569376
-3.4542827E-4
-0.0024474098
-0.0016806232
4.12796E-6
-0.0010792265
-0.0014136079
-0.0016824828
-0.0041780006
-0.0041435547
-5.795368E-4
0.0022718324
0.0034536445
0.0032871044
0.0028231104
0.0024227449
8.5102045E-4
-3.417381E-4
-0.0011975626
-0.0031008266
-0.0029425835
-3.470905E-4
0.0014037765
0.002928227
0.004294398
0.0032974896
0.0017736658
0.0013925306
2.5704494E-4
-7.006421E-4
-6.859781E-4
-0.0013147709
-0.001278226
6.061957E-4
0.0026609378
0.0025153442
-4.5716926E-4
-0.0023805841
-6.50217E-4
7.1735785E-4
-4.479913E-4
-7.332377E-4
2.5369614E-4
0.0012502549
0.0026233266
0.0023771606
0.001200469
9.801465E-4
2.7016836E-4
-9.707199E-4
-0.0034558838
-0.005040943
-0.0030187205
-0.0016731416
-0.0016007721
-0.0011480249
-9.864047E-4
-3.0614676E-6
7.208199E-4
0.0021104948
0.004457354
0.0036858201
0.0022404944
0.004142435
0.005312928
0.0018267866
-0.001204796
-1.7804861E-5
0.0012640595
0.0010457825
1.8371895E-4
7.8276434E-4
0.002446212
0.001907845
0.0020589884
0.0020796217
0.0016050336
0.0017270785
-0.0010964129
-4.174772E-4
-0.0011805218
-0.005406637
0.001063966
-0.0015926547
-0.013206475
-0.0047901724
0.0034199667
0.0017444156
0.0037751035
6.147213E-4
-0.0022724478
8.2566193E-4
0.0026319418
0.0033735265
0.0024740687
0.001834395
7.922491E-4
-2.5371916E-4
0.0022024505
0.0020390488
-5.634708E-5
-3.2736038E-4
-8.972622E-4
-1.3001513E-4
5.012261E-4
8.571101E-5
-0.0010154989
-0.0039410754
-0.0043510664
-0.0015262553
3.675881E-4
4.3851082E-4
-2.2035358E-5
-2.9741044E-5
6.888907E-5
6.8557647E-4
4.108845E-4
-0.0011246909
-2.8764294E-4
0.0018035877
0.0026524987
0.0031849232
0.0036729672
0.003600108
0.00381095
0.006048117
0.005867251
0.0015018808
4.7333556E-4
9.0108195E-4
-0.001426038
-0.0018835803
-0.0013445147
-0.0020321193
-0.0019713733
-8.636617E-4
-7.3905E-4
-0.0036398203
-0.0055099125
-0.0054752864
-0.006970938
-0.005142143
-0.0017397241
-0.0021336542
-0.0010025088
0.0014167919
0.0024082647
0.002597927
7.439437E-4
5.7325995E-4
0.0014306956
3.4831275E-4
6.8399776E-4
0.0015637763
0.0020835279
0.002314486
0.0016688919
0.0017320215
5.683158E-4
-4.5156284E-4
-2.5129592E-4
-0.0019994727
-0.0020535614
-1.5801674E-5
4.963313E-5
-7.750257E-4
-8.4960216E-4
2.8215008E-4
7.41795E-4
8.445736E-4
0.0019252703
0.0011218183
-1.1189044E-4
-3.4174675E-4
-2.6730832E-4
0.0020668667
0.0039587147
0.0042649894
0.004855817
0.0025933392
-0.001152202
-0.0021945497
-0.0033486818
-0.0054569016
-0.005027523
-0.0036290886
-0.0037301665
-0.0029827182
-8.0162374E-4
2.0717451E-4
2.6643428E-4
0.0014843753
0.001751503
5.559029E-4
0.0024217113
0.003837565
0.0010445995
-5.9441075E-4
-0.0011117322
-9.281719E-4
0.0014343106
0.0015704188
6.8354834E-4
0.002219391
0.0044372967
0.0054457625
0.003260523
-7.813263E-4