-0.005429436
-0.004434014
-0.0011871605
0.0010310878
0.0033507103
0.0029307029
0.003684943
0.006451545
0.0031207928
-0.0017705963
-0.003042392
-0.003542714
-0.0026551115
-0.0018591041
-0.0016651136
0.0016672886
0.004993725
0.004084977
0.0016084544
-0.0018643677
-0.0050780936
-0.0041158777
-0.0019249584
-2.4273529E-4
0.002065448
0.0030906564
0.004569062
0.005062612
9.1247546E-4
-0.003111419
-0.003976819
-0.0038738246
-0.0041605365
-0.0046292976
-0.0030078788
0.0010952689
0.0049152174
0.005643119
0.002184053
-0.0031883868
-0.0056772814
-0.0045959144
-0.0038523509
-0.0020195604
0.0021619347
0.0044559096
0.005567679
0.006425287
0.0050357403
0.0018384384
-0.0025806823
-0.0047276225
-0.0020857768
0.0013249518
0.0018139125
0.0022281702
0.006662627
0.0082728155
0.0026436439
-0.0021666698
-0.0040926603
-0.004564111
-0.003600647
-0.0028434945
-5.8546907E-4
0.0015546439
0.002381849
0.0038114078
0.002367377
-0.0020803742
-0.0048785424
-0.004147789
-0.0021427718
-0.0019700143
-0.0015984062
9.121546E-4
0.004629257
0.005823959
0.0012770239
-0.0025793365
-0.0024009915
-0.0031694365
-0.0049420977
-0.0046573747
-0.0018885272
9.685461E-4
0.0039059643
0.006217654
0.003553365
-0.0012178107
-0.003744198
-0.003996653
-0.0035537342
-0.0043809325
-0.0025838285
0.0012688527
0.0038507986
0.006521647
0.004382912
-8.0376636E-4
-0.0025254523
-0.003462093
-0.0019754486
0.0012112324
0.0019508542
0.0034863097
0.0054398063
0.006064107
0.005025774
6.7807303E-4
-0.0029265443
-0.0030096057
-0.0017158322
-3.5975606E-4
-0.0011377939
-0.0022468688
7.758373E-4
0.003094964
1.3047097E-4
-0.003172206
-0.005246637
-0.0067147934
-0.0053744377
-0.0028362903
-8.4889185E-4
6.141693E-4
0.0030426662
0.006605622
0.0054258797
-1.1368937E-4
-0.0037313884
-0.0039536576
-0.002171358
-0.0020223793
-0.0014938199
0.0033938312
0.0072856597
0.007124523
0.0041913684
-6.387055E-4
-0.0038365284
-0.0041610035
-0.0026470455
-1.684324E-4
0.0017892508
0.0026957858
0.0036638489
0.0053669405
0.0034991226
-0.002576976
-0.0051306277
-0.0038069251
-0.0028986663
-0.001744574
-9.588685E-4
2.3393553E-4
0.004085549
0.006635095
0.0033632526
-0.0031356283
-0.006692152
-0.0056022527
-0.0035500894
-0.002760917
-0.0023264436
-4.642002E-4
0.0027250901
0.0038233262
0.0026801396
2.747281E-4
-0.00377654
-0.004179768
-0.0016002478
-0.0016192134
-1.16346666E-4
0.002983535
0.0056200507
0.008989429
0.0062328647
-0.0011698841
-0.004511869
-0.005171817
-0.004143649
-0.0018203837
2.3914433E-4
0.0036740052
0.0062598847
0.0056407223
0.0041317814
0.0020233183
-0.0016824176
-0.003444797
-0.0017972003
-0.001155336
-0.001732728
-0.0013790234
8.142416E-4
0.003809217
0.001891383
-0.0028950963
-0.004577018
-0.004501525
-0.0032242045
-7.327799E-4
0.0022100003
0.004234664
0.0047960524
0.0059893955
0.004458373
-5.50756E-4
-0.004487587
-0.0066278405
-0.0064903186
-0.0060889106
-0.0046409424
1.5927329E-4
0.0034281816
0.0051503736
0.0051558646
0.001144489
-0.0021246704
-0.0041140886
-0.005163446
-0.0024305498
0.0013527871
0.0023946809
0.0034082641
0.0071448637
0.0055951616
-0.0018046049
-0.0038909705
-0.0024553596
-9.808557E-4
0.0016182191
0.0028358107
0.004219502
0.0054389457
0.006112395
0.0063243182
0.0020461897
-0.003841207
-0.0071699675
-0.007279733
-0.0046550618
-0.0023769343
-1.8933129E-4
0.0020003824
0.0042597
0.0053503835
8.980396E-4
-0.004007124
-0.004627615
-0.0037855709
-0.0024272671
-0.0024417662
-0.0024216333
5.7931774E-4
0.003522841
0.0031382896
-8.575528E-4
-0.0042383554
-0.0039649494
-0.0032741372
-0.0024377622
9.214537E-4
0.0039838483
0.0045902203
0.0049634655
0.0044035083
0.0027468367
0.0012071977
-0.0017561973
-0.0027910075
-0.0013376407
-7.2965294E-4
0.0011924851
0.0030723168
0.004896537
0.0051134066
-6.127872E-4
-0.0039805765
-0.003932788
-0.0049380497
-0.0030312396
-0.0019804174
-4.5388902E-4
0.0041128737
0.00450114
0.0034420136
9.974085E-4
-0.006015349
-0.00877324
-0.0051600495
-0.0022308442
-0.0016961911
-3.4807323E-4
0.0024916916
0.0047087353
0.0053459858
0.0028248238
-0.0018644854
-0.004862693
-0.0039958246
-7.3875795E-4
8.5373514E-4
0.0024043084
0.005071504
0.006268896
0.006788833
0.0038851837
-0.0011589898
-0.0023006748
-0.0026343514
-0.003301909
-0.0019770272
-7.805154E-5
0.0020538473
0.0034218722
0.0025952428
-0.0015472685
-0.006769427
-0.0072543146
-0.005273667
-0.004716352
-0.002433701
0.0011202223
0.0040479046
0.007060349
0.006116703
8.289009E-4
-0.0025301236
-0.0034080807
-0.0025261885
-4.1221388E-4
6.585912E-4
0.0032792157
0.0065739397
0.0077528893
0.006614885
6.6778256E-4
-0.0041430993
-0.0045856107
-0.006621579
-0.0060292175
-0.0020429369
-7.9861504E-4
0.0012922527
0.0051400447
0.005434089
0.0015980119
-0.0030888251
-0.0047524557
-0.003134748
-0.002453355
-0.002420236
-1.4971355E-5
0.001960212
0.0039015799
0.0061523556
0.0031004199
-0.0015712463
-0.0035070386
-0.004454704
-0.002677879
-7.0044695E-4
2.3651985E-4
0.0025765696
0.0040696207
0.0042940183
0.001640628
-0.0033801286
-0.004396834
-0.0030857509
-0.0026792777
-3.9740233E-4
0.002163984
0.0032124042
0.0059626503
0.007082621
0.0020650912
-0.0025028754
-0.0036633785
-0.0041245646
-0.0019352777
0.001335553
0.0032947175
0.005052025
0.0060182223
0.005760724
0.003538278
-0.0013322533
-0.0058423285
-0.0051034563
-0.0029164506
-0.0061830203
-0.007213187
-0.0010038029
0.0048641707
0.0064147646
0.0029738361
-0.0015516899
-0.0041685062
-0.0054231486
-0.0027252203
-0.001325303
-0.0028264497
-1.14293536E-4
0.0037401845
0.00530905
0.0040180003
2.5240477E-4
-0.0015121807
-0.0020460815
-0.001080246
0.0012536519
0.001311257
0.0027600972
0.0059755677
0.005458278
9.767469E-4
-0.0038963733
-0.005392432
-0.0038191108
-0.0015396468
-3.7743364E-4
-5.5700465E-4
0.0015282851
0.0049969936
0.005535567
0.0025169707
-0.0022157985
-0.0043797493
-0.004384196
-0.0050375764
-0.003497988
-8.0565346E-4
2.6565249E-5
0.0014044741
0.0032262146
0.0019604664
-0.0026017737
-0.006032176
-0.0053136074
-0.0025490385
1.6344941E-4
0.0022798495
0.0041618166
0.0064605637
0.00712371
0.0041068206
-0.0010172798
-0.0034398853
-0.0015699329
-5.382544E-4
-7.598222E-4
0.0014201606
0.0037734727
0.0051630763
0.0060287835
0.0037631975
-6.19891E-4
-0.0038831728
-0.0056706546
-0.005632706
-0.00231482
0.0012361561
0.0017555482
0.003638674
0.0035166165
-0.00369692
-0.006459435
-0.004017811
-0.0047859414
-0.0026890086
5.8534386E-4
-1.2536878E-4
0.0011091594
0.0036842688
0.0039888215
0.0010093568
-0.0035948583
-0.0041499077
-0.0038102493
-0.0047214795
-0.0015237018
0.0027016995
0.0045965645
0.0059639006
0.0063133556
0.004532474
-5.518661E-4
-0.0045371666
-0.002894945
-0.0015544323
-0.0032579987
-0.0034629772
-0.0013566447
0.0021650791
0.0053357976
0.0041439515
-0.0010745138
-0.0048602098
-0.0045577832
-0.002807379
-0.0014276535
9.7449054E-4
0.0037569625
0.004681544
0.0052028843
0.0052567064
0.0017359431
-0.0019600007
-0.001941173
-0.0013525765
-9.773112E-4
5.482288E-4
0.0021592174
0.0044976925
0.0072896425
0.005699256
-0.0020911186
-0.008503718
-0.008263139
-0.006590776
-0.005213293
-0.0028236099
-0.002978876
-0.0026123407
0.0010864664
9.0676395E-4
-0.0028083273
-0.003802926
-0.0035243684
-0.003183218
-0.0016342069
-3.748337E-5
0.0022036214
0.0063461894
0.008852141
0.0058209267
5.202234E-4
-0.0022252866
-0.0021111385
-2.2441565E-4
0.0011550253
0.0014548366
0.0027277917
0.004783116
0.0066876565
0.0062572574
0.0015274527
-0.0032557668
-0.0039123497
-0.0031868608
-0.0046871947
-0.0053431275
-0.0020073217
0.0013342742
0.0027320015
0.0028454629
-5.493297E-5
-0.0042652194
-0.0060532987
-0.0044084014
-0.0018849678
-9.567421E-4
5.974107E-4
0.0031383934
0.004750517
0.004120549
-0.0011743555
-0.005587564
-0.003826707
-0.0028172026
-0.0029871196
2.4592615E-5
0.0020284944
0.0036590183
0.0068147955
0.0062499917
0.0016255091
-0.0030713156
-0.004005839
-0.001426047
-9.837423E-4
-1.016772E-4
0.0040333634
0.006020611
0.006847749
0.006445138
0.0021426138
-7.606107E-4
-0.0020381792
-0.004122457
-0.0050058644
-0.005576552
-0.0029433868
0.00257888
0.0025433234
-6.7933986E-4
-0.0039902595
-0.010916684
-0.01311638
-0.0063688178
-0.0013336418
1.1013196E-4
0.0022098888
0.003969128
0.004944763
0.004630077
0.0029628177
2.7059336E-4
-0.002999844
-0.002870667
8.068393E-6
0.0014948852
0.0030283488
0.005303889
0.0069980305
0.006893023
0.0025583592
-0.0028376766
-0.0032917252
-8.0549903E-4
-2.6346077E-4
-2.2149833E-4
0.0018086844
0.0035108596
0.0035997431
0.0032012693
5.2016665E-4
-0.003665332
-0.0044772476
-0.0034955763
-0.0038680648
-0.0028536553
-2.122532E-5
0.0028256332
0.0050825356
0.0048387414
0.0014372818
-0.0031192643
-0.0055550197
-0.004931362
-0.0033686145
-0.0024777527
-0.0021603415
6.878168E-4
0.003416586
7.2778546E-4
-0.0014930873
-0.0024219526
-0.00494733
-0.0034330063
-9.413282E-4
-6.505037E-4
0.0010099976
0.0029557073
0.0055077425
0.005525245
0.0014939354
-0.0013708209
-0.0039423523
-0.004657862
-0.0016522106
0.0013240497
0.0040104333
0.0053038676
0.006040699
0.007436083
0.0042489776
-0.002559471
-0.0056104083
-0.0034610366
-0.0011167241
-0.001098642
-5.8827187E-5
0.0029493861
0.0045525734
0.002107475
-0.0023311048
-0.0052376464
-0.0067579667
-0.006424847
-0.003807777
-4.5518499E-4
0.001941198
0.003532221
0.0059144483
0.0043522976
-0.0013390656
-0.003649555
-0.0045740427
-0.0045333696
-0.0021975795
-0.001986608
-2.7363645E-4
0.0033184772
0.00507349
0.006886253
0.0036558597
-0.004078797
-0.00635007
-0.004677138
-0.003173428
-5.97054E-5
0.0032902362
0.0051639276
0.0063944347
0.0054944465
0.0021063753
-4.6587037E-4
-0.0014450228
-0.0019153536
-0.002255299
-0.0022238449
-5.1626115E-4
0.00212479
0.003997279
0.003973689
0.0015334701
-0.00167727
-0.005571839
-0.0087645985
-0.0067256764
-0.0021644149
-3.0289724E-4
0.0013660451
0.003937068
0.0041823797
0.0015631574
-0.0030626617
-0.005287194
-0.0026795187
-0.0014904307
-0.0016379496
6.522061E-4
0.0034712162
0.007557563
0.008933382
0.003930267
-9.397751E-4
-0.0030611826
-0.0024733925
-4.8300822E-4
3.0989674E-4
0.0022995393
0.0034237164
0.0028607198
0.0035388449
0.0017565559
-0.0015902732
-0.0031625135
-0.0040666196
-0.0037192267
-0.0034564529
-0.0029035858
-2.3129276E-5
0.0025754406
0.0027956348
4.6667518E-4
-0.0030376846
-0.005756538
-0.0061574173
-0.003734285
-0.0010541517
0.001027755
0.0028856294
0.005216529
0.0072396025
0.004029037
-0.0010197612
-0.0024905198
-0.0027209183
-0.0011767297
6.127037E-4
0.0012096466
0.0032720924
0.0042527956
0.00340879
0.0011356216
-0.0027237278
-0.0041484255
-0.0038544727
-0.0027869665
6.0298833E-5
0.0021689534
0.004165799
0.0055342545
0.004167293
0.0012332678
-0.0034432951
-0.0066283415
-0.0050440473
-0.0033842446
-0.0032192678
-8.0022105E-4
0.0026024254
0.0049544997
0.0063336133
0.0033253916
-0.0017646676
-0.0023845239
-0.0025358237
-0.004008891
-0.0018907837
8.760865E-4
0.0014000157
0.00250948
0.00467512
0.0046724794
0.0010109378
-0.0015687294
-9.908327E-4
-0.001250037
-0.0018252658
-6.3491735E-4
9.2682E-4
0.002848619
0.0038540491
9.34106E-4
-0.0031012462
-0.0058373567
-0.007953679
-0.006153542
-0.0024646174
-0.0015226767
1.057574E-4
0.002844743
0.004403493
0.004409997
0.0012646359
-0.0019132064
-0.0018007087
-9.4883505E-4
-7.7282335E-4
7.279299E-4
0.0038372518
0.0064172456
0.0070943576
0.0035660188
-0.0016857568
-0.0034004778
-0.0047341306
-0.00505664
-0.0016563947
8.527404E-4
0.0030817192
0.005526429
0.006078517
0.0051495177
8.737226E-4
-0.003397894
-0.004212426
-0.004282554
-0.0035470687
-0.0020001316
-3.22261E-4
0.0019409292
0.0036767686
0.0025675076
-0.0011107906
-0.003643704
-0.0051839207
-0.0049928976
-8.3337224E-4
0.0033647348
0.0055195107
0.0052258368
0.00434137
0.0040440247
-0.0016740813
-0.0074391053
-0.0068622166
-0.006367936
-0.004544842
-9.078467E-4
0.0010963759
0.0041449163
0.0054057213
0.0033516565
0.001071527
-8.4244023E-4
-4.1123485E-4
0.0015385197
0.003415992
0.0047335904
0.0051373737
0.0069747446
0.006955998
0.0032240907
-2.721598E-4
-0.0035449818
-0.0037330152
-0.0018186516
-0.0032204618
-0.0038191364
-0.0026090064
-0.0013409116
-7.95087E-5
-0.003034822
-0.007974717
-0.011958455
-0.0127884345
-0.004972185
0.004015726
0.0061082714
0.0053411266
0.004789297
0.0048546516
0.002325223
-0.004299545
-0.008643898
-0.0057331654
0.0012932633
0.0049752807
0.008595621
0.019327834
0.027800024
0.023806756
0.013139139
0.0063838502
0.0027710667
-0.0060451827
-0.0188972
-0.02688532
-0.022981437
-0.012067872
-0.0030978215
0.0051044477
0.002795713
-0.013197703
-0.020388078
-0.01606905
-0.009628683
9.869304E-4
0.0128863305
0.024834218
0.03210944
0.026486838
0.009103371
-0.013625693
-0.029009001
-0.03067604
-0.021608872
-0.008832981
-0.0030508346
3.423218E-4
0.008282714
0.020185335
0.032901134
0.02878726
0.0100362385
-2.8776153E-4
1.1738515E-4
0.0016632465
-0.010249574
-0.03153799
-0.032162424
-0.012922537
-4.7735285E-4
-6.3661055E-4
-0.0020071694
0.0051396503
0.025714926
0.044641074
0.03493564
0.020841414
0.032364428
0.03359476
0.01237116
-0.0059313406
-0.016603379
-0.015666286
-0.0209134
-0.043528266
-0.050554052
-0.03687794
-0.023719238
-0.01701622
-0.015542622
-0.0129015995
-0.009674054
-0.0072496613
-0.002800488
0.001348876
0.0064018616
0.007713224
0.0025374393
0.0016461473
0.0042654434
0.00464937
0.008583973
0.016137855
0.017457921
0.011449454
0.008361469
0.018125731
0.04306807
0.06487794
0.06283781
0.04693639
0.032393057
0.012171058
-0.024107372
-0.060639888
-0.067314334
-0.049931623
-0.03295389
-0.019940216
-0.013841723
-0.013136469
-0.009228933
-0.0075340252
-0.009172197
-0.006758367
-0.0017055362
0.0015604993
0.0024687382
0.0029050321
0.0024317303
-5.4023514E-4
-0.003275931
-0.0024643876
7.6977705E-4
0.0037013583
0.0070558297
0.011145896
0.014807356
0.017784458
0.016586911
0.01103096
0.005599312
0.0021294595
0.0014425984
-6.583634E-5
-0.0033907883
-0.003986103
-0.0036545328
-0.0028943564
-0.002465815
-0.005954235
-0.008140238
-0.006928801
-0.0047870586
-9.373202E-4
0.0015770931
0.0034848214
0.008021051
0.011361664
0.010077591
0.0045008906
-0.0014784698
-0.0037830311
-0.0044566235
-0.005568483
-0.0052195294
-0.0038570645
-0.002684942
-7.0421596E-4
-8.339155E-4
-0.00433824
-0.006055467
-0.0051476243
-0.0038496628
-0.0024112742
-3.3096445E-4
0.0033474742
0.006066512
0.0057584704
0.0038046166
0.0010726901
-0.0015138107
-0.0035982928
-0.0036491125
-0.001577355
-1.5937272E-4
0.0020205907
0.0055355397
0.0071092434
0.004907521
-1.9275752E-4
-0.0035247477
-0.004663025
-0.006889128
-0.006303603
-0.0012429224
0.002051628
0.0028793262
0.005132999
0.006207083
0.0033855936
-1.8053333E-4
-0.0032116892
-0.0050772876
-0.0035571447
-9.048786E-4
-1.4344376E-4
0.0012022725
0.00427599
0.004184434
6.4435735E-4
-0.0024184254
-0.004602386
-0.0036363197
-0.0013617411
-0.0016515035
2.0061147E-4
0.0042461064
0.006990816
0.007088026
0.0014076425
-0.0044963676
-0.0053304704
-0.004589451
-0.0028736694
-0.0010755218
-5.5480545E-4
9.472278E-4
0.0041324287
0.005239602
0.001005637
-0.0031621952
-0.0034368094
-0.0036277142
-0.0025789994
8.0536667E-4
0.002955639
0.004302021
0.0056440276
0.004906321
0.002034809
-0.0016992714
-0.004225478
-0.003392801
-0.002346754
-0.0030931015
-0.0017996536
0.0016306655
0.0051767845
0.0053868755
7.3549585E-5
-0.00391822
-0.0053038164
-0.005932352
-0.0029390126
-0.0016067049
-0.0020306548
0.0014606501
0.0042534973
0.0040758597
0.0015039581
-0.00280309
-0.0038711918
-0.002181475
-6.762079E-4
6.6141074E-4
0.0017319625
0.0039782193
0.0069347317
0.0068638646
0.0027718376
-0.0011397002
-0.0021947639
-0.0027347128
-0.003007673
-0.0022742802
-0.0013138095
0.0010857107
0.0044294666
0.005716606
0.0033250218
-8.348793E-4
-0.002576222
-0.0021773868
-0.0020442791
-0.0015215037
-2.9003763E-4
9.305404E-4
0.0018151756
0.0020340802
1.7721146E-4
-0.0032595033
-0.0046048933
-0.0049089743
-0.0053629708
-0.0026847199
4.571E-4
0.0023924452
0.005235084
0.004683096
6.8220554E-4
-0.0021724033
-0.0041488796
-0.004113203
-0.0024464028
-0.0025040403
-0.0025417176
2.1484752E-4
0.0037461186
0.0046970304
0.0030446963
1.6285248E-4
-0.0024610695
-0.0024709778
-0.0010441899
9.36187E-4
0.003808766
0.0039552604
0.004487286
0.008555927
0.006842845
6.272851E-5
-0.002602935
-0.0045667905
-0.005581343
-7.815532E-4
0.0025208998
0.0014603683
0.0034319116
0.0067955437
0.0041093407
-0.0029498867
-0.00732278
-0.00794726
-0.007969226
-0.0064139776
-0.0026973484
-1.5209739E-4
9.8897E-4
0.0012328137
-9.209323E-4
-0.0034315535
-0.0046290453
-0.0060575036
-0.006997679
-0.005939184
-0.0029513813
9.581014E-4
0.0040572044
0.0053499527
0.003715456
6.1946595E-4
-1.5224457E-4
3.166621E-5
5.3623714E-4
0.0031251803
0.0041463287
0.003918088
0.0060436055
0.0065319585
0.003563542
0.0011975921
4.04553E-4
-5.785845E-4
-5.4853765E-4
0.002057247
0.004109928
0.0064745652
0.011686227
0.012524817
0.005669325
-0.0013400444
-0.0045062336
-0.006828857
-0.009016464
-0.0078953635
-0.0061488263
-0.0061205276
-0.0038654972
-0.0020522925
-0.0038086988
-0.006621345
-0.009059129
-0.007839384
-0.004813342
-0.0046586655
-0.0036010763
3.3018438E-4
0.0050122216
0.008216656
0.0062354463
0.0011559674
-0.0021044046
-0.0037051456
-0.004245779
-0.0037524593
-0.002929221
0.0018330805
0.010924012
0.014990361
0.011817178
0.0067555006
0.0015771531
-0.0014411808
-0.004841768
-0.009473081
-0.0081907
-0.0036734852
0.0011017497
0.0075332006
0.0080009615
9.0262E-4
-0.006338547
-0.007618048
-0.0042232503
-0.004122064
-0.004940849
-0.0024900124
0.00614034
0.022489786
0.028735163
0.023005003
0.020956043
0.018389186
0.010875507
-0.010684811
-0.039657112
-0.039642647
-0.020606374
-0.0102503365
0.001103546
0.013629294
0.019445911
0.015988661
0.0039766817
-0.0094211055
-0.025101151
-0.030571526
-0.018982824
-0.013405887
-0.015248919
-0.011636132
-0.0042376285
0.004087789
0.008828492
0.01096762
0.013223547
0.014393947
0.01598856
0.015136671
0.009954638
0.003157198
-0.0014619383
-3.6440865E-4
0.003944745
0.0063306764
0.004708552
0.009288694
0.021714851
0.022525322
0.014443859
0.0080858935
7.872768E-5
-0.0063591637
-0.018910572
-0.032885212
-0.026160084
-0.010296243
-1.2461124E-4
0.0067092134
0.007122422
0.0026457545
-0.00260533
-0.005360895
-0.005683264
-0.008166741
-0.011066241
-0.012506477
-0.010783899
-0.0055010593
-0.0019475908
-0.0016768551
-0.0023579567
9.365195E-4
0.008701597
0.0140953455
0.015668208
0.015809076
0.013945576
0.008245175
0.0015084189
-0.0053315177
-0.011113864
-0.0037661484
0.0069177607
0.0038018238
3.934435E-4
-1.0850427E-5
0.0020409443
0.0131263845
0.017935952
0.014065183
0.009785258
0.003068889
-0.0048440364
-0.020093204
-0.031706534
-0.021760559
-0.0064935097
0.0017894881
0.004799509
0.0015874961
-0.001548677
-0.0028536213
-0.0033844819
-0.0014191665
-5.805947E-4
-5.768395E-4
0.001971307
0.0032379057
0.0018960151
0.0010648685
-0.0024568152
-0.004917266
5.4975233E-5
0.0024800743
0.0015382825
0.004215377
0.0056030042
0.0054750247
0.003924491
4.323809E-4
-0.0022062801
-0.005435794
-0.0046049706
-5.499512E-4
1.5866173E-4
0.0014617144
0.003432984
0.0044106464
0.0042451383
2.6658011E-4
-0.0034413822
-0.0036091933
-0.0019059773
2.0732498E-4
0.0028489826
0.0058580064
0.006905602
0.008460718
0.0089800935
0.0034416507
-0.0028746214
-0.0067669777
-0.009023879
-0.009084875
-0.0073379213
-0.003923898
-0.0018679808
3.157724E-4
0.0029272928
3.494875E-4
-0.0035951533
-0.004925122
-0.0040234714
-0.0017955444
-0.0013491532
3.657127E-4
0.0031765879
0.004536141
0.005505402
0.0021218683
-0.0032135437
-0.0048660655
-0.003492348
-4.4600485E-4
0.0014592238
0.0038467762
0.0065438855
0.006007374
0.0047229514
0.0010499326
-0.0039780457
-0.00445592
-0.0026456562
-0.0014127947
-0.0025155349
-0.004019991
-0.0011474827
0.0031786489
0.005157883
0.002808706
-0.0018180193
-0.0035130805
-0.0034727554
-0.0018451372
3.788788E-4
8.2337053E-4
0.003149118
0.0052847625
0.0042420123
0.0019290622
-0.0017966338
-0.0027109305
-1.0364764E-4
-5.990777E-4
-0.0028149332
-0.0011166141
0.0026473843
0.00430835
0.004545815
0.0017686
-0.0038913488
-0.005723745
-0.0053794333
-0.003677619
0.0013157835
0.0025509065
0.0030771676
0.0058250423
0.0041669165
0.0013243204
-0.0022211587
-0.0050487905
-0.0028673557
-0.003166358
-0.0031524335
8.243793E-4
0.0021558574
0.0052728197
0.0068635447
4.3566313E-4
-0.004450906
-0.0053792107
-0.0051057683
-0.0031901642
-0.0015024293
6.0022407E-4
0.0024125818
0.0037488309
0.004507907
0.0020788861
-5.0780835E-4
-0.001626986
-0.0012673214
9.135884E-4
-5.809045E-4
-0.0023673621
0.0013490105
0.00488921
0.006165675
0.003781745
-0.0025485903
-0.005679214
-0.0059792493
-0.005000435
-0.0016953436
2.1167405E-4
0.0025614141
0.005072287
0.003931333
0.0025053471
-1.0075663E-4
-0.0041426364
-0.004523398
-0.0028406093
-0.0014845816
2.8851946E-4
0.0033549413
0.006312395
0.0054758014
0.0027184943
-2.2186433E-4
-0.0035474065
-0.0034934375
-0.0013298608
-4.7964242E-4
9.881807E-4
0.004014641
0.006363795
0.005449727
0.0020600604
-0.0018512494
-0.0049525076
-0.0047738994
-0.003401711
-0.003186148
-0.0016338004
3.6970785E-4
0.0019357299
0.0032254783
9.765468E-4
-0.0034116737
-0.0055079265
-0.0049169054
-0.0024362986
-1.206886E-5
5.524164E-4
0.0017208231
0.0046803243
0.0052910657
0.0021373068
-0.0019600117
-0.0041105333
-0.0032659506
-0.0026561734
-0.0023538405
2.0172431E-4
0.0028554823
0.0061308914
0.007952259
0.0029137628
-0.0031036288
-0.0048789713
-0.004773787
-0.002880545
-7.938794E-4
-5.8800004E-5
0.00147964
0.0050853626
0.0076317717
0.004553132
-9.3516987E-4
-0.0035813753
-0.004184442
-0.0029462483
-0.0011479618
-0.0019592345
-0.002642932
7.308763E-4
0.0051307287
0.0049282354
1.1912629E-4
-0.004832204
-0.007187389
-0.004703332
-1.6822189E-4
-0.00202851
-0.0032823002
0.0033374985
0.003914994
0.0010805666
0.003413397
-0.0019105346
-0.007203696
-0.0015095775
0.0017580631
0.0014384615
0.0029200038
0.0060625286
0.008322522
0.004617257
1.9409752E-4
-0.005235778
-0.010096305
-0.0040420233
9.337992E-4
-7.8769494E-4
0.001777303
0.004123937
0.004066764
0.0031411927
-0.0010018424
-0.0035315151
-0.0041014594
-0.00510948
-0.004618972
-0.0030594582
-5.665752E-5
0.0044211536
0.005874681
0.0019583483
-0.0024308946
-0.0037636939
-0.0040818197
-0.0028439546
-4.7990578E-4
4.8219587E-4
0.002201328
0.0049382546
0.005940421
0.0039411713
-7.383985E-4
-0.0035893053
-0.0030423587
-0.002977888
-0.002992765
-0.0013817862
0.0013911371
0.0046893377
0.005315608
0.0025398682
-9.4167225E-4
-0.004629552
-0.0068183797
-0.005395937
-0.0018203771
0.0014054202
0.0030426995
0.003787854
0.004151591
0.0034585183
5.613518E-4
-0.0028464976
-0.0025951765
-0.0015577632
-0.0028306332
-0.0012676362
0.0025344684
0.0043469775
0.005385185
0.0037907984
-0.0011871182
-0.003844826
-0.004063709
-0.005117492
-0.0037672913
-1.7393251E-4
0.0017903217
0.00352435
0.0038946455
0.0019762986
-1.6368044E-4
-0.003085952
-0.0038804868
-0.0023162765
-0.0021033993
-0.0012958589
5.761871E-4
0.002266828
0.002884676
0.0014449973
-3.0286598E-4
-0.0033405705
-0.005282451
-0.0026541692
-0.0018396848
-0.002652493
0.0010557761
0.0044105286
0.003834236
0.0030072914
7.2357664E-4
-0.0033484448
-0.004484426
-0.003724584
-0.0029932703
-0.0011348655
1.88964E-4
0.0028147434
0.0069221426
0.0061377278
0.0012218363
-0.0026500712
-0.004336857
-0.0044867704
-0.003818893
-0.0011685576
0.002519996
0.00459857
0.0062216977
0.005779849
4.901743E-4
-0.0040348526
-0.0042321463
-0.0041956147
-0.0042050458
-0.003143846
-8.748927E-4
0.0035814443
0.0054876427
0.002801133
2.4681454E-4
-0.0022534644
-0.0054806448
-0.0061168987
-0.002599485
0.0012990994
0.002604709
0.0048065954
0.0071451794
0.0060865507
0.0031635873
-0.0012647165
-0.0039587566
-0.00271763
-0.0024004134
-0.002855472
-0.0018321979
9.926443E-4
0.0048283967
0.003888074
-0.0013285795
-0.0054934076
-0.0086149955
-0.008274795
-0.004193911
-0.0017953283
-2.0353819E-4
0.00318898
0.0061331075
0.006460469
0.0027043899
-0.002668677
-0.00419926
-0.0029610845
-0.0018250844
-3.1728527E-4
0.001561935
0.005096694
0.008712982
0.007016378
0.0011507006
-0.0027762703
-0.0030953132
-0.0027904855
-0.0023288412
-5.045196E-5
0.0023511772
0.0038068385
0.004452988
0.0037473084
0.0012474485
-0.0036049779
-0.00630452
-0.0048015695
-0.0050047957
-0.0053344183
-0.001712707
0.0013493139
0.0022340673
0.0027419548
2.3869364E-4
-0.0044605676
-0.0047488343
-0.002192953
-0.0013932423
0.0012412723
0.0042460617
0.005341209
0.008489032
0.007901806
6.547353E-4
-0.0035020646
-0.002696695
-0.0012522377
4.9559938E-5
9.997422E-4
0.0022669993
0.004897612
0.0071992446
0.0055689816
0.0014713524
-8.765654E-4
-0.0026910822
-0.0046277964
-0.0056899744
-0.0066025793
-0.0053567598
-0.003286314
-0.0026132262
8.215423E-4
0.003413976
-9.9144076E-5
-0.0028894697
-0.0021660775
-0.0011031406
2.1215632E-4
0.0011083846
0.0029536313
0.005836626
0.0049345363
7.5306644E-4
-0.0025415535
-0.0038040983
-0.0028211533
-8.4112695E-4
0.0011890368
0.0029613536
0.0037518586
0.0049262038
0.0051584444
0.0024178182
-0.0011084024
-0.0041683563
-0.0045239697
-0.0027776838
-0.0027097047
-4.7085792E-4
0.004315712
0.0066681555
0.006522706
0.0031923442
-0.0012189598
-0.0035378311
-0.004079818
-0.0024706563
-0.0015164992
-5.2724016E-4
0.0027824095
0.005042992
0.006210017
0.0039765267
-0.0015431163
-0.0027302655
-0.002182293
-0.0031557584
-0.0023205085
-0.0018743166
-0.0021588006
-0.0018920152
-0.0029378764
-0.0035404672
-0.0033254714
-0.0038814277
-0.0026336028
-7.191478E-4
-4.0151813E-4
0.001138678
0.002363232
0.003585615
0.005692959
8.264056E-4
-0.005103247
-0.0018855724
5.9430057E-4
-9.528367E-4
6.8623915E-5
0.0018459624
0.003666215
0.006853753
0.008145549
0.004693814
-6.587436E-4
-0.004508419
-0.0060923565
-0.0041572833
-3.548247E-4
0.0028600097
0.0046428787
0.0051898453
0.00541557
0.002524408
-0.0016859041
-0.003269052
-0.003976004
-0.0022910752
1.9565463E-4
2.733642E-4
0.0011383549
0.0035752216
0.0052675847
0.0017157054
-0.0040647513
-0.004946027
-0.0056144916
-0.005241528
-0.0013045252
-3.0295938E-4
5.4001564E-5
0.0021966838
0.0034243835
0.002061837
-0.0032670395
-0.0069301836
-0.006347908
-0.0046963957
-0.0024611708
-9.4608613E-4
0.0018571625
0.005807501
0.0054624164
0.0026945127
0.0010773111
-6.7309645E-4
-0.0015846218
1.0429203E-4
0.0017996893
0.0028601962
0.005477633
0.0072252876
0.0061662034
0.003529364
5.537118E-4
-0.0011266186
-0.0021236711
-0.0025306756
-0.0018949156
-8.938927E-4
0.0014881452
0.0043349382
0.0049329554
0.0015352664
-0.004110667
-0.0061754365
-0.004281315
-0.0027707787
-0.002096613
-4.5529267E-4
0.001756594
0.0034993235
0.0046521258
0.00154552
-0.0046253945
-0.005998764
-0.0042779315
-0.0030930862
-0.001212217
0.0010807766