0.0052414853
-0.0017284966
0.013869916
0.030952705
0.02310876
-0.007922924
-0.041021623
-0.0539382
-0.037942547
-0.008966152
0.028623262
0.087448984
0.13137639
0.14417547
0.15359871
0.10999062
0.0104004415
-0.04886679
-0.07475675
-0.09715794
-0.07893171
-0.043367762
-0.03446667
-0.047671337
-0.058303796
-0.052267976
-0.049926553
-0.046006437
-0.008826996
0.030708555
0.027405605
0.011896771
0.022674395
0.022542099
-0.012435191
-0.031621806
-0.012390472
0.014579511
0.031982902
0.04723243
0.0675659
0.069042206
0.030458773
-0.014493708
-0.022633914
7.488733E-4
0.020267624
0.035860684
0.053385787
0.017542636
-0.06632497
-0.106173255
-0.09520405
-0.071621545
-0.03906497
-0.02274116
-0.024408732
-0.016109692
-0.0045420737
-7.078845E-4
-4.920563E-4
0.0067699496
0.04360146
0.1085269
0.14087074
0.10317881
0.05660453
0.028665839
-0.022509672
-0.058866236
-0.038786728
-0.013113228
0.005353348
0.029761786
0.004840341
-0.06387804
-0.07285617
-0.024284009
-0.0019607358
0.005915463
0.021584043
0.013369998
-0.019127434
-0.057632778
-0.08143195
-0.07427207
-0.052686527
-0.031866442
-0.015933422
-0.007297096
9.720524E-4
0.024426585
0.079536945
0.13548976
0.14133428
0.103401825
0.041880693
-0.02695659
-0.05288313
-0.019729951
0.010720455
0.0025622053
-0.010970788
-0.025624653
-0.04408849
-0.03201936
-0.021677304
-0.036896102
-0.018688463
0.017765036
0.034640417
0.052778028
0.04200868
-0.0018289313
-0.022497952
-0.03703722
-0.06298597
-0.052478403
-0.012732499
-5.7687314E-4
-0.013160772
-0.014765056
-0.0033339246
0.004996329
0.005952129
0.017380727
0.036295842
0.03436419
0.029286327
0.03699182
0.028759314
-0.004918894
-0.045816276
-0.05489786
-0.026467869
-0.0112847155
-0.015952649
-0.022461703
-0.025951095
-0.0025125246
0.033715446
0.06762177
0.12289353
0.14247155
0.06374343
-0.024000566
-0.044407237
-0.058186144
-0.08759992
-0.0846504
-0.055748362
-0.030860594
-0.016382398
-0.0146731585
-0.020495968
-0.021197297
-0.010404052
0.0031194023
0.008470591
0.0015835698
-0.007598886
-4.0283304E-4
0.008102148
0.0071526375
0.020152263
0.030624531
0.013987377
0.0024895456
0.016439078
0.02534127
0.01566047
0.009379745
0.011315071
0.025446344
0.059030186
0.07958201
0.06269467
0.018559745
-0.02349133
-0.030022593
-0.025666434
-0.04250789
-0.05610482
-0.053614456
-0.04609168
-0.037827965
-0.03171132
-0.032735277
-0.034672767
-0.015363068
0.014068247
0.021062346
0.015424702
0.011647223
-0.004876533
-0.021857116
-0.003725426
0.020555966
0.009173988
-6.929272E-4
0.0023072148
-0.0047036246
0.00230582
0.015529104
0.0188241
0.031060893
0.03509816
0.030715855
0.032457303
0.012199808
-0.021776041
-0.039030854
-0.038868368
-0.017640902
0.01684528
0.05704288
0.087366745
0.057984814
-0.010433678
-0.04223953
-0.042534314
-0.042198163
-0.030376654
-0.00631848
0.0031709971
-0.01514975
-0.02917912
-0.016931158
0.0070297658
0.03768941
0.05952322
0.050426666
0.00682921
-0.05363884
-0.08171192
-0.07553023
-0.07062019
-0.049520046
-0.0086748935
0.025973832
0.044533208
0.04432863
0.038514387
0.023430457
0.004445875
0.009885767
0.01751007
0.014294325
0.010700923
-0.0062047113
-0.01625136
-0.007984452
0.008528484
0.04491855
0.06577047
0.040479317
0.009431574
-0.016483165
-0.0510491
-0.052562863
-0.0042793276
0.020378668
-0.008586128
-0.034388904
-0.03640241
-0.026191648
-0.007516523
0.013702825
0.033107024
0.014014199
-0.040204644
-0.049847327
-0.007911153
0.030913863
0.047049012
0.04047868
0.026166912
0.011524428
0.0059614824
0.024511037
0.029641591
0.0067656473
-0.0041265604
-0.008392183
-0.0150216315
-0.013211881
-0.026117552
-0.044384386
-0.03738576
-0.025505975
-0.014716171
-0.004632055
-0.018088138
-0.02278715
-4.1927357E-4
0.007901314
0.010291786
0.014809547
6.3251297E-4
-0.00678914
0.0014332442
0.004199118
0.0050747404
0.0070776483
0.0068609053
-6.631373E-4
-0.014808195
-0.015243808
0.020926626
0.083732285
0.1170587
0.09924894
0.051830806
-0.025188707
-0.08600377
-0.07903843
-0.049985167
-0.038804702
-0.030716486
-0.014276184
0.0051873107
0.012465381
0.013743175
0.017445808
0.011604271
-0.0018530637
-0.015989589
-0.027372336
-0.028805949
-0.020336814
-0.00738402
-7.77124E-5
-9.536163E-4
-0.0032610572
-0.006415879
-0.007932638
-0.0042021857
0.003393245
0.012155433
0.020356439
0.025396362
0.020925837
0.010813465
0.0028143083
-0.003712458
-0.0050622206
-0.0030602247
-0.003317644
-0.001774276
0.0015197987
0.004483316
0.005806463
0.0013463841
-0.004522479
-0.00408656
1.486077E-4
0.0021513903
0.004755737
0.009141486
0.010184661
0.011043372
0.011095548
0.004161134
-0.0040546563
-0.009211512
-0.01234182
-0.011756686
-0.008437912
-0.004319586
-7.8907167E-4
0.0022754488
0.004443879
0.002346136
5.1970355E-4
0.002162791
-3.6504323E-4
-0.005235356
-0.0053485604
-0.0033115232
-4.550318E-4
0.0024922597
6.9628167E-4
-0.005967538
-0.011794391
-0.012586018
-0.010114838
-0.0054350193
8.086813E-4
0.0044691777
0.007055965
0.009520705
0.008652087
0.005179684
-1.0336492E-4
-0.002316479
-5.3908635E-4
-0.0017599176
-0.0025543552
4.8092072E-4
0.006309278
0.012784419
0.012585365
0.011853172
0.014955895
0.011847073
0.00420554
-0.0032064945
-0.007948401
-0.00567234
-0.001523237
2.7668322E-4
-3.692625E-4
-0.004722954
-0.008948226
-0.008420242
-0.0060222857
-0.0069215046
-0.00694768
-0.002629879
0.0018614869
0.0060148975
0.006692109
0.0012706025
-0.004847487
-0.009339411
-0.010915305
-0.008185132
-0.0036809559
2.6905047E-5
0.0035406537
0.0091944095
0.01214616
0.008074403
0.002822209
2.5825907E-4
1.5058358E-4
6.9210614E-4
2.2621552E-4
0.0020526038
0.0067396695
0.009981001
0.008772223
0.0029073048
-0.0042406083
-0.0069221775
-0.0052516563
-0.0062053497
-0.0064756055
2.954913E-4
0.006510277
0.009214263
0.010083154
0.0048601506
-0.0018878868
-0.0044765463
-0.0062871706
-0.008496435
-0.009811219
-0.007510664
0.0013480824
0.009774054
0.00852359
0.0015081628
-0.0045996974
-0.008437595
-0.007925372
-0.0049081706
-0.0020047326
0.0014200683
0.0047095483
0.008412364
0.009146283
0.004333898
-2.5554304E-4
-0.0024006614
-0.002298446
-0.0013460077
-0.0024350204
-0.001663329
0.0032615575
0.009065057
0.010383565
0.0046767252
-0.0014362641
-0.0042254
-0.0053750495
-0.0051096645
-0.0034692439
-1.6885984E-4
0.0027730614
0.0064109224
0.009251066
0.004154601
-0.0022478905
-0.004306792
-0.0065137423
-0.0057528084
-0.0026390587
-7.576187E-4
0.0027820694
0.006699926
0.0073706536
0.0030686927
-0.0037594752
-0.0075360974
-0.008302877
-0.007752493
-0.0051114825
-1.7431786E-4
0.005401301
0.008790846
0.009423077
0.005563887
-0.0018476978
-0.004467007
-0.002979792
-0.0030176642
-0.0013776092
5.207365E-4
0.002312961
0.008611514
0.00995013
0.0017866715
-0.0039761486
-0.0047794417
-0.004409344
-0.0026113966
-3.3885014E-4
0.0020019396
0.004532711
0.0071719536
0.008156952
0.0046048397
-6.719373E-4
-0.0036493153
-0.00529688
-0.006291419
-0.0057281796
-0.0038638047
-5.441401E-5
0.004793983
0.005958811
0.0017658992
-0.004718509
-0.007968207
-0.006182676
-0.004698779
-0.0031026232
7.3374837E-4
0.0037455487
0.00775011
0.01080704
0.0073852567
0.0012536679
-0.0027317053
-0.0042481613
-0.0049168863
-0.004996544
-0.003120988
0.001043268
0.007680721
0.012027924
0.0075825737
-0.0021615548
-0.0054773283
-0.0033791494
-0.008350914
-0.009509811
0.001662306
0.006642146
0.006281591
0.0077007953
0.0038952592
-4.440982E-4
-0.0034334438
-0.0054344935
-0.002228339
0.0015158129
0.003294148
0.004299368
0.006792136
0.009198598
0.0038793108
-0.004871282
-0.009683289
-0.011107617
-0.009780677
-0.0065662954
-0.0031715508
-0.0013473267
0.0017929168
0.005994738
0.0050243055
3.123911E-4
-0.0037991807
-0.0041168923
-0.0028193223
-0.0034583537
-3.028245E-4
0.0055440944
0.010756256
0.012764706
0.005014748
-0.002736828
-0.004771165
-0.00639241
-0.003703434
4.4808598E-4
0.003519109
0.006628713
0.006480377
0.0064533213
0.00444225
-0.0023062597
-0.0071462514
-0.0071151103
-0.0033370636
-0.0024726354
-0.0043438375
7.337323E-5
0.006697236
0.007782306
0.003089581
-0.0037255036
-0.008439228
-0.010028871
-0.0072757923
-0.002899108
5.133584E-4
0.005289339
0.010220748
0.013516896
0.01042969
-2.7420724E-4
-0.0073460597
-0.008662995
-0.011026149
-0.012188439
-0.008304004
-0.001403017
0.005435697
0.010878923
0.011313371
0.004918317
-0.002290151
-0.005940126
-0.005942161
-0.0026195638
0.0015860704
0.005774666
0.009682221
0.009282921
0.0045043463
8.0878544E-4
-0.0014848858
-0.0037472043
-0.0032874988
-0.0010106766
5.5550726E-4
0.0021446992
0.004669808
0.006505214
0.0029758662
-0.004421872
-0.009173497
-0.010673284
-0.009511749
-0.0067292065
-0.0045286706
-0.0012864801
0.0023996183
0.0041470975
0.0036895005
-2.305061E-4
-0.004804666
-0.0038360618
4.041751E-4
0.0010797324
5.011215E-4
0.003516334
0.007909818
0.010093241
0.007319967
6.599212E-4
-0.004587985
-0.0064123515
-0.0050599957
-0.0012641012
0.0039431485
0.007126123
0.004909841
0.0045798076
0.0071387426
0.0020917591
-0.005277519
-0.006314334
-0.005509425
-0.0057632783
-0.00639394
-0.0038221653
0.003956089
0.009753088
0.0076875123
4.57035E-4
-0.0051454576
-0.0064961524
-0.0065090572
-0.0058401674
-0.0034388637
4.1240768E-4
0.0043145567
0.0066769905
0.0059310272
8.371617E-4
-0.0031772356
-0.0016524716
-9.178166E-4
-0.003504554
-0.0033472283
6.434288E-4
0.004892109
0.009446098
0.010811688
0.002781331
-0.006322956
-0.008166825
-0.00805645
-0.006445544
-0.0029937464
-4.031621E-4
0.0036289012
0.006883557
0.007058343
0.0049096285
-7.9305586E-4
-0.00458545
-0.003646438
-0.0033375055
-0.0028238697
3.3268396E-5
0.0033079467
0.0055596125
0.004497479
3.506784E-4
-0.0035421317
-0.0053331484
-0.004537918
-0.002605812
-0.0011102644
0.0012681113
0.0058077457
0.009388075
0.0071525364
6.7578396E-4
-0.004174144
-0.004844568
-0.0034566747
-0.003711412
-0.003917514
-9.965886E-4
0.0030431931
0.00620251
0.005133145
-5.018009E-4
-0.0040067215
-0.0044937683
-0.004542418
-0.003479303
-0.0018898053
5.2233355E-4
0.005043101
0.009881372
0.009059538
0.0016892303
-0.0033920687
-0.0038632175
-0.0044088303
-0.005210885
-0.0041862535
-7.665642E-4
0.0029071532
0.005668589
0.0053439694
-1.0027351E-4
-0.005265461
-0.0067336126
-0.0052633113
-0.0027488212
-0.002458874
-9.568052E-4
0.0037002228
0.007465034
0.0076716156
0.0031768891
-0.0012357048
-0.0025061562
-0.0036781384
-0.0037202244
-0.0014682204
0.0019240119
0.007228893
0.012410284
0.009512032
-0.0011918178
-0.007975691
-0.009071988
-0.008079536
-0.004799804
-0.003126246
-0.0015552145
0.0028470438
0.00654261
0.0075566308
0.0039662295
-0.0011697978
-0.0032691327
-0.0049082492
-0.006329955
-0.0054902886
-0.0013991547
0.0051990105
0.008903139
0.006221066
3.519702E-4
-0.003827056
-0.006513638
-0.007833615
-0.0049268124
-6.9311954E-4
0.00206901
0.004989893
0.0075475
0.00740005
0.0025559578
-0.0034404197
-0.0052833394
-0.005330472
-0.0064894957
-0.0053215814
1.05827006E-4
0.005503086
0.009210601
0.010395219
0.0044024037
-0.0045506875
-0.007984742
-0.006314302
-0.0038080036
-0.0022599734
9.637588E-4
0.00532902
0.0070300144
0.0061892355
9.176845E-4
-0.007057257
-0.010548234
-0.010142701
-0.009455976
-0.007996611
-0.0038909006
0.0029792907
0.010218609
0.013691162
0.009191223
0.0027721997
0.002583919
0.0046117236
0.0065755052
0.0072445557
0.004177715
0.003955129
0.0059062
0.0031476198
-0.0030717135
-0.010679085
-0.01415567
-0.011211487
-0.0084480215
-0.0065246085
-0.002715755
0.004066753
0.010543786
0.0100608
0.0056421594
8.1455836E-4
-0.0046034604
-0.006077292
-0.0036690943
-0.0013321076
6.3998456E-4
0.0041414862
0.008627802
0.009060105
0.0028227272
-0.0056274654
-0.0074787145
-0.0028506403
-1.2279877E-4
-3.5039004E-4
-0.004821529
-0.01194017
-0.012201843
-0.006223596
-6.6425983E-4
-0.0010466911
-0.009982164
-0.019038122
-0.017661013
-0.007388395
0.00146847
0.005037875
0.0025242663
0.0010654865
0.014284627
0.028787706
0.03654349
0.050475884
0.06146149
0.06431406
0.054688662
0.020976301
-0.015750304
-0.037446413
-0.049935393
-0.059131823
-0.062344942
-0.04671904
-0.01875035
0.0015614375
0.0016548051
-0.012721264
-0.016278269
-0.011803556
-0.007390902
0.0021256728
0.0024983957
-0.0013457455
-0.005295237
-0.018271973
-0.020213919
-0.009186584
-0.003923508
-0.008218695
-0.0036243005
0.032489967
0.07456453
0.092811726
0.081477135
0.047086496
0.020457296
-0.005923535
-0.027666792
-0.010532545
-0.0061054053
-0.03925487
-0.05138296
-0.03594024
-0.029687405
-0.051636316
-0.06328293
-0.025734933
0.011207619
0.016602635
0.013936297
0.012998567
0.031071646
0.0494974
0.029998532
0.013058394
0.03523945
0.055129644
0.042495165
0.008823072
-0.03517978
-0.06932917
-0.07002713
-0.04065706
0.009097455
0.051632952
0.050446592
0.03117078
0.019295976
-0.007131557
-0.03808903
-0.065981075
-0.10479793
-0.12517521
-0.10245194
-0.05222279
0.0021478941
0.041669495
0.06322787
0.06526455
0.043470398
0.015422513
0.014985628
0.05441257
0.1081978
0.15208897
0.16601647
0.12042023
0.022574093
-0.07562155
-0.12608056
-0.13258734
-0.1144505
-0.052522566
0.019817235
0.04403919
0.057107456
0.06073624
-0.006306172
-0.09559393
-0.12441367
-0.10267827
-0.06869441
-0.048666216
-0.040591758
-0.021267869
-0.0059914356
-0.0012807845
0.014077511
0.03258057
0.060689777
0.09939066
0.12736428
0.14088438
0.103251554
0.024052417
-0.02595344
-0.052414604
-0.053798962
-0.018406814
0.0020876182
6.7896664E-4
-0.0034394003
-0.0088146115
-0.0056198053
-0.0043271543
-0.013938178
-0.03057136
-0.039726138
-0.03403075
-0.034160253
-0.034673136
-0.028801067
-0.025993919
-0.018106548
-0.009506043
0.011054388
0.052172974
0.079684846
0.08022262
0.050255824
-0.005488306
-0.050807178
-0.065257594
-0.041413937
-0.003926294
0.0046850704
0.013475792
0.04505192
0.054289605
0.047598056
0.05539188
0.030469595
-0.041385088
-0.08746274
-0.0802081
-0.049647894
-0.015592294
0.0043074433
0.0077136243
0.008971736
0.013950568
0.025841556
0.035273194
0.04223418
0.05203205
0.031171001
-0.011846908
-0.025761895
-0.0241187
-0.029761236
-0.039272428
-0.046877984
-0.031175792
-0.0066686333
0.009765647
0.033351324
0.04662099
0.04347078
0.03278942
0.0016957906
-0.03023752
-0.038397193
-0.027167412
-0.013104983
-0.013974951
-0.014144392
-0.0014307551
0.010586371
0.02244758
0.026403824
0.015169851
0.0049274787
-0.001799931
-0.0089113675
-0.006359058
0.002841535
0.0042118267
0.0029121123
0.0064934585
0.005839571
2.0516671E-4
-0.0042100963
-0.005727286
-0.0040917653
-0.0039400742
-0.004373947
-0.0026953793
3.3274846E-5
0.005529747
0.008074251
0.0034110178
-0.0025061239
-0.0044464767
-0.0010956076
0.001611695
0.001283385
0.0018709938
0.003347394
0.006272574
0.0057824673
-0.0011064811
-0.0051998803
-0.0049477434
-0.005168215
-0.0071319793
-0.00923002
-0.0054157376
0.0029342903
0.0092463065
0.009494975
0.0012256558
-0.007212429
-0.010563857
-0.011365146
-0.0057526617
1.2953598E-4
2.4635674E-4
0.003253661
0.0070403023
0.005549363
8.3628204E-4
-0.0045800335
-0.0046453383
-0.0019543027
-0.0042959526
-0.0048708906
0.0027242657
0.012741571
0.018668866
0.016500618
0.004785759
-0.008303896
-0.011584394
-0.0074477345
-0.00315825
6.7388825E-4
0.0045024715
0.008235533
0.010501364
0.010844576
0.0063558198
-0.0059177466
-0.013549533
-0.008957415
-0.0041061435
-0.004453192
-0.003804672
0.001551221
0.0052121277
5.63861E-4
-0.005958792
-0.009435408
-0.010839133
-0.008954612
-0.0041419067
3.6202098E-4
4.831418E-4
0.0025773935
0.011464907
0.014122174
0.009144554
0.007067802
0.0059953863
0.002500337
-0.0015688167
-0.002173766
8.806066E-4
0.004182695
0.0084095355
0.008380019
2.9040463E-4
-0.008176456
-0.012290875
-0.011368457
-0.008161635
-0.0056450493
-0.0011870305
0.0029208462
0.0037592498
0.00340267
0.0010967017
-0.0032622789
-0.0058644195
-0.00478023
-0.00432988
-0.0053646467
-0.002772779
0.0027596678
0.01012569
0.014216765
0.008347859
0.0027258305
8.915569E-4
-0.004764538
-0.007033776
-0.0027766945
0.0014608782
0.005080785
0.005878886
0.003258783
2.9606174E-4
-0.003572907
-0.006698594
-0.005928821
-0.0040492155
-0.0035341233
-9.61069E-4
0.005086322
0.011319019
0.012373681
0.0049393135
-0.004340646
-0.009451229
-0.010417662
-0.0066519114
-0.0039255796
-0.0016754362
0.0058960104
0.009814019
0.008467954
0.006386893
-9.318227E-4
-0.0075426428
-0.008453652
-0.008795676
-0.008081866
-0.003979026
0.0036585396
0.010877722
0.013165809
0.009969484
0.0016110324
-0.0059724483
-0.0076414077
-0.0039253538
0.0011446445
0.0021662642
0.005358234
0.01205607
0.010997753
0.0036420077
-0.003490104
-0.0065397895
-0.0059108096
-0.007840223
-0.006252081
1.3574553E-4
0.0019742483
0.0026081335
0.0030741654
-5.466574E-4
-0.0060129347
-0.010207865
-0.010158427
-0.007573764
-0.0041846023
9.992547E-5
0.00545565
0.013400857
0.014905193
0.006362803
-0.0013219969
-0.004818062
-0.0037830698
-0.0015417747
-0.002685548
-6.095911E-4
0.0055367495
0.010766889
0.012011377
0.006821286
3.3879434E-4
-0.003637687
-0.0050334577
-0.0046362616
-0.005009822
-0.0030678452
0.0012257172
0.0044545834
0.0063384245
0.0030483678
-0.0038139045
-0.006899429
-0.005222441
-0.0029452736
-0.0027483753
-9.120659E-4
0.0028421772
0.0053082155
0.0067452234
0.003444243
-0.003114368
-0.0076399925
-0.010366899
-0.008035851
-0.0036801177
-0.0017308509
0.0038205415
0.00992469
0.010154399
0.0062875994
1.4501338E-6
-0.0038520743
-0.0029489796
-0.0016667127
-8.3613367E-4
7.8447827E-4
0.003939791
0.008012122
0.007519576
0.0010453123
-0.0050403383
-0.0077092103
-0.0073000425
-0.0038787527
-7.2350976E-4
7.3536666E-4
0.0026918075
0.004794105
0.0062030586
0.006498489
0.0028060775
-0.004507475
-0.007863306
-0.0048868465
-0.002812634
-0.0022227557
0.0017328808
0.0067486167
0.0080808615
0.004124366
-0.0021097385
-0.005225219
-0.0050796587
-0.004842073
-0.0033995395
7.356818E-4
0.003680905
0.0043797437
0.005132052
0.0037066943
-6.651266E-6
-0.0029698191
-0.0043890816
-0.0048265588
-0.005976159
-0.0051070405
7.011628E-4
0.006791047
0.010148802
0.009477901
0.002259907
-0.0057228087
-0.008220779
-0.008992491
-0.0076567153
-0.0011854206
0.004026967
0.0063685286
0.00806855
0.0059037083
0.0018822853
-1.593863E-4
-7.8379066E-4
-0.0034989864
-0.006456356
-0.0020289733
0.002817712
0.0038266054
0.0063405307
0.002441237
-0.0053662136
-0.00865327
-0.0098731555
-0.0054712966
-4.7791033E-4
6.3893205E-4
0.004486578
0.008120941
0.009885305
0.007489883
-5.148645E-4
-0.004987215
-0.0053007775
-0.004458215
-0.0028039142
-0.0013432219
0.001955324
0.0053522084
0.00725621
0.0051344004
-0.0015145028
-0.005730513
-0.0075259213
-0.0064244173
-0.0026248656
-0.0013437462
0.0018937069
0.0046556755
0.003125345
0.004495436
0.0032271447
-0.0030903497
-0.00481427
-0.0043915818
-0.004770377
-0.0013213619
0.004227999
0.006890514
0.006786228
0.0046266997
-5.765354E-4
-0.0045231218
-0.0042607216
-0.004270158
-0.0028744624
0.0019643286
0.004081752
0.0055414503
0.0083784275
0.0063142297
0.001556983
-0.0039243684
-0.009367014
-0.009134425
-0.0076335613
-0.006412914
-0.0010107838
0.0049134744
0.009609588
0.009486637
0.0023202372
-0.0042208205
-0.0063654394
-0.005565781
-0.0045321775
-0.0020981585
0.002226195
0.0030261716
0.005021245
0.007885027
0.002258804
-0.0038287528
-0.003922895
-0.0036880113
-0.0036879098
-0.0015119213
0.0032925943
0.0073055946
0.0083198855
0.006555591
0.0012481557
-0.0038491979
-0.004485554
-0.0017085372
-8.658299E-4
-0.0030658424
-0.0011449314
0.004000677
0.0061444407
0.0043488014
-0.002402158
-0.009529391
-0.012025552
-0.013053529
-0.013028646
-0.009790684
-0.0043854066
0.002668902
0.009385409
0.010766332
0.007439988
0.003962811
0.0014099174
0.0019773534
0.005222898
0.006979296
0.008567327
0.011026264
0.011361248
0.007415617
2.6592266E-4
-0.0060245357
-0.009110473
-0.008996014
-0.007916687
-0.007386729
-0.0055428166
-8.355462E-4
0.0056980564
0.0054331752
-0.0021978363
-0.0053597675
-0.005570072
-0.004046663
0.0028186014
0.006414306
0.006315151
0.0079406705
0.011603743
0.019094529
0.021972932
0.015999446
0.010576541
0.0074097463
0.0053131147
-0.002019997
-0.017649474
-0.022880614
-0.016306845
-0.015864406
-0.021998566
-0.030389123
-0.03575223
-0.0333702
-0.02801464
-0.022585427
-0.019596605
-0.01707448
-0.005340607
0.016459247
0.032199606
0.03214702
0.038241044
0.0606442
0.07165084
0.05449084
0.033346076
0.037827417
0.034546297
-0.0051455293
-0.027284738
-0.017700713
-0.02327885
-0.0534504
-0.074066676
-0.050731175
-0.017328368
-0.008526201
0.0016973767
-2.6945156E-4
-0.024813838
-0.034998808
-0.025397131
-0.012528686
-0.0028425253
0.009942985
0.013506813
0.003305172
0.019949842
0.05243653
0.072066
0.10120143
0.121118546
0.08582162
0.006551672
-0.0502761
-0.048315812
-0.020493645
0.0034845457
0.003389589
-0.028748516
-0.067509405
-0.08459987
-0.06901189
-0.0623715
-0.079018086
-0.06675229
-0.036301535
-0.0169279
-0.0043154033
-0.008785908
-0.01661503
-0.0144601185
-0.008180617
0.009637369
0.047993015
0.10168946
0.12855855
0.11765588
0.11117689
0.092942975
0.040303368
9.3866745E-4
-0.0084984
-0.023011245
-0.04389619
-0.051292945
-0.031471312
0.022788882
0.05917351
0.038526174
0.003136073
-0.038902897
-0.08407894
-0.09292236
-0.082757995
-0.06931445
-0.0421843
-0.015634738
-7.1611936E-4
-0.0038192933
-0.00951093
-0.0061335284
-0.009918511
-0.009061223
-0.0038955049
-0.0011197774
0.018201387
0.03381342
0.03729212
0.042603638
0.037218384
0.041030575
0.05040827
0.025915276
-0.0014605699
-0.009919352
-0.022903763
-0.02441524
-0.008811994
-0.0031445872
0.0017847747
0.024623215
0.039992988
0.02980786
0.0151221445
-0.0014261389
-0.027626729
-0.039964043
-0.022985479
4.7886238E-4
0.0010996733
-0.015529753
-0.024306618
-0.025989564
-0.027388554
-0.016558694
0.004775628
0.014865049
0.013794928
0.018330593
0.016087016
9.3845185E-4
-2.4749307E-4
0.0063688713
-0.002108597
-0.012269537
-0.012419137
-0.0048297034
0.005474647
0.006766203
0.0016665084
-0.0014081341
-0.0044091456
-0.0048344526
-0.0011938653
0.0022933816
0.0064562624
0.011258348
0.011620131
0.007514717
0.0029805861
-0.0014434161
-0.004081987
-0.0024874408
3.207781E-4
0.0027133944
0.009338996
0.018647686
0.019171994
0.008656533
-0.004362253
-0.014094833
-0.015465481
-0.010229449
-0.005851174
-0.0015368302
0.0026269006
0.0037272777
0.002802781
-8.419355E-4
-0.0064194268
-0.0100865215
-0.009129712
-0.0062609953
-0.0063028983
-0.004968587
-3.452902E-4
0.0050017317
0.010540774
0.007714866
-1.7301274E-4
-0.0011706849
-0.0020383117
-0.0047267284
-0.0041934694
-0.0015189246
0.0049307006
0.010330824
0.011889563
0.009990905
-9.841341E-6
-0.0076538054
-0.0064378423
-0.0059301
-0.005083033
-0.0019250556
0.00148676
0.0060121883
0.0065854634
0.0011615042
-0.004946629
-0.007189006
-0.0052544894
-0.004470733
-0.0045443936
-2.2232038E-4
0.0054894
0.009196853
0.012075038
0.011667605
0.0058742375
-3.3312503E-4
-0.0016916802
-0.0013411543
-0.0033499897
-0.0047933143
-0.0032566602
0.0011878618
0.0064332103
0.0062963045
-4.1911477E-4
-0.0074493503
-0.009726019
-0.008028212
-0.006314439
-0.0056430404
-0.003618024
0.0021662014
0.0067735207
0.0037331495
-0.00112975
-0.00329698
-0.005005873
-0.0060015563
-0.0074402825
-0.006090612
7.155492E-4
0.007928852
0.012569099
0.01120273
0.0062766587
0.003013423
-0.0026570112
-0.007505592
-0.0065076277
-0.0033156977
0.00206121
0.007982714
0.010298432
0.008535087
0.0030661412
-0.0029344978
-0.0047339173
-0.0043891263
-0.006981406
-0.0077032973
-0.0034916804
0.0012967441
0.007379198
0.0089470735
0.0021752107
-0.0032063855
-0.0059955777
-0.0069181826
-0.004277889
-0.0034124656
-0.0022692662
0.0028628826
0.0072491406
0.006959176
0.0023043184
-0.0016852256
-0.0031884701
-0.005536505
-0.0068527567
-0.0045057796
-1.8540317E-5
0.006137558
0.01037759
0.0071257195
-7.3103154E-5
-0.004623604
-0.0055902787
-0.0057567754
-0.007029868
-0.0052904524
-2.8190474E-4
0.0041261255
0.0094564995
0.010871306
0.005035011
-5.346457E-4
-0.0033752818
-0.0030864456
-0.0010385824
-0.0021236301
-0.0023898273
0.0016538094
0.0048340256
0.0035697208
-3.7401903E-4
-0.0043197772
-0.0064977934
-0.004764976
-0.0016550823
-8.0024236E-4
5.0540455E-4
0.004153009
0.0075653647
0.005969115
-3.6361613E-5
-0.0038487925
-0.00453003
-0.0039747697
-0.0046173674
-0.0052018147
3.0850287E-4
0.0062962286
0.007357181
0.006201109
0.0019295443
-0.0014270091
-0.0031813674
-0.006518816
-0.005488891
-7.751055E-4
0.0030720173
0.0056742737
0.005238458
0.0038072597
4.219386E-4
-0.0048394077
-0.00539085
-0.0037357558
-0.002917313
-7.1057247E-4
0.0012295294
0.0033062843
0.006184871
0.0070705544
0.0033693688
-0.0034856407
-0.008039915
-0.0093101645
-0.0074286633
-0.0031031047
9.883731E-4
0.0075107287
0.009900957
0.0032672305
0.0016663648
0.0030791545
-0.0022611285
-0.005065636
-0.0034377868
-0.002047278
8.886033E-4
0.0050037955
0.008531995
0.007352249
0.0014545966
-0.003781998
-0.0068782866
-0.007051353
-0.0063550165
-0.0061094686
-0.0029227948
0.0015960259
0.0056615183
0.008023348
0.004483932
-0.0014566074
-0.003864685
-0.0038494852
-0.0031040325
-0.0021024235
-5.0740194E-4
0.0039327927
0.008227419
0.007031473
0.0023176405
-0.003703523
-0.008526125
-0.007188913
-0.0035717129
-0.0014850624
0.0015802965
0.0045771464
0.007564449
0.0089883935
0.0044496832
-0.0024281305
-0.0061779195
-0.0056432984
-0.0036798327
-0.0040125553
-0.0029037022
0.0022531152
0.0062342724
0.0052361293
5.164958E-4
-0.003088734
-0.0042085974
-0.0048328694
-0.0028866678
2.4338846E-5
0.0014170577
0.0047062356
0.0076087588
0.0067348992
0.0029787414
-0.0031013512
-0.0063635507
-0.005690322
-0.0043035876
-0.0015674229
-6.763327E-5
0.0018208463
0.006026708
0.0056780674
0.0012462782
-0.0032929585
-0.0064216685
-0.0066000232
-0.006904877
-0.005738279
-0.001628347
0.0031795169
0.008687189
0.008388065
0.0028471493
-4.28406E-5
-0.0024526971
-0.004070229
-0.0031786868
-0.0016357468
2.655568E-4
0.0024087506
0.0071489057
0.008786322
0.0022702303
-0.0029184725
-0.0040501296
-0.0049627186
-0.0054573324
-0.0043609194
5.2794715E-4
0.005070629
0.006104905
0.0060192253
0.0023635472
-0.0032404705
-0.005268179
-0.0050666723