-0.0063639684
-0.0049499967
-0.0036856586
-9.587258E-4
0.0031804563
0.007045984
0.010487956
0.010329995
0.0052883546
-3.989706E-4
-0.002772124
-0.0027489245
-0.0025862223
-0.002570982
-0.0017690769
0.002564374
0.00755145
0.006408978
8.822481E-4
-0.0046389806
-0.007584653
-0.0070670554
-0.0059175584
-0.003735936
8.298694E-5
0.0032412442
0.0057031084
0.006488703
0.0030978052
-0.003536887
-0.0065011764
-0.0039909133
-0.0039004253
-0.005018813
-0.0016478873
0.003397723
0.007327486
0.0070034233
0.001471312
-0.004617087
-0.008882679
-0.009383843
-0.005332061
-0.0014092794
8.4710494E-4
0.0051579527
0.009242735
0.0077635334
0.0021627792
-0.0029271622
-0.0032280397
-6.1139686E-4
-6.6030654E-4
-6.254095E-4
0.002346593
0.006966612
0.010976505
0.009255571
0.003015546
-0.0029514818
-0.006660429
-0.007454646
-0.006621663
-0.003022521
0.0012348017
0.0047113486
0.00933782
0.007962308
5.881247E-4
-0.0046593356
-0.007434476
-0.006625985
-0.0044998783
-0.0042214724
-0.0027301954
8.770083E-4
0.005956386
0.0069409884
0.0010187207
-0.0051185987
-0.009939262
-0.011946218
-0.0068253474
-1.0919633E-4
0.0018291
0.0037367826
0.0082745515
0.008382748
0.0029690163
-0.0026234682
-0.005052181
-0.0044508
-0.004361608
-0.001879136
0.0027751192
0.004850478
0.008954112
0.010444084
0.0038188065
-0.0019441071
-0.004536027
-0.005395959
-0.004916007
-0.0032119153
0.0018631067
0.0058468967
0.007918757
0.008920396
0.0041057486
-0.0029977746
-0.00705755
-0.007324668
-0.004766083
-0.0036369928
-0.003869349
-4.7068574E-4
0.0070104697
0.010165126
0.004626251
-0.0026724155
-0.0074426243
-0.0081018945
-0.0057795756
-0.0054416247
-0.0029913709
0.004546572
0.009403939
0.008322799
0.0039274767
-0.0024089243
-0.007017368
-0.0070209536
-0.00572825
-0.003966596
-2.0921082E-4
0.0038633624
0.008621979
0.011035798
0.0062736804
-0.001808373
-0.00734158
-0.007834889
-0.005311267
-0.0031311896
2.7693475E-5
0.0045696115
0.008216124
0.009354572
0.007146441
0.0012725301
-0.004456057
-0.0038576988
-0.002011346
-0.0034810323
-0.0015653041
0.0020830687
0.0044494737
0.0063564293
0.0020426968
-0.004629027
-0.0072342306
-0.010059932
-0.009445717
-0.0033627267
-3.005286E-4
0.0026035616
0.008683658
0.009578941
0.0050556436
-3.334736E-4
-0.0054126945
-0.0066474355
-0.0051276456
-0.0028553493
7.418887E-4
0.0039304746
0.00815944
0.009580256
0.003611853
-0.0014053266
-0.0037496223
-0.007108512
-0.006852549
-0.0034562424
-1.4228016E-4
0.004456852
0.009336976
0.0115490835
0.008087802
3.848298E-4
-0.0044153305
-0.0059324685
-0.0073812134
-0.0055340114
-0.0020501597
7.027914E-4
0.0066058296
0.009801859
0.0051895855
-0.0023586631
-0.009308948
-0.010262429
-0.006612079
-0.004267626
-0.0010492211
0.0024219267
0.0060692276
0.008563259
0.004466892
-0.0013631078
-0.004419521
-0.0057282057
-0.005970238
-0.005519122
-0.0015841151
0.0029587669
0.0069416612
0.0116058225
0.008870428
2.4488295E-4
-0.0058884732
-0.007804146
-0.0056223464
-0.003481798
-0.0012517119
0.003661495
0.00934913
0.012471101
0.007865278
5.7767542E-5
-0.0045011514
-0.0069153984
-0.0052869897
-0.002761604
-0.0019052735
0.0012492028
0.0056916247
0.008765361
0.0056031873
-0.0029275632
-0.007822892
-0.0093666725
-0.009745163
-0.0070171156
-0.0027733338
0.001392908
0.0054577473
0.008131714
0.0064673433
7.326583E-4
-0.0051049595
-0.0068747024
-0.0044939807
-0.0038081952
-0.0026958247
0.0028946877
0.006963542
0.00848066
0.0068773837
1.5200091E-4
-0.0048059206
-0.0059304684
-0.005811829
-0.0037893637
-8.110762E-4
0.003561312
0.009180915
0.0115089435
0.008352249
0.0021877852
-0.004071214
-0.00723765
-0.0067124674
-0.006215085
-0.0047248546
7.799435E-5
0.005936838
0.010066303
0.007923007
2.727507E-4
-0.0063075377
-0.008190575
-0.006243587
-0.005698055
-0.004129774
7.816518E-4
0.0027845614
0.0059570163
0.00832231
0.0012473529
-0.0042970665
-0.0035434745
-0.0050469516
-0.0063319397
-0.0027400318
0.003182981
0.007805547
0.009559047
0.006842021
-6.8115776E-5
-0.0059366953
-0.007813356
-0.0072497046
-0.005814514
-0.003039295
0.0018823849
0.006336055
0.00865368
0.0076631755
0.0014523849
-0.0042927787
-0.0043231244
-0.0025756615
-0.0016691741
-0.0010252831
3.6874422E-4
0.00511602
0.008909653
0.005426568
-3.1217272E-4
-0.004082934
-0.0075399512
-0.008037836
-0.0045530363
-6.283549E-4
0.0019508366
0.0053628753
0.009572385
0.007729349
2.367789E-4
-0.0044598635
-0.005353847
-0.0053049205
-0.004685894
-0.0033690662
-7.939618E-4
0.003938311
0.0073847855
0.0050787595
0.0013232012
-0.002547643
-0.008554874
-0.009905955
-0.0065630577
-0.002767934
0.0032277326
0.007837175
0.008394348
0.0064603463
0.0017237325
-0.0037713193
-0.0059740418
-0.0040873573
-0.002287536
-0.0012627789
0.0014019492
0.005096628
0.0090020755
0.007756059
0.0013652971
-0.0035155045
-0.0076174256
-0.006577839
-8.61113E-4
-0.001015811
-7.858692E-4
0.0059358035
0.011016113
0.009198731
9.732565E-4
-0.005822243
-0.0069705183
-0.0078019225
-0.007857196
-0.005150432
-0.0011947849
0.004226705
0.0076703974
0.0060823136
0.0018356153
-0.0036246523
-0.007664092
-0.008647349
-0.0075190575
-0.0024076505
0.0030051714
0.00603755
0.010049285
0.008924564
0.002704771
-3.4946884E-4
-0.0032489253
-0.0052599944
-0.0036166443
-0.002311961
1.2107843E-5
0.00485006
0.008865329
0.007679144
0.0012737201
-0.0049044196
-0.008515577
-0.0089919185
-0.0066253403
-0.0034099987
2.8275704E-4
0.0042765155
0.0078124944
0.0072703436
0.0018401601
-0.0035933335
-0.006602005
-0.0062970943
-0.003854933
-0.0014841559
7.4337766E-4
0.004255465
0.009199041
0.008426324
0.00265654
-7.2646356E-4
-0.005310481
-0.0077353674
-0.0033545797
-1.1971033E-4
0.0019149666
0.0067682588
0.009983629
0.005861768
-0.0019070981
-0.0053934874
-0.0059598796
-0.0054324474
-0.004291416
-0.0039207363
-0.0014167576
0.0026138807
0.006540089
0.006474566
-3.243498E-4
-0.0053844564
-0.006539699
-0.006725035
-0.00578384
-0.0055552884
-0.0020055627
0.0043655257
0.007833301
0.009976812
0.007960309
0.0010795672
-0.003313656
-0.004192858
-0.0030580289
-0.0015517209
-0.0017308926
0.0015929487
0.008084547
0.007874463
0.0025264951
-0.0026811825
-0.008264671
-0.009251146
-0.0063574235
-0.003962768
9.4889395E-4
0.005833075
0.007814919
0.007337998
0.0024138298
-0.0031687445
-0.004893408
-0.0040124026
-0.004317333
-0.0055575473
-0.0023335756
0.0038074323
0.009310349
0.011113161
0.0042299777
-0.00368371
-0.0057358486
-0.006734598
-0.0062381765
-0.0038320557
-0.0020538047
0.0016888723
0.008002448
0.010950812
0.005484646
-0.0022761824
-0.0051247664
-0.0058424925
-0.0037738553
6.432035E-4
-3.7792386E-4
-0.0019061376
0.0057387766
0.01296831
0.0055781077
-0.009484488
-0.01653656
-0.01654981
-0.013958968
-0.005107672
0.0048618712
0.009608592
0.011908913
0.010532585
0.0036662885
-0.0031621712
-0.0044602198
-0.0024428696
-0.0029863052
-0.0038273383
-5.818759E-4
0.004149612
0.0083849635
0.009938743
0.0045267176
-0.0032026486
-0.0033068294
7.213916E-4
-0.0012333707
-0.005899677
-0.00667489
-0.0035728633
0.0030144297
0.00847316
0.006897104
-5.4955186E-4
-0.00678623
-0.0071059363
-0.0071556214
-0.008677199
-0.0057471055
-0.0012144211
0.0030854556
0.007447616
0.0060345316
0.0047680982
0.008496612
0.0027369908
-0.010627454
-0.010825895
3.112795E-4
0.008824206
0.0131842205
0.011151194
4.1674305E-4
-0.010312693
-0.012377862
-0.00619923
-3.3648618E-4
-0.0027145925
-0.00544365
0.0017696964
0.0087955175
0.003896709
-0.005589787
-0.009840669
-0.010832018
-0.010843463
-0.006802927
-0.0030196148
-0.0019522321
0.004457988
0.01136854
0.009159624
0.0025408145
-5.162047E-4
0.002956515
0.002584968
-0.0029855475
0.0033279902
0.011318897
0.006176277
0.0023189532
0.0042694444
0.005609886
0.003430512
-0.0022194418
-0.0016896023
7.78886E-4
-0.006917548
-0.0116856685
0.0013457993
0.01614488
0.0092336675
-0.007604172
-0.010310386
-0.009485159
-0.014188505
-0.007136018
0.0031085105
-0.0032861286
-0.0069285613
0.0026932985
0.00519294
0.0011649666
-8.001207E-4
-0.0042212415
-0.0046272124
-0.0023383289
-9.972377E-4
0.0032728864
0.005895153
0.0057164957
0.009844919
0.011106348
0.0028613335
-0.0040197675
-0.003365709
-0.0016599955
-0.0032003627
-0.0053372765
-0.002259091
0.004535745
0.0071729026
0.0045836954
-0.0010914436
-0.0073580532
-0.010513343
-0.010672046
-0.007957226
-0.003931697
0.0014152477
0.011576784
0.017423095
0.010518907
0.0014461495
-4.8712073E-4
0.0010111547
2.15501E-4
-0.0020909295
-0.0044131204
-0.0059714257
0.0012572093
0.015402213
0.018178353
0.0033737952
-0.012023718
-0.009730675
-0.0019508682
-0.009086631
-0.015159007
-0.00773309
-0.0010730479
0.0033714413
0.0038299712
-0.0034281297
-0.005281334
-0.003138424
-0.0020309975
0.0031847903
0.0042451853
0.006908266
0.01616638
0.009403271
-0.0053838124
-0.006803584
-0.007213613
-0.010140119
-0.005946349
5.4776616E-4
0.0029423446
0.0053741634
0.014229333
0.022613512
0.015171898
-0.007889508
-0.020420551
-0.010932659
-0.0055780616
-0.0068768677
-3.0639756E-4
0.0026820807
0.008160936
0.016411327
0.0024438996
-0.014926866
-0.012010649
-0.009899948
-0.014038361
-0.0088720955
4.3855017E-4
0.008195386
0.019552436
0.02478846
0.0156114055
0.0011465257
-0.008246628
-0.008125461
-0.008667286
-0.01243459
-0.008455614
-0.0049010096
-0.0022174993
0.00863228
0.014511161
0.009117323
0.0067388695
0.014936408
0.011374027
-0.015703332
-0.031081803
-0.019648185
-0.0011053148
0.009852128
0.004428225
-0.004747855
-0.0046425434
-0.0023114416
-0.0011254667
-3.4067908E-4
0.0016954998
0.0032331527
0.0069723465
0.014449273
0.009634238
-0.0013769486
-0.004171472
-0.0060144495
-0.0023497427
0.0024816205
-0.0041180034
-0.0089199925
-0.0034848808
0.004578927
0.005236337
-0.0022051502
-0.0048417994
-0.0031033095
-0.0032853084
6.2215026E-5
0.002502862
-4.440435E-4
0.007555022
0.022838984
0.015603488
-0.005792605
-0.015990436
-0.020460729
-0.01981295
-0.00933029
0.0052567334
0.018180832
0.021793619
0.024306748
0.025568461
0.003861699
-0.023471592
-0.02608794
-0.015381053
-0.00998378
-0.010261478
-0.007902212
2.0129223E-4
0.0082617365
0.009971772
0.00489069
-7.942896E-4
-0.0072635827
-0.010598022
-0.002979726
8.0878416E-4
-9.6251775E-4
0.0048504523
0.009260138
0.015009496
0.02305935
0.018040797
0.0062079458
-0.00952727
-0.021265207
-0.011349804
0.0018248413
0.007081057
0.010717284
0.0046467697
-0.002437881
-0.005580612
-0.014772323
-0.01909689
-0.008491011
0.007892068
0.017986042
0.0195476
0.016228791
0.009945146
0.003836273
-0.00538169
-0.0133687835
-0.010750115
-0.009314692
-0.008414532
-0.0019195825
-0.004402269
-0.008938232
-0.0036955138
0.0010847145
3.4136526E-4
-0.0038731883
-0.007283548
-0.0093570035
-0.008576947
-0.0019087425
-0.0011975048
-0.004615191
-0.0017921603
-0.0038692937
-0.010450811
-0.012343825
-0.009180973
0.006398982
0.026248747
0.028558845
0.02052201
0.02463557
0.03576976
0.026939142
-0.0014706735
-0.0096742045
0.016432386
0.035028107
0.019563077
-0.004088075
-0.01350546
-0.015310876
-0.015374775
-0.013107886
-0.011519767
-0.010515982
-0.008763623
-0.008201867
-0.0057616
-9.904049E-4
0.003078678
0.010034104
0.009839269
-0.009485849
-0.027511215
-0.029658755
-0.02870185
-0.025792092
-0.019588634
-0.0132638225
7.62017E-4
0.0091354335
0.0053276913
0.012997375
0.015070725
-0.0034447869
-0.01269085
-0.01533689
-0.012509718
0.007961043
0.018679673
0.019398343
0.027758896
0.029149054
0.02325329
0.010786111
-0.0074272505
-0.006900239
0.011071929
0.023372281
0.020451803
0.013283759
0.028422035
0.049908612
0.04394461
0.031241855
0.026484018
0.012786169
-0.0138382455
-0.040028885
-0.042862568
-0.03415412
-0.03546536
-0.042356815
-0.06859867
-0.09141837
-0.077845015
-0.06191756
-0.045380242
-0.012654992
0.01303841
0.031824067
0.04850835
0.044894118
0.0069235046
-0.02944248
-0.029478405
-0.032646496
-0.031549655
0.004821473
0.04177058
0.07557919
0.09273816
0.07867514
0.06878425
0.052439407
0.033000115
0.038700767
0.05760604
0.081411
0.0807726
0.049858276
0.021885721
-0.0030103312
-0.019778289
-0.039050594
-0.07171923
-0.094110966
-0.11115414
-0.11459048
-0.09576429
-0.07843455
-0.060867015
-0.052456133
-0.056045663
-0.045584157
-0.025314597
-0.0060939393
0.0048898417
0.009265953
0.028909734
0.05923399
0.07262731
0.06050321
0.0457752
0.039827004
0.02573372
0.013593119
0.02151085
0.033020943
0.037994795
0.049380656
0.05271693
0.034116376
0.009480519
-0.0528592
-0.12653892
-0.110952504
-0.058190998
-0.033233408
-0.008693374
-0.012013839
-0.015588929
0.03060138
0.08552178
0.11971991
0.110966854
0.070832424
0.067243256
0.1024227
0.08677997
-0.015481026
-0.07777965
-0.03581576
-0.014219634
-0.0723689
-0.1392692
-0.13972339
-0.09017146
-0.06953002
-0.04876547
0.010155199
0.046623193
0.05153483
0.030450914
-0.049578935
-0.13799809
-0.14635186
-0.07571748
0.013403526
0.07222621
0.10553578
0.1562113
0.19147336
0.14936316
0.096106425
0.09574849
0.06863285
-0.028935716
-0.107611716
-0.11407539
-0.08706146
-0.07464371
-0.10416249
-0.12917678
-0.1046926
-0.087520495
-0.073491685
0.005485608
0.105817944
0.1575293
0.18524417
0.20583993
0.15231341
0.039906446
-0.034013696
-0.101081304
-0.17301342
-0.14311223
-0.041600283
0.02371061
0.0885701
0.15518199
0.099066205
-0.030536504
-0.078981526
-0.08000629
-0.06920066
-0.016333822
0.027728463
0.03214594
-0.01870073
-0.12609033
-0.16107838
-0.039303634
0.09215455
0.11258809
0.14087853
0.19049796
0.10368219
-0.0027298992
0.04983468
0.06647493
-0.08927118
-0.18208021
-0.1266739
-0.10682172
-0.11997502
-0.071182474
-0.013134823
-0.0063214814
-0.033668146
-0.036194973
-0.03198173
-0.047820862
-0.009834226
0.05960355
0.091258645
0.080498874
0.012866238
-0.034371834
0.02837872
0.13726644
0.18049066
0.15367524
0.11080006
-4.1953544E-4
-0.14123513
-0.12620945
-0.008253436
0.05186924
0.07846715
0.0749164
-0.026394008
-0.15573725
-0.1899036
-0.12621662
0.0013640105
0.111447096
0.10098934
0.053947747
0.053783096
0.024153287
-0.02415833
-0.0024212534
0.04466706
0.0047848728
-0.08268499
-0.10530458
-0.07152429
-0.023789985
0.005297732
-0.0036227016
-0.011436981
-0.0066407593
-0.0052280994
-0.009956645
-0.015447002
-0.023117676
-0.042261567
-0.042588577
-0.040148
-0.043472223
0.0028993676
0.046322886
0.08083963
0.15926126
0.18756987
0.14001486
0.070213675
-0.0098821735
-0.03855352
-0.01853924
-0.02400225
-0.056112863
-0.07231153
-0.057734527
-0.043701965
-0.038667217
-0.028659882
-0.024596846
-0.016355375
-0.0016821824
-0.0013084663
-0.007272146
-0.0058788257
0.0010400007
0.0061444566
0.006064596
0.0034235234
0.0056530917
0.018318342
0.028416015
0.028059162
0.02198981
0.011627312
0.0056829755
0.0030142008
9.031258E-4
0.007736737
0.013258503
0.013458503
0.011894243
-0.005712887
-0.028415848
-0.032280255
-0.026306126
-0.022791581
-0.019978551
-0.017613828
-0.011950024
5.940841E-4
0.012124998
0.015992109
0.013481863
0.004275372
-0.0045976406
-9.609536E-4
0.009876131
0.017223075
0.021495244
0.018476505
0.00365078
-0.01092055
-0.016163504
-0.019069094
-0.020047624
-0.015466198
-0.01146383
-0.00343732
0.015143052
0.032667123
0.041223794
0.032167014
9.785953E-4
-0.024626387
-0.027415164
-0.021585338
-0.014188139
-0.007604652
-0.0026518165
0.003946726
0.0068635955
0.0032721213
-0.0025196457
-0.002619118
0.0070663635
0.016637154
0.022402884
0.022278164
0.0032150429
-0.021127583
-0.022355843
-0.010439424
-0.007380428
-0.0029955264
0.012731546
0.023713892
0.028566703
0.030669298
0.0059149438
-0.028391246
-0.022937119
0.0015985536
0.0064827665
1.9585283E-4
-0.010571363
-0.02256879
-0.024624461
-0.017393034
-0.0054912604
0.007252
0.016066954
0.015637405
0.005523039
-0.0055216076
-0.013195075
-0.014023759
-0.006146638
1.5627364E-4
0.002945955
0.008736714
0.013231975
0.011872112
0.007818603
0.003034251
-8.605823E-4
-0.0013127474
-0.0013111539
-9.895461E-4
0.002763249
0.006708549
0.010419722
0.0108699305
0.003739037
-0.0039095096
-0.009037974
-0.010813726
-0.007825492
-0.005553732
-0.0029032968
0.0019275529
0.00658404
0.008656241
0.0033423356
-0.0033005408
-0.00443037
-0.004455801
-0.0049311146
-0.0050555384
-0.0029145202
0.0024233467
0.0071286485
0.008512352
0.004924944
-0.0019075519
-0.0069079855
-0.007899312
-0.0056656846
-0.0024431893
0.0011249263
0.006273246
0.011551424
0.011681969
0.0059868284
1.643505E-4
-0.0031241577
-0.0031383513
-0.0025544171
-0.003754272
-0.002180585
0.0018395405
0.0069634654
0.009310816
0.0017949472
-0.0062423297
-0.008874318
-0.010091829
-0.007872441
-0.0062365658
-0.0028765744
0.005470424
0.008552101
0.0083260685
0.007174413
5.1027915E-4
-0.0037122592
-0.003048539
-0.0031217218
-0.0030898934
-0.0016500825
0.0021120964
0.007998451
0.010161851
0.004229005
-0.0044346284
-0.009263071
-0.01030279
-0.0077620125
-0.0031177956
1.81967E-4
0.0037105633
0.0089935195
0.011443654
0.00707012
-1.1070395E-4
-0.0036455607
-0.004082788
-0.0040607573
-0.003044196
-0.0013524378
0.0023269837
0.008337513
0.00931588
0.003363591
-0.0030945088
-0.008194684
-0.009536483
-0.0062475475
-0.003757531
-5.2364153E-4
0.0069064368
0.012462482
0.0116166845
0.0067499015
-0.0013335699
-0.008584426
-0.0074174064
-0.005286438
-0.009131469
-0.0073728417
0.0015408518
0.007893297
0.009639822
0.00561043
-0.0021157453
-0.0076953736
-0.009531004
-0.008184033
-0.004339421
1.0827458E-4
0.00313417
0.0068961238
0.010618634
0.007934521
5.9292326E-4
-0.0057024113
-0.0075697824
-0.004179897
-0.0012812272
-6.839041E-4
0.0016297346
0.0071035423
0.011168959
0.0069099027
-0.0012310788
-0.0065713227
-0.008726435
-0.005928379
-0.0026445286
-0.0010864923
0.0035592664
0.00743973
0.007921863
0.006325597
-1.5283056E-4
-0.0063847094
-0.0057359985
-0.0038395443
-0.003988813
-0.0019461362
0.0025913566
0.008114388
0.010697133
0.0065495516
7.664112E-5
-0.006076449
-0.010335772
-0.009397232
-0.0060379356
-0.0018568435
0.0018778082
0.00439955
0.00729865
0.005023639
-0.0023436765
-0.006910134
-0.0076422016
-0.006987844
-0.006707993
-0.0037933646
0.0031232156
0.009319807
0.0118809175
0.0075564096
-1.0456537E-4
-0.0042005056
-0.0060596126
-0.005260777
-0.0027505353
-6.408174E-4
0.00376852
0.008659138
0.010205945
0.006795552
2.9077695E-4
-0.0056676287
-0.008806173
-0.0064643105
-0.0032578215
-0.0017328908
0.002629012
0.0070757247
0.009677529
0.007976447
-3.6662133E-4
-0.0071778386
-0.009245545
-0.0075985617
-0.0028294378
8.3084626E-4
0.004197068
0.008050489
0.010861837
0.009925957
0.002612651
-0.003860434
-0.0051397923
-0.0055485484
-0.0062864614
-0.004708076
0.0014878184
0.0077661066
0.010413184
0.0063580284
-0.0077302926
-0.015457334
-0.010735929
-0.011891854
-0.012748601
-0.003031997
0.0037847818
0.0073175
0.012002243
0.008915438
9.80562E-6
-0.004662228
-0.003882002
-0.00136318
-9.2283665E-4
-0.001703996
0.0013979414
0.008155727
0.013261427
0.012119435
0.0049305595
-0.0020110656
-0.0052154013
-0.005294458
-0.0024610811
2.1627228E-4
0.0023962194
0.00661969
0.010335475
0.009476333
0.001987488
-0.0062345243
-0.008295157
-0.009320746
-0.009266814
-0.004767525
-0.0011206915
0.0040997583
0.008850591
0.0046054563
-0.0016705465
-0.006009506
-0.010112905
-0.009871369
-0.006710533
-0.0027762742
0.0011029125
0.0047910125
0.009122416
0.007853619
8.2931947E-4
-0.0043969
-0.0048689293
-0.001812478
-0.002117298
-0.0040066326
0.0012816688
0.008691918
0.012192425
0.010323024
0.0019614615
-0.005531957
-0.0073104547
-0.006545287
-0.0049095657
-0.0020647366
0.0022486788
0.007183462
0.010619743
0.0086958045
0.0010581204
-0.0053648693
-0.0065586925
-0.0054742508
-0.0047532013
-0.0038978574
-0.002561274
0.001529966
0.008847908
0.00918827
9.827879E-4
-0.0051094117
-0.008176728
-0.008288529
-0.005048332
-0.0020755958
0.002067377
0.006029131
0.00870862
0.008664361
0.001213686
-0.0058040465
-0.0069048745
-0.006042098
-0.0031984565
-0.0019164439
-8.660094E-4
0.005168769
0.009183699
0.005828006
-0.0014963222
-0.0068292124
-0.006487827
-0.0057034465
-0.007117284
-0.0051315147
5.660951E-4
0.0064815306
0.011186387
0.010523899
0.0038226612
-0.0017326061
-0.0033405314
-0.0034871802
-0.0034134823
-0.0033530735
-0.0010471478
0.0038398826
0.007896927
0.008503287
0.003973123
-0.0028219768
-0.006918178
-0.0077845333
-0.006166453
-0.002915084
0.0010093786
0.0044170683
0.006204692
0.006407288
0.00252936
-0.003939804
-0.0065012937
-0.005736213
-0.0042996528
-0.0030774523
-0.0023283523
0.0019416645
0.0070305225
0.0059483503
0.001430772
-0.0033345923
-0.007726667
-0.008086272
-0.005054531
-0.0025286279
2.8996964E-4
0.0049582315
0.009079162
0.009763312
0.0052340883
-0.0024009664
-0.0051461174
-0.002424098
-0.0015934572
-0.0016748955
6.661916E-4
0.0042864056
0.007624697
0.00712577
0.0025112797
-0.002926746
-0.006534098
-0.0062613674
-0.004256959
-0.0017881632
0.0011961287
0.0033680662
0.006200437
0.006770754
0.0017731086
-0.00351654
-0.005389267
-0.005106055
-0.005052165
-0.0049607535
-0.002096462
0.0026002033
0.0066670952
0.007365809
0.0033270074
-0.0033045674
-0.008600129
-0.0076174247
-0.0029096208
1.5099438E-4
0.002426377
0.0043426584
0.0073983353
0.009401853
0.0053341766
-0.0011889114
-0.006210947
-0.0070424364
-0.0034149305
-2.8639776E-4
0.002664153
0.006124914
0.0078004976
0.0069151972
0.0032686314
-0.0030998397
-0.012018857
-0.015039638
-0.007999471
-0.002283652
2.415351E-4
0.004869848
0.008311007
0.008252133
0.0045724097
-0.0016075377
-0.0049816812
-0.0033907224
-0.0027247826
-0.0036237137
-2.2268917E-4
0.0038043696
0.00632476
0.008629952
0.00474229
-0.0024814836
-0.005831572
-0.006046545
-0.004071242
-0.0012979467
6.535424E-4
0.001966383
0.005208544
0.008161699
0.0035641228
-0.0031907207
-0.005396263
-0.006054701
-0.004743179
-0.0025385078
-0.0013463547
0.0021412629
0.007447813
0.00825184
0.0023062704
-0.004325072
-0.008146273
-0.008830774
-0.00538832
-0.001380683
0.0018172086
0.004872361
0.0067070536
0.0071723075
0.003977647
-9.663185E-4
-0.0036722843
-0.005004714
-0.0043619107
-0.0027258112
-0.0020005808
3.0688476E-4
0.00549296
0.009071383
0.0054426603
-0.0020387718
-0.006277004
-0.0066242856
-0.0053292215
-0.003204999
2.0119004E-4
0.0029690142
0.0056677945
0.00918214
0.006059073
-0.0015541713
-0.0036260437
-0.0030750753
-0.0035725613
-0.0030709598
-0.0010985042
0.0029454636
0.0076865396
0.009104193
0.004566766
-0.0030392245
-0.007685676
-0.007818776
-0.0055680685
-0.003021844
-8.406391E-4
0.0015034416
0.0045113564
0.007289341
0.004844778
-0.0022813205
-0.005130301
-0.0044651874
-0.0054124757
-0.00461187
-0.0021840502
9.4239454E-4
0.0065669934
0.008841986
0.0055229478
-5.266115E-4
-0.00790562
-0.008562338
-0.0035040288
-0.0019093327
7.783359E-4
0.005928625
0.007894696
0.008035101
0.0062107053
0.0012588562
-0.0041049877
-0.0060217367
-0.004421722
-0.003950619
-0.0029096582
0.0018950272
0.0066453833
0.00913364
0.0070532477
-0.0013527293
-0.008139269
-0.007999576
-0.0068246583
-0.005154062
-1.6809531E-4
0.0033665225
0.005261487
0.007260764
0.0058785044
0.0011922488
-0.0039347266
-0.0052484195
-0.0039429544
-0.0046509434
-0.002861859
0.0017988796
0.005660681
0.008035375
0.004708725
-0.0017142612
-0.006731675
-0.009312482
-0.006644812
-0.0026068361
6.909594E-4
0.005057795
0.0084141595
0.00851696
0.0037425542
-0.001351049
-0.004604566
-0.006847021
-0.0036566884
-0.0018569835
-0.0039858217
4.7130848E-4
0.007585473
0.010184573
0.007734876
-1.5832373E-4
-0.006833569
-0.007138151
-0.004450461
-0.0028176
-0.002104326
4.8369897E-4
0.0051729884
0.008335608
0.006626617
0.0012904906
-0.004366491
-0.0071813185
-0.0058017094
-0.003598254
-0.0020043275
9.13294E-4
0.0058342456
0.009583861
0.0063551087
-0.0010072115
-0.005939782
-0.0077547547
-0.006571465
-0.0044046035
-0.0013908917
0.0032484946
0.005926829
0.007490882
0.008108951
0.0032964633
-0.003152831
-0.0043948465
-0.0036117448
-0.0041305623
-0.0021134375
0.0017374394
0.004828542
0.0074351854
0.0067425338
0.0016145488
-0.0054725865
-0.009278343
-0.008995835
-0.0099036945
-0.007017333
0.0013705023
0.00656373
0.008755191
0.00852039
0.003674011
-0.0031350693
-0.0061939647
-0.0036817004
-0.0030490276
-0.0029986075
0.0013390825
0.005306978
0.008298222
0.0066647762
2.2648589E-4
-0.0032767644
-0.005850286
-0.005758013
-0.0010063439
0.0018433903
0.0030355372
0.0050073205
0.008078642
0.0076466016
2.0932358E-4
-0.005781288
-0.0070554307
-0.0063321493
-0.004540833
-0.0037684815
-7.240603E-4
0.005134311
0.008604169
0.0070887287
-1.0289214E-4
-0.0070880638
-0.00840931
-0.0069667073
-0.004811914
-0.0024842601
2.8674566E-4
0.004886955
0.008138453
0.007224401
0.0037236565
-0.0010454284
-0.0043994114
-0.004032108
-0.0024047839
-0.0015504032
-7.54435E-5
0.004628275
0.010087774
0.0086305095
0.0012710578
-0.004587388
-0.007030439
-0.007001102
-0.005306277
-0.002719358
0.0010919144
0.006532967
0.009146401
0.0055142553
0.0010235509
-0.0026840137
-0.006017201
-0.005339427
-0.003996201
-0.003764683
-0.001465394
0.0024044516
0.0067682634
0.006882736
0.0013212768
-0.0038106763
-0.0072865933
-0.009053336
-0.0069888947
-0.0025324104
0.0016591987
0.005352553
0.009092434
0.009462935
0.0037297145
-0.0024148969
-0.0030805995
-0.0019893064
-0.0022735733
-0.0012395876
2.9560525E-4
0.003986724
0.009239724
0.0070331823
9.614694E-4
-0.0027432893
-0.0061781234
-0.005596673
-0.0037725733
-0.00434096
-5.707919E-4
0.004909543
0.005831621
0.0043953857
0.0020475262
-0.002156615
-0.006280378
-0.0066959797
-0.0034318895
-0.0015608418
-0.004806923
-0.003935258
0.006438989
0.010297488
0.0037735426
-0.0015216151
-0.0051547294
-0.0063352045
-0.004116555
-0.0020571866
6.673363E-4
0.004514364
0.008292343
0.009097896
0.005400697
1.6890168E-4
-0.003404385
-0.0034152297
-0.0034347116
-0.0039666076
-8.947529E-4
0.0026442013
0.006026329
0.008270221
0.0032414764
-0.0039615785
-0.006671182
-0.0075699124
-0.0062387316
-0.0024848015
-6.251231E-4
0.0024180869
0.008428626
0.009259684
0.0041035586
-0.0020265905
-0.00638877
-0.0065005803
-0.0056007644
-0.0041259797
3.4663168E-4
0.004958248
0.008554385
0.008579947
0.0035337557
-0.0028653096
-0.0074543064
-0.0082093915
-0.007135107
-0.0049275947
-4.1005542E-4
0.0050713494
0.010406057
0.009512077
0.0026103763
-0.0019293264
-0.004463581
-0.005054975
-0.0037885713
-0.003483813
-9.3707244E-4