0.0014152739
-0.0021636577
-0.0032433635
-0.002838183
-0.002295836
-0.0016078405
3.694301E-4
0.0020926986
0.0027313284
0.0027298636
9.382594E-4
-8.8346505E-4
-0.002094198
-0.002618748
-0.001938428
-0.0013371741
7.623103E-4
0.0040196264
0.0058795824
0.005277423
0.0030423664
0.0013155367
-0.0016315834
-0.002343129
5.466551E-4
-0.0011900824
-0.0020242154
0.002660187
0.0045966934
0.004189432
0.0010986011
-0.005047267
-0.0063261697
-0.003692537
-0.0023795068
-0.0010089813
7.0831855E-4
0.0020996195
0.0037022023
0.0030488751
-1.6088152E-4
-0.0021515104
-0.0027361861
-0.0018984283
-3.4371455E-4
-8.50395E-4
-0.001343565
-4.8761896E-4
0.0011254683
0.0020321347
-5.1851553E-4
-0.0029360806
-0.003269943
-0.0036109935
-0.0025480024
-4.3226962E-4
9.849917E-4
0.0012779031
0.0020571153
0.0035540508
0.0025879054
4.7654824E-4
-8.3435775E-4
-0.0012678319
-7.63357E-4
-1.7350029E-4
0.0023036858
0.0042967587
0.0037053956
0.0041504586
0.0033574682
2.0277301E-4
-0.0016711493
-0.0019658322
-0.0013208811
-2.552598E-4
4.7255054E-4
0.0010419589
0.0037076625
0.004934908
-2.7987742E-4
-0.004918961
-0.0056334953
-0.0055722967
-0.005507765
-0.006119188
-0.002462631
0.0029293345
0.0036613091
0.0036311732
0.0011109085
-0.0029426087
-0.0032886276
-0.0031069336
-0.0023741378
-0.0012522516
-5.057732E-4
0.0015912812
0.0031244725
0.0038473282
0.002842894
7.016018E-4
-6.4211694E-4
-0.001959368
-1.7302432E-4
0.0016878515
1.6527728E-4
0.0011410927
0.00323204
0.0035238012
0.003622674
0.0020893076
-6.0849503E-4
-0.0017438359
-2.1091726E-4
0.0011234155
8.805081E-4
0.0019965372
0.002449737
6.863409E-4
-7.375941E-4
-0.0018343619
-0.0022244935
-0.0019061944
-0.0018443079
-0.0018536737
-0.0024085576
-0.0018674204
0.0011825842
0.002655607
-6.7851935E-5
-0.0032261088
-0.004447206
-0.004679221
-0.0030336324
-1.3661476E-4
9.7198936E-4
7.982011E-4
0.0015453506
0.0028187996
0.002880896
0.0010850338
-8.7052013E-4
-4.7002366E-4
0.001019421
-2.9788833E-5
-0.0013355692
3.6485237E-4
0.0019988276
0.002682166
0.0024498084
-6.860409E-4
-0.002163746
-0.0013254826
-0.0028113546
-0.0017529838
0.0016533975
0.0016868575
0.0024100216
0.003459903
0.0023935707
0.0015292752
-0.0019857532
-0.0048623146
-0.0021520176
4.37176E-4
7.21845E-4
7.1801693E-4
0.002144128
0.004526611
0.002351812
-0.0017087742
-0.0025458366
-0.00392045
-0.0038690602
-4.4243824E-4
-7.8535307E-4
-0.0018024285
0.0022505193
0.0038650336
0.0025100345
0.0019525221
-0.0016585598
-0.0034897302
-0.0014930962
-0.0023092914
-0.0024094314
-1.6316077E-4
0.0018453391
0.0032360188
4.8336506E-4
-0.0019583183
-0.0014112932
-0.002929462
-0.0027433045
-8.3788123E-4
-8.436918E-4
0.001070205
0.0041853664
0.005269185
0.0029936105
-7.064336E-4
-9.7431405E-4
-0.0017576244
-0.004235756
-0.0021088866
0.0010694718
0.0014606903
0.0023023663
0.004080769
0.0041161194
0.0011399441
-0.0014767286
-0.002291659
-0.002281075
-8.2454097E-4
-5.8620353E-4
-2.0614167E-4
0.0020302976
0.0014884752
3.7352613E-4
-4.1045947E-4
-0.0031734987
-0.0035236047
-0.002236322
-8.281951E-4
0.0010247162
8.8817044E-4
0.0031891505
0.005657045
0.0015076624
-0.0019300036
-0.0017440065
-0.002338954
-0.002311729
-0.0015037936
-5.672792E-4
8.791932E-4
0.0018592435
0.0021522648
0.0011018589
-0.0011679569
-0.0022097712
-0.0012664226
-6.987425E-4
-0.0012606642
-8.8064664E-4
2.98651E-4
0.0010786335
0.0018844275
0.001430821
-0.0013882528
-0.0029327471
-0.0014818766
-0.0011486985
-0.0012660244
9.1928884E-4
0.002412379
0.0031586778
0.0036449642
0.0021429053
0.0011423616
4.7936945E-4
-0.0014255518
-0.0021515482
-0.0015858959
-0.001106505
-4.1607724E-4
0.0015712859
0.0034967584
0.0022772956
-5.8474473E-4
-0.0029013967
-0.0042374427
-0.0037824516
-0.00265453
-8.2468905E-4
0.001996251
0.0036830117
0.003949424
0.002970965
5.8622763E-4
-0.0014998859
-0.0022724192
-0.0018707358
-3.5127014E-4
6.427749E-4
6.0966835E-5
8.7592873E-4
0.0034194733
0.003067133
-1.4566135E-4
-0.0020763294
-0.002426213
-0.002607038
-0.0015793135
-2.572843E-4
-3.9031528E-4
0.0011885229
0.0033497699
0.0014868502
-9.7347575E-4
-0.001886396
-0.0037428895
-0.004638966
-0.0023560708
-1.7297702E-4
-5.8841315E-4
4.462863E-4
0.0032134983
0.0038984434
0.0028478527
-8.336537E-4
-0.003859163
-0.0024959785
-0.0010244775
6.008045E-4
0.0018745569
0.0018147476
0.0037776185
0.004158815
0.0021950046
2.581117E-4
-0.0021337508
-0.0015999161
-5.4228934E-4
-6.2177586E-4
0.001398147
0.002268759
0.002029974
0.0015196849
-0.0013531086
-0.0045137387
-0.006159198
-0.004220215
-3.8396724E-4
0.0010001131
7.695756E-4
2.3756278E-4
6.373394E-4
2.064911E-4
-0.0020147765
-0.0012140634
2.9452192E-4
-7.5803185E-4
-0.0014795804
-0.0018328006
-9.943952E-4
0.00190528
0.004052133
0.0037501564
0.0014303745
-8.826052E-4
-0.001577931
-0.0014905068
-0.0014763691
-3.4013504E-4
0.0016415068
0.001946749
0.0018052958
0.0026489154
0.0014496729
-0.0018399481
-0.0031164887
-0.0022662557
-0.0013394991
5.6267885E-4
7.576157E-4
-0.0013594031
9.194996E-4
0.0034449676
1.0220203E-4
-0.0032761535
-0.0049533946
-0.0032630851
0.0016910504
0.0016081074
5.416882E-4
0.0029553678
0.0026829862
0.0020603684
0.002071346
-3.8545427E-4
-0.002075603
-0.0021170524
-6.709268E-4
6.5386575E-4
-6.1609753E-4
-2.8316188E-4
0.0019794418
0.002703544
0.0014796071
-0.0017982502
-0.0030157107
-0.0015618501
-0.001082926
-1.1599863E-4
5.633731E-4
7.324235E-4
0.0014006192
8.1338803E-4
7.987025E-4
-7.612559E-4
-0.0033688962
-0.0012383024
-4.7100385E-4
-0.0015956324
0.0010303245
0.0019954029
0.0024044479
0.0043958714
0.0018156406
-0.0028192436
-0.0038155974
-0.0025823142
-0.0022065677
-0.0017766971
-2.8741742E-5
8.9192233E-4
0.0017182517
0.0026295432
0.0018201604
4.1342524E-4
-0.0015402829
-0.0018876916
-5.437535E-4
-0.0016112457
-0.0017063635
0.0013420212
0.003971388
0.0045740316
0.0016635505
-0.002032359
-0.0024668074
-0.0011933547
-2.0662199E-4
2.3900252E-4
0.0013330618
0.0031236494
0.003471809
0.0016990366
-0.0011830281
-0.0018471328
-0.0012089519
-0.003205025
-0.0030069645
-2.7699542E-5
-3.2574032E-4
5.6939825E-5
0.002694723
0.0020702062
-2.6904306E-4
-0.0018026775
-0.0030962946
-0.0029513575
-0.0014991767
-7.589276E-4
-2.5998865E-4
0.0013744385
0.001368983
2.9613156E-4
8.912022E-4
-0.0018461255
-0.004781472
-0.0014740963
-2.1940032E-4
-0.0014300687
0.001257881
0.0029575957
0.002457149
0.002110889
6.238336E-4
-0.0014208592
-0.0028565624
-0.0019579108
-2.9062812E-4
-3.5827627E-4
0.0014200149
0.0040946193
0.0039063683
0.0038286299
0.0031052209
-4.070178E-4
-0.0021618612
-0.0020599726
-0.0015718731
9.2225504E-4
0.0012501068
3.6604685E-4
0.0018233662
-0.0012002194
-0.0048600594
-0.002465346
-0.0025898688
-0.0039336295
-0.002078245
-0.0022076573
-0.0014474859
7.255396E-4
9.271616E-4
0.0018104287
0.0010446317
-0.0019095527
-0.0029790609
-0.0026343404
-0.0011690217
-7.147751E-5
-3.405008E-4
9.321673E-4
0.003165834
0.0039918246
0.0027970853
8.149261E-5
-0.0019104065
-0.0025215012
-0.0018880324
5.0662507E-5
0.0015481266
0.0018836303
0.0013464829
0.0010003495
0.0020424873
0.0014521704
-7.1685296E-4
-3.9977673E-5
2.3843347E-4
-0.0022661954
-0.001981048
0.0013801903
0.0036228292
0.0037321115
0.0020328872
-6.7390135E-4
-0.00317048
-0.003522759
-0.0020548706
-0.0019189214
-0.001558484
0.0016468527
0.0036941047
0.0021177754
0.0011694821
7.184968E-4
-0.003219911
-0.0056043393
-0.003002877
-0.001617461
-0.0019325698
-0.0012500678
-5.0900725E-4
0.0011059514
0.0016504689
-7.090345E-4
-0.0024554788
-0.003258055
-0.003433853
-8.179098E-4
0.0016412493
0.0015552382
0.0020290161
0.0038398202
0.00399074
2.7233333E-4
-0.004024413
-0.0040872004
-0.0022326072
-5.881835E-4
0.0012586676
0.0010625393
0.0021571622
0.006148897
0.0051464187
3.9142213E-4
-2.8569682E-4
4.3078972E-4
-9.756669E-4
-6.9756043E-4
0.0021009422
0.0033705384
0.0028529433
0.0031489045
0.0027113387
-1.9735677E-4
-0.001748779
-8.237282E-4
-8.3300273E-4
-9.164906E-4
-0.0013421953
-0.0022741852
1.0473602E-4
0.0012580218
-6.06537E-4
-0.0013778611
-0.0057313982
-0.008695347
-0.0041796807
-0.0016359295
-0.001324462
-4.8176828E-4
8.6682914E-5
0.0035278636
0.003428617
-0.0011840027
-0.0017686697
-6.0572487E-4
-3.9184827E-4
9.186763E-5
2.6795038E-4
9.660732E-4
0.0033230293
0.005696403
0.004431192
0.00139456
-4.0450552E-4
-0.0016311363
-0.0017944361
-0.0022643756
-0.0015748643
0.0010722307
0.0014201973
0.0018272622
0.0023472914
6.140747E-4
-7.129438E-4
-0.002463107
-0.0026867476
-0.0011226367
-9.114526E-4
0.0011843642
0.0032314782
0.0032962519
0.0031319528
-8.468895E-5
-0.0032572835
-0.0035454517
-0.002935109
-8.7854295E-4
4.967135E-4
0.0010557295
0.002610254
0.0032117537
0.0025817303
0.0010416048
-0.0014677158
-0.0032558567
-0.0035063203
-0.0040146913
-0.004299707
-9.6213655E-4
0.0028731308
0.003969287
0.0037025795
-3.52289E-4
-0.004655467
-0.0028390225
-5.1176175E-4
-0.0013746675
-7.032864E-4
0.0011997015
0.0014441953
0.0020031137
0.002730752
0.0012643456
-3.3610148E-4
-9.856797E-4
-0.0014190276
-0.0014117587
-0.0016043513
-0.0010160418
0.0011309385
0.0022823769
3.3449638E-4
-0.0014863653
-7.6253555E-4
-0.0018313292
-0.0027159175
-1.16297364E-4
9.266701E-4
0.0013961664
0.0022458187
0.0012488235
0.0013247543
4.2289335E-4
-0.0024890709
-0.0030778814
-0.0011760624
8.599191E-4
-1.1989704E-4
-0.0013057586
0.0014190166
0.0030759547
0.0018352062
6.690126E-4
-4.982434E-4
-0.0015675703
-0.0015822524
-9.298719E-4
-6.712443E-4
1.3581027E-4
0.0010755287
0.001230587
0.0020414377
0.0011276582
-0.0012999639
-0.0015696278
-0.0014800532
-0.0016345421
-0.0015717935
-9.588549E-4
0.0021341566
0.004431983
0.003295208
3.9917007E-4
-0.0024845363
-0.003106741
-0.00352826
-0.005179074
-0.0035613016
3.9992423E-4
0.0022859273
0.0037409721
0.004499844
0.0014726012
-0.001528368
-0.0019061054
-0.0019632443
-4.6640387E-4
0.001348739
0.0013144201
0.0019531627
0.0023601044
0.0017602157
7.9577294E-4
-0.0025400245
-0.0049035437
-0.0029170965
-6.5901806E-4
-3.0238793E-4
6.7468034E-4
0.002756836
0.0037723784
0.0038494056
0.0022166995
-0.0026269488
-0.004735383
-0.0024926658
-0.0022737654
-0.0017720306
3.7936942E-4
2.3664285E-4
9.028571E-4
0.0013999094
-9.3142764E-4
-0.0015735342
-0.0021221251
-0.0035090023
-0.0014935796
0.0011905632
0.0020151564
0.0020195409
0.0021221132
0.0032658754
0.002097005
-0.001740708
-0.0030459107
-0.0019886885
-9.639533E-4
0.001340038
0.003846079
0.0038749126
0.0040656333
0.004770316
0.0022869187
-0.0014742824
-0.0037867136
-0.0032333746
-8.467384E-4
-8.765122E-4
-3.0833686E-4
0.0015126143
0.0011524418
0.0022132595
0.0026017341
-5.894079E-4
-0.0030653677
-0.0039787334
-0.0030250892
-0.0014674914
-7.253105E-4
0.001021172
0.0017080221
8.9219905E-4
-6.6965737E-4
-0.0035922818
-0.0047295224
-0.0040279347
-0.0038325475
-0.0030533099
-8.170046E-4
0.0015129638
0.0031569807
0.0046603987
0.0033909925
0.0010782073
0.0026027898
0.0028886762
8.57929E-4
9.848231E-4
5.0478795E-4
2.1364822E-4
0.0024549642
0.0028622167
-5.9725996E-4
-0.004434876
-0.006154178
-0.005896825
-0.0025704093
0.0013949611
0.0033112166
0.0062322505
0.008192399
0.007360823
0.0063360017
0.0041911923
0.0021184096
0.001116861
4.7259463E-4
-2.0011282E-4
-0.0026494043
-0.0031958085
-0.0017007737
-0.0033706995
-0.006944094
-0.0105656115
-0.011752138
-0.00958821
-0.007281007
-0.003871818
5.958686E-4
0.0032900227
0.0028853838
0.002825435
0.0060094674
0.004590459
-0.0018909962
-0.0047191936
-0.0040831175
-0.002477887
-0.0026294359
-0.0016290904
0.0054233666
0.008838262
0.006618107
0.009172266
0.01345324
0.012397982
0.0077351886
-6.761432E-5
-0.010340457
-0.013165117
-0.0070397197
-0.008371054
-0.018781649
-0.021678977
-0.013467063
-4.692677E-4
0.011317323
0.016002933
0.018213443
0.021745091
0.020497508
0.01409353
7.0563075E-4
-0.01572836
-0.01947876
-0.014012542
-0.0062850113
0.0024460203
0.0027619328
0.0029016617
0.0046678656
-0.005247154
-0.016082786
-0.023985447
-0.035885036
-0.039150413
-0.028728796
-0.017473925
-0.011304466
-0.0054480624
-0.0015235073
0.0014076787
0.008401165
0.009202914
0.0035454663
0.0013853798
0.0051358626
0.021204745
0.04119936
0.049421344
0.04226723
0.027164761
0.02318952
0.02831559
0.0283713
0.016961604
-0.005539894
-0.011308525
-6.911617E-4
-0.0023779434
-0.0015482948
0.0037764667
-0.0071189823
-0.026165204
-0.0475734
-0.061568044
-0.057767816
-0.05215319
-0.04481285
-0.025883477
-0.0064500337
0.004895128
0.0044598333
-0.003986275
-0.008821196
-0.007721079
0.0020257696
0.011500246
0.0063632894
-6.543953E-4
-0.0011022709
0.0038515609
0.016919056
0.028012788
0.038199607
0.05055045
0.051665757
0.042426858
0.028569253
0.008101717
-0.0147259915
-0.029147709
-0.030017769
-0.02430038
-0.015226393
-0.004532382
-0.0022716136
-0.01304838
-0.023216926
-0.016402587
-5.0030235E-4
0.013042596
0.015730139
-0.0057791257
-0.03315107
-0.034157977
-0.01111854
0.0047171703
0.006162894
0.011920264
0.0024234264
-0.018463949
-0.009949622
0.009809601
0.023385907
0.023027774
1.0772679E-4
0.004386662
0.03447469
0.038949717
0.029323148
0.024031619
0.018903157
-0.0022135826
-0.041083355
-0.060136076
-0.06101982
-0.06380155
-0.043958843
0.0013191884
0.03884559
0.042215444
0.012213083
-0.019119961
-0.037560802
-0.04442307
-0.024406359
0.007053466
0.027503233
0.043614384
0.03479555
0.001702567
-0.012058448
-0.020534266
-0.04901796
-0.05124632
0.0028824736
0.0615766
0.10186549
0.14324716
0.11636021
0.008467055
-0.051961616
-0.055825226
-0.06971633
-0.06602034
-0.03615131
-0.002959832
0.025352981
0.029889159
0.014906189
-0.0022685176
-0.024781877
-0.04719774
-0.05119331
-0.045022845
-0.04198824
-0.027535224
-2.0562815E-4
0.030331807
0.05001749
0.03328631
-0.0041331435
-0.031014118
-0.04011748
-0.023891412
0.0046770917
0.02399658
0.030370135
0.022442168
0.005439266
-0.007767505
0.0031249744
0.040008355
0.0692897
0.06518218
0.022262102
-0.024662381
-0.028467294
-0.021586202
-0.027967526
-0.0067100045
0.021100447
0.014723593
-0.0016605137
-0.018053185
-0.040219687
-0.046221573
-0.034745574
-0.03192283
-0.034070928
-0.018204324
0.0025678696
0.009360607
0.014477506
0.009195882
-0.024920352
-0.04659608
-0.019024793
0.01810974
0.03471808
0.042503703
0.03401304
0.013875734
0.0037832744
0.0073291617
0.027391117
0.04379702
0.044578213
0.048041295
0.028374076
-0.017968796
-0.032805365
-0.0120347245
0.0062144836
0.010763896
-0.0023684278
-0.03605902
-0.058606457
-0.041034646
-0.017113907
-0.007896665
0.00416805
0.0068639256
-0.004310756
-0.019117238
-0.03628667
-0.041821875
-0.03402936
-0.016505986
0.0014594907
0.0046458454
0.022203634
0.054589037
0.058354303
0.04719805
0.018795941
-0.039093226
-0.040727366
0.033424385
0.07603509
0.05382957
0.0030333693
-0.040148053
-0.024435164
0.032605004
0.05952376
0.03747362
-0.0116590755
-0.05074121
-0.052620295
-0.03779981
-0.03145429
-0.012926542
0.022521013
0.025416208
-0.007865837
-0.035304796
-0.048463836
-0.04552858
-0.04160887
-0.044912614
-0.014740028
0.037489705
0.053450774
0.026863724
-0.004779327
-0.004313603
0.028687904
0.063172266
0.057610117
0.015676212
0.0010984079
-5.208767E-4
-0.03427901
-0.0414865
4.9848953E-4
0.034357063
0.034971345
0.012395027
-0.0010594077
0.00907244
0.013219498
-0.0038912045
-0.026344378
-0.03907835
-0.038748138
-0.028145514
-0.023548724
-0.034805957
-0.032895185
0.00732105
0.056267127
0.060478948
0.02671933
0.0030180502
-0.013990502
-0.026190722
-0.022233648
-0.023828028
-0.008515585
0.03479736
0.05257126
0.038808405
0.019793388
0.012663389
0.018837007
-0.0023021915
-0.052250847
-0.0729168
-0.046838656
-0.0217152
-0.031860474
-0.038460493
0.0028462238
0.066634506
0.09453436
0.06391099
0.008549149
-0.027600717
-0.03586272
-0.03088714
-0.020013733
-0.006825937
-0.0025314789
0.0014189633
0.020148018
0.03329512
0.02607136
0.022741888
0.03049581
0.029348064
0.015394573
-0.025704533
-0.08954412
-0.1039174
-0.055498768
-0.010825483
0.015483731
0.03462781
0.034609307
0.016995246
0.0046116523
0.0072512813
0.0070028803
0.0017185117
0.005636057
0.02072645
0.030137546
0.014274003
0.0018024304
0.008479497
0.005516118
-0.001013564
-0.009132888
-0.017315496
-0.0056844642
-0.0017960087
-0.018118052
-0.027768498
-0.020617872
-0.0032208527
0.0077266153
0.018393379
0.01708336
-0.014167684
-0.02540378
-0.019763313
-0.025271306
0.011445443
0.058405284
0.039454337
0.009285546
0.030605655
0.066639535
0.05095583
-0.0076136035
-0.03813897
-0.040293995
-0.04559434
-0.02757468
0.010752315
0.01661715
-0.011065891
-0.022873899
-0.015342312
-0.013009086
0.0011664242
0.017166011
-0.007521188
-0.048831034
-0.05545375
-0.031890467
-0.004915763
0.028443485
0.06445964
0.080523506
0.07384323
0.043896183
0.009683322
0.0029504662
0.009526028
0.009856574
0.010211259
0.01892487
0.012857524
-0.023844518
-0.033815887
-0.004574696
0.007863081
-0.015253957
-0.05771148
-0.05854573
-0.0111281825
0.012333512
0.008455523
-0.006357848
-0.019095471
-0.010518866
-0.011546207
-0.02239747
-0.022768764
-0.016546646
-0.0016919571
0.0063580098
6.467552E-4
-8.3186076E-4
0.029826075
0.0804055
0.092217386
0.07623414
0.059470728
0.018923353
-0.0344651
-0.06201837
-0.046632614
-0.022603907
-0.009848675
0.0067241727
-8.5829524E-4
-0.013613305
0.0048310417
0.01785118
0.01826273
0.007635211
-0.015095312
-0.028721038
-0.03417066
-0.017060755
0.002136818
-0.015231219
-0.026419178
-0.0105797
0.0032475397
0.006488656
0.0041182316
0.00731122
0.010766327
0.009572753
0.012577009
0.014629583
0.013333326
0.0107402075
0.0070567937
0.0065245456
0.005333643
-0.0016742856
-0.006417536
-2.3134875E-4
0.004459789
0.0028705364
0.0054430724
8.8901975E-4
-0.006150698
4.288758E-4
0.002067138
-0.0031139844
-0.002673716
-0.0034410944
-0.0020109005
0.0017653619
0.0011554892
4.5161476E-4
-0.0010236539
-0.0029019313
-0.0043043224
-0.008959039
-0.009640979
-0.0043529295
-0.0022870204
-0.0019922245
0.001802074
0.006503683
0.007500016
0.004603784
1.8912008E-4
-0.0030869078
-4.3861906E-4
0.0042552855
0.0051110345
0.0095422575
0.014954638
0.011712369
0.005007629
-0.0042785904
-0.014349536
-0.013897555
-0.0065489495
-0.0018761823
-5.9479655E-4
-0.0018457326
-0.0013087215
0.0028212266
0.006633117
0.009523018
0.00701608
-0.0026937865
-0.0064493944
-0.0021298355
-4.648305E-4
-8.212957E-4
-0.002209112
-0.003406551
-4.1759722E-5
0.0013130473
-0.0011227342
-0.0011790217
1.671715E-4
8.202334E-4
-2.2934264E-4
-5.39504E-4
0.0024730251
0.004084067
0.002344836
3.0511586E-5
-9.4452995E-4
-4.7356647E-4
0.0011571796
0.0037095395
0.0033413365
0.0017168977
0.0038078343
0.0065002483
0.0073655574
0.005172367
7.691529E-4
6.8858804E-5
0.002095718
0.0025849731
0.0014497103
-7.025961E-7
1.4993548E-4
0.0010748244
9.4929023E-4
-4.27444E-4
-0.002312807
-0.0038668837
-0.00552062
-0.005013165
-0.0018032286
-3.4135947E-4
8.0841023E-4
0.0038700642
0.0041415635
0.0014905604
-8.5456856E-4
-0.0033786295
-0.0031756586
2.6290925E-4
6.3275156E-4
-2.0543646E-4
0.0032724258
0.0072028553
0.0071497667
0.0043533347
6.9724635E-4
-0.0022482236
-0.002619383
-0.001862565
-0.0015450761
1.8436473E-4
0.002271479
0.003972253
0.0059218938
0.0052865394
0.0022919907
-0.0015780815
-0.004465097
-0.0026475552
8.5123954E-4
0.0024978921
0.0038801692
0.0063434164
0.008184209
0.005121093
-3.6009165E-4
-0.0032429222
-0.004294656
-0.0039732843
-0.003402889
-0.0022630007
8.668979E-4
0.0025957515
0.0017299842
-7.670134E-4
-0.004942788
-0.007849952
-0.006945324
-0.0047649588
-0.0044149226
-0.003248164
7.854459E-4
0.0044278097
0.004797386
0.0012601209
-0.0021415586
-0.0015269315
-6.105611E-4
-0.001187433
0.0011852476
0.0060258764
0.008385384
0.008911497
0.007830448
0.0039771474
0.0019056544
0.0011521965
3.6652535E-4
0.0017212688
6.5432437E-4
-5.2859326E-4
0.002209525
0.0036494306
0.004656909
0.0030875276
-0.0040606675
-0.008089992
-0.0076056407
-0.0072586075
-0.0060059396
-0.003776354
-0.0016653648
-2.1340589E-4
-1.6241294E-4
-0.0017229323
-0.0032997942
-0.0030533022
-0.002465174
-0.0024048039
-0.0020334884
-0.0014804143
-5.5736113E-5
0.0023215092
0.0034754144
0.0022277257
1.9188352E-4
-0.0015489722
-0.002817041
-0.0020390188
-1.14492206E-4
0.0015889072
0.0040636384
0.006294929
0.0077899727
0.007331599
0.0025089562
-0.0018228255
-0.0019225763
-0.0014658675
-0.0016702284
-0.001478089
7.06431E-4
0.004579052
0.005726802
0.0037593287
-3.3462027E-5
-0.0037083898
-0.0036744445
-0.0028340272
-0.001821717
5.24904E-4
0.0011939096
0.0030363456
0.0050454433
0.0033162439
5.1553966E-4
-0.003132119
-0.004766835
-0.0035490762
-0.0028527407
-5.8244594E-4
0.0012526837
0.0022819822
0.0041446956
0.0030014382
0.0011736557
-5.186249E-4
-0.003011444
-0.0027768265
-0.0012268889
7.509772E-4
0.0029033525
0.0043427674
0.005001039
0.0021287722
-0.0018144026
-0.0030024897
-0.0017367367
-5.2522065E-4
-0.0019512521
-0.0026771615
-0.0014673141
0.0016908625
0.0049642534
0.0022537704
-7.6630065E-4
-0.0018041518
-0.004629728
-0.0033851864
-0.0010226566
-7.7472045E-4
0.0020958867
0.0043440163
0.004136515
0.003921932
0.0034284021
7.871049E-4
-0.0012166915
0.0010589537
0.0017299172
0.0010053117
0.0036303736
0.006461439
0.008055835
0.005888266
0.0012458693
-7.218501E-4
-0.0011515669
-4.0053015E-4
-3.0181848E-4
-1.8364919E-4
0.00298725
0.0049965363
0.00481538
0.0030611616
1.19991375E-4
-0.001747472
-0.0031996085
-0.0028320625
-0.0023147743
-0.0027959573
-0.0013431966
4.5153179E-4
0.002898803
0.0032997602
-2.455238E-4
-0.0025910495
-0.004762823
-0.0055764928
-0.0037101433
-0.0024334132
-1.0444863E-4
0.0017987704
0.0031784114
0.004026059
7.3370564E-4
-0.002173081
-0.0030602864
-0.0029006405
-4.1198192E-4
8.5304613E-4
0.002385405
0.0053309477
0.006080826
0.005113429
0.0015252545
-0.0029868423
-0.0031404155
-0.0010226353
-3.0837356E-4
9.441076E-4
0.0032583077
0.0047213305
0.006028451
0.005682004
0.0020861067
-4.5072896E-4
-3.6247756E-4
-3.3192834E-4
-0.0011550277
-0.0021410363
-0.0015924943
0.0013412893
0.0033411682
0.0010729651
-0.0022551154
-0.0033753475
-0.0032399327
-0.002974985
-0.0038271232
-0.0034348825
-5.88808E-4
0.0020768286
0.0048387335
0.004544967
-1.7083798E-5
-0.0038301554
-0.005125268
-0.0034702031
-0.0023898587
-0.0028102591
-1.5402422E-4
0.0020924257
0.0022257657
0.0024326057
9.460212E-4
-0.0015171029
-0.0037211804
-0.00402168
-0.0014692172
0.0011214246
0.0029569638
0.004615437
0.004793405
0.0026983179
8.533032E-4
-6.3179905E-4
-0.0021986768
1.768658E-5
0.001457744
-3.3384256E-4
0.0015712184
0.003681931
0.003830188
0.005293032
0.0032210904
-0.0024363608
-0.0053099003
-0.0042802836
-0.002985613
-0.003089829
-0.0020475492
9.486918E-4
0.003904797
0.0036776764
1.9474761E-4
-0.0024571938
-0.0032535559
-0.0026475552
-0.0016455179
-0.0018422286
-7.370452E-4
0.0024709555
0.004478195
0.0045830123
0.002897469
-8.67257E-4
-0.0026907064
-0.0014651517
-0.0012552447
-0.0016741148
-0.0012494087
0.0018523654
0.0059580714
0.003900078
4.8811547E-4
-5.247638E-4
-0.003332478
-0.0033974324
-0.0024446468
-0.0032372905
-0.0010788217
0.0014050916
0.0035373154
0.004065345
1.0878377E-4
-0.0029338766
-0.003610452
-0.003194925
-0.0018320099
-6.9372193E-4
0.0016096465
0.0038583232
0.004110223
0.0033721402
0.0024799057
6.769439E-4
-0.0016977717
-0.0017934091
-9.6559845E-4
-4.210212E-4
9.005046E-4
0.0020708265
0.004269453
0.005073176
0.0021214476
-0.0016122087
-0.0042905044
-0.0034885218
-0.0024023573
-0.0033692475
-4.0484007E-4
0.0038988406
0.004485327
0.0038002396
0.0023502095
-6.1706576E-4
-0.0023801061
-0.0025381728
-0.004690995
-0.0045090355
3.6585674E-4
0.0030246822
0.00467761
0.0049334704
0.0012003278
-0.003047164
-0.007989216
-0.008330495
-0.0047012144
-0.004544444
-4.610024E-5
0.0066957567
0.0067074546
0.0056688506
0.0035841642
-4.8698927E-4
-0.0013097901
-3.2874412E-4
-3.0398002E-4
-3.7140594E-4
6.3418265E-4
0.0025680177
0.004665559
0.005475475
0.0031846007
-0.0013431733
-0.0048457305
-0.0046436945
-0.0030845422
-0.0018743535
0.0016432591
0.0041097654
0.0035478305
0.0040282565
0.0027247134
-0.002264522
-0.0046779294
-0.0032445502
-0.0028252192
-0.0033566274
-0.002950812
-0.0010611701
0.003679562
0.0049454495
2.9665147E-4
-0.0018148897
-0.0027466898
-0.004068629
-0.0012533851
0.0013079237
0.0011088301
0.0021240048
0.004424007
0.00426693
0.001453084
-6.644954E-4
-0.0026627933
-0.0029429954
-8.8847644E-4
-0.0011078195
-1.4651509E-4
0.0036792124
0.0053247497
0.0044463566
0.001325198
-0.0023346117
-0.0043281484
-0.004903053
-0.003500575
-0.0013246621
4.8141746E-4
0.0018901046
0.0034881318
0.0048364033
0.0025197011
-0.0021699863
-0.004355256
-0.003185599
-0.0025581722
-0.003771092
-0.0016764863
0.0024092693
0.0047049783
0.0057680537
0.0024025778
-0.0026649742
-0.004526723
-0.00439179
-0.001620689
5.055532E-4
0.0010568459
0.004049051
0.005572323
0.0047902497
0.0041351956
2.343017E-4
-0.0050476226
-0.005877092
-0.002490471
4.9834524E-4
3.979673E-4
5.613729E-4
0.004406502
0.0074268384
0.0047718515
-1.3362823E-4
-0.0031419073
-0.004428906
-0.005227203
-0.0051600807
-0.0023228866
0.0015444459
0.0040421155
0.0045190444
5.962948E-4
-0.004994422
-0.0073943483
-0.007285219
-0.0068037314
-0.0069397828
-0.0052808854
-0.001709616
7.723339E-4
0.002435318
3.8623E-4
-0.0048351455
-0.0068222694
-0.006486767
-0.005647542
-0.003937103
-0.0016953722
0.0016802715
0.004410256
0.005971232
0.0049126497
-2.53582E-4
-0.0044208444
-0.0061793807
-0.007186639
-0.007054226
-0.0063697686
-0.0024002874
0.0030410849
0.0039637275
0.002384916
-4.663448E-5
-0.0024129194
-4.850673E-4
0.004130368
0.007998349
0.011045651
0.013069078
0.014876444
0.016448567
0.014350314
0.008103195
0.0031500184
0.0019999752
0.0021419812
0.0026323225
0.0030405421
0.0036355874
0.0060915044
0.008187786
0.0052273115
-0.0040364726
-0.016405461
-0.027781261
-0.03380911
-0.03280327
-0.02989503
-0.02544313
-0.016948313
-0.010487875
-0.0075614387
-0.0059088296
-0.0062778424
-0.0048157354
-0.0018400811
-5.461946E-4
0.0022619169
0.007739044
0.013240511
0.016117789
0.016236588
0.014645033
0.011673302
0.010666752
0.01199318
0.013625864
0.0155351255
0.015568981
0.014772053
0.014057511
0.010627428
0.0051925485
-7.319216E-4
-0.0047128606
-0.005269505
-0.0053187516
-0.0064444235
-0.00629011
-0.0022351346
1.5571665E-4
-0.0033920633
-0.0071892506
-0.00985874
-0.0109930495
-0.009756184
-0.008847456
-0.006527056
-0.0032035795
6.908003E-4
0.004474042
0.002245354
-0.0034422588
-0.007822908
-0.009464743
-0.0076923994
-0.0064868834
-0.004714739
-7.727456E-4
0.0037302899
0.0071777445
0.005253547
0.0017663608
-2.584652E-4
-0.002219757
-0.0012152505