-1.8739159E-4
-5.1939476E-4
4.2030893E-4
0.0045087417
0.007883996
0.007281459
0.002968124
-0.002114534
-0.0046353983
-0.0051452825
-0.004481772
-0.0015939646
0.0016121332
0.0034230598
0.0052015223
0.00559046
0.0029674429
-0.0011834932
-0.0033830265
-0.0022139126
-0.0025074754
-0.0040956093
-0.003043572
-9.428989E-4
0.0018048872
0.003587929
0.0018877138
-0.0026022885
-0.0052486258
-0.0012749633
0.0017043069
6.163868E-4
0.0020972241
0.003501919
0.003977989
0.003797391
0.001122818
-0.0026047463
-0.005917519
-0.0034861472
-0.0022034652
-0.008352466
-0.007722654
6.737733E-4
0.007669013
0.009213736
0.0037054857
-5.2302866E-4
-0.0018985445
-0.0028980514
-0.0020868536
-0.0014985029
0.0015119407
0.004280017
0.0037127528
0.0038461036
0.0016697202
-0.0016969466
-0.0030186125
-0.0040305415
-0.0029674275
-2.3318805E-4
0.0021061953
0.0032838783
0.0045502447
0.005398925
0.0024071361
-7.612007E-4
-0.0025324929
-0.0036185104
-0.0022166746
-0.0026657984
-0.0030046296
4.2214154E-4
0.0024908548
0.0025391679
0.00115073
-9.844626E-4
-0.0013080785
-9.6394424E-4
-8.8299986E-4
-0.0018619249
-0.0018752884
0.0013044094
0.0042303656
0.005482633
0.0025471149
-0.0043968167
-0.0072118607
-0.007164062
-0.006484001
-0.0013487427
0.0014329136
0.0013909796
0.006021068
0.008305582
0.00462043
8.815256E-4
-9.435321E-4
-1.6271912E-4
2.875666E-4
-1.5255378E-4
9.226437E-4
0.002007419
0.0042628786
0.0042912257
-8.720163E-4
-0.0041227154
-0.0047113993
-0.0056101712
-0.0056648664
-0.0048975777
-0.003148244
2.4988904E-4
0.004629742
0.0058343876
0.0035860569
0.0012766261
-0.002293369
-0.0039676772
-0.0026922633
-0.0021975348
-2.1267343E-4
0.0023532321
0.004818197
0.0063543427
0.0027799883
-0.0012784338
-0.003567192
-0.004511242
-0.0019721717
-1.2908198E-4
0.0014588966
0.003887257
0.004809033
0.0055885436
0.002645173
-0.0023089144
-0.0028484545
-0.0023602082
-0.003199778
-0.004441729
-0.0038267842
5.9699663E-4
0.0046225367
0.0057777157
0.0039524273
5.5999488E-5
-0.0026145708
-0.0036505342
-0.0029161677
-0.0013795162
-0.0010635655
6.9268054E-4
0.0040803817
0.0038122705
-3.331681E-4
-0.0025321457
-0.0036966135
-0.0075318054
-0.0071365763
-0.0014565523
-9.4373616E-5
-4.7972784E-4
0.0029823114
0.0049867886
0.003370834
8.689438E-4
-0.0012780085
-0.0012336674
3.97159E-4
8.5133564E-4
7.831119E-4
0.002567963
0.0058663925
0.007304133
0.0055451747
0.0023757052
-0.0015149306
-0.0040319287
-0.003374912
-0.0018857148
-0.0010550192
2.4751267E-5
0.0032649285
0.0062980046
0.002957211
-0.0033579122
-0.0066823075
-0.008892587
-0.00852485
-0.004356004
-0.0014714919
7.763014E-4
0.004395989
0.004249044
0.001131144
8.511595E-5
-8.925314E-4
-0.0015449949
-8.2098856E-4
-0.0017620615
-0.0023055344
-3.3459084E-5
0.004487808
0.008179606
0.0054134177
-2.5507953E-4
-0.0028505484
-0.002962186
-0.002243998
-0.0032871466
-0.002336197
0.0026733784
0.0043686586
0.0039223665
0.0040543033
0.0010650859
-0.002176959
-0.002520373
-0.0025523056
-0.002554859
-7.703656E-4
6.234318E-4
0.0015602278
0.004399933
0.0038002678
-0.0013842556
-0.005094593
-0.0059821177
-0.0036084151
-0.0011999396
-9.0792926E-4
0.0013997202
0.0042561255
0.0049771727
0.00296074
-0.0013739455
-0.0037117116
-0.0029550123
-8.574779E-4
-3.3578914E-4
-0.0011296703
0.0012128149
0.0040120417
0.0049855434
0.004310065
-7.343574E-4
-0.005735033
-0.006056165
-0.003982676
-0.0016514965
1.7948763E-4
0.002005161
0.0040057735
0.0058918977
0.0056230756
0.0015384655
-0.0027677717
-0.004598691
-0.004086877
-0.002829434
-0.0021326237
9.6552994E-4
0.0050295666
0.0048537897
0.0016459642
-0.001506959
-0.0042331847
-0.0063951565
-0.005874733
-0.0023062243
7.2817E-4
0.0024182461
0.0040555615
0.005056615
0.00488828
0.0028632116
-3.5494062E-4
-0.0017931376
-0.0015453814
-0.0021441046
-0.002349673
-8.212166E-4
0.0023302285
0.0066712713
0.0059027853
-1.298255E-4
-0.0030143596
-0.0038822354
-0.004067551
-0.0017616538
-0.0010818008
5.5915407E-5
0.0041421507
0.006252099
0.00479177
-4.2685235E-4
-0.0058861664
-0.0063887844
-0.00624106
-0.006757157
-0.003917675
-5.473523E-4
0.0031026744
0.008104637
0.009012259
0.005366034
5.6563056E-4
-0.0025481347
-0.0032981706
-0.007011761
-0.008907429
-0.0024342507
0.0032858287
0.005104055
0.005644032
0.0030364152
5.3454353E-4
2.8156483E-4
3.25136E-4
-0.0012169421
-0.0032103197
-0.001906347
8.269604E-4
0.0030377195
0.0031182875
-6.27943E-4
-0.0028719548
-0.0024753474
-0.0016196545
-8.798866E-5
-1.2727114E-4
2.11929E-5
0.002245471
0.0047550434
0.0062955455
0.0039241966
-0.0012676353
-0.0044234553
-0.0041593835
-0.0025734908
-0.002061865
-6.9647864E-4
0.002779641
0.004618594
0.0023863763
-0.001636269
-0.004382372
-0.0062906104
-0.0061610057
-0.0022476527
0.0012392742
0.0026022762
0.0049808417
0.0075844326
0.007098232
0.0034523683
-0.0015645236
-0.004783554
-0.003399431
-0.002411782
-0.0032578863
-4.5437863E-4
0.0024191267
0.003442632
0.0042775115
0.0011659334
-0.003551616
-0.0070610004
-0.009048165
-0.0058438056
-5.835623E-4
0.0018101712
0.0026015565
0.0035338735
0.0038692548
0.0016714975
-0.0017651587
-0.004166177
-0.0044256495
-0.0024527567
-0.0013718714
3.3003994E-4
0.0056461464
0.009281506
0.008209506
0.004356966
-0.0010665994
-0.0042324
-0.0035998237
-0.0018012256
4.9277564E-4
0.0023734132
0.0036356114
0.005146563
0.005235804
0.0037636196
4.2011568E-4
-0.00388544
-0.0043438175
-0.0022735368
-6.182442E-4
6.8511174E-4
9.7251835E-4
0.0028170045
0.005066066
0.003639562
-0.0019528241
-0.009175299
-0.010301346
-0.0061479625
-0.0035879521
-0.0019078621
-5.2540883E-4
0.0025074964
0.0042183152
6.670756E-4
6.686444E-4
0.0032493717
0.0022363332
0.0013030372
-0.0016136621
-0.006740219
-0.0086904615
-0.0076538534
-0.006147472
-0.004976855
-0.0028731674
-5.30162E-4
1.4344093E-5
-0.001225033
-0.002679973
-0.002166294
0.0015325468
0.011542691
0.023178745
0.024374325
0.01751824
0.009574659
-0.0017747219
-0.01617128
-0.023968756
-0.012419121
0.015009967
0.033694588
0.030013824
0.0218423
0.021751992
0.015006513
-0.0037344098
-0.0270755
-0.04309442
-0.032602943
-0.009831436
-0.0051371935
-0.01427231
-0.02422647
-0.029556196
-0.026762152
-0.020227706
-0.012551107
-0.00522092
-0.0011725206
0.0068858946
0.024148269
0.03324611
0.02320839
0.010798231
0.004414021
-0.0010909394
-0.005603948
-0.007847282
-0.0018065936
0.018526578
0.04674106
0.06165045
0.050021157
0.027200773
0.007977874
-0.004151752
-0.0125969
-0.027034251
-0.03466682
-0.021953523
-0.004320109
0.0021153574
-0.0034988832
-0.016858503
-0.03614063
-0.04442703
-0.031327497
-0.021222841
-0.01848754
-0.012092695
-0.007233769
-0.001596907
0.0012533088
0.0013237251
0.0047873426
0.0054319925
0.006528094
0.007950883
0.011750749
0.024954684
0.03229378
0.029579956
0.022820145
0.011390859
-2.3710652E-4
-0.0081436355
0.002624093
0.02669529
0.034940403
0.031191276
0.027949786
0.01766888
-0.010286799
-0.04005684
-0.037405383
-0.01746283
-0.011641075
-0.013554762
-0.0157801
-0.014737399
-0.013111296
-0.015800577
-0.013070118
-0.00853363
-0.008580764
-0.0068215737
-0.0046738656
-0.003143018
-1.641046E-4
0.0027168747
0.005099848
0.0064989366
0.006425554
0.0047914973
0.0028633287
0.0029897527
0.0044330037
0.0048910244
0.0054921363
0.008286499
0.0109188575
0.011896099
0.010044635
0.0041326974
-3.838571E-4
-0.0015323925
-0.0014160847
1.695891E-4
2.8133235E-4
6.2010536E-4
0.00389003
0.005263518
0.002504086
-0.0029421006
-0.0063549387
-0.0042123897
-7.719679E-4
2.2819643E-4
-8.856784E-4
-1.0272221E-4
0.0033389924
0.0033615136
-6.106027E-4
-0.0058534564
-0.009564615
-0.00825089
-0.0056030154
-0.0043971855
-0.0028833365
-0.0010544203
8.952785E-4
0.0018236706
0.0020548017
8.6341193E-4
-0.0015336463
7.933377E-6
0.00245991
0.0018969383
0.0016482249
0.0021586206
0.0040848237
0.0047805156
0.0016410253
-8.9363795E-4
-0.002967078
-0.0041110897
-0.0031023994
-0.0023828775
6.559364E-4
0.0038344127
0.0041117305
0.0049772603
0.0034486507
-6.566477E-4
-0.0028975874
-0.0047122655
-0.004856383
-0.0017352146
0.0018594306
0.004720032
0.005433637
0.003279202
5.7840894E-4
-0.0018454981
-0.003772705
-0.0034716632
-0.0019824924
-0.0010593112
1.05427804E-4
0.0010446847
0.0021170948
0.004473134
0.0038271113
-0.0017348492
-0.0043787817
-0.002095115
-0.0016987707
-0.0018117238
-9.0189883E-4
-9.4892475E-4
0.0027466307
0.0071923467
0.005342986
-5.6034693E-4
-0.005903409
-0.0051617743
-0.0024150931
-0.0023988886
8.9317583E-4
0.0022885494
8.279437E-4
0.0049797753
0.0070408694
0.002891794
-0.0016898359
-0.004156102
-0.00317965
-0.002737623
-0.0027070255
-2.129609E-6
0.0027283407
0.0047793775
0.0038589088
1.9821053E-4
-0.00241944
-0.0053690583
-0.0062486455
-0.0041403617
-0.003704689
-0.0019961686
0.0031000539
0.006159849
0.0051376084
0.0019357146
-0.0017045016
-0.003911799
-0.0036885
-0.0016403567
-3.594056E-4
3.5469717E-4
0.0050952826
0.008661022
0.0034268685
-0.0020382341
-0.0021536294
-0.0022702715
-0.0032478338
-0.0034002112
-0.0015444909
8.178858E-4
0.003004803
0.0067544966
0.006872488
0.0028139516
2.51731E-4
-0.0010541322
-0.001239328
-0.0022899683
-0.0044344543
-0.0035858387
-7.206207E-5
0.00559302
0.0077774534
0.0031530787
-5.074693E-4
-0.002995023
-0.0056993747
-0.005944665
-0.004523238
-7.675597E-4
0.0021298318
0.0024724992
0.0025007236
-6.65089E-5
-0.0033908347
-0.0046365806
-0.004517014
-0.004611265
-0.0050882255
-8.1507815E-4
0.0053651775
0.0082475
0.008436431
0.0027679417
-0.003515111
-0.005139901
-0.005789369
-0.0035924949
-2.3365767E-5
0.0031867572
0.0077312156
0.010416336
0.0105460575
0.0062048296
-5.087261E-4
-0.0022259962
-0.0015264796
-0.0013239983
-0.0021193482
-0.003011773
5.0658E-4
0.0035713008
0.001821729
-0.001510877
-0.006236154
-0.008927993
-0.0058288546
-0.0012760825
8.561043E-4
0.0018619628
0.0032532553
0.004095893
0.0025257145
-0.001930251
-0.005349734
-0.004155314
-0.00184959
-0.0015900605
-9.029279E-4
0.0010606381
0.0022958773
0.0041340515
0.0053783692
0.0019478163
-0.0016171756
-0.0018530212
-0.0015983923
-7.781249E-4
-3.2921438E-4
5.9026606E-5
0.0018618269
0.00336117
0.003462873
6.9654087E-4
-0.0018654186
-0.0021869245
-0.0036483807
-0.0027939822
-9.217977E-4
-0.0014060223
0.002982117
0.008859383
0.0071315467
0.0010905521
-0.0039008695
-0.00621802
-0.0064867437
-0.004982892
-0.0020320173
1.7326252E-4
0.0019610894
0.0040380796
0.0044635152
0.0015324096
-0.0020948485
-0.0014744818
7.299786E-4
-9.241197E-5
-7.5015234E-4
5.0175044E-4
0.002106792
0.0050228946
0.006353487
0.0019450117
-0.0036045986
-0.0052043395
-0.0050291754
-0.0042526666
-7.306471E-4
0.002660872
0.0022106995
0.0028914725
0.0036305164
-0.0024534485
-0.0060317344
-0.0023946022
-8.5037603E-4
3.8704503E-4
0.001748013
3.991487E-6
0.0017341867
0.0059476392
0.00595568
0.0019519395
-0.0041295253
-0.009013732
-0.009866233
-0.006745199
-0.0025422582
-1.836828E-4
0.0018719364
0.004159497
0.004970179
0.0037306135
7.3076587E-4
-0.0010400796
-0.0011937936
-0.0027391128
-0.003406407
-4.057806E-4
0.0026665386
0.0031555404
0.0022734266
-9.330149E-4
-0.004574574
-0.0019022601
0.004978312
0.00948828
0.012351955
0.013995305
0.014165165
0.012495128
0.0043507046
-0.0088546835
-0.017799756
-0.0152918035
-0.005624887
-0.0020167304
-0.0047808667
-0.0056141517
-0.004148925
-7.4378686E-4
0.0017170312
2.1706757E-4
-0.003120657
-0.0076759895
-0.009109332
-0.005894349
-0.0025547876
0.0012689389
0.003931905
0.004428111
0.0035436607
-6.984758E-4
-0.0032605794
-0.0016760407
-2.9217676E-4
0.0011522091
0.0041659484
0.009064538
0.013704327
0.016412932
0.015402656
0.008221395
0.0011256449
-0.005493674
-0.014040294
-0.013895061
-0.008003708
-0.0065351357
-0.0027127175
0.004652762
0.007482077
0.0055656983
0.0021109828
-0.0015308106
-0.004824196
-0.009001334
-0.012170018
-0.008864781
-0.0024344232
0.0016388838
0.0052126595
0.005374275
-3.4784846E-4
-0.0057284627
-0.005902519
-0.0021082743
0.0019675586
0.006548335
0.011688953
0.014553784
0.014617343
0.011054988
0.0060672113
0.0021944153
-0.0022422655
-0.005028342
-0.0048072916
-0.002384765
0.0019284065
0.004136185
0.0026553816
-0.0010860105
-0.0041147512
-0.00489556
-0.007366057
-0.009449707
-0.007896854
-0.006845515
-0.00647265
-0.0057710516
-0.0069483463
-0.009716759
-0.012064034
-0.013543331
-0.017169965
-0.020643404
-0.014731021
-0.0018709449
0.00782012
0.014725978
0.02309343
0.032157596
0.035152238
0.026508344
0.016907362
0.015952108
0.01141549
-0.005318113
-0.025077159
-0.035064813
-0.019615367
0.018871887
0.04582456
0.048820566
0.044585522
0.031410683
0.011922229
-0.012081274
-0.05175516
-0.0714036
-0.042412575
-0.003816899
0.0161848
0.018665224
0.0056395987
-0.019959277
-0.04903689
-0.05746594
-0.046895623
-0.03520797
-0.013842337
0.0092181815
0.01708409
0.02013925
0.023735037
0.026774622
0.030023284
0.023091028
0.014661114
0.02520317
0.030187925
0.008108179
-0.014243909
-0.017703418
0.0013486614
0.027028438
0.037071057
0.0437215
0.0431733
0.029259872
0.00894699
-0.036756657
-0.08287031
-0.09018183
-0.06781077
-0.033155
-0.018754957
-0.017113334
0.0018024484
0.008666823
-0.0025625322
-0.009960999
-0.007773268
0.009961746
0.028132904
0.037345193
0.03253953
0.00741297
-0.010577004
-0.0017700033
0.03236575
0.07649314
0.092943564
0.06671483
0.028767856
0.008894799
-0.020070013
-0.06808782
-0.074553594
-0.03741742
-0.013635289
-0.013971464
-0.021844134
-0.02160141
-0.021197869
-0.037928242
-0.04922352
-0.03761799
-0.018150551
-0.0011484597
0.011168152
0.020534614
0.0301849
0.03692174
0.03422513
0.019862607
0.0049036574
0.001967686
0.0045151887
0.004538651
0.008462146
0.014152343
0.011429156
0.0029676529
-0.004518741
-0.00889142
-0.009416499
-0.0078249145
-0.0055249664
-0.0026335309
-9.838277E-4
-0.0021014672
-0.0045678974
-0.00518952
-0.0015566297
0.003170731
0.0048664953
0.007068318
0.011901859
0.017652445
0.021448856
0.017276004
0.0074834265
-0.006133877
-0.021401329
-0.017828414
0.0029770972
0.0116854785
0.009032831
0.009183702
8.505498E-4
-0.019675706
-0.029422311
-0.020092094
-0.009030159
-0.004513729
-0.0026645972
-0.0016112933
-0.0013013582
-9.658975E-4
-0.0012943882
-0.006988198
-0.013695449
-0.013090218
-0.00770428
-1.1851972E-4
0.005865906
0.006833453
0.006538457
0.0041292375
-0.0013378817
-0.0044410424
-0.0018818949
0.0011071629
1.0069379E-4
2.73618E-4
-4.6699637E-4
-0.0036421318
-0.0055016014
-0.008233163
0.0048174933
0.037042428
0.057497647
0.062967464
0.065545715
0.059656687
0.03232304
-0.022098714
-0.06669984
-0.06714313
-0.044231333
-0.022077909
-0.009592913
-0.008287608
-0.00709182
-0.0055895126
-0.007120078
-0.0071611097
-0.007323397
-0.007576526
-0.005714128
-0.006476338
-0.010385171
-0.012448049
-0.011243036
-0.00770094
-0.004177703
1.1241888E-4
0.008295552
0.017263658
0.02340095
0.023154857
0.015838558
0.011263402
0.010563293
0.007334788
0.0042147296
0.0013563873
-0.0011575514
4.9180316E-4
0.0027084649
1.3315315E-4
-0.006329048
-0.01097817
-0.011287008
-0.009497771
-0.006217151
-0.002360931
0.0016612126
0.005543757
0.008781769
0.011865348
0.009733651
0.0037546228
0.0022624638
0.0011393289
-0.0028634784
-0.0053319875
-0.0055242237
-0.0035288867
-0.0015249491
-0.0014545151
-0.0039560553
-0.009914955
-0.01274945
-0.009343767
-0.0056498377
-0.0024131378
0.0018494668
0.0060302746
0.008418749
0.007415709
0.0040114713
-2.8447635E-4
-0.0021737525
-5.8164203E-4
5.086369E-4
0.0014596075
0.002418749
0.00298168
0.005402839
0.0049735894
-5.3323625E-4
-0.0052411146
-0.006776619
-0.006636405
-0.005500983
-0.002425496
4.76916E-4
0.0023338643
0.005263759
0.004417307
-5.056126E-4
-0.0032305208
-0.0046026134
-0.0048889206
-0.0027855316
-4.899191E-5
0.002651292
0.0060176104
0.008992802
0.008065769
0.0048213424
0.0018887612
-9.275463E-4
-9.277442E-4
-8.235745E-4
-0.0018573565
6.3672516E-4
0.003389971
0.003582972
0.002127838
-4.897465E-4
-0.0029891098
-0.0059838565
-0.0060881763
-0.003625588
-0.0039496087
-0.0035435003
-2.3507626E-5
0.0038637335
0.004824782
0.0014191143
-0.0010557196
-0.002370866
-0.004511708
-0.0036516967
-0.0019311506
-0.0014473657
2.6549262E-4
0.0026808924
0.0051473333
0.0049551134
9.647947E-4
-0.0022124173
-0.0035157467
-0.002487468
1.4182396E-4
-0.0017070044
-0.0039240676
8.7344885E-4
0.0055306912
0.0040061283
-4.5831318E-4
-0.0040458785
-0.0040792604
-0.0018675474
-4.662011E-4
1.765481E-4
0.0023715792
0.006112709
0.0073711695
0.0059653968
0.003455463
2.8165352E-5
-4.234138E-4
4.0045482E-4
-0.0012189627
-0.001348682
-1.9408904E-4
9.541684E-4
0.0029850104
0.0013609073
-0.002738034
-0.0045496216
-0.005766493
-0.005234019
-0.002595816
-7.4635365E-4
0.0025293722
0.0054468666
0.0038510165
7.575141E-4
-0.0025159116
-0.005115334
-0.004508287
-0.0033823396
-0.0032524462
-0.0018477051
0.0011264272
0.003334975
0.002904922
8.503367E-4
-0.0015978452
-0.0027321202
-0.002380818
-0.0025383185
-9.077526E-4
0.002835976
0.005528957
0.006810776
0.0058834488
0.0034042143
6.2291994E-4
-0.0019906498
-0.0027539472
-0.00188863
4.2408827E-4
0.0013140602
0.001207535
0.0059032245
0.008228863
0.0042629037
0.0011353187
-0.0035064586
-0.0066693546
-0.0040595443
-0.002954506
-0.0026026333
-2.2818762E-4
0.0020527435
0.0030302173
6.083512E-4
-0.0026913716
-0.0058252746
-0.0074843764
-0.004014236
-0.001312633
1.9758E-4
0.0038922597
0.0044077984
0.003693049
0.002763212
-0.0018071645
-0.004193836
-0.0035662877
-0.0043201777
-0.0038141585
-9.5975195E-4
0.0023885933
0.0060291383
0.0066449125
0.003049629
0.001603433
0.0020928457
6.8851747E-4
7.684179E-4
-9.834603E-5
-0.0030449412
-3.4189434E-4
0.005481305
0.006305764
0.002094748
-0.0024465395
-0.00434435
-0.005301549
-0.0047713164
-0.0016449377
7.2659436E-4
0.0018534277
0.0030738555
0.0037777494
0.003192661
1.2637314E-4
-0.003601014
-0.004061501
-0.0025848604
-0.0023431592
-0.0024382842
-0.0016904514
0.0011216003
0.004076125
0.0019801548
-0.0017438846
-0.002887504
-0.003083157
-0.0013613643
3.44202E-4
1.1931809E-4
3.1699493E-4
0.0015062953
0.0032335075
0.0025861904
-7.672125E-5
-0.0011792785
-0.0014547204
-4.768372E-4
4.6131096E-4
-2.563609E-4
1.5263957E-5
0.0017371837
0.0043332675
0.004263472
3.7653075E-4
-0.0024016923
-0.0036235002
-0.0029380776
-0.0013676344
-0.0012893522
5.627587E-4
0.0028706177
0.0037446995
0.0040008277
8.838651E-4
-0.0036699055
-0.005523002
-0.0033858712
1.6220134E-5
-1.5725407E-5
4.0709216E-5
0.0025654978
0.0042467644
0.0043864436
0.0016725757
-0.0017016397
-0.002778097
-0.003579951
-0.0026029516
-1.0385613E-4
7.303606E-4
0.002061071
0.003778919
0.0033226921
0.0013234847
-0.0017645519
-0.003793463
-0.0031675533
-0.0026750383
-0.0022567974
-4.5624445E-4
0.0017633603
0.004802107
0.005245653
-5.53946E-4
-0.006336811
-0.0069004297
-0.004116561
-3.2214096E-4
6.6540745E-4
-4.964594E-5
0.0024554867
0.0050121853
0.0052453526
0.0027821201
-0.003179743
-0.0042989417
-0.0010516711
-0.0019315655
-0.001606826
0.0012698928
0.0026525655
0.0042228657
0.003912347
0.001285864
-0.0023550068
-0.0038732956
-3.1511506E-4
5.119492E-4
-9.747022E-4
0.0021363948
0.0041881097
0.0032090687
0.0029544677
0.0016262239
-0.0014232155
-0.0019979223
-1.4175584E-4
-7.566609E-4
-0.0015836403
-0.0011422586
-7.683516E-4
0.0024665329
0.003189465
-0.0014663056
-0.0047256984
-0.005928309
-0.0051406724
-0.002894325
-0.0015456228
8.5777174E-5
0.0023724358
0.0052301497
0.005349865
4.9704243E-4
-0.0034898422
-0.0034463503
-0.0022137982
-0.002290432
-0.0018671443
2.2843089E-4
0.002076008
0.0050497623
0.0061081396
0.001514485
-0.0024159797
-0.002899908
-0.0032770731
-0.0031312045
-7.085214E-4
0.0013817523
0.0018886798
0.004696155
0.0063821343
0.0025791053
-8.9719746E-4
-0.0012457621
-7.1998656E-4
-0.0010041404
-0.002150798
-0.0018338027
0.0014444537
0.0065533835
0.0073184967
0.0022805522
-0.0020318613
-0.003610556
-0.0031723797
-0.003889747
-0.005391263
-0.0021974307
0.0014688874
0.0037560835
0.0057328995
0.0024028188
-0.0030129359
-0.005970372
-0.0056980248
-0.003460529
-0.003146781
-0.0012039681
0.0020641005
0.0043115052
0.00650285
0.0023825548
-0.0027130398
-0.0024929438
-0.0045372327
-0.0048333
-8.4459985E-4
0.001444487
0.0036964072
0.0049540587
0.004446735
0.0031891342
-6.2410627E-4
-0.0020299186
-2.1315928E-4
-0.0019805422
-0.00376581
-0.0011973487
0.0018898556
0.0055189
0.006309503
-2.0389589E-4
-0.0048286202
-0.0043843747
-0.004893202
-0.0037757177
-3.6365914E-4
0.0022943444
0.0038641274
0.004805147
0.0063650357
0.004465829
-0.0010811592
-0.0025549014
-0.0023653102
-0.004502355
-0.003430541
4.6060342E-4
0.0024791239
0.0045558936
0.004944103
4.0206165E-4
-0.0027466635
-0.0035090256
-0.005229378
-0.004130989
-0.0020770133
-0.001969982
-2.653555E-4
0.003324617
0.0053369943
0.002340116
-0.001981817
-0.0032061632
-0.003556076
-0.0021606367
-8.2513894E-4
-5.943162E-4
0.0032053133
0.0059591285
0.0046837805
0.0022098988
-0.0021102757
-0.0034257655
-0.0016167869
-0.002999259
-0.0034851567
2.9243188E-4
0.003678141
0.0049918313
0.005404868
0.0030153552
-0.0022379386
-0.004225011
-0.0028730805
-0.0037580165
-0.00436768
-0.002080196
0.0010058985
0.004820914
0.006516172
0.003191295
-0.0011629001
-0.0030294314
-0.0029804
-0.0028149255
-0.0034514698
-0.0021287282
0.0020462296
0.0046985517
0.0045783226
0.0031821935
2.0919503E-4
-0.0022321008
-0.0023822992
-0.0023591856
-0.0019203699
-3.4504614E-4
8.803421E-4
0.0029139703
0.004678669
0.002402559
-0.0016935013
-0.0038682327
-0.0037240554
-0.0026714904
-0.002961831
-0.0021121982
0.002162101
0.005491276
0.0061660595
0.003941125
-0.0012731886
-0.0032654123
-0.0021072319
-0.0026283965
-0.0024116405
-0.0017713312
-1.653975E-4
0.0042251023
0.005079155
0.0030629227
8.962411E-4
-0.0041544084
-0.006204576
-0.0043550706
-0.0030272098
-2.7521802E-4
0.0018021124
0.003866667
0.006056069
0.0035702756
2.5421148E-4
-0.002583124
-0.004320298
-0.0017836614
-0.0017659597
-0.0025323855
0.0014185014
0.004036747
0.004827236
0.0030166537
-0.002126657
-0.0040083593
-0.004086702
-0.0034999503
-6.660104E-4
0.0019516046
0.005978695
0.0070892065
0.0029374408
9.4070996E-4
-0.0018804787
-0.005444807
-0.0039836094
-0.0025894456
-0.002182947
-0.0017562401
-0.0011261393
0.0039528445
0.0065833353
0.002856596
-7.340956E-4
-0.0039837104
-0.0050976085
-0.0031868005
-9.5742696E-4
0.001648406
0.0014602006
0.0011840421
0.0046837036
0.005466772
0.002185334
-9.011546E-4
-0.0017135019
-8.0461736E-4
-0.0010158235
-6.231035E-4
0.0015141343
0.0034089852
0.0049702115
0.0031929035
-0.002373725
-0.005936318
-0.006658864
-0.007061418
-0.0050638923
-3.704058E-4
0.0024962772
0.003098743
0.0034933346
0.0029519403
5.114908E-4
-0.0029587243
-0.0031882704
-7.110756E-4
-6.596644E-4
-6.172457E-4
0.0011010126
0.0029566414
0.0053624418
0.004572244
-1.1370413E-4
-0.003770698
-0.0034662916
-0.0013630177
-0.002290232
-0.0017279753
0.002512265
0.0033519238
0.003991866
0.0046313824
-2.4471869E-4
-0.003272547
-0.003168167
-0.0049826996
-0.004081331
-0.0011708762
0.0010024701
0.005422227
0.007627143
0.0047516967
0.0012199376
-0.0032513794
-0.0061946074
-0.00464643
-0.00382256
-0.00220243
0.0031423108
0.005587948
0.0045506717
0.0035552827
0.0014014443
-8.535744E-4
-0.002193532
-0.0037596887
-0.0045607896
-0.0032002847
2.3176082E-4
0.003929501
0.0052271346
0.003184901
-6.4423913E-4
-0.0034918378
-0.0043542422
-0.004071424
-0.0023158458
-2.3309734E-4
4.5288584E-4
0.0022773226
0.005073628
0.0049580904
0.0016999547
-0.002939669
-0.004584994
-0.0020751776
-0.0021349099
-0.0030479375
9.0186734E-4
0.005102475
0.006594103
0.0053954776
5.941729E-4
-0.0035709264
-0.005163506
-0.005702348
-0.003170784
9.3761773E-4
0.0024359068
0.0034658038
0.0052187336
0.004394083
0.0010861427
-0.0025618535
-0.0036775388
-0.0019415304
-0.002241569
-0.0030839646
-0.0010195698
0.0010554782
0.0030698
0.00386906
9.466005E-4
-0.0023740025
-0.0043013627
-0.004421697
-0.0017577108
7.597366E-4
0.0018800425
0.0040855
0.006558087
0.005729924
0.0014148655
-0.0036270127
-0.005426442
-0.0021770692
4.5073847E-4
-5.02842E-4
-8.644957E-4
0.0011302341
0.0054679927
0.006473345
3.0969395E-4
-0.0039230385
-0.0044180467
-0.005169333
-0.0035863721
-0.0019976748
-7.0931134E-4
0.002603087
0.004286677
0.0039492147
0.001761822
-0.0016978357
-0.003317406
-0.0037978936
-0.0023616583
-1.7018444E-4
8.450888E-5
0.0028650109
0.00782609
0.008158271
0.0026312552
-0.0034563385
-0.0054819663
-0.0052782786
-0.0031077298
4.5588956E-4
3.6551166E-4
-1.4867814E-4
0.0019681358
0.0030212607
0.0023927118
-9.027088E-4
-0.0036162895
-0.0024350358
-0.0021777484
-0.0019390448
-1.5923753E-4
0.0014770606
0.005056657
0.0058879303
0.0010163136
-0.00344018
-0.005792338
-0.0055175964
-0.0021610938
5.7973946E-4
0.0021218192
0.0050826217
0.008212297
0.0074301204
0.0033001974
-0.0012482572
-0.0039922744
-0.0028323599
-0.0019833387
-0.0027193043
-4.967249E-4
0.0018302264
0.002967065
0.0037440513
0.001127065
-0.0028811803
-0.0061892695
-0.0065463064
-0.0027793648
-0.0019619775
-0.0026560929
0.0010314499
0.0036790827
0.003048211
0.0016724061
-3.3063095E-4
-0.001175129
-0.001428969
-0.002332098
-0.0017356562
-3.614233E-4
0.0017171473
0.0060996553
0.007696894
0.004089269
4.4465156E-5
-0.002850773
-0.004017358
-0.0034590159
-0.0016939179
0.002068536
0.0043834387
0.004959321
0.0055389106
0.002218728
-0.0028194666
-0.00518254
-0.005945335
-0.0053974935
-0.0045697005
-0.0023732183
0.0024741814
0.0050552995
0.0034519893
9.291838E-4
-0.0012301211
-0.0024317496
-0.0024723173
-0.0023874654
-8.4965053E-4
0.0013829466
0.0014998977
0.0033365884
0.0060173026
0.0031895237
-0.0014230472
-0.003728131
-0.0037084273
-0.0021745819
-0.0019829164
-6.587679E-4
0.0020425464
0.0034281558
0.004462383
0.0027775515
-2.7914243E-4
-0.0020746381
-0.004524613
-0.0046122707
-0.0020807895
-6.725763E-5
0.0026590195
0.0049180663
0.004368889
0.002206581
1.988583E-4
-0.0014613569
-0.001807627
-0.0011589802
-0.0025231563
-0.0025526492
0.0024893542
0.0066673085
0.0052388217
8.126507E-4
-0.002866244
-0.005709324
-0.0075302795
-0.006651719
-0.0042393133
-3.0802705E-4
0.0038083259
0.0051698973
0.005847536
0.0040986184
-0.0012661746
-0.0031047496
-0.0013853922
-0.0011345051
-0.0017694216
-0.0022615253
-1.9629774E-4
0.004701035
0.0056009847
0.001958446
-7.3401997E-4
-0.0024569267
-0.0032129532
-0.0030014187
-0.002937102
-3.9104169E-4
0.0035693136
0.0057231286
0.006650859
0.0054411762
0.0015997684
-0.002402503
-0.0033841445
-0.0022969856
-0.0028362328
-0.002252572
7.38937E-4
0.0030157429
0.0043370896
0.0019241445
-0.002567053
-0.0033363733
-0.003804487
-0.004789823
-0.002651284
-2.4320505E-4
0.0012536831
0.0032022665