-0.044779573
-0.0021216404
0.008225618
0.009463653
-0.0059658615
-0.025820035
-0.020994453
-0.015791947
-0.018523438
-0.011213032
-0.005555513
-0.0070052342
-0.0069390237
-0.0035872112
0.016253702
0.038653005
0.025812734
0.004417227
0.0013770021
0.001766814
0.011822394
0.017359497
0.019773077
0.030978391
0.014857557
-0.0020564166
0.009002082
0.02289461
0.0478719
0.047034148
-0.0038745834
-0.04953114
-0.06653003
-0.037687693
0.02722289
0.06136458
0.046377763
0.016986901
0.022306483
0.07298516
0.085550286
0.010891539
-0.07139181
-0.10019461
-0.09075051
-0.062110517
-0.047024585
-0.03582763
-0.002183826
0.010730106
0.016291073
0.02922727
-0.007528204
-0.052315995
-0.056376923
-0.053761095
-0.04003278
-0.007376636
0.026902499
0.061226908
0.08309825
0.060822316
0.006267552
-0.028167458
-0.038566075
-0.02133156
0.03037876
0.069922
0.09499453
0.09698831
0.053060334
0.03031145
0.015313627
-0.04691803
-0.07478822
-0.04459497
-0.021767696
6.2723283E-4
0.026112875
0.022188984
6.0953497E-4
-0.02637539
-0.069895044
-0.090284884
-0.056447595
-0.023279443
-0.019835874
-0.014629388
-0.0062766494
-0.0077483533
-0.0040644156
0.011394231
0.016227623
0.0017316728
-0.009095647
0.012723023
0.056635763
0.05763068
0.01899341
0.013917887
0.016050652
-0.015607931
-0.025952466
0.0013665338
0.012169995
-0.0044959188
6.328739E-4
0.03513472
0.057150282
0.038649734
-0.025269141
-0.05090823
0.022533633
0.10039106
0.10572033
0.021018988
-0.1016179
-0.13999444
-0.1070364
-0.053529114
0.008569334
0.019129764
0.016633462
0.0640377
0.12244722
0.11740483
0.011522763
-0.083837956
-0.111235715
-0.13405645
-0.09420706
4.179631E-4
0.04247624
0.049123578
0.027730359
-0.03295862
-0.059489585
-0.026245482
0.0031273128
0.0044634687
0.005411261
0.005708205
-4.9106195E-4
-0.010718253
0.011480496
0.098206684
0.1485077
0.113505006
0.062035162
-0.006678189
-0.05372167
-0.057809938
-0.08390173
-0.08153641
-0.03667477
-0.017596468
3.9672965E-4
0.020422045
0.039694488
0.0759244
0.078299634
0.050120875
0.022305556
-0.033403344
-0.091850914
-0.11035579
-0.09847523
-0.056939192
-0.0014114558
0.019740744
0.018897375
0.037881307
0.042761024
0.024861483
0.032228127
0.029489683
-0.011441545
-0.02118793
0.013538701
0.028995143
0.006029978
-0.025916724
-0.033994626
0.012240772
0.07425887
0.06491992
0.015748525
-0.020105723
-0.076159954
-0.10432972
-0.06395869
-0.023570042
0.011962014
0.036528565
0.0013453746
-0.025652936
0.01708459
0.06031026
0.05767752
0.033219542
0.0035147488
-0.029553566
-0.049986463
-0.028723907
0.003917396
-0.010290427
-0.032323442
-0.006709994
0.040111076
0.072510384
0.091425814
0.1049681
0.090690315
0.038198225
-0.030644117
-0.10191878
-0.12835039
-0.091474555
-0.049616903
-0.019420357
0.001666174
0.0010930351
-0.010949123
-0.023917992
-0.021164812
-0.013651547
-0.021713173
-0.024478419
-0.023197414
-0.023291096
-0.016555076
-0.011567625
0.01618897
0.08588431
0.14515105
0.15413533
0.13334504
0.060141042
-0.0708579
-0.13145775
-0.0894305
-0.053184096
-0.032290354
0.00887656
0.07241337
0.12165321
0.097341195
0.03945308
-0.014777952
-0.079775594
-0.10171954
-0.06334274
-0.021766037
-0.0076999133
-0.0066422904
0.005098459
-0.004439568
-0.048032008
-0.06023213
-0.023759361
0.011502545
0.019312996
0.010478773
0.0049562524
0.016361713
0.032416172
0.02267636
-0.0026869492
-0.0095990375
-0.0058371006
-0.008710185
-0.005610385
0.0059788907
0.010561304
0.013883716
0.016569102
0.012647211
0.018519484
0.019061835
0.0020993627
-0.00780895
-0.021644484
-0.031846624
-0.010131979
0.009942719
0.01630699
0.03521932
0.050962973
0.043772236
0.016877702
-0.019854372
-0.039248966
-0.035101138
-0.03309577
-0.026602125
-0.0065014763
-0.0023269886
-0.013877566
-0.002993406
0.029438378
0.03428779
0.016639948
0.018982317
0.007476438
-0.013276992
0.0014082659
-0.004077146
-0.03849965
-0.044669457
-0.02846475
-0.010620373
-0.01184638
-0.015266533
-0.0012842
-0.014640742
-0.031566102
-0.0072355983
0.02921914
0.076705806
0.11399525
0.083049364
0.013227572
-0.03003671
-0.03434071
-0.012397503
-8.998583E-4
-0.03471641
-0.072838
-0.06247398
-0.022195859
0.012777545
0.031662025
0.03801278
0.03622533
0.029088445
0.01883282
-0.008399633
-0.049368948
-0.058363874
-0.015745642
0.016837886
3.8841213E-4
-3.9203404E-4
0.025902968
0.03271364
0.04595459
0.040859688
-0.021640263
-0.058621008
-0.0388641
-0.01617705
0.010476341
0.04872214
0.07529898
0.08877283
0.07866196
0.021180723
-0.047501262
-0.08432894
-0.08572575
-0.047781143
-0.01648289
-0.027716633
-0.03403923
-0.022888329
-0.015970077
-0.0125651965
-0.014133046
-0.0100965835
0.0024245991
0.007392049
0.00844129
0.021981928
0.031020857
0.013402726
0.005566534
0.018815875
0.012823622
-0.005074106
-0.011138091
-0.012347523
-0.025713187
-0.026554875
0.026531005
0.08357606
0.10665636
0.11822374
0.10469493
0.069270745
-0.008818993
-0.12338306
-0.14981818
-0.08884608
-0.05306093
-0.045385107
-0.02345876
0.018886477
0.035815272
0.012466456
0.0048093847
-0.0022934682
-0.03373081
-0.040647462
-0.018694269
-3.6279322E-4
0.0059204716
0.0071456404
0.02023463
0.041421395
0.053903297
0.051511798
0.019783687
-0.030188153
-0.047237363
-0.028760646
-0.0151360985
-0.0077059995
5.0120393E-4
0.003537734
0.008282438
0.015443154
0.021604579
0.02319378
0.014341098
9.1391685E-4
-0.015593044
-0.028107472
-0.022872852
-0.015515767
-0.00944159
0.011131907
0.024411893
0.02960169
0.05459105
0.060277745
0.01185782
-0.04568527
-0.06831885
-0.042842418
0.0035881074
0.026263593
0.03588849
0.028029319
-0.019734325
-0.052434206
-0.041189235
-0.025912246
-0.019744474
-0.019000076
-0.004863245
0.030905826
0.039851993
0.009945256
-0.016181383
-0.024716806
-0.019190842
-1.5875335E-4
0.038522534
0.090364724
0.104750134
0.061613638
-0.007972987
-0.0724691
-0.082567334
-0.042606585
-0.017889418
-0.008857415
-0.0032255782
-0.004638635
0.009510027
0.013015011
-0.009461447
-0.018334726
-0.012593286
-0.0022866565
-0.0037313339
-0.021072956
-0.009375662
0.020017484
0.03842942
0.05082194
0.021953601
-0.02914867
-0.03405108
-0.011170941
-0.0012106771
5.1111594E-4
0.0054738973
0.014139807
0.01999766
0.013368337
-0.009553738
-0.025634827
-0.0069655883
0.035019577
0.055542637
0.02674403
-0.023234047
-0.052079365
-0.04537684
-0.016345812
-6.0130446E-4
-0.0043473644
-0.0060483553
-0.008037106
-0.010722351
-0.0024962944
0.007926297
0.01463374
0.03684626
0.061013784
0.048782393
0.015017469
-0.024518698
-0.061626393
-0.051945377
-0.016200045
-0.008477241
-0.012542489
-0.007875281
0.0064280354
0.018651217
0.014624469
0.015680434
0.021620814
0.016696109
0.017902989
0.015945757
-0.0040314603
-0.0155485645
-0.013993381
-0.01788006
-0.020287395
-0.02135201
-0.031139245
-0.026892353
-9.626685E-4
0.01741318
0.0219762
0.018868586
0.019486994
0.030251091
0.017721334
-0.00811366
-0.01091964
-0.017873045
-0.02246473
0.0019885579
0.020140968
0.015777709
-0.0036161009
-0.024193926
-0.018932741
4.2913904E-5
0.02345358
0.048880775
0.03764439
-0.0017275775
-0.018419756
-0.010555375
-0.0067168656
-0.017147375
-0.022878231
-0.011815027
-0.0035319296
-0.005165971
-0.0045269197
-2.3258454E-4
0.002940696
9.0134674E-4
8.66022E-4
0.00581238
-0.0032329645
-0.014393149
0.0017803727
0.017005315
-0.0012652824
-0.020223351
-0.01203801
-0.0047441134
-0.0064745713
0.006012194
0.017513758
0.017852997
0.020067625
0.008083429
-0.01178635
-0.01228721
-0.005009794
-0.0017287787
0.003285913
0.008564136
0.0034291863
-0.007336708
0.007794723
0.044152662
0.050985374
0.013587307
-0.025125306
-0.027157001
-0.011403758
-0.013420824
-0.029090613
-0.03365711
-0.018159626
-0.0033646622
-0.004160086
0.003136119
0.021403583
0.015409219
-0.010851977
-0.021713898
-0.0033465244
0.037297416
0.048904795
0.001686661
-0.027908513
-0.013906347
-0.018244408
-0.02572771
-0.008767897
0.0056122225
0.011331354
0.010061543
0.008903428
0.018767219
0.02972122
0.029610192
0.010318085
-0.010609364
-0.015765168
-0.015848633
-0.0092528695
-0.005405416
-0.008385723
-0.0022762013
-0.0043604686
-0.00950724
-0.004985178
-0.015419667
-0.023078226
-0.008302716
0.012143115
0.0306125
0.0329176
0.021953776
0.005411762
-0.022489974
-0.033493612
-0.017148694
-6.3282915E-4
0.0053317724
-0.0026884323
-0.01263246
-0.0043019345
0.010520927
0.014339589
0.016941985
0.026822427
0.030382305
0.016082982
-0.016533483
-0.0384366
-0.014648596
0.013761067
0.004967531
-0.0063043274
-0.0054233647
-0.011732665
-0.021744542
-0.015407567
0.0047595897
0.005894409
-0.0032857845
0.0032927191
0.011491603
0.022021586
0.028626924
0.016688133
0.009223041
0.0013590896
-0.016972044
-0.023263216
-0.024340337
-0.019766955
0.0018255935
0.016234167
0.017161433
0.011098378
-0.0035705152
-0.0073718056
-0.0042190785
-0.011821769
-0.011486398
-0.0034760062
-0.008287946
-0.013609558
-0.010561881
-0.009527836
-0.010680846
-0.011166996
-0.004818831
0.009152889
0.0151091665
0.01583516
0.019497901
0.01881232
0.01988107
0.019611001
0.015737098
0.018664276
0.0052143945
-0.015897647
-0.005941126
0.0052671577
-0.00260327
-0.0050902567
-0.0032573722
-7.0368603E-4
0.0023235977
-0.0034332282
-0.014551529
-0.013129059
0.008315051
0.017354095
-0.00372142
-0.016649513
-0.004915404
0.0060586752
0.0024333529
-0.008119107
-0.01280045
-0.012742212
-0.015822703
-0.018855805
-0.01886986
-0.016794145
-0.014998278
-0.008958058
0.017901743
0.050183386
0.053510033
0.0375665
0.014426044
-0.016618224
-0.0293993
-0.02358304
-0.022572467
-0.016585583
-9.19968E-4
0.015562269
0.032063805
0.02880721
-4.7484346E-4
-0.018470503
-0.010728141
1.7332586E-5
0.0032790601
0.0058621354
0.01984901
0.030680439
0.0076110093
-0.023108896
-0.022924926
-0.012740471
-0.018149637
-0.027203253
-0.01890796
-0.0014852022
0.0050921733
0.007421816
0.017014408
0.031780627
0.0316308
0.0031911798
-0.02336812
-0.021330932
0.0057009654
0.04219024
0.06721273
0.056163866
-0.014069338
-0.0845169
-0.074700706
-0.033688117
-0.0153539805
-0.0049876524
-0.0026495059
0.0032394547
0.014897963
0.023941329
0.03523361
0.026048845
0.0019879371
-0.011258744
-0.021763595
-0.022673938
-0.012448596
-0.0078117866
-0.005575488
5.4164155E-4
0.004352686
-0.0015283168
-0.005679216
-1.7806467E-4
0.0081750825
0.02077522
0.025434826
0.019000618
0.01291857
-0.0010150946
-0.0106415665
-0.007869399
-0.010233903
-0.008270872
-3.1745035E-4
-0.007825525
-0.02783195
-0.02998582
-0.003049705
0.024269361
0.04271635
0.052651256
0.04029588
0.027538987
0.0233325
0.006069413
-0.020607814
-0.04430783
-0.04448783
-0.020416051
-0.008638574
-0.012110228
-0.010696552
-0.006083488
-0.0020283996
0.0022847916
8.7756343E-4
-0.01142404
-0.02081352
-0.011095399
0.007563006
0.010757268
-0.0012006033
-0.0029247354
0.0033006778
0.0020041508
0.0027092574
0.009128097
0.013306423
0.0076374933
6.8298116E-4
0.01025145
0.028010463
0.045770887
0.044267815
0.0048687914
-0.03161048
-0.043764032
-0.040846284
-0.019530864
-0.009309518
-0.013654745
-0.0066781957
-0.0010301806
-4.7967123E-4
-0.0020627636
-0.005875628
-2.2031923E-4
0.010426563
0.020111429
0.023670912
0.026786216
0.034964506
0.018075317
-0.012812588
-0.02519731
-0.031561695
-0.024009172
-7.633403E-5
0.024218377
0.044783663
0.031434838
-0.0026341155
-0.006366378
0.0020416041
-0.008286373
-0.025505694
-0.033053175
-0.03312562
-0.026909271
-0.008029505
0.0031051845
6.518317E-4
0.004056989
0.009442945
0.012210583
0.0027093566
-0.01439581
-0.015860451
-0.008393496
0.018482408
0.049285993
0.036064226
0.016381219
0.0070695872
-0.022890106
-0.03613261
-0.020651845
-0.010127643
-0.0054848823
-0.0039857635
-0.004316044
0.0012808
0.010229525
0.012127544
0.012157274
0.017864715
0.0062472713
-0.020496517
-0.027416686
-0.017707974
-0.013002743
-0.014593106
-0.0074839266
0.014326634
0.030681353
0.030638874
0.025517194
0.02399349
0.02193717
0.014806261
0.0070999
-0.004488766
-0.012806418
-0.0031868208
0.0026665952
-0.0042729815
-0.00477767
-0.0012562261
0.016037028
0.03805367
0.013047265
-0.034092177
-0.048491832
-0.05140179
-0.04966678
-0.031591553
-0.017537955
-0.006119212
0.009120014
0.016550628
0.007887148
-0.018771315
-0.033828024
-0.016485192
0.004241589
0.012291904
0.019070541
0.026894238
0.026856478
0.013744215
0.0062960917
0.021173099
0.036148693
0.032692567
0.021766996
0.009869311
0.008317751
0.023186
0.03195701
0.029719021
0.011660788
-0.029056177
-0.047719613
-0.03424296
-0.028913753
-0.03390045
-0.045321543
-0.052453093
-0.028659888
0.013037712
0.030592697
0.008931384
-0.009509284
-0.008875159
-0.017493926
-0.014693806
-0.008977723
-0.016628122
0.010500813
0.03608308
0.021237131
0.018832883
0.016627153
-0.0030885614
-0.002945382
0.026505657
0.07009857
0.083934754
0.048763715
-0.0075916625
-0.064920075
-0.08621659
-0.06291724
-0.028717155
0.0063548004
0.026243981
0.024619116
0.013791926
-0.003924857
-0.0095771365
-0.008433171
-0.009706112
0.0051979995
0.004566181
-0.017264545
-0.014413005
-0.005153614
-0.0049399515
-7.765862E-4
-0.0051701367
-0.004041168
0.006257004
0.001503176
-0.00257041
0.0060790177
0.010655388
0.0029414752
-0.008729988
-0.008981957
-0.0043576234
-0.0031617023
1.536456E-4
7.5515703E-4
0.0010361819
-9.152435E-5
-0.004687249
0.003600688
0.0155589385
0.023129093
0.039252006
0.045317292
0.02620667
-0.0016992337
-0.0138153555
0.0013203131
0.011972244
-0.008442078
-0.034660053
-0.028166478
0.005390802
0.014637731
7.124639E-4
0.0011194093
-0.0024239526
-0.018875564
-0.03457253
-0.045464117
-0.037256375
-0.027184358
-0.024623808
-0.004718615
0.01717389
0.019363692
0.006899772
-0.003029854
0.006045282
0.015554571
0.012777696
0.0059741996
-0.0025597387
0.0045296433
0.030257242
0.046677407
0.03803987
0.013920054
-0.010584933
-0.024946904
-0.0191755
-0.01025275
-0.014622587
-0.010080393
0.004607752
0.01825582
0.030512543
0.019526921
-0.0172792
-0.04456455
-0.03342474
-0.0057407836
-0.0038245104
-0.014902616
-0.016965963
-0.009913085
0.005349048
0.01302328
0.020553622
0.0280538
0.012362673
0.0054736724
0.026387734
0.037633523
0.030629253
0.016356006
-0.0051189438
-0.019160492
-0.01186669
-0.0049737855
-0.015962102
-0.023270017
-0.023744373
-0.029242048
-0.024886064
-0.011695
-0.0045497967
0.0013853709
0.0058304877
0.0015075791
-0.012431816
-0.025761902
-0.01890437
-0.0014460089
0.002103079
1.7291946E-4
0.0035367908
0.0056800446
0.0068444107
0.012757071
0.019583637
0.021363297
0.026193066
0.027315022
0.019378657
0.026794752
0.03766858
0.03170516
0.01868959
-0.0013041117
-0.012913651
-0.021706337
-0.040404066
-0.034947425
-0.01840616
-0.00824688
0.012278149
0.015564664
0.003818868
-0.0052640066
-0.022669967
-0.024028594
-0.009661447
-0.0045987787
1.942194E-4
0.0074452795
0.010479245
0.0026696434
-0.0121331755
-0.016224585
-0.01112874
-0.008382997
-0.0059443354
0.0037764022
0.0072032395
-0.003499157
-0.0026044697
0.006903724
0.005481559
0.0018728562
0.0018917723
0.012320517
0.02705806
0.01759903
-0.0123710735
-0.029560152
-0.019023465
0.0017754356
0.014078319
0.020190734
0.023885293
0.022615053
0.010374778
-0.0012598304
0.01061444
0.022795754
0.0051939175
-0.019373417
-0.026805121
-0.0151276635
0.0048091635
0.0031489255
-0.018110396
-0.027480308
-0.025924714
-0.01644671
0.0014784597
0.007672794
0.008733324
0.010964637
-0.0015921254
-0.010131991
-0.0022604035
1.3148093E-4
-0.0049317246
-0.008336253
-0.010522094
-0.002982264
0.015800588
0.021672187
0.021000667
0.037319295
0.032620218
-0.0038689307
-0.011904219
0.010759565
0.014222003
-0.0018467888
1.5092426E-4
0.01471756
0.004988248
-0.020563116
-0.037931647
-0.036997087
-0.016835049
-0.0033578677
-0.0019449877
-0.0013715916
-0.0040778248
-0.0032938363
-0.0046183653
-0.0071893185
-0.0026131656
-0.006539398
-0.010655702
-0.0020640779
0.004316201
0.0065405113
0.0061901435
-0.0012410481
-0.0063004154
-0.0015239576
0.0010372187
9.2364417E-4
0.012608667
0.027579483
0.035903104
0.03883767
0.03499797
0.021734983
-0.008879827
-0.032590456
-0.023952143
-0.0051631667
0.009686068
0.0106718065
-0.0011327827
-0.005291842
-0.018281277
-0.033862855
-0.02102004
0.0037359474
0.017691229
0.00833578
-0.016469251
-0.024405034
-0.011625463
0.0020609363
0.0027767548
-0.0026036291
-0.001578242
0.0029284754
0.0077036265
0.0048428983
-0.0015375692
-7.7050755E-4
-1.4074295E-4
0.0052196896
0.008921374
-4.4857E-4
-0.0023207956
0.0061579184
0.015838368
0.027251238
0.03274765
0.024918845
-0.0010513971
-0.029761706
-0.044183455
-0.045831315
-0.031094925
-0.011614812
0.0013268554
0.013061565
0.020109775
0.019620378
0.0035672898
-0.010009398
0.008314533
0.02522429
0.02365525
0.028862594
0.026228826
0.0045907362
-0.015390304
-0.027830428
-0.035051186
-0.026750563
-0.0054487116
0.008957166
0.018279752
0.02652265
0.028229903
0.030263958
0.017525565
-0.018627862
-0.040535096
-0.032325186
-0.022793503
-0.024906518
-0.017861802
-0.0018550559
3.0772417E-4
-0.0029095546
0.0014178052
0.008290418
0.015643276
0.020979414
0.025220448
0.018146684
-0.0072427685
-0.021933096
-0.012650667
-0.0024301142
-1.6050275E-4
0.0036949404
0.0060871285
-2.596763E-4
-0.004485066
-0.0011482596
0.0023475317
0.0034501199
-7.4119517E-4
-0.0045929244
-0.0021776597
2.0975782E-5
0.004671352
0.013732166
0.018613802
0.019513704
0.018583948
0.009913871
-0.0040161726
-0.008085748
-0.004094896
-0.012691054
-0.033528864
-0.039354768
-0.01465086
0.014010049
0.014958925
0.0054037706
0.0053371405
3.089185E-4
-0.0051130317
-0.0057432265
-0.020098904
-0.030416517
-0.019894363
-0.009565174
-0.0030055644
0.0020635626
0.007969854
0.017400246
0.023239113
0.036736973
0.04149011
0.02353881
0.016460802
0.008387092
-0.008469844
-0.012381312
-0.01934498
-0.01804457
-5.5294495E-5
0.008742914
0.004108614
-0.016292911
-0.029087558
-0.011903436
0.0061631096
0.009227192
0.004647473
-0.003062889
-0.011993263
-0.016995367
-0.009621661
-7.718842E-4
0.002771751
0.004353938
0.0044983644
0.013122345
0.01986438
0.010847913
0.0024162796
0.0025795086
0.0029601047
1.6495139E-4
-0.004242725
-0.0043852106
-4.1848194E-4
-0.004312788
-0.008302681
0.0030570214
0.0069253193
-0.0042281956
-0.0058326656
3.9535217E-4
0.009818909
0.020977931
0.01778022
-0.0030721761
-0.023085224
-0.022783726
-0.010542166
0.0014917091
0.010538404
0.007833107
0.0068636066
0.010854725
-0.0013992644
-0.018564735
-0.013925113
0.004025435
8.262455E-4
-0.0059556467
0.009622492
0.0028263277
-0.0136102475
-5.597904E-5
0.0013237831
-0.0071904263
-0.002038718
-0.005117351
-0.0053009577
-3.1412984E-4
-0.0036566444
0.0014233877
0.00986251
0.012285939
0.025383074
0.032811616
0.0084006
-0.015579831
-0.012158719
-0.0061393636
-0.0062827524
-0.004025427
-0.005361529
-0.006482431
8.6053315E-4
0.0120990155
0.017556362
0.009345827
-0.007714004
-0.018813262
-0.021340637
-0.020475222
-0.012182107
-0.0014221276
-7.284234E-4
-0.0010081625
0.005977553
0.009696752
0.00645837
0.0029600556
0.0039498885
0.0052969456
0.0035067094
0.0017137603
0.0011576207
0.012315043
0.025654368
0.008116459
-0.012335832
0.002089291
0.014446202
0.0089948615
0.0074287984
0.0024232906
-0.00310543
-0.0055780103
-0.017667772
-0.023267092
-0.017692888
-0.01898214
-0.017921735
-0.009893723
-0.0070011597
-0.0061934395
-0.0037698348
-0.0040665623
-0.0074465363
-0.011784111
-0.011778767
-0.0023658695
0.0076666856
0.008544644
0.00980907
0.017029295
0.02216666
0.024913415
0.019743802
1.7133549E-4
-0.013673944
-0.0070794974
0.0039310716
0.0039735152
-0.0021933399
-2.0105475E-4
0.009381451
0.0132577075
0.016460424
0.02618932
0.030052945
0.018612742
-0.0072914683
-0.027776513
-0.021493692
-0.010750453
-0.0106946975
-0.0063469075
-0.008949494
-0.013012151
0.0024012881
0.009483546
-0.0036496746
-0.015489778
-0.019551983
-0.012187052
-0.008702144
-0.018732326
-0.01989641
-0.013916645
-0.010828056
-0.006615466
-0.0053841705
-0.0014803667
0.0062296116
0.009716703
0.014120386
0.016708272
0.013142045
0.010704264
0.008598772
0.0051188464
0.0056544645
0.010001733
0.01687502
0.026550544
0.028346006
0.016843727
0.0036012358
-0.0049057812
-0.004388146
0.0011157278
-0.004871181
-0.013094979
-0.010926647
-0.008621389
-0.0056747356
-0.0010391418
-5.338254E-4
-0.003404224
-0.008737868
-0.008668695
-0.005610997
-0.010624913
-0.012891241
-0.007411955
-0.004214761
7.803049E-5
0.010147492
0.016203081
0.009252049
-0.0047207945
-0.015446564
-0.013803126
-6.3741213E-4
0.0041664545
0.0011523045
0.0061013503
0.007941392
0.0020844978
-0.00224708
-0.0067872345
-0.006429046
0.0013525307
0.007419029
0.009249529
0.008140645
0.0039392663
-0.002812425
-0.008789622
-0.009983251
-0.0053958925
5.6273513E-4
0.0013836514
0.0013204963
0.004815258
0.0078069386
0.007919281
0.0041720765
0.0038677189
0.009165441
0.013526204
0.021671139
0.020171495
-0.0027294124
-0.019742742
-0.020963216
-0.015071091
4.671659E-4
0.012053521
0.0042317365
-0.012551
-0.013757601
2.8414617E-4
0.0011099861
-0.0080234585
-0.0074696885
-0.004831777
-0.003750912
-0.0037884922
-0.0059691267
-0.0023662113
0.0012140567
3.5900917E-4
-7.927026E-6
-0.005883144
-0.009918876
-0.0017295721
0.006411564
0.009060482
0.008686706
0.004724498
0.0032451714
0.0037349893
0.0032586472
0.0053288974
0.0061810245
0.0045995773
0.005743467
0.006748704
0.0038433585
0.0032127497
0.0104554035
0.014426541
0.009615864
0.006236429
-0.0028429574
-0.018135795
-0.019750891
-0.0108606275
-4.2158607E-4
0.010782801
0.0151691595
0.01334928
0.001998969
-0.01757609
-0.021433765
-0.01008008
-0.004326874
-0.0020051866
9.864955E-4
0.0010222874
-0.0012287179
-0.007164197
-0.0115549
-0.00921109
-0.006755225
-0.004121578
4.8237955E-5
0.0026514488
0.005866322
0.0070067826
0.006277174
0.005848341
0.0012043008
-0.0014184568
0.0022139759
0.005927332
0.007177543
0.0060240286
0.0068354947
0.0070826127
0.0015544585
-0.004440369
-0.006264822
-0.0024230839
0.0016291447
0.012209066
0.034187693
0.03450142
0.008815058
-0.013307642
-0.027961379
-0.030607311
-0.024602758
-0.021042675
-0.014535924
-0.0070997984
1.978189E-4
0.0023626855
-0.0040287133
-0.0037688527
-3.6733446E-4
-0.0014840963
-0.005151125
-0.013415828
-0.015371669
-0.009310441
-0.003930812
0.0012100341
0.006164057
0.011869742
0.012156729
0.0076319887
0.006229716
0.0021658707
-4.8042298E-4
0.0010276991
2.5921984E-4
0.002934018
0.007209425
0.009591214
0.009854134
0.0046171844
0.0031154125
0.005809808
0.0050538927
0.00582206
0.006496906
0.0042776167
0.003982272
0.0028125294
-0.0023405575
-0.0063528083
-0.0063851797
-0.0050688037
-0.003974035
-0.0031045899
-0.0012589392
-5.4002827E-4
-0.004945122
-0.0090861
-0.011002685
-0.0155886635
-0.019840067
-0.020288156
-0.015305589
-0.008461504
-0.008510202
-0.0106802555
-0.006600035
0.0014818271
0.0062988796
0.0029175556
-0.001271318
9.76926E-4
0.004988902
0.0064337887
0.006891167
0.008485567
0.009693037
0.012152852
0.016103905
0.014822636
0.010615605
0.006710717
0.0026015413
0.0031927482
0.0058641094
0.008880446
0.01236089
0.009092922
0.0016855173
-0.008410862
-0.019970542
-0.018112412
-0.00594683
7.517769E-4
0.0020803853
0.0014702487
0.0032813854
0.008982029
0.0054767923
-0.010444612
-0.020599134
-0.016631879
-0.008656493
-0.0038527905
-0.0010464276
0.0017794031
0.0036753297
0.00226146
4.895498E-4
0.006252379
0.017518422
0.018398514
0.002819987
-0.015740063
-0.022743799
-0.015442702
-0.004325087
0.0017489275
0.0039046435
0.0022695241
9.905732E-4
0.0025623948
-3.503089E-4
-0.0043345606
-7.534102E-4
0.006096918
0.007138127
0.0011338908
-0.00396819
-0.0050719352
-0.0041954136
-7.395547E-4
0.0047191237
0.011703454
0.016661061
0.017127527
0.014351903
0.008359352
0.0045747934
0.0018250939
-0.0027134567
-0.0018020201
-0.0015141501
-0.0060788556
-0.0073720273
-0.0076964786
-0.0077048377
-0.0058647427
-0.0074079027
-0.01155569
-0.010484897
-0.0011743548
0.0061029117
0.0022234798
-0.0063064005
-0.005874553
0.0053337277
0.013250621
0.012838816
0.006808688
-0.0022828192
-0.0055158385
-0.0079955
-0.011160697
-0.0048847725
0.0017809821
0.007870168
0.015540386
0.012291707
0.0075639454
0.00788989
1.2343487E-4
-0.009488708
-0.010910041
-0.010705864
-0.011257533
-0.009621645
-0.006866016
-0.0029519352
-0.0016976458
-0.0053068534
-0.0050762426
-0.0018336345
0.0022447512
0.010150651
0.010041005
0.00279112
0.0030790989
0.004668059
-0.0025932344
-0.011040587
-0.008148662
-0.0034877579
-0.0077386037
-0.0046680793
0.004796344
0.0062716496
0.0052176327
0.0016238794
-0.002404754
5.6285044E-4
0.002395202
5.076495E-4
-2.2351953E-4
2.5656074E-4
0.0035127073
0.0057240147
0.002146401
-0.003001455
-0.007502072
-0.010866499
-0.00813806
-0.0017115982
-9.836315E-7
8.8436407E-4
0.0077650966
0.009814367
-7.1287376E-4
-0.0086453995
-0.0058862036
-0.0014737417
0.0015360053
0.0020990653
0.0012956831
0.0046185628
0.0070909807
0.005882707
0.004901749
-0.0013424314
-0.013272793
-0.015274361
-2.4546916E-4
0.013650376
0.011637205
0.004255328
1.0089273E-4
-0.004025471
-0.007903878
-0.010401337
-0.009908158
-0.005193581
-0.0021874676
-0.0035251728
-0.0023368767
7.3774153E-4
7.3227775E-4
0.0020637286
0.0027522217
-0.0017992617
-0.0044426667
-0.002703297
-0.0011252485
-0.0020114728
-0.0020247002
0.0018084248
0.0036143395
0.0077705137
0.016345274
0.013718222
0.0056279516
0.0036160736
3.9860985E-5
-0.002264617
1.3263989E-4
0.0032991741
0.0047577103
-0.002724049
-0.011003586
-0.00828606
-0.0015010189
0.0039593177
0.0016126699
-0.006600622
-0.004724974
0.0018204167
0.0035521109
0.004439291
0.0018433273
-0.0025556984
-0.004869469
-0.004228002
0.0024808205
0.004964417
-0.0022813212
-0.00685941
-0.0049634636
5.127371E-4
0.0060807425
0.0057897423
5.365719E-4
-0.0060205143
-0.010564877
-0.009621042
-0.0047250097
0.0020239672
0.009120851
0.010216447
0.0039421474
-7.7356177E-4
-9.863282E-4
2.1040898E-4
6.771791E-4
-0.004521934