0.004501449
0.0031621032
0.0029233978
0.0040705125
0.003680632
0.0026381298
0.0026297343
0.004106278
0.003666957
0.0013196165
4.4422975E-4
-7.2119845E-4
-9.7167736E-4
-7.649279E-4
-0.0036550644
-0.0040482017
-0.0015215419
-0.001858425
-0.0010090641
0.00225185
0.001702806
-9.801863E-4
-5.477772E-6
0.001847502
4.3805526E-4
-5.65502E-4
0.0011781775
0.0032999082
0.0047717
0.0059681674
0.0075331023
0.008379607
0.0075799497
0.00652091
0.0053320206
0.005673608
0.007258868
0.00504212
0.0018838529
0.0020099168
0.0012004788
-0.0010212782
-0.001999066
-0.0014062002
5.278872E-4
0.0018883473
0.0026284133
0.0014483584
-0.0021960693
-0.0023620531
-5.5734103E-4
-5.3547224E-4
0.0012064935
0.0018042631
6.3835934E-4
0.0015743689
8.3488657E-4
-3.8573373E-4
0.002174364
0.0054837717
0.0056759655
0.0028178738
0.0016624114
0.0020790156
4.9616635E-4
4.472593E-4
0.0028780934
0.0037001185
0.0020540347
9.048185E-4
0.0011931778
2.1504828E-4
-1.5485585E-4
6.2212796E-4
6.3838746E-4
0.0019111112
0.0024447883
0.0030258088
0.0050550206
0.0042199884
0.0036037483
0.004075749
0.0035670341
0.0032046237
-1.1094487E-4
-0.0016097771
0.0011758814
0.0017941657
0.0022152069
8.499463E-4
-0.0027624667
-0.0016754098
6.2772294E-4
4.1586868E-4
3.193236E-4
9.486963E-4
0.0010514813
-9.184478E-5
1.788876E-4
0.001681444
0.0019074104
0.0014839915
0.0017644056
0.0032573163
0.0034630059
0.0031293284
0.0039015564
0.0034402434
0.0041088494
0.004619234
0.0029641888
0.0036310437
0.0043657855
0.0036067986
0.0021013357
8.8125584E-5
0.001603
0.0027014704
0.0026322627
0.004215184
0.0015851301
-0.0014074778
-0.0015290692
-0.0035905303
-0.004245537
-0.0022680606
0.0011441406
0.0040622316
0.0030821597
0.0020453706
6.134585E-4
-0.0023564312
-0.0023822584
-0.0014354214
-5.1339244E-4
0.0013722569
0.0025937965
0.0039885016
0.00495682
0.0052239164
0.0047083567
0.002586699
0.0011444733
3.1628134E-4
5.4459873E-4
0.0023121818
0.0023293584
0.0024760915
0.0043077394
0.0056933127
0.0061079618
0.003765062
0.0015424818
0.0019167814
4.0152445E-4
-0.0011336395
3.7847107E-4
0.0014205847
9.388029E-4
6.9883E-4
0.0011412341
3.606758E-4
-7.590663E-4
-4.4803694E-4
-0.0013962009
-8.275509E-4
0.0021741171
0.0027325659
0.0042629284
0.0061443206
0.0047543626
0.00394765
0.0020324895
-9.15899E-4
-1.01491925E-4
0.002088343
0.002267812
6.481631E-4
8.4697566E-4
0.0025727171
0.0013441116
0.0010415232
0.0026077342
0.0011490255
-7.223719E-4
-6.281842E-4
-4.2310436E-4
-0.0013371746
-0.002062829
-0.0011039417
-0.0016019738
-0.002857109
-0.0016925862
-0.0012975138
-0.001851335
-8.775444E-4
-4.7792135E-5
1.0510122E-4
-2.5917875E-4
-0.0013856617
-9.5165847E-4
0.0010645961
0.0020014339
0.0023751205
0.003390374
0.0049451594
0.0052561453
0.0032347005
0.002551766
0.0025029113
0.0011968538
0.0025244418
0.0046120025
0.005343583
0.0052544298
0.0030769038
0.0029338358
0.0030506833
0.0015544485
0.004527518
0.0046612774
-4.3511868E-4
-0.001160509
-0.0019266236
-0.003676135
-0.002147545
-0.0031523225
-0.0055517643
-0.0054033385
-0.005176414
-0.004607274
-0.0031953861
-0.0013980938
-5.434737E-4
-0.0012465314
-3.3609118E-4
5.7391456E-4
4.0377674E-4
0.0023276112
0.0032464098
0.0027427773
0.0024478803
2.1574144E-5
-6.846421E-4
4.573515E-4
-2.1366653E-4
7.07774E-5
9.4945764E-4
0.0028477765
0.0053402367
0.004332152
0.0030915763
0.0019543578
6.880805E-5
0.0011588284
0.0016294272
1.2182694E-5
-6.890507E-4
6.0102986E-5
0.0022846211
0.0022137682
7.2672835E-4
0.0017538023
0.0029835964
0.0038156419
0.002623867
-0.0012569083
-0.0019315206
-6.0586643E-4
-0.0016369933
-0.0017957835
-8.91552E-4
-0.0013253484
-4.1752867E-4
4.587177E-4
-0.002435754
-0.005231621
-0.0047132233
-0.0027325184
-9.153671E-4
3.5785662E-4
3.833404E-4
-5.424812E-4
6.9848483E-4
0.001020571
-0.0010867408
0.0021049825
0.00573622
0.005373131
0.007608512
0.008155734
0.0067866906
0.0069756364
0.0062507144
0.007274191
0.0022773382
-0.009554715
-0.011025117
-0.0044623134
-5.122424E-4
1.8358967E-4
-8.5491035E-4
-5.209356E-4
-7.7504606E-4
-0.0024649084
-0.0018838934
5.7339866E-4
0.0020829504
3.7104357E-4
-0.0015137219
-7.230363E-4
5.5799315E-5
4.1369375E-4
6.1789586E-4
9.990961E-5
-8.4656436E-4
-7.7922747E-4
0.0020275677
0.004327549
0.0042063496
0.003791698
0.0025575245
5.974806E-4
-0.0020154759
-0.0046816487
-0.0033121319
-9.197661E-4
-0.001935645
-0.0012770748
9.857536E-4
0.0015552634
0.002555467
0.0021175104
0.0014330379
0.0034183194
0.004806103
0.0059246668
0.0066283746
0.0068829264
0.0071719843
0.0041831257
0.0013990536
-1.02018375E-5
-0.0015069066
-7.30869E-4
-0.0010652635
-0.0029273976
-0.004216186
-0.0026165699
-6.697571E-4
-0.0027167518
0.0014556054
6.484437E-4
-0.011160218
-0.008335659
-0.006947696
-0.0126844505
-6.9930725E-4
0.005496479
0.0013612943
0.0046395226
0.0025318223
-6.79973E-4
3.8523768E-4
4.2605802E-4
0.0026356552
0.0030706588
0.0026507657
0.0031859938
0.0032238276
0.0042721285
0.0018267139
-0.0013465328
-0.0010931012
-0.0023369265
-0.003735093
-0.0011873121
0.0014098868
5.4706156E-4
0.001616385
0.0038933242
0.0021705416
0.0012989376
8.3239045E-4
-0.0011044794
1.255964E-4
0.0017454189
9.4996265E-4
4.932637E-4
0.0014474274
0.0011510664
-7.575378E-4
-6.928483E-4
-5.562855E-4
-0.001221253
-0.001180276
-0.002236355
-0.0022660352
-2.5895398E-4
0.0017065834
0.0013911531
-0.0014380872
-0.002180039
-0.0017244727
-0.0014118012
-4.6011482E-4
-8.2053157E-4
-3.0072083E-4
-0.0010317027
-0.002041808
0.0012294499
0.0013187887
5.4366456E-4
0.0030211783
0.0011943912
-1.6437305E-4
0.0014703774
9.884165E-4
0.0013840379
0.0015112067
8.524726E-4
0.002433479
0.0016521431
-0.0014528405
-0.0010867761
5.7464733E-4
2.4546127E-4
0.00118462
0.0029703614
0.0017802005
0.0014176307
0.0040035625
0.004277459
0.0024038493
0.0019207482
9.1586437E-4
-6.061655E-4
8.11308E-5
-5.009525E-4
-0.0028620828
-0.0019893497
-0.0013610468
-0.003760351
-0.004914438
-0.005531108
-0.0060289367
-0.004842473
-0.004181997
-0.00331222
-0.0014228842
-8.663861E-4
-2.9318643E-4
6.3232257E-4
1.979172E-4
6.5876916E-4
0.001466462
4.6204295E-4
2.0048486E-4
0.0013758607
0.0035637084
0.006410679
0.008257317
0.010341445
0.010391943
0.0066305352
0.004462682
0.002867008
-2.1723122E-4
-8.61193E-4
-9.7136287E-4
-0.0022589124
-0.0020650977
-0.001726331
-0.0030659712
-0.0049644965
-0.006271395
-0.006482616
-0.005309217
-0.0038234952
-0.0036119143
-0.003893365
-0.003829112
-0.0038823143
-0.00418705
-0.0049072863
-0.0042513777
-0.0012040216
7.206342E-4
8.7242783E-4
0.002540424
0.004484041
0.004851925
0.0057306928
0.006803337
0.00584518
0.003078362
0.0011514871
0.001573329
0.0010485578
-0.0015260149
-0.0027284017
-0.0014934228
5.2490435E-4
2.372258E-4
-0.0017896725
-0.0021502303
-0.0015548165
-0.0010609434
-0.0018693346
-0.0030346753
-0.0014170271
-7.623879E-5
-2.4384694E-4
1.0702624E-4
1.9439234E-4
4.6588713E-4
-1.3714322E-4
-0.001369064
-0.001283913
-2.191946E-4
0.0016500555
0.0010310634
-0.0013310058
-0.0014352329
-0.0013674034
-0.0010604446
-9.027848E-4
-0.0010851881
6.43632E-4
9.083619E-4
2.7455192E-4
2.5855034E-4
-0.0017562228
-0.0030614128
-0.0028120703
-0.002401256
-0.0021312563
-0.0024195341
-0.0017892257
-0.0020239705
-0.00200592
8.255739E-5
-8.277936E-5
-5.187182E-4
-1.4850818E-5
-0.0014435445
-0.0014299079
-1.0402041E-4
1.12120644E-4
5.6057214E-4
9.92784E-4
0.0016926834
0.0025642756
0.0016615217
4.9422827E-4
0.0015029318
0.002656073
0.0019270877
0.0010722416
0.0012572017
0.0018954335
0.0025715798
0.0033185822
0.0024304248
-0.001644295
-0.003551314
-0.0018344863
-0.0024074002
-0.003263144
-0.0026134804
-0.0026358173
-0.0011773602
-3.461041E-4
-0.0017164282
-0.001507924
-0.0010753265
-0.0026099924
-0.0032560204
-0.001387419
1.3265864E-4
9.142503E-4
0.0020440978
3.7987202E-6
-0.0026629367
-7.5462356E-4
0.0017472547
0.0023774419
0.0028909824
0.0037483901
0.0034878445
0.0015893098
0.0028892958
0.0054323343
0.0034974907
0.002079171
0.002317078
5.138472E-4
-5.7373203E-5
0.001187095
0.0011517985
4.1747084E-4
-2.265125E-4
-0.0012295614
-0.0011903102
-3.5118114E-4
-9.962514E-4
-0.001152632
5.540795E-5
9.7580734E-5
-8.992761E-4
-0.0025574637
-0.0034199536
-0.0026957924
-0.0026615162
-0.0029731346
-0.0031826817
-0.0035470682
-0.0032166443
-0.0016879074
0.0011838252
0.0022742373
0.0011282611
5.786759E-4
-1.8904735E-4
1.8275241E-5
0.0018400978
0.002621566
0.002361637
0.0029627145
0.005394365
0.0057284394
0.003788
0.004077863
0.0029543154
0.0011763716
0.002600746
0.0020809448
1.8800187E-5
0.0010159228
0.0028582995
0.0022484302
5.824395E-4
-4.1362958E-4
-0.0026292298
-0.0046035177
-0.004449244
-0.0040403926
-0.0032420198
-0.0013971122
7.0299563E-4
-6.04056E-4
-0.0047063273
-0.004858078
-0.002852744
-0.0030692082
-0.003988141
-0.0034863295
-0.0016586068
-0.0011239733
-6.545217E-5
0.0019576612
0.0011943781
5.0155487E-4
0.001070826
6.5496826E-4
5.0513924E-4
4.3200352E-4
-2.8821963E-4
6.3785806E-4
0.0036932924
0.004463232
0.0044630305
0.006625929
0.0057343496
0.0032648847
0.0025402184
0.0022401651
0.002491892
0.0017180966
0.0015366772
8.631885E-5
-0.0022853152
-5.157982E-4
-7.2255963E-4
-4.5177562E-4
3.255609E-4
-0.0042857095
-0.004154306
-0.008087426
-0.01675961
-0.009160379
-8.0326525E-4
-0.0023813357
-0.0023577572
-0.003073217
-0.0026424245
-0.0015419321
-0.0023413787
-7.88968E-4
8.677663E-4
0.002485223
0.0035975287
0.0030648997
0.0034429221
0.0028215477
0.0018941263
0.0027537493
0.0037565902
0.0034636206
0.0035367664
0.005540909
0.004194656
3.6079637E-4
-6.855711E-4
-0.0016902955
-0.0025037753
-0.0028487993
-0.0036397546
-0.0026418297
-0.0016134491
-9.987869E-4
-8.6210866E-4
-0.0023862151
-0.0021427611
-0.0010421426
-0.0018138855
-0.0011450655
2.182901E-4
-0.001001187
-0.0014206489
-5.483674E-4
-0.001161538
-3.1436989E-4
0.001150183
6.7226443E-4
-2.1690871E-4
-0.0013583603
6.7616324E-4
0.0028528764
5.362149E-4
5.3728896E-4
2.73746E-4
-0.0028501193
-0.00201143
-0.0014753707
-0.0026706187
-0.0013537131
-6.8759127E-4
3.3392713E-5
0.0021589634
0.0023675915
0.0013647228
0.0018450343
0.0032240225
0.002929078
6.4046145E-4
-4.5858874E-4
-3.7852934E-4
-0.0010389922
-6.7366724E-4
-2.1821738E-4
-7.9144066E-4
-8.4429525E-4
-5.036424E-4
0.0011012157
0.0015414796
0.0010295917
0.0021233773
1.2479536E-5
-0.0013666679
8.0044864E-4
5.137868E-4
5.164495E-4
-5.5760593E-5
-0.0010507721
-1.4188209E-4
-0.0015655223
-0.0013677799
-3.3402006E-4
-5.0425413E-4
0.0016735249
0.0014101508
-4.353545E-4
-0.0029926475
-0.003243369
0.0013785638
3.3746962E-4
2.646532E-5
0.0012537668
-0.0014258486
0.0023382432
-0.0020190957
-0.009782308
6.0333475E-4
0.0061596
0.0032603513
0.0040265415
0.001788924
0.0037989398
0.0063660447
0.0023174507
6.426344E-4
7.691913E-4
0.0010392903
0.0013838779
-1.8503415E-4
-8.801353E-4
-2.6895708E-4
3.5092354E-4
9.224539E-4
5.149262E-4
8.637823E-4
0.0030289735
-0.0025363816
-0.012435165
-0.007866964
6.791009E-4
0.0010934669
0.004108113
0.005655279
0.0037124634
0.0037018424
0.0018664574
2.1060243E-4
-0.0011108135
-0.002003683
-6.7206385E-4
-9.4511703E-4
1.0315579E-4
0.0027917807
0.0037109018
0.003549378
0.0011268703
-2.3872082E-4
7.3565496E-4
7.18476E-4
-4.8000313E-4
-0.0025058396
-0.0026471883
-0.0020813926
-0.0024341573
-0.001260002
-8.6688437E-4
-5.958408E-4
1.1925243E-4
-7.4148746E-5
0.0017071528
0.0029658847
0.003618871
0.0050355075
0.004437962
0.0046329577
0.0034974106
1.6179684E-4
-7.114392E-5
-7.9768006E-4
-0.0025665003
-0.0031601693
-0.0034211366
-7.2707265E-4
0.0010278646
-8.9740177E-4
-0.002637009
-0.003727079
-0.00317879
-0.003106615
-0.005112958
-0.0044554444
-0.0016213135
-7.5622456E-4
-0.0018799179
-0.0022171238
-0.0018078595
-0.0022450902
-8.2470593E-4
0.001856077
0.0027484105
0.0036603366
0.005072921
0.0062652295
0.0075463406
0.007190061
0.003548767
6.607026E-4
0.0017852971
0.001498209
-4.91876E-4
1.4142464E-4
0.001668884
0.0029437225
0.0011303974
-0.0028210848
-0.0029179084
-0.0027526957
-0.004719416
-0.006663053
-0.008131539
-0.0074746073
-0.00809791
-0.008748533
-0.0049446984
-0.0026752867
-0.0026990466
-0.00149413
-2.405627E-4
0.0019082829
0.0032746145
0.002660622
0.0029624517
0.00465102
0.0065050176
0.008564132
0.011115148
0.010503185
0.0062815063
0.0048911558
0.006110033
0.0044550207
-0.0022824074
-0.010331179
-0.011928695
-0.008342031
-0.004876287
-0.0027843174
-0.0040317704
-0.004488518
-4.658559E-4
0.003724639
0.0070641534
0.008889916
0.006952949
0.0032017091
-3.8059992E-5
-0.0022476842
-0.0039723325
-0.0051183766
-0.007099062
-0.009013253
-0.005428751
-2.937063E-4
0.0064425496
0.02065716
0.028308555
0.024657046
0.021392014
0.015478808
0.012156967
0.012946017
-0.0011993552
-0.0118583385
0.005830633
0.02322546
0.02444477
0.024158224
0.023503182
0.025916811
0.032126885
0.039508484
0.049828134
0.043631118
0.020620568
0.006024486
4.5711844E-5
0.006095288
0.008553464
-0.03061412
-0.07137887
-0.058656823
-0.026147487
-0.017064944
-0.027666677
-0.04153309
-0.051310133
-0.058046874
-0.061157502
-0.06403477
-0.07108465
-0.07121824
-0.055591427
-0.030634481
-0.0042381384
0.007985356
-0.006968255
-0.026084308
-0.026405703
-0.023269113
-0.01968495
-0.0011491589
0.022533244
0.044078752
0.061871108
0.06900213
0.08026676
0.09711055
0.103216305
0.09894293
0.0741973
0.05458648
0.082822345
0.107911706
0.09328061
0.068177074
0.026060505
-0.009902318
-0.0026045213
0.010476935
0.005523361
-0.003119756
-0.013006309
-0.026227826
-0.040742327
-0.055203177
-0.079954855
-0.104455516
-0.10998641
-0.11290441
-0.115503676
-0.11561608
-0.12367101
-0.12735273
-0.12525134
-0.10861344
-0.058451235
-0.0055941343
0.021359457
0.03294121
0.040126693
0.044088054
0.040935595
0.034615815
0.03301741
0.03953204
0.056212235
0.07519219
0.08201171
0.07370832
0.063366234
0.05807402
0.05570157
0.056503966
0.05581008
0.054309398
0.0524928
0.044365767
0.02611069
-0.009861816
-0.036723804
-0.024622751
-0.0095605
-0.013552324
-0.018980032
-0.024226772
-0.02606772
-0.024152327
-0.02376245
-0.021563932
-0.019417541
-0.019116525
-0.020922845
-0.022908295
-0.022156175
-0.022984799
-0.02391584
-0.022921918
-0.023974137
-0.026789997
-0.02778151
-0.02331648
-0.016294215
-0.01134903
-0.011671668
-0.014377471
-0.0061244173
0.0072820643
0.012377629
0.013397636
0.010955555
0.00909576
0.013175524
0.015819715
0.015270959
0.012745555
0.009933869
0.011157528
0.013432941
0.014159449
0.014052491
0.01304248
0.012336533
0.013617512
0.014746255
0.012297715
0.010408583
0.009135615
0.005441429
0.0033064694
-5.4490636E-4
-0.0026772157
5.9381046E-6
-0.0066196
-0.0095459465
0.0042996863
0.00933007
0.0035163597
0.0036164878
0.003948174
0.002314169
0.0020782456
0.0015924257
0.0019162756
0.0031606478
0.0037037942
0.0022898219
1.2548949E-5
-0.0016594437
-0.003183901
-0.0016606693
0.0028785355
0.0052117635
0.0050303782
0.004138708
0.0020295149
-1.11174064E-4
-4.3945294E-4
-7.2494085E-4
-0.0024890676
-0.0030641062
-0.0019802446
-0.0020119704
-0.002886925
-0.0028153562
-0.0025285548
-0.0034964473
-0.0041733384
-0.0035963303
-0.004122869
-0.0049580312
-0.003997049
-0.0025175458
-0.0012255139
-5.5710112E-5
7.7123556E-4
7.2917953E-4
-1.07784625E-4
5.5102435E-5
0.0010918435
0.0013415749
7.5349445E-4
0.0014779806
0.0043475493
0.004935699
0.0024240501
0.0014639971
0.0019506691
0.0017242078
8.027979E-4
2.9998022E-4
1.4607186E-5
-0.0013794438
-0.0015931539
-0.0022170998
-0.0058494452
-0.0067042867
-0.0056463457
-0.007770976
-0.010384684
-0.011749227
-0.009998113
-0.0060899644
-0.005361186
-0.006029322
-0.005865266
-0.006346043
-0.0063253124
-0.004778254
-0.0026193669
-0.0013477806
-2.689276E-4
0.0018857103
0.0033680429
0.004305577
0.0063484907
0.006414509
0.0038669591
0.004559264
0.0060160668
0.0029998105
0.001828411
0.0035287137
0.0033761344
0.003605682
0.004158397
0.0015865865
-0.004129906
-0.0045440397
0.0018254567
5.0347316E-4
-0.0042847586
-0.00275654
-0.004523474
-0.005868646
-0.0014699757
0.0011687294
0.0022384524
3.2270432E-4
-0.0024944567
-0.0016319288
-0.0020556927
-0.0014727005
0.0014386632
0.0016232554
0.0014597722
0.001515841
2.4294548E-4
-0.001033547
-0.0020231553
-0.0031459744
-0.0039198673
-0.0021863529
-3.041146E-4
-4.891721E-4
3.7880003E-4
4.0854655E-5
-0.003208591
-0.0064166673
-0.009094261
-0.007788724
-0.002124608
0.0012595005
0.002464229
0.0037610617
0.002973657
0.002318392
0.0026032515
6.186066E-4
-1.3633304E-4
0.0013672509
0.001663632
0.002968839
0.003793722
0.0025594363
0.0023055002
0.0010692731
3.3981443E-4
0.001328025
4.6631714E-4
9.6042186E-4
0.0022626768
0.0016687511
0.0016905287
-1.9492047E-4
-0.0023413738
-8.896914E-4
-8.027963E-6
-3.29422E-4
-1.8949207E-4
-6.1382115E-4
-0.0015828273
-0.0015446071
1.9693823E-4
8.638831E-5
-0.001480577
-0.0018070892
-0.003289883
-0.0046332367
-0.004516256
-0.004139627
-0.0029663236
-0.002314728
-7.387501E-4
0.0014268134
6.527379E-4
-3.0763497E-4
-3.7421501E-4
-8.660647E-5
0.00151649
0.0019368073
0.0017202987
0.0024586462
0.0035306567
0.0045166467
0.0036499586
0.002703072
0.0019277183
-0.0014826063
-0.0032371436
-8.4861426E-4
0.0014250705
0.0011153349
-1.7545723E-4
0.0011846063
0.0025719674
2.0487173E-4
-0.0010365184
-8.5955474E-4
-0.0029174644
-0.0037509953
-0.0025274772
-6.9867715E-4
0.0016482914
0.0010317665
-0.0023412663
-0.005850206
-0.007558209
-0.0049656113
-0.0027675696
-0.002597517
2.9191768E-4
0.0031781774
0.0038158086
0.0034343107
0.0028158955
0.0029233957
0.0014057737
-4.4888185E-4
-0.0013870569
-0.0031209625
-0.0020556396
4.3037246E-4
0.0012562815
0.0034805275
0.0047126017
0.0036224406
0.00410641
0.0039604255
0.0012129433
2.6581666E-4
0.0016166664
0.0022157833
0.0031838864
0.0037410993
0.0019147791
2.3219235E-4
-0.001044015
-0.002431413
-0.0025390552
-0.0019910424
-9.2553784E-4
-5.540136E-4
-0.0019220584
-0.0020829716
-0.0012604105
-0.0015432689
-0.0014380773
-0.0016007603
-0.0027149196
-0.0021104107
-4.271674E-4
4.1192683E-4
4.7108432E-4
3.1187494E-5
7.5123995E-4
0.0016025632
2.8418296E-4
-0.0011052312
-7.2871253E-4
9.456722E-5
1.6297688E-4
0.0010546221
0.0023991303
0.0023342823
0.002431274
0.0012432688
-2.6951797E-4
7.697296E-4
5.4911687E-4
-1.03759405E-4
-5.765964E-4
-3.066151E-4
0.0027087396
0.0010765919
-5.1170413E-4
-3.7866403E-4
-0.008793441
-0.009408858
5.911026E-4
0.001060472
-7.388767E-4
0.0010214926
0.0014351932
0.0033494488
0.0036784988
7.6620205E-4
-0.0025651604
-0.004080113
-0.0038585512
-0.004095312
-0.0024362411
-9.880463E-4
-4.7554314E-4
0.002446576
0.0028219605
0.0016258475
0.0016808562
-5.398489E-4
-0.0013358927
2.8010525E-4
-4.858657E-5
-7.415732E-4
6.6901214E-4
0.002070045
0.0014676341
0.0013193424
2.8415967E-4
-0.0030966238
-0.004532871
-0.005100699
-0.004676361
-0.0016002511
4.2668715E-4
0.002685411
0.0047963043
0.0038728928
0.002838176
0.0024072095
0.0021548476
0.0014787433
9.117834E-4
0.002836028
0.002497801
8.193825E-4
0.0029050224
0.0013357063
-0.002418629
-0.0011541119
-0.0029570179
-0.006392952
-0.0028431315
0.0010090949
0.0019994436
0.0029571785
0.002016974
-3.992197E-4
-0.002870046
-0.003836212
-0.0045126737
-0.005909373
-0.0035119576
-7.3412043E-4
-3.5116883E-4
0.0010895043
2.747547E-4
-0.0011412578
-2.939802E-4
-1.6806068E-4
2.1796026E-4
-1.1224146E-4
-2.9410532E-5
0.0017297132
0.0021419656
0.004693928
0.0066527226
0.0021684945
-0.0017374847
-0.0013703398
-9.197154E-4
-0.0015441584
-0.0014789411
4.1428528E-4
0.0039806
0.007252673
0.006488322
0.0037209892
0.001539185
-0.0011590018
-0.0012772753
-9.4240974E-4
-0.002790269
-0.0023933048
-0.0011770346
-4.8113673E-4
-1.2431333E-4
-8.5995306E-4
-9.527721E-5
-1.4482687E-4
-9.908096E-4
-4.6208856E-4
-0.0021835691
-0.003313722
-0.0015536064
-1.2383587E-4
6.6904974E-4
-8.204654E-4
-0.0031434032
-0.0024528462
5.0201395E-4
0.0027347587
0.0023145766
0.0022260437
0.002427802
0.0016782742
0.0022311402
1.4357851E-4
-0.0023096183
-0.0011314091
-0.0023671284
-0.0034400667
-0.0028649017
-0.0028575922
6.991402E-4
0.0039438526
0.0037709996
0.001664708
-1.2814348E-4
0.0015423974
0.002520222
0.0032644172
8.973767E-4
-0.0026400993
0.004855198
0.0035822184
-0.008902577
-0.0035277877
0.0048138266
0.002129216
9.241299E-4
1.7120808E-4
0.0010971706
0.0029180709
0.00242519
0.002665058
0.0025951385
0.0024756647
8.290271E-4
-0.0014640222
-0.00197244
-0.0031489981
-0.00348989
-0.0042953044
-0.0049620722
-0.0034599837
-0.003372286
-0.0024533267
-0.001539444
-0.001091625
0.0016179774
0.0012572297
-3.1708492E-4
7.119911E-4
8.9002453E-4
-1.6161207E-4
-6.662977E-4
0.0015473904
0.0044527603
0.0058989953
0.0070280214
0.006893926
0.0063557466
0.0053906348
0.0031341524
-7.5107405E-4
-0.0038293225
-6.5992895E-4
0.0023336592
5.4208044E-4
-2.1283543E-6
3.9775576E-4
0.001467085
0.0015243303
-0.0030405177
-0.0077076578
-0.009145411
-0.009936943
-0.012420529
-0.012246727
-0.008798576
-0.007852108
-0.0049467618
-0.0012342134
-0.0019640955
4.1690514E-6
0.0031110959
0.0039570755
0.0060728714
0.0057249335
0.0039644637
0.0048266575
0.005430557
0.004899746
0.0037545508
0.003990428
0.0067087617
0.00784807
0.006125356
0.0031974304
7.6584524E-4
0.001287949
0.0037165242
0.004367025
0.002389064
0.0011195779
0.0017436721
2.7935798E-4
-0.00304057
-0.0049203737
-0.0063978075
-0.0071562827
-0.006426869
-0.0058901147
-0.004759569
-0.0028673783
-0.0016359712
-9.304876E-4
-0.0014067453
-0.0026325574
-0.0018985401
-7.1509357E-4
-0.0017396619
-0.001629194
-8.311332E-4
-0.0018234806
5.97207E-4
0.0035981417
0.0015380735
9.82604E-4
0.0012008
-0.0015603942
-3.6712454E-4
0.002810826
8.810973E-4
-1.16422416E-4
0.0037590005
0.0055978587
0.0040677614
0.0027777778
0.0015279328
-2.7983268E-5
-0.002218043
-0.0021856776
0.002025228
0.004147
0.0033068915
0.002958566
0.0020696206
4.4453857E-4
-0.0022601385
-0.0038055538
-0.003548442
-0.003913788
-0.0024349554
-0.0021939527
-0.0038530552
-0.0011889632
1.5846988E-4
-0.0022012214
-0.0030170495
-0.003796729
-0.0036409474
-0.002012388
-0.0012154346
2.8446823E-4
0.0022161873
0.0026624452
0.0028642153
0.004629687
0.0047642794
0.0028261503
0.0039794235
0.0040714806
0.0010394224
0.001285042
0.0017405358
-2.661004E-5
-2.2832897E-5
5.2257674E-4
-6.287379E-4
-9.195739E-4
0.0011093525
-2.7392566E-4
-0.0028125453
9.374462E-4
0.0028388903
5.910335E-4
7.9363404E-4
0.0012919027
0.0021845705
0.0011455017
-0.002000956
-0.0014250441
-0.0018170013
-0.0024509174
6.706506E-4
0.0013660404
2.8161562E-4
-1.9474405E-4
-0.001094115
-8.5719704E-4
-3.9145182E-4
-8.512118E-4
-0.0017462003
-0.0013878611
-1.9096749E-4
-2.3066402E-4
-5.8240194E-6
-2.8186152E-4
-0.0018827324
-0.0030007148
-0.0034162218
-0.0025045106
-9.114854E-4
0.0016973094
0.005396413
0.006957608
0.0068518934
0.006610626
0.0052880244
0.0025295557
9.962178E-4
0.002197685
0.0025551827
0.0025141367
0.0022078562
-8.053411E-4
-0.0029921588
-0.0027915416
-8.752126E-4
-1.6440546E-5
-0.0017680684
-0.0010267069
-2.1951819E-4
6.766179E-4
0.0046028355
0.003843001
7.280228E-4
-6.06499E-4
-0.0036474213
-0.004275174
-0.0026055584
-0.0016307823
-8.962045E-4
-0.0018587396
-0.0025889943
-0.001942201
-9.770007E-4
-5.382198E-4
-8.4734964E-4
1.4368884E-4
9.2871726E-4
7.980147E-4
0.0011939033
0.0017482685
0.0035659857
0.0040758043
9.746373E-4
-0.0021656686
-0.0034448695
-0.0025214774
-4.9989205E-4
3.0220748E-5
3.6468753E-4
0.0024541628
0.0040257345
0.0040241494
0.0037226875
0.0022006775
0.0015639223
0.0022274205
1.2937431E-4
-8.5387763E-4
-5.904554E-4
-0.0026861718
-7.9834275E-4
0.002438265
0.00112293
5.380515E-4
5.754931E-4
-2.3312635E-4
7.1283785E-4
0.0013040383
-4.7037778E-5
-4.6989262E-5
0.0012175447
-7.373471E-4
-0.0014343822
0.0011390289
-9.762327E-4
-0.0031921584
-0.002778736
-0.005053587
-0.005098756
-0.0037765512
-0.002517559
8.035234E-4
-6.9459557E-4
-0.0026053074
4.3020427E-5
-7.553688E-4
-0.0027049703
-0.0019181437
-0.0013820931
-9.018338E-4
3.1911454E-4
0.0038550026
0.007908572
0.007950137
0.005040117
0.001506262
-4.989326E-4
0.001018772
0.0026111093
0.0018694934
0.0028133441
0.0042607225
0.0021781172
8.5288036E-4
2.1246732E-4
-0.0026906452
-0.0033801075
-0.0037228237
-0.0052131335
-0.0028229277
-3.6176914E-4
1.7959114E-4
0.0015402322
-6.743735E-4
-0.004851414
-0.0048493347
-0.0031452677
-0.0013352972
4.6537873E-5
-0.0013128228
-7.520865E-4
0.0029082154
0.0040245145
0.003513714
0.002921151
0.0014592076
7.0957074E-5
-8.0782134E-4
5.933522E-4
0.001728385
-5.051668E-4
-0.0014819046
-4.8727778E-4
1.6354673E-4
9.22559E-4
-5.2349653E-5
-0.0018343679
-0.002084353
-0.001759045
-8.9068036E-4
1.3160534E-4
4.7641777E-4
5.7125365E-4
8.831262E-5
-8.7552605E-4
-6.031278E-4
7.817119E-4
1.6806745E-4
-0.0013941439
2.6616894E-4
0.0022842863
0.0018576916
0.002717924
0.0036435255
0.0019692986
8.5391017E-4
-0.001038427
-0.0044980864
-0.0038010287
-6.7176804E-4
-5.943844E-4
-0.0012504274
4.479683E-4
0.0029662482
0.004548245
0.0053907377
0.004859924
0.0031983948
0.0020219318
2.8340568E-4
-0.0010888536
-7.395327E-6
9.577375E-4
2.192127E-4
-7.642919E-4
-0.0012540949
-0.0012751323
-5.936015E-4
-7.321349E-4
-0.0020884955
-8.709571E-4
-9.341639E-5
-0.0020022783
-2.0814859E-4
-2.1029213E-4
-0.00868256
-0.016298426
-0.014215717
-0.0043761083
0.0020952355
0.0017041084
0.0016986001
0.0023997163
0.0028279223
0.002370713
0.0011523409
0.0033647846
0.0042351503
0.0015525137
0.0016083929
0.0033799468
0.0042414814
0.004339619
0.004868204
0.00514563
0.0026735566
0.0012652691
0.0013861961
1.6600032E-4
-5.9625617E-4
-0.0010929434
4.425958E-4
0.0034029617
0.0031644742
0.0019735105
0.0012679914
-2.57149E-4
-0.0022730073
-0.003890568
-0.00396073
-0.0034076564
-0.0010987234
0.001237257
-3.3903393E-4
-0.0024393653
-0.0035343142
-0.002925078
-9.483419E-4
-0.0013060764
-6.5763626E-4
-4.459618E-4
-0.0025346237
-0.0011711053
-1.704699E-4
1.420015E-4
0.0020509853
2.853429E-4
-0.0017505605
-0.003588221
-0.005767205
-0.0024307843
7.8326673E-4
0.0019056713
0.0035766705
0.001634252
8.756736E-4
0.0035211158
0.003673338
0.0026279928
0.0029640098
0.00418515
0.004578214
0.0043567535
0.004092917
0.0017769614
8.473246E-4
0.0023801692
0.0013064579
2.1815358E-4
8.3489285E-4
-4.178454E-4
-9.6393714E-4
6.209105E-4
1.6852764E-4
-0.0017663869
-0.002364387
-0.0032114994
-0.0051035127
-0.0057023605
-0.0041094725
-0.0025232576
-0.0021199896
-5.455379E-4
0.0011874147
3.8033882E-5
-7.189204E-4
8.6413673E-4
0.0015870141
9.003367E-4
-7.6071236E-5
-8.605102E-4
-2.842619E-4
0.0017710837
0.0033184683
0.0028917824
0.0012863082
9.7488903E-4
0.002349243
0.0014701734
-9.5541164E-4
-7.967067E-4
-7.9813076E-4
-0.0015926107
-0.001516173
-0.0032378535
-0.0039854343
-0.0013559075
5.519782E-4
2.6584914E-4