-0.0026239967
-0.0055252723
-0.0047140205
-0.0020891316
8.5953303E-4
0.00524137
0.0065518464
0.005320835
0.0042366115
6.132242E-4
-0.0021013005
-0.002910014
-0.0037909
-0.001723588
3.7542348E-5
3.8729268E-6
0.002697375
0.005230531
0.0030629563
-0.0012912502
-0.004072103
-0.0054705013
-0.004689857
-0.0020340201
-0.0011906804
1.1255506E-4
0.0037982967
0.0064987713
0.006301223
0.0020570096
-0.0032913506
-0.005546142
-0.0060585146
-0.0063371193
-0.0042857225
1.7714745E-4
0.0030589427
0.005445337
0.006884456
0.002300928
-0.0024739592
-0.003035358
-0.0030703263
-0.0022186483
-7.280176E-4
0.0017313377
0.004803903
0.0067372085
0.007917611
0.0045863194
-4.505593E-4
-6.969888E-4
-4.5448306E-4
-7.531102E-4
9.597137E-4
0.0034921968
0.007884471
0.012018589
0.010647477
0.0048132422
-4.2058036E-5
-0.0020021477
-0.002563292
-0.0019878587
-4.22014E-4
0.0011398646
0.0023698388
0.003695741
0.00356937
2.2434187E-5
-0.0029662042
-0.002216961
-6.538432E-4
9.819575E-4
0.0031854662
0.0048029567
0.0073107406
0.0098800305
0.007052391
2.6561858E-4
-0.0046808277
-0.008171325
-0.01045513
-0.010367257
-0.009215598
-0.006901613
-0.0034769697
-0.0010975053
-0.002723619
-0.008386915
-0.0133203305
-0.0147596365
-0.012999103
-0.010092974
-0.008199327
-0.0056508454
-0.0016106177
0.002921446
0.0056635053
0.00508987
0.005070091
0.00632566
0.0075672995
0.011503227
0.015990179
0.018159628
0.022341799
0.030027363
0.033260915
0.02710917
0.01775588
0.009528205
0.0023220333
-0.0013422056
-0.0029557426
-0.0056282594
-0.0057037794
-0.0030113289
-0.005369451
-0.012900755
-0.018476153
-0.021178342
-0.022294326
-0.02127901
-0.018396806
-0.014741098
-0.010840929
-0.0067717466
-0.006537994
-0.010842682
-0.013336904
-0.0109518645
-0.004666447
0.0012340378
0.0044644503
0.008043282
0.012421848
0.016838584
0.017519427
0.012097235
0.006456599
0.0026836614
-2.6234743E-4
-0.0020317228
-0.0029189875
-0.002503282
-0.0017612955
3.607602E-4
0.0023551593
0.0011212787
5.029748E-4
0.0020715024
0.005369963
0.008570735
0.0091415085
0.011675739
0.016054183
0.01894176
0.019171009
0.013422278
0.006217823
0.0011670653
-0.0037521275
-0.00595151
-0.007953205
-0.012151515
-0.013097619
-0.010938112
-0.009806838
-0.011413013
-0.014668438
-0.015475627
-0.014079937
-0.013431529
-0.012907879
-0.0104743
-0.0050094053
-3.192273E-4
0.0040813233
0.013657222
0.02081246
0.020721234
0.018593624
0.014153123
0.010422362
0.007983902
0.0061901887
0.0112686595
0.017304508
0.0176286
0.012385825
-0.0035797092
-0.030004183
-0.06002903
-0.07738389
-0.07021748
-0.05323367
-0.035421528
-0.0108176125
0.0078903735
0.0047438135
-0.0017061525
0.012935788
0.03097571
0.029106027
0.02180541
0.034755427
0.06208426
0.06629989
0.040127933
0.015136734
0.00858699
0.020490833
0.038729783
0.05550537
0.07182457
0.06907852
0.042507425
0.002548419
-0.054472607
-0.10838353
-0.123376645
-0.0944745
-0.054725338
-0.03369623
-0.020888932
-0.013197099
-0.017091768
-0.016056843
-0.009767579
-0.0058545736
-0.0030662266
-0.007872498
-0.011285231
1.3448723E-4
0.01589439
0.022672294
0.025492411
0.030577071
0.030975468
0.029178482
0.030235413
0.030071473
0.031564254
0.030973261
0.02487155
0.018619323
0.0092148185
-0.0019225632
-0.010319954
-0.01445562
-0.014731883
-0.016317762
-0.015648313
-0.014819992
-0.0151139675
-0.006011783
0.00309949
0.0037369009
0.0010596531
-0.0038056287
-0.0056723435
-0.0061950427
-0.0066770664
-0.0046895216
-0.0050016106
-0.0047087665
-0.002986976
-0.0040858067
-0.009088457
-0.014522762
-0.012084088
-0.0056088325
0.0077824825
0.028926738
0.036723033
0.03442575
0.03053072
0.015850779
-0.00578663
-0.027763339
-0.034795254
-0.01819575
-0.0015908377
0.0028785234
0.005694384
0.010901632
0.013705614
0.011030443
-1.2508791E-4
-0.01795924
-0.023752926
-0.015794052
-0.011266643
-0.0076736645
-0.0026581476
7.8245846E-4
0.0050474643
0.006626452
0.0048991605
0.0013169223
-0.0015588433
-5.4510386E-4
0.0013213104
0.00460723
0.006492655
0.005088986
0.007927749
0.010396286
0.0063820244
8.200984E-4
-0.0037108387
-0.0046880906
-0.003696238
-0.00429839
-0.002438645
0.0020081215
0.0052508567
0.0060186647
0.0038370097
5.66057E-4
-0.0036395052
-0.0057652793
-0.0020946115
0.0013456458
0.0024243821
0.0042231283
0.0057235556
0.0061746384
0.002955335
-0.0015309246
-0.0019686352
-0.002227491
-0.0033830688
-0.003341285
-0.0023595304
6.00879E-4
0.003719512
0.006466205
0.005910068
-6.7637325E-4
-0.0052139466
-0.0063394806
-0.007261222
-0.004863918
-0.0018523235
3.7350267E-4
0.0027647826
0.0028980179
0.0032761113
0.0012779954
-0.0057288893
-0.00797091
-0.005697415
-0.0065444345
-0.006222458
-0.0026170209
6.0969935E-4
0.002558441
0.0015614209
-0.0020355296
-0.0045193452
-0.0041351677
-0.0026648885
-0.0013544493
7.1213604E-4
0.002510551
0.004870796
0.00785956
0.0065655
0.0023047635
-1.3230463E-4
-3.026288E-5
3.4737893E-4
-5.5616384E-4
0.0021819614
0.005936314
0.005503158
0.006528657
0.0049365265
-8.233917E-4
-0.0019173082
-0.0023282592
-0.0026808232
2.5973874E-4
6.996376E-4
-4.4999724E-5
0.0013675797
0.0026392017
0.0017605004
-0.0030840014
-0.0085758995
-0.007934946
-0.0031285237
-0.00148422
-0.0013049613
-4.5891202E-4
-0.001618433
-0.0012510351
-9.108044E-4
-0.005717075
-0.010466372
-0.010051898
-0.0048492993
-5.1870674E-4
-3.2205085E-4
8.545064E-4
0.0038560499
0.007141984
0.008682756
0.004585456
-9.830942E-4
-0.0026616417
-8.9210086E-4
0.0012735405
0.0012881102
0.0019973845
0.0058890725
0.008872214
0.006236829
0.0014261355
-9.34002E-4
-0.002801202
-0.0030310717
-0.001785035
-0.001448627
3.5583822E-4
0.0010350011
0.0010731929
0.0022813599
-0.0017751466
-0.0065875608
-0.0057613975
-0.0038117445
-0.002475441
-0.0017334138
1.2387738E-5
0.0034670616
0.0052572074
0.004408639
0.0011030302
-0.001837745
-0.0029880765
-0.0038307472
-0.0020650276
3.674357E-4
0.0014824929
0.0038509364
0.0049544163
0.0036465558
7.936649E-4
-0.0035629051
-0.0052842163
-0.004044047
-0.0039970884
-0.004956975
-0.0035952157
8.1231655E-4
0.004335306
0.002877767
-0.0027423506
-0.00771108
-0.008637227
-0.0058912034
-0.0020158917
3.6424643E-4
0.0020680518
0.0042049596
0.0060008927
0.006932129
0.004242767
-5.096743E-4
-0.002084371
-9.702844E-4
0.0014421239
0.0021350065
2.709615E-4
0.001957851
0.005009652
0.0033033725
-2.8173003E-4
-0.0021401623
-0.0025789088
-0.0026894878
-0.0019241888
-3.9759968E-4
9.560705E-5
2.813668E-4
0.002313757
0.005247821
0.0035984654
-0.0016342369
-0.0034903171
-0.0045459173
-0.0049641165
-0.0017669396
1.375765E-4
0.0032797987
0.0072623203
0.0037456274
-0.0013861911
-0.003790189
-0.007308779
-0.0077983723
-0.003802871
-3.421989E-4
9.735338E-4
0.0021127444
0.0032756547
0.0019635109
-4.8786716E-4
-0.0032036372
-0.0071435543
-0.0071337176
-0.0038387473
-0.004006865
-0.0029909867
0.0029117758
0.0068325982
0.0062288926
0.002836631
-0.0016136817
-0.0031974944
-0.0021143632
-9.865955E-4
0.0011681372
0.0033053595
0.00389608
0.00528115
0.0057061072
0.0019080221
-0.0020447862
-0.003519761
-0.004316023
-0.0030539015
2.1019508E-4
0.0025898884
0.0041455724
0.005181586
0.0046597673
0.0022323094
-0.0022661658
-0.0069954493
-0.0082136635
-0.005728103
-0.0028841987
-0.0012823252
3.6126815E-4
0.003386757
0.0053082453
0.0028070414
-0.001762391
-0.0037594244
-0.0025509868
-0.0017997463
-0.0022928943
6.446004E-5
0.00394031
0.005572633
0.005180057
0.0017551469
-0.0031157706
-0.0054221125
-0.005368662
-0.0040531056
-0.0024455609
-5.476112E-4
0.0033000757
0.00663098
0.0057598283
0.0016090006
-0.002198698
-0.003689652
-0.005829201
-0.009111892
-0.0078774765
-0.0035847854
-0.0011820756
0.0022590363
0.0053575705
0.0026048997
-0.002142725
-0.003750247
-0.004271695
-0.004810416
-0.00185044
0.0025898856
0.003107808
0.0031972192
0.004434044
0.0020015077
-0.0012660412
-2.6832643E-4
0.0029750497
0.004806299
0.0052422313
0.00487637
0.0048965802
0.007904284
0.008143915
0.0011809872
-0.0070085404
-0.0122446325
-0.0103157
-0.004769623
-0.0025304311
0.0033536698
0.009665846
0.009008042
0.008380933
0.005312415
-0.0042653005
-0.013420398
-0.01552375
-0.008867279
-0.0034917109
-0.004504735
-0.002483978
0.0026167093
0.003111116
-5.7897298E-5
-0.0032159998
-0.0060302536
-0.0069592176
-0.0047947504
-0.0010764964
0.00226088
0.0043171793
0.007512826
0.009230414
0.0047011627
0.0011608433
0.0016324039
7.9529954E-4
5.782544E-4
0.0021739854
0.0030160449
0.003796595
0.005983366
0.006337905
0.0022344545
-0.0017236392
-0.004296813
-0.0056718523
-0.0035110072
-0.0015048037
-4.3625434E-4
0.0015047755
0.0028230639
0.0043246923
0.003418259
-0.0013343182
-0.004625107
-0.0058552185
-0.007353242
-0.007730836
-0.0077074077
-0.008091512
-0.004761746
-3.482755E-4
-4.6360274E-5
2.8995003E-4
7.775904E-4
9.7420777E-4
0.00431691
0.006299891
0.0042723054
-5.918983E-4
-0.004915117
-0.002283007
-3.303736E-4
-0.007860975
-0.012379493
-0.0031016136
0.009427231
0.014815388
0.016824704
0.021046184
0.024352679
0.013936698
-0.003796328
-0.0058368156
-0.0040497193
-0.011779827
-0.013792438
-0.01106366
-0.005760489
0.004003477
0.005980154
0.0020002264
-0.0019135621
-0.0062078903
-0.007216928
-0.0073943366
-0.0065041026
-0.003274298
-0.0029137894
-0.0037131836
-0.0024483337
-0.0018147173
-0.003434464
-0.0055883285
-0.006552271
-0.0038623118
0.0021511263
0.0054912847
0.0074371262
0.010327992
0.010966297
0.011119116
0.0071288208
-0.0012017373
-0.0032749246
-8.1005506E-4
5.2743906E-4
4.103667E-4
-0.0011326738
-4.273648E-4
0.0023582873
0.004982564
0.0053263614
2.6609574E-4
-0.00478505
-0.0049437033
-0.0034697813
-0.0022742546
-0.002230256
-0.0027664367
-7.0967956E-4
0.0020757173
0.0011416936
-0.0026502768
-0.0058260425
-0.0057643265
-0.0040445537
-0.0038825988
-0.0035801916
-0.003105169
-0.0015803721
0.0040557757
0.00826428
0.008552915
0.00721423
0.002763725
-3.695922E-4
1.2727582E-4
-4.129815E-4
-0.0016538819
-2.9710037E-4
0.004715125
0.008510519
0.0048231343
-0.0031504834
-0.0065619526
-0.004029626
-0.0026730467
-0.0032913669
-0.0021842544
-1.9136904E-4
0.0020228166
0.0012977329
-0.002222095
-0.0039929966
-0.005662905
-0.0053228685
-0.0023238598
-0.0025940912
-0.0026896305
0.0011282845
0.0047324393
0.005418038
0.0022633558
-0.0016386969
-0.0017764057
-5.390884E-4
-9.883521E-4
-6.710654E-4
6.093154E-4
0.0017996324
0.0044396007
0.00420544
-0.0017965228
-0.0064158305
-0.005227901
-0.0021898646
-0.0011150915
8.6788123E-4
0.0042982083
0.0063656284
0.009515141
0.009507882
0.0035878017
8.579369E-4
0.0010033268
1.925046E-4
-6.8364415E-4
-0.0026289886
-0.001417839
0.002744211
0.005044844
0.005008903
-0.0013165312
-0.009071594
-0.009117205
-0.0075538307
-0.0063489927
-0.0024724852
-0.0015330077
-0.0014372234
0.0010842516
-1.0969212E-4
-0.003493995
-0.0041949246
-0.0027209152
-2.6554486E-4
8.085448E-4
0.0016578351
0.003327761
0.0045089955
0.0067470646
0.006602104
0.0023559935
-7.3030934E-4
-0.0016095552
-6.965942E-4
2.092754E-4
3.7731798E-4
0.0030433603
0.0054851454
0.005494841
0.0039554574
-5.498022E-4
-0.00416632
-0.004460544
-0.0054294383
-0.006034659
-0.0038943833
-0.0018444647
9.731586E-4
0.0058905073
0.005756004
-2.4451548E-4
-0.003707951
-0.003575507
-0.0032558378
-0.0021147954
0.0018435908
0.0048524397
0.0033036133
0.0036120522
0.0061572157
0.0039931494
-0.001024344
-0.0044965395
-0.0040859077
-0.0019975314
-0.002357976
-0.0014810318
0.0023881565
0.005219512
0.0038266229
-0.0010973366
-0.0041598114
-0.004823673
-0.0045486894
-0.002520198
-0.0013114063
2.9389415E-4
0.0038750411
0.006364019
0.007285518
0.004641041
-0.0014677187
-0.0038353063
-0.0015049727
-8.1964437E-4
-0.001631808
2.5603554E-4
0.002519762
0.003688229
0.0051629483
0.0024252979
-0.0043181977
-0.007541771
-0.0062372563
-0.0044529517
-0.004287743
-0.0030163538
0.0017074166
0.0061184135
0.00745794
0.004403566
-0.0016812105
-0.0041106925
-0.002934361
-0.001969159
-7.067746E-4
4.0692152E-4
0.0026932005
0.0062887007
0.006469879
0.0024345259
-0.0023339542
-0.0049431208
-0.005253096
-0.004263872
-0.0023874817
-9.254394E-4
0.0010523481
0.0031286434
0.0028682745
0.001467759
-0.0021871517
-0.005564817
-0.0031476323
-0.0013506506
-0.0027047712
-5.950636E-4
0.003358549
0.0059548016
0.0068306723
0.004099189
-2.785124E-4
-0.0024356572
-0.0033914468
-0.004472834
-0.002962227
-1.8544606E-5
0.0017737121
0.0039886637
0.004267609
0.0016468471
-3.0021058E-4
-0.0018330613
-0.0028847284
-0.0026929243
-0.0022360606
-0.0028367604
-0.003628609
-6.253499E-4
0.0024365562
5.432619E-4
-0.0027036697
-0.005490498
-0.0060621025
-0.0032342533
8.6810335E-4
0.0055925837
0.009302864
0.012281887
0.013013955
0.008975892
0.0046713776
0.0010042753
-0.0023646688
-0.0034586114
-0.0037329465
-0.0024612779
-8.0796477E-4
7.50635E-5
6.16236E-4
-0.0017483908
-0.0037810167
-0.0031054502
-0.0017950641
-2.8518922E-4
-4.215808E-4
0.0018207922
0.00844245
0.010462553
0.004784497
-0.002139289
-0.0055164266
-0.0062447404
-0.008301209
-0.015604506
-0.021490823
-0.014345574
-5.699802E-4
0.010173381
0.012002747
9.72626E-4
-0.006732838
-0.008398041
-0.01572486
-0.016886862
-0.007873355
0.0061814804
0.027222732
0.041791603
0.036313776
0.01532862
-0.009042801
-0.029464051
-0.04314074
-0.050152533
-0.04673493
-0.009081584
0.05052446
0.077747844
0.07447667
0.06798716
0.056968633
0.030913806
-0.027838511
-0.08158744
-0.07548179
-0.044162154
-0.02819451
-0.026657348
-0.032139663
-0.0118254265
0.036201876
0.067512654
0.06796661
0.049250662
0.023517044
-0.006625166
-0.046998203
-0.07383709
-0.06353626
-0.034193046
-0.008733653
0.0010854064
-7.027745E-4
0.0054701013
0.01918654
0.027526138
0.023296624
0.008351922
0.0017927883
0.0049554994
0.0011154023
-0.006280295
-0.009982543
-0.00934233
-0.005594171
-0.0028476445
8.301102E-4
0.0043007457
0.00686402
0.012358653
0.0147571
0.012941848
0.012694341
0.012689816
0.012099605
0.0054196413
-0.008495654
-0.012436769
-0.0038543993
3.9717378E-4
-0.0015200991
-0.0030854829
-0.0033040803
-0.0026929593
-0.004452298
-0.0063356683
-0.0046456126
-0.0020904052
3.4405725E-4
-0.0011693164
-0.005849771
-0.0055584977
-0.004109121
-0.0040290332
-0.0011071
0.0011587958
0.0019436022
0.0034120022
0.0042540156
0.0024266103
-0.0029298814
-0.006591134
-0.0059347316
-0.004898033
-0.002857396
0.0014342669
0.0042931726
0.0057552177
0.007714695
0.0053048846
-0.0011096017
-0.0049761957
-0.0065087825
-0.004186654
7.9251186E-4
0.0024259978
0.003619706
0.0054337475
0.0060999137
0.004781426
-3.341742E-5
-0.002290046
-0.0021079357
-0.00339981
-0.0029657404
-0.0018588124
9.478229E-4
0.004871495
0.0055069993
0.0043053664
4.424128E-4
-0.003504508
-0.0048617017
-0.0053311526
-0.0023983656
-5.486984E-4
-0.0010039135
0.0013645814
0.0035996025
0.0037218137
-6.938782E-4
-0.0041826903
-0.0011729621
-0.0019418581
-0.0026210782
-1.6540686E-4
-0.0018207922
0.0033280342
0.00975751
0.0014637978
-0.006545332
-0.003254193
-5.87389E-4
-0.003146998
-0.0024020227
9.854279E-4
2.804747E-4
0.0010955133
0.004970267
0.0049524056
0.0015245493
-0.0017211206
-0.0025866588
-0.0023029814
-0.00203342
-1.8057745E-4
0.0021603415
0.0055412496
0.008149771
0.005202464
-2.9560924E-4
-0.0038439718
-0.0042221737
-0.0032383064
-0.003740596
-0.0029306503
-1.12907555E-5
0.0018973564
0.002870986
0.0023483727
-8.2817563E-4
-0.0044761538
-0.004030189
7.475644E-4
0.0025937064
3.8084868E-4
0.0013236916
0.0044888873
0.0037511454
4.8524103E-5
-0.0029730625
-0.004698466
-0.0062735383
-0.0074585304
-0.006357333
-0.004112529
-0.0026659574
-6.0217956E-4
0.0026518467
0.003975682
0.0010008707
-0.0021412296
-0.0018993303
-6.440135E-4
8.6837455E-5
-0.0027698998
-0.0054931794
0.0012681668
0.0073019955
0.0035925503
-0.001141675
-0.005123122
-0.0074095493
-0.004242075
0.0048508155
0.018854935
0.02647403
0.024625959
0.020515151
0.012886462
0.0038102095
-0.0071257115
-0.016685382
-0.010485541
0.004672664
0.012156012
0.008691526
0.0010600849
-4.3624274E-5
-0.0025173668
-0.013094679
-0.019493219
-0.020917641
-0.02002915
-0.015218055
-0.012794131
-0.013767662
-0.013001472
-0.009598333
-0.00874879
-0.012108177
-0.011552988
-0.0065191505
-0.0037577497
-8.5029786E-4
0.007747892
0.017761452
0.022239897
0.023431886
0.021961927
0.016293535
0.00789285
-0.006744131
-0.013624884
0.0080523975
0.03596132
0.04123828
0.035234723
0.03244285
0.025215866
0.0021970505
-0.027995314
-0.03888343
-0.028758705
-0.020890433
-0.01700194
-0.0092300465
-0.004601971
-0.005072077
-0.0051994473
-0.005862124
-0.00982059
-0.0126084415
-0.011025922
-0.0100774355
-0.008731539
-0.0052188565
-0.0018521324
0.0037923509
0.0070591928
0.0057159252
0.0051235063
0.0037084867
0.0035095022
0.004725994
0.005612273
0.008825294
0.010029631
0.011103704
0.01106837
0.0033988375
-0.0018520938
-0.003636547
-0.0066992277
-0.005136053
-0.002507325
-9.5837365E-4
8.9403056E-4
0.0013196432
0.0028749744
0.0026372836
-8.315631E-4
-0.0022396294
-0.0011443793
-7.6996064E-4
-0.0017830314
-3.519069E-4
0.0023386679
0.003867891
0.0055566807
0.0030236265
-0.0015268566
-0.0032478587
-0.0056633377
-0.005879599
-0.003902858
-0.003990933
-0.0016231696
0.0020523425
0.0026022543
0.002116945
-3.0942E-4
-0.0035483418
-0.0026901602
-5.6937366E-4
-3.1679744E-4
6.155865E-4
0.0022350103
0.0036740554
0.0036665846
0.0011302087
-0.0010742568
-0.0026109382
-0.003196514
-0.00197851
-0.0011097026
9.5334795E-4
0.0035272525
0.004546922
0.0051877145
0.002787581
-0.001432973
-0.0036076219
-0.003298222
-9.898435E-4
-7.645656E-4
-0.0010062075
0.0014988305
0.002887246
0.0022256984
-3.693808E-4
-0.003492629
-0.0054546683
-0.007011031
-0.0049868096
-7.864601E-4
0.0013331877
0.003065615
0.005409267
0.007367479
0.0062406254
0.0021576963
-5.621207E-4
-8.1555697E-4
-3.4959463E-4
-7.474266E-4
-4.572016E-4
0.0011135223
0.0037110485
0.006432113
0.0021150608
-0.004366028
-0.004724459
-0.0056856317
-0.005413588
-0.002487441
-0.0022568828
4.878246E-4
0.0041704034
0.0035054276
1.2896112E-4
-0.004597097
-0.0059346147
-0.004810374
-0.0050114696
-0.0030593502
1.8293092E-4
0.0017977103
0.004221952
0.007260823
0.005162756
-0.0010988176
-0.0029772178
-8.5277535E-4
3.3035723E-4
0.0013691653
0.0028018898
0.003978105
0.005102035
0.005436138
0.003315497
-8.727474E-4
-0.0040942426
-0.0040608924
-0.0024367857
-0.0020131106
-8.437525E-4
0.0015797553
0.0037987498
0.0064092046
0.0044569494
-0.001495276
-0.0037957903
-0.004538933
-0.005232168
-0.0037259613
-0.0013625989
0.0012395778
0.0030989845
0.004027664
0.002635605
-0.0018911905
-0.005048753
-0.00454004
-0.002419237
-0.0026266035
-0.0035058258
3.5319124E-5
0.0035593805
0.0040480215
0.0026474493
-0.001728676
-0.0046540974
-0.0046032136
-0.0048365346
-0.0033079346
3.7325354E-4
0.0029485854
0.0045785317
0.005992918
0.0047027543
0.0017875566
6.9364725E-4
8.151042E-4
0.0016210389
0.0016716946
0.0014573982
0.0038396635
0.005861332
0.006004272
0.003122911
-0.0032006358
-0.005481368
-0.004757258
-0.005435845
-0.0030416364
-4.4903256E-5
3.2103324E-4
0.0023205085
0.0051258733
0.004407773
-9.0429676E-5
-0.004493858
-0.0057913386
-0.0047714585
-0.0027307267
-0.0012607619
2.5629981E-6
0.0029980987
0.0042438298
0.0013956181
-0.001785499
-0.003982775
-0.004417085
-0.002477691
-0.0012477047
5.3547055E-4
0.00417296
0.0059215534
0.0064005437
0.0059407847
0.001975231
-0.0025962049
-0.0044489414
-0.004295618
-0.0031127357
-0.0016423266
-2.2112693E-4
0.002530004
0.00568661
0.004602273
1.7279276E-4
-0.00309773
-0.003943877
-0.001709238
3.2370782E-4
3.0973877E-4
0.0024680342
0.004803096
0.0038443815
0.0015676555
-0.0014925821
-0.0042027826
-0.004730464
-0.0037154588
-0.0031425164
-0.0029747877
-4.492849E-4
0.0026382105
0.0039899023
0.003723097
-5.5306713E-4
-0.0042324755
-0.0031127864
-0.002870831
-0.0026711135
-5.011512E-4
6.412286E-4
0.0032964463
0.006694475
0.005887467
0.0011744377
-0.0030638697
-0.0029956226
-0.0017162733
-6.5518846E-4
0.002121919
0.0028421353
0.003529868
0.006204909
0.0035630243
-0.001665818
-0.0028417406
-0.003737678
-0.005014279
-0.0037350727
-0.0016504853
8.0900005E-4
0.003649241
0.00406448
0.0024023396
-6.921077E-4
-0.0042488244
-0.0045445953
-0.0036516266
-0.0025435996
-3.8704838E-4
-0.0013312547
2.8383004E-4
0.0062159076
0.004982054
4.9445825E-5
-0.0017094007
-0.003990875
-0.005438801
-0.004900706
-0.0029454755
0.001229056
0.0046788794
0.006119206
0.00536861
9.847132E-4
-0.003619673
-0.0033095167
-0.0015137318
-0.0038206573
-0.0041967696
0.0014906861
0.0060164486
0.006674981
0.005115463
0.0015949168
-9.3524763E-4
-0.0014825163
-0.0026631823
-0.0035528664
-0.0015615841
7.7384134E-4
0.0021120168
0.004897486
0.0060195317
0.0023679992
-0.0019006614
-0.003371058
-0.0026314477
-0.0017712382
-0.0024586932
-0.0031787355
-6.231304E-4
0.0035613049
0.0036920328
5.6691108E-5
-0.003266186
-0.005225427
-0.0052718814
-0.0030526621
-4.249928E-4
9.473594E-4
0.0033397963
0.0066253715
0.005890438
0.00193694
-0.0020524168
-0.0038890536
-0.0020846978
-0.0010011679
-5.8703794E-4
0.0014166778
0.0029056082
0.0046915975
0.0035180235
-8.1779255E-4
-0.003022137
-0.0055853417
-0.006765286
-0.0043357443
-0.002361676
-4.8911804E-4
8.2376634E-4
0.0027086816
0.0041375067
-4.731685E-4
-0.005314809
-0.0059931437
-0.0066391043
-0.0070225755
-0.0069406833
-0.0061390954
-0.0036535733
-0.0013919957
-0.0013250711
-0.0043767286
-0.008450543
-0.010065513
-0.008500642
-0.0057850354
-0.0043041757
-0.0027131524
9.835256E-4
0.0038109706
0.002818425
-2.6137286E-4
-0.003996463
-0.0072458484
-0.0068058297
-0.0038498957
-0.0021637667
-0.0013915104
0.0013866154
0.005826853
0.0065681487
0.0046510976
0.004300297
0.0037421663
0.0050011845
0.007832798
0.009221749
0.012106263
0.015226094
0.017762318
0.01901215
0.014637818
0.008823628
0.005211353
0.0029345385
0.0012374162
-0.002267564
-0.0043675783
-0.0037171063
-0.0027906282
-0.0036667106
-0.011536232
-0.020275403
-0.021892663
-0.022780595
-0.024390835
-0.024219267
-0.026720488
-0.030398363
-0.027702076
-0.02092397
-0.017533313
-0.0149835
-0.009377042
-0.0030461573
0.0029375497
0.008267504
0.012950867
0.017513843
0.021131072
0.02284589
0.021361269
0.017782357
0.0151977185
0.014684164
0.015706023
0.016695706
0.01714401
0.016993444
0.015566096
0.013157177
0.008383132
0.0013845166
-0.0036581808
-0.005315055
-0.005329362
-0.005251243
-0.0054861074
-0.00492947
-0.0037060538
-0.0039741383
-0.007195666
-0.011845529
-0.013616298
-0.011305157
-0.008075321
-0.00514485
-0.0030471443
-0.0019406965
-2.184692E-4
-6.061175E-4
-0.0042987172
-0.006442069
-0.0062905755
-0.0061498843
-0.0066372533
-0.0070964918
-0.00545513
-0.0017662625
0.0019439388
0.0027800263
-8.711631E-4
-0.0048758565
-0.0053241425
-0.0036864236
-0.0015460372
0.00209135
0.0066553815
0.01092488
0.014148399
0.011928155
0.006612861
0.004305269
7.107851E-4
-0.0018146879
9.998827E-4
0.0011884838
1.6894193E-4
0.0033496001
0.007290401
0.008419478
0.004152142
-0.0013597549
-0.0043046786
-0.0062946416
-0.004570106
-0.0013001127
2.0632468E-4
0.0024136011
0.0037334135
0.004264547
0.0037623106
-4.96017E-4
-0.004294672
-0.004379806
-0.003104605
-0.0026037616
-0.0016671101
9.997571E-4
0.002811619
0.00332599
0.0011792154
-0.004077745
-0.006259131
-0.0059051756
-0.0047832336
-0.0016060228
-8.912339E-4
-6.333751E-4
0.0017771943
0.0018131888
-5.536712E-4
-0.0043132026
-0.0058319927
-0.004089897
-0.004393434
-0.0031685669
-1.3424632E-4
-6.281758E-4
1.4553472E-4
0.002724832
0.0010629655
-0.004134105
-0.0078682825
-0.0071133613
-0.00433242
-0.0025943448
-0.0012831313
6.3405995E-4
0.0031015577
0.004690237
0.0031853968
-0.0014720429
-0.00413018
-0.0023812738
-8.1620464E-4
-6.9850125E-6
0.001161978
0.0019857285
0.0035811926
0.0042909496
0.0027755687
-5.737978E-4
-0.004465503
-0.0049220403
-0.0034670902
-0.0030662422
-0.0013379151
0.0017521371
0.0035280846
0.003420757
0.0022386343
-0.001528909
-0.006720524
-0.007651453
-0.0050654905
-0.0027381585
-0.0022922333
-0.0021948128
0.0029214695
0.0069235987
0.00192063
-0.0037919616
-0.004690833
-0.0043751244
-0.0036247647
-0.0010506735
0.0012703625
0.0016210709
0.004625111
0.008321273
0.0059747426
4.659248E-4
-0.003713193
-0.0034998185
-0.0016689405
-0.004062016
-0.0039295913
0.0010028724
0.004136495
0.0056986595
0.004156895
-7.9130335E-4
-0.004307001
-0.005041632
-0.004231334
-0.0035471013
-0.001556372
0.0018763134
0.0040076594
0.004572108
0.0014979831
-0.0030136425
-0.0035002546
-0.0026750239
-0.0029794162
-0.0023639563
-3.9793612E-4
0.0017819777
0.004554301
0.0065150415
0.003249033
-0.0014666492
-0.0027548317
-0.0035444917
-0.0029424937
-1.8222806E-4
0.0024474852
0.005021811
0.0059362203
0.005291927
0.0043859887
0.0013378004
-0.002844282
-0.003992161
-0.0027641088
-0.0027084665
-0.0019425128
0.0010253612
0.0041414974
0.0055491743
0.0024161155
-0.00223077
-0.0049343603
-0.006592467
-0.004839146
-0.0028417127
-0.0026720532
2.7582585E-4
0.0038203455
0.005710187
0.004931871
4.2867885E-4
-0.0030400686
-0.0031916008
-0.0018334958
-0.0010227063
-5.313348E-4
0.0016233692
0.005295213
0.008274508
0.005216716
-0.0016910337
-0.0049336315
-0.0056832447
-0.0043696556
-0.0017269335
1.9601037E-4
0.003542709
0.0057882
0.0058828387
0.0051591406
0.0018551899
-0.0020663363
-0.0035950716
-0.0020633417
-0.0010170675
-0.0016416459
9.410492E-4
0.0056291786
0.008223247
0.005091048
-0.0018640445
-0.0046267305
-0.004698984
-0.0034566955
-2.9011743E-4
3.1080656E-4
4.8412997E-4
0.0021859312
0.004729746
0.0036139577
-0.0054252925
-0.009087874
-0.0036004337
-9.6183905E-4
-8.2297367E-4
-0.0010898708
7.550323E-5
0.0051394664
0.00779356
0.004920375
-2.501807E-4
-0.003397722
-0.0035407518
-0.003402295
-0.0016869574
0.00172208
0.0038129839
0.0046335845
0.005810099
0.006396981
0.0031866399
-9.487805E-4
-0.0017791316
-0.0018494972
-0.001753626
-2.839049E-4
0.0015116605
0.0039751045
0.0067152334
0.0057641077
-7.7975594E-4
-0.0063830055
-0.00577024
-0.0030129363
-0.0015565503
-8.9374214E-4
3.612175E-4
0.0035534087
0.00651776
0.005636479
0.0012151318
-0.0029106014
-0.0050251777
-0.0055314223
-0.0037910829
-0.0014382681
-1.2118189E-5
0.0024120875
0.004879013
0.0039279414
0.0010305372
-9.973928E-4
-0.002689737
-0.0021938614
0.0010899805
0.0027822491
0.0027995189
0.0034342736
0.005425119
0.006908508
0.0025637636
-0.0034017696
-0.0036118177
-0.0020942688
-0.0013205219
4.4949117E-4
0.0019881523
0.003970409
0.00664737
0.005825892
3.6089853E-4
-0.004660223
-0.007128804
-0.008105994
-0.005819493
-0.0020474023
-1.3581027E-4
0.0023603293
0.0052645737
0.0050832555
0.0028510757
4.1793868E-5
-0.0024400712
-0.0024023473
-0.0014567054
-0.0013160459