0.0070535312
0.011382622
0.012815277
0.008890984
0.0044235676
0.0014929429
-0.004213728
-0.011450883
-0.0111372955
-0.0033912219
0.004854794
0.012224897
0.015382737
0.011420935
0.0020788657
-0.00967316
-0.016917743
-0.017453918
-0.014799797
-0.009557086
-0.0028985108
0.003183282
0.0049405713
0.0013037649
-3.783368E-4
0.0019138573
0.0022358594
2.760734E-4
2.5150317E-4
3.0084452E-4
-0.0028140103
-0.0048307814
-0.004043298
-0.0027821318
-1.3524412E-4
0.0023072464
0.0030422753
0.003252389
0.0032383264
0.004810825
0.0076340917
0.008754572
0.008199012
0.006762587
0.003819706
-6.1837665E-5
-0.005006758
-0.010576805
-0.009612002
-0.0016154182
0.0042453655
0.009128796
0.01370223
0.0109970225
0.003949646
-0.002300823
-0.0082495045
-0.012785795
-0.012597065
-0.0054087946
0.0046863104
0.010231602
0.009127722
0.0053750747
0.001771296
-0.0026901395
-0.007323465
-0.010257784
-0.010207834
-0.00813451
-0.0059295804
-0.0033880637
-0.0030972844
-0.003175625
-9.333675E-4
-0.0017548716
-0.0020526575
7.647707E-4
9.112708E-4
0.0013643566
0.0034355773
0.0047678496
0.004467384
0.0025037243
0.002252488
5.045339E-4
-0.0021976721
-8.39696E-5
0.004050581
0.009281406
0.013510519
0.013444787
0.009499674
0.0040474865
0.0042854534
0.005496739
0.0028154012
9.441147E-4
-0.0035641945
-0.0049507204
-0.002221976
-0.004345664
-0.0047243643
-0.0066418448
-0.010375376
-0.007346743
-0.008870059
-0.011144554
-0.0045837685
-0.001082063
-0.0011309092
0.00120174
0.0028003757
0.0011538941
-0.001836431
-0.0026859902
-0.0018248743
3.7216354E-4
0.0014277651
0.0013827293
0.00496466
0.0072479984
0.006660935
0.005629332
2.970517E-4
-0.0024110735
0.0023763427
0.0064285616
0.0072641564
0.0054534846
0.0011920842
-0.0021981294
-0.004461602
-0.0063671796
-0.004567378
0.0019747897
0.0070864283
0.0065597533
0.0034652376
9.789757E-4
-5.4797315E-4
-0.0017877939
-0.003827623
-0.0053024013
-0.0051372843
-0.006771454
-0.008783476
-0.007051655
-0.0052447147
-0.0026613055
0.0037253115
0.0070314812
0.003797621
-0.0020848692
-0.0055206944
-0.0029129584
0.001158242
0.001370909
1.4718535E-4
8.796495E-4
0.002221313
0.00311915
0.005271467
0.0065266504
0.006466365
0.00941945
0.014727588
0.019079933
0.020160368
0.016585628
0.006001114
-0.010660144
-0.019573167
-0.015557049
-0.0115547925
-0.0120828925
-0.011996569
-0.00865885
-0.005067325
-0.004484039
-0.0033203831
-0.0036341753
-0.007701476
-0.0077486234
-0.004981046
-0.004589228
-0.0030917567
-7.256442E-4
-3.5450282E-4
1.153373E-5
0.0020423213
0.004687411
0.0067822943
0.0073806546
0.006891462
0.0074322214
0.009410142
0.012754281
0.015778007
0.015641622
0.014370074
0.010732527
0.0010059446
-0.008982223
-0.013058505
-0.012125124
-0.008082366
-0.0024871777
0.0014736416
0.0015610891
7.388611E-4
-6.59586E-5
-0.0036903892
-0.006152908
-0.004746075
-0.0046321973
-0.0048160166
-0.0028739783
-0.0028623084
-0.001735576
9.845069E-4
-0.0016078816
-0.0023376292
0.0011098122
4.5919878E-4
0.0010413997
0.0027376884
0.0012993797
9.912812E-4
-2.1498131E-4
-6.4502354E-4
0.001121092
0.0018695476
0.0034127394
9.055785E-4
-0.0031174964
-0.0014327347
-6.4275635E-4
-3.4716367E-4
6.6095823E-4
-4.7036918E-4
0.0015036225
0.0036012153
0.0014053611
-4.4819133E-4
-8.734752E-4
-0.001047604
-0.001087838
-0.0013996784
-0.0010388631
9.63727E-4
0.0022716073
0.0016897867
0.0014625287
0.0015951118
0.0034960406
0.0038896378
-0.0016831883
-0.0036463754
-4.4945878E-4
0.0016741408
0.004824706
0.0046120365
0.0018549047
0.0022738017
0.0013507968
-4.2646207E-4
-0.0016733244
-0.0015652099
0.0019197294
0.0011923014
-0.0035379913
-0.006662845
-0.009496639
-0.008007325
-0.0035541344
-0.0027194147
-0.0037003222
-0.004462632
-0.0026130418
0.0011755927
0.0023657456
0.0024391985
0.0015172926
-2.3173215E-4
7.7464554E-4
0.0023303234
0.0021090033
0.0017812632
0.0025986368
0.0042186584
0.0053683682
0.0059916847
0.005873447
0.00500572
0.0037277786
0.0021799738
-4.7022774E-4
-0.0043743597
-0.003790555
-3.122881E-4
0.0010673641
0.0024307158
-0.004148726
-0.0121445125
-0.004849272
0.0013565798
-9.77053E-4
3.2167963E-4
0.0011196038
4.981307E-4
6.98017E-4
0.001398331
0.0039348854
0.003945687
0.0035663398
0.0034054597
-9.898529E-4
-0.004672506
-0.003739364
-9.9061144E-5
0.0010871688
-3.6041067E-5
8.2437927E-4
-0.0012533163
-0.0050253957
-0.0049947915
-0.004070098
-0.0032970624
-0.0029286947
-0.0013078531
6.40068E-4
-1.4779321E-4
0.0020587628
0.005685954
0.0064326413
0.0075334143
0.0046697794
-0.0017094547
-0.0034841106
-0.0013996146
0.0017270956
0.0043371036
0.0044941087
0.003714859
0.0037771352
0.0032733353
4.4238035E-4
-0.0027194738
-0.0038920548
-0.0033700508
-0.0013677103
-3.2076292E-4
-0.0016795382
-0.002603463
-0.0031289428
-0.0042214706
-0.004579498
-0.0044255033
-0.004239773
-0.0038658348
-0.0022858689
-3.8756796E-5
0.0014406086
0.0036714454
0.0046866545
0.0035723182
0.0024500457
-0.0013205757
-0.0036752324
-8.665048E-4
0.0011017204
0.0014093152
0.0018028965
0.0025587208
0.0029043567
0.0024291216
0.0033508183
0.0032239447
0.0034539541
0.004663261
0.0032062277
0.0034048161
0.0033062613
0.003490572
0.006022087
0.002255387
0.0012706437
0.0010358683
-0.012302426
-0.016589686
-0.005196682
0.0019826577
0.0032277366
5.092213E-4
-0.0020624795
-0.0020046155
-0.0030330126
-0.0024975925
-0.0025556842
-0.0042115017
-0.0037654187
-0.0038316867
-0.004195521
-0.0035121145
-0.0028693469
-8.8259357E-4
0.0020682
0.0024221113
2.1232125E-4
4.991316E-4
0.0021081523
0.0012737787
9.308489E-4
0.002148528
0.003354995
0.0030945223
0.002457162
0.0034729866
0.0024274595
9.4613334E-4
0.0015761052
0.0016649807
0.004893892
0.008259642
0.006990462
0.005313642
0.0013983318
-0.0023780782
-0.0026565995
-0.0027532547
-1.11586E-4
9.94324E-5
-0.002244189
0.0023611898
0.0021171675
-0.0047005177
-0.0039643766
-0.0040215976
-0.0073171235
-0.0043572607
-0.0011044781
6.2729516E-5
0.0024548227
0.001279957
-0.0023539928
-0.0034947682
-0.0049106646
-0.0072151823
-0.006848913
-0.0030345353
0.0028930227
0.0069011035
0.005920268
0.0011398912
-0.0038450288
-0.0048298463
-0.0038703927
-0.003863831
-0.0020625987
6.7694567E-4
0.0021595473
0.0026753065
0.0037149994
0.006228559
0.005811791
0.002342972
-9.551887E-4
-0.003397636
-0.0015717169
0.0013590527
0.0026040422
0.0045188824
0.003739189
0.0032397402
0.005663491
0.007290816
0.0080993865
0.0027684995
-0.0060423003
-0.0074001746
-0.0045697116
-0.0025663192
-0.0021671301
-0.0015976675
0.0021320244
0.0047878106
0.0051713535
0.0015492624
-0.006779546
-0.008878705
-0.005166136
-0.003767918
-0.0026086324
-0.0019097673
-0.0023575125
-0.0011800171
2.5612794E-4
-9.1211905E-4
-0.0035570895
-0.004113651
-0.0019722555
6.2589726E-4
0.0015902807
0.0027495753
0.005199896
0.0041309083
0.0025115476
0.0032518539
0.0014201005
5.553399E-4
7.161956E-4
-4.982464E-4
6.793413E-4
2.333266E-4
-0.0014470579
-0.0018580775
-0.0032570167
-0.0023159569
-0.0019906198
-0.0026532903
7.717188E-5
0.0013280242
-1.463071E-4
-0.0032238301
-0.0048807105
-0.0029926884
-0.003243824
-0.0038882617
-0.0031128828
-9.553583E-4
0.0033603068
0.0036581252
0.0037659546
0.006831799
0.009295404
0.013728477
0.013947522
0.007934962
0.002974388
-7.1098446E-5
-0.0017537234
-0.003966423
-0.004023252
-0.0019593134
-0.003287952
-0.00513795
-0.0069806776
-0.006643024
-0.0025463097
-0.001835924
-0.0024252106
-0.0020345808
-0.0025349394
-0.002336232
-0.002860183
-0.0034070893
-0.003973508
-0.003947872
-0.0022358845
-0.0023145378
-7.655975E-4
0.0020309854
9.91665E-4
0.0011116242
0.004513317
0.009533097
0.011911894
0.005494606
-0.0028875135
-0.0068390872
-0.008343267
-0.0052375128
2.2897495E-4
0.0025310977
0.0033365842
0.003178145
0.0022905394
0.0022338114
4.738185E-4
-0.0017476823
-0.0012431243
8.8946056E-4
0.0027606215
0.002692337
8.813231E-4
-0.0021062624
-0.0016677541
0.0027752072
0.003728532
0.006461847
0.009633194
0.006840307
0.005243509
-0.0038618399
-0.011589706
-0.0028352055
-0.005615011
-0.013754263
-0.0061402335
-0.0030437312
-0.0028007356
-6.675908E-5
-0.0025310882
-0.0036569564
-0.0051491354
-0.005606037
-0.0035410807
-0.00429416
-0.0032423788
-0.002276654
-0.0011826347
0.0023367864
0.0021094717
0.0026415796
0.004924511
0.004078871
0.0034524344
0.0036662365
0.0057296953
0.007297022
0.003149686
3.9790093E-4
0.002933807
0.005030559
0.005486994
0.0040107686
0.002323443
0.0026697163
0.0015862866
0.0015760636
-6.6191144E-4
-0.012727369
-0.016237462
-0.0040048705
0.003353848
0.003847816
0.0019540444
-0.0031005682
-0.0056401934
-0.006936525
-0.00758542
-0.005875671
-0.0039153155
-0.0019688723
-0.0019239867
5.2993564E-4
0.0077720345
0.011346446
0.010081262
0.003617121
-0.005449511
-0.006915148
-0.0044694706
-0.002743284
3.56355E-4
0.0018188986
0.0037669102
0.0068319626
0.007341195
0.006410138
0.0030287348
-0.0012596619
-0.0039909566
-0.00659767
-0.007261485
-0.0073383143
-0.0080452785
-0.0060611204
-0.0034347072
-0.0034535755
-0.0038099885
-0.0020768612
4.387139E-4
0.0038862585
0.006175421
0.0039581084
0.0025304654
0.0024817009
0.0015409007
9.2857535E-4
-0.0017958101
-8.37971E-4
0.004240699
0.0077992785
0.013832694
0.01852293
0.018650841
0.009400899
-0.008227321
-0.012933516
-0.01066735
-0.012619637
-0.010195946
-0.0090783555
-0.0056756414
-7.1119954E-4
-0.001207668
0.0014812928
-0.0037181096
-0.010427147
-0.0013055336
3.5208234E-4
-0.0071667805
-0.006753021
-0.002820619
0.0035946823
0.008718955
0.006944688
5.0683215E-4
-0.0046942006
-0.0023126851
0.0039746375
0.010055548
0.0117796315
0.0069815
0.0057201115
0.0060364883
-1.1774887E-4
-0.006553543
-0.007247896
-2.1445952E-5
0.008670755
0.010055485
0.0038620413
-0.014571719
-0.03264447
-0.02632805
-0.009414313
-0.00235313
1.7457991E-4
0.0048729153
0.010919347
0.009074454
0.002182857
-5.069757E-4
-0.0072171423
-0.008653852
0.00383576
0.013809397
0.021268051
0.024468573
0.013924018
-0.0056007337
-0.023464402
-0.017663995
0.0063407994
0.015681708
0.013287525
0.014461313
0.01586819
0.009519304
-0.0040637488
-0.015111233
-0.023397602
-0.025589816
-0.017769355
-0.012345425
-0.011910277
-0.0109380875
-0.0075694798
-0.0027548033
-0.0016959553
4.2718582E-4
0.0046536713
0.003834426
0.0016641247
0.0017600378
0.0020711944
3.2966846E-4
-0.0013233873
0.0018611295
0.0062972633
0.010741536
0.016458381
0.014634957
0.0046093115
-4.899542E-4
0.0031220354
0.009227695
0.0108484365
3.331234E-4
-0.012537874
-0.012292101
-0.009083652
-0.008543424
-0.0057475315
-0.006359504
-0.0042447075
0.003246682
0.0037026564
-0.0012375072
-0.002947682
0.0022634382
0.006874525
0.0023787832
-0.002303047
-0.0041399677
-0.004126732
3.37864E-4
-8.624139E-4
-0.0054838993
-0.0024159392
9.018452E-4
0.0010139672
0.0023848226
0.00284327
0.0015449896
-0.0010469904
-0.005492857
-0.009184031
-0.010602579
-0.01126741
-0.010575734
-0.009375507
-0.007919781
5.856781E-4
0.011897083
0.011680698
0.004388764
0.0015898824
0.0024102097
0.0050101588
0.008229417
0.010608169
0.01115065
0.00840345
0.009043636
0.012385255
0.0093907
0.0051391986
-6.08699E-4
-0.008930555
-0.010315708
-0.010602089
-0.010884576
-0.005205885
-2.2508971E-4
-2.5277684E-5
-0.01069751
-0.017925717
-0.0013813766
0.012756085
0.006204005
-0.009251941
-0.022839118
-0.019449675
-0.0015279265
0.01722532
0.017882729
-0.011830711
-0.031024426
-0.016109101
5.187917E-4
0.009891703
0.018376438
0.02172674
0.022168769
0.019190002
0.010294413
-0.0010761044
-0.0075234515
-0.006421475
-0.0052992003
-0.008931604
-0.011683586
-0.0071859118
0.001850019
0.009397388
0.008839564
-3.337942E-4
-0.0048539247
-0.0018621593
0.0035491735
0.009019727
0.0011508364
-0.014014534
-0.016949527
-0.013871304
-0.010023107
-0.004954526
-0.0036229382
-0.0022297546
0.0011252086
0.0058244206
0.013039713
0.01797626
0.015676172
0.006698832
-4.5356847E-4
-0.0018770868
-0.006409028
-0.014363027
-0.01337787
-5.050265E-4
0.009108857
0.0088980105
0.0110619
0.013455096
0.009154526
0.005802613
-0.0011190653
-0.016373672
-0.026040701
-0.022748882
-0.012317791
-0.0043959804
-0.0041487557
-0.0076835677
-0.011512793
-0.012376392
-0.008718418
-0.0038722702
0.002281905
0.007967418
0.009638089
0.010686577
0.014071957
0.017809914
0.018282803
0.015744809
0.012136249
0.003953908
-0.007021035
-0.013064281
-0.017188039
-0.025383132
-0.026614776
-0.007805276
0.017506838
0.029174132
0.031684868
0.036550447
0.042094167
0.043851122
0.038594626
0.012083216
-0.032564554
-0.051683433
-0.03559123
-0.02211645
-0.018738763
-0.018645858
-0.019875748
-0.0132701015
-0.007901265
-0.00853049
-0.0072687087
-0.007383792
-0.007904809
-0.0063434816
-0.0033398613
-9.76385E-4
-0.004248676
-0.007950584
-0.006322215
-9.557304E-4
0.004695217
0.0073331594
0.012754492
0.02737555
0.040027056
0.038392678
0.035475884
0.034687616
0.018524703
-0.0032112626
-0.012228861
-1.5334508E-5
0.024382723
0.030994188
0.027091464
0.0149895465
-0.0182289
-0.036747072
-0.047114052
-0.079422094
-0.0876453
-0.056212418
-0.045366403
-0.05938365
-0.036819737
-0.0018182653
-0.003238634
0.008462744
0.045628425
0.07879638
0.091826886
0.05113881
6.7551027E-4
-0.021173911
-0.04000571
-0.038897287
-0.03442733
-0.034875628
-0.005444776
0.02034294
0.03931986
0.087378
0.12301113
0.10554576
0.07672926
0.055288646
-0.013855562
-0.08795474
-0.08180705
-0.0490714
-0.03746071
-0.035013307
-0.036456123
-0.024167918
-0.017864635
-0.0227348
-0.011106713
0.0016864253
0.011882354
0.020552667
0.008467725
-0.017016632
-0.03543428
-0.03167213
-0.0128350165
-5.15886E-4
-0.0013568854
-0.008113251
-0.0065379306
-0.0041930024
-0.0068885996
0.0048785666
0.022278793
0.027298179
0.02246234
0.006606845
-0.009790505
-0.00957157
0.0037118297
0.0154172275
0.018550003
0.015161088
0.0071327128
-0.0028283887
-0.010160447
-0.009405181
2.94128E-4
0.009031203
0.014834653
0.02307634
0.029066952
0.030293256
0.02871425
0.020602489
0.0056718504
-0.0076206382
-0.015300585
-0.021390997
-0.023492903
-0.018781316
-0.014604547
-0.014246182
-0.015021582
-0.014547695
-0.010791233
-0.007318198
-0.0067377645
-0.008146284
-0.012401222
-0.01511798
-0.012884673
-0.01101888
-0.008432423
-0.0011608646
0.003409461
0.0036838248
0.0069265333
0.010089757
0.011327407
0.013531712
0.014045252
0.013870256
0.011843414
0.006394115
0.0036082698
0.002488423
0.0010223644
-3.5967137E-4
-0.0040486073
-0.005571429
-0.005337057
-0.007031999
-0.005756131
-0.0018840365
0.001221943
0.003320461
0.004932989
0.008006504
0.008882997
0.0054290807
0.001548397
-0.0012265273
-0.0019526755
-0.0018289621
-0.0024666288
-0.0019142693
0.0012392984
0.0045092073
0.0046058754
0.008186039
0.013039379
0.00675874
0.00663208
0.018661484
0.013469403
-0.002561542
-0.006075133
-0.004070921
-0.004516063
-0.0083017675
-0.010952388
-0.0073011345
-0.003251562
-0.0016156585
-0.0027043803
-0.0043481975
-0.0026337074
-0.004711121
-0.00948572
-0.009060795
-0.008224475
-0.008413674
-0.0060456875
-0.0032942186
-0.0017928891
0.0016486835
0.006057116
0.0041606133
9.1591536E-4
0.004072543
0.006284507
0.004470175
0.0023515783
8.881201E-4
0.0013322036
0.0015962012
0.0013986191
0.002433425
0.0015661691
-0.0011216265
-0.0017102294
1.4900055E-4
0.0025372447
0.004602978
0.0057196994
0.005594462
0.0048460234
0.0027425776
6.1563E-4
-6.705494E-4
-0.0027956385
-0.0026374774
-0.0010985568
-0.0014279032
-2.3534543E-4
-2.7787406E-4
-0.0027439445
-0.0028914276
-0.0038090616
-0.0043972055
-0.0013430417
-6.91569E-4
-0.0027210752
-0.0020208496
-5.3398154E-4
-0.0015790205
-0.0025481638
-0.0028356542
-0.004642362
-0.004187325
-8.8732596E-4
-1.8590053E-4
-6.5313396E-4
4.312278E-4
0.0018249976
0.003213873
0.0030248929
0.0014017242
0.0013978584
0.0018353808
1.12979986E-4
-0.0018975168
-0.0019302404
-3.8354157E-4
0.0016682526
0.0019405981
2.2651126E-5
-4.1503372E-4
9.269112E-4
0.0016690354
0.0019482948
0.00197388
0.0020026325
0.0013844399
3.337014E-4
0.0013484841
0.002658488
0.0032995702
0.0040179114
0.0015876354
-0.0015460661
-0.0027447655
-0.0039242306
-0.0025550316
-0.0017597416
-0.0039700577
-0.002071255
0.0017940704
0.0031664306
0.005287235
0.0064271563
0.004641543
0.0025518218
-2.8949076E-5
-0.003164387
-0.0040093637
-0.0026762509
-0.0014100458
-5.706466E-4
-5.333212E-4
-5.470779E-5
0.0015351325
0.0017251382
0.0013487563
0.0010562155
-4.1501023E-4
-0.0010491459
-6.8656664E-4
-0.001182058
-0.002566661
-0.0034864037
-0.003295561
-0.0033179696
-0.002498737
-0.0012778327
-8.2025054E-4
0.0018920817
0.0032951718
0.0011204857
0.0014492742
0.003488713
0.0049430574
0.0051691392
0.001741177
2.8903443E-5
0.0028619457
0.0045516733
0.0045600017
0.003782452
0.0018388312
0.0015150951
0.001426598
-0.0010975408
-0.0027609847
-0.0025451467
-0.002403606
-0.0010059912
0.0014832463
0.0017821917
-5.3903466E-4
-0.0017188314
-1.3816232E-4
3.0860025E-4
-0.0015503486
-0.0021987585
-0.0012486114
-6.8164145E-6
0.0018598873
0.002386228
-4.8727277E-4
-0.002711198
-9.47759E-4
0.0022403938
0.003990354
0.002795977
0.0016802333
0.003479944
0.0037233464
0.0012117865
-0.0013837966
-0.0025804208
-0.0014831086
-0.0016910488
-0.0035493018
-0.0037602566
-0.00232242
1.2658081E-4
3.7897256E-4
-5.8488204E-4
4.9378345E-4
4.7549323E-4
-3.326505E-4
-0.0010802675
-0.0016686841
2.5985047E-4
0.002128872
0.0026021707
0.001676424
0.0017743176
0.0052558514
0.0042567714
0.0019765804
0.0050243167
0.0033718848
-4.825169E-5
0.0034707761
0.005605682
0.003989335
0.0040890933
0.0033091018
9.5549144E-4
0.0020332732
0.0038546543
0.0024325135
-1.0763077E-4
-0.0023842996
-8.69333E-4
5.1310234E-4
-0.0054704915
-0.010478747
-0.010737693
-0.009957556
-0.007360215
-0.0062292553
-0.004705674
-9.0795284E-4
-6.077229E-4
-0.0013232173
4.4168023E-4
0.0013092606
9.5712626E-4
0.0015898533
0.00177595
0.001076962
0.0024920623
0.0040093777
0.005014181
0.008046147
0.008970964
0.00792223
0.008367744
0.0067995563
0.003529235
0.002683933
0.0021365425
-9.9441284E-5
-6.97143E-4
-1.7533177E-5
1.0363759E-4
1.8902852E-4
-0.0010864775
-1.1873422E-4
0.0016773832
-0.0023347477
-0.00457135
-0.003027391
-0.0033513848
-0.0020349335
-5.010338E-4
-5.7344E-4
-8.993005E-4
-0.0028808026
-0.0035678048
-0.0028691897
-0.0034856885
-0.0031895952
1.6045276E-4
0.0043654996
0.005506271
0.0042686537
0.0016839404
-9.251357E-4
-3.4459663E-4
5.457691E-4
-1.2788744E-4
-3.5993164E-4
5.8033E-4
0.002050476
0.001214022
9.340035E-4
0.0032034107
0.0028918213
4.660437E-4
-8.5678644E-4
-1.3146109E-4
6.801311E-4
-2.3210894E-4
3.2942538E-4
6.4461894E-4
-9.075913E-5
0.0017271598
0.0016993779
-0.0011399889
-0.0019848498
-0.0011304765
6.3115306E-4
0.0015148966
0.0014284765
0.0034581504
0.0036898593
0.0012016303
0.0034448244
0.0071930736
0.007031712
0.0069055506
0.0029065392
-0.006401891
-0.009037733
-0.004959349
-0.0038548862
-0.0039441655
-0.0015100349
-4.911356E-4
-0.0017289502
-0.0015673926
-4.6698842E-4
-4.682325E-4
-0.0014171514
-0.0016860566
-0.0010190706
-7.7951106E-4
5.362394E-4
6.6659314E-4
-0.0022777566
-0.0022830598
-8.174915E-5
8.3797914E-4
0.0013750757
0.0013023358
0.0031240385
0.0056734425
0.005937472
0.004489943
0.0011901372
1.1226819E-4
8.3316566E-4
-3.6890477E-5
4.8013096E-4
8.7512634E-4
0.0012827549
0.0024799039
3.8518535E-4
-0.0015885361
-0.0017619047
-0.002835865
-0.003433276
-0.0032382905
-0.0013426719
0.0010168254
0.0012802953
0.0012266426
7.1578904E-4
1.1243031E-4
8.4047613E-4
0.0011176829
0.0012503255
9.889336E-4
-0.0011816162
-0.0020106605
6.121847E-4
0.003001211
0.002350392
0.0015517487
0.0030028597
0.004655295
0.0053110295
0.005659331
0.006686212
0.006049594
0.0013716368
-0.0019426096
-0.0037787433
-0.007064282
-0.0060475944
-0.002942384
-0.0022254328
-0.0012626757
-0.0015743452
-0.002043169
-0.0023928543
-0.0041626263
-0.00427196
-0.004232709
-0.0036051923
-0.002760884
-0.004033273
-0.002393577
-3.5796667E-5
0.0017008294
0.004758318
0.0037408818
0.0025481307
0.0033637942
0.002663528
0.0034244151
0.0037630515
0.0034378732
0.0044526635
0.0052214856
0.005257445
0.0030021865
0.0018151728
0.0024246506
6.0623704E-4
-3.3132645E-4
0.0021882695
0.004509881
0.002980383
0.0013299002
-0.0028766994
-0.013946764
-0.012614853
-1.7664928E-4
9.868691E-4
-6.330624E-4
0.0011150214
0.0017644776
0.003215242
0.0014475109
-6.425731E-4
-0.0021560816
-0.004614346
-0.003484535
-0.002915105
-0.0027188312
-8.933865E-4
4.4719622E-4
0.0027631158
0.0028473868
0.0028865333
0.003854603
6.90605E-4
-0.0015323458
-0.0018472866
-0.0022859212
-0.0010620368
-2.958395E-4
6.0498016E-4
0.0011096399
4.834466E-4
6.6223365E-5
-0.0012008437
-0.0010171313
-5.184835E-4
-0.001784327
-7.157751E-4
0.0011814074
0.0013879533
0.0025618763
0.0038969999
0.003199064
0.0026958287
0.0032640055
0.0018736925
-2.4448894E-4
6.813196E-5
0.001935682
0.0034885867
0.0034684394
0.0022970329
5.034695E-4
-3.711952E-4
1.009302E-5
-0.0023508195
-0.004973076
-0.003623817
-0.0017096766
-0.0010092334
-2.942338E-4
-4.4619376E-4
-0.0031689985
-0.004396936
-0.0015012325
-1.5816202E-4
-8.073395E-4
-0.002439817
-0.0043980293
-0.002643242
-5.3966214E-4
3.6213128E-4
6.8173365E-4
-1.7197331E-4
0.0017180498
0.001477927
-0.0026400369
-0.0036055436
-0.002717527
-0.0011103885
2.7136595E-4
-6.2470135E-5
5.4410356E-4
0.0022475733
0.0027565726
4.6212084E-4
-1.5424586E-4
0.0018125526
0.002086256
0.0031261719
0.0036629122
0.0040403716
0.006323768
0.005058022
0.002511078
0.0030451736
0.003316709
-6.518005E-4
-0.0027110921
0.0017073384
0.0021336658
0.0022004135
0.002752224
-0.0017457566
-1.8970222E-4
-0.007814467
-0.019138405
-0.0065415525
-0.003669336
-0.013833226
-0.0062385895
-3.9581777E-4
-0.0010774771
-5.155406E-5
-0.0015655584
-3.9335006E-4
-7.519812E-4
-0.0017226562
1.8819375E-5
0.0011683911
0.0048976038
0.005271203
0.0018302979
0.0024003035
0.004060236
0.004460003
0.0038165348
0.0042207954
0.005497225
0.004757189
0.0036290325
0.0010101666
-0.0018027527
-0.0024636975
-0.0032029073
-0.0029316673
-0.0020076295
-0.0016517998
-0.0017411988
-0.0028303834
-0.002821827
-0.00123144
-1.8382388E-4
-3.908193E-4
1.6850718E-4
7.1300525E-4
-8.353767E-4
-8.914747E-5
0.0012445513
4.805741E-5
7.409275E-4
9.310327E-4
1.041063E-4
5.292248E-4
-5.0412687E-5
3.0820695E-4
-4.939113E-4
-0.003049021
-0.002512934
-0.0027570007
-0.0037094962
-0.0016668934
-9.382798E-4
-0.0011466308
1.396864E-4
-5.5755797E-4
-0.0025832206
-0.0024844396
-0.0010149017
9.2802965E-4
0.0017152268
0.0010083568
0.0014495282
0.0010367824
7.20927E-5
7.845549E-4
2.9887948E-5
3.7134907E-4
0.002417139
0.002256006
0.0027199015
0.0017251364
-7.436169E-4
7.679568E-4
0.0016394662
8.234859E-4
0.0011154027
5.5547006E-4
0.0013875345
0.0013424164
-0.002909416
-0.0045290953
-0.0022104618
-0.0014474822
-0.0011958252
1.9611257E-4
1.4969251E-4
-7.4941886E-4
-4.939409E-4
4.2471164E-4
0.0010011808
-3.8457382E-4
-0.00135205
2.4865617E-4
-4.505921E-4
-0.003185047
-0.0041385274
-0.004101066
-0.002018727
1.6587651E-4
-0.0010449116
-0.0016215455
1.6909842E-5
3.5186182E-4
3.360239E-4
0.0010434713
5.661148E-4
6.000618E-4
0.0017307836
0.0018985409
0.0023144847
0.0018715669
4.926998E-4
9.622267E-4
0.0010882241
0.0011683751
0.0016190651
-1.2378923E-4
-9.1926026E-4
0.0010259183
0.0041911686
0.0058173817
0.0037562102
0.0012750118
-0.0014824896
-0.0041294596
-0.00426848
-0.0032494469
-9.843453E-4
-0.0010160585
-0.0025034628
-9.1595744E-4
-0.0013020531
-0.0016430801
-6.61279E-4
-0.0018185994
-3.0358066E-4
-4.5289248E-4
-0.0028791341
-0.0016874041
-0.0020443627
-0.0019997647
-6.8974815E-4
-9.3876425E-4
2.3122235E-4
-0.0013672506
-0.0030450162
-0.0016272801
-0.0023652345
-6.7019707E-4
0.0018246648
9.967246E-4
0.0024545768
0.0041907043
0.003524381
0.0028179456
0.0032710016
0.0034979298
0.0016476352
0.0022434143
0.004656785
0.004279905
0.0035248746
0.0023127864
0.0010882478
0.0013507584
6.3355826E-4
-7.304117E-4
-0.0021012258
-0.0030514984
-0.002477657
-0.001988851
-0.0021607224
-0.0022673625
-0.0026720066
-0.003366222
-0.00368594
-0.0040723905
-0.003985986
-0.0025224704
-0.002182292
-0.001280629
0.0026916536
0.0039575384
4.9796817E-4
-0.0023248617
-0.0011185511
0.0013358361
0.0012734961
6.590128E-4
-9.3635776E-5
-0.0014059693
-0.0021335843
-0.0029359064
-0.0012100247
9.541989E-4
-5.1367894E-4
-0.0024924518
-0.0039915433
-0.0022796511
0.0018458666
0.0027738523
0.0038166316
0.004037858
0.0017512934
0.0024753115
0.0056208274
0.008029491
0.0075982264
0.008153605
0.00713698
-0.0047030095
-0.008599473
0.0016900363
0.0030868747
0.0035894199
0.010399118
0.008811194
0.0032947704
-0.001284361
-0.0060933973
-0.008705854
-0.011982247
-0.013037242
-0.011464873
-0.012229579
-0.011270941
-0.007981449
-0.0046322257
-8.944062E-6
0.0031605118
0.004808335
0.0047491305
7.34353E-4
-0.0014684179
-8.437564E-4
-0.0018489632
-8.688879E-4
0.0012190301
0.0021297343
0.007855
0.014081103
0.011768394
0.0068091806
0.0057530818
0.004876973
0.002473252
-0.0010413515
-0.007328156
-0.011202793
-0.00977336
-0.009276965
-0.007536801
-0.0017255688
0.0019931062
0.003397912
0.005784288
0.005749496
8.5816527E-4
-0.0011820097
0.0012910909
-2.6130982E-4
-0.0013739049
0.0023410686
0.004151204
0.0029559066
4.594997E-4
-9.705574E-4
-0.001035648
0.0025069516
0.013333518
0.01730584
0.0097940015
0.005355548
0.0022837047
-0.0037462728
-0.0069617745
-0.0069558388
-0.00852115
-0.011787757
-0.009367564
-0.0032851866
-3.8106274E-4
9.3687937E-4
-0.0022776674
-0.008401717
-0.009849108
-0.009890554
-0.010095246
-0.008170207
-0.0054850443
-0.0020011733
6.115787E-4
0.0015462853
0.0022926608
0.0022151913
0.0037740148
0.0067967395
0.006091988
0.0038336152
0.0015746172
-0.002094745
-0.0015266548
1.2204056E-4
-0.0036208106
9.5715723E-4
0.01756627
0.023119977
0.01814734
0.023246078
0.028721014
0.029380681
0.030078478
0.00318165
-0.03819591
-0.04165096
-0.023190219
-0.014869962
-0.009249464
-0.006910885
-0.007637869
-0.0035585416
0.0011131869
1.5883431E-4
-0.0046425853
-0.0084102135
-0.010906701
-0.011910159
-0.012130362
-0.010168575
-0.0019745666
0.0016666612
-0.0028205398
-0.004104256
-0.0024172005
9.2973246E-4
0.0044846046
0.0061207567
0.013005741
0.024946518
0.032937046
0.033251107
0.030986838
0.02632029
0.011356062
-0.0075934194
-0.02157034
-0.028827533
-0.02371234
-0.010156657
6.361185E-4
0.0022225867
-0.0020211125
-0.0027726134
-0.00437603
-0.0094945105
-0.008575181
-0.0027770419
-0.0011655707
-0.007143716
-0.014173584
-0.014484348
-0.011469306
-0.011811008
-0.016139464
-0.017097924
-0.009471239
0.0028061154
0.016532011
0.02534331
0.02320621
0.01922936
0.023823733
0.031373058
0.028983235