-0.004183554
-0.00602583
-0.005493919
-0.0037420793
-0.001779794
0.0017149001
0.006449189
0.010715733
0.0076717003
-0.0012856711
-0.007014315
-0.009002652
-0.006936791
-0.003910802
-0.0034848426
-1.09518434E-4
0.005882594
0.010910375
0.010781165
0.0024057196
-0.004643705
-0.006298445
-0.006454868
-0.004964722
-0.0037897096
-2.6170618E-4
0.0061515425
0.0077437777
0.0040929043
-0.0020084823
-0.0076580304
-0.0092713125
-0.00821521
-0.00485967
-6.549064E-4
0.0025082969
0.0073068477
0.011156695
0.00880172
0.0013053931
-0.0055621564
-0.0064230026
-0.005018846
-0.005137859
-0.0020532988
0.0031872944
0.0076420326
0.011972002
0.010032967
0.0016015974
-0.0047529046
-0.007704582
-0.007438818
-0.004994867
-0.0034468614
-7.542502E-5
0.0050618825
0.008238914
0.008067116
0.0027115732
-0.0047665727
-0.0082583055
-0.0075538633
-0.0052822833
-0.0028875486
-3.015556E-4
0.0040720934
0.008774325
0.007975377
0.0016623476
-0.004575807
-0.0084166825
-0.007895264
-0.004063158
-6.865058E-4
0.0035593186
0.0089064995
0.011748677
0.008222025
1.7671395E-4
-0.004482241
-0.0057734386
-0.0059559103
-0.0041572605
-0.0035215358
-0.0019810097
0.0031058711
0.0070599997
0.006145202
3.0124816E-4
-0.0054796883
-0.008153054
-0.008110827
-0.0043702913
-0.0012828539
2.7623473E-4
0.0047999937
0.008978102
0.008712601
0.0040840083
-0.0016474299
-0.0039842664
-0.0040790304
-0.0038232978
-0.0025804772
5.3240487E-4
0.0056856405
0.009459225
0.008211091
0.001832891
-0.00538926
-0.008931259
-0.008826997
-0.006050822
-0.0034952478
-0.0016540905
0.0032772894
0.0077564963
0.0073064775
0.0032530099
-0.0016972341
-0.0035265663
-0.003428654
-0.003627547
-0.0025645876
-0.0012430842
0.002807814
0.009658748
0.009880687
0.002289349
-0.0050474717
-0.008457113
-0.008355793
-0.006324531
-0.0037670378
-2.3801206E-4
0.004626309
0.007637548
0.006252757
0.00254161
-0.0019488758
-0.004974413
-0.004772277
-0.004869952
-0.004803667
-9.801285E-4
0.0051978314
0.010363762
0.009551829
0.0029880053
-0.0035661096
-0.008234264
-0.008318529
-0.004766539
-0.0025171912
0.0014025242
0.0067256805
0.00874999
0.00845933
0.004454725
-0.0028514739
-0.006346731
-0.005151919
-0.0045110816
-0.004145318
-9.642157E-4
0.0037905036
0.008619159
0.009413488
0.0014240345
-0.007588442
-0.009976936
-0.008407885
-0.0040473565
1.4861442E-4
7.38298E-4
0.0027313994
0.008282614
0.010132829
0.005018672
-0.0017534997
-0.006965986
-0.008227793
-0.006062829
-0.007723845
-0.0070171882
0.0037106131
0.012058287
0.011640043
0.0066527086
-7.839625E-4
-0.006431304
-0.008703485
-0.006878735
-0.0019403554
0.0021925475
0.006172234
0.009014896
0.009318778
0.0053423373
-0.0033454509
-0.0064540245
-0.0043309736
-0.0050493423
-0.003268226
4.867774E-4
0.0034989368
0.0077536064
0.006671176
8.05627E-4
-0.0040517957
-0.007740346
-0.007789578
-0.0058559147
-0.004063617
-7.816102E-4
0.0028601026
0.0072341696
0.008496642
0.0028798298
-0.0029514837
-0.0047920924
-0.004102127
-0.003131658
-0.002190272
-4.1364623E-5
0.0020040567
0.006286749
0.009448354
0.004655218
-0.0016563707
-0.00652958
-0.009209843
-0.0062798634
-0.0035882278
-2.4213195E-4
0.005037017
0.0070161805
0.008289207
0.0062042545
-9.14268E-4
-0.0053402497
-0.0062424266
-0.005643444
-0.0036478948
-9.140572E-4
0.001956488
0.0056893015
0.00918712
0.0060220985
-0.0018260919
-0.007328951
-0.009465761
-0.0076110163
-0.0043576
-6.165381E-5
0.005774034
0.008748983
0.009030717
0.0052130814
-2.9503478E-4
-0.0013714307
-0.0019755578
-0.0010161862
6.472618E-4
-6.3350186E-4
0.002644617
0.0051948032
0.002079367
0.0011146031
-0.0023695782
-0.0077745686
-0.008206867
-0.007765111
-0.005996534
-0.0015467277
0.0025716056
0.0053971754
0.0062059024
0.0045371945
-0.0015421793
-0.0071415664
-0.006199593
-0.005851125
-0.0072452216
-0.004435674
0.0013592901
0.008338112
0.011591867
0.007626357
1.3686124E-4
-0.006197178
-0.0063217687
-0.003081294
-1.4720908E-4
0.0046391273
0.006881628
0.007329674
0.0094880015
0.0070840255
3.4725966E-4
-0.004954184
-0.0059679183
-0.004400829
-0.0046239607
-0.0023980313
0.0036673008
0.008106593
0.009692631
0.005013553
-0.0045312396
-0.010228948
-0.010967593
-0.009739881
-0.0060650576
-7.414674E-4
0.0026047695
0.0054110927
0.00802323
0.0038677978
-0.003257312
-0.005487853
-0.005840394
-0.0061506117
-0.004536674
-7.4576854E-4
0.004217855
0.008950599
0.011379627
0.007635059
-1.8770825E-5
-0.0056052785
-0.007914676
-0.0063580777
-0.0032750233
-0.0011294237
0.0025089155
0.006992847
0.008649776
0.0058696033
-4.153937E-5
-0.0050931633
-0.005980562
-0.0047845263
-0.0047049313
-0.0025541529
0.002796316
0.0076293866
0.00955736
0.0058039757
-0.0012151579
-0.006327506
-0.008781425
-0.0077494704
-0.0051602176
-0.0021119823
0.0037246863
0.008747175
0.0098003205
0.00810234
0.0030509795
-0.0029999828
-0.0053626923
-0.0046431096
-0.0039269538
-0.002845447
3.6532833E-4
0.0054554674
0.008460168
0.004500521
-0.003051961
-0.007836712
-0.0087929545
-0.0060001165
-0.0032887312
-0.0021466352
0.0024988241
0.008076577
0.010557798
0.008709381
1.906663E-4
-0.0066851946
-0.0066737533
-0.005590843
-0.0037320787
-0.001992337
-2.1165283E-4
0.005095523
0.009010153
0.0072413
8.4572664E-4
-0.005325737
-0.006062501
-0.0055245436
-0.005316684
-0.0016554939
0.0037175422
0.0076579885
0.008985056
0.0077283764
0.001795392
-0.005148647
-0.005639266
-0.005236281
-0.0049743517
-0.001265371
8.8650483E-4
0.0043560197
0.00787303
0.0048464835
-7.697317E-4
-0.0048138546
-0.0052250028
-0.0081321215
-0.012038567
-0.0038989591
0.0045989947
0.0060924185
0.01033674
0.00950324
0.002878866
-0.0011635057
-0.0049099247
-0.0061948113
-0.004296586
-0.0026569467
2.8409512E-4
0.00590668
0.011023084
0.008655452
4.2720072E-4
-0.0051522283
-0.007678279
-0.0077568395
-0.0043347315
-0.0012566358
8.811575E-4
0.005356582
0.008825308
0.006999192
0.0022520418
-0.002915671
-0.005198429
-0.0036445325
-0.004196373
-0.004348665
9.2888967E-4
0.0060647777
0.008569608
0.0061618383
-0.0028528296
-0.008661126
-0.008252747
-0.0075425636
-0.0059478716
-0.0027179513
0.001243431
0.0050327186
0.0065024104
0.0055723595
0.0015677859
-0.0037330333
-0.0052329707
-0.0042888722
-0.0041207215
-0.0032266865
8.181155E-6
0.0051964736
0.010129141
0.010355225
0.0033767181
-0.0043948507
-0.0074876104
-0.009541413
-0.009604485
-0.0049090097
9.401676E-4
0.006052357
0.010416281
0.011296798
0.0046642823
-0.003777176
-0.006597278
-0.008772762
-0.009201272
-0.0062480248
-0.0043677716
0.0024128521
0.008952093
0.005079205
-5.6394126E-4
-0.0037321858
-0.0055423705
-0.0046737255
-0.0018738556
0.0036307308
0.007641578
0.009763898
0.013440576
0.01183048
0.0046703853
-1.8326826E-4
-0.002594634
-0.002906755
-1.9260673E-5
0.0022418126
0.0036045047
0.008251275
0.011018574
0.0074739787
0.0020002348
-0.0043939166
-0.0070360783
-0.0052726557
-0.005462655
-0.0039074784
-0.0049238224
-0.00915926
-0.006274532
-0.007395253
-0.015324529
-0.01799622
-0.021130683
-0.027592808
-0.02540964
-0.004880179
0.020864677
0.03532729
0.045304697
0.046811607
0.03567202
0.023468291
0.0019762097
-0.02278526
-0.02218673
-0.007893306
-7.373647E-4
0.010103317
0.017120274
0.012675511
0.015271306
0.011804934
-0.008611499
-0.031752575
-0.05326436
-0.04612767
-0.023988925
-0.03530656
-0.038724337
-0.0033545147
0.02308882
0.025148813
0.023899034
0.02378389
0.02515823
0.034029156
0.01993354
-0.013051903
0.0053000697
0.031154847
-0.0025910297
-0.027112817
-0.024897961
-0.042789575
-0.054772753
-0.01955849
0.052012336
0.101120725
0.09721223
0.072994515
0.04333218
-0.0059182146
-0.07468429
-0.14653224
-0.1676798
-0.08633687
0.03717147
0.09982526
0.09027667
0.060120422
0.059233516
0.051626027
-0.013113635
-0.04490826
0.009449808
0.056109294
0.018046828
-0.069286056
-0.09413664
-0.059033368
-0.043182142
-0.018609006
0.009127192
-0.0033725225
-0.025362555
-0.027174758
0.010807261
0.0502269
0.02730801
-0.011533412
-0.02268918
-0.039631285
-0.055003982
-0.021329023
0.039434705
0.06200452
0.049590424
0.03868868
0.04097066
0.040251963
0.009751957
-0.014805266
-0.0068308106
-0.01040675
-0.01867947
-5.774164E-4
0.020524368
0.02327078
0.0031087357
-0.02490146
-0.017601326
0.033837076
0.07732678
0.081853636
0.07505403
0.044942237
-0.04560618
-0.12368399
-0.10756494
-0.052788567
-0.029149642
-0.030422473
-0.030857459
-0.017583849
-0.006411885
-0.0088576
-0.013375434
-0.019144852
-0.019661164
-0.008258763
0.0024509213
0.006984858
0.006641663
8.055559E-4
-0.007859439
-0.012299945
-0.009158402
-3.8985992E-4
0.016479693
0.03534978
0.048103865
0.05490754
0.056203585
0.055559143
0.04684595
0.039986886
0.04809377
0.04214014
0.02238362
-9.583761E-4
-0.049044512
-0.08130534
-0.06460884
-0.04541937
-0.04114722
-0.03271882
-0.01777526
7.3386764E-4
0.019311031
0.024084257
0.008049407
-0.0060904203
-0.00833567
-0.012691235
-0.014202521
-0.009357326
-0.0055259974
-9.851485E-4
0.00491578
0.009280595
0.0076534534
2.1805591E-4
-0.006214096
-0.0074735675
-0.0011243063
0.009361368
0.018492987
0.02562337
0.028436294
0.024919828
0.013480382
-0.005424449
-0.020414326
-0.021178745
-0.013987861
-0.0067869695
-1.2983945E-4
-2.6273812E-4
-0.0041792267
5.895736E-4
0.0042224894
9.046035E-4
0.004380671
0.009594173
0.009463181
0.011446113
0.010428509
0.0047455584
0.002775831
-4.6816602E-4
-0.0073564616
-0.014609843
-0.024072962
-0.027711933
-0.021413269
-0.012802316
-0.0022029586
0.007394033
0.01101801
0.010985763
0.0042466274
-0.0075198715
-0.011006185
-0.0033375842
0.0068513993
0.017970853
0.028861811
0.028327467
0.014201427
-0.0025950477
-0.014569309
-0.019180153
-0.01494267
-0.0037630969
0.0032196091
9.764616E-4
5.6930294E-4
0.0046343845
0.006442388
0.0020876708
-0.009961079
-0.022623366
-0.027738284
-0.024670115
-0.017234987
-0.008468226
3.7451574E-4
0.0057574087
0.010313149
0.015765404
0.016791126
0.01327768
0.0025542073
-0.010174811
-0.011156741
-0.0043310397
0.003436498
0.010810629
0.015875276
0.018510908
0.01568673
0.012276886
0.011032815
0.0018707336
-0.013933419
-0.024641998
-0.024821272
-0.016743159
-0.0042078355
0.0064382143
0.008798017
0.008415385
0.005954382
-0.002199509
-0.007481537
-0.007802419
-0.003987712
0.0036316689
0.00856019
0.011275756
0.00920036
6.64302E-4
-0.0074773026
-0.013013484
-0.011915517
-0.0073169847
-0.005079125
0.0016764916
0.010491003
0.0143114375
0.012010961
0.0023001742
-0.007276701
-0.0110712405
-0.010347582
-0.005794327
-0.0018513487
0.0018068912
0.007622864
0.010456175
0.007168858
-8.374528E-5
-0.0061408975
-0.007689972
-0.0075013577
-0.0067018145
-0.004647338
-0.0018320383
0.0028107169
0.007225184
0.006523603
8.616935E-4
-0.0039585033
-0.0038347824
-0.0014987463
-9.748449E-4
-0.002263206
-0.0022260658
0.0016303107
0.0065712715
0.009186556
0.009383003
0.0071544596
0.003755174
0.0026936634
0.0046911472
0.0038236885
0.0022997651
0.00998789
0.01344275
0.0010246178
-0.005680932
8.2670315E-4
0.005649285
0.006360048
0.0052955346
0.0010649755
-0.007988152
-0.01570485
-0.014794154
-0.013645812
-0.01684835
-0.023588873
-0.03252409
-0.030049006
-0.017788336
-0.007820621
0.0046772566
0.02137556
0.036007542
0.040617116
0.03173093
0.025937108
0.03509323
0.042061772
0.036138617
0.03137882
0.029272797
0.020668115
0.0070978934
-0.0104513895
-0.027912052
-0.045988776
-0.064188816
-0.0642171
-0.047906727
-0.03543768
-0.027132062
-0.014437805
-3.063305E-6
0.0055174087
0.005682184
0.0047961045
-0.004511877
-0.018291017
-0.033310324
-0.03639175
-0.024144484
-0.023574833
-0.014170323
0.014800176
0.03239169
0.06272505
0.10427821
0.13123614
0.14634135
0.1243532
0.09597996
0.067899086
-0.014102303
-0.0714763
-0.078609966
-0.11078882
-0.125653
-0.10873093
-0.080363214
-0.023100153
0.010564734
-8.2357685E-5
-0.01679705
-0.026979173
-0.03958086
-0.062530085
-0.048286777
9.429022E-4
0.020222118
0.01653763
-0.0041637626
-0.03541783
-0.03170952
0.016713561
0.08093172
0.13316596
0.17488055
0.14634512
0.020375941
-0.08048058
-0.12888035
-0.088118814
0.10336785
0.22117169
0.16446766
0.10455706
0.04173772
-0.07799154
-0.18948679
-0.20443596
-0.1331115
-0.10983298
-0.16091982
-0.20058635
-0.1634323
-0.0364131
0.0683037
0.098531656
0.12665863
0.10865395
-0.0074367686
-0.0721026
0.02678613
0.13499367
0.14216654
0.14421792
0.11492849
-0.007940339
-0.07513564
0.0024618327
0.104737714
0.14599216
0.16046494
0.12766708
0.0039393865
-0.12831149
-0.20534372
-0.23096962
-0.18586418
-0.11093463
-0.059189517
-0.024135059
-0.011853309
-0.015358819
-0.017703896
-0.030369287
-0.048915673
-0.048572246
-0.012602673
0.045557447
0.08491929
0.08001352
0.056759693
0.08593735
0.1689333
0.20348454
0.17683472
0.14561749
0.041422553
-0.1312428
-0.17667589
-0.08668495
-0.06896736
-0.13864553
-0.15495153
-0.10696666
-0.05982887
-0.030762628
-0.012744146
-0.0011899156
-8.1233017E-4
-0.0076180506
7.9404446E-5
0.015169779
0.012516196
8.70331E-4
-0.005648798
-0.005865054
0.013716763
0.06390155
0.15205723
0.261061
0.30373347
0.2282486
0.09002306
-0.057785254
-0.16285236
-0.16854522
-0.124095164
-0.098407604
-0.077103235
-0.042893242
-0.0060471543
0.00893351
-0.0098637985
-0.037376605
-0.05906692
-0.069409445
-0.060867254
-0.04713232
-0.034748144
-0.018570013
-0.0016568961
0.010572776
0.0153817125
0.016922012
0.020349124
0.026051722
0.0307827
0.036029547
0.0452874
0.048752848
0.044148576
0.038287014
0.027707683
0.01298725
-0.003631514
-0.014936103
-0.012053754
-0.005891124
-0.0034826626
-0.002262402
0.001087453
0.011076194
0.017960327
0.019585663
0.024008952
0.024025515
0.013839591
-0.0044845347
-0.017885827
-0.010705884
0.0032176943
0.004299645
-0.009048157
-0.030281402
-0.0405329
-0.032709584
-0.023887742
-0.02198354
-0.020273654
-0.009668006
0.0101534175
0.018574469
0.003908034
-0.010408178
-0.00934837
-0.0076830634
-0.007917282
-0.0022677858
0.0023453159
0.009367426
0.02247639
0.021716421
0.005892157
-0.006380485
-0.012101842
-0.013167733
-0.012190196
-0.010147653
-0.004938313
-0.001843115
0.002635422
0.0119296545
0.014216168
0.010220496
0.0069483
0.0012212824
-0.0028546003
5.775198E-4
0.0075226715
0.014960336
0.02250632
0.024455363
0.016555032
0.0060978536
2.29077E-4
-0.005361389
-0.012832104
-0.013466907
-0.0059465407
-0.0011750718
7.476177E-6
0.0016003235
-0.0029123218
-0.013036964
-0.019519387
-0.021084154
-0.019370325
-0.014705935
-0.008457809
-4.561035E-4
0.0074619185
0.009624245
0.00509611
-2.2230738E-4
-0.00358124
-0.005882227
-0.0046520988
-4.9124367E-4
0.0028346628
0.008045362
0.0153071275
0.017584484
0.013539942
0.006341495
-9.6734107E-4
-0.0037779578
-0.0030947556
-0.004531325
-0.007188188
-0.0044557643
0.0049539376
0.011602241
0.0068530072
-0.0044140657
-0.011055466
-0.011068158
-0.009037333
-0.0057165804
-0.0020271325
0.0023525516
0.008291074
0.009001094
0.004126775
-0.0014968597
-0.0074699027
-0.00741905
-0.003572026
-0.003963656
-0.002226725
0.0039384086
0.010589875
0.014339704
0.009468972
2.7242675E-4
-0.006155925
-0.008330023
-0.006500017
-0.004042671
-5.240806E-4
0.004642417
0.00889493
0.011428518
0.007873588
-8.474698E-4
-0.0054501276
-0.005691731
-0.0058488725
-0.0044503696
-0.0025689653
9.5538155E-5
0.0071016336
0.010519824
0.004938455
-0.0020798997
-0.007800402
-0.009803401
-0.007254333
-0.005844535
-0.0037504293
0.0010857652
0.007054151
0.011519965
0.008657152
0.0016124564
-0.0035891247
-0.0058748047
-0.0042281095
-0.0026205443
-0.0022661956
0.0024929447
0.01019894
0.011480133
0.005621248
3.589244E-4
-0.004295707
-0.0073672603
-0.005969662
-0.0049450537
-0.0028433204
0.0023686655
0.006934471
0.009662221
0.0066896863
-4.2225313E-4
-0.004390391
-0.0052638976
-0.0049853423
-0.0040191393
-0.0038085035
-0.0020015119
0.005763581
0.009557088
3.8547145E-4
-0.005929441
-0.003704479
-0.004150347
-0.004872724
-0.0034038657
-0.0016482207
0.0016735184
0.0053169914
0.0074713617
0.005623708
2.0290833E-4
-0.0055692587
-0.0077982056
-0.0047418284
-0.0027699436
-0.0032445728
-6.108454E-4
0.0070889774
0.013140397
0.007205181
-0.0030493266
-0.008329759
-0.011074716
-0.008161699
-0.0040327366
-0.002144451
0.0027147543
0.0059547164
0.0078108576
0.008092665
0.0017135222
-0.0032173975
-0.003410743
-0.003288521
-0.0028726652
-0.0030986776
-0.0011134548
0.004452338
0.007857079
0.0063207075
-3.9125024E-4
-0.007882149
-0.008103236
-0.004952096
-0.0040414017
-4.4103354E-4
0.004354447
0.0070679886
0.009609825
0.007832853
8.338489E-4
-0.00594983
-0.008289254
-0.006116526
-0.004482179
-0.0031094186
2.2876456E-4
0.004527195
0.0075066527
0.0047193943
-6.813464E-4
-0.006143052
-0.01079265
-0.008451172
-0.005123006
-0.004490709
2.6722924E-5
0.0057276804
0.00936143
0.008530601
0.0020699294
-0.0039098854
-0.0054170643
-0.003795413
-0.0030814307
-8.443459E-4
0.0057620592
0.010564246
0.010927795
0.0064176098
-7.901359E-4
-0.0058833705
-0.007949693
-0.005411513
-0.0029720329
-0.0021628526
0.0023919505
0.006371027
0.00851397
0.0076867
5.8670284E-4
-0.0044496455
-0.0050598867
-0.0047707176
-0.0038843388
-0.0032567133
9.37778E-4
0.006900931
0.008360578
0.0062474944
5.64993E-4
-0.006395212
-0.008471906
-0.007946597
-0.0074594934
-0.0032709015
0.0015971356
0.004630742
0.0092268195
0.009859325
0.0033126678
-0.0043450147
-0.008268753
-0.0057142004
-0.002709353
-0.003025723
-4.9003266E-4
0.0050513884
0.009081578
0.0074471016
0.0014344805
-0.00454176
-0.008841723
-0.007549536
-0.003833955
-1.2034474E-4
0.0059301546
0.008783049
0.010120027
0.009280637
0.0015784616
-0.0044997246
-0.0076771756
-0.009082109
-0.006972798
-0.0050503216
-3.629437E-4
0.006301796
0.011249765
0.0121661965
0.0041871853
-0.005063242
-0.008636957
-0.008245262
-0.0049998513
-0.0024664255
6.5139594E-4
0.0054235887
0.009630219
0.011303154
0.0060443087
-0.0014910458
-0.0048118713
-0.005062729
-0.0038637207
-0.0027047233
-3.351001E-4
0.0040052105
0.009490083
0.010405449
0.002119295
-0.004836815
-0.008087133
-0.011062259
-0.007929521
-0.00421021
-0.001923965
0.003762711
0.007573479
0.0077602323
0.0035366549
-0.0028069443
-0.0048274584
-0.0046925005
-0.0043804753
-0.004781262
-0.00348842
0.0033356491
0.007976208
0.0071868016
0.0044293245
-9.784673E-4
-0.005152774
-0.0054863784
-0.0048067262
-0.0025907643
0.002178162
0.007571058
0.011852782
0.012559973
0.0068812324
-7.2828634E-4
-0.0034567749
-0.0031291377
-0.0044588707
-0.006099302
-0.0027865274
0.003873043
0.007505908
0.0071315533
0.0021392633
-0.0045209746
-0.0069489484
-0.0076111797
-0.0069271517
-0.0043558013
-0.0026381451
0.0021570162
0.00730286
0.006967903
0.0038039773
-0.0027384544
-0.006867156
-0.0038081214
-0.0030871122
-0.0040802886
-6.745652E-4
0.0051519494
0.010959801
0.011316725
0.004438116
-0.0039372463
-0.007953645
-0.0071252338
-0.0051210583
-0.0017146792
0.0010771282
0.0036914903
0.009160243
0.009949877
0.0049498123
-0.0038539988
-0.012872308
-0.008798365
-0.0011793104
-0.0017512105
-2.568057E-4
0.004749882
0.0105155315
0.010544139
0.0015240246
-0.0047698454
-0.007618402
-0.0085668005
-0.0056775017
-0.0025451926
0.0021756103
0.005492736
0.007829259
0.010635988
0.005443533
-0.0015485849
-0.0031952972
-0.0047043753
-0.005211184
-0.00364517
-3.7072605E-4
0.004578783
0.009159727
0.010075702
0.0030586824
-0.006433076
-0.0098131625
-0.0087811975
-0.007963295
-0.0064199395
-0.0016415821
0.0026950813
0.0059254635
0.008967983
0.005448326
-0.002017023
-0.006078328
-0.0060728947
-0.0031994937
-0.002699134
-0.0023198077
0.0035565582
0.009066889
0.010241318
0.0059544006
-0.0023093782
-0.0065955226
-0.0065061515
-0.005149252
-0.0025310707
9.897912E-5
0.0042983065
0.009491961
0.0103257
0.006072903
2.4675773E-4
-0.0042467243
-0.005839252
-0.0062147924
-0.0065625524
-0.0040898873
4.7091453E-4
0.0053358385
0.009700033
0.006527835
-0.0021406931
-0.0065051136
-0.009424009
-0.01035531
-0.0043564434
0.0011505354
0.0030720497
0.006856722
0.009895421
0.0057011186
-0.0020612935
-0.0051370743
-0.003962127
-0.0025118662
-0.0024227414
-0.0030382266
-5.604652E-4
0.0054863696
0.009961433
0.0073209223
-3.2664108E-4
-0.0054675187
-0.0067394287
-0.005052641
-0.0016068111
9.989414E-4
0.0034146688
0.005783349
0.008217712
0.0067656636
-7.6922134E-4
-0.004118374
-0.0032821132
-0.0049803643
-0.005038955
-0.0026120148
0.0015159551
0.0044856877
0.003094633
0.0020302196
-6.958549E-4
-0.0052299234
-0.0066020484
-0.0064528277
-0.0029562677
8.806715E-4
0.0018080766
0.006187039
0.009605945
0.0066026524
8.447261E-4
-0.0048478683
-0.006681672
-0.0057145297
-0.004387448
-0.0016997445
0.0023741764
0.008760936
0.011507073
0.006176766
-7.5172016E-4
-0.0066782576
-0.0098154
-0.008426664
-0.0061067794
-0.002210292
0.0038738074
0.008540684
0.010247944
0.009085731
0.004134653
-0.0028573968
-0.00527186
-0.004590183
-0.005048881
-0.0023805026
0.0017600792
0.006409773
0.011015054
0.0063866917
-0.0022532563
-0.006190215
-0.00788376
-0.0065506473
-0.0053149043
-0.0047208853
-4.018299E-4
0.0042073634
0.0073481905
0.0055067735
-0.002448236
-0.0063673845
-0.005110253
-0.004681263
-0.0038829576
-0.0010466916
0.0031915917
0.008951993
0.011867779
0.00572454
-0.0025191717
-0.00488676
-0.0056032385
-0.0049728737
-0.0026360317
-5.3408346E-4
0.00453544
0.00987672
0.010616377
0.007313007
4.106716E-4
-0.0060293917
-0.006832834
-0.0041971887
-0.002601841
-0.0022755857
-0.0013067772
0.0031325915
0.008388218
0.005866822
-0.0019388206
-0.007922064
-0.011067128
-0.008435887
-0.003969855
-0.0024087064
0.0017701696
0.008281062
0.011061441
0.007845499
0.0017191379
-0.0033745293
-0.0063420217
-0.004557916
-0.0019790097
-0.0023336515
3.9797215E-4
0.005726637
0.009935317
0.009626239
0.0017010691
-0.005887751
-0.007822684
-0.006773989
-0.004636644
-0.0028200804
0.001115129
0.0068111457
0.009717166
0.008234556
0.0022580705
-0.0041608214
-0.0068745185
-0.0069382903
-0.0055423426
-0.0030211667
2.3982889E-4
0.004657734
0.008501426
0.006624699
-2.06366E-4
-0.005848503
-0.007860849
-0.005576701
-0.002476663
-0.0013425284
0.0015505225
0.0059230295
0.009706453
0.00930605
0.0012040094
-0.0055532875
-0.005578856
-0.0043464815
-0.0020422917
-5.4346816E-5
6.729106E-4
0.0046000853
0.0072009903
0.004456575
2.707446E-5
-0.006178478
-0.010102398
-0.00838941
-0.006150921
-0.003762808
-7.6548E-6
0.005367652
0.01061088
0.009169991
0.002916852
-0.0022666256
-0.004323785
-0.0033096788
-0.0024545586
-0.001399036
0.001073607
0.006003859
0.010314573
0.007094063
0.0015236719
-0.0041703074
-0.00911622
-0.007405583
-0.0055998974
-0.0022288251
0.0034418905
0.004207788
0.005668203
0.0022181617
-0.0045788013
-0.00437362
-0.007728603
-0.009910853
-0.0066221384
-0.0057194293
0.001428876
0.0098154545
0.01122241
0.010792613
0.0048507354
-0.0035753257
-0.006108579
-0.0053991005
-0.004542583
-7.1481155E-4
0.0038556412
0.0051998417
0.009700531
0.012987359
0.006699421
-3.6235867E-4
-0.004624882
-0.0059397123
-0.004732917
-0.0057338797
-0.0030743128
0.0038240983
0.007507502
0.005727676
-0.0012060076
-0.0073466008
-0.0104487315
-0.011494254
-0.008839157
-0.0054825703
-5.529893E-4
0.006646394
0.009488047
0.006642039
0.0013772787
-0.0034369177
-0.0047513065
-0.0032985783
-0.0026116
-0.0028464685
-0.0015370066
0.0025908123
0.008189494
0.009935278
0.0049341936
-0.0024751052
-0.006138025
-0.004962179
-0.0031940094
-2.1002944E-4
0.0048173754
0.0078104283
0.010368827
0.010506745
0.004290903
-0.001572388
-0.0047493065
-0.0072567808
-0.006456396
-0.004090531
-0.002943287
0.0013138487
0.008066501
0.008056165
0.0016073977
-0.0047469675
-0.008504017
-0.008235216
-0.0070226416
-0.0048900447
-1.8861046E-4
0.0034516286
0.0060805697
0.0053223777
7.281853E-4
-0.0024696786
-0.004494192
-0.0035343547
-0.0015765323
-0.0024154573
4.098218E-4
0.006643589
0.010192848
0.0093071
0.0037891339
-0.0032185456
-0.0069750757
-0.005910137
-0.0053362413
-0.005394525
-9.616071E-4
0.0038532761
0.007561713
0.009411892
0.005510258
5.492317E-4
-0.0025276332
-0.0035819816
-0.0029374682
-0.0043371725
-0.0051066554
-5.723074E-5
0.007783184
0.008788565
0.0018406581
-0.0044886223
-0.007509508
-0.0075231786
-0.005456358
-0.0021228914
0.0020875556
0.005032298
0.009224929
0.010505511
0.0039018579
-0.002079466
-0.004264492
-0.0047415327
-0.003744877
-0.0019268957
2.269E-4
0.0022822733
0.007240712
0.008646567
0.0023107002
-0.0033052252
-0.007080928
-0.0064419433
-0.0059774253
-0.008834542
-0.0018792023
0.003679169
0.002320624
0.007228273
0.005657848
-0.002356655
-0.004009711
-0.0050909733
-0.004741924
-9.850181E-4
0.0018106379
0.0037712327
0.0076927315
0.010464689
0.0048637628
-0.0024842129
-0.006275288
-0.008666382
-0.004949363
-4.6636545E-4
1.3001841E-4
0.0040239496
0.009077167
0.009020143
0.0041884026
-0.0011506276
-0.005101908
-0.007515519
-0.006080399
-0.0041821157
-0.0028096626
0.002006396
0.0067617493
0.00805563
0.0040025706
-0.004289992
-0.008098064
-0.006867912
-0.005425006
-0.0029310896
-3.0000773E-4
0.0029808662
0.007921703
0.009134235
0.0043623294
-0.0019469999
-0.0049280603
-0.0045300075
-0.004472302
-0.0040658084
-0.0016112885
0.0031712614
0.009609115
0.010758443
0.004634269
-0.00285789
-0.008138456
-0.008771665
-0.0060185916
-0.0021297783
0.00177024
0.003979853
0.007560801
0.010618759
0.007409461
6.563461E-4
-0.0056110974
-0.008754549
-0.007952417
-0.0051004523
-0.0023624308
-2.5646898E-4
0.004924812
0.009179397
0.0053166905
-0.0014857159
-0.006094372
-0.007578223
-0.00580016
-0.003596619
-5.075639E-4
0.0044739936
0.00880783
0.010094164
0.006765881
-5.016039E-4
-0.0062206606
-0.006420281
-0.005466847
-0.0049125506
-0.0023196177
0.0019058557
0.008839676
0.011819447
0.005319272
-0.0017996723
-0.0062449435
-0.00961919
-0.010389961
-0.007988909
-0.0020875796
0.0030606205
0.0067164307
0.009647747
0.0067838323
9.0835075E-4
-0.0027030471
-0.0041051055
-0.004348017
-0.0038885013
-3.2358026E-4
0.004650966
0.009074017
0.011064953
0.005013594
-0.0028899577
-0.0059577003
-0.0077025425
-0.007813556
-0.006375178
-0.0027414674
0.00408315
0.008784201
0.009285283
0.005676493
-9.518211E-4
-0.0051663835
-0.0054274774
-0.0046888604
-0.00452636
-0.0029111253
0.001708349
0.0069506383
0.008984606
0.0047817314
-0.0021915867
-0.0067955004
-0.008807981
-0.0069716326
-0.0032503388
-9.235142E-4