-9.7010736E-5
-0.0036278968
-0.0018912543
-9.5439475E-4
-0.0011252846
0.0016045294
-2.5474382E-4
-0.0035378346
-0.004145647
-0.005152286
-0.005012411
-0.005896641
-0.0072930087
-0.0064162393
-0.004932306
-0.0025483093
-9.4472506E-4
-0.0011747879
-0.0016802355
-6.649223E-4
0.0013924014
2.884254E-4
2.072718E-5
0.0021588888
0.0019770747
0.002751054
0.002321564
4.971146E-4
0.0010372684
-9.188753E-4
-0.001035145
0.0010234541
2.745876E-4
0.002123093
0.002362419
5.9209677E-5
9.152227E-4
0.0031147278
0.0068625268
0.0076989206
0.008162003
0.009774842
0.006560361
0.0062390165
-0.0014453265
-0.016178729
-0.008889998
0.0023016352
-0.0024250373
-0.004136853
-0.0047289943
-0.008612925
-0.008440342
-0.006924356
-0.0055213664
-0.004448246
-0.0060184533
-0.010830068
-0.015452477
-0.016552689
-0.018475546
-0.022502191
-0.021059208
-0.010818427
6.376927E-4
0.007586028
0.011886797
0.014333191
0.015971195
0.014990243
0.011896162
0.013310115
0.014507461
0.012576063
0.01243125
0.011498922
0.010409272
0.008536187
0.0039081504
0.0021722512
0.0024302383
0.0014575237
-8.981155E-4
-0.0034303206
-0.0018978836
-0.0012298867
-0.0052203913
-0.006651464
-0.0059709693
-0.0076239486
-0.009037931
-0.00900388
-0.008185677
-0.0063626356
-0.005721934
-0.0054213754
-0.003721206
-0.004376408
-0.0054320986
-0.0040049236
-0.0035956856
-0.0024200638
-4.5183033E-4
-8.432594E-4
-0.001614421
-0.0019550174
-5.826464E-4
5.430565E-4
-0.0022625802
-0.0032763826
-0.0017415603
-0.003847452
-0.0063944208
-0.0041955267
0.0014312638
0.0069768536
0.01022579
0.011234993
0.010670081
0.010269427
0.009520396
0.0060548307
0.0049795504
0.009212714
0.010876768
0.009018321
0.0052897534
-0.0048731067
-0.0154574625
-0.021992506
-0.023172418
-0.00800987
0.010539384
0.011830771
0.0074811853
0.0064704465
0.003924061
0.0015168557
0.002841376
0.0058680964
8.94427E-7
-0.016388914
-0.026112495
-0.011384139
0.01750872
0.0257574
0.012519419
0.0052104187
0.0052247955
0.0044047167
0.0015310459
-0.0013521634
2.0256928E-4
0.0011692719
3.6248457E-4
0.0013574447
0.0016807658
0.0024480228
0.003388613
0.0027634772
0.0012919366
-0.001054029
-0.0020623
-0.001939457
-0.0014501783
-0.0010693102
-0.0031912194
-0.006565031
-0.009691285
-0.011724581
-0.014996455
-0.016417949
-0.010653835
-0.015405893
-0.02568829
-0.013680275
-0.0011131418
-0.0023698746
0.0015286529
0.0024987694
0.0011775928
0.005407304
0.006057994
0.009345969
0.0127733555
0.0109228045
0.013517405
0.015804186
0.017318478
0.020883122
0.02192418
0.025881005
0.030421225
0.027101297
0.014513544
0.0028847468
-0.0010913368
-0.016148273
-0.030806255
-0.020727657
-0.012127145
-0.014478888
-0.013191135
-0.01374179
-0.015049051
-0.014869817
-0.013293267
-0.009409307
-0.008668902
-0.0084476
-0.008245173
-0.009128945
-0.0068640443
-0.0038008434
-0.001050308
5.005381E-4
0.001266548
0.0048689754
0.007753413
0.009077446
0.011123985
0.012397318
0.011440412
0.008205738
0.004409387
-0.00105814
-0.0043201777
-9.911302E-4
4.8107968E-4
-0.0010248376
-2.5080264E-4
1.9751213E-4
4.248122E-4
7.72941E-4
8.6133595E-4
0.0033161629
0.0063979337
0.0066998387
0.005172963
0.0047306833
0.0045305593
0.0028342195
0.0013556114
3.1129218E-4
-7.8619015E-4
-3.8842222E-4
6.689533E-4
-8.9667056E-4
-0.0037450604
-0.0037571283
-0.0044396725
-0.0069959876
-0.0057045557
-0.0028903827
-0.0026705647
-0.003337356
-0.0019825485
1.1389416E-4
-0.0027779895
-0.005275648
-0.0025185896
-0.0023018662
-0.0034780235
-0.0026532598
-0.0020006371
4.7676868E-4
0.0025618535
0.0024626905
0.0020621447
6.878014E-4
-7.787696E-5
-7.9892394E-5
-3.347881E-4
6.2588294E-4
0.0020977627
5.2093936E-4
-0.00240956
3.5824074E-4
0.0042747725
0.0041028713
0.0043501346
0.0029740043
0.0012689929
0.0019986422
0.0017386298
0.001815119
1.8593915E-4
-0.003114378
-0.00503409
-0.0072925175
-0.008203305
-0.009331621
-0.011430962
-0.013429027
-0.016122395
-0.01558276
-0.013103807
-0.01032123
-0.011290362
-0.012798361
-0.0052707335
-0.012984385
-0.028928928
-0.015163365
-0.0014163684
-0.003994281
-4.846592E-4
-7.6393323E-4
-0.002857746
-0.0020426721
-0.0050107352
-0.0043342174
-0.0027332222
-3.1348533E-4
0.0050968304
0.0076874727
0.009579098
0.010879545
0.016182803
0.025844762
0.03131757
0.0347313
0.03427546
0.03165617
0.032170963
0.03117044
0.030590247
0.027802989
0.019786844
0.013013664
0.0061574834
-2.6040158E-4
-0.006298269
-0.01348822
-0.01801855
-0.024333736
-0.030485136
-0.031011652
-0.034328226
-0.042930353
-0.05139014
-0.057493523
-0.0652297
-0.07338018
-0.07018696
-0.06329225
-0.058583308
-0.03896615
-0.011246103
0.007916382
0.020868318
0.027975988
0.03216613
0.037256014
0.039578434
0.03963641
0.04091234
0.044401057
0.04660958
0.043772288
0.039222233
0.03783391
0.03764953
0.03345612
0.027874041
0.025091002
0.020602213
0.01167129
0.0012644465
-0.006832003
-0.011054765
-0.015120103
-0.021539537
-0.025386687
-0.0247189
-0.02456534
-0.022844536
-0.019877227
-0.022228483
-0.022052865
-0.015104326
-0.010114826
-0.008951283
-0.009354658
-0.008204644
-0.006084465
-0.0059005483
-0.0065647285
-0.0071631707
-0.0059980405
-0.0066417735
-0.0082933
-0.0051632794
-0.003383924
-0.002261808
7.7124423E-4
0.0019060861
0.0041246493
0.0069666137
0.010980787
0.013207864
0.014498902
0.017220251
0.0021316824
-0.010365717
0.0069807386
0.01613927
0.009927542
0.009860138
0.0066290037
0.003307997
0.0020645566
-6.374144E-4
-4.4777163E-4
-0.001530077
-0.0014322655
2.4835183E-4
-2.6365035E-4
7.7011314E-4
8.6891645E-4
9.8003664E-5
1.8728522E-4
-0.001007133
-9.009498E-4
1.5287622E-4
2.7264468E-4
-9.807477E-4
-0.0027347964
-0.0021433765
-0.0011321788
-4.704023E-4
3.1023263E-4
-3.0639736E-4
8.0104495E-5
0.0011190769
3.9473755E-4
5.4556126E-4
0.0014872842
6.3685316E-4
-2.1665789E-4
-0.0012440986
-0.0034267316
-0.003298385
-0.0034350199
-0.0058306907
-0.004785837
-0.003933681
-0.0069983853
-0.007804066
-0.007117205
-0.007873774
-0.007629573
-0.006844525
-0.0072003077
-0.0067891385
-0.0037138918
-0.0015519452
-0.0024688418
-0.0025617515
-0.0016700147
-0.0011281535
3.3478078E-4
0.0011255906
6.475863E-4
-3.7443966E-5
-0.001131548
-0.0010317662
5.795339E-4
9.986296E-4
-3.7376638E-4
-0.0021679704
-0.003474231
-0.0037745524
-0.0030800551
-0.0020649594
-3.9108432E-4
7.6899095E-4
2.2871302E-4
0.0014052738
0.0010027824
-0.004206246
-0.003635666
0.0028742903
0.005480178
0.0062305206
0.007921167
0.009859522
0.011096282
0.009978308
0.008727371
0.0070168716
0.004618044
0.005304833
0.006359436
0.00413344
0.0021109595
0.0020982528
0.0012559602
1.2048755E-4
6.0351175E-4
3.1364518E-5
-0.0013914435
-0.0017517954
-0.001592995
0.0016535466
0.0059087393
0.006169339
0.0048464397
0.002268449
-0.002721924
-0.0069433246
-0.010727487
-0.015262291
-0.018078282
-0.018772071
-0.019247945
-0.019202854
-0.018325485
-0.019945715
-0.023234213
-0.02163006
-0.016302068
-0.0125607075
-0.008423462
-0.0017741726
0.0050124647
0.0102327075
0.013951015
0.015306522
0.0135883475
0.013391065
0.017946634
0.023420414
0.028951706
0.035742234
0.042017356
0.047977075
0.05522338
0.060921036
0.05324496
0.027870806
0.0033670405
-0.008085097
-0.015077454
-0.020772632
-0.021673452
-0.02105446
-0.022347018
-0.02434342
-0.026424991
-0.029525189
-0.03191959
-0.03139379
-0.030673172
-0.030896297
-0.027471278
-0.0208565
-0.01577852
-0.011860751
-0.0086527
-0.0059695668
-0.0020116619
0.0021695374
0.0071645654
0.011871386
0.013660541
0.016587408
0.019543897
0.018984085
0.017518278
0.014486436
0.01189487
0.011747412
0.0112697845
0.012556793
0.0138113005
0.011390712
0.008056585
0.005059522
0.0033876584
0.0027630513
0.002075773
0.0013696918
-3.2703954E-4
0.0010388035
0.005879831
0.009447498
0.011722119
0.008790259
0.0025939024
0.0022305152
0.0035870532
0.0018547997
-0.0031196938
-0.011314174
-0.01345117
-0.008403925
-0.0064358776
-0.0076519954
-0.008493243
-0.0087052975
-0.00822648
-0.007998274
-0.0065883487
-0.004534383
-0.002634122
0.0011551171
0.0031768053
0.0019471543
6.159631E-5
-0.0029473444
-0.00301228
-1.201225E-4
2.3616246E-4
9.6090656E-4
0.0034682949
0.006109683
0.008973217
0.008554234
0.0063989446
0.006137412
0.004340606
0.001168764
6.9474184E-4
0.0022097076
0.004108558
0.0057231705
0.004738525
0.0016333964
-0.0012428286
-0.003863902
-0.0053478186
-0.006047086
-0.007336417
-0.008030398
-0.0074005136
-0.0053352853
-0.0041757068
-0.0055204313
-0.006042326
-0.0062014023
-0.007295412
-0.006488907
-0.0036791814
-0.0011809653
1.09868844E-4
0.0015502446
0.002662229
0.0021641224
7.3863944E-4
-0.0032493754
-0.005942529
-0.003144036
-7.6587294E-4
0.0014776522
0.0064843115
0.0102421045
0.012602322
0.014219028
0.016018223
0.020344492
0.023831978
0.024073709
0.023952642
0.024936028
0.025003294
0.02293276
0.020110173
0.01734144
0.013968441
0.00866389
0.0028852916
-9.558164E-4
-0.004882735
-0.008618903
-0.010133943
-0.012181536
-0.015834186
-0.020041842
-0.025165604
-0.029554853
-0.033868354
-0.040185
-0.04407293
-0.048136756
-0.056033894
-0.049755957
-0.02563254
-0.005727987
0.0063935514
0.01446877
0.017660106
0.021654295
0.02412764
0.025517622
0.030201387
0.033484682
0.03587122
0.036157206
0.032777466
0.032021277
0.030843455
0.027437355
0.026156805
0.023799011
0.01955667
0.014934147
0.009506488
0.005533294
0.0014275272
-0.005735595
-0.012087968
-0.014765368
-0.016953962
-0.018972619
-0.018365351
-0.016716734
-0.015286268
-0.013811438
-0.012513649
-0.011382577
-0.011632666
-0.011783941
-0.009725264
-0.0078323735
-0.0060887015
-0.0031453443
-0.0013281448
-8.346795E-4
5.7864614E-5
-1.7170525E-5
-8.129909E-4
2.0418451E-4
0.0012465287
9.751038E-4
0.0011879221
0.0019253859
0.0044521363
0.0072299913
0.006818669
0.006969683
0.008711509
0.008906196
0.008720735
0.008412482
0.0075254906
0.006187697
0.004931826
0.0047677015
0.003368154
6.3971436E-4
-9.060817E-4
-5.36382E-4
0.0014417496
0.0012643221
-3.2744755E-4
6.69876E-4
0.0015391784
0.0016248728
0.0022370447
0.0019418822
0.0013262356
9.564347E-4
8.3224714E-4
-4.9849117E-5
-0.0010682311
-4.6253277E-4
2.991951E-4
-1.830583E-4
-0.0034929109
-0.0053059435
-0.0023483802
-0.0018238919
-0.002685019
-0.0027531083
-0.004607434
-0.0041155233
-0.0022518288
-0.0015612429
-0.00250635
-0.0035040982
-4.8641206E-4
5.14207E-4
-3.4981736E-4
5.920484E-4
-7.0702966E-4
-3.7738608E-4
-2.555822E-4
-0.002772518
-0.0022486963
-0.001885842
-0.0025735488
-0.0020045564
-0.0015534005
-0.002138411
-0.002391424
-9.798743E-5
7.872227E-4
0.0013150839
0.001830634
-9.499351E-4
-9.966539E-4
-0.0013709248
-0.0038078043
-0.0036172713
-0.0029313366
3.0926123E-4
0.0018094939
0.0017078802
0.0029157712
0.0012645143
0.0024931394
0.0012296698
0.0010254044
0.0019534603
-0.012631081
-0.0120326765
-0.001134502
-0.014014576
-0.011552572
0.0037470688
0.0012328222
0.0011913723
6.753305E-4
-0.0023195455
-3.0574447E-4
-0.0013580183
-2.2284586E-4
0.0013654997
2.721956E-4
-5.3871324E-4
-0.0018296341
-5.3899287E-4
-3.681856E-4
4.5226383E-4
0.0034293493
0.0031906725
0.004075379
0.0044651316
0.0030651013
0.00145651
-0.0027139017
-0.004070761
-0.004474894
-0.0059886845
-0.0035659429
-0.0015578638
-0.0018267274
-0.0010614141
7.678288E-4
4.6257293E-4
-0.0018186835
-6.437152E-4
3.6555243E-4
-7.016671E-4
6.606572E-4
0.0011673603
0.0012058862
0.001798401
-3.422828E-4
-9.934575E-4
0.0015991252
0.002654665
5.6099053E-4
-0.0020493465
-6.2992424E-4
0.002223188
1.8012087E-4
-0.0014552121
0.0011327704
9.658672E-4
-0.0010164973
-0.001669999
-0.002423748
-5.862624E-4
6.980976E-4
-9.622754E-4
-8.2954223E-4
-1.7279875E-4
-1.8017052E-4
-0.0010116574
-0.0025028158
-0.0019371099
-9.7177376E-4
-2.3267436E-5
9.847615E-4
0.001482998
0.0028562048
0.0014363449
-0.0018919901
-0.0033324654
-0.0044460627
-0.0032922996
-7.8581914E-4
0.0010286666
0.0032210045
0.004295243
0.0053047366
0.004307485
0.002106647
0.0035862767
0.002968369
0.001935377
0.004795014
0.0040407497
0.0023023575
0.0017267034
-0.0027476542
-0.005423534
-0.0032400903
-0.0010542002
-2.0565979E-6
0.0015075515
0.0032652563
0.0033777629
0.003620307
0.0060143075
0.00870993
0.010438203
0.010602886
0.009835557
0.009498524
0.008977756
0.008272331
0.008317867
0.00861871
0.008462921
0.008738552
0.009673799
0.008938378
0.006153169
0.005194666
0.0057621715
0.003422314
0.0015401669
0.0032861996
0.0030089372
-6.9027895E-4
-0.004215726
-0.005386589
-0.0040907683
-0.0043103592
-0.0069285166
-0.009365876
-0.011625841
-0.013094467
-0.012900915
-0.012940898
-0.013296446
-0.011937415
-0.009989724
-0.008278859
-0.006041424
-0.005145578
-0.0039811907
1.1934662E-4
0.0042330283
0.0071955523
0.010138592
0.013463417
0.015911065
0.017528962
0.022717983
0.026714286
0.022293692
0.018178537
0.023279749
0.032849412
0.037809893
0.040696897
0.0468736
0.040675852
0.015277369
-0.0074542435
-0.019215541
-0.02783849
-0.033310276
-0.036415223
-0.03825312
-0.037196856
-0.036153693
-0.036563523
-0.036032856
-0.03335491
-0.029060356
-0.025326174
-0.02218328
-0.01893279
-0.01570884
-0.010239704
-0.0045811296
2.2220716E-4
0.0066032833
0.010538624
0.016895937
0.027414601
0.029369082
0.035694897
0.05923003
0.076259255
0.069867626
0.0485169
0.037267163
0.040390473
0.021362718
-0.012460994
-0.018299876
-0.011032981
-0.014937782
-0.019290073
-0.021417942
-0.026578747
-0.032133944
-0.03420513
-0.03430864
-0.03542991
-0.03669508
-0.03680872
-0.035122186
-0.03679109
-0.04115577
-0.040510185
-0.041105624
-0.037246395
-0.018962454
-0.004582149
0.0027100313
0.011925988
0.016045555
0.018942192
0.022086948
0.019762376
0.01852294
0.019390916
0.019937154
0.022136807
0.025059799
0.028785946
0.032634996
0.03554717
0.037198644
0.03718549
0.036613025
0.035416726
0.03466526
0.03386923
0.0311791
0.027761009
0.022260852
0.014184794
0.0046355785
-0.0049198424
-0.011224895
-0.01618283
-0.019398205
-0.020114662
-0.022897411
-0.024752233
-0.025141576
-0.027545422
-0.029846549
-0.033495843
-0.036607534
-0.03988215
-0.048583254
-0.05541798
-0.06093205
-0.066124946
-0.053235546
-0.029275795
-0.01641033
-0.008310798
9.3016744E-4
0.0058809295
0.010445869
0.016327454
0.021837592
0.02831431
0.033848085
0.038080502
0.04135167
0.043253884
0.045977168
0.04736083
0.04640061
0.045781646
0.046007723
0.048424125
0.04921231
0.04728363
0.04767335
0.048513986
0.050846234
0.048070624
0.027124336
4.4298026E-4
-0.016861282
-0.026271133
-0.03082964
-0.034829877
-0.038479134
-0.04032348
-0.040940065
-0.03996108
-0.039493743
-0.038059447
-0.035276055
-0.033426356
-0.030449903
-0.027673647
-0.025471324
-0.022835573
-0.020681255
-0.015925875
-0.010070649
-0.0054522906
3.3690294E-4
0.0063749193
0.013346625
0.021069959
0.025355458
0.02616521
0.025840208
0.025269965
0.02346096
0.02076073
0.020401284
0.02052323
0.017470727
0.0145527525
0.012885241
0.009444767
0.005991527
0.0038192861
0.0031748933
0.003922286
0.0024710917
0.0021924353
0.0049336003
0.004997497
0.0043550846
0.0028914467
-0.0010136138
-0.0025174858
-0.0033669139
-0.0046428693
-0.0050764587
-0.0073114997
-0.008917644
-0.009129886
-0.01041087
-0.011252604
-0.010979587
-0.0101157725
-0.009603724
-0.008488833
-0.0045047808
-5.348696E-4
0.0010746464
0.00120582
-9.5515235E-5
-8.472423E-4
-5.149125E-4
-1.719324E-4
0.001815433
0.004064174
0.0040621823
0.002383389
8.293071E-5
-0.0021514928
-0.0060447855
-0.010128131
-0.011790803
-0.014449332
-0.0153733445
-0.01134505
-0.008490756
-0.0086664045
-0.009376492
-0.009249133
-0.009673593
-0.011187263
-0.008954247
-0.0061886823
-0.0069745737
-0.006069082
-0.003645477
-0.0016662244
0.0011361443
0.0039039059
0.0042148726
0.0012366364
-0.0015561493
-0.0039184336
-0.0070458855
-0.009019859
-0.007450697
-4.3230184E-4
0.004099792
0.004321846
0.008710557
0.013596778
0.019749036
0.0245029
0.017971769
0.016112784
0.02537864
0.030408578
0.03194197
0.031453706
0.026395435
0.019354926
0.011636093
0.006901562
0.0025011129
-0.006102909
-0.013617397
-0.01644051
-0.0153044155
-0.01425625
-0.01763538
-0.022529429
-0.02796942
-0.0346521
-0.03893117
-0.043426182
-0.05039309
-0.05456353
-0.05398355
-0.04398558
-0.023080708
-0.004842894
0.005989428
0.014885574
0.019789865
0.022876717
0.028706102
0.03260748
0.032168124
0.03276385
0.035189983
0.034413014
0.031409677
0.027336631
0.02099891
0.017094087
0.014424312
0.009784344
0.008410702
0.00890352
0.006098299
4.0701608E-4
-0.0056254226
-0.008008183
-0.008468892
-0.010518917
-0.012469574
-0.014118317
-0.012642501
-0.0056865113
-0.0015280391
-0.0050630523
-0.008299337
-0.0056728455
-0.0031642593
-0.0064305114
-0.012273718
-0.0139425425
-0.006630938
0.004624283
0.009518358
0.008814212
0.005295909
-0.0029731006
-0.009400402
-0.010064414
-0.012171212
-0.015777497
-0.015282529
-0.010930607
-0.0059303306
-0.0040702345
-0.0036353297
-0.0018420841
-0.0042325323
-0.0064269956
0.0018236632
0.011797421
0.014393529
0.012499047
0.009087987
0.007059928
0.003918999
-0.0011906091
-0.001908343
-1.5885939E-4
0.0016622061
0.0065986086
0.01149723
0.012970849
0.011812843
0.00876747
0.004800069
0.0013470358
8.951439E-4
0.0037431302
0.005933472
0.0049663736
0.0025850504
9.500869E-4
-8.4156875E-4
-0.0048981067
-0.00880176
-0.010260562
-0.012839254
-0.014045296
-0.009381186
-0.005416395
-0.005226947
-0.0055350224
-0.0052841404
-0.0042491923
-0.0050930185
-0.004568628
7.1733975E-4
0.0035499728
0.0030235955
0.0019210831
-1.14345006E-4
-0.0019995149
-0.006201758
-0.008514526
-0.0020225255
0.007982661
0.01566549
0.018130898
0.014720597
0.009700143
0.0030969987
-0.0063846256
-0.0126075735
-0.01208763
-0.011256844
-0.0111214025
-0.008336844
-0.007873943
-0.008242861
-0.0054244623
-0.0043745567
-0.0049078786
-0.005352185
-0.0050436663
-0.003265296
-0.0035666462
-0.0026528053
7.814823E-4
0.0023460872
0.0045989496
0.006456055
0.006054214
0.0058120294
0.004415925
0.004169898
0.0063877963
0.006339746
0.004875254
0.0053436854
0.0067065326
0.0065538203
0.004456415
0.001730602
-0.0015223966
-0.004934795
-0.0062906863
-0.0058960873
-0.0065679406
-0.00652792
-0.0038564904
-0.0019947055
-5.1379404E-5
0.0027218554
0.002199031
8.331278E-4
0.0010877353
0.0017227
0.0028998642
0.0016502785
-6.3332176E-4
-6.667962E-4
-0.0010892919
-8.107517E-4
-2.025956E-5
-0.0015434019
-0.0033716375
-0.0036704873
-0.0024079233
-0.002202925
-0.0023104143
-0.0014727357
-0.003887071
-0.0043257866
-0.0017348676
-0.002824221
-0.001972068
6.0671853E-4
-4.849868E-4
-0.0025762669
-9.74679E-4
0.00420328
0.003227399
0.0034494088
0.0073424317
-0.0030506284
-0.0061600534
0.008092696
0.010929956
0.008084354
0.0039071743
-0.0035727054
0.0012572978
0.005835775
0.0024114284
0.002425547
0.0020074088
8.617932E-4
-2.670978E-4
-0.003191061
-0.0033241066
-0.0016876849
-0.0017129723
-0.0026661537
-0.0027242135
-0.003032551
-0.0042764996
-0.005212923
-0.006107579
-0.004800325
-0.0036911601
-0.0037268612
-0.0011282088
-0.0014533063
-0.0034636327
-0.0027982804
-0.0030946757
-0.0019435902
-0.001329208
-0.0019773848
0.0011780114
0.0031475502
0.0027412416
0.0032476305
0.0036040451
0.003669972
0.002905787
0.002419394
0.0024781218
0.0031204643
0.0048161396
0.004898443
0.0045836177
0.004613113
0.0032348526
0.0014768149
-1.5167565E-4
-1.6981363E-4
-1.822743E-4
-0.0024050886
-0.0030787552
-0.0020749
-0.0016176959
-0.0015137339
-0.0031734067
-0.00603273
-0.0064410237
-0.0053482386
-0.005911618
-0.004979951
-0.0019015124
-4.148517E-4
0.0011187276
0.0022073146
6.405725E-4
-6.9159764E-4
2.786424E-4
0.001981119
0.0015448974
0.0013879563
0.003608382
0.00419337
0.0042563
0.004167639
0.0018579337
9.658555E-4
8.8561515E-5
-0.0023090763
-0.0016061306
0.0012138014
0.0030172449
0.004351227
0.0050334614
0.003096214
-2.633832E-4
-0.0010007995
-3.7774353E-4
-0.0010576268
-0.0016666626
-0.0019130034
-0.002477766
-0.0026069738
-0.0013723698
-1.9199826E-4
-7.7557965E-4
-0.0013148026
-0.0018801943
-0.0028360889
-0.0021351115
-0.0025668368
-0.0036773477
-0.0011945271
4.215684E-4
-5.83275E-4
-4.45536E-4
-8.016642E-4
-0.0016952171
-9.849078E-4
2.4868446E-4
7.2391453E-4
0.0011576945
0.0030906575
0.0045883395
0.0046975706
0.0043997704
0.0023084048
7.564841E-4
-2.725104E-4
-0.001753257
3.0119903E-4
0.0016160996
0.0014078855
0.0040008416
0.0031048555
-1.4018142E-4
-0.0014308885
-0.0033605765
-0.00191276
0.001202104
-1.0038019E-4
-9.5535815E-4
0.0015700841
0.0030937756
0.0021643157
0.0011968442
-3.44005E-4
-0.0031257588
-0.0040461333
-0.0034592843
-0.0032359075
-0.0022677623
-6.125388E-4
-1.1383644E-4
-2.3381614E-4
0.0010188306
3.0494775E-4
-0.0028383515
-0.0030456174
-0.0026799894
-0.0031319605
-4.2922993E-4
0.002558364
0.0031078393
0.0036839158
0.003533405
4.4046924E-4
-0.0017530724
-8.85098E-4
-0.0011516149
-0.0017247543
-0.0012948124
-3.47713E-4
0.003534435
0.006177572
0.005913149
0.006038933
0.0032189407
6.190894E-5
-1.2675383E-4
-0.0013740329
-9.955765E-4
0.0015404113
0.0020305545
0.0018999063
3.7790393E-4
-0.0023544156
-0.0033518604
-0.005476672
-0.0075297714
-0.005604123
-0.0031876261
-0.0011270671
0.0014185333
0.0015259978
2.2406697E-4
-3.332744E-4
-9.2833006E-4
-0.0018653915
-0.002148565
-0.0017613741
-0.0020575826
-4.212034E-4
0.0029463314
0.0026982233
0.0018437643
0.0027292748
0.0011753412
-0.0020475774
-0.0044878502
-0.004030006
-0.001519261
-2.2228174E-4
0.0016314272
0.002516189
0.0015032607
0.0025272577
0.0023027558
-5.4628967E-4
-0.0027593565
-0.004665214
-0.004358049
-0.002242059
-0.0010228893
7.3342345E-4
0.0021582847
0.001849227
5.5106054E-4
-8.157425E-4
-5.8581866E-4
-2.7662303E-4
-2.1723226E-4
0.0018232991
0.0031189572
0.0031641389
0.004419185
0.0042096865
0.0029284933
0.0044286223
0.006477945
0.0070391065
0.008051965
0.008819119
0.009487242
0.012351879
0.013061755
0.007922796
0.0032031185
0.0015149183
-0.0011545521
-0.0034431042
-0.0027339037
2.1122945E-4
0.0043807863
0.0075931256
0.007840781
0.0061313333
0.005594523
0.005246338
0.0021619091
-4.4106066E-4
-0.0021832713
-0.005179948
-0.0052824356
-0.003932554
-0.007244183
-0.012993048
-0.015446318
-0.013545636
-0.011293239
-0.010463361
-0.008450191
-0.0055854064
-0.0035077292
1.09640896E-4
0.0056857765
0.006452221
4.1625084E-4
-0.005745952
-0.009979854
-0.010608219
-0.0053806077
0.0014741186
0.008013513
0.014282405
0.020361451
0.025183167
0.025520343
0.025032237
0.025215961
0.027190622
0.033048607
0.02999842
0.0175134
0.00914186
0.0029172457
-0.0028989709
-0.00782071
-0.011333059
-0.009588507
-0.008546505
-0.008156399
-0.004596855
-0.0034148316
-0.003612574
-0.0049692257
-0.008989858
-0.012348773
-0.016975518
-0.022571158
-0.026623646
-0.027371809
-0.020555833
-0.010430769
-0.003274048
7.8838365E-4
8.3543337E-4
-9.517823E-4
-6.6620647E-4
0.0015571093
0.0041652056
0.005573719
0.0063109626
0.007879652
0.008454787
0.0059214113
0.0010794186
-0.00389177
-0.006116438
-0.0043265796
1.3066603E-4
0.0047167996
0.0069383737
0.008655105
0.011722403
0.013600975
0.012970231
0.008519595
0.0032225347
0.0021641278
0.001142225
-6.04017E-4
-0.001194822
-0.0031938616
-0.003788321
-0.005264971
-0.009770009
-0.01245001
-0.015874093
-0.017319534
-0.013764532
-0.010970932
-0.0070633185
-0.0033483973
-9.967076E-4
0.0036782655
0.0036506862
-0.0013352409
-0.004648725
-0.005362326
-7.000411E-4
0.004475663
0.005709829
0.009626159
0.01634987
0.0191091
0.01508265
0.007975462
0.0016935029
-0.0039445534
-0.007883842
-0.011008296
-0.01230995
-0.007372703
3.8081573E-4
0.00650686
0.008045848
0.001779454
-0.0077707907
-0.015548574
-0.021545446
-0.028081827
-0.03261976
-0.024570176
-0.007012106
0.0059477636
0.011999793
0.012519337
0.010769235
0.011223953
0.011054009
0.010207066
0.009321592
0.007730319
0.0076562394
0.00668464
0.0017857156
-0.007704358
-0.01293047
-0.003633963
0.0068259304
0.010052186
0.013755034
0.016057175
0.018704453
0.021008339
0.015568613
0.008535971
0.00455647
0.0017229255
5.1735836E-4
5.7794416E-4
0.0031007614
0.007101111
0.009590206
0.009729809
0.006921254
0.0019466624
-0.0025121458
-0.004925922
-0.008077691
-0.0116869435
-0.01146071
-0.00928211
-0.008043729
-0.007931815
-0.010359904
-0.015506134
-0.017993653
-0.014613875
-0.011585066
-0.007634798
9.670965E-5
0.006050848
0.01272447
0.018571572
0.020217204
0.021381155
0.021683568
0.024458103
0.020503283
0.0072548767
0.010791413
0.025606766
0.031368
0.030709118
0.01884458
-9.7038E-5
-0.012864293
-0.019283526
-0.021847779
-0.02413129
-0.02402088
-0.019346967
-0.014591411
-0.010475755
-0.008876507
-0.010023979
-0.011447672
-0.012768004
-0.012269307
-0.009205983
-0.0032813896
0.0029415148
0.0076922756
0.011918562
0.013399143
0.0155059155
0.019363036
0.022654947
0.027663149
0.025384238
0.014512801
0.010083265
0.010604424
0.0076611335
0.0027175997
-0.0016451923
-0.003995897
-0.0051277885
-0.006532557
-0.0076235114
-0.007607206
-0.008589981
-0.0108400015
-0.011425726
-0.013109002
-0.016635884
-0.018073205
-0.018199017
-0.0152182765
-0.008894843
-0.0056893434
-0.004733212
-0.0012426039
0.0030492232
0.0046252096
0.0032228443
7.734723E-4
-4.1206952E-4
7.9214835E-4
8.83094E-4
-0.0017293664
-0.001636566
3.0994083E-4
-6.504824E-4
-0.0014689455
-0.0016180094
-0.0027999508
-0.001420637
0.0021014356
0.003219748
0.0013623779
5.841671E-4
0.0017245583
1.4014277E-4
-0.0027276801
-0.0044491864
-0.006543753
-0.006564628
-0.0058281254
-0.0065342328
-0.006213628
-0.0057435525
-0.004439321
-0.0031102754
-0.004590495
-0.0064135203
-0.0075967466
-0.007778305
-0.00798459
-0.008231659
-0.004494292
0.0012896273
0.00857835
0.015493792
0.018119339
0.019509168
0.01262007
2.737115E-4
5.2479544E-4
0.005988917
0.006090115
0.005217992
0.0040686256
0.003660097
0.0018675444
-0.0031193846
-0.0077008535
-0.010980518
-0.011690708
-0.010402833
-0.010045537
-0.010393579
-0.011355106
-0.0140049625
-0.017298933
-0.02036738
-0.023609295
-0.023620127
-0.022032853
-0.020320373
-0.008961514
0.006800247
0.016199274
0.02191446
0.022552801
0.020997217
0.020066924
0.017560147
0.017613048
0.018120449
0.018580504
0.019336835
0.02007766
0.024604717
0.017513718
0.0020915794
0.0041509867
0.01015527
0.006813849
0.0051439414
0.0031546752
-5.220214E-4
-0.002278399
-0.0040027695
-0.0071040066
-0.011724672
-0.016805919
-0.020848762
-0.022267193
-0.021657914
-0.019966137
-0.016778912