0.0016023411
-0.0014230994
-0.0020001996
-0.0023102774
-0.0015792095
1.4898805E-4
3.8058942E-4
0.0011165151
0.002418435
0.0016973282
6.880658E-5
-0.0019325658
-0.0033488546
-0.002699926
-0.0018749435
-0.0015966835
-0.0015575497
-9.144319E-4
0.0020431778
0.0040777167
0.0018658176
-0.0015110706
-0.0028620309
-0.0030820398
-0.0026179093
-8.091027E-4
5.1122386E-4
0.0026307625
0.0062722913
0.005910564
0.003285968
0.0011282103
-0.0027953752
-0.003280203
-8.0674735E-4
-0.0011224328
-6.709735E-4
0.0019997456
0.00407746
0.0036845505
0.0014414918
-0.001020368
-0.0046308534
-0.005528158
-0.003427566
-0.0033074266
-0.0011854233
0.003190263
0.0037773899
0.0023110223
0.002424678
8.228599E-4
-0.003172371
-0.0023465808
-8.0313283E-4
-0.00423115
-0.0040934826
-5.1653804E-4
0.002563083
0.0051428196
0.0027368835
-0.0019080265
-0.003900383
-0.0030047072
-0.0012953932
-0.0010774726
4.204256E-4
0.0018671596
0.0025296262
0.0040518334
0.003193752
0.0014627194
-3.8393302E-4
-0.0013377048
8.160958E-5
-9.178508E-4
-9.3568576E-4
0.0018396665
0.0035333128
0.0051930198
0.0037322682
-3.8666808E-4
-0.0033180038
-0.0038709985
-0.0014425742
-5.8924605E-4
-0.0010989155
-5.4007274E-4
8.8119396E-4
0.0024824427
4.1294847E-5
-0.0026031446
-0.0029647122
-0.0034638243
-0.0023777217
-0.0023254054
6.271367E-4
0.0043083606
-3.7737034E-4
-0.0017373778
0.0023897754
0.0025870812
-1.0230384E-4
-0.0067733433
-0.009162348
-0.0020523525
0.0029530257
0.003836594
0.0053618723
0.0070366007
0.0055216523
7.90257E-4
-0.0021016109
-0.00253071
-0.002193107
-0.0021196927
-0.0014494976
0.0011903335
0.003076075
0.004647562
0.0040283864
-7.9217326E-4
-0.003429855
-0.004212893
-0.004903837
-0.002832952
-0.001219202
-6.3221186E-4
0.001444582
0.0035503523
0.0028944619
9.962347E-5
-0.0014674935
-0.0029903809
-0.0033442574
-8.009348E-4
-2.1061182E-4
7.9677673E-4
0.0043400535
0.004764105
0.0032237172
0.0010450137
-0.0024177318
-0.0025921578
-0.0012105472
-0.002673848
-0.0018613649
0.002158686
0.003067163
0.0029479105
0.0033174374
3.3365184E-5
-0.0028176412
-0.0026640669
-0.0028494457
-0.0022416154
-0.002453906
-0.0034975451
-5.572428E-5
0.0038708677
0.002942232
-9.374749E-6
-0.0029205738
-0.0039437436
-0.002022131
-7.301321E-4
-5.8136566E-4
0.0020974702
0.00550656
0.0047796434
0.0018393915
6.335247E-4
-2.6894853E-4
-0.002069661
-0.0023189997
-0.0010043798
-8.213307E-4
1.15712006E-4
0.003883688
0.005838564
0.0036224723
4.7469493E-5
-0.00310311
-0.0039210175
-0.0029177375
-0.0025857582
-0.0018982411
-1.5523117E-4
0.0022810213
0.004560685
0.0037546256
4.432812E-4
-0.0025860178
-0.0037435046
-0.0022395991
-0.0019371503
-0.003506694
-0.0015889924
0.0020760652
0.003265785
0.002731934
6.52368E-4
-0.0022841417
-0.0034193464
-0.002518415
-0.002121371
-0.0012981389
0.0018265096
0.0038171278
0.0038404274
0.0031306655
7.682888E-4
-5.7518954E-4
-2.5523338E-4
-2.9961046E-4
-4.975726E-4
-0.0010715218
-2.5438564E-4
0.0021031655
0.0042895614
0.005534787
0.0023560987
-0.002917348
-0.005505957
-0.006029819
-0.0031186726
3.4635427E-4
2.723575E-4
3.2450765E-4
0.0012010864
0.0010978539
-3.4823106E-4
-0.0027078367
-0.0028217616
-0.002013324
-0.0023458437
-7.6233165E-4
0.0013420348
0.0026962445
0.0055468366
0.005101252
-4.580777E-5
-0.0024642402
-0.0024474962
-0.0026475787
-0.0011048364
-5.47056E-4
-0.0010778356
0.0022886277
0.0066426657
0.0059172492
0.0025502103
3.6240177E-4
-0.0026773629
-0.004150231
-8.1542734E-4
6.6147785E-4
-9.058971E-4
7.791441E-4
0.003227731
0.0018611768
-9.9084E-4
-0.0030899388
-0.004836832
-0.0046276613
-0.0022907318
-4.4628856E-4
0.0015227314
0.0028036206
0.0028962046
0.004026921
0.0012023739
-0.0056122732
-0.0073079374
-0.004840494
-0.0034416567
-0.0023807548
-3.461727E-4
0.001959127
0.004266612
0.006177208
0.0036804872
-0.001033235
-0.0019886408
-0.0028774596
-0.0031883144
4.18474E-4
0.002438027
0.0038504475
0.007711804
0.00830889
0.004022933
-4.4409608E-4
-0.0019968082
-0.0021951532
-0.002814011
-0.0018459923
-3.7217213E-4
-8.070103E-6
0.0013110667
0.0010511283
-0.0024971485
-0.0054349317
-0.007862948
-0.009749737
-0.007785248
-0.004744204
-0.0032417246
-2.0009915E-4
0.0028381718
0.003441831
0.0029324098
3.3539467E-4
-0.0017070064
-3.8860255E-4
-1.3494739E-4
-3.3937802E-4
0.0024344001
0.0049105342
0.004659227
0.0036829573
0.0028625133
-0.0010591327
-0.0050435993
-0.0030882454
-0.0025577236
-0.0039577624
8.5156644E-4
0.005144405
0.007111639
0.009720642
0.0066291657
0.0024933177
0.0032681758
0.004601403
0.005174606
0.0044725365
0.0040280567
0.0050896606
0.0045375605
0.00238002
-0.0020526631
-0.0073120436
-0.009983466
-0.012883394
-0.014409893
-0.0121059
-0.0089194905
-0.004139265
2.2775274E-4
0.0016028561
8.4812235E-4
-0.0023625032
-0.002416422
0.0017453755
0.0024787185
0.0014423467
0.002475916
0.0030345044
0.0033204004
0.008787404
0.01743397
0.016476488
0.008214398
0.004856194
0.0012356362
-0.011219269
-0.030120801
-0.044553947
-0.046967912
-0.040132448
-0.022006704
0.0035681897
0.023781044
0.03728917
0.042082854
0.03774529
0.035554525
0.03283632
0.011811757
-0.016936317
-0.019971658
-0.007842489
-0.008850052
-0.009159838
9.0737594E-4
0.015786761
0.037520204
0.053371407
0.04925066
0.022321885
-0.016229236
-0.03647831
-0.038142525
-0.05289389
-0.07631637
-0.07716162
-0.05247642
-0.013660637
0.026137235
0.045287486
0.04510583
0.037492145
0.021940276
0.004852842
-0.012860415
-0.025807768
-0.020423314
-0.0020020874
0.031344038
0.062796324
0.050597742
0.01736393
-0.001110766
-0.022199636
-0.04055418
-0.04285728
-0.04799077
-0.051699813
-0.038315292
-0.018473238
-0.005213557
0.003372437
0.013146821
0.009623312
-0.01133333
-0.008011763
0.031124083
0.05952141
0.060176402
0.061631564
0.06953877
0.047892027
-0.003487247
-0.02270576
-0.0022425887
-7.2893768E-6
-0.0073382924
0.015882757
0.03642099
0.02319143
-4.871131E-4
-0.024766413
-0.049963146
-0.056877438
-0.04790776
-0.05510159
-0.079153545
-0.081985995
-0.053184554
-0.018774422
0.0026403288
0.012060801
0.018637352
0.023124313
0.021940077
0.016365761
0.012925413
0.018927883
0.026906786
0.035152204
0.042740423
0.03574307
0.028610863
0.030880047
0.029105118
0.026578026
0.020106245
0.0089311795
-0.0055033504
-0.025946008
-0.034866124
-0.037577014
-0.039941102
-0.024479654
-0.0081012705
-0.0055557443
-0.0029236872
0.0053406623
0.0095858155
0.0044387067
0.0014977428
-0.0014472258
-0.009003007
-0.01690303
-0.025317157
-0.01693221
0.0028741965
0.015409863
0.027772909
0.03170017
0.02646187
0.012927009
-0.013935111
-0.024745053
-0.015454087
-0.007883863
-0.0057465965
-0.009641257
-0.009102301
-0.002810063
-0.0015727687
-0.007951417
-0.0165158
-0.015606206
-0.009850523
9.165604E-4
0.019640975
0.028382298
0.02482336
0.016228031
0.01001965
0.0070419894
0.0010807641
0.009890902
0.024379732
0.020300103
0.0074117817
-0.013939041
-0.025539938
-0.008780497
0.0050084936
0.0046536624
0.003858134
0.0047989744
0.0028414584
-0.01049754
-0.02013304
-0.009048218
0.0018892634
-0.009535151
-0.025432734
-0.020297986
-0.007531521
-0.0036884667
-0.0016965339
0.0010491404
0.004126499
0.007716952
0.010585899
0.011009662
0.005930618
5.312806E-4
-0.0021258655
-0.0034351891
-0.0024373762
-0.0014748026
-8.844994E-5
0.0018124353
0.0033706552
0.0048406385
0.0035166503
0.0024049531
0.0025624747
0.0017358088
0.0020382288
0.0024860336
0.0037936345
0.0054109776
0.0057039447
0.0061365436
0.0019523626
-0.0041953255
-0.0058672624
-0.0074077006
-0.008011027
-0.0057434402
-0.0043025464
-0.002943256
5.7309815E-5
0.003342553
0.0047349734
0.0035400921
7.382278E-4
-0.0010600825
-5.868801E-4
-9.50454E-4
-0.001659937
-5.754036E-4
9.4695966E-4
0.0032047422
0.0027009759
-0.0025598647
-0.00523084
-0.0037391202
-0.0022446956
-2.753842E-4
0.00139868
0.0014242381
0.0024842916
0.003636269
0.0016684273
-0.0012475186
-0.003169149
-0.003347116
-0.0015326052
-0.0012977547
-0.0023893714
-0.0011172224
0.0016972262
0.0030319826
0.0015794132
-9.891667E-4
-0.0038223718
-0.0059885397
-0.0047553796
-0.0016902214
0.0014949397
0.004364629
0.0046154098
0.0038042488
0.0036598593
0.0022714518
1.0236112E-5
1.13140624E-4
0.0013178891
-4.00417E-4
-9.625325E-4
7.9843553E-4
4.5101202E-4
0.0024994686
0.0054145874
0.0024265812
-0.0013150072
-0.0028788366
-0.0039319056
-0.0030271846
-0.0013537217
-3.418519E-4
8.6494914E-4
0.0026146178
0.0031510626
0.001195535
-0.0014455118
-0.0025029848
-0.0018635857
-0.0030491827
-0.004331894
-0.001417447
8.3520816E-4
0.0019054416
0.0031963955
3.4368833E-4
-0.0028290038
-0.0031228685
-0.0027429308
-0.0011058204
-2.4920172E-4
-4.569813E-4
0.001102891
0.002829586
0.0028753006
0.002711927
0.0012150691
-0.0021835268
-0.0026926931
-0.0024459353
-0.0034309078
-1.2174292E-4
0.0034408448
0.0035069478
0.0027171748
0.0012175984
-3.949873E-4
-0.004133667
-0.005894928
-0.0024216715
-3.604559E-4
0.0016224848
0.0032422403
0.0029047674
0.003572051
0.0018425054
-3.589738E-5
-0.0012277833
-0.0017706563
0.0012728587
-0.0013607359
-0.003707283
0.0034206614
0.0071510393
0.0064413655
0.002471115
-0.0055957073
-0.0054211896
-2.7604864E-4
-0.0017602836
-0.006278816
-0.005296681
0.0013451301
0.004404918
0.0027219192
8.145421E-4
-0.0022337532
-0.003706854
-0.0031224608
-0.0036744794
-0.0030371475
-9.675959E-4
5.3387234E-4
0.0021360104
0.0027738402
0.0016022857
-6.9103803E-4
-0.0034949405
-0.0041672043
-0.0020587726
4.89869E-4
0.0027637023
0.0042418134
0.005492436
0.0063173315
0.003228672
-0.0016379006
-0.0024867642
-0.0012500533
-0.0016742746
-0.0020306045
-0.0010008377
0.0019531646
0.0060147466
0.0051604756
-1.4713474E-4
-0.0031152028
-0.0036605685
-0.0036116852
-0.003818867
-0.0028290385
3.5818652E-4
0.0012818377
0.00186321
0.0034349728
0.0013389422
-0.0017104062
-0.0031237814
-0.0022503827
-1.4354587E-4
-2.1734979E-4
6.3140265E-4
0.0016624378
0.0021682405
0.00521215
0.0048541804
9.85953E-4
-0.0016667374
-0.0042153033
-0.0038099606
-0.0013572144
-0.0010185253
-5.4452673E-4
9.874789E-4
0.0018736331
0.0014912947
-0.001212255
-0.0045578266
-0.003910952
-0.002681969
-0.0040428885
-0.001898127
0.0011390682
0.0013033204
0.0025467689
0.002462298
2.1644108E-4
-0.0013807596
-0.002189798
-0.001780837
-1.9691946E-4
0.003207785
0.004968269
0.004314799
0.005818349
0.004010284
-0.0016368488
-0.0026791065
-0.001187886
-5.877195E-4
-8.161442E-4
-0.0024081706
-0.001167462
0.003901623
0.005169839
0.0015066058
-9.882506E-4
-0.004229355
-0.0074312943
-0.004796747
-0.0013973499
2.6831377E-4
0.002118518
0.0024121895
0.004148521
0.004152862
-9.187026E-4
-0.0035766899
-0.004370176
-0.0045607593
-0.0017287605
-8.417237E-4
5.622201E-4
0.0050526476
0.0053350846
0.0028995692
8.565518E-4
-0.003013989
-0.0053169127
-0.0042408374
-0.0026886344
-0.0012395818
0.0013781772
0.0038265637
0.003371356
0.0023961451
0.001391723
-0.0012590125
-0.0017196584
-3.9598058E-4
5.400721E-4
-5.1631965E-4
-0.0038430118
-2.0167212E-5
0.0056849685
0.001310555
-0.0026887583
-0.0029810444
-0.004010946
-0.0024500135
-0.0013221699
3.1812425E-4
0.0025364913
0.0012273961
0.0021153637
0.0039486513
0.0017837469
-2.7568982E-4
-6.418565E-4
-1.583682E-4
-9.3652634E-5
-0.0011672373
-0.0011708431
0.001532267
0.004266314
0.0024848501
-6.541383E-4
-0.0023171182
-0.004611969
-0.004952199
-0.0034138486
-0.0012809996
0.0026346082
0.005155352
0.005209782
0.003809749
6.355111E-4
-0.0032418747
-0.0058493605
-0.0055493293
-0.0041117147
-0.0021328584
8.4254605E-4
0.0023695673
0.0031726388
0.0029423092
-9.573871E-5
-0.0028087818
-0.0026730057
-6.839835E-4
4.8214753E-4
2.5885465E-4
6.392157E-5
0.0013177858
0.00434374
0.003989299
-3.1119425E-4
-0.0037449698
-0.0052435715
-0.0027903041
-9.8332464E-5
3.1764386E-5
0.0023060758
0.0038400015
0.004295155
0.004267009
-8.647404E-4
-0.004787582
-0.003967408
-0.0028300856
-0.0017105351
-3.332234E-4
0.002633924
0.004297905
0.0031286331
0.0028254518
8.374705E-4
-0.0020919468
-0.0031893316
-0.0039903275
-0.0036224977
-0.0031950767
-0.0012806592
0.0030286259
0.004573143
0.0032032728
4.4061095E-4
-0.002390088
-0.003702132
-0.004227243
-0.002260002
0.0011974783
0.003494193
0.0048828474
0.0057607163
0.004489912
-0.0035670123
-0.011369249
-0.008930223
-0.005213312
-0.005973925
-0.005114651
-0.0012251872
0.00375061
0.006201833
0.0043281964
6.7296694E-4
-0.0024244543
-0.0028307757
-8.416607E-4
0.0018053069
0.004811082
0.0060776975
0.0058564493
0.007801925
0.008409062
0.003986299
6.514421E-4
0.0018350087
0.0065065622
0.010679545
0.007859091
0.0051332596
0.00755454
0.0064277863
5.2604446E-4
-0.009469793
-0.01771702
-0.013885311
-0.007410404
-0.0057860366
-0.004190202
-0.004075115
-0.004122501
-0.0029598114
-0.005249205
-0.01111859
-0.015848115
-0.017814105
-0.018724252
-0.0154747
-0.009031797
-0.007922209
-0.009524922
-0.005102074
0.0058864634
0.017867865
0.024825318
0.026871705
0.02757065
0.026653891
0.020807188
0.011279508
0.004426467
0.0085924985
0.030728495
0.05290261
0.051830128
0.039965
0.021541996
-0.013282354
-0.04853133
-0.07845585
-0.0923582
-0.0613247
-0.010052911
0.01687408
0.016510453
0.0026111293
-0.016202599
-0.045909565
-0.07304724
-0.070384674
-0.052283954
-0.030625593
-0.007034006
0.0035415369
0.020108465
0.05289847
0.071867585
0.074263565
0.08312704
0.100037344
0.09351779
0.04705006
0.0012222064
7.983837E-5
0.027264511
0.02653086
-0.004857951
-0.021209424
-0.031129682
-0.04698089
-0.044595107
-0.034300447
-0.024529858
-0.021461146
-0.04336455
-0.05343744
-0.039531056
-0.037920315
-0.033340815
-0.024395324
-0.031459942
-0.02989839
-0.017434588
-0.00871994
0.0029209747
0.01792646
0.039229333
0.058323976
0.060037777
0.044653084
0.026370786
0.028231118
0.025854072
0.0038923295
0.009411655
0.030199043
0.02639659
0.013123951
0.008770197
0.020818166
0.026910186
0.0025715916
-0.034515157
-0.06054234
-0.06223444
-0.053814135
-0.03555929
0.012197202
0.048638515
0.044101223
0.021278786
-0.0034041815
-0.017371818
-0.031893644
-0.04896949
-0.044031426
-0.027463453
-0.018519623
-0.017011594
-0.00866796
0.017827343
0.04221794
0.050177056
0.04569886
0.024698209
-0.01263634
-0.043369956
-0.036868494
0.0011493389
0.036568996
0.048835073
0.044014975
0.030124713
-0.007293102
-0.045337018
-0.03734487
-0.0070093726
0.004608021
3.7275473E-4
-0.0041982834
-0.003762007
-0.0034244813
-7.4995786E-4
0.0010898415
-0.0038342003
-0.0078050047
-0.0149844205
-0.01755601
-7.281249E-4
0.0154863
0.01941274
0.019784762
0.017264243
0.01222225
0.0021464175
-0.01405423
-0.022929328
-0.014262327
-0.001485038
0.0025433083
0.0057354607
0.0088382065
0.006118866
0.0029998203
-7.269607E-4
-0.007407486
-0.009869074
-0.0069848555
-0.0061155045
-0.005945952
-0.0012435762
0.0032004497
0.005038238
0.0060424185
0.0032961962
3.8597494E-4
0.0023659985
0.005251292
0.0051301364
0.0038684495
0.005241578
0.008011155
0.007689858
0.0026465105
-0.004442094
-0.008992606
-0.010454166
-0.009666788
-0.0072150966
-0.0052902587
-0.0030135182
5.4681796E-4
0.0032539836
0.0031218901
3.8987998E-4
-9.845799E-4
-2.559437E-4
-2.0147444E-4
1.9814538E-4
0.0019649842
0.0055296067
0.009381095
0.007967601
0.0032039697
-7.013951E-4
-0.005781858
-0.008143601
-0.004844358
-8.58465E-4
0.0021254877
0.0028149018
0.0014011274
0.0018762293
0.0022010552
-0.0013834661
-0.005662812
-0.0062437984
-0.00497343
-0.0042397017
-0.0019477813
0.0017936549
0.005832845
0.008279794
0.004889163
-0.0012751924
-0.003882688
-0.003212973
-0.0018868566
-8.289325E-4
4.7721598E-5
0.002046301
0.0062310006
0.008187125
0.004656405
2.9763224E-4
-0.0021903203
-0.0033825475
-0.003962115
-0.0032091218
-1.6636096E-4
0.0022494423
0.0050260774
0.005263272
-3.3145325E-4
-0.0033749044
-0.007532796
-0.01232234
-0.005621693
0.0011782954
0.0015413977
0.003501595
0.005631053
0.007603646
0.0054731476
-1.2138578E-4
-0.0016842111
-0.0024798582
-0.0018915813
7.891484E-4
0.0010673784
0.0016818999
0.0036470117
0.004615842
0.0023312427
-0.002562878
-0.006346713
-0.008196271
-0.006553893
-0.0031569307
-3.603784E-5
0.0035468931
0.0045399684
0.0047212197
0.0039015282
-9.5770194E-4
-0.0039638
-0.003405676
-0.0012563383
0.0013611936
0.0012451357
0.001388229
0.0042954916
0.006795023
0.005578684
4.321001E-4
-0.0036198176
-0.004748408
-0.0047597075
-0.002840728
4.5213584E-4
0.0024980952
0.0023559737
0.002255314
0.0020727601
-7.9087995E-4
-0.0037769866
-0.005020926
-0.0052225813
-0.00313821
-7.174325E-4
7.8331964E-4
0.003850073
0.006171155
0.0042973673
6.5126846E-4
-0.002369037
-0.0039142766
-0.0031627882
-0.0019065117
-1.2665684E-4
0.0025015501
0.0037409556
0.004767413
0.004259706
8.570266E-4
5.147868E-4
0.0010788123
-0.0015919739
-0.0013037086
0.0010188267
9.223076E-4
0.0018400105
0.0036278889
0.0024425783
-0.0022794257
-0.007239285
-0.0070472667
-0.0027930972
-6.833529E-4
6.859272E-4
0.004362443
0.005705877
0.0053441483
0.005673004
6.713291E-4
-0.00593607
-0.007146421
-0.0071821716
-0.00523827
-0.0014910927
-2.658471E-4
0.0029972992
0.006781071
0.004878368
6.844642E-4
-0.003419409
-0.006032949
-0.0036977555
3.0664436E-4
0.0020469937
0.0027519697
0.0029652924
0.003995907
0.0051061683
0.0021050044
-0.0015437396
-0.0019250738
-0.002271675
-0.0038807227
-0.0053912075
-0.0024243952
0.0039022153
0.00569807
0.0044735502
0.0014370495
-0.0030324897
-0.0027894394
-0.0017931394
-0.0028866746
-0.0017180957
5.888451E-4
0.003470576
0.0058640335
0.005657211
0.0030862286
-4.6921833E-4
-0.0021791025
-0.0028073923
-0.003042093
-0.0029227035
-0.0019444356
0.0033575296
0.007444879
0.005057005
1.2649377E-4
-0.0046495367
-0.0061351196
-0.0060212435
-0.006512622
-0.004339567
-8.9670764E-4
0.0030766772
0.006136695
0.0063189254
0.0036045788
-0.004596651
-0.007929366
-0.0018151712
-2.5690763E-4
-2.7637839E-4
0.0041246563
0.006727306
0.007923095
0.0066322815
0.002098598
-0.0018086197
-0.004642078
-0.005268918
-0.0039048535
-0.0021387574
-2.7442267E-4
9.354132E-4
0.0026017348
0.0025754424
-0.002252392
-0.006008228
-0.0037812626
-1.875886E-4
8.418066E-4
9.116119E-5
-1.1875787E-4
0.0025650968
0.0055270046
0.005563769
0.0027065787
-0.0030712595
-0.005947796
-0.0037662224
-0.002095325
3.931486E-4
0.002846461
0.0045513106
0.008585205
0.007696391
0.0020436079
-6.945953E-4
-0.0017919656
-0.001934311
-0.003960126
-0.0063831876
-0.002804713
0.0015680174
0.0028762901
0.0018861786
-0.0015094631
-0.004649589
-0.0060766106
-0.0046179406
-0.004177389
-0.0049807252
-6.3688256E-4
0.0031294827
0.0048339106
0.0073126834
0.003430181
-0.001977512
-0.0016685385
-4.547316E-4
-1.8739159E-4
-5.1939476E-4
4.2030893E-4
0.0045087417
0.007883996
0.007281459
0.002968124
-0.002114534
-0.0046353983
-0.0051452825
-0.004481772
-0.0015939646
0.0016121332
0.0034230598
0.0052015223
0.00559046
0.0029674429
-0.0011834932
-0.0033830265
-0.0022139126
-0.0025074754
-0.0040956093
-0.003043572
-9.428989E-4
0.0018048872
0.003587929
0.0018877138
-0.0026022885
-0.0052486258
-0.0012749633
0.0017043069
6.163868E-4
0.0020972241
0.003501919
0.003977989
0.003797391
0.001122818
-0.0026047463
-0.005917519
-0.0034861472
-0.0022034652
-0.008352466
-0.007722654
6.737733E-4
0.007669013
0.009213736
0.0037054857
-5.2302866E-4
-0.0018985445
-0.0028980514
-0.0020868536
-0.0014985029
0.0015119407
0.004280017
0.0037127528
0.0038461036
0.0016697202
-0.0016969466
-0.0030186125
-0.0040305415
-0.0029674275
-2.3318805E-4
0.0021061953
0.0032838783
0.0045502447
0.005398925
0.0024071361
-7.612007E-4
-0.0025324929
-0.0036185104
-0.0022166746
-0.0026657984
-0.0030046296
4.2214154E-4
0.0024908548
0.0025391679
0.00115073
-9.844626E-4
-0.0013080785
-9.6394424E-4
-8.8299986E-4
-0.0018619249
-0.0018752884
0.0013044094
0.0042303656
0.005482633
0.0025471149
-0.0043968167
-0.0072118607
-0.007164062
-0.006484001
-0.0013487427
0.0014329136
0.0013909796
0.006021068
0.008305582
0.00462043
8.815256E-4
-9.435321E-4
-1.6271912E-4
2.875666E-4
-1.5255378E-4
9.226437E-4
0.002007419
0.0042628786
0.0042912257
-8.720163E-4
-0.0041227154
-0.0047113993
-0.0056101712
-0.0056648664
-0.0048975777
-0.003148244
2.4988904E-4
0.004629742
0.0058343876
0.0035860569
0.0012766261
-0.002293369
-0.0039676772
-0.0026922633
-0.0021975348
-2.1267343E-4
0.0023532321
0.004818197
0.0063543427
0.0027799883
-0.0012784338
-0.003567192
-0.004511242
-0.0019721717
-1.2908198E-4
0.0014588966
0.003887257
0.004809033
0.0055885436
0.002645173
-0.0023089144
-0.0028484545
-0.0023602082
-0.003199778
-0.004441729
-0.0038267842
5.9699663E-4
0.0046225367
0.0057777157
0.0039524273
5.5999488E-5
-0.0026145708
-0.0036505342
-0.0029161677
-0.0013795162
-0.0010635655
6.9268054E-4
0.0040803817
0.0038122705
-3.331681E-4
-0.0025321457
-0.0036966135
-0.0075318054
-0.0071365763
-0.0014565523
-9.4373616E-5
-4.7972784E-4
0.0029823114
0.0049867886
0.003370834
8.689438E-4
-0.0012780085
-0.0012336674
3.97159E-4
8.5133564E-4
7.831119E-4
0.002567963
0.0058663925
0.007304133
0.0055451747
0.0023757052
-0.0015149306
-0.0040319287
-0.003374912
-0.0018857148
-0.0010550192
2.4751267E-5
0.0032649285
0.0062980046
0.002957211
-0.0033579122
-0.0066823075
-0.008892587
-0.00852485
-0.004356004
-0.0014714919
7.763014E-4
0.004395989
0.004249044
0.001131144
8.511595E-5
-8.925314E-4
-0.0015449949
-8.2098856E-4
-0.0017620615
-0.0023055344
-3.3459084E-5
0.004487808
0.008179606
0.0054134177
-2.5507953E-4
-0.0028505484
-0.002962186
-0.002243998
-0.0032871466
-0.002336197
0.0026733784
0.0043686586
0.0039223665
0.0040543033
0.0010650859
-0.002176959
-0.002520373
-0.0025523056
-0.002554859
-7.703656E-4
6.234318E-4
0.0015602278
0.004399933
0.0038002678
-0.0013842556
-0.005094593
-0.0059821177
-0.0036084151
-0.0011999396
-9.0792926E-4
0.0013997202
0.0042561255
0.0049771727
0.00296074
-0.0013739455
-0.0037117116
-0.0029550123
-8.574779E-4
-3.3578914E-4
-0.0011296703
0.0012128149
0.0040120417
0.0049855434
0.004310065
-7.343574E-4
-0.005735033
-0.006056165
-0.003982676
-0.0016514965
1.7948763E-4
0.002005161
0.0040057735
0.0058918977
0.0056230756
0.0015384655
-0.0027677717
-0.004598691
-0.004086877
-0.002829434
-0.0021326237
9.6552994E-4
0.0050295666
0.0048537897
0.0016459642
-0.001506959
-0.0042331847
-0.0063951565
-0.005874733
-0.0023062243
7.2817E-4
0.0024182461
0.0040555615
0.005056615
0.00488828
0.0028632116
-3.5494062E-4
-0.0017931376
-0.0015453814
-0.0021441046
-0.002349673
-8.212166E-4
0.0023302285
0.0066712713
0.0059027853
-1.298255E-4
-0.0030143596
-0.0038822354
-0.004067551
-0.0017616538
-0.0010818008
5.5915407E-5
0.0041421507
0.006252099
0.00479177
-4.2685235E-4
-0.0058861664
-0.0063887844
-0.00624106
-0.006757157
-0.003917675
-5.473523E-4
0.0031026744
0.008104637
0.009012259
0.005366034
5.6563056E-4
-0.0025481347
-0.0032981706
-0.007011761
-0.008907429
-0.0024342507
0.0032858287
0.005104055
0.005644032
0.0030364152
5.3454353E-4
2.8156483E-4
3.25136E-4
-0.0012169421
-0.0032103197
-0.001906347
8.269604E-4
0.0030377195
0.0031182875
-6.27943E-4
-0.0028719548
-0.0024753474
-0.0016196545
-8.798866E-5
-1.2727114E-4
2.11929E-5
0.002245471
0.0047550434
0.0062955455
0.0039241966
-0.0012676353
-0.0044234553
-0.0041593835
-0.0025734908
-0.002061865
-6.9647864E-4
0.002779641
0.004618594
0.0023863763
-0.001636269
-0.004382372
-0.0062906104
-0.0061610057
-0.0022476527
0.0012392742
0.0026022762
0.0049808417
0.0075844326
0.007098232
0.0034523683
-0.0015645236
-0.004783554
-0.003399431
-0.002411782
-0.0032578863
-4.5437863E-4
0.0024191267
0.003442632
0.0042775115
0.0011659334
-0.003551616
-0.0070610004
-0.009048165
-0.0058438056
-5.835623E-4
0.0018101712
0.0026015565
0.0035338735
0.0038692548
0.0016714975
-0.0017651587
-0.004166177
-0.0044256495
-0.0024527567
-0.0013718714
3.3003994E-4
0.0056461464
0.009281506
0.008209506
0.004356966
-0.0010665994
-0.0042324
-0.0035998237
-0.0018012256
4.9277564E-4
0.0023734132
0.0036356114
0.005146563
0.005235804
0.0037636196
4.2011568E-4
-0.00388544
-0.0043438175
-0.0022735368
-6.182442E-4
6.8511174E-4
9.7251835E-4
0.0028170045
0.005066066
0.003639562
-0.0019528241
-0.009175299
-0.010301346
-0.0061479625
-0.0035879521
-0.0019078621
-5.2540883E-4
0.0025074964
0.0042183152
6.670756E-4
6.686444E-4
0.0032493717
0.0022363332
0.0013030372
-0.0016136621
-0.006740219
-0.0086904615
-0.0076538534
-0.006147472
-0.004976855
-0.0028731674
-5.30162E-4
1.4344093E-5
-0.001225033
-0.002679973
-0.002166294
0.0015325468
0.011542691
0.023178745
0.024374325
0.01751824
0.009574659
-0.0017747219
-0.01617128
-0.023968756
-0.012419121
0.015009967
0.033694588
0.030013824
0.0218423
0.021751992
0.015006513
-0.0037344098
-0.0270755
-0.04309442
-0.032602943
-0.009831436
-0.0051371935
-0.01427231
-0.02422647
-0.029556196
-0.026762152
-0.020227706
-0.012551107
-0.00522092
-0.0011725206
0.0068858946
0.024148269
0.03324611
0.02320839
0.010798231
0.004414021
-0.0010909394
-0.005603948
-0.007847282
-0.0018065936
0.018526578
0.04674106
0.06165045
0.050021157
0.027200773
0.007977874
-0.004151752
-0.0125969
-0.027034251
-0.03466682
-0.021953523
-0.004320109
0.0021153574
-0.0034988832
-0.016858503
-0.03614063
-0.04442703
-0.031327497
-0.021222841
-0.01848754
-0.012092695
-0.007233769
-0.001596907
0.0012533088
0.0013237251
0.0047873426
0.0054319925
0.006528094
0.007950883
0.011750749
0.024954684
0.03229378
0.029579956
0.022820145
0.011390859
-2.3710652E-4
-0.0081436355
0.002624093
0.02669529
0.034940403
0.031191276
0.027949786
0.01766888
-0.010286799
-0.04005684
-0.037405383
-0.01746283
-0.011641075
-0.013554762
-0.0157801
-0.014737399
-0.013111296
-0.015800577
-0.013070118
-0.00853363
-0.008580764
-0.0068215737
-0.0046738656
-0.003143018
-1.641046E-4
0.0027168747
0.005099848
0.0064989366
0.006425554
0.0047914973
0.0028633287
0.0029897527
0.0044330037
0.0048910244
0.0054921363
0.008286499
0.0109188575
0.011896099
0.010044635
0.0041326974
-3.838571E-4
-0.0015323925
-0.0014160847
1.695891E-4
2.8133235E-4
6.2010536E-4
0.00389003
0.005263518
0.002504086
-0.0029421006
-0.0063549387
-0.0042123897
-7.719679E-4
2.2819643E-4
-8.856784E-4
-1.0272221E-4
0.0033389924
0.0033615136
-6.106027E-4
-0.0058534564
-0.009564615
-0.00825089
-0.0056030154
-0.0043971855
-0.0028833365
-0.0010544203
8.952785E-4
0.0018236706
0.0020548017
8.6341193E-4
-0.0015336463
7.933377E-6
0.00245991
0.0018969383
0.0016482249
0.0021586206
0.0040848237
0.0047805156
0.0016410253
-8.9363795E-4
-0.002967078
-0.0041110897
-0.0031023994
-0.0023828775
6.559364E-4
0.0038344127
0.0041117305
0.0049772603
0.0034486507
-6.566477E-4
-0.0028975874
-0.0047122655
-0.004856383