-0.0052338815
-0.007307645
-0.004453341
0.0010619052
0.0046984367
-0.0015794334
-0.0058667026
0.0016240485
0.0013427433
-0.010348638
-0.0077475267
0.0056617777
0.001394288
-0.0076497556
-8.084484E-4
0.0057307375
0.01025558
0.01361128
0.006184769
-0.002444624
-0.010662426
-0.010483174
-0.0012042732
-0.001991777
0.0067693084
0.015533259
-0.006771647
-0.018400487
-0.0050154864
7.350084E-4
-1.0924708E-4
-5.9300073E-4
0.00378352
0.01264701
0.016736493
0.017342992
0.015706321
0.010239447
-0.0019939244
-0.017118637
-0.022424424
-0.013188731
0.0024541193
0.0021866495
-0.010778831
-0.008917557
-4.5766195E-4
-8.8867254E-4
-0.005993505
-0.00903789
-0.0053292876
-0.0056772465
-0.0064516524
0.005764803
0.013878798
0.012218305
0.013505328
0.00959022
-0.0062960135
-0.021507474
-0.02550264
-0.015951084
0.0046596387
0.021712815
0.025781924
0.023678804
0.018632904
0.01308966
0.008603205
-0.0012546987
-0.015337215
-0.022059442
-0.016714815
-0.010657847
-0.009049736
-0.0045143426
-1.444835E-4
6.3093135E-4
-8.71847E-4
-0.0029109716
0.0019416417
0.0065009873
0.0012186401
-0.0011759364
0.0038272855
0.004066063
0.0014031681
0.0041838917
0.0046156454
-8.8003726E-4
-0.0034735436
-0.0013168276
0.0033445691
0.004807743
0.0018245012
0.0015923709
-9.728171E-5
-0.004028209
-0.004213245
-0.006011777
-0.009100029
-0.008345423
-0.004575902
4.1004634E-4
0.0019615514
8.5469737E-4
0.0016025146
0.0018178173
8.1997925E-5
-4.602713E-4
0.0019537034
0.005554924
0.0062636775
0.0027325186
0.0022620372
0.010027521
0.015012967
0.007836213
-0.0016186095
-0.0041074897
-0.005323145
-0.0061983624
-0.0029704834
-0.00212088
-0.0027250191
-0.004017535
-0.012493179
-0.013521324
-0.004950999
-0.005417958
-0.006813759
-0.002208809
0.0021260646
0.006032817
0.0025481544
-0.0045058485
-0.004519651
5.607381E-4
0.0066797705
0.004981407
0.0010759517
0.010036632
0.020238863
0.019739173
0.01392645
0.008705815
0.00578811
-0.0016224004
-0.011135414
-0.010713112
-0.006433317
-0.007467806
-0.0073647466
-0.0021893254
0.0011042403
-1.0100489E-4
-0.0010172535
-0.003197095
-0.0063340534
-0.0064502
-0.010733119
-0.01582766
-0.011292249
-0.0055594235
-4.6573847E-4
0.004868408
0.0037543152
0.0049472544
0.008228384
0.005202849
0.0034253101
0.003196378
0.00244254
0.0048860433
0.0068703364
0.006089953
0.005414628
0.007393584
0.0058548627
-0.0035316385
-0.008729295
-0.0032127523
0.006830469
0.013155888
0.011687529
0.0067406823
1.1837862E-4
-0.005683127
-0.008167489
-0.011371126
-0.011919173
-0.007151459
-0.0023691074
0.0010573767
0.0034919856
0.0041593574
0.0025211526
2.4627126E-4
-0.0026699954
-0.0069582127
-0.008287591
-0.008013382
-0.009220103
-0.008930946
-0.0059535773
-0.0014512155
8.8892493E-4
0.0025375965
0.0042181546
-3.5069382E-4
-0.0049134605
-0.0030245488
4.5279777E-4
0.0022103034
0.004628976
0.014692565
0.019551732
0.007582571
0.002367862
0.008981276
0.008051318
0.0016636798
-0.0047101886
-0.007897779
0.0011124957
0.012964022
0.01300458
0.009814986
0.010810286
0.011063713
0.008557232
-0.0065620528
-0.029504927
-0.031763893
-0.01747006
-0.0095229335
-0.0049191457
-6.061191E-4
-0.0031743601
-0.008520736
-0.008968428
-0.0072068605
-0.0050917873
1.7292092E-4
0.0039920337
0.005345699
0.0064180857
0.0046923156
0.003601264
0.003340973
0.0021713024
0.003975318
0.005727192
0.0049880883
0.004156933
0.0047270935
0.007440284
0.0074247564
0.002906211
-0.0022965816
-0.0059301537
-0.0053371787
-0.0025040975
-0.0010594713
2.9034347E-6
0.0020162489
0.0047417413
0.0041701756
-8.429714E-4
-0.0049859835
-0.0062313443
-0.005023536
-0.002307373
-9.844542E-4
-3.8805394E-4
0.0024732915
0.0056353235
0.0054309866
0.0029991777
-4.1622235E-4
-0.003779491
-0.0038727885
-0.0022609038
-0.0012213176
4.0633613E-4
0.0010872163
4.5732906E-4
6.656745E-4
4.1556283E-4
-0.0033340324
-0.007185814
-0.004434469
9.847888E-4
0.003572433
0.005665504
0.007812033
0.010322667
0.009408184
0.0015564535
-0.0046119946
-0.0068143974
-0.007846625
-0.0052507604
-0.0027173536
-0.0012520774
6.430196E-4
9.33988E-4
0.0024237453
0.0025298237
-0.0011308473
-0.0026019774
-0.0031367592
-0.0041027935
-0.0039241672
-0.00481004
-0.0038238794
-5.0930004E-4
4.1319855E-4
-1.0675915E-4
-9.0967485E-4
-6.461895E-4
0.002740917
0.006208514
0.0087925475
0.0107938405
0.00974598
0.007480179
0.006352186
0.0059529026
0.0056161582
0.0021525244
-0.0029983604
-0.0046734377
-0.0036083693
1.9633924E-4
0.00485085
0.0043332777
0.0011086232
-0.0036054195
-0.011254993
-0.01178025
-0.0031593435
0.0025664186
0.0025777242
-4.6473116E-4
-0.006444544
-0.01312532
-0.015910795
-0.009607729
-9.854137E-4
3.1427585E-4
0.0026880098
0.00757731
0.0056529953
0.0022881238
0.001812757
0.004318288
0.011010493
0.012735151
0.008616768
0.004734256
-9.0981787E-4
-0.0036595191
-0.0022729328
-0.002671651
-0.0040842374
-0.0071786433
-0.0060108923
0.004698511
0.012419214
0.012406063
0.006440215
-0.0068628592
-0.014488033
-0.010436931
-0.0044282055
0.0019916575
0.005363925
0.0018977423
0.003376147
0.011856215
0.015471499
0.018281896
0.024831967
0.025377996
0.014125921
-0.008302341
-0.021785164
-0.011894088
-0.0069900197
-0.013869146
-0.013049252
-0.012980861
-0.014460923
-0.0181855
-0.03240811
-0.03374025
-0.018186823
-0.009267966
-0.0053088
-0.0045899074
-0.011022613
-0.011709279
-0.0027969643
0.004294166
0.009783781
0.01803853
0.025941538
0.031540215
0.023806108
0.007472125
0.01089941
0.026053686
0.039323945
0.059970863
0.069878094
0.059087545
0.03930138
0.005350439
-0.03612375
-0.06486293
-0.0729865
-0.06690783
-0.054103903
-0.028651122
0.0020248494
0.017104793
0.009407013
-0.01596657
-0.035388794
-0.034666624
-0.026581792
-0.017929617
-0.016931465
-0.020000782
-0.008416678
0.0045759776
0.01219591
0.02515791
0.027141416
0.013505943
-0.0016884801
-0.0052178088
0.0088078035
0.01560363
0.010230419
0.012891612
0.019163439
0.020290824
0.006649967
-0.015679592
-0.032008313
-0.04190075
-0.027908472
-0.004684987
0.0043860367
0.014523158
0.012944324
0.007168665
0.008730107
-0.0036119914
-0.0060998527
0.006666144
0.024382202
0.045915663
0.03511283
0.011678943
0.015341277
0.034837224
0.041990053
0.009092441
-0.028727567
-0.03951576
-0.03386414
-0.007532068
0.009797882
0.0015193578
-0.01992723
-0.040385865
-0.03367421
-0.039558426
-0.06727884
-0.054150652
-0.012303346
0.0063057924
-0.022494288
-0.06874992
-0.08430336
-0.059844233
0.004437914
0.04111419
-0.0012238836
-0.044180334
-0.037278477
0.00768473
0.06747348
0.084755205
0.05109475
0.017582
-0.011662666
-0.03678887
-0.009771612
0.02417568
0.011120001
0.030087242
0.05905954
0.0286479
0.0026598775
-0.0074903183
-0.0180174
-0.010666445
-0.011274049
-0.025150701
-0.041534908
-0.040479306
-0.01646579
-0.021983722
-0.05752089
-0.067829214
-0.036908578
-0.0126282675
-0.026601635
-0.03011083
-0.021497179
-0.026167803
-0.010592011
0.0081059635
5.681555E-4
-0.0028001317
0.005541033
-0.005072961
-0.026275016
-0.009519296
0.023013601
0.033954542
0.052359898
0.05895687
0.03794217
0.03244899
0.027417183
0.0076533803
0.0029845429
0.0146019645
0.03123597
0.0347796
0.020956371
0.018376058
0.019889781
0.012527095
0.017602995
0.013498203
-0.02810441
-0.0661782
-0.06179365
-0.032198913
-0.01156185
-0.008592594
-0.017658714
-0.035054684
-0.035568055
-0.018934444
-0.028124752
-0.05817345
-0.07071546
-0.05590991
-0.02347252
7.006107E-4
0.009227949
0.024257986
0.034769934
0.011379764
-0.013176823
0.013267294
0.054806683
0.06093622
0.06613958
0.083727196
0.0795209
0.07096192
0.07347816
0.061222203
0.040201955
0.031478632
0.026127458
0.012260589
-0.0027958364
-0.010489091
-0.014657173
-0.01914007
-0.030052135
-0.042373996
-0.041984428
-0.05072249
-0.07165348
-0.077792875
-0.08674553
-0.08487128
-0.049170997
-0.028324382
-0.021642508
-0.0072762123
-0.008356762
-0.0026439743
0.015086696
0.017361622
0.028407147
0.053358175
0.06290835
0.062437963
0.06858724
0.07220354
0.06379132
0.056507625
0.05405914
0.047911488
0.039279062
0.029049197
0.021282403
0.011760037
-0.008806098
-0.027925683
-0.037578505
-0.043635033
-0.046801377
-0.046708427
-0.046051368
-0.045542516
-0.038397558
-0.02771834
-0.02475219
-0.027594378
-0.03112372
-0.028631596
-0.02106193
-0.016502604
-0.007968271
0.0031086295
0.009659392
0.015439117
0.016522048
0.016165737
0.017899958
0.01658784
0.02016133
0.027818251
0.029712465
0.029883066
0.03451555
0.03553713
0.020952865
0.010740265
0.014399346
0.0025148704
-0.008629032
0.0013552653
4.4538282E-4
-0.0039742067
0.005710307
0.0056664124
-0.0032488052
-0.009650551
-0.016649572
-0.01966141
-0.020403946
-0.021894183
-0.022043074
-0.022676399
-0.019649811
-0.014332794
-0.016944692
-0.023728097
-0.026216839
-0.025064569
-0.02125404
-0.016163507
-0.013296122
-0.010958554
-0.004722852
0.0015370616
0.0019935947
9.07135E-5
-0.0013762625
-0.0029298794
-0.0017497744
0.001095552
0.0021059415
0.002940691
0.0064396746
0.010117868
0.006634831
-0.002922026
-0.007894219
-0.004917041
-0.0011589262
-0.001141812
7.5397897E-4
0.005703478
0.008041125
0.009272535
0.008418078
0.0038427108
8.4482646E-4
-3.5956394E-4
-1.3314486E-4
0.0020352216
0.0042715087
0.0070781903
0.009132534
0.0102632465
0.010208639
0.007146732
0.0034953498
5.429898E-4
-4.400612E-4
5.2920386E-5
7.126245E-4
0.0040633124
0.006012804
0.0057516843
0.006026788
0.0022652238
-0.002384184
-0.004530405
-0.005149295
-0.0016838992
0.0018234774
0.003629438
0.0065015717
0.0090302
0.01057099
0.008511804
0.0042780833
0.0036504562
0.005208299
0.0063240225
0.0057261433
0.004117316
0.0070393123
0.012652586
0.012041955
0.006892034
0.004101414
0.0020928334
0.0012410238
0.0032862448
0.0038824037
0.005153682
0.009082945
0.0104346
0.00893781
0.0057521923
0.0027395529
0.0024740575
0.002535837
0.0023104304
0.0021686566
0.0030681337
0.007035043
0.009646784
0.008094441
0.0044696494
0.0014102588
0.0020797446
0.0028661934
0.0025678684
0.005302429
0.0066333935
0.006296485
0.008277704
0.0074750343
0.0029327448
-0.0010892813
-0.0017144814
4.4451508E-4
-1.080436E-4
8.115888E-5
0.003858215
0.0057086213
0.008687385
0.010676647
0.00687145
0.004300561
0.0020416563
-6.2802035E-5
0.0025805193
0.0035557249
0.004136957
0.0087958025
0.011320968
0.010872151
0.008801208
0.005325039
0.004984772
0.007028225
0.0069436417
0.006305794
0.008056253
0.009504828
0.00776003
0.0040107174
-6.5576525E-5
-0.0026682103
-0.0029077332
-0.0018407687
-9.3017705E-4
-6.6531595E-4
0.0010686299
0.0050003882
0.007960761
0.0068948977
0.0033627176
0.0014465972
3.5054746E-4
-4.5377633E-4
2.915123E-4
8.7407546E-4
0.0030730641
0.006888455
0.008850899
0.009511932
0.0072829425
0.0035473073
0.0026341644
0.0020217884
0.0020218254
0.0042801313
0.0061476952
0.0074811084
0.0085608745
0.0092624
0.0073996773
0.0015948969
-0.0011188253
9.0381864E-4
0.001102281
4.6095467E-4
0.0018947929
0.004452862
0.0069225775
0.0058756582
0.0024661294
0.0011003815
3.1739983E-4
2.4244322E-4
0.0012241958
9.7281236E-4
0.002272116
0.0047842218
0.0052546486
0.0053515364
0.0035040884
-8.556635E-4
-0.00201678
5.89248E-4
0.0020250096
0.00220917
0.0041437666
0.0060961447
0.007011914
0.007851403
0.006131134
0.0029812595
0.0015020292
7.0209854E-4
2.609287E-4
5.536048E-4
0.0024668546
0.0054491186
0.006665174
0.0064739715
0.004371422
1.3197209E-4
-0.0020227209
-0.0024386821
-0.0026400867
-0.0013219233
-0.0018959076
-0.0023311577
0.0022577199
0.0038598035
3.012705E-4
-0.001865228
-0.0034414672
-0.0026805094
-7.4450625E-4
-8.0073555E-4
0.0018118744
0.003964537
0.0049324557
0.0073241363
0.004591983
8.896461E-4
2.472498E-4
-0.0015176089
-7.37831E-4
0.0012505647
0.001914691
0.0034802225
0.0044730534
0.005223408
0.0032581626
-0.0010117637
-0.0021743567
-0.0030482607
-0.003559654
-0.0016498228
-6.409251E-4
6.622272E-4
0.002655095
0.0025130867
4.840086E-4
-0.0015705276
-0.0020600539
-5.9617474E-4
0.0017659618
0.0015957144
-9.998611E-5
0.0013204893
0.0032131115
0.0035487802
0.0025335567
-0.0012286974
-0.0038790992
-0.0034604492
-0.0016396232
3.8119586E-4
4.985562E-4
9.277093E-4
0.0023672704
0.0026361628
0.001843937
-9.157003E-4
-0.0023988276
-5.61663E-4
9.009011E-4
3.3093337E-4
-0.0025312016
-0.0020924874
0.0025613299
0.004828682
0.0069406484
0.005911008
0.002662054
0.0074810274
0.010901335
0.011021236
0.018530294
0.02394231
0.023673544
0.0227014
0.018380601
0.012626005
0.006085053
6.193012E-4
-0.0023132737
-0.0064606196
-0.008673947
-0.008835149
-0.008273646
-0.0058336994
-0.006688077
-0.008377621
-0.0071777394
-0.004996812
-3.4758958E-4
0.002428257
0.0013088239
1.475567E-4
-0.0020057987
-0.005927438
-0.013149625
-0.023173507
-0.031772386
-0.037825383
-0.041638345
-0.043707773
-0.04357196
-0.04195173
-0.03811933
-0.029916214
-0.022843145
-0.018203126
-0.010666119
2.691417E-4
0.012636166
0.023313923
0.03212903
0.03956138
0.046458688
0.053101335
0.054157477
0.05377445
0.055989224
0.059610125
0.0664168
0.06912328
0.07418569
0.08558556
0.09751882
0.11917437
0.101814106
0.011519986
-0.06777512
-0.09731384
-0.11264419
-0.11547095
-0.10928044
-0.102822475
-0.0951886
-0.08989002
-0.08348328
-0.07607248
-0.06746266
-0.05709407
-0.04771055
-0.0351718
-0.023741866
-0.015578707
-0.0031635305
0.010084008
0.019122796
0.026322057
0.035357665
0.0456909
0.054669112
0.0622428
0.06644943
0.06927851
0.07144114
0.064314276
0.046808444
0.027602674
0.014155026
0.0077050384
0.0037802695
-0.001289128
-0.007199464
-0.011021446
-0.013070593
-0.0137682315
-0.013923099
-0.01662328
-0.015317936
-0.010128432
-0.0091449125
-0.005803768
-9.187368E-4
-4.7016106E-4
5.815331E-4
-2.895465E-4
-0.004065113
-0.008105226
-0.013452699
-0.015425124
-0.015818372
-0.01861854
-0.020672193
-0.020914195
-0.017407227
-0.014861533
-0.01722129
-0.015351849
-0.009608983
-0.0057363813
-0.0020006555
1.3132936E-4
0.0015450732
0.004515026
0.007353569
0.009341987
0.0091189835
0.0077398103
0.0074496493
0.007593794
0.007683089
0.007655921
0.008414279
0.009228248
0.008950587
0.00845948
0.005909732
0.0018336243
-4.8633304E-4
-0.0011527435
-7.901445E-4
-3.841436E-4
1.2177627E-4
5.157498E-4
-4.4061345E-4
-1.0142157E-4
6.075392E-4
-0.0017102394
-0.0041750167
-0.0047485917
-0.0044923527
-0.0043987404
-0.0042993724
-0.0031355121
-0.0016667394
-5.262934E-4
-0.001582672
-0.0054246853
-0.008397276
-0.00906208
-0.007705176
-0.006934223
-0.006402524
-0.0031553372
-0.005707228
-0.011159815
-0.0060342695
-0.0028538664
-0.008262893
-0.007954891
-0.0053703464
-0.0067404653
-0.006618835
-0.0056089275
-0.0037264612
-7.3581404E-4
-0.001361159
-0.0032335268
-0.0030382997
-0.003056217
-0.0020304245
-5.056376E-4
-4.7217266E-4
0.0013691727
0.00394006
0.0042051896
0.0041872035
0.004966924
0.0058565447
0.005491751
0.0049059745
0.005704598
0.0049789385
0.0030209206
0.0017883617
-4.06445E-4
-0.0043525035
-0.009180464
-0.011527833
-0.011466888
-0.012404072
-0.01251796
-0.0138406
-0.018982133
-0.020180702
-0.015916307
-0.0151518565
-0.019527836
-0.02433604
-0.028195875
-0.029492907
-0.027192937
-0.02519355
-0.024773762
-0.02256296
-0.017286563
-0.011868725
-0.0094587095
-0.007951079
-0.0029655173
0.0057268394
0.012700847
0.014722321
0.01740168
0.023421932
0.028785048
0.0315716
0.02983978
0.024574796
0.02160633
0.021383572
0.02027549
0.017810417
0.015372661
0.014080865
0.012164914
0.0076605147
0.0027020061
-0.0029525042
-0.008970153
-0.012520134
-0.017342953
-0.02335438
-0.027273083
-0.03292082
-0.03918222
-0.043456096
-0.04533898
-0.042275522
-0.035995875
-0.027809989
-0.020293916
-0.014517955
-0.0070532486
-0.0021269328
0.0011564346
0.0048883846
0.003654282
0.0022404813
0.003343391
0.005826297
0.011686374
0.015754601
0.018141631
0.021985414
0.025028763
0.02622474
0.024395624
0.020570422
0.01572971
0.01210713
0.011325617
0.009919235
0.008830558
0.007440324
0.0048600957
0.0025057942
-0.0030185063
-0.0075174137
-0.0082309665
-0.008954523
-0.0075129033
-0.005444457
-0.004845493
-0.0043563023
-0.0028655804
-8.326308E-4
-0.003575442
-0.008592547
-0.010108467
-0.008178189
-0.005262739
-0.0063581574
-0.007183826
-0.0046151658
-0.0034932683
-0.0033951588
-0.005838436
-0.008800481
-0.009118819
-0.008857499
-0.0055055562
-0.0016428997
4.760038E-4
0.0021192152
0.0015335407
4.1007224E-4
-0.005470531
-0.01134239
-0.0051263026
0.0016491956
0.0021550998
0.004261448
0.0063444176
0.007553413
0.009274177
0.009330015
0.0071577504
0.0045733126
0.00406287
0.0061114975
0.008567601
0.008518039
0.007519664
0.007960539
0.0073666614
0.004359505
-7.103745E-4
-0.005521746
-0.0078678755
-0.0088585
-0.008978032
-0.010178271
-0.011633499
-0.010844101
-0.010414219
-0.010610086
-0.012189348
-0.015310994
-0.015838584
-0.014463524
-0.013262655
-0.012130811
-0.0085113635
-0.0024753103
-9.1504084E-4
-0.0024692481
-0.0040049395
-0.0070595606
-0.0060291174
-0.0019514607
-7.354562E-4
2.9967024E-4
0.001568797
0.002688518
0.004804319
0.004643857
0.0016883612
0.001223798
0.004039811
0.0049039787
0.005327464
0.00831784
0.008641117
0.0073712515
0.00861634
0.008187044
0.0066973157
0.0057587577
0.0024827786
8.1388414E-4
0.0019193742
0.002153119
0.0029926072
0.0030384716
0.0022112813
0.0020465006
-0.0016392554
-0.005405263
-0.0048366725
-0.0037388485
-0.0023280797
-0.0013947183
-0.0013505253
-6.493765E-4
-0.0019719605
-0.0036810837
-0.0061092624
-0.012574637
-0.016006947
-0.015448155
-0.018179791
-0.021582412
-0.02287887
-0.023216117
-0.021476343
-0.019636985
-0.01839814
-0.015722247
-0.012858453
-0.009884852
-0.006447383
-0.0026100816
0.0031186226
0.008963753
0.013614178
0.017111272
0.01785257
0.01685789
0.01627523
0.019314673
0.0267018
0.0350784
0.044831272
0.053737506
0.0554597
0.046131678
0.027101928
0.0067000454
-0.011455673
-0.02381666
-0.025366426
-0.0250373
-0.026905132
-0.02574857
-0.023636634
-0.022474336
-0.022499658
-0.022655288
-0.021096863
-0.018488271
-0.016377479
-0.017077262
-0.016943704
-0.014841209
-0.014336829
-0.011529019
-0.007790688
-0.0061932616
-0.0025481384
0.003914826
0.011274054
0.017335065
0.025028722
0.034534447
0.038650483
0.038413115
0.03517679
0.031250805
0.03113279
0.030699944
0.028743448
0.022576949
0.012319899
0.007137594
0.0038237595
-0.0025748685
-0.010287424
-0.017495822
-0.02085348
-0.02283206
-0.023386952
-0.021284586
-0.019274674
-0.016564174
-0.017278701
-0.021452084
-0.025013417
-0.02950348
-0.0314097
-0.032480597
-0.03416105
-0.03145593
-0.023448745
-0.0014044498
0.029710097
0.04950354
0.056617614
0.054760598
0.048582397
0.043800663
0.0377056
0.03362259
0.031608205
0.02777922
0.024395918
0.019739179
0.014421418
0.009212069
0.002720995
-0.0027644972
-0.007329909
-0.010085224
-0.012552294
-0.014371005
-0.010685998
-0.008960727
-0.014557429
-0.02194672
-0.02582541
-0.023463245
-0.020828908
-0.019063015
-0.013198114
-0.007841271
-0.0053198286
-0.0018496355
0.0022194714
0.001988711
1.5907081E-4
0.0010420801
-0.0015412691
-0.0011672293
0.0036013224
0.0012257597
0.0045041684
0.010637652
0.0051657446
0.004822324
0.0077826227
0.0056462423
0.008852389
0.010936762
0.0108811185
0.015093299
0.018638838
0.022093033
0.022601029
0.017568145
0.013095469
0.010552125
0.010439598
0.0107311485
0.007820941
0.006403242
0.0085620405
0.009169826
0.005670988
-8.43635E-4
-0.0069337133
-0.0085029155
-0.008216308
-0.009575181
-0.0075517376
-0.0016127651
0.0019242928
0.0032250662
0.0038056995
7.502239E-4
-0.0040002693
-0.0047973907
-0.0037450418
-0.003690122
-0.0023468537
-7.266176E-4
0.0021791514
0.006672463
0.0064493297
0.0022724217
-0.0020300066
-0.0058147493
-0.006051663
-0.0035390437
-0.0013415628
5.934291E-4
0.0039613224
0.008191759
0.0074523687
0.0029542993
7.261503E-4
-0.0012988145
-0.002224341
-2.853387E-4
6.782574E-4
0.003302396
0.008274712
0.0094903
0.0068988977
0.0021877214
-0.00282635
-0.004939865
-0.005679945
-0.004345895
3.2487148E-4
0.003178942
0.0038563623
0.0058773407
0.006332277
0.003336729
-7.563999E-4
-0.004613385
-0.005015022
-0.0014643748
0.0010685413
0.0028352092
0.006057927
0.008809636
0.008423427
0.0036867263
-8.055909E-4
-0.0014372116
-7.13009E-4
2.601841E-4
9.446034E-4
0.0023264713
0.005270981
0.006478374
0.0047113323
0.0011454708
-0.0017023887
-0.003705494
-0.005315143
-0.0036680703
-0.0035249495
-0.0035992076
0.0036395085
0.0091970395
0.008509275
0.0024527735
-0.009414518
-0.011623363
-0.004373069
-0.0036346393
-0.0035098463
0.0018006616
0.0064514847
0.008640498
0.0082408115
0.0052788686
8.4439E-4
-0.0013682762
-6.4654794E-4
-7.713629E-4
-0.0012052781
2.2623381E-4
0.00525309
0.010745564
0.010193439
0.0065384153
0.0024067413
-0.0023093182
-0.0034367081
-0.0020186154
7.7917485E-4
0.0040804115
0.0047264122
0.0067115817
0.008041743
0.0038284163
-1.0607321E-4
-0.00318874
-0.005188642
-0.0024714991
-6.826344E-4
1.9661123E-4
0.004926921
0.009331571
0.008971446
0.0031188382
-0.0032738268
-0.0057438654
-0.0073386924
-0.0066778646
-0.0026868635
-3.358258E-4
0.0018748596
0.0055549536
0.00609908
0.00279612
-0.0016689192
-0.005444697
-0.0061904015
-0.0039076153
-9.43832E-4
0.0016837257
0.0038542557
0.00624561
0.0071550617
0.0027110314
-0.0042754337
-0.008366908
-0.010513003
-0.01234538
-0.011090735
-0.007745931
-0.0065517714
-0.003964416
-0.0011454154
-0.004707764
-0.0076774857
-0.0065471376
-0.005491543
-0.0027763639
5.9030124E-5
0.0033706203
0.008304455
0.013145422
0.017672481
0.015524158
0.010073939
0.009985795
0.011301391
0.014968343
0.019446934
0.021120029
0.026048882
0.028345358
0.017909657
6.816645E-4
-0.010652461
-0.014300554
-0.017672384
-0.01872947
-0.016476402
-0.01403215
-0.01056437
-0.012138763
-0.015827699
-0.014586544
-0.015050536
-0.01617142
-0.014487423
-0.012152549
-0.008733082
-0.006084236
-0.0020450659
0.0036240423
0.0064835856
0.0072078966
0.0053935954
0.003877841
0.005308659
0.006363137
0.007487156
0.007947925
0.0081222495
0.009415254
0.00793291
0.004313302
-8.2567683E-4
-0.005872999
-0.0057790983
-0.004882057
-0.004855223
-0.0028631089
-0.0011501061
0.0012832506
0.002889078
0.0010297513
-0.001608874
-0.0036948526
-0.0027750114
-5.844453E-4
-0.0011943702
-8.905617E-4
0.0012466403
0.0030830351
0.0030330673
-0.0017201423
-0.0072492715
-0.008937217
-0.007950105
-0.005681382
-0.0030315067
-0.0011239084
-1.9676737E-4
0.002557445
0.0047562565
0.0015696618
3.8173184E-4
0.0025841643
0.0021271452
0.0038857274
0.0050493553
0.0024049527
0.0042302124
0.0076666134
0.007977837
0.0047665085
-0.0019765764
-0.00470448
-0.0045362758
-0.005426636
-0.0044095987
-0.005098967
-0.0060622445
-0.004262454
-0.0048061144
-0.0071594235
-0.010140484
-0.013599298
-0.01403765
-0.012305761
-0.010781432
-0.009824578
-0.0074004796
-0.0013907347
0.003091471
0.0018177271
-3.7505856E-4
-4.539203E-5
0.0017228059
0.0047862427
0.008077001
0.01147606
0.014285001
0.014056057
0.013646605
0.012660012
0.008911971
0.00578379
0.00284845
0.0018393005
0.0018734876
-3.2821926E-4
0.0016457051
0.003488886
7.313448E-4
-0.002400383
-0.009302773
-0.0128334705
-0.01086188
-0.009940272
-0.006478401
-0.009390642
-0.012190874
-8.689574E-5
0.0053353366
-7.816095E-4
-0.0017509792
-0.0013686076
-0.0023441135
-8.8311505E-4
0.0027548056
0.0049187727
0.004917426
0.0074389633
0.008603101
0.0045104474
-2.1654843E-4
-0.0032025059
-0.0039432533
-0.0026449286
-5.25267E-4
0.0010046868
0.0027494065
0.00530921
0.00419911
1.4215671E-4
-0.003587055
-0.007825237
-0.008867088
-0.0070894137
-0.0075058946
-0.005978935
-0.00116413
0.001799777
0.0036873596
0.0039188266
8.762546E-4
-0.0019675295
-0.0035159898
-0.001991229
0.0016714614
0.0025419204
0.0034890843
0.005623993
0.00651257
0.005230045
8.0871664E-4
-0.0019487893
-0.0023927772
-0.0010401282
0.0023609144
0.0018160064
0.0028602972
0.0069062784
0.007219035
0.0057440903
-0.003993829
-0.013056685
-0.005769784
4.5078772E-4
-9.413499E-4
7.946565E-4
0.0023514733
0.0023883868
0.0037088178
0.0040261904
6.831907E-4
-0.0023007574
-0.0027367957
-0.0031638376
-8.28666E-4
0.0014653146
0.0026095738
0.0068418137
0.007688652
0.004677952
0.0013447385
-0.0037534207
-0.005755754
-0.0043068985
-0.0021066137
1.5292157E-4
6.8165816E-4
0.0021151642
0.0033429547
0.0017308712
-0.0010505616
-0.0044724867
-0.005892972
-0.0042651314
-0.0027354166
-0.0027867306
-0.001646802
0.0022937446
0.003593666
0.0011329477
-0.0020671969
-0.005598955
-0.005996576
-0.0033833438
-2.6228093E-4
0.0022155233
0.0027563078
0.0048055914
0.0054445015
0.0015045106
-8.8038464E-4
-0.0038669794
-0.0077552055
-0.0063098823
-0.004033299
-0.0047878157
-0.0043528453
-8.354088E-4
0.0011394699
-0.0015575411
-0.004565581
-0.0063860375
-0.0072371727
-0.0071336506
-0.008352493
-0.0062650144
-8.386158E-4
0.0020277302
0.005442502
0.00741181
0.004770273
0.0035902376
0.00442269
0.0062004686
0.009260136
0.010898582
0.012412526
0.014977513
0.016121302
0.01626078
0.016738193
0.013371797
0.0055119465
0.00153571
0.0013272482
-9.55139E-4
-0.0029346338
-0.0035713797
-0.004988186
-0.0071163857
-0.009858543
-0.013511987
-0.016941994
-0.018280005
-0.01921603
-0.019337112
-0.016706783
-0.014598999
-0.013207767
-0.0133160055
-0.016060466
-0.01565835
-0.012206903
-0.008660149
-0.0042843334
0.001169071
0.0090951035
0.015430464
0.018184047
0.020701908
0.019070169
0.014276876
0.012042263
0.011953325
0.013414389
0.013355868
0.01173826
0.012995541
0.015182337
0.014517683
0.009063099
0.0023808707
-4.289629E-4
-0.0024181542
-0.002499339
2.0403971E-4
-0.0010723372
-0.003029614
-9.085769E-4
7.628072E-5
-0.0024778023
-0.006580217
-0.00954
-0.009267065
-0.006644294
-0.004886809
-0.0043604756
-0.0012934325
0.0013907749
-3.2084037E-4
-0.0023358637
-0.0044289352
-0.006958427
-0.0067261755
-0.005419978
-0.0037044159
-0.0010956577
7.2402734E-4
0.002466826
0.0039111446
0.0023074618
-0.0019916059
-0.004108942
-0.0026206272
-0.001391713
-7.9739356E-4
-5.437921E-4
1.6947283E-4
0.0044416906
0.0068537206
0.002394505
-0.0027161934
-0.004510653
-0.004163028
-0.003043767
-0.002021669
0.0010851012
0.00512079
0.0068123937
0.0076862653
0.006324447
0.0022548488
0.001641297
0.003954255
0.004187018
0.0032666149
0.004534372