-0.027850993
-0.03620892
-0.042993844
-0.05592246
-0.07336041
-0.08149615
-0.079549074
-0.073211975
-0.06644644
-0.06179326
-0.054449365
-0.03890243
-0.015910415
0.0052161533
0.017139455
0.016766988
0.0010730207
-0.009570699
0.008971356
0.04640464
0.07963573
0.09728438
0.10444001
0.10846822
0.11231278
0.120409645
0.113980785
0.07845628
0.037604813
0.0040258733
-0.02459447
-0.0417926
-0.04914673
-0.052761275
-0.05852474
-0.067262836
-0.07212957
-0.072396725
-0.068395235
-0.06299983
-0.060978193
-0.05634825
-0.046541348
-0.035052836
-0.020482764
-0.0014754866
0.0207337
0.03940883
0.049993698
0.058583006
0.06572196
0.060742535
0.040726047
0.021316048
0.015430027
0.015363955
0.012496511
0.0067674057
-0.0010011253
-0.0132657355
-0.034359112
-0.054885507
-0.06814336
-0.07965855
-0.084863335
-0.0867593
-0.08388939
-0.06439438
-0.049720116
-0.04957997
-0.05026053
-0.056546163
-0.046115153
-0.005960489
0.024841245
0.038236286
0.048369475
0.052137777
0.05608428
0.05927592
0.056772124
0.056741852
0.057915024
0.055983603
0.053130034
0.05058991
0.04793566
0.042457182
0.03577109
0.028049717
0.016555246
0.004979505
-0.0054479768
-0.0070697446
0.0047556935
0.010841302
0.0075141517
0.0053014094
0.002265204
0.0028657457
0.0029519107
-0.004354884
-0.024965616
-0.08483874
-0.1448046
-0.123329334
-0.056407966
-0.025487306
-0.023768485
-0.022190966
-0.02019821
-0.02023072
-0.021405678
-0.02024952
-0.019258296
-0.021640444
-0.01986255
-0.011613891
-0.0032380181
0.0029140508
0.008198908
0.013789926
0.020066466
0.028027307
0.036189977
0.04118732
0.04482856
0.048455052
0.04920771
0.04627274
0.041228738
0.03544845
0.029619072
0.024593154
0.019694787
0.01411219
0.010168206
0.0098574655
0.012099975
0.012798645
0.011773094
0.013387352
0.0142413145
0.010232414
0.004141099
5.7875994E-4
0.0036535538
0.0072375014
0.005480585
0.003846254
0.0028315845
6.234745E-4
-6.500163E-4
-0.0022821783
-0.006214594
-0.00836362
-0.0033519124
0.0026841075
0.0029656044
0.0011781347
-4.3770482E-4
-9.1080955E-4
-5.4075656E-4
-0.0014252306
-0.0021386885
-0.0018006817
-1.1416756E-4
0.0011608794
0.0014719699
0.0013857753
-0.002509249
-0.004910466
-0.003659181
-0.0060066343
-0.00880487
-0.0101607265
-0.009897026
-0.0055413623
-0.0030470758
-0.004471261
-0.008136175
-0.012237032
-0.012821779
-0.012038798
-0.0110148555
-0.009182762
-0.007104379
-0.0031960942
8.412773E-4
0.0032265817
0.001833891
-0.0015339464
-2.916377E-4
4.235554E-5
-0.0031226894
-0.0018204526
0.002448298
0.005800059
0.006879322
0.003574347
-0.0021614083
-0.0061536827
-0.00760114
-0.011315703
-0.01521911
-0.014362869
-0.012424154
-0.009794586
-0.008011792
-0.008570514
-0.009776013
-0.012772482
-0.009754865
-0.004381908
-0.0056837057
-0.0031227572
-1.1140175E-4
-0.0018596029
-0.00766599
-0.018590229
-0.0124428095
8.25672E-4
-0.0034262892
6.7804265E-4
0.016269961
0.02546471
0.03562524
0.042830672
0.032441583
5.9037477E-5
-0.03302728
-0.046378847
-0.041671302
-0.018084979
-0.0022395141
-0.011951765
-0.015038078
-0.0075589833
-0.005096662
-0.00551278
-0.008552829
-0.009581678
-0.009711176
-0.009516622
-0.004430077
-2.3729168E-4
0.0029474306
0.007953379
0.013755458
0.016302356
0.010551079
0.005068793
0.004473044
0.0024658027
-0.0022454646
-0.0076756924
-0.009521875
-0.008196639
-0.008803259
-0.011117699
-0.011920517
-0.012638677
-0.015853962
-0.016544724
-0.015084195
-0.014441442
-0.0097132195
-0.0028410382
0.0037900775
0.008492941
0.007087956
0.0033645267
-1.5084234E-4
-0.0020119376
-6.1303E-4
0.007184373
0.021845797
0.028890569
0.027360236
0.026995884
0.027396359
0.026683824
0.016733333
0.0028659764
-0.0153988525
-0.049768843
-0.06360419
-0.037298832
-0.011788275
-0.0070486646
-0.011811883
-0.011634042
-0.0067707626
-0.0061722076
-0.0050253854
-0.003957597
-0.00348582
6.496626E-4
0.0030914058
0.0029705358
0.002198107
0.0020137904
0.0024869107
0.0035700393
0.007713302
0.0057226312
3.664755E-4
0.0067817117
0.014364246
0.012671728
0.0077412706
0.0026500134
-4.0175696E-4
-0.0027419077
-0.006036428
-0.0069727823
-0.005381904
-0.0026615045
4.962875E-4
0.0017082688
3.6798304E-4
-0.0013252432
-0.0021033017
-0.0022355001
-0.0025350743
-0.0013487102
0.003311804
0.008412355
0.012768588
0.014012513
0.008207738
0.002698311
5.5240636E-4
-0.0033214747
-0.00605819
-0.007593722
-0.009571963
-0.0071565243
-0.0017354949
-3.259079E-5
-0.0018697351
-0.003757403
-0.005315517
-0.004595043
-0.0016987158
2.444911E-4
0.0024513032
0.0041248505
0.0047701513
0.005490291
0.0029733668
-0.0011826445
-0.0038469597
-0.005490022
-0.0060740765
-0.0058009396
-0.0031329382
2.2564913E-4
0.002829208
0.005476856
0.00484228
0.0034530314
0.003108164
0.0018569907
0.0040006735
0.0059570996
0.004150325
0.004798422
0.0063563967
0.004888148
0.0012677812
-0.0034476572
-0.0058973976
-0.004479487
-0.0030472458
-0.0026163207
4.1009457E-4
0.0029415688
0.0030450076
0.0043347306
0.0014547075
-0.004628253
-0.0040747575
-0.0012779917
-5.526635E-4
0.0014228969
0.0015723823
-5.430923E-4
-7.8539393E-4
-0.00221194
-0.007813185
-0.011298065
-0.008011296
-0.0013296109
0.0044437195
0.007434889
0.009346664
0.009110817
0.0027272517
-0.004501108
-0.006987904
-0.007337404
-0.0076808035
-0.007323831
-0.003024907
7.9343235E-4
-0.0045466893
-0.010431707
-0.0055997684
0.0061616716
0.016468758
0.021087108
0.02400823
0.022447787
0.005638711
-0.013765388
-0.011988951
0.007656335
0.02223011
0.020590281
0.009492523
-0.0050619803
-0.018379297
-0.02405196
-0.02481647
-0.021497507
-0.0104806125
0.0012233326
0.008050093
0.013804061
0.015764453
0.007496927
-0.0025620242
-0.0047630076
-0.008188049
-0.0149767995
-0.013333601
-0.006850841
-0.0022996226
0.00508036
0.010386145
0.006813191
0.0026948473
5.185702E-4
-0.004320455
-0.00552393
-0.0014583722
0.002661271
0.005568253
0.0034458898
0.001433898
0.0052775308
0.005070466
-6.82501E-4
-0.004695903
-0.0048145554
-0.0013387961
0.0022295713
0.005969277
0.008556004
0.0084074605
0.010849749
0.0129663665
0.0116849635
0.008964924
0.0034371132
8.149384E-4
0.0015116307
-2.3108065E-5
0.001796186
0.0058324
-9.223098E-4
-0.021376157
-0.035170104
-0.025095796
-0.008385295
-5.1938096E-4
0.003869436
0.004677952
0.0034208829
0.0019805785
-0.0010372452
-3.2795372E-4
0.0017532539
7.4630487E-4
-0.0015721321
-0.0046738903
-0.0027228878
0.0023846866
0.002012179
7.1411894E-4
0.001854371
0.0027390358
0.0038673433
0.005633951
0.0062220017
0.0035700214
0.0028712645
0.0063519697
0.0057822457
0.0019175847
-8.096796E-4
-0.004583312
-0.0066905282
-0.006003149
-0.006122495
-0.005033509
-7.1954477E-4
0.0042703263
0.007957119
0.009509812
0.009954737
0.011287021
0.012157727
0.010731418
0.007260902
0.0028450491
0.0010992397
0.0023662867
0.0016392437
-0.0011424355
-0.0032671702
-0.005604937
-0.008344879
-0.011260569
-0.013727477
-0.012570244
-0.009671762
-0.010123432
-0.010522856
-0.008167916
-0.007608506
-0.0065735844
-0.0010284042
0.003197085
0.002868295
0.0022699228
0.0025980643
0.0026453703
0.0029282644
8.2238676E-4
-0.0074917893
-0.018100498
-0.020517515
-0.008900144
0.008828836
0.02295769
0.038714286
0.058874197
0.06893508
0.059908055
0.03408909
-0.0040275566
-0.031930238
-0.0378644
-0.051868454
-0.07117528
-0.050750297
-0.0033769526
0.022390692
0.022429021
0.018887494
0.021082899
0.02319401
0.022600023
0.009773799
-0.028753735
-0.05899122
-0.045370895
-0.018573016
-0.00937358
-0.0088873105
-0.0075285584
-0.0015153827
0.008479984
0.014082609
0.016044736
0.022603681
0.028465537
0.026526447
0.025868017
0.026418122
0.014343764
-0.0020547914
-0.0066324
-0.00854209
-0.013559804
-0.010852926
-0.003659696
-0.0013525082
-0.0019253953
-0.0031682318
-0.0056620757
-0.008581137
-0.009713287
-0.009450507
-0.009437134
-0.008917701
-0.008329064
-0.0067527634
-0.0058837696
-0.008315452
-0.0080604525
-0.0043202983
-0.0021017562
-0.0021933303
-0.0040422296
-0.003398136
0.006034053
0.025627444
0.042268045
0.046347067
0.04472707
0.037518878
0.033254173
0.027767329
-0.009675352
-0.05271865
-0.056282043
-0.033485882
-0.0067982706
0.01147687
0.017716765
0.0072766743
-0.023933431
-0.04007447
-0.025150033
-0.010198552
-0.0022553878
0.0031349482
0.0021217323
-8.033561E-4
-0.0042926595
-0.006981454
-0.006512032
-0.0058619366
-9.687023E-4
0.013400263
0.026234569
0.029169561
0.030760108
0.033805303
0.031658813
0.01346931
-0.020865656
-0.039010715
-0.025849259
-0.009463923
-0.003854989
-0.0012590851
-3.9648666E-4
-0.003999771
-0.008188131
-0.003107426
0.006800183
0.0078118974
0.005440356
0.010343805
0.019086402
0.024441343
0.014331238
-0.013920274
-0.034621466
-0.031521577
-0.018267127
-0.009468353
-0.005725166
0.0018498374
0.011766301
0.016818307
0.01957151
0.020152217
0.018886983
0.0064555234
-0.02104751
-0.031555958
-0.018579984
-0.0059005925
0.0044569285
0.005753782
-0.0016740211
-0.0037415188
-0.0044461587
4.095101E-4
0.015132342
0.027078317
0.03235477
0.023199068
0.0028377045
-4.7852378E-4
8.582002E-4
-0.02168324
-0.037350275
-0.024634983
-0.009951913
-0.003937028
-0.0032390547
-0.0019914657
0.006029177
0.010667391
0.012888033
0.017801084
0.016892107
0.010158091
0.003886161
0.005806167
0.008481535
-0.003954602
-0.020288229
-0.022075327
-0.0031277335
0.013439064
0.0019144879
-0.00681454
-9.340214E-4
-0.005769711
-0.00695712
-0.0020669089
-0.0053838035
-0.004239296
0.0015365311
0.005028992
0.005208154
-8.334428E-4
-0.0055703
-0.0054170373
-0.0036380386
6.953916E-5
0.005612708
0.009813716
0.00970637
0.010188297
0.010474273
0.006409311
0.003976804
0.0027444107
0.0014804336
0.0012819301
-6.908799E-4
-9.39355E-4
-0.001879545
-0.0067020273
-0.010157386
-0.011509112
-0.009357131
-0.005519891
-0.0025393518
0.0018618404
0.0040543824
0.0055389125
0.00942044
0.011449439
0.011559598
0.010114941
0.007301197
0.0048005977
0.0030482379
0.0015223218
-9.531043E-4
-0.0018791775
-0.0038177692
-0.008118819
-0.008735943
-0.010203465
-0.012069423
-0.0086856615
-0.006864392
-0.0065141907
-0.005379554
-0.0041217324
4.0309815E-4
0.0031540436
0.004013361
0.0057527507
0.0026662608
-0.0024669
-0.00645108
-0.008877934
-0.0058161733
-0.002061914
-0.0016765429
-0.0029546896
-0.0012289505
0.010381414
0.021905586
0.025745533
0.031784404
0.036712173
0.034653135
0.017795999
-0.022912448
-0.048885237
-0.03289902
-0.0149188815
-0.013444427
-0.011071098
-0.004872698
0.0019661444
0.00787281
0.016739734
0.024175197
0.02120846
0.017766597
0.013010008
-0.0016807119
-0.020597257
-0.03748139
-0.03873034
-0.023032088
-0.00914866
-5.392004E-4
0.0054864325
0.0075959214
0.0075487695
0.0058684787
0.004119796
0.0025123255
0.0018008074
0.002361564
0.0019457291
0.001975008
8.1430067E-4
-0.001985658
-0.0024702097
-0.0011177518
0.0014220446
0.0027300925
0.0040994855
0.009919075
0.01356778
0.0120815085
0.009780345
0.006437576
0.0020983762
-0.0020552403
-0.0031476498
-0.0016875189
-0.0026347444
-0.0051727328
-0.0076888236
-0.01061072
-0.012501233
-0.011811616
-0.010564001
-0.01047253
-0.006158962
-4.2421196E-4
6.4824027E-4
0.0032049334
0.0051628156
0.0040089306
0.006092332
0.0071751443
0.005088668
0.003523879
0.0026233024
0.0029213275
0.0017491473
6.199198E-4
0.0023599677
0.0026340266
9.2473277E-4
-6.106557E-4
-0.0017625908
-0.0031515388
-0.0033861818
-0.0010951364
-4.7694164E-4
-7.0789264E-4
4.1057557E-4
2.2041496E-4
-1.7088625E-4
-9.7531965E-4
-0.0017361983
-0.0019218778
-0.002935071
-0.0012710823
7.7401445E-4
9.5168676E-4
0.0018307054
-5.2727624E-5
-0.002681837
-0.0032262204
-0.004407609
-0.004649809
-0.0030633188
-0.0016706218
-0.0015900808
-3.1276193E-4
0.002029161
0.0016242916
0.001143894
5.516856E-4
-4.4910173E-4
0.0014616699
0.0017276269
0.0010101809
0.0038701883
0.007566695
0.009693239
0.008189407
0.006323662
0.0059243543
0.0018180773
-0.0015487708
-0.0020705091
-0.00545813
-0.008419728
-0.009174593
-0.009619992
-0.009064792
-0.009154067
-0.005866796
6.5597234E-4
0.001221741
6.624672E-4
0.0031856392
0.0030037088
0.0024121962
0.0022099195
0.0016377214
0.0015106923
7.49752E-4
0.0010011322
-7.249696E-4
-0.0028807707
-0.003195026
-0.0053842734
-0.0046593514
-0.0057777143
-0.009641734
-0.0070993323
-0.0050813933
-0.002693502
-0.0033988955
-0.0092076
-0.0064815925
-0.009165735
-0.007160934
0.020280898
0.034962464
0.028920602
0.02556145
0.018966546
0.014814369
0.017482301
0.019740518
0.02557905
0.031921178
0.03326153
0.033839166
0.036671527
0.0402381
0.041394144
0.03777867
0.032935914
0.029781688
0.022744603
0.012935125
0.0054540597
-0.0017444555
-0.005614457
-0.003373973
0.0019557604
0.010131022
0.021260746
0.03057753
0.032231133
0.028597865
0.024685293
0.022779569
0.01679763
-0.0021051324
-0.021827111
-0.038303796
-0.061009225
-0.08342944
-0.10725463
-0.1243488
-0.11797786
-0.101106845
-0.0758732
-0.044744957
-0.0297077
-0.02658154
-0.024672423
-0.022525162
-0.015282402
-0.0044677644
0.0050845766
0.01033317
0.021904549
0.044802528
0.06098857
0.06780644
0.07336557
0.092321396
0.14551356
0.19633657
0.19901958
0.17879438
0.1482678
0.09026581
0.032171264
0.0013251277
-0.010665855
-0.024216587
-0.05934098
-0.09314477
-0.0951954
-0.08672877
-0.07966255
-0.06873483
-0.068631664
-0.08021461
-0.09319765
-0.106196724
-0.11736306
-0.11671729
-0.09357559
-0.07268868
-0.08082684
-0.090043105
-0.07502304
-0.05390074
-0.042707
-0.03140913
-0.012350495
0.004648519
0.01930165
0.035505336
0.04997955
0.06292323
0.065020636
0.05353621
0.03360279
0.014769156
0.03958436
0.10011593
0.12400103
0.11039712
0.09532871
0.07777391
0.06350467
0.053232364
0.03884976
0.026988395
0.018922256
0.012811409
0.0076754107
-0.0010668442
-0.012970208
-0.028537095
-0.050237615
-0.07371098
-0.087353095
-0.09052225
-0.10515085
-0.13834316
-0.1617515
-0.14826114
-0.10261099
-0.05891163
-0.038457185
-0.0261926
-0.012585589
-7.5807E-4
0.013227255
0.02298216
0.025792586
0.02878476
0.02636906
0.027279127
0.04530545
0.06254213
0.06711146
0.065118685
0.059679367
0.059681416
0.059873816
0.04478825
0.028336558
0.024766311
0.022300685
0.0147469
0.0070041106
0.0011006334
-0.0051181745
-0.013919612
-0.020858312
-0.02330233
-0.026091704
-0.030568205
-0.032120477
-0.02915197
-0.026492996
-0.024757728
-0.022484154
-0.023086455
-0.024603438
-0.026078327
-0.0277484
-0.02480421
-0.020953178
-0.01681817
-0.009020283
-0.0028667315
0.0037452823
0.012085341
0.01831994
0.02547126
0.031032572
0.03349306
0.03627475
0.038072728
0.04020345
0.04279003
0.04307714
0.040995907
0.03785705
0.033540476
0.02488468
0.015776996
0.010595405
0.007528744
0.008175339
0.00783309
0.004711006
0.0036533135
0.001965445
0.001095517
-0.008185665
-0.026456363
-0.022636546
-0.0068803364
-0.006686396
-0.0053464933
-1.2279712E-4
0.002419353
0.007287681
0.0055822236
0.0027498347
0.0039274567
-1.3155748E-4
-0.0012239978
0.0022772285
0.0037326775
0.0046619205
0.0030008508
0.0032950523
0.0060264
0.004388165
0.0017719064
-0.001114266
-0.0031308627
-0.0016252566
-9.1098517E-4
-3.9954955E-4
3.8325405E-4
5.325902E-4
0.001341793
4.924854E-5
-0.0026353213
-0.0043816213
-0.0042523313
-0.003127723
-0.005898287
-0.008212996
-0.0065217265
-0.006945291
-0.0085527245
-0.009751768
-0.01219511
-0.014017189
-0.014374667
-0.013350867
-0.012142808
-0.010787525
-0.0078101647
-0.0044645844
-0.0022481452
-0.0021874078
-0.0024424873
-0.002494095
-0.0059986664
-0.009849036
-0.010491968
-0.010147544
-0.009490001
-0.008396533
-0.006572274
-0.0067840405
-0.008400914
-0.006220838
-0.0049553183
-0.00582505
-0.004622264
-0.0047022896
-0.0045156223
-0.0028239524
-0.0025760941
-0.0016515213
-0.0021602204
-0.005353224
-0.0057900255
-0.0031507714
-0.0010507676
-1.3847079E-4
0.0012970942
0.0013040651
-0.0021426743
-0.0035088065
-0.0025732475
-0.004852927
-0.0062804413
-0.004406381
-0.0049414174
-0.006616757
-0.0055840593
-0.0043306556
-0.003495841
-0.0026886966
-0.004005901
-0.005662347
-0.004588154
-0.0037778227
-0.005716315
-0.005631543
-0.003002273
-0.002066348
-5.5245444E-4
6.7488785E-4
-1.782352E-4
-1.9394525E-4
-0.0012491463
-0.0020019491
-0.0016131643
-0.0018486207
7.1283415E-5
0.0014474136
0.0035537966
0.0048857005
0.0012301648
0.0012497951
-0.006979627
-0.02162293
-0.010971424
0.0044506346
0.0019765075
0.0023190982
0.0031616758
1.8561997E-4
4.256005E-4
-0.0014290112
-0.003657923
-0.004793786
-0.0059241354
-0.0053465604
-0.0057222303
-0.0057617696
-0.0043668915
-0.0019502896
6.1751605E-4
8.844E-5
-2.0833097E-4
0.001077347
0.0015597938
0.0028844296
0.00398541
0.0044658864
0.0059578023
0.0064732735
0.0052146474
0.0049571875
0.0063855215
0.0066093155
0.0046700607
0.0026231164
0.0031926353
0.0048831766
0.0030640522
1.8567832E-4
-0.001746264
-0.0046461043
-0.0054283137
-0.004953547
-0.006788535
-0.008265387
-0.0076771486
-0.006770188
-0.00664635
-0.0055992855
-0.003745954
-0.003743891
-0.0037421023
-0.0028236047
-0.0030476244
-0.0028012525
-0.0011465801
-1.6771843E-4
8.919738E-4
0.0041304077
0.006733018
0.006220915
0.0049031535
0.005098439
0.0075117596
0.009008401
0.008910786
0.010884104
0.012179163
0.011928091
0.012748124
0.011930623
0.0100109475
0.008147787
0.005330948
0.003145287
0.0010248737
-5.6240323E-4
-9.58384E-4
-0.0012895527
-0.0012630053
-0.002963091
-0.004908609
-0.004410623
-0.0046245833
-0.005376911
-0.005838966
-0.006852437
-0.0074102827
-0.0077584446
-0.006849224
-0.005515513
-0.0061078146
-0.0060003214
-0.0040925075
-0.0022207003
-0.0013449534
-0.0016906845
-4.273421E-4
0.0036259496
0.0055716587
0.0042402926
0.0046163783
0.0056829397
0.004839972
0.0045944517
0.0049257097
0.0071890783
0.010796393
0.0090503255
0.0048139016
0.004328982
0.0049639624
0.0036337173
0.0025330703
0.0045428798
0.004918502
0.003034516
0.0048574856
0.0051498907
0.0018912244
-4.9062876E-4
-0.0035175637
-0.0037166541
-0.0020098959
-0.003946413
-0.004696069
-0.0036650836
-0.003839065
-0.00333401
-0.003312029
-0.004102342
-0.0042371755
-0.0035303682
-0.002339738
-0.0022508786
-0.0014445777
0.0019462678
0.004472318
0.004876645
0.0048232498
0.0033375889
0.001277144
0.0015600316
0.001881172
0.0015113298
0.003885728
0.005704519
0.0044640987
0.0043026386
0.005035606
0.0045033814
0.0036552015
0.0022940815
6.284118E-4
-1.8788487E-4
-0.0016759895
-0.00221913
1.7332546E-4
0.0013205935
5.6996435E-4
-8.444048E-4
-0.0025541417
-0.0011981296
-6.917965E-5
-0.0012400897
1.5747886E-4
0.002078036
0.0029348582
0.004258114
0.003630667
0.0023421883
0.0020191313
8.316542E-4
8.205105E-4
0.0018603231
0.0010021513
0.0021639254
0.004052675
2.817659E-4
-0.0026861534
-7.098905E-4
4.0788468E-4
3.48207E-4
7.779906E-6
-2.796228E-4
0.0014020208
0.0034719913
0.0036166282
0.0023369663
0.0017522974
0.0019462915
0.002735181
0.003789224
0.0029434324
0.0020411992
0.0025379446
0.0035805919
0.0051397625
0.0050732545
0.0021658929
-0.0013654837
-1.2726101E-4
0.0014798143
-5.3750613E-4
0.002751185
7.499911E-4
-0.0046653645
0.0020612422
-0.005604043
-0.018772244
-0.005528828
0.0038202002
0.0010439914
0.0034477815
0.0026642936
0.0028527896
0.0051759114
0.005459262
0.0059641367
0.002719937
8.38384E-4
0.0017110002
0.0015585105
0.0030225017
0.0035349613
0.0040946812
0.0052143466
0.0045601316
0.00471522
0.003522655
5.046591E-4
-0.0013476384
-0.002496602
-0.0026428902
-0.001959541
-0.0012212778
-2.7012153E-4
9.552138E-4
7.1562786E-4
-0.0014890841
-0.002841554
-0.0031416586
-0.0013828469
0.0012555268
-1.6132592E-5
-3.3714125E-4
0.0030428672
0.004826261
0.0045320587
0.0017460273
-0.0018251003
-0.0034799373
-0.0052733785
-0.0044184406
-0.0018512623
-0.0028995294
-0.0034167478
-0.0030243755
-0.0028426559
9.099564E-4
0.0026806477
0.0015386315
0.0036502487
0.0063252193
0.008146459
0.008562936
0.0076467767
0.0086714225
0.007282191
0.0031951414
0.0010169107
-0.0010579403
-0.0026839052
-0.0028011824
-7.171378E-4
0.0020104828
0.0019111907
0.0026699267
0.004577764
0.0032372393
-9.359886E-4
-0.0050835228
-0.006580397
-0.008978679
-0.01180114
-0.0074655293
-8.004875E-4
0.0012151394
0.0013261084
0.00134914
8.199154E-4
-8.729743E-4
-0.002504955
-0.001932019
6.797984E-4
0.004274203
0.006253493
0.0057875123
0.0054377103
0.0054178373
0.0047898856
0.0029205172
-8.038835E-4
-0.0035190112
-0.0044213836
-0.006268208
-0.0066367113
-0.005235184
-0.0052653495
-0.0024048176
0.0029799622
0.0048904344
0.0052416096
0.0046484834
0.0034662187
0.0030525243
0.0013594468
0.0027049081
0.0049619246
0.0014526855
-3.0207174E-4
0.0015794297
6.981078E-4
-0.001454487
-7.3905766E-4
0.0027708337
0.0040225065
0.0030372278
0.0021568334
-3.8546135E-5
-1.9934554E-4
5.6397833E-4
-0.0012322839
-0.0024816866
-0.003604032
-0.004759831
-0.0047814054
-0.004320114
-0.0042513236
-0.0057353335
-0.005043411
-0.0024646628
-8.909004E-4
0.00162408
0.003698423
0.0069590276
0.010794087
0.011260304
0.010850459
0.007667901
0.0034187594
9.839667E-4
-0.004418656
-0.009746511
-0.012827259
-0.014710206
-0.014944728
-0.012251844
-0.0046909936
-1.616605E-4
0.004982419
0.007852807
-0.0044612773
-1.4792068E-4
0.023404997
0.026619516
0.024374882
0.027983472
0.022175446
0.014369523
0.0067739934
-5.072923E-4
-0.0055211126
-0.012734766
-0.019219141
-0.022462646
-0.022411345
-0.021201527
-0.018058304
-0.01020667
-0.0031662423
0.0028614341
0.008132492
0.010821579
0.013902116
0.01381887
0.009887869
0.0056518265
0.0013066453
-0.0021512045
-0.0053590685
-0.0059438436
-0.00462071
-0.004243476
6.11135E-4
0.0063719763
0.0072277635
0.009896604
0.016543455
0.02450182
0.030013766
0.018148055
-0.028996233
-0.09574676
-0.12002907
-0.07935413
-0.03367599
-0.012383702
0.0067608673
0.02621676
0.04936961
0.06910907
0.07197233
0.0760656
0.084485896
0.08980791
0.07611062
0.029419484
6.67882E-4
0.013592795
0.02086361
-0.006347503
-0.04532867
-0.05190338
-0.051655125
-0.07067193
-0.08941459
-0.14044066
-0.17673202
-0.12066327
-0.043535046
0.0052239127
0.041726388
0.06017369
0.056179214
0.03340216
0.013054938
-0.009209487
-0.034336753
-0.034826875
-2.4647228E-4
0.070954405
0.11261033
0.1125702
0.15140149
0.1880427
0.19277176
0.15573002
0.028482014
-0.053729877
-0.040417794
-0.08211696
-0.16511893
-0.20365624
-0.17545192
-0.084907725
-0.015176523
-0.008171236
-0.018277785
-0.021709653
-0.022664016
-0.026394198
-0.031675324
-0.030618923
-0.016012032
0.0026921243
0.013390835
0.023462722
0.032706667
0.040772628
0.048687972
0.046836767
0.044897392
0.04677806
0.041052938
0.032090638
0.021875866
0.012301295
0.0072385925
5.9034844E-4
-0.0065471437
-0.011375839
-0.014312131
-0.013694085
-0.014049211
-0.01641943
-0.015314639
-0.009967995
-0.0032975397
0.0018091897
0.0050683618
0.0065871286
0.004983118
0.001492002
-0.0018815385
-0.0040788706
-0.0037533196
-0.0023145734
-0.00346543
-0.0071711186
-0.010742507
-0.014101167
-0.016572518
-0.017139133
-0.017530048
-0.015498507
-0.009612472
-0.0034814533
0.0045797685
0.012518597
0.012983044
0.010694743
0.0096602235
0.0063305246
0.0045520896
0.0053393417
0.0037936962
0.0011200005
-3.5295353E-4
0.0011786154
0.005332493
0.006531058
0.0042151054
0.0023254345
0.0015166164
0.001186065
-1.0876947E-4
-0.0019135516
-9.954099E-4
0.0011087983
0.0011253001
0.0011159305
0.0026605106
0.0032404624
0.0023901055
0.0021870313
0.0015488993
-9.6054276E-4
-0.0026986867
-0.0018412006
-0.0011279128
-0.0020930057
-0.0018801778
-8.6936814E-4
-0.0015540367
-0.0026135235
-0.0036734072
-0.003104775
-1.309372E-4
9.4351167E-4
6.275868E-4
7.671317E-5
-0.0014010286
-0.0020179274
-0.0027097592
-0.0016647821
5.676701E-4
8.341416E-5
-2.5161728E-4
-0.0018052412
-0.0035015438
-0.001358181
-8.3290157E-4
-3.7913996E-4
0.0018270198
0.0015686384
0.0016837732
0.0023964467
0.0034964695
0.004738816
0.0029037884
0.0016592785
0.0013624876
-3.1513322E-5
3.3635728E-4
0.0012486717
0.0015487709
0.002457496
0.002877911
-9.2718715E-4
-0.00770548
-0.008375139
-0.0044108187
-0.0041910945
-0.005467798
-0.00413843
-0.0018059922
-0.0021360952
-0.0042573507
-0.0040465593
-0.0026729866
-0.001964709
-0.0012114116
-4.604037E-4
-0.0013471029
-0.0038300925
-0.0026414224
0.0012492295
0.0034484868
0.008221378
0.01384439
0.0147467535
0.013017754
0.010137921
0.011356649
0.016002502
0.007153252
-0.013436822
-0.020396018
-0.008997408
1.6036896E-4
-0.0011996676
-0.0019785939
8.333422E-4
0.0011962391
-0.0015086095
-0.0052970075
-0.004623225
6.2868843E-4
8.066162E-5
-0.002699999
0.0017828204
0.0012118266
-0.010355774
-0.013234444
-0.008195611
-0.012857958
-0.01217685
0.0030163613
0.010292092
0.00789586
0.005984925
0.001956451
-7.8867056E-4
-1.8021249E-4
3.859887E-4
7.940438E-4
0.0012266613
0.0021704494
0.0023756893
0.0020039463
0.0024208527
0.0018528795
0.0012601415
0.001732281
0.0019715843
0.0021434755
0.0033640014
0.0054138405
0.005356014
0.0034115706
0.0018379536
7.258548E-4
0.0011528177
0.0011497381
-4.970122E-4
-9.813579E-4
-9.1768795E-4
-9.013671E-4
-0.0015748931
-0.004237973
-0.0058925147
-0.005466446
-0.0043337024
-0.0027480177
-0.002167652
-0.0025414194
-0.0021616311
-7.8562176E-4
-1.420544E-4
-0.002159863
-0.004618131
-0.004359596
-0.002365223
-7.9691043E-4
-2.976433E-4
5.880777E-5
7.5480435E-4
0.0016302458
0.0037631514
0.0048040114
0.002725809
0.0025995478
0.0037662897
0.0012766822
-4.2211777E-4
0.0010513336
0.0023951503
0.0031524054
0.0016661856
-0.0015087075
-0.003100572
-0.0030555115
-0.0021761304
-0.002178662
-0.0025880039
-3.4925377E-4
0.0010144516
5.9110476E-5
8.6618535E-4
0.001053599
-0.0011170207
-0.0027031365
-0.001670738
0.0012750258
0.0022109575
0.0028434945
0.0052878354
0.0061693653
0.0054944297
0.0036360759
0.0019865832
0.0013142517
7.454981E-4
0.00111499
-0.001177871
-0.0035676574
-0.0025978023
-0.0015394529
6.5971806E-4
-8.470679E-4
-0.0035999375
-0.0015586277
-0.0014415344
-4.3162587E-4
-0.0020687364
-0.0058004945
-7.831502E-5
0.0011241693
-0.0025344177
-0.0010942162
-0.0023938573
-0.0022761466
-6.218944E-4
6.458748E-4
0.0026045525
0.0021236143
0.005532881
0.0065381243
0.0027107948
0.0017413396
0.0014443547
0.004294031
0.0032123642
0.0014029583
0.0027745361
-0.0059593823
-0.007274799
-0.0032541177
-0.0071749007
0.0013780157
0.007074805
0.0023018047
0.0039555836
9.97285E-4
-0.0014999851
4.734924E-6