-0.0027883383
0.006402015
0.0024120861
-0.0016051531
-0.002807113
-0.0030141622
-0.002222726
-5.263773E-4
0.0023230903
0.002619757
0.0026448797
0.005214068
0.0048502707
-1.9009001E-4
-0.003954412
-0.0030767207
-8.6340896E-4
6.449117E-4
0.0017263503
0.0022320843
0.00376376
0.0050823186
0.0031060951
-4.6190812E-4
-0.0035286099
-0.0057015317
-0.0049543916
-0.0016413918
6.3159846E-4
8.9671323E-4
0.0013154877
0.002944766
0.0027987445
2.6417224E-4
-8.170772E-4
-0.001191795
-0.0022479394
-0.0024338928
-7.4332557E-4
0.0021780361
0.0028500645
0.0033510113
0.002979875
-0.0032824292
-0.006268848
-0.0031408258
-0.0014289634
-7.701101E-5
-2.73089E-5
2.8230736E-4
0.0022779838
0.0017492953
0.0015640631
0.0016608451
-4.1293798E-4
-0.0036735202
-0.005378587
-0.0014940092
0.0014653099
0.0017524973
0.004387466
0.004583475
0.0029526614
7.9703185E-4
-0.002686475
-0.0028702824
-0.0012948556
-2.1219216E-4
-3.9077268E-4
-5.4213626E-4
0.0025204082
0.0032766587
0.0012668564
6.8693614E-4
-4.707142E-4
-0.0016749444
-0.0031309903
-0.004003036
-0.0017426469
5.022649E-4
0.0018413838
0.00306238
0.0020062614
-8.894093E-4
-0.002953455
-0.0028354942
-0.0020544028
-0.0016541557
-2.0009E-4
0.0017477062
0.0030836698
0.0042920047
0.0036746198
6.2380976E-4
-0.001945325
-0.0028801654
-0.00180377
-1.1561236E-4
-1.8342446E-4
0.0014720508
0.004141693
0.0030505953
0.001896191
9.935825E-4
-0.0028030295
-0.0045350627
-0.003863885
-0.0036184392
-3.6823735E-4
0.0026901648
0.0024827104
0.0040627583
0.004075537
-1.4993965E-4
-0.0032154394
-0.0041738166
-0.0030701866
-0.0027811616
-0.0031703494
2.0610973E-4
0.0018387411
0.0026698422
0.0045533665
0.0011161256
-0.0011896685
-0.0015791901
-0.0035530932
-0.001160658
5.355752E-4
9.861587E-4
0.0038933312
0.0031206494
0.0014044155
5.573068E-4
-0.002304638
-0.0030033328
-0.0010751067
-1.6066669E-4
-1.7914987E-4
0.0012894501
0.001926893
0.001312232
0.0036859743
0.003028924
-0.0018244096
-0.0034294142
-0.0049723387
-0.0055116112
-0.0014195105
0.001835867
0.0036374284
0.004843463
0.0035584343
0.0012547526
-0.0017715486
-0.004071637
-0.0030299446
-9.721289E-4
6.1239087E-4
0.0013909505
8.235568E-4
0.00185032
0.0021925902
-0.0010936791
-0.003584789
-0.004169069
-0.0024469788
2.8916303E-4
8.116283E-4
0.0026943993
0.0040652473
0.003016968
0.0026184574
-1.781924E-4
-0.002147672
-0.0016198053
-0.0026994434
-0.0021504653
-0.0010301052
1.5336018E-4
0.0019098682
0.0010316168
0.0013167202
6.967031E-4
-0.0024724153
-0.0024557018
-0.0026078573
-0.0025026337
5.766644E-4
0.0025829563
0.0038863563
0.0040564076
0.003027176
0.0021774687
-0.0010218878
-0.0035050665
-0.0019300169
-8.0819346E-4
-0.0010448586
-9.300149E-5
8.262868E-4
0.0026931532
0.004348894
8.747137E-4
-0.0023099687
-0.0022889867
-0.0036426652
-0.0024342032
3.715687E-4
5.326732E-5
1.3014956E-4
0.001092515
0.0015105656
6.973194E-4
-0.0014928849
-0.0030801017
-0.0029231405
-6.6676195E-4
-2.8854253E-4
-6.364609E-4
0.0025605045
0.0035824853
0.002720444
0.0017745673
-0.0018806836
-0.0029195144
-0.0018006038
-8.7976136E-4
0.0012379031
9.1342273E-4
0.0011779148
0.0040353243
0.004074866
0.0014772186
-0.0011684793
-0.0020687943
-0.0021363343
-0.0023830945
-8.1308576E-4
2.8977563E-4
0.0010600084
0.0037056338
0.003389927
8.549238E-5
-0.0010814936
-0.0026219944
-0.006051292
-0.0059135994
-0.0019812158
0.0015168425
0.0037126688
0.0040594717
0.0029882665
0.0011472832
-0.0020338967
-0.0032012365
-0.0015086846
-0.0015320424
-0.0025100491
-8.50055E-4
0.0015910575
0.0025045096
0.003106447
0.0022770143
-0.0011194997
-0.00268501
-0.0020116265
-0.0024682581
-0.0014128162
0.0016573815
0.0028383823
0.0032404615
0.0037946024
0.0021855722
-3.6460845E-4
-0.001776205
-0.002040773
-0.0012110709
-7.1807246E-4
-5.6805316E-4
7.636136E-4
0.0024064097
0.0035452459
0.0027921428
-4.4073694E-4
-0.0037147254
-0.005406426
-0.0038261784
-6.654992E-4
5.651253E-4
0.0022788253
0.003921335
0.0030319698
0.0018422505
-4.3492857E-4
-0.0029174513
-0.0024391771
-0.0019520596
-0.0028192054
-0.0020073147
2.297907E-4
0.0014422014
0.0023188237
0.0029977264
8.8941294E-4
-0.0017781176
-0.0020589463
-0.0021296444
-0.0017705373
2.4659978E-4
0.001724501
0.002132824
0.002584456
0.0019909574
-1.9193505E-4
-0.0022286798
-0.0025722182
-0.0010052267
-1.7846098E-4
-7.6481095E-4
8.297785E-4
0.0030383563
0.0029144187
8.276762E-4
-0.0026287183
-0.0031499367
-0.0014208724
-0.0020085634
-9.430859E-4
0.0019598112
0.0029467675
0.0042298636
0.005059005
0.0028776815
-0.0012151793
-0.0038965407
-0.003046218
-0.0013137325
1.4019178E-4
0.0019644261
0.002501144
0.003102613
0.0038939803
0.0015127
-0.0027616546
-0.006455089
-0.0069918744
-0.0033958133
-9.471769E-4
2.9617603E-4
0.0015255073
4.4005716E-4
0.002174753
0.0043572513
3.495438E-4
-0.002643938
-0.0019721177
-0.002344014
-0.003278816
-0.002110202
9.4447983E-4
0.0025250583
0.0034109335
0.002250506
-0.0018784716
-0.0026571616
-0.0022677945
-0.0020288222
9.3987753E-4
0.0024021987
0.0030119705
0.0043131285
0.0054128505
0.003766626
-0.0025114536
-0.0041829245
-0.0015544979
-0.0017447007
-8.0251973E-4
0.0018751586
0.0037374021
0.0035424414
0.0037065076
0.0032162897
-0.0019775485
-0.003377523
-0.0025904877
-0.00358484
-0.0012245317
-4.2977498E-4
0.0034248354
0.003367725
-0.008121227
-0.0054136408
0.002639565
-0.0018893885
-0.0020448125
-0.0016410804
-0.003352744
-5.351936E-4
-1.0749351E-4
0.0020916972
0.0051466273
0.002166993
-0.0011485398
-0.001821279
-0.0013062641
-0.0014119978
-4.7454043E-4
0.0024551952
0.0026018892
0.0022555182
0.0039958446
0.003923905
0.0015020617
-0.0014391494
-0.0029126098
-0.002602337
-0.0017263563
1.3528584E-4
0.0013908577
0.0011068797
0.002388126
0.0034246338
4.13962E-4
-0.002967706
-0.003808862
-0.0028102004
-5.789535E-4
1.0782367E-5
-9.7905955E-5
0.0019965773
0.0034907982
0.0024639403
-9.850589E-5
-0.0028974444
-0.0032395653
-0.0014441203
-0.0012625235
-0.0016290626
-6.172253E-5
9.411474E-4
0.0022027637
0.0031318075
-0.0011722443
-0.0047225803
-0.0032655643
-0.0030771648
-0.0025449092
8.454308E-4
0.002428482
0.0029795298
0.004986116
0.004862906
0.0012703148
-0.0016144217
-0.0014538276
2.5810808E-4
7.3286594E-4
-2.9788015E-4
-7.71158E-4
8.464356E-4
0.0047286274
0.0053661014
3.686952E-4
-0.0036959904
-0.0046690027
-0.003526453
-0.0016973787
-0.0010018485
0.0011088932
0.0029625301
0.0029264893
0.0027868627
1.3355979E-4
-0.003493506
-0.004910028
-0.0039066365
-0.0011649546
-3.088846E-4
-4.3740758E-4
8.7543624E-4
0.0031783325
0.0043362626
3.440268E-6
-0.0043718726
-0.0034208298
-0.0024649566
-0.0012133548
0.0011867832
0.0019247929
0.003146663
0.005037701
0.004435744
0.0011467922
-0.0018431159
-0.0028729758
-0.002567685
-0.0014409528
-4.5024624E-4
7.967237E-4
0.0018306008
0.0017256545
0.00210236
9.742381E-4
-0.0021693825
-0.0030325572
-0.0017453217
-2.2420712E-5
0.0013376841
0.0016435382
0.0018794766
0.0021127942
0.0021670393
4.2179858E-4
-0.0033835906
-0.00417867
-0.0021590646
-0.0016765989
-9.426948E-4
0.0011157492
0.002041171
0.0026327227
0.0035136773
0.0016265411
-0.0024016968
-0.0038702018
-0.0031121431
-0.0028977937
-0.0021955348
-1.5473108E-4
0.0024329375
0.0045385375
0.0045637903
0.0019137509
-0.0017130312
-0.002827846
-0.0011860735
-3.5993097E-4
-5.644716E-4
-2.540447E-4
6.4442086E-4
0.0026639993
0.00437817
0.0025933164
-0.0019809227
-0.0041211187
-0.002728177
-0.0015085614
-2.7956857E-4
6.188927E-4
2.0485037E-4
0.001253695
0.0024742584
0.0019973533
-1.6644911E-4
-0.004035085
-0.0046675364
-0.0023743904
-0.0014821847
3.0790686E-4
0.0031971985
0.0051316004
0.004266325
-1.7555659E-4
-0.003229816
-0.0033000717
-0.002776557
-9.955943E-4
0.0015005658
0.0025207112
0.0028349494
0.004479648
0.0048059034
0.0017094373
-0.0011716606
-0.002133294
-0.0019646962
-0.0010872966
-3.9788807E-4
-5.67284E-4
-0.0011330623
7.0824684E-4
0.0031293614
7.147617E-4
-0.0038491932
-0.0059182425
-0.0053285323
-0.0025761444
1.09827255E-4
0.0010053724
0.0021560017
0.0041416716
0.0036501046
0.0011379635
-6.9938187E-4
-0.0027188584
-0.002978448
-8.438373E-4
-2.743529E-4
7.945891E-6
0.002197348
0.00435651
0.004152449
0.001220014
-0.0019562813
-0.0032897433
-0.0017230987
2.28053E-4
-1.3191528E-5
0.0011725231
0.002820918
0.0024057436
0.0026130956
0.0016369921
-0.0017378742
-0.004159645
-0.003557972
-0.0015092591
-0.0010416727
2.1501713E-4
0.0025073173
0.0033087775
0.0039426554
0.0012303805
-0.003872353
-0.0046223924
-0.002995017
-0.0020787776
-0.0016270682
-0.0010565573
6.140165E-5
0.0010407809
0.0024404645
0.0018535791
-9.853231E-4
-0.001754344
-0.001407749
-6.1628246E-4
7.8682945E-4
0.0013716135
0.0023090632
0.003386735
0.0038450668
0.002166928
-7.018067E-4
-0.0011979009
-0.0022536782
-0.002481497
9.4152475E-4
0.0021172555
0.0023146889
0.0037195722
0.0023122828
5.4316764E-4
-4.3172704E-4
-0.0026097507
-0.0037158018
-0.0038039244
-0.0038528622
-0.0022091751
4.227789E-5
0.0017225762
0.0031970453
0.0022820216
-0.0011701775
-0.0043024393
-0.004738381
-0.0019264842
7.107996E-5
6.50816E-4
0.0021893145
0.0026915867
0.0031749704
0.0028115304
-3.3640396E-4
-0.0017573978
-0.0014162563
-6.1202125E-4
2.4554436E-4
-7.222E-4
4.6083375E-4
0.0029284542
0.002752613
0.0016039419
-0.0012320845
-0.0036266942
-0.0031083066
-0.0017760913
1.3339153E-4
8.718973E-4
0.0013337814
0.00402351
0.005307549
0.0039303056
0.0012658125
-0.0013393639
-0.001995577
-0.0027310406
-0.0028203984
-0.0010259523
-8.414471E-4
7.176112E-4
0.0039679217
0.0017143999
-0.0019666678
-0.0029129607
-0.0047228276
-0.004182194
-9.7335107E-4
3.1015865E-4
6.547606E-4
0.001445819
0.002279486
0.0012947688
-0.0010224363
-0.0019071961
-0.002123753
-0.001317527
-3.9312217E-5
3.503272E-4
0.0017608484
0.0038768738
0.0051917573
0.0030577998
-0.0014908625
-0.002525168
-0.0012996686
1.9553129E-4
0.0013593023
2.3047804E-4
7.995378E-4
0.0031483297
0.0030359514
5.5903284E-4
-0.0027961067
-0.003939128
-0.0029723549
-0.0019172126
-5.6399533E-4
-9.026991E-6
0.0010362228
0.0028104957
0.0025334426
6.223723E-4
-0.001500084
-0.002694408
-0.003188809
-0.003329502
-0.0014538699
8.2542695E-4
0.0022994217
0.003998037
0.0045659356
0.0036789877
6.808469E-4
-0.0033189435
-0.003972449
-0.0035128682
-0.00352592
-0.0012113943
5.9250154E-4
0.0015025903
0.0035308201
0.0037944491
0.0019067798
-9.3496917E-4
-0.0035972134
-0.004252363
-0.0032594376
-9.1249956E-4
0.0015354796
0.0038297179
0.005862441
0.0041270074
3.4621242E-4
-0.0010654363
-8.202057E-4
-5.5181765E-4
-1.4866887E-4
0.0010811588
0.0015837487
0.001612378
0.003053523
0.002461342
-0.0013001328
-0.004450886
-0.005490915
-0.0048398813
-0.002941124
-0.0010912066
-6.0701213E-4
0.0016399084
0.0047564264
0.0038149653
0.001356358
-0.0017966782
-0.0020328993
-5.7346426E-4
-0.008660672
-0.010265245
0.0022896596
0.0053967717
0.0040409435
0.006248807
0.002183375
-0.0013408975
-0.0019532694
-0.0021814802
3.4670896E-4
0.001771633
0.0032110505
0.0039759777
0.0025851233
0.003468446
0.0020538173
-0.0024626534
-0.003607907
-0.0038126013
-0.003564403
-4.2742383E-4
0.0019815487
0.0032548185
0.0049517523
0.0034655046
-0.0015405631
-0.0051630535
-0.005310269
-0.0039362614
-0.002028033
7.352659E-4
0.0017021091
0.0016249948
0.003075914
0.0011779846
-0.0031588443
-0.003936262
-0.0024889167
-8.270208E-4
-9.833073E-4
-8.701262E-4
0.0024297244
0.003592943
0.003616882
0.004208631
0.0011295425
-0.0026520377
-0.003984448
-0.0020413264
7.485942E-4
-8.1037555E-4
-0.0011329134
0.0028383702
0.0047429223
0.003869438
0.0015632733
-9.802602E-4
-0.0022756841
-0.003630601
-0.0041997754
-0.0029682973
-0.0012074092
7.162358E-4
0.0020294748
0.0012056762
-0.0022742674
-0.006262943
-0.0062511354
-0.0024598897
-2.5524632E-5
6.055068E-4
0.001890689
0.0032160731
0.004096933
0.0038731438
0.0012994801
-0.0027231604
-0.005466527
-0.0036595245
-3.2196284E-4
-5.702494E-4
-1.1735579E-4
0.0025778757
0.003245947
0.0025873717
-0.001116575
-0.006909457
-0.0077550043
-0.0055331644
-0.002881088
9.4093615E-4
0.0020907256
0.0021061676
0.0034713221
0.0033695467
0.0021220471
-6.960879E-4
-0.0035131082
-0.0032037294
-0.0015490938
0.0017997846
2.9718438E-5
-0.008910688
-0.0059283245
0.0051105777
0.004018288
7.670323E-6
6.5010146E-4
-7.9012004E-4
-0.0016304699
9.06441E-4
0.0038470682
0.0043898853
0.0058895946
0.008866983
0.006772919
0.0035770033
0.0010568622
-0.0026954613
-0.0015778599
5.804938E-4
0.0013056581
0.0012111714
-0.006542569
-0.015184896
-0.019109381
-0.023017317
-0.024189286
-0.022216743
-0.017966047
-0.011648636
-0.007913521
-0.0045756446
2.1394684E-4
-0.0051200804
-0.022807458
-0.03243477
-0.026340466
-0.014235446
-0.0010571927
0.003839369
0.0034502582
0.008546879
0.013651143
0.020148592
0.021910442
0.013849083
0.0137426015
0.015154844
0.005903839
-0.0117812455
-0.032559987
-0.027317494
0.0028122
0.02339469
0.030999055
0.030935133
0.025910873
0.013729729
-0.0122495275
-0.033348218
-0.033907678
-0.020029446
6.1863754E-4
0.020892434
0.035804924
0.042230505
0.044593956
0.046544645
0.0386478
0.019511605
0.0023682707
-0.0058536152
-0.008068538
-0.008377963
-0.019464316
-0.040791057
-0.046086486
-0.03583137
-0.023578728
-0.0066577694
0.0029182162
-0.00295273
-0.019192802
-0.03365796
-0.0427432
-0.07439409
-0.10307283
-0.072668225
-0.022218518
-0.0037965002
-0.0015225061
0.004127467
0.010908781
0.010926037
0.0022228376
-0.0038481986
0.01042998
0.040080972
0.055609867
0.047942333
0.03442776
0.030305028
0.029022941
0.01641528
0.0073106713
0.01921905
0.036284883
0.040357985
0.03602976
0.029143246
0.02275451
0.0253054
0.020792188
0.0044436385
0.010531728
0.025957186
0.02175949
0.015133616
0.0057943687
-0.008499163
-0.01117697
-0.008198252
-0.010761784
-0.020409148
-0.031355802
-0.03702642
-0.041289568
-0.04293334
-0.038326427
-0.0343951
-0.03474948
-0.03278041
-0.030526016
-0.03314052
-0.03173986
-0.026810998
-0.024437053
-0.02301263
-0.023653943
-0.022433951
-0.023584574
-0.021560906
8.556713E-4
0.020318568
0.025395596
0.03394232
0.037944064
0.036198564
0.031411536
0.021304479
0.019132622
0.023343291
0.032283723
0.044479728
0.040084593
0.02843493
0.028616445
0.028723398
0.024046136
0.021178069
0.017909762
0.016878905
0.018927522
0.016670918
0.010979887
0.0029398955
-0.0065887547
-0.008785735
-0.007946901
-0.011815749
-0.014493448
-0.015177138
-0.016608912
-0.01862675
-0.022224993
-0.027289111
-0.033652786
-0.036498614
-0.034102645
-0.033049725
-0.030689204
-0.023468787
-0.017763335
-0.015822688
-0.015785351
-0.015865024
-0.015013257
-0.015895234
-0.015554691
-0.010668558
-0.00515717
0.004658976
0.01749961
0.020545417
0.018040532
0.016398426
0.011060124
0.010680464
0.01815591
0.02034063
0.017144872
0.015928024
0.017974846
0.020935014
0.01849074
0.009836212
0.0017298175
-0.0024691657
-0.003454277
-0.0029123805
-0.0026709028
-0.0022023462
-8.331189E-4
7.755463E-5
-9.837485E-4
-0.0053824526
-0.01179448
-0.015716808
-0.015397425
-0.012806536
-0.00971002
-0.005178346
0.0012057229
0.005866017
0.00717297
0.0075658234
0.006664886
0.0031097787
0.0024270301
0.0077367527
0.010974656
0.010681204
0.0112223355
0.006615563
-0.0025184213
-0.007884052
-0.012237796
-0.017681006
-0.019174496
-0.016056726
-0.013608075
-0.013524077
-0.009227466
-0.0012635585
0.0012405422
-0.0013884248
-0.0049517816
-0.0075551886
-0.0054954556
-0.0036205635
-0.0075916173
-0.010210403
-0.008775803
-0.006261459
4.7911535E-4
0.009795094
0.015826376
0.018191695
0.019782113
0.021417538
0.01929914
0.014362645
0.011508007
0.011658666
0.012193584
0.005938108
-0.0022541415
-0.0013318948
0.0019148138
0.0037718175
0.0063464018
0.0064186403
0.0073216115
0.008461092
0.0068332274
0.003117449
-0.0038062648
-0.0069713187
-0.0047940756
-0.0046712784
-0.006268905
-0.009546828
-0.011951812
-0.009713385
-0.009127799
-0.012344581
-0.01429943
-0.014527921
-0.014197494
-0.010474391
-0.0031052139
0.0023052935
0.0041314038
0.005580256
0.008245492
0.010115285
0.007909119
0.0025203938
-0.0020450244
-0.0036867668
-0.0033549722
0.0019783399
0.012952244
0.018283637
0.01599105
0.012191018
0.008100952
0.0075521953
0.00681226
0.005435462
0.0055340356
-0.0026668448
-0.006049499
0.004480149
0.0065433276
0.0015230988
5.372754E-4
-0.0017513557
-0.0031459369
-3.7762677E-4
0.004350603
0.0056974306
0.004410048
0.0066256206
0.005315999
-0.0012491924
-0.00520087
-0.0076538837
-0.008736429
-0.0074586314
-0.0048188833
-0.0016033248
-5.297525E-4
2.1163108E-4
9.016207E-4
-0.0015905299
-0.004585874
-0.0057399487
-0.0054526455
-0.003520952
-0.0011231962
3.429502E-4
0.0015812257
0.004321897
0.0064075566
0.0037647553
-7.841674E-4
-0.0025194252
-0.0028375043
-0.0023983147
3.624356E-4
0.004404032
0.008988034
0.011932416
0.011049656
0.009651515
0.008843645
0.0070684333
0.006456421
0.0073335613
0.0064819334
0.0031026634
0.0013454834
0.002072316
-0.0014679855
-0.008562499
-0.010693867
-0.008872251
-0.009411206
-0.0102436645
-0.0063456693
-0.0018280046
-0.0011202089
-8.7435526E-4
-0.0017657847
-0.0047933506
-0.007449969
-0.0109812915
-0.01227655
-0.009766361
-0.008206687
-0.005585541
-0.0012580823
0.004190291
0.011297432
0.012494031
0.009769953
0.01187106
0.016132865
0.019557241
0.021619217
0.022997493
0.023655614
0.020228008
0.01475776
0.010347307
0.008996871
0.010170398
0.0077325488
0.0032615194
5.245472E-4
-0.0025592064
-0.006754264
-0.011507789
-0.013065451
-0.013233322
-0.018136477
-0.022589823
-0.021658817
-0.018179627
-0.014069737
-0.00932732
-0.005982449
-0.0055992636
-0.005059388
-0.008424024
-0.016576516
-0.017747294
-0.014044297
-0.009202533
1.7347051E-4
0.0067209466
0.014594905
0.02945878
0.03701715
0.034607343
0.030111795
0.022864211
0.01548799
0.0112617025
0.008499452
0.007380351
0.0068004522
0.0051706126
0.0034161604
8.259657E-4
-0.0021357911
-0.003492013
-0.0031037854
-0.0011841304
1.1037284E-4
-8.726222E-4
-0.0021060484
-0.002630496
-0.0050619347
-0.010367857
-0.014384407
-0.015011303
-0.013170623
-0.0097553255
-0.006252823
-0.0024117366
-6.910731E-5
0.0012675812
0.0036452694
0.0030033719
0.0014089658
8.73519E-4
-6.122522E-4
5.7144207E-4
0.002069661
0.0014204831
9.5021917E-4
0.0018345538
0.0036964517
9.3248143E-4
-0.001745893
-5.030579E-4
1.0960881E-4
0.0050255163
0.007789853
0.005342928
0.0076351697
0.0096987095
0.010269129
0.008084774
0.0024342635
-5.340305E-4
-0.009218541
-0.013913133
-0.003045471
0.0029934926
0.001830635
0.00400897
0.0039755157
-0.003269979
-0.010356781
-0.0073909005
-0.0051410915
-0.008485486
-0.0049939724
-9.618139E-4
-5.9161265E-4
0.0032622276
0.006686579
0.0066751684
0.0037520262
6.3595513E-4
0.0020045144
0.0040697707
0.004298737
0.004856581
0.0040362896
0.0036138683
0.005018576
0.0021408878
-0.0034432283
-0.0057808617
-0.00651876
-0.0061796918
-0.0057725376
-0.0058461074
-0.0034962976
-0.0015338581
-0.0012982107
-0.0010399912
-0.0016907585
-0.0021384293
-0.0027317056
-0.0028002567
-1.641319E-4
0.0016587274
0.0015431572
0.0026022713
0.004126073
0.0030701375
-5.628726E-4
-0.003315242
-0.002319585
9.372152E-4
0.0021658572
0.0023123873
0.0035169215
0.0037744965
0.0048305565
0.0052598864
8.2812714E-4
-0.0033969174
-0.0049133925
-0.005217682
-0.0026815962
-0.0010062628
-0.0010178533
0.0019706215
0.0033259382
-1.940532E-4
-0.002448833
-0.003262575
-0.0038392385
-0.0015643691
0.0012549354
0.003302742
0.005198672
0.0060599856
0.0058066784
0.0030012436
-5.862968E-4
-0.0018238631
-0.001748242
-8.5557025E-4
-9.857566E-4
-0.0023290033
-8.880719E-4
0.002336223
0.004059162
0.0032815596
5.4526286E-6
-0.0018743807
-8.9676236E-4
-0.0021878912
-0.003388677
9.808594E-4
0.003297349
0.00119591
0.0021195747
0.0017442419
-0.0023836088
-0.00314987
-0.0013930061
-0.0010147117
-0.001095
8.5342304E-5
0.0023282447
0.0043008933
0.005582185
0.0046466044
8.430017E-4
-0.0030455017
-0.003447221
-7.311882E-4
4.3629284E-4
2.835907E-4
0.0018488448
0.0033520444
0.0030250852
0.0015777587
-3.5632626E-4
-0.003341101
-0.005175095
-0.0034031225
-0.0016956648
-9.5530174E-4
-2.2591012E-5
8.3262095E-4
0.0037131142
0.0038039244
-0.0014224098
-0.004242735
-0.003160303
-9.656512E-4
9.953756E-4
0.0026796274
0.005026997
0.0054983017
0.0049575865
0.0039675506
8.5886146E-5
-0.0024963638
-0.0023877309
-0.0018202417
-5.134734E-5
0.0014204845
0.0026607667
0.004417847
0.0049470854
0.0029744124
-0.0018341631
-0.0058473945
-0.0062690196
-0.0057299645
-0.004874081
-0.0020960183
7.734225E-4
0.002200843
0.003693422
0.004112329
0.0019554582
-0.0011557337
-0.0029733486
-0.0012284907
9.0699276E-4
0.0010695128
0.0029460134
0.004643735
0.0047045457
0.0037848586
-5.937399E-5
-0.0032738557
-0.004620802
-0.005023047
-0.0029207878
-6.654793E-4
0.0018239598
0.0032063487
0.0021754112
0.0025951697
0.0011061704
-0.0025775256
-0.0032046954
-0.0026472176
-0.0018478299
-7.2231697E-4
8.023298E-4
0.0027576082
0.0031217905
0.003285135
0.0017207209
-0.0011796986
-6.8737625E-4
1.220562E-4
5.4844416E-4
0.0018523274
0.0023337873
0.004021449
0.0041579423
0.0010405827
-0.0013516406
-0.0030345966
-0.003937963
-0.00458199
-0.003996197
-0.001294801
-0.0016973
-0.0012634048
0.0034123552
0.0030849017
-7.0602406E-4
-0.0019380383
-0.0031569272
-0.0028662258
-2.9587006E-4
0.001495521
0.0023511145
0.002973033
0.0045338925
0.004674753
9.389899E-4
-0.0015931188
-0.0013191795
-0.0010019647
5.67162E-4
0.0010815735
-0.0010960026
-2.5670484E-4
0.0027085426
0.0017001011
-0.0015827477
-0.003843307
-0.0050399834
-0.004748754
-0.002715802
1.3637965E-4
0.0022205212
0.003636252
0.00475831
0.003937163
0.0012628096
-9.2322833E-4
-0.0012995809
-0.001633975
-0.0026615507
-0.0011976501
0.0011898151
0.0019123382
0.0036891806
0.005194083
0.0039679552
2.854894E-4
-0.004570028
-0.0057988754
-0.003482946
-0.0014330951
6.075684E-4
0.0019875925
0.0020341068
0.0017556553
7.0018397E-4
-0.0018756296
-0.0035080481
-0.0023728346
-0.0018330273
-0.0014841529
1.7573642E-4
7.7119767E-4
0.0028773495
0.00510527
0.002117072
-0.002445821
-0.0049395417
-0.004957737
-0.0014410855
0.0019445656
0.0013227669
7.2836905E-4
0.0033270344
0.0040212385
8.6390367E-4
-0.0019941942
-0.003029816
-0.0030856442
-0.0023238838
4.643525E-4
0.0038394486
0.0045142896
0.004037256
0.0033841243
7.806587E-4
-0.0026923423
-0.005064902
-0.0053048697
-0.0032797682
-5.850095E-4
0.0012707495
0.0026919483
0.004004292
0.0042872857
0.0030948878
4.233584E-4
-0.002695494
-0.0039713182
-0.00271987
-0.0014745679
-1.907791E-4
0.0027559092
0.002745379
7.249189E-4
5.7707748E-5
-0.0027849465
-0.00229555
7.1468705E-4
-9.2455436E-4
-8.698311E-4
-6.849602E-4
-8.7440846E-4
0.002420382
0.0027999035
0.0015866812
-8.1855373E-4
-0.0021632842
-0.0021190403
-0.008667535
-0.0056536403
0.0028821595
-0.0030338946
-9.558351E-4
0.008545374
0.0056856154
0.0017737313
-7.87498E-4
-0.003297407
-0.0022121046
-7.6842855E-4
0.0011656848
0.0016630596
0.0024982658
0.0041620526
0.0023373973
-2.7019228E-4
-0.002629716
-0.0025034212
2.8914833E-4
3.4482396E-4
-7.283794E-5
4.3859656E-4
0.0011149128
0.0020916862
5.883057E-4
-0.0018013591
-0.0030919046
-0.00303879
-9.84543E-4
4.793393E-4
8.657087E-4
0.0016514075
0.0025507489
0.0033253178
0.0024038807
-4.4252406E-4
-0.0018928848
-0.001930556
-0.0030597555
-0.002602055
-1.6436419E-4
9.562709E-5
5.1694637E-4
0.002033071
0.0010194563
-4.5677894E-4
-0.002238615
-0.0045855874
-0.0028028956
4.3084976E-4
0.0012650165
0.0016958637
0.0016149184
0.0022089854
0.0022356885
-0.001411545
-0.0040447917
-0.0038256394
-0.0018570588
0.0017424066
0.0025085344
0.0021936926
0.0041792435
0.0049073696
0.002632194
-0.0016995227
-0.0040415903
-0.003544376
-0.0034863162
-0.0025358496
-8.7711454E-4
0.0011257764
0.0032680226
0.0031528622
0.002700487
8.25252E-4
-0.0023114516
-0.0015756752
-7.9583057E-4
-0.0023950944
-0.0010558375
0.0020884078
0.0030105985
0.0030214214
0.0020277018
-0.0021309035
-0.0052671726
-0.0040530334
-0.0015857214
7.877401E-5
6.328509E-4
0.0019483488
0.0035970372
0.003345083
0.0039728424
0.0029952328
-0.0021630325
-0.0051024314
-0.0043353
-0.0023921602
-6.880862E-4
-2.821082E-4
8.3706307E-4
0.00195264
0.0013305859
-8.50969E-4
-0.0043705655
-0.004316857
-2.7884735E-4
0.0015046205
0.003031464
0.004919096
0.0028668828
0.0016438183
0.0024551114
4.0351588E-4
-0.0022561518
-0.004028671
-0.0036429707
-2.8129408E-4
0.0010205173
0.0012588879
0.0033884917
0.004475814
0.002605256
-9.836183E-4
-0.0026851706
-0.003526856
-0.0044774027
-0.0023869239
-6.268384E-4
3.5662597E-4
0.0026447568
0.0028391667
0.0017995804
-8.658713E-4
-0.004292826
-0.003471429
-0.002255962
-0.0017231904
5.5456365E-4
0.0010488873
0.0017745916
0.003892103
0.0032553102
2.493772E-4
-0.0029762213
-0.0037533164
-0.0019575697
-3.9569164E-5
0.0018650955
0.002564428
0.0037007616
0.0061305435
0.0045443824
6.2256877E-4
-0.0013419905
-0.0025910984
-0.0023177513
-0.0012867065
-0.0019187275
-0.0023424823
-9.0877066E-4
7.421765E-4
9.952831E-4
-3.239017E-4
-0.0032952954
-0.004384758
-0.0014544786
3.53321E-4
2.1816861E-4
9.432979E-4
0.0022899036
0.0027553597
8.9769595E-4
-8.77162E-4
-0.002451731
-0.0032533659
-4.1612715E-4
0.001121716
0.0014798032
0.0023729121
0.0017964806
0.0044654445
0.0052110637
9.851225E-4
-7.1344996E-4
-0.002105258
-0.0028737427
-0.0063154167
-0.0125039425
-0.005807165
0.004759012
0.0051208157
0.004869938
0.0033881601
-0.0018097832
-0.0030491105
-5.719826E-4
9.271024E-4
3.138487E-4
4.0216412E-4
0.0025543892
0.003721162
0.0022935173
4.327145E-4
-0.0018613235
-0.005727861
-0.0049539693
3.7452677E-4
0.0018449815
0.0019589975
0.0032574262
0.0033369244
0.0032765062
0.0016488794
-0.0013299773
-0.0031548608
-0.0035355787
-0.0027901793
-0.0025071064
-0.0016719938
0.0010359957
0.0036023632
0.0034770854
2.5614913E-4
-0.0018667001
-0.0019069744
-0.0015313912
1.314407E-4
9.426738E-4
0.0018650782
0.0043857293
0.003933723
0.0015178522
-5.9669657E-4
-0.0037936706
-0.0050749453
-0.0034541416
-0.0019463523
-0.00115652
-0.0019978785
-0.0024780836
0.002486951
0.0066628084
0.0021936302
-0.0025186925
-0.0024401492
-0.00322325
-0.0033757894
-6.021767E-4
0.001077403
8.349591E-4
0.0017531374
0.00318321
0.0019019241
-7.2584784E-4
-0.0020965796
-0.0014672246
6.9584936E-4
0.0012233298
0.0010171438
0.0019677489
0.0024655152
0.0030228388
0.0010334256
-0.0026798968
-0.002985985
-0.0029580556
-0.0016268318
0.0019720886
0.0022482027
0.0028111083
0.004991421
0.004175279
0.0015174028
-0.0014056725
-0.0022055751
-0.0013191274
-0.0016787163
-0.0015502926
-0.0013292864
-7.007697E-4
0.0021711558
0.0031305945
-5.7174225E-4
-0.004403528
-0.0050419145
-0.0043326803
-0.0022468613
-3.8486568E-4
-0.0014299919
4.4331035E-5
0.003389438
0.003058836
0.0014319924
-0.0026773277