0.006298437
0.0028702137
-0.0038755962
-0.008384322
-0.005841433
-0.0020434808
-2.8008972E-5
3.1472664E-4
7.2236825E-4
0.005281258
0.009757577
0.00674072
-0.0013927552
-0.007782862
-0.0075919083
-0.002642699
0.0011089374
0.0057326686
0.007736673
0.0020083636
0.0018971048
0.0061593656
0.0010151162
-0.0062693916
-0.007463259
-0.0037558516
-0.0012713101
-0.0014953035
0.0019807522
0.005591168
0.008986475
0.0062523624
-0.010235787
-0.017518435
-0.011103121
-0.0074328776
-0.0017927976
0.0040194164
0.0068929614
0.010811827
0.011787488
0.0073928814
-0.0016144761
-0.007394019
-0.0066635483
-0.0048880335
-2.4272045E-4
0.004885705
0.0064613414
0.00517772
0.0034483555
0.004708402
2.4183842E-4
-0.010266678
-0.0116992565
-0.0056255166
-0.0017500244
7.014421E-4
0.004210166
0.005277476
0.003932607
0.0042729513
9.7090774E-4
-0.005794844
-0.006837054
-0.003561012
0.0010725809
0.0063365605
0.007439498
0.005573676
0.0060676695
0.005057719
-0.0022750637
-0.007966321
-0.0069660726
-0.0043946663
-6.768182E-4
0.0032882479
0.004727921
0.006568133
0.007921952
0.0043802094
-0.0014857927
-0.004893758
-0.005918587
-0.0030504784
0.0012075772
-0.0014510558
-0.003357848
0.0017672374
0.0029825137
6.4210047E-4
-0.0035464081
-0.012576164
-0.016082473
-0.011260478
-0.004569518
0.0015930007
0.0040468513
0.0061398884
0.0095618805
0.009938882
0.007381292
0.0012293586
-0.0034360553
-6.9153885E-4
0.0027870475
0.0037806104
0.0055102753
0.008307441
0.00821701
0.0027056397
-0.0040386375
-0.013377568
-0.016434457
4.8819341E-4
0.012048147
0.005180264
0.0053843446
0.009291841
0.0062166047
0.0032801465
-0.0026561685
-0.008427583
-0.012334237
-0.016129442
-0.010638091
-0.00339912
-5.3443713E-4
0.0038993806
0.006555894
0.0111820875
0.01266825
0.0047368426
-0.0016344793
-0.010899925
-0.014290665
-7.147549E-4
0.005304164
0.0037656068
0.006750974
0.005883333
0.002803066
-0.004049631
-0.011402138
-0.010782399
-0.007916373
-0.0023189154
0.0021944637
0.0013068459
0.0044950657
0.010368002
0.010745825
0.0039020604
-0.004376085
-0.0074769673
-0.0056120674
5.8952137E-4
0.00569958
0.008056751
0.010838136
0.009729526
0.0050313096
-0.0021163072
-0.00914716
-0.010446885
-0.008882731
-0.004995166
-0.0010176061
0.0014408869
0.005381063
0.00630963
0.0052386383
3.048075E-4
-0.009040621
-0.010579179
-0.007835902
-0.0032001066
0.004949775
0.0065576
0.006283637
0.0067936373
0.0039312774
0.0017113653
-0.004061994
-0.0099822795
-0.007416956
-0.0021244753
0.0018248886
0.0041377186
0.005463352
0.006980226
0.0060298
0.0025504942
-0.0023069857
-0.0071516274
-0.007574699
-0.003097973
0.002472525
0.0072758617
0.009745435
0.008247073
0.0048032566
6.941699E-4
-0.0052200165
-0.008880879
-0.0063757063
-0.0025975965
-0.0014718566
9.629001E-4
0.00515784
0.0053677117
0.0017677753
-0.0022306775
-0.0068212193
-0.010522004
-0.009050215
-0.0023806528
0.0024680644
0.0038442907
0.005851128
0.0049519474
0.0014907861
2.8416947E-5
-0.0044026985
-0.009470847
-0.006316689
-6.690168E-4
0.0014197439
0.004939207
0.009028869
0.01023019
0.011162143
0.006738638
-0.0043226415
-0.0081949085
-0.003779212
-3.764747E-4
0.0030910668
0.006104253
0.0054727057
0.0048371134
0.0057484503
0.0038323086
-0.0025836611
-0.007816298
-0.006497866
-0.0031368628
-0.002607063
-8.949322E-4
0.0020717073
0.003426355
0.0044855014
4.1168006E-4
-0.0076227407
-0.010001351
-0.0089903865
-0.005071096
0.0032165593
0.006642386
0.005605157
0.006320683
0.005833911
0.002683831
-0.002507009
-0.008097548
-0.008319664
-0.0033366007
-5.3052057E-4
-3.2422168E-4
0.0019234613
0.004675533
0.004775005
4.4562726E-4
-0.0067545227
-0.0103750285
-0.008246731
-0.0020482023
0.004746625
0.009056216
0.011757413
0.010805817
0.007214888
0.0039694547
-0.0011380587
-0.004936091
-0.0045002904
-0.0012575274
0.0024302746
0.0035121606
0.006618573
0.009546004
0.0044626147
-0.0026265173
-0.007440621
-0.009924887
-0.008421218
-0.005602569
-0.0014780714
0.0034444747
0.006472525
0.007764487
0.005786938
-5.3963246E-4
-0.008758606
-0.014047658
-0.012722346
-0.006363814
-8.725859E-4
8.48328E-4
0.004170171
0.009439281
0.010128476
0.005311867
-0.002960455
-0.008101004
-0.006370455
-0.0032652542
9.276539E-4
0.0057289214
0.0074937223
0.007223361
0.0049928604
0.002203325
-6.534578E-4
-0.0044924337
-0.005117758
-0.002404843
3.7944178E-6
0.0020889642
0.003906114
0.0053849192
0.0065455018
0.0028961685
-0.008104383
-0.014698702
-0.0093720015
-0.0019615467
0.0041400264
0.009316494
0.010359631
0.009950578
0.004731908
-0.005168572
-0.009471586
-0.009270912
-0.0074294005
-0.0030397656
-3.819083E-4
-3.754273E-4
-1.0080385E-4
0.003871552
0.009068956
0.007051097
-1.4696226E-7
-0.004026256
-0.00379368
-0.0013470424
0.0026796418
0.006282116
0.005486001
0.004187325
0.0052135303
0.0028353967
-0.0024871784
-0.006944981
-0.0064303936
-0.0013736525
-6.614127E-4
-0.0014340463
8.1302895E-4
0.001649582
0.002018482
9.5477066E-5
-0.0049369643
-0.008481593
-0.008335056
-0.0025083115
0.003489759
0.005428571
0.0074523124
0.009508589
0.008912319
0.0033891143
-0.0031839395
-0.0063141226
-0.0077108527
-0.0045249197
5.3596974E-4
0.0023844459
0.0038461103
0.0046347617
0.005483782
0.00265728
-0.006277215
-0.010389463
-0.008048436
-0.0036307157
0.0019008056
0.0041073775
0.003304121
0.002859251
0.0041862656
0.003117664
-0.0033920235
-0.0072392933
-0.005252849
-9.052687E-4
0.0030534267
0.003822531
0.0038234538
0.0054600267
0.007431744
0.00467977
-0.0022600729
-0.005114384
-0.0062680105
-0.005266347
3.8948265E-4
0.0028675215
0.00449485
0.0065357136
0.006393583
0.006052598
-6.1426667E-4
-0.008823848
-0.009180099
-0.0060432986
-0.0015715284
0.0012897312
0.002613769
0.005343397
0.00457915
-6.118566E-4
-0.0075529544
-0.010079374
-0.0055211578
-0.0030715906
-9.876009E-4
0.004457522
0.005166454
0.0042092223
0.0065119728
0.004915813
-0.0023358073
-0.009115259
-0.009498024
-0.0026400122
0.0023289418
8.349918E-4
0.001597309
0.006685461
0.00806179
0.0028124768
-0.0041940226
-0.0075823306
-0.007698386
-0.0044093025
0.0023255933
0.0072986656
0.009595423
0.0099565545
0.008312554
0.0048633907
-0.0031249835
-0.008450087
-0.0058955476
-0.0019690993
0.0016863244
-0.0016105571
-0.006445601
0.003956143
0.01122077
0.0040046824
-0.0020616741
-0.009394463
-0.01107592
-0.0045629935
-0.008287009
-0.006375867
0.0068620737
0.0076960595
0.0053996476
0.004499734
-0.004681726
-0.009408902
-0.0063292477
-0.0027604839
3.792879E-4
0.002969573
0.0050406014
0.0075407038
0.012833777
0.0061397757
-0.014009472
-0.015816202
-0.0033216006
0.0013935324
0.004985473
0.008439966
0.010564654
0.012808422
0.010245034
0.004197005
-0.0038696544
-0.010829706
-0.012560729
-0.009376513
-0.0035795784
-5.918E-4
0.0014658158
0.00490862
0.0050159344
9.385485E-4
-0.005072367
-0.007848679
-0.0068657123
-0.005805973
-0.002248143
0.0035074423
0.0075618788
0.007440935
0.005551069
0.004364247
-8.379603E-4
-0.0071426467
-0.0076183174
-0.0024847875
0.003661081
0.004161101
0.004165395
0.008173382
0.008767485
0.0053409142
-0.0017560746
-0.0104518775
-0.011793749
-0.005988397
4.836629E-4
0.004114612
0.0053675715
0.00799727
0.0103753125
0.005530984
-0.0049533555
-0.012649007
-0.014436814
-0.009324182
-0.0022892032
-6.6686823E-4
0.0014719361
0.0057480936
0.0060995864
0.0034741093
-0.002770936
-0.0078089526
-0.005020739
-0.0011096395
0.0011412968
0.0047917888
0.0069186524
0.0069139623
0.0066480436
0.0040194048
-0.001126722
-0.0060534026
-0.008587217
-0.005390658
1.1632269E-4
0.0027187387
0.006130172
0.009182559
0.009304086
0.006574337
-0.0020997273
-0.0089159245
-0.008483364
-0.0054721995
9.454094E-4
0.0056098127
0.0057548136
0.0072451164
0.0067302384
0.0015819976
-0.005699688
-0.012347911
-0.013558125
-0.008505218
-0.0015172614
0.0014137711
0.0021449656
0.005067935
0.0062742494
0.003908312
-0.0031986882
-0.010656189
-0.008947539
-0.0038411333
4.2058568E-4
0.004776383
0.0045612515
0.0043587126
0.0034070679
-0.0028430948
-0.0068619037
-0.008965375
-0.010354241
-0.0072458982
-0.0025228548
0.004048633
0.009457515
0.0097623775
0.011170047
0.011137032
0.0041932887
-0.0017786949
-0.001960704
9.104206E-4
0.00578823
0.011028554
0.013716518
0.012003696
0.007046713
3.4262196E-4
-0.010028081
-0.01752014
-0.014301634
-0.008300055
-0.0021329648
0.0048111035
0.004464989
0.002168959
1.682525E-4
-0.009539184
-0.018473212
-0.01847571
-0.012581657
-0.005440147
1.18929376E-4
0.0062346915
0.009546273
0.008792049
0.008170039
0.004099724
-0.0026385793
-0.004840095
8.5145043E-4
0.007522683
0.005016474
0.0023413817
0.0070576784
0.008791749
0.0041401978
-0.0029051728
-0.00900814
-0.011920151
-0.011728535
-0.00828976
-0.003002718
0.0038719708
0.010049883
0.011739745
0.010080005
0.003549606
-0.0052434932
-0.006672616
-0.0010669875
0.0035562709
0.0041142646
0.004378692
0.0052066846
0.003678235
6.2346045E-4
-0.0051748385
-0.011181041
-0.0106483605
-0.007290448
-0.0037300268
0.002623349
0.00821359
0.011520536
0.012136467
0.0062970514
-0.002342252
-0.009749759
-0.014535489
-0.009563286
-7.0274604E-4
6.214756E-4
0.002176804
0.006394017
0.007228142
0.004966749
-0.0018938034
-0.0073623504
-0.0075235874
-0.006903813
-0.0018998467
0.0052491697
0.008518998
0.009286741
0.008343859
0.00592929
-9.074036E-4
-0.009135728
-0.011206854
-0.008461298
-0.0043616365
-0.002536162
1.9628291E-4
0.0056571555
0.006551253
0.004128704
-0.0026780763
-0.01039055
-0.009442538
-0.0075641414
-0.0043701734
0.0027477555
0.0049946606
0.005856208
0.0064045694
0.005463571
0.003816508
-0.002643589
-0.004587172
0.001979377
0.005057879
0.00525
0.00963015
0.0119910985
0.0086314
0.006908312
0.0012742736
-0.008536013
-0.0083632525
-0.0038929526
-0.0010195046
0.0020536878
0.005906551
0.014099559
0.010920663
-0.00537423
-0.016456462
-0.023534158
-0.021336252
-0.011311254
-0.0063707526
-6.934404E-4
0.0016574301
-0.0014234227
0.0017997695
0.005213501
-3.235583E-4
-0.008585737
-0.008344578
-0.0012882927
0.0039325613
0.007880068
0.009266189
0.008449594
0.008168003
0.0052279993
7.681259E-4
-0.0023854251
-0.0029880728
-0.0012032083
0.0011839181
0.0033264877
0.0031920823
0.004946834
0.008638859
0.0058033387
-0.0020109809
-0.009809344
-0.011695854
-0.0056289923
-3.3916542E-4
0.0034247194
0.00699861
0.008056686
0.008402332
0.0056432444
-4.8805776E-4
-0.0062236777
-0.008549741
-0.0042790864
0.0020960444
0.0043213833
0.0024963233
0.0020236152
0.00543526
0.0032712277
-0.00696152
-0.013953478
-0.012985127
-0.00896889
-0.005851857
-5.232799E-4
0.0057261926
0.0071132975
0.007488567
0.0056774565
-0.0017253523
-0.007855298
-0.011264082
-0.010539371
-0.0035153981
0.0026590961
0.0062942337
0.008952569
0.008531587
0.00581379
0.0011215123
-0.0051262
-0.009075548
-0.006770363
-1.5938787E-4
0.005427374
0.008652333
0.009311821
0.008831593
0.007341461
1.2866399E-4
-0.010905017
-0.01661994
-0.0133670205
-0.0071629994
-0.0013316992
0.00601492
0.010232974
0.010478367
0.008596933
2.3063601E-4
-0.0070329076
-0.0043669143
5.1643036E-4
0.0034870144
0.008693611
0.012120834
0.0099723125
0.009004134
0.0074861916
6.342389E-4
-0.0060273493
-0.011658978
-0.012706655
-0.007965995
-0.004906895
-0.0013628993
0.002126006
0.0059952904
0.00865417
-4.898785E-4
-0.011610384
-0.020856895
-0.02797913
-0.015863305
-7.378977E-5
0.0032254483
0.0072787106
0.011191132
0.010221904
0.0050630793
-4.959438E-4
-7.9095777E-4
0.0013395485
0.0050791493
0.0068110675
0.0044037346
0.002345013
0.003314266
0.008002326
0.003023036
-0.00852339
-0.0072392914
-0.0035765395
-0.002218095
0.0023855756
0.0035761544
0.0056895013
0.0075266766
0.0047927652
0.001208624
-0.004553159
-0.0068200836
-0.0038251693
0.0012078722
0.0075375964
0.0046135564
-0.001698063
0.0031409566
0.0057657766
-0.00245039
-0.007111819
-0.0065643396
-0.008229612
-0.005397835
0.0026863809
0.0065602874
0.0055858423
0.0024889763
0.0017470644
0.0020876795
-0.0047948468
-0.0125151975
-0.01209773
-0.007429499
-0.0051918887
-0.0038394036
0.0040850155
0.011033228
0.008646517
0.0022743316
-0.007349061
-0.011862299
-0.004729669
0.001843085
0.006189407
0.008204276
0.0014448932
-0.0024463776
0.0017327734
-0.0010232467
-0.015699532
-0.029487183
-0.028063651
-0.01865513
-0.01921731
-0.021670396
-0.01462228
-0.010758739
-0.012712862
-0.012956644
-0.018756216
-0.028342234
-0.028676428
-0.02054601
-0.0092715975
-0.0013717104
-0.0011646142
0.0037297758
0.012428624
0.01089123
0.010469058
0.013484612
0.008837865
0.012236577
0.023856012
0.025884392
0.026265984
0.03204631
0.03854523
0.041275363
0.037345033
0.03355448
0.03949563
0.05361397
0.06202414
0.0661842
0.07141338
0.06509043
0.06089761
0.06835781
0.06421888
0.05319971
0.045275725
0.031769842
0.0183807
0.008968213
-0.004914376
-0.028540894
-0.05627
-0.07963922
-0.09889546
-0.1154086
-0.13046758
-0.13798088
-0.13252576
-0.13229613
-0.14570007
-0.16100644
-0.17420273
-0.1621694
-0.102944784
-0.031768333
0.018468238
0.050988305
0.048603375
0.006765282
-0.045972053
-0.09291429
-0.10061444
-0.04524627
0.043336716
0.13136831
0.19489825
0.2475586
0.32339123
0.3869484
0.38330162
0.31059468
0.20893814
0.10705066
0.005505231
-0.04465317
-0.04005902
-0.061768547
-0.064587586
-0.0064447587
0.017347155
0.00520991
-3.0904124E-4
-0.0637542
-0.18283668
-0.23571496
-0.18620507
-0.11802804
-0.09795923
-0.16403927
-0.26997563
-0.30073833
-0.2798872
-0.24341984
-0.14085029
-0.01246442
0.12371387
0.26970974
0.33031327
0.3061397
0.25215498
0.14050981
0.0053382046
-0.059924114
-0.05383974
-0.04735685
-0.061939165
-0.05614544
-0.017804623
0.012248961
0.025223225
0.030553773
-0.025147516
-0.122059494
-0.16821502
-0.18824774
-0.19792062
-0.17724569
-0.15635951
-0.07603023
0.085443735
0.21820702
0.28628984
0.30651864
0.301208
0.3086072
0.29550415
0.23371379
0.16777866
0.112162314
0.054963678
0.021676306
0.021881709
0.016754026
-0.015450138
-0.053101882
-0.08168064
-0.106857315
-0.13348977
-0.18386331
-0.25412467
-0.29920015
-0.3229246
-0.33635283
-0.3384709
-0.32499617
-0.22199228
-0.062182214
0.021815738
0.04293313
0.05063312
0.076654024
0.14885439
0.19768396
0.19792742
0.18612808
0.16039152
0.13603257
0.120539814
0.10403135
0.09025465
0.08198702
0.078911364
0.06595415
0.038882364
0.015610524
0.003018907
-0.008614107
-0.021371784
-0.026848296
-0.0354591
-0.040777355
-0.029206933
-0.027070832
-0.037663303
-0.046713833
-0.04897789
-0.034515817
-0.02249643
-0.014121238
0.0048356936
0.014086525
0.018941404
0.025534747
0.010730077
-0.015782736
-0.030538507
-0.030599816
-0.021292826
-0.013540381
-0.011656675
-0.0066412957
-4.090777E-5
7.0474064E-4
0.0012949272
-0.0029228253
-0.010498226
-0.006178911
5.5457006E-4
0.009975383
0.025928715
0.029914198
0.030200768
0.028533515
0.00958385
-0.009139144
-0.017853672
-0.019511009
-0.006691553
0.009238038
0.013154587
0.008168203
-2.5539796E-4
-0.005370363
9.938257E-4
0.011342142
0.013401469
0.014060808
0.01838206
0.022375686
0.029361911
0.0350443
0.033174828
0.030188998
0.02637116
0.0093973
-0.0119299805
-0.007230055
0.008229646
0.009525451
0.019778293
0.033946764
0.039936654
0.04268798
0.0042452603
-0.060419008
-0.086549215
-0.08361193
-0.07592822
-0.06551521
-0.05973055
-0.05164601
-0.04142647
-0.03735697
-0.03644524
-0.032541603
-0.019321097
-0.0052744206
-0.0016068233
0.0031726246
0.013774513
0.019351693
0.023825634
0.026590867
0.015731996
0.0055979136
0.014804241
0.034910865
0.044148922
0.032182995
0.022701552
0.030495849
0.036520164
0.03835881
0.037148878
0.021023013
0.003244222
7.7462336E-4
-9.2166715E-4
-0.010719368
-0.013122497
-0.01014755
-0.009252905
-0.0054018633
-0.011039474
-0.022929244
-0.021615772
-0.016796926
-0.013965471
-0.009735945
-0.009799482
-0.010068737
-0.010155384
-0.017582424
-0.02811142
-0.03171833
-0.028501097
-0.020052379
-0.005135007
0.005353824
0.007006263
0.003911958
-0.004232934
-0.004966903
9.814092E-4
-6.385103E-4
-0.0014440931
0.0034859532
0.009391671
0.016322106
0.021452153
0.026163626
0.032402795
0.03477218
0.025949193
0.009270565
0.0010835116
0.0036593222
0.0041326126
0.0017928377
0.004929795
0.009990756
0.0065423925
-0.002897679
-0.012217955
-0.020310702
-0.022536794
-0.018541012
-0.01255367
-0.007970196
-0.0056466837
-0.0010452014
0.0015173758
-0.004659269
-0.011500492
-0.013624969
-0.012639373
-0.0061461087
0.0037967162
0.010610964
0.012360577
0.011209738
0.0113480035
0.011152808
0.00465868
-0.003334041
-0.0053480696
3.428578E-5
0.010014564
0.011479736
0.0051196683
0.0069678747
0.010120397
0.0060111787
9.056063E-4
-0.0052751126
-0.008682337
-0.0064687743
-0.0039206645
-9.486022E-4
0.0026942
0.008039441
0.013683686
0.0123458505
0.0040345476
-0.0056005158
-0.007651697
-8.366188E-4
0.0013712724
-0.0016083613
-4.1049797E-4
0.0021831424
0.0024984977
0.001018389
-0.0031445916
-0.009807511
-0.012676661
-0.0052803224
0.0042646
0.008425257
0.011979836
0.012566791
0.008310283
0.0060074884
0.0035825812
-8.3331787E-4
-0.0031869279
-0.0052103107
-0.003922543
0.0030019796
0.009073174
0.014646587
0.015196886
0.0025581862
-0.012543629
-0.021947777
-0.024833992
-0.015082234
-0.0019090951
0.0015226803
0.0010840473
0.002528185
0.0027673165
0.0012032692
-0.0024573784
-0.008691258
-0.01053957
-0.0055566444
-7.7730505E-4
0.002409085
0.0045140726
0.007215123
0.011123601
0.00818769
-1.1077308E-4
-0.0064668874
-0.008600244
-0.0040632947
0.0015058569
0.0062007406
0.012925257
0.016646134
0.014982161
0.0055765887
-0.0071310545
-0.011622674
-0.009415008
-0.0059347185
-0.0024601484
0.0012011315
0.003509768
0.0052762353
0.009396011
0.004494262
-0.006769801
-0.011836443
-0.017091995
-0.011710526
0.0033930345
0.006722861
0.00910745
0.010691629
0.0057954676
0.006139412
-0.0035901177
-0.021243345
-0.017355887
-0.0027162721
-0.0031192887
-0.009108152
-3.7647135E-4
0.010554224
0.008228011
0.0033774714
-0.00224856
-0.007007282
-0.0041837012
-0.0012617595
0.0028236103
0.008717658
0.009670433
0.009664903
0.009471533
0.007263456
0.0018262488
-0.006543019
-0.0075641447
-0.0027511073
-6.139344E-4
0.0023705172
0.005478457
0.00581673
0.004737717
0.0013524774
-0.0045133997
-0.011402829
-0.012767083
-0.006125036
-0.00126175
7.737648E-4
0.0050248397
0.006738833
0.0052581104
0.0034557187
-0.0020575009
-0.0088617345
-0.009100583
-0.0032893536
0.0015630774
0.0024726642
0.0030857518
0.0056199725
0.006725368
0.0037732855
-0.002207463
-0.0072967447
-0.007559743
-0.003290115
0.00239364
0.0049358904
0.0035192028
0.0038020795
0.0047344663
0.0016590322
-0.0015277668
-0.0029132229
-0.0047307266
-0.005034983
-0.0023562473
0.0012936415
0.004716744
0.0064256205
0.0049117343
0.0033825259
0.0010920254
-0.0063066036
-0.010197853
-0.0053082877
-4.523738E-4
0.003561061
0.0067830672
0.0049741776
0.0032738475
0.0018469127
-0.0036974023
-0.0074804914
-0.0070193275
-0.004448413
8.141124E-4
0.004976973
0.005844134
0.0054336404
0.0048256116
0.003649132
-0.002300688
-0.010059045
-0.01154694
-0.004957115
0.0073485402
0.012081466
0.006323801
0.0044581005
0.0051145684
0.0051289033
0.0024981329
-0.008710466
-0.015474597
-0.010060448
-3.1908E-4
0.004094508
4.4400923E-4
0.0022917038
0.006968172
0.00624145
0.0015540585
-0.013876185
-0.018762099
-0.002542675
0.0047738315
0.0064222575
0.01156952
0.009463774
0.006527641
0.0045525013
6.775102E-4
-0.0025567643
-0.005147868
-0.004403724
-0.0021931352
-8.467458E-4
-9.946474E-5
8.3378487E-4
0.004347732
0.004936278
-5.339654E-4
-0.008396784
-0.013164291
-0.0076663042
5.2996346E-4
0.0027993238
0.0040484336
0.004990944
0.006306704
0.0060251043
-0.00157492
-0.0077717644
-0.006931777
-0.00463359
1.7578054E-4
0.005648544
0.007141277
0.0077962372
0.008381008
0.0060477923
9.13408E-5
-0.006437717
-0.008286818
-0.004266353
0.002890485
0.007079975
0.006276367
0.0058899177
0.004791555
0.0015070104
-0.0010133152
-0.0064021363
-0.010493759
-0.005645468
-0.0018621233
-0.003817675
-0.0018099197
0.0015649635
-4.916329E-4
-0.0022049444
-0.0031861328
-0.007754391
-0.009423376
-0.0061516473
-0.0025244707
0.0029391272
0.008050472
0.009038532
0.008418005
0.007507816
0.0038772787
-0.003708514
-0.008069977
-0.004772566
-4.3331203E-4
0.0041153375
0.009021692
0.009582121
0.0082970625
0.007998135
0.004696854
-0.003330903
-0.0066920794
-0.0034556286
-0.004333878
-0.0017754873
0.005717831
0.004041367
0.0015613387
0.0015024032
-0.0027635014
-0.0066037145
-0.009858728
-0.009105141
-0.007305438
-0.007952312
-0.0019097788
0.004460723
0.0072108866
0.0073083304
0.002942823
4.561189E-4
-0.01113627
-0.022194942
-0.008806882
0.0058181505
0.009886243
0.013341045
0.012291935
0.009891634
0.0035587167
-0.006540525
-0.010091111
-0.0075623477
-0.0025501095
6.458388E-4
0.0029489715
0.0057325214
0.006785472
0.007792723
0.002273718
-0.0068646134
-0.008184474
-0.005203356
-9.138928E-4
0.0030905367
0.0056202323
0.0066057565
0.004465927
0.004037762
0.0021301673
-0.0045717987
-0.008724637
-0.008083996
-0.0037124127
-0.001449826
-0.001199292
0.0038309803
0.008668354
0.007962525
-9.725482E-4
-0.0113714915
-0.01059355
-0.004572739
5.9009896E-4
0.004410451
0.005458761
0.0074522723
0.0069824737
0.0033376662
-7.948664E-4
-0.0075642136
-0.010813679
-0.009274577
-0.0071615907
-0.0022920077
0.0035740887
0.007443818
0.007735748
0.004501768
1.4662838E-5
-0.006772564
-0.011736231
-0.00823098
-0.0016099707
0.0025657455
0.0071076048
0.008841184
0.0073615145
0.009156159
0.005940254
-0.0049805613
-0.008357026
-0.0038448116
-1.7922872E-4
0.0018268565
0.0037008752
0.0052165235
0.003327929
0.0020680106
9.5929904E-4
-0.0069170417
-0.011518617
-0.008104861
-0.004520915
1.7437507E-5
0.0032907317
0.0045041353
0.0072518596
0.0065471185
0.0026524735
-2.3640001E-4
-0.004339044
-0.0055782795
-6.3363684E-4
0.0018917923
0.0015641511
0.004619153
0.006064541
0.005201474
0.0037624429
-0.0024562478
-0.0059189573
-0.003434099
-0.002389754
-1.4874348E-5
0.0026775459
0.0015516117
8.645852E-4
5.2487233E-4
-0.0020819867
-0.007329309
-0.01127491
-0.007923861
-0.0039288914
-0.004768826
-0.0021396244
0.0044977544
0.008464231
0.009010841
0.0037873231
-0.00501834
-0.007978157
-0.005773255
-0.0021026111
0.0032220376
0.005750459
0.0063393638
0.009026749
0.010464015
0.00779811
6.290162E-4
-0.008365139
-0.012080213
-0.0060856813
0.0034265898
0.0058611324
0.0055557173
0.009476526
0.010217122
0.0024732293
-0.01162142
-0.021079235
-0.01467763
-0.0023708406
0.0052216393
0.010701174
0.012895256
0.01008545
0.004960819
5.0416682E-5
-0.005545947
-0.009991442
-0.007290872
-0.0036610423
-0.004008624
-0.0020268338
-0.0016301435
-0.003983836
-0.002398421
-0.0017430698
-0.005760398
-0.009446926
-0.0075940783
-6.1536994E-4
0.0047268067
0.008969207
0.013507235
0.012208824
0.0066093607
0.0010384633
-0.003554695
-0.0053839847
-0.004993694
-9.4236614E-4
0.0039359084
0.004394655
0.006581552
0.010716974
0.009048754
0.0026607965
-0.004787188
-0.010008224
-0.011201052
-0.007851767
-1.0483777E-4
0.0042660935
0.0031879158
0.0030849904
0.002347901
-8.856186E-4
-0.0060328497
-0.013401495
-0.013773233
-0.004487219
2.2418189E-4
2.9877093E-4
0.0060117682
0.010635217
0.008472017
0.004266358
-0.0011453991
-0.0063226153
-0.0073805335
-0.0031828438
0.0028572774
0.006449453
0.007997729
0.008242623
0.0067514875
0.0019467379
-0.004903609
-0.0077074785
-0.0071959663
-0.005112449
-0.0010649035
0.0017515059
0.0047254604
0.0073310295
0.007027039
0.0030581192
-0.0061880397
-0.011147275
-0.006657716
-0.0014651208
9.1132184E-4
0.0010444495
0.0044841766
0.012555447
0.013576378
0.0034737105
-0.009383853
-0.013430438
-0.009325068
-0.0077125207
-0.005250106
7.4941537E-4
0.0045744255
0.0068960623
0.0059509766
8.105708E-4
-0.005108726
-0.010691887
-0.011577389
-0.0063542994
8.081919E-5
0.0056063356
0.008761997
0.009318377
0.009292639
0.0061002625
-0.0012344981
-0.0056715882
-0.0027044713
0.0026630065
0.004761912
0.0061274907
0.008139522
0.008581174
0.007455851
-1.1612367E-4
-0.010647463
-0.012648757
-0.01050859
-0.0076390323
-0.0018262571
0.0024453152
0.0050897296
0.0057616625
0.0037893015
3.5049953E-4
-0.006466962
-0.0127487965
-0.013540063
-0.0081816595
-0.0013258541
0.0011685847
0.003488311
0.006845265
0.008199297
0.0070712045
0.0016045757
-0.0044400687
-0.005493455
0.001376621
0.008553928
0.0071583595
0.007041548
0.008284999
0.0050645256
0.0021832772
-0.0025833067
-0.0049981778
-0.0039986335
-0.0026675211
5.3086004E-4
-0.0068313335
-0.012713913
-9.299963E-4
0.0051620943
0.0015062256
-0.002825455
-0.010382445
-0.011432267
-0.0055847997
4.3838E-5
0.005533556
0.009287351
0.01043496
0.0073228586
0.0024278336
-0.001865568
-0.0068788757
-0.0082752835
-0.0050874907
-3.8971546E-5
0.003700043
0.0038702968
0.0058011883
0.007743414
0.0032683057
-0.0041303937
-0.008595009
-0.0070412443
-0.003328897
-9.980495E-4
0.0038441727
0.007341145
0.0043298705
0.0012596278
0.0010655075
-0.0015297617
-0.005512682
-0.0040933853
4.6590716E-4
0.0025720515
0.004431759
0.006073856
0.007031555
0.00831414
0.0034768728
-0.0068516126
-0.013135688
-0.012308092
-0.00491513
0.0029340324
0.00621729
0.0075507793
0.005789521
0.0023366725
-1.2389936E-4
-0.0039533516
-0.008068953
-0.0104068825
-0.0066445167
-2.4989096E-4
-0.0011110641
-1.9722052E-4
0.005833886
0.006260115
0.0036755204
-0.0011809856
-0.0068196706
-0.005439852
-0.0016781408
0.0013034134
0.005077405
0.006926682
0.0080076875
0.0069991513
0.0027030853
1.9073483E-5
-0.0036396554
-0.008410529
-0.0053783716
1.9464092E-4
4.5536118E-4
0.0025536434
0.006814207
0.006447296
0.0015757699
-0.0051750476
-0.009548421
-0.0089917
-0.004253404
0.0018215573
0.005218334
0.006963271
0.006988423
0.005352735
0.004017538
-0.0018383155
-0.00812542
-0.006834847
-0.0043675792
-0.0027449017
-9.3688904E-8
0.002239582
0.006182205
0.0070402585
5.525747E-4
-0.006534661
-0.010948512
-0.011795162
-0.006886627
0.001108408
0.0071480433
0.009455397
0.010564807
0.010410173
0.0057104905
-0.003193365
-0.011289109
-0.010859297
-0.0037940587
4.92672E-4
0.004365235
0.009032755
0.0090630585
0.008080992
0.0051129716
-0.0033306999
-0.009723316
-0.011316188
-0.009608034
-0.0039856504