0.0012066815
-0.0017748099
-0.0014737254
-4.1151082E-4
-0.0021221826
-0.0021013082
-6.091575E-4
-7.256702E-4
-0.0012738663
-0.0026555483
-0.0037773238
-0.001762841
-3.503804E-4
-3.3202267E-4
0.0012822562
3.071088E-4
-0.0012291176
0.0013025708
0.0020190724
8.8308076E-4
1.8300048E-4
-0.0016999681
-0.0010648158
-7.494579E-4
-0.002817718
-7.477854E-4
0.0013505805
6.7740405E-4
0.0020387722
0.0025464268
0.002399142
0.0026805848
1.9319476E-4
-6.4414233E-4
-1.3569588E-4
-0.0018238311
-6.182679E-4
0.0012965526
5.7991132E-5
-4.3054912E-4
6.892647E-5
6.1025546E-4
5.804342E-4
-3.237248E-4
-4.179699E-4
-2.3918219E-4
-2.164552E-4
-0.0016845997
-0.0029438913
-4.6311252E-4
9.607106E-5
-0.0011251495
6.033566E-4
1.9431785E-5
-8.281586E-4
0.0012087375
-4.219049E-4
-0.0021646204
9.723548E-4
0.0032468878
0.0028092118
0.0016755335
4.155052E-4
-1.0109692E-4
-0.0015816382
-0.0033427544
-0.0013960734
8.4361894E-4
-3.4843961E-4
-2.6884789E-4
0.002640063
0.0036082077
9.600193E-4
-0.0016543819
-0.0016978192
-0.0012412361
-0.0016479231
-0.0013152084
1.4666321E-4
2.419335E-4
-7.812659E-4
4.2803347E-4
0.0012743964
-0.0011884682
-0.003452648
-0.0031352513
-9.3972025E-4
1.8182209E-4
3.5468576E-5
0.0012545618
6.559942E-4
-0.0013244227
-3.30411E-4
7.616106E-4
0.0014556652
0.002685527
0.0010674958
-7.362526E-4
8.235443E-4
0.0018123565
8.559673E-4
6.4200145E-4
6.0577784E-4
-4.3825803E-5
-5.42831E-4
-4.8702504E-4
-1.3087879E-4
-3.656064E-4
6.7788304E-4
0.002437078
0.0018881133
0.0018010325
7.3458937E-6
-0.0048104795
-0.0038346846
5.160192E-4
9.2730677E-4
-0.0010279877
-0.0032437567
-0.0014526644
0.0018987833
3.635971E-4
-5.608724E-4
0.0013170616
9.3323836E-4
-8.3188195E-4
-0.0014510999
-4.9745094E-4
8.451407E-4
7.4466073E-4
-7.944238E-5
2.7764204E-4
0.0010819925
6.407422E-4
2.7249957E-4
-3.0789638E-4
-0.0015869966
-7.698392E-4
-6.2070857E-4
-0.0026288566
-0.0019233631
-2.7934822E-5
3.6427676E-4
6.7404786E-4
7.607329E-4
3.2469523E-4
-6.5667235E-4
-0.0010829809
-0.0010621677
-0.0012327377
3.6775135E-4
0.0014820854
0.0010423453
0.0012682657
2.9147955E-4
-3.5377144E-4
8.4114E-4
0.0013626788
0.0014564192
9.844919E-4
9.2640315E-4
0.0020216599
0.0021196464
7.727258E-4
-0.0011426135
-0.0011074186
-6.767785E-4
-0.0017777337
1.2858195E-4
0.002127706
4.831759E-4
-2.8792748E-4
5.8099326E-5
-3.1679203E-5
-0.0014420284
-0.0041463985
-0.0045880936
-0.0028785476
-8.505329E-4
8.4631046E-4
0.0011042265
7.412179E-4
2.617471E-4
-2.1238379E-4
-9.581515E-4
-0.0021280388
-0.0016948828
-3.4929428E-4
7.6408155E-4
0.0021240069
0.0012480983
-7.511899E-4
1.9553129E-4
0.0018868196
0.0024216964
0.002116204
2.4004326E-4
5.299585E-4
0.0029650833
0.0027560673
0.0014842125
-2.1249359E-4
-0.0014058298
1.9563605E-4
4.263801E-4
-9.7877E-4
-0.0019579655
-0.0018820409
0.0010082489
0.0021423954
0.0016473813
0.0020469548
1.9931998E-5
-5.050687E-4
2.6263084E-4
-0.0012729444
-0.0012627132
-0.0016074161
-0.002227133
-5.512776E-4
3.9593258E-4
6.6276256E-4
-8.13366E-4
-0.0025077497
-9.036932E-4
1.3201154E-4
-3.0261472E-5
-3.0072368E-4
-8.426908E-4
7.097122E-5
-3.4427329E-4
-0.0016034945
-5.727658E-4
-5.842796E-4
-0.00213485
-0.0028240213
-0.002954437
-0.002230314
-0.0012911189
-6.364644E-4
8.9043286E-4
0.0015721233
7.873514E-4
0.0018539113
0.0038558275
0.0032948046
0.0021384151
0.003313872
0.004263167
0.0031909058
0.0024892425
9.593792E-4
-0.0010245584
7.4803E-4
0.0016344171
-8.287901E-4
-5.463775E-4
0.0016436395
0.003442441
0.0045358385
0.0023925768
-0.001032458
-0.0039363033
-0.006551026
-0.007591869
-0.007556983
-0.006420053
-0.0050153267
-0.003910132
-0.0012202846
3.7550137E-4
-3.4081365E-4
-1.5378589E-4
-3.7549016E-5
-6.388482E-4
-3.97905E-4
7.4454455E-4
0.002393237
0.0029876374
0.003153697
0.0048929425
0.005267983
0.0018780685
-0.0016121508
-0.0018544848
-0.0012294085
-0.002193773
-0.0016419516
7.33942E-4
8.068117E-4
5.0295406E-4
0.0014759549
0.0013940783
0.0018343334
8.0845767E-4
-0.002911901
-0.0027363037
-3.3293344E-4
3.436128E-4
0.0015907414
0.0013838279
5.8324233E-4
0.0014018574
3.3162498E-5
-0.001615922
1.09686815E-4
0.0013740737
4.894429E-4
9.119397E-4
0.0024453274
0.0026787994
0.001771037
-3.5998775E-4
-0.0015223192
-9.1851654E-4
-0.002048269
-0.0026846312
-0.0025689055
-0.0046421066
-0.0041479445
-0.0017143784
-0.0019198194
-0.00184459
-1.2535352E-4
0.0014445719
8.07607E-4
-5.422985E-4
0.0010814687
0.001479595
-1.5433876E-4
0.0012868876
0.002132763
3.0207276E-4
-5.089974E-4
-9.681933E-4
-0.0010865934
-1.2841079E-4
2.2886124E-4
3.5434117E-4
0.0014610348
0.0030277062
0.0029520204
0.0012349309
7.4887596E-4
0.0010067263
0.001247608
0.001644819
6.957298E-4
3.7409202E-4
4.2346388E-4
-6.7498616E-4
7.4049894E-4
0.0013020125
-0.0016534947
-0.0011351139
9.5377385E-4
-3.8006197E-4
-5.1962305E-4
0.0014545772
0.0013868506
-2.59526E-4
-0.001385604
-0.0019527765
-0.0017289178
-0.0018098362
-0.002979468
-0.0020984067
-9.2434224E-5
4.6358447E-5
-2.1295111E-4
-7.058858E-4
9.853413E-4
0.003693331
0.0011980085
-3.5940495E-4
9.4507774E-4
-9.580702E-4
8.6793356E-5
0.0034570142
0.0026899197
0.0015507692
9.262154E-4
-8.298658E-5
-0.0013264221
-0.002140354
-0.0012789323
-0.0013132374
-8.622975E-4
-2.630604E-4
-7.875854E-4
0.0014490808
0.0017589575
-4.919372E-4
2.650467E-4
9.685829E-4
0.0017707343
0.0021419737
6.349899E-4
0.0012121431
0.0013687967
-2.0633977E-4
-6.552287E-4
-0.0013143956
-0.0024562224
-0.0027029775
-0.0013991459
2.847307E-4
0.0015182261
0.0022778867
0.0012793323
-1.7629388E-4
-0.0012252477
-0.0023594687
-0.0031455345
-0.003563708
-0.0026231043
-0.0018729507
-0.0013539366
0.0017663947
0.0038614757
0.0020179825
6.092166E-4
0.0018853892
0.0016520642
1.9751678E-4
0.0016998139
0.00259802
0.001962649
0.002297342
0.0022048848
0.0021532432
0.001143137
-5.389816E-5
-4.4354686E-4
-8.6455024E-4
-0.0018426229
-0.009659614
-0.013211382
-0.0023964017
0.0026505415
9.6771604E-4
0.0023125305
8.221786E-4
0.0011641016
0.0014921876
-0.0019127821
-0.0021401609
-0.0012221581
6.924589E-4
0.002879288
0.0023234817
0.0020741716
0.00125914
7.0267945E-4
4.1248163E-4
1.0427615E-4
0.0024091369
0.0019084334
6.753226E-4
0.0034160153
0.003983007
0.0025387758
-1.990987E-5
-0.0030133317
-0.0028519244
-0.0030422253
-0.0028637378
-0.0012816627
-0.0019220267
-0.0011949076
9.219955E-4
0.0010055328
8.131366E-4
0.0010953466
0.0019502367
8.396706E-4
-9.7320246E-4
0.0019819855
0.0030389307
1.7104032E-4
4.9455365E-4
-4.2263346E-4
-0.0024311626
-0.0013583848
-0.002411359
-0.0031066823
-6.622472E-4
1.7206138E-4
7.5797376E-5
2.5373162E-4
-2.8988166E-4
-0.0021885757
-0.0029407283
-5.934771E-4
-0.001114204
-0.0024391233
-7.1224646E-4
-0.0023116472
-0.0034891458
-9.986616E-4
-5.135286E-4
6.97927E-5
0.0013777103
0.002521547
0.0047754995
0.004960644
0.004237011
0.0046687974
0.006060396
0.008130238
0.0059862183
0.0022201205
0.0014511179
1.6484823E-4
-3.3130872E-4
5.7576166E-4
5.6470896E-4
-2.929504E-4
-0.0023006073
-0.0027050755
-0.0028460543
-0.0041251504
-0.0050321585
-0.008753531
-0.008917025
-0.004142647
-0.0037755582
-0.0033014028
-0.0020095194
-0.0023864107
-9.44251E-4
-5.0740317E-4
7.3161547E-4
0.0013358111
8.152355E-5
0.0022507284
0.002817145
0.004490736
0.008449175
0.008480312
0.010533294
0.009792918
0.004673548
0.0021713874
-0.0028579184
-0.00634436
-0.006327387
-0.0046956902
-0.0028511507
-0.0104467925
-0.012136376
-4.4292447E-4
0.0036056715
0.002660957
0.0021307531
-0.001218697
-0.0017054786
-0.001235546
-0.0014682101
-0.0012071243
-9.4835984E-4
1.15913565E-4
8.216035E-4
0.0025664368
0.003603949
0.0031336357
0.005030643
0.0063019022
0.005087118
0.002928236
0.001428981
0.0024104426
0.0027611041
6.7313586E-4
-0.0033041802
-0.006965912
-0.0077182474
-0.007085683
-0.0048815086
-0.0029830753
-0.0025952843
-0.0014796641
-0.0020470484
-0.0017863688
7.0766744E-4
2.8732093E-4
-6.595962E-4
-9.854039E-5
6.156966E-4
0.0015824584
0.0018947208
0.0022310417
0.0016526569
7.9831446E-4
0.003869429
0.008609467
0.009880472
0.009474784
0.009994383
0.0054800333
-0.004281239
-0.009335011
-0.010113244
-0.010619275
-0.009478884
-0.0074438173
-0.00573817
-0.005943072
-0.00420923
6.471724E-5
-5.6430895E-4
-5.9089053E-4
0.0019478397
3.9075414E-4
8.813122E-4
0.002675708
-4.9724153E-5
-0.0023893735
-0.0039516822
-0.004001875
0.0023774125
0.011298773
0.01827164
0.02448741
0.022094855
0.00748425
-0.0010657378
0.0017242841
0.0037304698
-0.0016272565
-0.019056309
-0.0304788
-0.020696256
-0.010446126
-0.0063164905
-0.0030829997
-0.0042763744
-0.0036997602
-8.6748664E-4
0.0024379636
0.0073226416
0.008009535
0.00595687
0.005501977
0.006338804
0.0059816553
0.0023177797
-0.0014235233
-0.0041606934
-0.0040090904
0.002943838
0.013641256
0.021807838
0.023038553
0.015259734
-0.0031146882
-0.02053206
-0.021537336
-0.01631652
-0.013579917
-0.00863498
-0.0055223815
-0.003936584
-0.0016377002
5.7807716E-4
0.0040148334
0.0032641683
-0.0012441906
-0.0030416367
-0.00411697
-0.005553576
-0.0033443596
0.0023520065
0.0044927187
0.002367062
0.0015230952
2.7252283E-4
6.225399E-5
0.0040091425
0.0068563707
0.0072759124
0.0057222457
0.001156972
-0.0021926146
-0.0024928895
-8.995281E-4
0.0016828371
0.0028904988
0.0033036836
0.001649897
-0.003640147
-0.005334425
0.0013729591
0.01252296
0.020241825
0.022128949
0.018941289
-0.0018975266
-0.029361578
-0.028307712
-0.012028688
-0.006778884
-0.00422194
-0.004204491
-0.008739131
-0.012424326
-0.014747131
-0.008551758
0.001923246
0.0030301672
9.572947E-4
0.007556043
0.0163904
0.016089704
0.011600414
0.0058958544
-0.0050813844
-0.012955676
-0.012510156
-0.007154488
7.800351E-5
0.0045658424
0.006785701
0.008714233
0.010758506
0.012503492
0.009424302
-9.312392E-5
-0.010168612
-0.01189677
-0.0068218084
-0.0013639688
0.004658589
0.0055334214
0.0019000462
0.0010050066
-0.0027398977
-0.0075257677
-0.005737592
-0.002141733
-0.002767046
-0.0044860723
-3.1100304E-4
0.005459264
0.008278453
0.01119487
0.010911898
0.0075454367
0.0021491975
-0.006697824
-0.012505875
-0.012486079
-0.008523136
-0.005084562
-0.0058322693
-0.0032841803
0.0058935587
0.0148929795
0.01579561
0.007691897
1.1302989E-5
-0.004461091
-0.0076933117
-0.0076541156
-0.0065337205
-0.005386742
-0.0035817963
-0.002260576
-0.0016256289
-0.0023005712
-0.0012065016
0.003531129
0.006271419
0.003662406
-3.4608223E-4
-2.5446556E-4
0.0025672386
7.903534E-4
-0.0049338713
-0.0062456797
-0.0025995416
0.0036831552
0.011240737
0.012210234
0.007840175
0.005187443
-3.6990145E-4
-0.0068132346
-0.0068021044
-0.004559577
-0.005195762
-0.0067937328
-0.002437987
0.00647813
0.0088151
0.0046252897
-0.0013018852
-0.006823215
-0.0038308804
0.006665062
0.014151124
0.016035974
0.009473387
-0.0050042616
-0.013365394
-0.0121754175
-0.011007619
-0.009229022
-0.006367243
-0.0063027805
-0.0037462441
0.0011043377
2.2593047E-4
-0.0023008503
-0.0011519927
-0.0014284838
-0.0035069122
-0.0019812572
0.0030447403
0.0069815256
0.008364684
0.0065361615
-0.0021051336
-0.008934306
-0.0038822594
0.0020962076
0.0051318146
0.010993593
0.013177508
0.011591804
0.009194739
0.0020041494
-0.0053281644
-0.0037025278
0.0018162534
-0.003860329
-0.009618829
2.7031216E-4
0.0023967254
-0.008964823
-0.011445881
-0.008373757
-0.005111074
3.2625572E-5
0.0025524125
0.0047208513
0.0059338636
0.006043015
0.009864488
0.012922206
0.009428199
0.0019313216
-0.0048233354
-0.011375441
-0.014955322
-0.008941785
-0.0013249259
-9.95237E-4
-0.0047456464
-0.009389279
-0.009196727
-0.0023389051
0.002482923
0.0016523171
-3.9167688E-4
-4.8068629E-4
-2.6315884E-4
-0.002599718
-0.0057385177
-0.0054512066
-0.0014082985
0.002315955
0.003779316
0.0042459015
0.0032825158
0.0033426713
0.008296772
0.012600157
0.012919814
0.015457827
0.020775173
0.025518358
0.019109232
-0.00715017
-0.025823386
-0.019095527
-0.0127003165
-0.011290372
-0.0057595875
-0.0042993566
-0.0031455425
-7.316442E-4
6.0822663E-4
0.0049639116
0.0046462226
0.0015175529
-5.133483E-4
-0.01125365
-0.020765148
-0.01769025
-0.011283693
-0.005718437
7.4130757E-4
0.006781653
0.007945218
0.0036175784
2.0537408E-4
-0.0016617716
-0.0021875172
-5.075222E-5
1.5458417E-4
-0.0022120092
-0.0033005963
-0.0021626598
-8.3492097E-4
4.1898555E-4
0.0040859077
0.006449631
0.005065965
0.00502324
0.0069735656
0.008612489
0.009639683
0.01001946
0.008882864
0.0067041744
0.0068075233
0.0055382266
0.0011105263
3.7306658E-4
-0.0015851893
-0.0073461714
-0.009038648
-0.011543509
-0.015407515
-0.015751045
-0.018911028
-0.020817477
-0.01565013
-0.009620875
-0.003814874
0.0024707706
0.00960467
0.01586385
0.018062966
0.021501614
0.02449092
0.022002656
0.017748075
0.011499706
0.003126152
-0.006865527
-0.01651978
-0.02229941
-0.029756542
-0.035537057
-0.03275849
-0.027513849
-0.020133961
-0.010581448
-0.001933907
0.0020402041
-0.008985485
-0.020792365
-0.007326842
0.02055327
0.044561226
0.06656579
0.08377134
0.09045223
0.08742743
0.0757603
0.060159158
0.044456758
0.023770703
-0.0052570775
-0.030627279
-0.041191686
-0.048485972
-0.05943385
-0.06959316
-0.07939819
-0.077077545
-0.06486162
-0.064176254
-0.07171316
-0.07712991
-0.07607942
-0.06531991
-0.05054528
-0.03626893
-0.026672918
-0.011502339
0.022281801
0.055990342
0.080810234
0.106277674
0.12290358
0.13118352
0.14221337
0.14016812
0.11745085
0.09176002
0.057705704
0.00844244
-0.037405454
-0.06866897
-0.07821219
-0.07518485
-0.076790474
-0.07191816
-0.058948573
-0.047526065
-0.04558689
-0.056288272
-0.04880603
-0.017702956
-2.353868E-4
-0.014009168
-0.0352803
-0.014308531
0.028939242
0.037522003
0.039065525
0.056454826
0.06456942
0.063248344
0.055816263
0.03242763
-0.0018927351
-0.021042433
-0.02626811
-0.041985545
-0.04530848
-0.024227604
-0.015856177
-0.023744563
-0.025265802
-0.020584216
-0.018503187
-0.022201816
-0.033179276
-0.040187623
-0.029104263
-0.019077038
-0.019549929
8.3621853E-4
0.03787696
0.048667107
0.043971434
0.07533036
0.12624869
0.13936059
0.12111515
0.09774033
0.06045453
-8.4337464E-4
-0.06840312
-0.10288603
-0.10626554
-0.107704036
-0.0971082
-0.068144724
-0.03225486
-0.0011387572
2.1274203E-4
-0.026734708
-0.05516449
-0.068099804
-0.053172942
-0.020541156
0.001284631
0.011142317
0.029717015
0.048512764
0.043083113
0.028353857
0.02684421
0.034270454
0.048606064
0.06635371
0.081283934
0.09589952
0.098972134
0.0694504
0.014721527
-0.032686625
-0.05905037
-0.06797582
-0.061737698
-0.054233987
-0.0530504
-0.051385902
-0.046799947
-0.037097074
-0.028066186
-0.025696207
-0.02537706
-0.026301919
-0.022130964
-0.010866931
-0.0028017543
0.0041350354
0.013399558
0.020525573
0.02412187
0.025566466
0.025479784
0.023208352
0.022835417
0.023427349
0.019232282
0.0144049935
0.010568034
0.007133508
0.004741533
-6.322966E-5
-0.0022685546
7.8549306E-4
0.0051521
0.010699706
0.008951027
-3.349443E-4
-0.004472536
-0.0050442438
-0.005105272
-0.0024603738
-1.015732E-4
0.0019771818
0.004461533
0.005612386
0.0047520264
0.001680889
-0.002560683
-0.0061543235
-0.007459852
-0.009658072
-0.014134753
-0.015054061
-0.013652272
-0.012427909
-0.010092251
-0.008992073
-0.006743759
-0.0029325814
4.7495237E-4
0.00567911
0.010204602
0.014385881
0.015296314
0.0082616545
0.003476778
0.00298054
0.0016801327
0.002531048
0.0029508534
7.643853E-4
-0.0020356153
-0.0037805259
-0.0041483636
-0.0039551137
-3.5073183E-4
0.0032670575
0.004199794
0.006074936
0.006377639
0.0068309484
0.0069240495
0.0010854137
-0.005010645
-0.008947275
-0.012503434
-0.013228121
-0.012775348
-0.012048629
-0.009010416
-0.0039938646
-9.760425E-4
-0.0011458114
3.678407E-5
0.0036812192
0.009638376
0.017557273
0.023708286
0.024223162
0.01721264
0.008548994
0.002137069
-0.0063557443
-0.01695311
-0.02520875
-0.02235696
-0.0066519636
0.010029651
0.023854027
0.033164974
0.031298056
0.022464588
0.010753775
-0.007999632
-0.028541902
-0.03740453
-0.032910794
-0.022965044
-0.013833303
-0.008631574
-0.002105636
0.0054644747
0.0055088326
0.0031959768
0.0031840466
0.0019977167
0.0016561018
0.0016695778
0.0010003266
4.079005E-5
-0.0018731946
-0.0021553172
-0.0015411173
1.6567625E-4
0.0036585121
0.0049183574
0.0059339236
0.0074948347
0.0069757965
0.0067641702
0.0067704953
0.0070381067
0.00826146
0.0074191317
0.0045992252
0.0015970819
-8.965587E-4
-0.0014994601
-0.0010705264
-0.0029160508
-0.005930126
-0.006716246
-0.00756459
-0.00786049
-0.005450894
-0.005305857
-0.0066520697
-0.005562655
-0.005196792
-0.006875491
-0.007379631
-0.0054352046
-0.005119137
-0.0060454523
-0.0023342904
0.0028839386
0.0052672694
0.0064568226
0.0075495346
0.008875943
0.007333338
0.003423431
0.0031045673
0.005014325
0.006950962
0.011340518
0.013439871
0.006466196
-0.001785034
-0.0029237482
-0.004811427
-0.009140969
-0.008150916
-0.0045574154
-0.0024136854
-0.0012355619
-1.4922829E-4
0.0011209481
6.4441025E-5
-6.127506E-4
8.524288E-4
-3.1691315E-4
-0.0021781903
-0.0025789395
-0.0032419888
-0.003370596
-0.0038937468
-0.0050158515
-0.005770841
-0.0061884723
-0.006393887
-0.0057059554
-0.0024860404
-5.973996E-4
5.783462E-4
0.0052709053
0.005943877
0.0017024216
-0.0013692898
-0.002780366
-0.0011825144
-9.2697196E-4
-0.0013315898
0.0014229155
0.0012393858
0.0021141174
0.0074197133
0.012679671
0.01855248
0.020180171
0.01717093
0.012977154
0.0041025323
-0.005902179
-0.011288004
-0.012505972
-0.012501699
-0.010895227
-0.0064786617
-0.0032350114
-0.0016350842
-0.0028136459
-0.004948864
-0.0027524612
-0.0015478692
-8.889865E-4
9.918578E-5
-0.0024236552
-0.0031894103
-0.0024026071
-8.2584826E-4
4.0793323E-4
0.0014093224
0.0075497124
0.007830933
0.0026797978
0.001212558
-0.0019698963
-0.0026041311
-0.0044960873
-0.006405474
-0.0032621797
-0.009521987
-0.008420923
0.004083932
0.002282762
1.7764042E-4
0.0017172693
-9.1693894E-4
0.0014911583
4.6215332E-4
-0.002009291
8.5426995E-4
0.0026163983
0.0047406885
0.0043439846
0.0042778444
0.009250549
0.012289749
0.013177184
0.01097004
0.006200062
0.0029699178
-0.0029078233
-0.008975475
-0.008702388
-0.005324672
-0.004282562
-0.005630678
-0.0061362437
-0.0056996415
-0.005563329
-0.0043810816
-0.00123019
3.2436504E-4
-4.8055022E-4
0.0013693112
0.0018141223
-0.0015056464
-0.0012034626
9.853424E-5
3.8390385E-4
0.0024072004
0.0025362577
0.0032058493
0.0052170437
0.0030836926
3.659164E-4
-1.01910555E-4
-0.0017199677
-0.0038817637
-0.004946894
-0.0059333644
-0.005810401
-0.004069949
-0.0032631424
-0.0021848273
-6.588435E-4
-2.029132E-4
0.0016841529
0.0026959975
0.0022838062
0.0034376355
0.002042097
-3.91864E-4
-6.386663E-4
1.18870455E-4
0.0044049616
0.008658783
0.010305086
0.011530481
0.01089382
0.010218166
0.006972254
1.6485901E-4
-0.004336176
-0.008193799
-0.009368496
-0.0070811184
-0.0064387545
-0.0042775506
-0.0035044977
-0.0057094465
-0.0039252276
-0.0020476475
-0.0025558637
-0.0012308869
8.3326624E-4
-3.4120577E-4
-0.0040932563
-0.0037591078
-0.0014123436
-0.0015890795
-6.594669E-4
1.2388953E-4
9.556004E-4
0.0027028655
0.0021145015
0.0022352939
0.0027151345
0.0020714283
0.0021008612
0.0010367549
0.0015749432
0.0021713385
-3.1153805E-4
-5.9457833E-4
-7.573942E-4
-0.0014397304
3.1286292E-4
-7.754998E-4
-0.0032119765
-0.002067105
0.0011349083
0.00446421
0.0048077237
0.0020023976
6.7247153E-4
0.002536829
0.0045671966
0.0052085444
0.0060402835
0.0063659106
0.00549838
0.002885638
-0.0020427385
-0.006269965
-0.008804191
-0.008925102
-0.0060527045
-0.0040533235
-0.0040778997
-0.005155216
-0.0055648857
-0.0041172793
-0.0023661442
1.990079E-4
6.645071E-4
-0.0016920133
-0.0014821687
-8.961924E-4
-4.2478097E-4
0.002037805
0.0020066332
9.1958675E-4
0.0023147985
0.0034094073
0.0031733874
0.0031565735
0.0035121716
0.004237257
0.006258428
0.0074062035
0.006465647
0.006273567
0.00571043
0.003353849
1.12726244E-4
-0.0040258663
-0.006607129
-0.0068153436
-0.006789115
-0.006884721
-0.0059510227
-0.0036066163
-0.0019333469
-8.3460886E-4
3.1110478E-4
-5.703113E-5
-2.8291865E-5
3.8185066E-5
-0.0014935804
-9.882681E-4
2.3018198E-4
-0.001134327
-0.0014645256
6.630942E-4
0.0017614175
5.588348E-4
-0.0012978333
-0.0020736323
-9.6076826E-4
0.0011361678
0.0028775895
0.0037363698
0.0026638827
7.7631936E-4
6.300044E-4
0.001088081
6.936522E-4
8.818037E-4
0.0017874716
0.0010874532
-3.2636398E-4
7.095801E-4
0.0014994066
-0.0010511428
-0.0027733967
1.3212881E-5
0.004408513
0.005856959
0.004842655
0.0053518154
0.0055935923
0.0039159073
0.0023270072
-0.0032302476
-0.009326103
-0.0082359295
-0.0062503736
-0.004626788
-0.0012636269
-0.0016319206
-0.0031299267
-0.0023913386
-0.0012414389
-7.676669E-4
-0.0013194632
-5.558335E-4
5.2936968E-5
-0.0012588677
-0.0031809004
-0.0036906512
-6.66516E-4
-4.384591E-4
-0.0018307121
0.001555941
0.0025501354
0.0018243252
0.0029088182
0.002926165
0.004305356
0.00462938
0.0035809153
0.0043589957
0.0043492196
0.0033917653
0.0015953454
-7.8565464E-4
-0.0010928066
0.0018548024
0.0034579206
0.0013003484
0.0013953837
0.001082771
2.1439906E-5
0.0014081756
-6.251381E-4
-0.0011933169
-0.0011635494
-0.0025844104
1.8244373E-4
-0.0055275564
-0.012810861
-0.010463537
-0.009737644
-0.0031231665
0.0039014195
0.0018601291
0.0035804824
0.0040885336
0.0035000294
0.0049973335
0.001372777
7.99867E-4
0.0025651238
0.0010382977
-7.779284E-4
-0.0032062575
-0.002599467
-0.0018284346
-0.0039845477
-0.0038609942
-0.0025237452
-0.0022942142
-0.0027569688
-8.586218E-4
0.001532096
5.8808667E-4
0.0015338698
0.0018597512
5.0376763E-4
0.001936435
-3.6849713E-4
-0.003419416
-0.0015330565
-5.5721076E-4
-4.979806E-4
8.8835775E-4
0.0049764994
0.009584748
0.011398472
0.014745714
0.014808174
0.00858837
0.005781449
0.0031324413
-0.0048235888
-0.011785569
-0.014199593
-0.013686255
-0.011592559
-0.007169456
-0.003744656
-0.0028570916
-7.8523945E-4
-0.0011996082
-0.0028207018
-0.0015228549
-0.0036074813
-0.0066054785
-0.0044158283
-2.1753523E-4
0.0011908672
-0.0011305098
2.3652439E-4
0.0035484093
0.0013467091
0.0014426964
0.0053194026
0.005557078
0.0031971235
0.003559938
0.0064873216
0.005237838
0.0031394525
0.0039034735
0.0014415089
-0.0017369303
-0.003029839
-0.002871087
-0.0017358618
-0.003215546
-0.0026870677
-7.208261E-4
-0.0012530219
2.4261275E-4
0.001291052
0.0011023872
0.0011012492
-3.176596E-4
-1.0979315E-5
-2.9379985E-4
-6.9898355E-4
5.341532E-4
-8.274442E-4
3.837908E-4
0.002344176
-0.0010806401
-0.002910799
-0.002684661
-0.0021373462
-4.2757118E-4
-0.0010479094
-0.0017943073
-0.0010580472
8.560866E-5
0.0010215479
-5.1751826E-4
-0.0012437113
-8.2792144E-4
-0.002254919
-0.0015055379
5.258827E-4
4.998443E-4
0.0017500038
0.0034665656
0.0022066266
6.0067367E-4
8.6926005E-4
9.515265E-4
2.526558E-4
-8.3617953E-4
-0.0014003813
4.93191E-4
0.0012238979
-7.0560956E-4
-4.8599322E-5
0.0014523324
0.002014954
0.004071851
0.0037885357
0.0025357306
0.0041099405
0.0036720904
0.0028043177
0.004002747
0.002148767
-6.1553664E-4
-0.0010512773
-9.121321E-4
-4.4621073E-4
-0.0019624005
-0.0043652235
-0.0040055653
-0.0029193833
-0.002429506
-0.0022907932
-0.0018011244
-3.2811693E-4
6.025425E-4
0.0012360924
0.001050873
5.3947663E-4
0.0010432833
9.388108E-4
0.0013041452
-3.4568485E-4
-0.004957166
-0.006044837
-0.0059372303
-0.0071929344
-0.007735441
-0.007939502
-0.0047353874
6.0620724E-4
0.0063528274
0.011559542
0.011405695
0.010303027
0.007288981
-0.0022469515
-0.008939773
-0.0100973025
-0.008349898
-0.00505516
-0.0043266225
-0.0016935956
0.0065571037
0.016013978
0.021980306
0.026421295
0.03152647
0.023993995
0.0033606347
-0.0113515835
-0.018137747
-0.018031465
-0.009267574
-0.001908308
4.063657E-4
5.1653007E-4
-0.0013138332
-0.0041427896
-0.0079785455
-0.010494102
-0.00997934
-0.008876981
-0.0075296615
-0.0057471283
-0.0056331055
-0.0067248438
-0.0067438167
-0.006437317
-0.007384384
-0.0076872017
-0.003050219
0.0033572477
0.004428046
0.005413362
0.007445139
0.0045962245
0.005726583
0.010260271
0.005805627
-5.0008856E-4
-1.4964439E-4
0.0018458891
0.0012630532
-6.680109E-4
5.211816E-5
0.0030447925
0.0064913933
0.011606493
0.015218349
0.016027616
0.020048944
0.019592062
7.348996E-4
-0.018190786
-0.013355449
0.0016829405
0.007361824
0.0043502576
-0.0012524654
-0.006469378
-0.008475079
-0.0049548317
-0.004877077
-0.015655577
-0.023432925
-0.01923817
-0.014767447
-0.014564946
-0.010096312
-0.0019617723
0.0025579985
0.004345838
0.0071182377
0.010811578
0.011990465
0.010117574
0.0077976556
0.0021822974
-0.00479067
-0.007108375
-0.008359186
-0.009391424
-0.0047024465
0.003926924
0.009523526
0.013670988
0.02066082
0.024154533
0.020158192
0.0067418064
-0.013696376
-0.020316398
-0.0106801065
-0.004476667
-6.045315E-4
0.0054709767
0.006847391
0.0051203473
0.00428045
0.0010277033
-0.006324062
-0.013012585
-0.014851157
-0.009915429
0.0020764219
0.013962939
0.0182071
0.014821385
-0.0016942306
-0.03540079
-0.057773296
-0.04212439
-0.013177839
0.003193057
0.013339331
0.018589895
0.014644893
0.008803937
0.010822022
0.016492017
0.018736186
0.023385102
0.02828993
0.027947241
0.025023596
0.01659249
0.0040164525
-0.0146250995
-0.036954466
-0.03532034
-0.008295957
0.013282976
0.018718144
0.013918748
0.0074305222
0.0017358356
-0.007148635
-0.015606949
-0.022657154
-0.026060412
-0.020171821
-0.01341268
-0.011530375
-0.010567363
-0.0097455485
-0.008710045
-0.00782056
-0.005069029
-6.657103E-4
0.0019158488
0.0063998993
0.010719684
0.010525577
0.008732726
0.0049180267
0.0028965024
0.0035882264
0.0022817394
0.0025070368
0.0028243319
0.0024282667
0.005384028
0.010560808
0.020375954
0.032575462
0.041782014
0.04428246
0.031140083
0.0044775032
-0.025913838
-0.042681187
-0.02931201
-0.009427537
-0.0046698167
-1.9286838E-4
0.004225514
-4.0273825E-4
-0.005735234
-0.008055028
-0.012339326
-0.01902358
-0.023154039
-0.022801304
-0.020649388
-0.016889254
-0.011277652
-0.0051908647
8.120722E-5
0.004994215
0.01179222
0.017151834
0.01834076
0.019159967
0.018984163
0.017536636
0.019526834
0.021765042
0.0126625765
-0.0074525173
-0.016787395
-0.008053466
-7.924747E-4
-0.001018536
-0.0022829424
-0.0029426003
-0.0040639713
-0.009066448
-0.01236671
-0.0120160915
-0.01063758
-0.0046093925
-0.0012770494
0.0017539684
0.006416363
-0.0024287025
-0.0068226857
0.0057570827
0.011055671
0.009753691
0.011773096
0.0112289
0.009415126
0.008926812
0.0077564493
0.0049355673
0.0037842891
0.006885581
0.010737287
0.009908879
-5.869441E-4
-0.015234646
-0.020925095
-0.018096752
-0.015807265
-0.013811766
-0.010361089
-0.009603173
-0.007926401