0.012652242
0.008344839
0.007984045
0.0028942318
-5.3808235E-5
-0.0013484405
-0.012679119
-0.017724147
-0.004677368
0.00763011
0.010719783
0.011269399
0.008224884
-4.607866E-5
-0.007434527
-0.008162024
-0.0044589415
-0.002978253
-0.0064956257
-0.01254906
-0.016031673
-0.014533047
-0.011114326
-0.0074259443
-0.0022455028
0.0027200344
0.0035160524
0.0022766367
0.0032921662
0.0018647216
0.00303276
0.01736472
0.028891163
0.028778372
0.027545646
0.0136254905
-0.013536652
-0.026094412
-0.020813234
-0.014496534
-0.0118031325
-0.005815744
0.011345165
0.031863276
0.041917335
0.04345813
0.03314516
-2.6544207E-4
-0.033960085
-0.040167473
-0.03451164
-0.02947704
-0.020471543
-0.014687131
-0.010792342
-0.004961808
4.4104608E-4
0.0075861425
0.010493054
0.009972375
0.011893144
0.009188706
0.0050336868
0.006198312
0.008619753
0.010013181
0.0075164735
0.0023721757
-9.856252E-4
-0.002208162
0.0041455263
0.019164575
0.028374337
0.026690992
0.023369217
0.010501103
-0.014837381
-0.027732296
-0.024796441
-0.021329716
-0.016406203
-0.011266519
-0.009746574
-0.009534176
-0.007696706
-0.0026173487
0.0017919436
0.0019025957
-0.0036328116
-0.009745569
-0.009746545
-0.0074974317
-0.003685351
-0.0016483259
-0.0040280097
-1.1778435E-4
0.009058176
0.020509887
0.03155231
0.0306437
0.028302941
0.02953995
0.016954543
-0.0036573617
-0.014291613
-0.017288566
-0.022158442
-0.023610046
-0.015411438
4.042597E-4
0.019470606
0.02968665
0.035569936
0.02894913
-0.01130083
-0.0354303
-0.019517986
-0.005740999
0.009627703
0.014938786
6.491435E-4
-3.0995547E-4
-0.0076686754
-0.02053568
-0.019983632
-0.030354312
-0.024476686
0.0039838096
0.01267598
0.01721311
0.0223479
0.011695511
0.0020950127
7.9601514E-4
-7.321939E-4
-0.012678409
-0.02577378
-0.019433718
-0.0060410863
8.538291E-4
0.0016742562
-8.3709724E-4
0.009381196
0.024024818
0.02533014
0.021734376
0.008068538
-0.012152806
-0.013636932
-0.0027330224
0.0063250056
0.017181037
0.028417727
0.026910368
0.0035482405
-0.016979255
-0.01556467
-0.0123779215
-0.014921454
-0.018506529
-0.019372813
-0.006455096
0.012613009
0.028311545
0.037957393
0.023928078
-0.0125473365
-0.03596292
-0.028660864
-0.012556376
-0.0034350138
-0.001187955
-0.009225665
-0.015804358
-0.008846474
0.005183679
0.015605498
0.013285574
0.003622331
-0.0035638257
-0.0067228135
-0.010451286
-0.012604077
0.009201732
0.035912715
0.03341393
0.025685519
0.009953979
-0.01904613
-0.01292066
0.016525196
0.02831115
0.030714793
0.021103906
-0.008168104
-0.033637483
-0.035858143
-0.025956545
-0.015313787
-0.0049319933
-0.0073739556
-0.017027684
-0.017168133
-0.013968502
-0.013527785
-0.022240616
-0.027662486
-0.007847925
0.013623218
0.023094459
0.026681667
0.011617561
-0.0060826847
-0.008091373
-1.5461084E-4
0.017867418
0.038220603
0.0506219
0.03628705
-0.0037600542
-0.019162035
0.010516972
0.054146715
0.060618263
0.016142802
-0.024080176
-0.039649468
-0.03701362
-0.018531933
-0.021005703
-0.028965194
-0.016749963
-0.013494074
-0.017794833
-0.019406796
-0.011487784
0.005974705
0.014028302
0.023954459
0.022161007
0.0016319997
0.00529103
0.006804227
-0.023341786
-0.03667417
-0.018781895
9.301975E-4
0.012079911
0.016129898
0.012830625
0.0075662853
0.0027875027
-0.0035735662
-0.0035761038
0.0033229757
0.013178443
0.025010081
0.025064345
0.011977428
-0.002661564
-0.01949613
-0.032438926
-0.028420163
-0.012863514
0.0114545375
0.04635963
0.060002558
0.04383992
0.025143612
-0.00645959
-0.03915832
-0.038532883
-0.021190435
1.03851E-4
0.024234822
0.03365148
0.010996045
-0.035017624
-0.058281574
-0.04843626
-0.026444543
0.0023238766
0.02063095
0.0268186
0.021133196
-0.0011673538
-0.012125519
-0.013665258
-0.022772279
-0.023799315
-0.015593123
-0.0035637617
0.009531986
0.02079994
0.042008147
0.062807724
0.061130423
0.038057264
-0.008729851
-0.051220205
-0.037401296
-0.007766467
-0.016247774
-0.014605112
0.018514814
0.04691943
0.05358017
0.021946846
-0.023978598
-0.03495066
-0.030658562
-0.03808119
-0.034240182
-0.019773787
-0.0145924175
-0.007649385
3.934652E-4
0.0012095115
0.008418277
0.01762838
0.018897876
0.01588742
0.015395839
0.025001183
0.028164696
0.009226183
-0.018288542
-0.035258055
-0.03616241
-0.030354314
-0.017334564
0.008863162
0.045106515
0.06767177
0.04777516
0.011772615
-0.01753891
-0.040813185
-0.033095278
-0.011987936
0.002885188
0.02167968
0.023868535
0.010746718
-0.007653646
-0.022959108
-0.003326198
0.034726154
0.0493777
0.031001536
-0.006408477
-0.037648756
-0.04784433
-0.033795405
-0.010666111
0.009769571
0.021856597
7.469211E-4
-0.030008752
-0.023186732
-0.0026789128
0.001172186
-0.012417605
-0.04692757
-0.062516026
-0.024227621
0.020571914
0.037126545
0.023678146
-0.009793584
-0.0016809833
0.047786985
0.07923141
0.079968065
0.046054017
0.013987801
-2.5597255E-4
-0.035454445
-0.055585664
-0.040005017
-0.018652502
-0.0090978565
-0.022787048
0.0026023155
0.08431603
0.1340028
0.1022194
-0.00345458
-0.09482384
-0.10091498
-0.07141649
-0.046428755
-0.02652788
3.3793462E-4
0.033240125
0.038885396
0.016228443
-0.019987324
-0.037655447
-0.020232396
-0.014403467
-0.023592206
-0.024461394
-0.015321158
0.010031976
0.028251955
0.027983855
0.016241219
-2.3892667E-4
0.0028968889
0.0134612145
0.018646441
0.029024998
0.03971485
0.04896303
0.033535745
-0.00131393
-0.0071992194
7.694996E-4
-0.00299833
-0.009072815
-0.013169006
-0.006684964
-0.013613625
-0.048162334
-0.0653108
-0.05277003
-0.022386374
0.012263082
0.018180123
0.014497226
0.009818979
-0.021828108
-0.035089083
-0.016811542
-0.009186438
0.0036859587
0.031831093
0.056139056
0.065325186
0.060974043
0.059346005
0.05297751
0.029781027
-0.010415557
-0.039349362
-0.020210415
0.005689731
0.0077322903
-0.010267304
-0.05742036
-0.07905789
-0.054047048
-0.02384188
-0.006732934
-0.016355118
-0.02868555
-0.035729744
-0.03651421
-0.013590231
-0.0018946272
0.027437981
0.08230256
0.103134416
0.10999169
0.06400443
-0.01625407
-0.014662419
0.0067138397
0.0031382581
0.011810949
0.0052250805
-0.007812414
-0.029692195
-0.059599884
-0.056594756
-0.041036732
-0.037146285
-0.042284716
-0.04346294
-0.022041515
0.0037878808
0.020630613
0.027521305
0.012764612
-0.009670204
-0.012106183
0.003710962
0.024674226
0.05345317
0.07251698
0.06640794
0.053764414
0.025568409
-0.017045667
-0.023103269
0.013231688
0.0451618
0.033914477
-0.0199587
-0.05605408
-0.04752918
-0.042090345
-0.047668517
-0.05373672
-0.06611231
-0.06205891
-0.04851251
-0.03138705
0.0015459578
0.03309675
0.06978402
0.08167688
0.04873515
0.034617394
0.030290205
0.027123885
0.056341227
0.06282149
0.029073108
9.185485E-4
-0.0019415999
0.010566762
-0.005431862
-0.040688463
-0.048898265
-0.047186535
-0.057269234
-0.05719525
-0.033943396
-0.01080142
-0.0030727577
-0.0041224994
-0.009210461
-0.012750917
-0.012227381
-0.0055720825
0.0010570968
0.002428351
-0.0011061118
-0.022117674
-0.030519597
0.0035799718
0.03619805
0.05082986
0.07030444
0.078837804
0.05527348
0.021048782
0.005469004
0.00124115
-0.0026758483
-0.008227021
-0.020311203
-0.0335692
-0.036950648
-0.013187326
0.02785524
0.04586453
0.016551608
-0.048305426
-0.08031986
-0.043609403
0.01070907
0.03373212
0.0032811821
-0.035562444
-0.014363533
0.025465539
0.023289612
-0.0021917932
-0.014140671
-0.009207007
0.0015606245
0.01785515
0.016491601
-0.0034235232
0.0037147317
0.03293884
0.04979552
0.035302248
-0.019466253
-0.064548075
-0.05319762
-0.025080118
-0.010653753
0.0055245133
0.011430199
0.0053156824
4.3412735E-4
-0.013749757
-0.015031442
-0.006892485
-0.022687625
-0.018731926
0.0039427914
0.0016169414
0.006303869
0.012360613
0.009812298
0.03133226
0.048395775
0.045918565
0.03910731
0.02066207
0.0039774803
-0.0023734402
0.017308088
0.055603802
0.031889785
-0.041624907
-0.06626369
-0.057272613
-0.06731926
-0.06785021
-0.04484359
-0.026463907
-0.008183679
0.026322708
0.06717728
0.08695166
0.059878346
0.007898653
-0.037474122
-0.07189836
-0.06910416
-0.0348037
-0.010032205
0.008619709
0.019148791
0.019315615
0.030703662
0.046569664
0.06229043
0.06168353
0.014261639
-0.040624674
-0.053574953
-0.044534896
-0.048133712
-0.058474097
-0.046453275
-0.011721403
0.024437215
0.04003548
0.030705666
0.031005632
0.03573769
0.021520404
0.019873545
0.01709522
0.014173811
0.05981001
0.070227146
-0.0011081886
-0.029093828
8.823353E-4
-0.0048502623
-0.029431965
-0.02347987
-0.022742635
-0.053112842
-0.07039737
-0.05208244
-0.016697917
0.017496996
0.028572856
0.012362016
-0.004258547
-0.0013337107
-8.8872894E-4
-0.01073532
-0.010349869
-0.01725933
-0.017544985
0.01543306
0.0507448
0.07151372
0.032138407
-0.045475084
-0.04050982
0.0019931402
0.02047441
0.058142055
0.08182617
0.088394895
0.082424425
0.02959084
-0.013958959
-0.031233305
-0.05251683
-0.054301627
-0.0414503
-0.027164554
-0.0150018055
-0.024477726
-0.048635002
-0.053471938
-0.0125563955
0.05158065
0.07822175
0.027802503
-0.055521056
-0.077294916
-0.050670028
-0.03724795
-0.022424724
-0.01096779
-0.007014047
0.019188346
0.038029954
0.012639833
-0.02170542
-0.01570906
0.015425866
0.047710102
0.08546065
0.0953408
0.082358725
0.06854835
0.025238192
-8.4323017E-4
0.009053674
0.0057441834
0.005741319
-0.019254925
-0.06922018
-0.06106931
-0.022164503
-0.008116768
-0.010460437
-0.013271206
-0.00261406
0.012016631
0.013938006
-0.009914142
-0.03812974
-0.038247306
-0.034988325
-0.029974148
-0.0073369895
0.01414083
0.01797435
-0.0070886686
-0.02006382
0.012134845
0.03447693
0.009580092
-0.034413993
-0.04805942
-0.026593355
-0.0052549904
0.011694874
0.023712048
0.030719507
0.034397453
0.021939665
0.015668951
0.02645808
0.016289048
-0.018292068
-0.030540455
-0.0046344204
0.018683603
0.020890472
0.023359867
0.043093335
0.0688664
0.053815532
0.002795125
-0.02546157
-0.03281538
-0.039558962
-0.030949581
-0.012695778
-0.0056455396
-0.0014282938
0.018336182
0.028049298
-0.0075150365
-0.050999418
-0.056465123
-0.048430312
-0.03907672
-0.018105995
-0.010348744
-0.012218276
-7.2945084E-4
0.011898526
0.012921463
7.5914536E-4
-0.0030781846
0.0067893304
-0.0016942043
-0.012261524
0.0038912415
0.030139826
0.041156325
0.021071602
-0.0070042126
-0.009684943
0.0039227675
0.0043205614
-0.0098465355
-0.0044962247
0.020077785
0.043113843
0.06365689
0.06402192
0.048994634
0.037595544
0.016570874
-0.013946746
-0.032964457
-0.031611357
-0.025893027
-0.028915912
-0.048858523
-0.07993133
-0.06409342
-0.0087793525
0.008637897
-0.011997846
-0.040023044
-0.046423703
-0.021989355
-0.0072260257
-0.00222206
0.00757388
0.017218502
0.027118303
0.024910588
0.018895589
0.007283799
-0.014002558
-0.010504624
0.010827944
0.032213308
0.066552155
0.100853726
0.10740705
0.087996304
0.07198818
0.044203363
-0.010470185
-0.04456754
-0.061729096
-0.0748157
-0.057212055
-0.042079207
-0.0469234
-0.040731743
-0.025789602
-0.02027666
-0.023931364
-0.017212583
-0.010799342
-0.01791662
-0.011723927
-0.005277604
-0.0060933474
0.012031668
0.02876347
0.028753921
0.0094325235
-0.02571197
-0.034448937
-0.016668422
0.005882824
0.04443368
0.080967635
0.094246596
0.09436206
0.079108015
0.044234134
0.006246183
-0.032784577
-0.07291964
-0.08125901
-0.06827933
-0.07104004
-0.06414246
-0.039599158
-0.0122346515
0.022768509
0.050670836
0.08225146
0.10817033
0.074940585
0.00831894
-0.035372484
-0.05139891
-0.054463994
-0.047526654
-0.017274836
0.023633895
0.045760788
0.028177142
-0.019511145
-0.045901258
-0.05284726
-0.0661586
-0.06302603
-0.04031379
-0.0016878205
0.038395416
0.050257117
0.049291775
0.035492077
0.00585851
-0.010686602
-0.024298117
-0.039580703
-0.03579733
-0.020136775
-0.0071038865
0.008638389
0.047179077
0.095748134
0.12925285
0.14386839
0.11565034
0.048014168
-0.02206449
-0.062248025
-0.05637235
-0.06202014
-0.093149215
-0.084084295
-0.058124606
-0.053066738
-0.046154305
-0.026657494
3.42878E-4
0.015187133
0.017608393
0.011340533
-8.8047535E-5
0.011831323
-7.671447E-4
-0.057506684
-0.06188383
-0.020901754
-0.0011489807
0.019002572
0.05200391
0.074529566
0.06985986
0.045585584
0.024707535
0.011017933
-1.574652E-5
-0.026747594
-0.066008836
-0.06694925
-0.031561248
9.312465E-4
0.035365704
0.05706177
0.044692714
0.02560909
0.014796545
0.017984116
0.02312788
4.9437943E-4
-0.009607658
-0.0063890866
-0.032742523
-0.038609874
-0.022676552
-0.013682138
0.00406889
0.0012071839
-0.001421087
0.0031602012
-0.013891126
-0.008311776
-0.007884026
-0.020466937
-0.009652568
-0.031106161
-0.053361457
-0.039605517
-0.024301188
0.008806104
0.03689763
0.052113112
0.04633814
-0.0014742104
-0.013979141
0.009789264
0.021213427
0.017991366
-0.020040594
-0.045868974
-0.050629925
-0.049996868
0.023846865
0.12351724
0.14436843
0.07402038
-0.040471807
-0.10275399
-0.08137814
-0.035645295
-0.0154089425
-0.020955037
-0.016695775
0.0012176309
0.015514991
0.030121153
0.050827514
0.067275204
0.063135825
0.043279413
0.01287191
-0.023528913
-0.04453822
-0.04401712
-0.043182787
-0.06386414
-0.07115362
-0.035072763
-0.005246872
0.0034163315
0.012132473
0.015548436
0.01493321
2.442097E-4
-0.01972348
-0.016363451
0.0038647256
0.018547032
0.009623168
3.1785174E-5
0.015668994
0.038532883
0.061780613
0.063174285
0.02014498
-0.033777654
-0.060776703
-0.04691359
-0.017045565
-0.0047419397
-0.002751667
8.513896E-4
0.0067268107
0.008967824
0.0049248547
-0.00678013
-0.025800504
-0.017965963
0.01460129
0.028630044
0.03017824
0.021122865
0.0014684339
-1.13771384E-4
0.0013721663
-0.009596971
-0.018732943
-0.030628998
-0.042609006
-0.03485335
-0.0021375935
0.031890064
0.051266715
0.05949939
0.04280673
0.01753898
0.00225131
-0.029398527
-0.05688653
-0.06686463
-0.07764405
-0.052426852
-0.009569768
-0.003681829
0.0036786196
0.03330779
0.047438253
0.046318635
0.051627398
0.05704067
0.04682353
0.019600146
-0.013609161
-0.035159715
-0.04481839
-0.053611673
-0.056192733
-0.048721336
-0.03361404
-0.016320592
0.0026350294
0.024702149
0.030177297
0.032895993
0.05471606
0.05576087
0.027204618
-0.004954292
-0.03903551
-0.052201442
-0.034513228
-0.017628767
-0.008099115
0.015030051
0.036355946
0.035442214
0.04396884
0.044383377
0.002795982
-0.017379561
-0.012989645
-0.025474634
-0.016666155
-7.0773956E-4
-0.0018732595
0.0023939854
-0.010461136
-0.028289622
-0.024519855
-0.024054505
-0.023284676
-0.016066207
-0.011315769
-0.0069439686
-0.007027979
-0.0036682761
0.007326732
0.016037617
0.010351461
-0.010836705
-0.018367266
-0.010012358
-0.0076945014
-0.0032018432
0.008980133
0.019133363
0.022088772
0.023032427
0.022777785
0.025771407
0.040892832
0.036848478
0.013965788
0.013091064
0.021116152
0.03056901
0.03714121
0.020493558
-0.006102803
-0.041812934
-0.063760854
-0.048167147
-0.035628907
-0.029795269
-0.017844874
-0.012005826
-0.011168278
-0.025929296
-0.036008403
-0.023397729
-0.020240853
-0.021382099
-0.013183073
-0.008598354
-0.0050831093
0.001429724
0.01311522
0.022879133
0.024597961
0.02657105
0.025512125
0.022637816
0.018454604
0.008318563
0.007087735
0.016493078
0.028589161
0.04258348
0.05067727
0.054616395
0.045330472
0.009431161
-0.03504789
-0.06516126
-0.066721655
-0.051098634
-0.038504027
-0.025270717
-0.016996708
-0.009806028
0.0041327956
0.015074235
0.030826064
0.034861613
0.014798031
0.0025143756
-0.0026694406
-0.012006301
-0.020920549
-0.020143013
6.796826E-4
0.019105686
0.031573087
0.042273067
0.028568383
0.0039597363
-0.017925432
-0.034095414
-0.032002766
-0.027234562
-0.026892914
-0.0255105
-0.02500884
-0.022842534
-0.01952887
-0.0115429545
-0.004363184
-4.4451052E-4
0.0057509583
0.008715208
0.011703426
0.010001291
0.0057287724
0.007089396
0.0020221574
0.002267601
0.009744351
0.024362246
0.061841313
0.09096062
0.1024498
0.09190213
0.040603783
0.004156034
-0.0062810276
-0.03261023
-0.06211842
-0.079616845
-0.069499455
-0.041425947
-0.024621181
-0.010169167
-0.006886263
-0.012653983
-0.010020632
-0.016701948
-0.025306981
-0.023936393
-0.0222186
-0.01699743
-0.010039627
-0.0030980539
0.0029552744
0.0073812525
0.014190766
0.018022852
0.020660924
0.023712566
0.021715557
0.019069016
0.017936734
0.015773451
0.01070436
0.0095036775
0.01579368
0.018577257
0.018743869
0.011572181
-0.007991079
-0.018257268
-0.016233338
-0.01305392
-0.007980993
-0.004989233
-0.0039949166
-0.0029019497
-0.0014072236
-7.1317493E-4
-0.0042378064
-0.0065881032
-0.008068712
-0.010193729
-0.008504049
-0.0030718034
0.006394972
0.0067680553
0.0011086499
0.013377622
0.027164767
0.025006287
0.0066819643
-0.024760267
-0.02722174
-0.004315276
-0.0072867074
-0.016467903
-0.0067075645
0.007238836
0.022114359
0.030605039
0.03157364
0.028837388
0.015396437
2.4004777E-4
-0.011753039
-0.027809849
-0.03820768
-0.033920888
-0.022046505
-0.011851609
-0.006038343
-0.0013568512
0.0032130128
0.004758538
0.0047047497
0.0059304126
0.005348102
0.0031555013
0.0019857595
-6.908366E-4
-0.0026976694
-0.0021051168
-8.764012E-4
0.001872151
0.0035392407
0.0048633013
0.0072749695
0.006681857
0.008158573
0.01323567
0.016298994
0.018416421
0.016466694
0.010410462
0.005832007
0.0017533979
-0.0015547676
-0.005668993
-0.0109473895
-0.011562113
-0.011135172
-0.013272644
-0.011693757
-0.006378161
-0.0026761096
-7.524866E-4
6.222619E-4
0.0021748752
0.004900747
0.004682533
-9.897271E-4
-0.0067315786
-0.010417037
-0.012850084
-0.011265249
-0.0038110942
0.0063948524
0.013284561
0.0143109
0.010490216
0.005825263
0.005086962
0.006181708
0.006398059
0.0074037765
0.008540165
0.005290672
-0.0031220247
-0.010520894
-0.016557267
-0.021819843
-0.018765463
-0.009186594
-9.996062E-4
0.0040451954
0.007373485
0.0105989985
0.009069675
0.002748958
-0.0011765984
-0.0029433738
-0.0019979451
0.0018842255
0.0032154464
0.0021588916
0.0020802235
0.003410422
0.0048139566
0.005016107
0.0023074772
-0.0016294053
-3.8612293E-4
0.0019604196
1.5042143E-4
8.5553876E-4
0.0035266345
0.002877147
-2.2517925E-4
-0.003546221
-0.0052046175
-0.007123894
-0.00808944
-0.004632977
-8.1470987E-4
2.5759087E-4
-0.0014862691
-0.0033888593
-0.001315407
0.0010741177
9.6009864E-4
0.0012897742
0.0025536693
0.0036782234
0.003888704
0.0032453893
0.0030819906
0.0035250816
0.0030091915
0.00173858
7.408882E-4
-3.868871E-4
6.909882E-4
0.0034261788
0.0029191473
0.0012398245
7.4434874E-4
-0.0014022792
-0.003731299
-0.0023201825
0.0011196034
0.001332983
-9.594752E-4
-5.623943E-4
0.0014968569
1.1614492E-4
-0.0027955058
-0.0022280652
-0.0018268351
-0.0030455927
-0.0021482552
-0.0026325437
-0.0040911855
-0.0037967716
-0.003632928
-5.374641E-4
0.0029971013
0.0033037078
0.003262653
0.0019834687
0.0023263583
0.0037242302
0.0024928988
0.0037558295
0.005227424
0.004167579
0.002820299
-9.493246E-5
-2.1496283E-4
0.0014356159
9.7899E-4
8.666815E-4
2.9082046E-4
0.0030120318
0.0060114097
0.0020616087
-1.2699218E-4
1.2921594E-4
-9.845411E-4
-3.9540484E-4
-0.0028186224
-0.0052361595
-0.00320132
-0.002380208
-4.120894E-4
0.003260803
0.0030757363
5.074002E-4
-8.661024E-4
-4.4882452E-4
-2.4766146E-4
-6.545745E-5
0.0025466112
0.0047568553
0.0038993864
0.0019911467
-1.1854673E-4
-0.0017327579
-0.0011630461
1.7994957E-4
7.250277E-4
8.5251784E-4
-3.1613698E-4
-0.0011071768
6.40557E-4
3.1768475E-4
-0.002934382
-0.003213778
-0.0025013878
-0.004580792
-0.0048416816
-0.0031488005
-0.002707483
1.978741E-4
0.0045266356
0.0045218496
0.0017567797
-5.53443E-4
-0.0024555826
-0.0037441705
-0.0026522763
-8.586524E-4
-9.840506E-4
0.0031392688
0.010806221
0.012729776
0.013906837
0.013838156
0.001440487
-0.012360673
-0.013810794
-0.009297224
-0.0033131235
0.003803163
0.00700458
0.006599854
0.0061499677
0.004470494
0.0010761749
-0.0033103912
-0.007213465
-0.006347648
-0.0022867369
-6.8259536E-4
-6.5332156E-4
1.4006217E-4
-4.5652912E-4
-0.0036911943
-0.0052540307
-0.0033298293
-0.0027075238
-0.002915537
-2.2417514E-4
0.0025193845
0.0032393322
0.00456383
0.0043008574
-0.0017978518
-0.0066772345
-0.0053616357
-0.0045626904
-0.0033881355
-6.844919E-4
-0.0010485599
-8.921226E-4
3.9012116E-4
3.9079023E-4
1.5311141E-4
-0.0011940867
-0.001328107
-0.0016057374
-0.0038265411
-0.003131273
1.0644349E-4
0.004795774
0.0074546398
0.0047979034
0.0038032392
0.003134798
-4.474841E-4
-0.0011390807
-3.3636662E-4
2.1134705E-4
0.0012247117
0.0014155353
0.0020024339
4.8096306E-4
-0.003428519
-0.0035487574
-5.2501395E-4
-7.93939E-4
-0.0042218976
-0.0046369997
-0.0019569832
-1.9227728E-5
0.0017009607
0.0020184927
-6.0327724E-4
-0.0030229748
-0.0035825719
-0.0033006032
-0.0020323896
-5.893007E-4
-0.0011017135
-0.0012953716
0.0011641551
0.0024400952
7.485178E-4
-5.2545784E-6
8.920932E-4
-6.374029E-4
-0.0012109523
0.0021246357
4.5394446E-4
-0.0023035496
0.0011250633
0.0014814668
4.0750197E-4
0.0010509086
-9.543332E-4
-5.1760854E-4
4.085429E-4
-1.8836964E-4
0.0021929212
0.0042023044
0.0046999957
0.003629971
0.0019347288
0.0011397068
-0.0014443026
-0.0020166878
-0.0014868126
-0.003060248
-0.0021461104
-7.4061356E-4
2.2193126E-4
5.44491E-4
-0.0024808086
-0.004671808
-0.004872697
-0.0036339292
-0.0017098406
-5.5192784E-5
0.0033396133
0.0037236859
0.0023751718
0.004459433
0.0044789333
0.0024370279
5.7100994E-4
-4.951718E-4
0.0014516126
0.0020319677
9.426379E-4
0.0011802393
0.0016145385
0.0018463539
1.5260593E-4
-0.002341169
-0.0028140815
-0.0022553802
-0.0016893856
-0.0012676943
-5.944322E-4
-4.4644027E-4
-6.1961607E-4
-3.4539928E-4
-0.0014001346
-0.0022841957
-0.0016530617
-0.0013211994
-0.0015217116
-0.0012198496
6.097814E-4
0.001316082
0.0010312224
0.002249214
6.768363E-4
-0.0012979812
2.593768E-4
-6.8860577E-4
-0.002326256
-7.203195E-5
0.0018712977
0.0015366137
0.0010298892
0.0018452673
0.002781086
0.002584998
0.002363312
0.0011743208
-2.1585976E-4
4.055167E-4
-3.4101706E-4
-0.0014351093
0.0011892191
0.001582707
-5.561963E-4
4.450637E-4
-5.5377313E-4
-0.0024032227
-5.925065E-4
-0.0011319352
-0.0019973782
-1.3690157E-4
-3.9775263E-5
1.4313761E-5
7.241541E-5
-0.001850115
-0.0031707156
-0.0032003094
-0.002396642
-0.0012708181
-5.1031815E-4
6.112226E-5
3.4866994E-4
6.619852E-5
-5.416718E-4
-7.222574E-4
-0.00169296
-0.002782025
-0.0012037468
6.393934E-4
7.918993E-4
0.0012488338
0.0027927198
0.004336808
0.004455517
0.0040753493
0.002857827
-1.9798374E-4
-0.0013396739
-4.4089995E-4
-3.9959847E-4
0.0012306081
0.003171159
0.0016345909
3.911304E-4
-1.9207795E-4
-0.0027474435
-0.0029407304
-0.0010934452
-4.724906E-5
0.001869978
0.0029191198
0.0026965297
0.0015842885
-6.953879E-4
-0.0021704733
-0.003986088
-0.0043979846
-0.0028021515
-0.0022868859
-9.951441E-4
3.193806E-4
9.0324634E-4
1.4752505E-4
-0.0014360786
-2.1718635E-4
-0.0010201011
-8.854108E-4
-8.0310914E-5
-0.005594399
-0.003046161
-0.001537911
-0.0120908525
-0.0076828906
0.0018293612
-6.9310155E-4
0.002154424
0.0059225787
0.005283244
0.006279997
0.0058982363
0.0064178584
0.00719712
0.005907656
0.0040290304
0.0028701045
0.0035745515
0.0023700513
0.0021396813
0.00419537
0.0023994718
0.0020484356
0.005128844
0.005093315
0.0019250578
-6.7815423E-4
-7.258535E-4
-0.0017534446
-0.0039517134
-0.004827759
-0.0073519195
-0.008404146
-0.0049718907
-0.0020860229
-0.002246861
-0.003947398
-0.003949441
-0.0030003374
-0.0031077776
-0.0010782146
0.0018842736
0.0029380692
0.00407626
0.0051456816
0.0038020285
4.0816763E-4
-8.216722E-4
9.3230477E-4
0.001741429
0.0018434091
0.0016228451
0.001323958
0.0033739856
0.004337032
0.0028802424
0.002003735
-1.7602918E-4
-0.0017762665
1.2995134E-4
0.0016068382
0.0026985111
0.005161479
0.005149306
0.0025750874
0.001506191
5.841498E-4
-0.0015711787
-0.0010201659
0.0011175481
0.0017111264
0.0034874324
0.0058640493
0.00567033
0.00331347
3.1979225E-4
-0.001444798
-0.002637996
-0.0035873617
-0.0019893323
-9.3923387E-4
-0.0031927198
-0.0034158533
-5.1045837E-4
-1.6482931E-4
-0.0016779414
-0.001382459
-0.0015545755
-0.0025977462
-0.0023483126
-0.001863983
1.107472E-4
0.0037758758
0.0053796186
0.0054718433
0.004046228
-8.711726E-5
-0.0026219166
-0.0022950855
-9.748678E-4
0.0015082103
0.0024691273
0.0010216549
2.4989253E-4
7.5048156E-4
0.0013085715
9.4426697E-4
-1.8327471E-4
-0.0017052204
-0.002881932
-0.0027153706
-0.002489991
-0.0010739228
0.0016970072
0.002185738
0.0018514863
0.0014127266
1.6001333E-4
5.873139E-4
9.218988E-4
0.0015088462
0.004420658
0.00570452
0.0054732
0.0059983926
0.0044026757
5.8165164E-4
-3.5448838E-4
0.001658181
6.6313957E-4
-0.0020431331
-0.0018362363
-4.7436287E-4
2.3410421E-4
-8.660797E-5
-0.0013136583
-0.0034225835
-0.005557588
-0.004843073
-0.00399987
-0.0041176383
-0.0018791576
-1.911897E-4
3.8415735E-4
-1.5858124E-4
-0.003468503
-0.0030647344
3.1044404E-4
-6.354983E-4
-0.0018316212
-5.398384E-5
0.0012174709
0.0024103157
0.0039053229
0.0036505805
0.0025719847
3.733677E-4
-0.002065328
4.2036784E-4
0.0034448314
0.002025451
0.002595312
0.0044332594
0.0029842856
8.6421124E-4
-0.0012618171
-0.001978041
-0.00118195
-0.002080147
-0.0013347008
0.0028529116
0.0050104847
0.0039143916
0.004108156
0.0048959013
0.0017138775
-0.0019616773
-0.0027331824
-0.0035997573
-0.0032230688
-0.001399815
-0.0016060681
-0.00174164
-3.0792144E-4
2.0959512E-4
-5.64037E-4
-0.0014348667
-0.0015702207
-0.0010281673
-0.0015677233
-0.0029976242
-0.0018667412
7.891648E-4
0.001893162
0.0025083441
0.0018668382
5.3906604E-4
4.2937996E-4
-7.2745915E-4
-0.0010533493
0.0013291778
0.0034607444
0.00542667
0.007407877
0.008156819
0.0058465675
0.0016654644
0.0012109847
0.0014692136
-0.0017401765
-0.0035773113
-0.0026346298
-0.0015073268
-0.001816294
-0.0020175262
-6.762334E-5
-1.7962446E-4
-0.0022603935
-0.002196268
-0.0026316133
-0.0034684606
-0.0011487306
0.0017658978
0.002168416
0.0028328833
0.0045632906
0.004035776
0.0028103534
0.002195311
0.0020980265
0.004138887
0.0036727525
6.499681E-4
4.876249E-4
7.3435425E-4
8.8722684E-4
7.904616E-4
-0.0010442825
-7.385535E-4
-1.153955E-4
-0.0010110837
-5.521675E-4
-3.2026417E-4
-4.573435E-5