0.0021152932
0.003031143
0.004449998
0.0036606407
0.0021272092
0.0024243386
0.0020041452
0.0012799933
9.62285E-4
6.282053E-4
5.957769E-4
0.0010068984
0.0016073713
0.0030750607
0.004586126
0.0027707017
-9.703406E-4
-0.00333047
-0.0012767382
0.0024922276
0.0017432848
0.0024880157
0.0018736162
-0.0020731452
-1.6104357E-4
-0.007818301
-0.016935498
-0.0037315858
0.004564486
0.0010084556
0.003777975
0.0021689634
-0.0023531148
-0.0027568035
-0.0024726694
-0.0014374509
-0.002814504
-0.0033148893
-0.0018433662
-0.001784782
-0.0011981026
-0.0019123061
-0.0014644522
-2.0186204E-5
-0.0016969754
-0.0011182991
5.669592E-4
4.1283484E-4
0.0016463691
0.0018292026
0.0012268254
0.002881254
0.00421022
0.0035959606
0.0029800432
0.0035319154
0.0035845307
0.0013604726
-5.140965E-4
0.0018014588
0.005637884
0.007457876
0.008514003
0.0077338577
0.0047102175
0.002564186
0.0017325543
3.869245E-4
-0.0028715048
-0.006188363
-0.006729853
-0.0055753915
-0.005305476
-0.00623318
-0.0060388786
-0.0042728954
-0.0023711207
-0.0025635357
-0.0056416797
-0.0057444577
-0.0032796268
-0.0023914885
3.181402E-4
5.393199E-4
-0.0026975563
-0.0015611954
6.1205565E-4
0.0014281891
0.0022107065
0.0022804074
0.004069177
0.0054895855
0.004963636
0.003084185
1.5310994E-4
6.00145E-5
-2.205467E-4
-0.0020321475
-9.311608E-4
-1.8825168E-4
-2.6303696E-4
5.9162074E-4
4.899021E-4
6.505279E-4
6.573075E-4
1.21859266E-4
2.0143387E-4
1.40918E-4
7.358199E-5
-3.5251764E-4
-9.15666E-4
-5.117987E-4
1.3370451E-4
-8.3955485E-5
-9.542273E-4
-0.0014951372
-0.0021974798
-0.0018391159
-1.6331386E-4
-5.403548E-4
-2.8850933E-4
0.0022726152
0.0027459434
0.001642842
-6.670924E-4
-0.0037470208
-0.0023600897
8.045336E-4
-1.5542272E-4
-8.3869684E-4
5.0171395E-4
2.8755213E-4
9.080127E-4
0.0019576016
0.0014702139
8.029876E-4
-2.7509575E-5
0.0015709928
0.0019170644
2.3317053E-4
0.0021006516
-5.853957E-4
-0.0022806688
4.2606476E-5
-0.010870109
-0.01545896
-0.0028758713
4.320871E-4
-0.001338531
-2.4825698E-4
-7.0187036E-4
0.002370523
0.0042800056
0.003657783
0.0029869627
0.0014954956
0.0017443855
5.1793695E-4
-3.8302515E-4
-3.583451E-4
-0.003455624
-0.005046846
-0.006430721
-0.0065034586
-0.0010051685
0.002052911
0.0014078736
0.0016639392
0.0020093757
0.001568516
3.0480107E-4
8.095769E-4
0.0021126927
0.0014082246
0.0010991109
0.0011499028
1.9425443E-4
-1.4651625E-4
6.670863E-4
0.0013786433
0.0018684646
0.002819373
0.0031332376
0.0026837718
0.0020151236
4.4205302E-4
-0.0011254972
-0.0015572148
-0.0010838442
-5.004188E-6
0.0019224312
0.00248647
-4.631493E-4
-0.0018259514
4.726845E-4
0.0012349905
-2.6927938E-4
-0.0014544647
-0.0011120115
-5.816382E-4
-0.0011410863
-4.0513944E-4
2.7944284E-4
-0.0024405948
-0.005107863
-0.003526624
-5.462694E-4
-0.0014901157
-0.0045191175
-0.0048754117
-0.0048155035
-0.0066735027
-0.0072526485
-0.0052631786
-0.003114203
-0.0033917313
-0.005989637
-0.0059889555
8.563846E-4
0.011164979
0.015128441
0.00944802
0.0044206413
0.003813684
0.0020946942
0.0020605137
0.004061964
0.0050588506
0.0063310764
0.004096298
6.640308E-4
4.6459804E-4
-0.0016696458
-0.0025980966
-0.0015564701
-0.0060751927
-0.011458624
-0.011523034
-0.0064601535
0.001262385
0.007008278
0.009508742
0.0088153845
0.0081242565
0.006649517
-0.0041137673
-0.017436545
-0.017319938
-0.0036795668
0.009080908
0.011662503
0.011560334
0.011500446
0.0058999453
5.6685845E-4
-0.002746705
-0.009010925
-0.017477801
-0.026897779
-0.026086582
-0.009593601
0.0049570883
0.011786874
0.013343719
0.004353836
-0.0030316617
-0.0024011487
-0.0025610467
0.0021472163
0.0068442663
0.0020590476
-9.0563204E-4
2.449034E-4
6.3615665E-4
-6.314621E-4
-0.0022942238
0.0028774682
0.0065314136
0.0027535798
0.0029792932
0.004771676
0.0031836447
0.0017521925
8.8165863E-4
0.0022834598
0.0056543206
0.0043745465
-0.0057222852
-0.01316584
-0.0076125204
0.005190406
0.019999664
0.024751851
0.016874649
0.011414165
0.006084245
0.007562237
0.018076891
0.011152696
-0.0014647836
-0.008680062
-0.033068825
-0.04858871
-0.030752158
-0.013536605
-0.013824898
-0.019343356
-0.024380304
-0.027599912
-0.026948081
-0.015974486
0.0019267326
0.0054541677
-0.01158996
-0.029668208
-0.03197065
-0.010918019
0.027535954
0.054199237
0.06088982
0.07891935
0.10428143
0.09065232
0.041755717
0.0082875565
0.0015024776
-0.0068358197
-0.02801963
-0.04885213
-0.050669823
-0.031191964
-0.007970851
0.020801557
0.051041055
0.036521573
-0.01680617
-0.056465164
-0.08180159
-0.08008281
-0.038758326
-0.011256835
-0.009631726
-0.01249146
-0.02647962
-0.03923557
-0.04492614
-0.023984503
0.04051698
0.08223203
0.07506151
0.07348205
0.0929212
0.0913568
0.015850043
-0.07856705
-0.083533116
-0.03828929
-0.019725427
-0.008524089
0.009000546
0.006141156
-0.017380448
-0.019824233
0.0075222985
0.028992932
0.031956438
0.016850093
-0.0013295313
-0.0024142682
-0.0010538084
-0.0028436356
6.794612E-4
0.0049368194
0.005871523
0.0017831489
0.0035316583
0.008425636
-0.0017779254
-0.012539321
-0.010793022
-0.0021158583
0.011576749
0.015209307
0.009140945
0.0058387895
-0.007830186
-0.024317974
-0.02282627
-0.017305553
-0.015672311
-0.010929448
-0.005901076
-0.004513458
-0.010873226
-0.0147366505
-0.0066321776
0.002301323
0.012737609
0.02421187
0.02737746
0.026130268
0.019088117
0.010249525
0.0064806766
-0.0011156833
-0.009427871
-0.0104153035
-0.006295291
-0.0030634126
-0.0050727106
-0.0048372233
-0.00559638
-0.015184962
-0.019930374
-0.013000296
-9.1336865E-4
0.011065479
0.014839914
0.009651774
0.0052181534
0.004309863
0.0031087713
0.0011194665
-0.0037790253
-0.008904915
-0.015262422
-0.029588146
-0.02832105
-0.0034697636
0.01175391
0.018048204
0.025146758
0.022568902
0.018506557
0.014222331
0.006267898
0.0033407046
0.003539145
0.0066489913
0.012807108
0.017814614
0.024063531
0.030125106
0.03532015
0.04022584
0.043668624
0.048040234
0.05071845
0.050817754
0.05103927
0.050768185
0.050213605
0.046299078
0.040055275
0.03551739
0.030672254
0.028618302
0.030318167
0.03231163
0.035442956
0.0378625
0.040905554
0.045873865
0.047984447
0.04629304
0.041404065
0.035928756
0.030354938
0.0208567
0.009593099
-0.0021929336
-0.014400059
-0.025527019
-0.03803485
-0.050876606
-0.060394906
-0.065851115
-0.0689988
-0.07031782
-0.06704395
-0.061048906
-0.05395669
-0.045066636
-0.03663951
-0.027711265
-0.01769792
-0.008073256
0.0021157532
0.013255611
0.024599342
0.037559744
0.054766715
0.07304095
0.09339129
0.12060007
0.15214244
0.18787922
0.20038432
0.15945396
0.10933015
0.0869938
0.065151
0.03870582
0.017612655
-0.007511161
-0.030169351
-0.039251808
-0.041755784
-0.040872775
-0.033535574
-0.026021631
-0.022172399
-0.023368372
-0.034093812
-0.046354756
-0.05475348
-0.063817866
-0.06840365
-0.063935824
-0.054143764
-0.042319994
-0.027835347
-0.013117899
-0.0065784734
-0.006407727
-0.006818829
-0.006885537
-0.0044438103
-0.0038712618
-0.005721936
-0.0052093985
-0.0055299145
-0.006769203
-0.007945094
-0.009392412
-0.008726559
-0.0084438585
-0.00721585
-5.3316896E-4
0.007977689
0.01568311
0.02449506
0.03263404
0.03598432
0.035677843
0.03464939
0.033011712
0.03130553
0.028061518
0.022723405
0.017607503
0.011377346
0.003424034
-0.004151793
-0.010808736
-0.016962731
-0.022177942
-0.02503744
-0.026677985
-0.026759852
-0.023818558
-0.023167586
-0.025392352
-0.02534494
-0.025442379
-0.026217785
-0.025540745
-0.027568612
-0.033270605
-0.038711414
-0.04290083
-0.047713522
-0.052648604
-0.055097647
-0.0582143
-0.061533015
-0.0587542
-0.053259768
-0.047979835
-0.04129605
-0.034791198
-0.025883382
-0.015176386
-0.008386778
-0.003765687
0.0023006161
0.0077175447
0.009688714
0.009698219
0.009251799
0.008658144
0.009048644
0.009148264
0.00812047
0.005308286
0.002389988
0.0039441595
0.006118408
0.0077599785
0.014627013
0.02337116
0.030307414
0.036718566
0.040491935
0.039637066
0.035520624
0.028666668
0.01835811
0.005824039
-0.0029741952
0.003225818
0.0193654
0.025150675
0.020904021
0.015956903
0.010992894
0.004698211
-0.0046415706
-0.012038515
-0.02029321
-0.031252
-0.039682705
-0.052876316
-0.066060424
-0.08140039
-0.101995006
-0.104076475
-0.10011019
-0.08600459
-0.027729928
0.030513994
0.053055957
0.06260639
0.06616483
0.0685014
0.06895657
0.066499844
0.06715025
0.065949276
0.067125924
0.069564156
0.069489054
0.07174084
0.06920488
0.0650077
0.062719144
0.054409914
0.043423194
0.03115561
0.018344324
0.0060599158
-0.007719171
-0.017456718
-0.024728939
-0.033126883
-0.038895268
-0.041739415
-0.042255405
-0.040952194
-0.036044594
-0.028967964
-0.025053993
-0.02033387
-0.014150948
-0.011098658
-0.008582958
-0.006442976
-0.007079189
-0.008788245
-0.009572526
-0.009816218
-0.011050779
-0.012791924
-0.013911913
-0.013951837
-0.013112179
-0.01193145
-0.008495164
-0.0027067498
0.0019786397
0.0050634756
0.009293918
0.014657662
0.017132368
0.017248789
0.01741214
0.015433023
0.0144467205
0.015130516
0.011894541
0.009537724
0.009762054
0.0067187194
0.002904373
3.805982E-4
-0.0013301515
-0.0023949926
-0.0041304906
-0.0038592874
-4.0524252E-4
0.0032867256
0.006707359
0.012187509
0.016702121
0.016492242
0.016368806
0.016072972
0.015713733
0.018573228
0.017451102
0.013367961
0.01226537
0.010505005
0.0067873243
0.002153781
-4.8339253E-4
-0.0018704012
-0.004069973
-0.0035513865
-0.0013866955
0.002207144
0.0052062455
0.0046884897
0.0050760694
0.004347319
0.0012263575
-0.0022395973
-0.007686236
-0.014780502
-0.023880197
-0.031080842
-0.03750054
-0.048003126
-0.057622604
-0.06688682
-0.07584338
-0.079934046
-0.07925012
-0.07703703
-0.07560924
-0.06872893
-0.06196983
-0.05573937
-0.04190056
-0.0413253
-0.042805668
-0.021174507
-0.0040255287
0.0017309756
0.009926636
0.01800398
0.029650828
0.042767003
0.054224547
0.066869035
0.08380396
0.102738306
0.12714927
0.15203547
0.11852487
0.031429388
-0.021134295
-0.041940406
-0.061612237
-0.06904716
-0.07665558
-0.084142044
-0.08747676
-0.09088856
-0.087994516
-0.086648814
-0.08580965
-0.08159018
-0.07939937
-0.07804404
-0.07948733
-0.07462309
-0.064356245
-0.058763217
-0.047178045
-0.038951047
-0.03706152
-0.01830169
0.0032417895
0.007069301
0.004324992
0.004598101
0.007830299
0.010465506
0.011904086
0.014559941
0.017562976
0.020978877
0.023269968
0.02398958
0.025962008
0.027308555
0.027917169
0.0300806
0.032032806
0.03281852
0.03195026
0.028448086
0.022560261
0.014779624
0.005398523
-0.004343304
-0.010210808
-0.013434135
-0.019661814
-0.028668096
-0.039093416
-0.047868747
-0.056632347
-0.0700515
-0.08377507
-0.09865698
-0.11199373
-0.12524424
-0.14535186
-0.13034335
-0.06390443
-0.010020493
0.011953487
0.025785824
0.030566372
0.032766376
0.035746954
0.036413085
0.039159566
0.040209603
0.042537108
0.04696737
0.045662694
0.043792382
0.04264659
0.039574288
0.03710825
0.031858597
0.025197798
0.019401787
0.012296675
0.0051379483
-0.0052637486
-0.014969359
-0.018298702
-0.02489271
-0.032334164
-0.03310502
-0.033510376
-0.03147447
-0.026477959
-0.023910984
-0.019604629
-0.014479778
-0.012148059
-0.010749801
-0.00957385
-0.006991221
-0.0038365338
-0.0019792146
-9.3554717E-4
-5.9801835E-4
-8.7801693E-4
-0.0023253683
-0.0032660426
-0.0033869955
-0.0029554772
-1.8748235E-4
0.0020395152
0.0055698263
0.012005911
0.015883189
0.0192276
0.022059876
0.022823263
0.024327505
0.023500407
0.022621289
0.023273006
0.020701185
0.01863077
0.0179741
0.017108347
0.017050862
0.013756153
0.009534232
0.008943111
0.0087803705
0.0097310105
0.0123852
0.013045876
0.013661031
0.015086153
0.0134772
0.0112731205
0.011582625
0.010308768
0.008296968
0.007568254
0.0023543842
-0.0024474985
1.9632389E-4
8.971529E-4
-0.0024405373
-0.0042834347
-0.007476885
-0.010202953
-0.0086096795
-0.005166463
-0.0018389481
7.845423E-4
0.002633575
0.0039973026
0.004585516
0.002556084
-0.0017833991
-0.0043025753
-0.004445678
-0.0035327692
-0.0030652941
-0.0049068294
-0.0067862864
-0.0073694345
-0.007686067
-0.009663108
-0.014820627
-0.018578906
-0.016846912
-0.01191084
-0.007403609
-0.0036515319
-4.9092685E-4
-3.967398E-4
-0.0026860316
-0.004711
-0.0049483133
-0.0045097214
-0.0047110994
-0.0014266494
0.004370335
0.01380578
0.02972705
0.04778455
0.07398502
0.10072353
0.119255364
0.13818772
0.12657964
0.08137779
0.04895148
0.025703928
0.020162582
0.046838384
0.06177429
0.057953067
0.05509998
0.049278606
0.044270825
0.037427913
0.031421974
0.032252178
0.031725626
0.031196296
0.0306028
0.03050551
0.033230178
0.029619215
0.021585012
0.013748156
0.0040679914
-0.0073397765
-0.025103314
-0.048073873
-0.071054235
-0.094503365
-0.11821929
-0.13878232
-0.15253453
-0.1606239
-0.16317064
-0.16193877
-0.15605624
-0.13823202
-0.11636338
-0.09347268
-0.06492515
-0.03684075
-0.004288259
0.029178089
0.058440432
0.09218848
0.12424947
0.15735692
0.19243239
0.22833872
0.27434543
0.3203293
0.38530695
0.43607527
0.3750817
0.26564774
0.20312718
0.1540644
0.110675104
0.06869075
0.00814021
-0.047391146
-0.094168015
-0.13520807
-0.16730085
-0.19500792
-0.20930248
-0.21580215
-0.22425352
-0.23061432
-0.23335896
-0.23013361
-0.22247519
-0.21170954
-0.19795778
-0.18023212
-0.15321523
-0.120706216
-0.08878028
-0.058205687
-0.028330557
-0.0015480225
0.018325813
0.03659211
0.053799003
0.06489988
0.06875937
0.06442342
0.05903976
0.054534525
0.04832706
0.045918312
0.047290377
0.052916024
0.059334446
0.059320793
0.055051107
0.04955702
0.051128525
0.054980468
0.046606228
0.03628353
0.0293899
0.021321574
0.017149689
0.0138038825
0.006208605
-0.00540218
-0.01877557
-0.034125466
-0.054293465
-0.06916505
-0.075498566
-0.08361313
-0.08686951
-0.07610031
-0.05947268
-0.04199743
-0.021271937
-0.0016086393
0.012552392
0.021407522
0.02533367
0.027377076
0.030180747
0.03590256
0.035171125
0.017554114
0.0014210392
-0.00834766
-0.027038403
-0.044193894
-0.053247828
-0.059622936
-0.060998343
-0.06012341
-0.064317666
-0.077197164
-0.09125856
-0.10707389
-0.1228781
-0.12237799
-0.12016321
-0.12526034
-0.13138767
-0.13271494
-0.07603948
0.027428897
0.09027932
0.11037531
0.11491571
0.108278885
0.10556862
0.10255296
0.10049684
0.10357506
0.10578738
0.11303155
0.117174424
0.10931879
0.10030335
0.09738014
0.09368822
0.079487085
0.06577524
0.058702987
0.044378966
0.0243303
0.0034038082
-0.019546067
-0.036497496
-0.04314186
-0.04379444
-0.044780508
-0.04367716
-0.030031199
-0.010509318
5.832326E-4
0.0077125686
0.014496291
0.01252575
0.0016084048
-0.012244278
-0.02433396
-0.030539267
-0.030536816
-0.023079192
-0.0117205735
-0.008117225
-0.01313123
-0.014500898
-0.0039748987
0.012352435
0.020798737
0.015612783
0.003593177
4.006804E-4
0.014957313
0.03054461
0.03304579
0.038412515
0.045465905
0.03733777
0.028393311
0.025371348
0.024270536
0.027817054
0.023460323
0.025863409
0.04586826
0.054136936
0.05557401
0.05647717
0.03944623
0.014560866
-0.0036590223
-0.0091542
-0.0063959095
-0.0034198277
0.001976674
0.0021824543
-0.0021766997
-0.0053364793
-0.009497165
-0.010368223
-0.012134761
-0.013487188
-0.01202566
-0.0153787825
-0.016926125
-0.018784143
-0.023920812
-0.024668759
-0.026363311
-0.027492546
-0.02418829
-0.018069461
-0.009928286
-0.006438958
-0.005682942
-0.0071597453
-0.010693825
-0.01137153
-0.016996277
-0.024238404
-0.02392277
-0.013316661
0.010946961
0.02857992
0.02634426
0.016186878
-0.008445593
-0.052605696
-0.08593348
-0.08058644
-0.05453503
-0.03785255
-0.030941283
-0.026793877
-0.023263264
-0.019599745
-0.01728126
-0.016595345
-0.020009838
-0.021319276
-0.017330904
-0.017827107
-0.017230133
-0.010901375
-0.008486489
-0.0053901663
0.004615922
0.0098614395
-0.002907274
-0.024253257
-0.025896294
-0.009195978
-3.7477992E-4
0.0057019866
0.012582129
-0.002384656
-0.025061676
-0.028844623
-0.029725494
-0.03382234
-0.019573916
8.523476E-4
-0.013477742
-0.05084329
-0.059609577
-0.04186655
-0.028054552
-0.021398474
-0.015033148
-0.0010281099
0.010942602
0.010958146
0.011489791
0.009353556
9.953438E-5
-0.0076450976
-0.013873571
-0.017782636
-0.019455334
-0.017478468
-0.015208747
-0.017939564
-0.01311664
-0.0071908366
-0.012655365
-0.014990792
-0.013549592
-0.0134383775
-0.009880715
-0.0066174697
-0.005960222
-0.0074434513
-0.0074584205
-0.003419841
-7.1640976E-4
-2.6294347E-4
-0.0013403929
-0.0027615218
-0.0027595828
-0.0038627423
-0.0037195792
-0.0019103646
-0.0020904096
-0.002093007
-0.0020069797
-0.0028534464
-0.0029941446
-0.00541274
-0.010267323
-0.011767382
-0.010335225
-0.008138078
-0.0042601624
-0.0036566828
-0.007999527
-0.011286627
-0.011386479
-0.008140925
-0.006025501
-0.009296229
-0.010113746
-0.0065125297
-0.0048362995
-0.003502305
-0.0030975076
-0.006252583
-0.008625084
-0.009033131
-0.008916384
-0.0073980466
-0.00448938
-0.0014262431
-9.3588885E-4
-0.0019305327
-0.0024962255
-0.003693663
-0.001674928
1.8708121E-4
-0.005482772
-0.009089307
-0.0038122705
0.0021856308
0.0041681845
0.0047740946
0.0060309283
0.010520009
0.017963478
0.019775253
0.017800562
0.016795203
0.013386724
0.011509116
-0.0037631204
-0.0364359
-0.044791464
-0.024090003
-0.00421521
0.009408706
0.015160219
0.013486247
0.011442365
0.012954748
0.012202922
0.0022182965
-0.009375583
-0.02371261
-0.035875205
-0.029290093
-0.016717855
-0.009889651
-0.0033352433
0.0039870464
0.011659443
0.013446562
0.01083068
0.0090076
0.005665844
0.0053621773
0.0068999366
0.00476603
0.0032147272
0.0034723126
8.9482777E-4
-0.0019536822
-4.244615E-4
-0.0011677124
-0.0022032557
0.0018387393
4.4335236E-4
-0.0010439386
0.007507685
0.013889991
0.012057927
0.010301464
0.008784743
-0.002859293
-0.014184228
-0.006992381
0.0017332741
-0.0011274626
-0.002704101
0.0021962938
0.011555131
0.019098626
0.016295033
0.005406083
-0.0021859994
-8.5396785E-4
0.0035725785
-5.712705E-4
-0.019273363
-0.026895462
-0.007489545
0.005490631
0.004549176
0.007960512
0.0093566915
0.008951208
0.008342
0.004508582
8.900662E-4
-0.0032933487
-0.0015327289
0.0036293026
0.0024756652
0.002309514
0.0039787525
0.0035137387
0.0025115067
0.002002724
0.0044601043
0.006922365
0.008408611
0.0078222165
0.001675065
-0.003500102
-0.005860875
-0.007172818
-0.0062318244
-0.005301025
-0.0032428699
-0.0011708622
0.0021715234
0.008290539
0.009957355
0.008616061
0.0066101807
0.009537118
0.021060588
0.018935801
0.0038179597
-0.0011711181
-3.1600407E-4
0.0043554865
0.014899598
0.0149468975
-0.0041476893
-0.022897918
-0.019071115
-0.007750981
-0.0043703783
0.0029680359
0.009151643
0.008130286
0.007087996
0.0027506088
-0.0026394299
-0.005063312
-0.00722505
-0.006506746
-0.001552207
0.004933041
0.010226618
0.0121357255
0.009559155
0.0063296612
0.0068319445
0.0065310057
0.004083305
0.0024436081
0.0015830417
0.0041661765
0.008945642
0.011698699
0.009374461
0.0016148805
-0.00404241
-0.005999158
-0.0069460156
-0.0054987757
-0.002980562
0.0025933401
0.00905912
0.008641109
0.0041648
0.0010794466
0.0029951325
0.00835549
0.008075007
0.004926673
0.0043140016
5.667254E-4
-0.0035528138
-0.0023962045
-0.0012413284
-0.0022227422
-0.0022504607
-3.6694595E-4
0.0014359705
9.645334E-4
0.0030020275
0.006263385
0.0026012566
-4.992219E-4
0.0014916415
0.0010427623
2.6708478E-4
5.1585725E-4
3.1676286E-4
0.0021031362
0.003598677
0.0059922943
0.0100491075
0.010946133
0.010000162
0.00739554
0.0032505014
0.0014252227
0.0011155477
0.0022708082
0.0034021055
0.0031424917
0.0052964026
0.0075719985
0.006695349
0.0032438291
-6.2599644E-4
3.4925647E-4
0.0025169987
0.0016512349
0.0033786574
0.006090907
0.0046261214
0.0011168469
-0.00111009
-0.001151372
-0.0014044996
-0.0022722683
-0.0020547046
-0.0015298527
8.366605E-4
0.004961486
0.0068239653
0.006486463
0.0034191906
-0.0023619726
-0.0044015604
-0.0031783234
-0.0033742301
-0.002044311
-3.2226617E-5
0.0011696157
0.0042699003
0.006256115
0.00714879
0.007525098
0.0044742054
0.0033298954
0.004978759
0.0048081796
0.0046225423
0.00516345
0.0076772706
0.011919936
0.012794267
0.009913539
0.0073964205
0.0070119156
0.0062023727
0.0064661284
0.008821431
0.0069584874
0.0032567135
0.0011101592
-0.0028668458
-0.0061108773
-0.006664334
-0.0044438606
-0.0018823004
-0.0023537911
-0.002044812
-0.0014256283
-9.960192E-4
2.7734676E-4
-0.0012289523
-0.0019714353
-0.002280019
-0.0024844469
0.0010354175
-0.0032374812
-0.010067003
-0.0011451937
0.0101063205
0.010563442
0.0076132
0.0041143885
0.0014707153
0.0018855988
0.003744884
0.0071483473
0.010793767
0.011309677
0.011498346
0.012942607
0.011271059
0.007803429
0.0048006885
0.0023023393
0.0021139213
8.502577E-4
-0.0012772172
-6.4604526E-4
5.708219E-4
0.0042965463
0.0074903513
0.003887884
0.0010929226
-3.0208568E-4
-0.007642061
-0.013153257
-0.00968628
-0.0045890445
-0.0034717536
-0.0021520285
7.2027877E-4
4.2131235E-4
-8.9821126E-4
5.5699097E-4
0.0017864018
0.0020952402
0.0023845923
0.0032020088
0.005874617
0.0074899415
0.007830668
0.0074133486
0.00423957
0.0035891754
0.004135582
0.0023656855
0.00434674
0.004564063
0.0020288886
0.004030901
0.002873896
2.393821E-4
0.0010422204
-3.3002443E-4
1.6412324E-4
0.0017690664
8.9347834E-4
0.0012042396
0.0019026038
0.0037588011
0.002954537
-0.0032660796
-0.0066694655
-0.0060481746
-0.003747832
-7.3423446E-4
0.0013339538
0.0036935848
0.004654069
0.004052615
0.003938993
0.0041546347
0.0039505414
0.0029637474
0.0031815437
0.0024929494
7.823368E-4
0.0015148392
0.0019220953
0.0026637278
0.0020009147
-0.0018242969
-0.0021947199
-0.0022860025
-0.0031789155
-0.0011983569
7.7145576E-4
0.0055279476
0.009721574
0.009188826
0.008272114
0.003640126
-0.0024169988
-0.0048978077
-0.0074564465
-0.008649859
-0.0068392977
-0.0024657748
0.0034669559
0.005961619
0.0049852594
0.003701522
0.0022514167
0.0010131629
8.471428E-4
-2.689913E-4
-0.00308795
-0.0024711895
0.0030237376
0.009254405
0.011939472
0.009304083
0.006362916
0.004344637
4.81048E-4
-0.0014305086
-0.0011359975
-1.1643904E-4
0.003078068
0.004167942
0.0018575384
-5.6470664E-5
-0.0018469465
-0.0034939721
-0.004852149
-0.006131942
-0.0049037645
-0.003989971
-0.0053695017
-0.0030603942
7.006155E-4
9.043604E-4
0.001099737
0.001050186
-5.498919E-5
4.017397E-4
0.002344712
0.005571721
0.008509042
0.009501105
0.008608858
0.0069287326
0.0068076258
0.007013287
0.0070539503
0.008651507
0.007678712
0.002136407
-0.0021808627
-0.0035006383
-0.004666682
-0.0043446845
-0.0022730015
-0.0018066829
-0.0027072276
-0.0029260446
-0.0019491072
-0.0017747091
-0.0029100515
-0.0020236305
-0.0018234019
-0.004132745
-0.003959281
-0.003101768
-0.002909836
9.308498E-5
0.0034868259
0.0063228193
0.009233515
0.009960329
0.010383667
0.009545903
0.0052247955
0.002122986
5.3230213E-4
-3.0755826E-5
0.0011533499
7.5479783E-4
0.0031330008
0.006904403
0.0050684894
0.0029340778
6.737346E-4
-0.0020975994
-0.0043343524
-0.009940579
-0.010926958
-0.0068900026
-0.0042147585
-7.3116564E-4
0.0020224308
0.004686759
5.636473E-4
-0.004740116
0.0022561604
-8.778276E-4
-0.008626158
0.0024964833
0.0103051895
0.009980157
0.008906701
0.0018905518
-0.0016202566
-0.0020629
-0.0018645864
0.0013434289
0.004928441
0.010695965
0.013484382
0.0138183385
0.013311142
0.006501782
0.0014864854
-6.7727966E-4
-0.0034919973
-0.0028346363
-0.0027477897
-0.0039508
-0.005224424
-0.007802812
-0.008386071
-0.006654919
-0.00598825
-0.009096455
-0.010527151
-0.006701596
-0.0045638736
-0.004241108
-0.0029516078
-7.2907837E-4
0.0026989195
0.004706238
0.0045270226
0.002206206
5.804045E-4
0.0016467698
0.0027331582
0.005558986
0.009777734
0.014442899
0.017535446
0.01578015
0.015501609
0.012209811
0.0040993257
0.0026932117
-0.0033889262
-0.014124956
-0.011226739
-0.005900293
-0.0060056727
-0.0038747303
-0.0027529525
-0.0030515688
-0.0032536883
-0.0055181016
-0.008216983
-0.008353589
-0.0050331126
-0.0017849751
-4.9491788E-5
0.0018978306
0.0022298277
0.0016512518
0.0018199128
0.0013365124
0.0011388822
0.0022288791
0.004104839
0.0063674315
0.0070588444
0.0040790355
-2.7355654E-4
-0.0014435436
-0.0011505281
-0.002895716
-0.00407746
-0.001943323
0.0018733082
0.0032708389
0.0017892038
2.912057E-4
-0.0013902612
-0.001759742
-3.5642213E-4
1.9650233E-4
0.002728551
0.0050630146
0.0022646084
4.839528E-4
0.001269569
8.567361E-4
0.001089967
4.0600734E-4
-0.0018847237
-0.0024599032
-0.0017476821
1.8985286E-4
0.002733646
0.002598576
1.6732675E-4
-0.0021694
-0.0037862426
-0.0035799004
-0.0019755769
-0.002447993
-0.0030467752
-4.8162972E-4
-5.015356E-6
-0.0019775145
-0.0011924595
-4.2621803E-5
-2.3491858E-4
5.0930714E-5
4.5285805E-4
-5.8714126E-5
-1.9016083E-4
0.0025306074
0.0046267053
0.0040965965
0.0032692172
1.0831913E-4
-0.0027583926
-0.0030138595
-0.004066548
-0.0036188131
-0.0028229898
-0.0027042034
2.549773E-4
8.2756116E-5
-0.0026228945
-4.7123487E-4
0.0012146671
-3.4930257E-4
-0.0012110857
-3.2457113E-4
0.0020494438
0.0026787126
0.0026188504
0.003633139
3.8352556E-4
-0.0032913021
-0.0012081915
0.0016394209
0.0023687505
1.5555092E-5
-0.0030346953
-2.9368713E-4
0.0027199064
0.0016137825
0.0015503515
3.7398995E-4
-0.002496196
-0.0020433648
3.7561773E-4
4.5777694E-4
-0.002151344
-0.002123285
7.096152E-4
-5.054967E-5
-0.002790803
-0.004523479
-0.005960843
-0.00564733
-0.0038139394
-0.0015253574
-1.17026706E-4
-4.6696552E-4
2.6485996E-4
0.0024508385
0.002697524
9.5148874E-4
0.0010815613
0.0016787368
-9.5766946E-4
-0.0021592658
-0.0011247507
-0.0010916505
4.0870905E-4
7.3815865E-4
-5.306393E-4
-1.9920006E-4
-0.001552702
-0.0017211123
5.943262E-4
3.388646E-5
-9.6053444E-4
7.468686E-4
0.0043069734
0.005294291
0.0026863613
0.0029038398
0.0043895724
0.0047731833
0.003244956
-4.9140205E-4
1.0592062E-4
-0.0050011254
-0.015330286
-0.007570671
0.0032600716
-7.001707E-4
-0.0027927419
-8.455551E-4
9.477518E-4
0.0029657157
8.80603E-4
0.0012313605
0.004192209
0.0026714902
0.0016054792
0.0024871577
0.0016842457
5.2280862E-5
-0.0010004397
-1.3828815E-4
0.0015273936
4.300438E-4
-0.002084182
-0.0014108785
-2.3130927E-4
-0.0022050887
-0.002889002
-0.002620307
-0.0039302646