0.009249529
0.008140645
0.0039392663
-0.002812425
-0.008789622
-0.009983251
-0.0053958925
5.6273513E-4
0.0013836514
0.0013204963
0.004815258
0.0078069386
0.007919281
0.0041720765
0.0038677189
0.009165441
0.013526204
0.021671139
0.020171495
-0.0027294124
-0.019742742
-0.020963216
-0.015071091
4.671659E-4
0.012053521
0.0042317365
-0.012551
-0.013757601
2.8414617E-4
0.0011099861
-0.0080234585
-0.0074696885
-0.004831777
-0.003750912
-0.0037884922
-0.0059691267
-0.0023662113
0.0012140567
3.5900917E-4
-7.927026E-6
-0.005883144
-0.009918876
-0.0017295721
0.006411564
0.009060482
0.008686706
0.004724498
0.0032451714
0.0037349893
0.0032586472
0.0053288974
0.0061810245
0.0045995773
0.005743467
0.006748704
0.0038433585
0.0032127497
0.0104554035
0.014426541
0.009615864
0.006236429
-0.0028429574
-0.018135795
-0.019750891
-0.0108606275
-4.2158607E-4
0.010782801
0.0151691595
0.01334928
0.001998969
-0.01757609
-0.021433765
-0.01008008
-0.004326874
-0.0020051866
9.864955E-4
0.0010222874
-0.0012287179
-0.007164197
-0.0115549
-0.00921109
-0.006755225
-0.004121578
4.8237955E-5
0.0026514488
0.005866322
0.0070067826
0.006277174
0.005848341
0.0012043008
-0.0014184568
0.0022139759
0.005927332
0.007177543
0.0060240286
0.0068354947
0.0070826127
0.0015544585
-0.004440369
-0.006264822
-0.0024230839
0.0016291447
0.012209066
0.034187693
0.03450142
0.008815058
-0.013307642
-0.027961379
-0.030607311
-0.024602758
-0.021042675
-0.014535924
-0.0070997984
1.978189E-4
0.0023626855
-0.0040287133
-0.0037688527
-3.6733446E-4
-0.0014840963
-0.005151125
-0.013415828
-0.015371669
-0.009310441
-0.003930812
0.0012100341
0.006164057
0.011869742
0.012156729
0.0076319887
0.006229716
0.0021658707
-4.8042298E-4
0.0010276991
2.5921984E-4
0.002934018
0.007209425
0.009591214
0.009854134
0.0046171844
0.0031154125
0.005809808
0.0050538927
0.00582206
0.006496906
0.0042776167
0.003982272
0.0028125294
-0.0023405575
-0.0063528083
-0.0063851797
-0.0050688037
-0.003974035
-0.0031045899
-0.0012589392
-5.4002827E-4
-0.004945122
-0.0090861
-0.011002685
-0.0155886635
-0.019840067
-0.020288156
-0.015305589
-0.008461504
-0.008510202
-0.0106802555
-0.006600035
0.0014818271
0.0062988796
0.0029175556
-0.001271318
9.76926E-4
0.004988902
0.0064337887
0.006891167
0.008485567
0.009693037
0.012152852
0.016103905
0.014822636
0.010615605
0.006710717
0.0026015413
0.0031927482
0.0058641094
0.008880446
0.01236089
0.009092922
0.0016855173
-0.008410862
-0.019970542
-0.018112412
-0.00594683
7.517769E-4
0.0020803853
0.0014702487
0.0032813854
0.008982029
0.0054767923
-0.010444612
-0.020599134
-0.016631879
-0.008656493
-0.0038527905
-0.0010464276
0.0017794031
0.0036753297
0.00226146
4.895498E-4
0.006252379
0.017518422
0.018398514
0.002819987
-0.015740063
-0.022743799
-0.015442702
-0.004325087
0.0017489275
0.0039046435
0.0022695241
9.905732E-4
0.0025623948
-3.503089E-4
-0.0043345606
-7.534102E-4
0.006096918
0.007138127
0.0011338908
-0.00396819
-0.0050719352
-0.0041954136
-7.395547E-4
0.0047191237
0.011703454
0.016661061
0.017127527
0.014351903
0.008359352
0.0045747934
0.0018250939
-0.0027134567
-0.0018020201
-0.0015141501
-0.0060788556
-0.0073720273
-0.0076964786
-0.0077048377
-0.0058647427
-0.0074079027
-0.01155569
-0.010484897
-0.0011743548
0.0061029117
0.0022234798
-0.0063064005
-0.005874553
0.0053337277
0.013250621
0.012838816
0.006808688
-0.0022828192
-0.0055158385
-0.0079955
-0.011160697
-0.0048847725
0.0017809821
0.007870168
0.015540386
0.012291707
0.0075639454
0.00788989
1.2343487E-4
-0.009488708
-0.010910041
-0.010705864
-0.011257533
-0.009621645
-0.006866016
-0.0029519352
-0.0016976458
-0.0053068534
-0.0050762426
-0.0018336345
0.0022447512
0.010150651
0.010041005
0.00279112
0.0030790989
0.004668059
-0.0025932344
-0.011040587
-0.008148662
-0.0034877579
-0.0077386037
-0.0046680793
0.004796344
0.0062716496
0.0052176327
0.0016238794
-0.002404754
5.6285044E-4
0.002395202
5.076495E-4
-2.2351953E-4
2.5656074E-4
0.0035127073
0.0057240147
0.002146401
-0.003001455
-0.007502072
-0.010866499
-0.00813806
-0.0017115982
-9.836315E-7
8.8436407E-4
0.0077650966
0.009814367
-7.1287376E-4
-0.0086453995
-0.0058862036
-0.0014737417
0.0015360053
0.0020990653
0.0012956831
0.0046185628
0.0070909807
0.005882707
0.004901749
-0.0013424314
-0.013272793
-0.015274361
-2.4546916E-4
0.013650376
0.011637205
0.004255328
1.0089273E-4
-0.004025471
-0.007903878
-0.010401337
-0.009908158
-0.005193581
-0.0021874676
-0.0035251728
-0.0023368767
7.3774153E-4
7.3227775E-4
0.0020637286
0.0027522217
-0.0017992617
-0.0044426667
-0.002703297
-0.0011252485
-0.0020114728
-0.0020247002
0.0018084248
0.0036143395
0.0077705137
0.016345274
0.013718222
0.0056279516
0.0036160736
3.9860985E-5
-0.002264617
1.3263989E-4
0.0032991741
0.0047577103
-0.002724049
-0.011003586
-0.00828606
-0.0015010189
0.0039593177
0.0016126699
-0.006600622
-0.004724974
0.0018204167
0.0035521109
0.004439291
0.0018433273
-0.0025556984
-0.004869469
-0.004228002
0.0024808205
0.004964417
-0.0022813212
-0.00685941
-0.0049634636
5.127371E-4
0.0060807425
0.0057897423
5.365719E-4
-0.0060205143
-0.010564877
-0.009621042
-0.0047250097
0.0020239672
0.009120851
0.010216447
0.0039421474
-7.7356177E-4
-9.863282E-4
2.1040898E-4
6.771791E-4
-0.004521934
-0.010097894
-0.007077248
0.001918238
0.012623413
0.014767508
0.008743675
0.011276791
0.014330934
0.006850485
0.0019597576
0.0036373313
0.0027376285
-0.003775555
-0.007161951
-0.0054460466
-0.007798657
-0.0059583955
0.0020054528
-3.432613E-4
-0.008184631
-0.01216013
-0.0136552
-0.008503288
-2.6545327E-4
0.0025232949
-1.291064E-5
-0.004460132
-0.0053254864
-7.935563E-4
0.002065431
-9.5770776E-4
-0.0028171828
0.0017210293
0.007560703
0.010449189
0.009162103
0.0047864066
0.0027990981
0.0050921924
0.010736463
0.014316899
0.008468747
0.001585704
6.284973E-4
-0.0017068279
-0.0028688768
-1.010617E-4
-4.4349144E-4
-0.0022850183
-0.0021869699
-0.0026028883
-0.0065053785
-0.010721804
-0.0065329974
-0.0019673218
-0.0059274733
-0.005777752
-8.849714E-5
0.0023361424
0.0013202017
-0.0029315236
-0.0016881732
0.0068115187
0.009223768
0.0052690157
-4.1485496E-4
-0.005047259
-0.0036835773
-7.241114E-4
3.2062977E-4
1.0090116E-4
0.0010662173
0.0066356673
0.006569737
-0.0018064806
-0.0057078074
-0.0051664426
-0.0026737072
-0.001053108
-0.0061522136
-0.005172136
0.0064236834
0.012676294
0.013375601
0.010909202
-0.0011610008
-0.012848272
-0.014323282
-0.012197046
-0.006474061
0.0024688088
0.003961558
0.0057643815
0.018508768
0.025117358
0.01717008
0.0074785585
-1.7490108E-6
-0.006138947
-0.009839752
-0.011699113
-0.01045895
-0.005323938
9.127341E-4
0.0027231965
7.6160126E-4
-0.002703971
-0.0100865895
-0.011978725
-0.003968335
2.99494E-4
-9.272008E-4
-9.627676E-4
0.0045630615
0.014859784
0.01400539
0.0015074001
-0.0049369205
-0.0056778775
-0.0069340225
-0.0052198702
9.793661E-4
0.006191801
0.006586896
0.006405333
0.0043319217
-9.7119244E-4
-0.00160594
6.0835044E-4
6.179859E-4
-0.001332869
-0.0059501384
-0.006101677
4.0006838E-4
0.0051246937
0.0056184963
3.3644307E-4
-0.007269089
-0.007318056
-0.0017609001
0.001180576
0.001583065
0.0066731065
0.014970016
0.012128857
6.201429E-4
-0.0010956344
0.002556265
-0.0020712756
-0.005435753
-0.0015417414
3.7038815E-4
0.0016336933
0.0034260456
0.0027586573
0.002524155
-0.001215123
-0.006010337
-0.004366327
-0.0038567828
-0.0067145303
-0.0074347574
-0.0032664787
0.005714007
0.007944929
0.0022613637
9.4731053E-4
-3.7461784E-4
-0.0060298755
-0.0047758026
0.0012429687
-3.599966E-4
-8.930025E-4
0.0056235194
0.006445892
0.0024242671
-0.0037004326
-0.011563463
-0.0084165735
2.8395388E-4
0.00209278
0.0037822973
0.009871459
0.015320958
0.0111898435
-0.0012692892
-0.00705938
-0.003012559
5.5403094E-4
7.8009086E-4
0.0016602845
-0.002031937
-0.00993183
-0.008003402
0.0027542308
0.014483892
0.020854972
0.014734432
0.007759775
0.0026630112
-0.009937292
-0.017636253
-0.013556243
-0.0049644755
0.0027991692
0.0020749813
-0.0036690093
-0.005627909
-0.0061667515
-0.0059163305
3.5569878E-4
0.009388696
0.010661099
0.0057136095
0.0026790833
-0.0015820628
-0.0073529873
-0.007894481
-0.0060330685
-0.005177082
-0.003328269
-0.0025732126
-0.0019959644
0.0025685162
0.010540624
0.015378389
0.0066178683
-0.007758515
-0.009536544
-0.0051379525
-0.003545472
6.359162E-4
0.009323052
0.019171994
0.019612676
0.008934231
9.6997776E-4
-0.0025042067
-0.0057371124
-0.007723349
-0.008993367
-0.003981786
0.008160832
0.015110027
0.01270486
0.006758341
3.434613E-5
-0.005570601
-0.008658202
-0.01286133
-0.018983234
-0.01707788
-0.0020259847
0.01185447
0.010465171
-0.0021457663
-0.012807138
-0.011917738
-0.0066763777
-0.0066470797
-0.0011426959
0.010431669
0.013936763
0.014864924
0.0175001
0.009305454
-0.008870876
-0.019781837
-0.014861715
-0.005109317
-0.0020657936
8.306756E-4
0.011028788
0.019399723
0.016858038
0.008309037
2.085894E-4
-0.005809009
-0.00730584
-0.005744576
-0.0067178784
-0.007164386
4.5744787E-4
0.010966321
0.014994721
0.013629856
0.008211682
-0.0012377966
-0.007514351
-0.004820253
0.0029262814
0.008329335
0.0077090794
6.4000866E-4
-0.006710531
-0.007622371
-0.008290613
-0.011256456
-0.010208658
-0.00773875
-0.0059964573
-0.0046080695
-0.003711924
0.0015749228
0.0056857322
0.0024546452
-7.495017E-4
-0.003055402
-0.005690583
-0.0060081817
-0.0040794434
0.0018542768
0.006235252
0.005793183
0.009383954
0.014318252
0.012584276
0.008005077
0.0065230294
0.0055118855
1.5623914E-4
-0.0024764596
-0.0029084184
-0.009092657
-0.009166351
-0.001398767
0.0012359452
0.0016467517
0.0016578482
0.0017691385
0.006469832
0.0076814373
-3.4994906E-4
-0.008685462
-0.010926688
-0.011068729
-0.008862195
-3.5773226E-4
0.007648798
0.011512109
0.016143009
0.01898032
0.013281291
0.003098739
-5.4052594E-4
-0.0045798435
-0.01790779
-0.02416387
-0.015112971
-0.0040906714
-0.0016915079
-0.004360731
4.7987117E-4
0.0079478165
0.0059303893
0.0021857205
8.7148533E-4
-0.005168412
-0.010947069
-0.006808409
0.0019368256
0.0093070185
0.014836252
0.0106405625
0.0019485989
8.9764525E-4
0.0024360963
0.0072218003
0.013307231
0.008752316
0.0026476658
0.0039433357
8.8046683E-4
-0.009015631
-0.013228196
-0.008561967
-0.0024829113
-0.0012979797
-0.008822087
-0.015944373
-0.012031331
-0.004639085
0.0026693111
0.009998301
0.010766562
0.0060744477
-9.0294174E-4
-0.005334748
-0.004709676
-0.0011387916
0.00960043
0.015793823
0.0096373735
0.01182575
0.021018265
0.020517483
0.010833308
-0.0056089074
-0.018991401
-0.021978658
-0.02043274
-0.013897588
-0.001295524
0.010611262
0.014320961
0.009882453
0.0010623984
-0.011610715
-0.018501474
-0.014783036
-0.009751514
-0.004702879
-0.0014602819
-9.746614E-4
0.003469679
0.008419522
0.009587181
0.007834992
0.003534573
0.0013750272
0.003326451
0.0056838
0.0039147623
-0.0017768685
-0.0060670506
-0.005994002
-0.002843959
-0.0013010316
-0.0014542663
-7.23426E-4
8.461504E-6
5.570473E-4
6.604604E-4
0.009384474
0.022872522
0.0153956255
-4.6556676E-4
0.0021409104
0.008879465
0.007084525
0.0040107965
0.0010286284
-0.005837309
-0.0110336365
-0.0089893555
-0.009266265
-0.010137535
-0.0038434388
0.0012789869
1.1114898E-4
-0.0077020326
-0.013609917
-0.00907844
-0.0027212026
0.002550186
0.0024955405
-0.0038534913
-0.0038812757
-0.0024554818
1.282075E-4
0.0089005865
0.011214817
0.013200239
0.021179965
0.019815799
0.0110610165
0.0040394426
-0.00623608
-0.018042589
-0.020866165
-0.016222443
-0.009027649
0.004454739
0.023238221
0.039371435
0.03443911
0.0019675437
-0.02901653
-0.042271126
-0.043098293
-0.031514116
-0.016611835
-0.0083612455
-0.006651927
0.0019407787
0.025096346
0.037159745
0.02598815
0.007909292
-0.004558069
-0.0064136637
-0.01002226
-0.01706862
-0.011928428
4.4479256E-4
0.0063810726
0.0063998876
0.023707937
0.054697853
0.054755032
0.023917204
-0.0145110395
-0.045933764
-0.040418353
-0.0012665923
0.037300892
0.037606888
-0.0063555245
-0.037294976
-0.033087727
-0.021887569
-0.0086414395
0.0044405577
0.007946815
1.7013558E-4
-0.004826056
-0.0060507883
-0.022681825
-0.035939768
-0.030357273
-0.01886816
-0.007440872
-0.0102992365
-0.009044053
0.018807895
0.041507926
0.0425309
0.028260035
0.011483374
0.0074504665
-1.4580831E-4
-0.014624705
-0.015455882
-0.0010437152
0.018189846
0.02901806
0.02246652
0.0014508917
-0.014211894
-0.01015703
-0.0037942657
-0.0045239395
-0.004200054
-0.0019171524
0.005180411
0.011822484
0.0056144004
-0.00818778
-0.015750445
-0.017913405
-0.022810375
-0.026197514
-0.022426972
-0.013672085
-0.0030901963
0.0043177474
0.003978631
2.0141539E-4
0.008068818
0.024073157
0.01945121
-0.0027396546
-0.005689912
0.013087886
0.022036107
0.01530193
0.0025149926
-0.016603513
-0.024409484
-0.019112172
-0.020127004
-0.009512714
0.014633434
0.02221222
0.014149628
0.003773484
0.007796632
0.022231122
0.0046359184
-0.031748127
-0.035483193
-0.022459013
-0.021226846
-0.019241665
-0.008660696
0.006681071
0.012230517
0.002635106
0.0052612647
0.0144110685
0.003042533
-0.013851161
-0.023866251
-0.022814896
-0.0089433985
0.01273672
0.05961801
0.092250645
0.045289684
-0.02455888
-0.045727234
-0.04186456
-0.033206876
-0.012506141
0.002716617
-0.0025849377
-0.008630815
-0.0021795959
0.0064948844
0.009049166
6.8914844E-4
-0.0026915264
0.010596668
0.010542021
-0.0036316796
-0.0031725112
-0.0051974305
-0.021240437
-0.026123894
-0.016353194
-0.0067110388
4.2898706E-4
0.013462812
0.027502332
0.023961667
0.01160566
0.0057373946
4.5678593E-4
-4.4196346E-4
0.0051374678
0.007725087
0.0022253965
-0.008275662
-0.010549911
-0.00950713
-0.014694775
-0.01629139
-0.015838312
-0.011512616
-0.0018275344
-3.2610705E-4
-0.0026766586
-0.0055597466
-0.007924166
-0.0033800623
-0.0021755337
-8.929324E-4
0.0050777984
0.0049091773
0.0049963426
0.0041463138
-0.0061942106
-0.015746519
-0.01612974
-0.0064653833
0.0048480877
0.0074215904
0.0073845237
0.00880785
0.012171784
0.024425192
0.031528518
0.015768388
-6.730009E-4
-0.0015521251
-0.006767492
-0.018021401
-0.016444292
-0.0034729566
3.5847665E-4
-0.008911804
-0.009074128
-8.385995E-4
7.661542E-5
0.005239105
0.015513775
0.015437438
0.009913823
0.008601264
0.009023724
0.0028785847
-0.006453586
-0.0063816286
-0.0024631484
-0.0022124988
-4.6359678E-4
-0.0018036899
-0.008874127
-0.013090738
-0.016241336
-0.017984312
-0.008255884
0.004915026
0.009742195
0.010533113
0.0041134357
-0.009316851
-0.01890137
-0.028352745
-0.032429427
-0.020441772
-0.009662461
-0.006055583
0.0018229217
0.009590384
0.01657716
0.023063285
0.024580505
0.030358754
0.039624352
0.04059734
0.03489154
0.022122128
0.0022904952
-0.011814414
-0.013815188
-0.01161217
-0.0147861
-0.018432738
-0.012635188
-0.0070281243
-0.0053666825
0.0059087565
0.016248303
0.007502804
-0.0089927465
-0.019097101
-0.023617595
-0.023511147
-0.019290432
-0.016302224
-0.015075432
-0.008885757
-4.521331E-4
0.004464561
0.009055088
0.010599112
0.006432958
0.004722415
0.0073334533
0.0083522415
0.006802206
0.0046813213
0.0029737526
0.0024934204
0.0010553347
-0.0012787097
-9.1872085E-4
-0.0020726735
-0.0051635676
-0.0054449886
-0.0049227644
-1.2842615E-4
0.008496744
0.015068851
0.015928704
0.00472542
-0.0012329898
0.008334579
0.0085403565
1.4777927E-4
-0.0013509386
-0.001336585
-0.0047945622
-0.011874591
-0.016571157
-0.016313253
-0.015487418
-0.01616583
-0.01898056
-0.016243747
-0.009421142
-0.005066775
0.0022374815
0.0069903275
0.0072705275
0.006689447
1.5359788E-4
-0.0026653036
-9.7026255E-5
-0.0023012513
0.0019682045
0.01770274
0.029283635
0.027184814
0.015832976
0.005852467
0.0015351825
-0.002141271
-0.007864916
-0.012422376
-0.012041459
-0.0036427747
0.005617225
0.0035630653
-0.0034197292
-0.0052746655
-0.006960135
-0.012181946
-0.013953908
-0.00850731
-0.0045747007
-0.003920619
-0.0028684526
-0.004117321
-0.002285654
0.0028374458
0.0084684435
0.01756887
0.018835569
0.0132119395
0.011435762
0.0056644366
-0.00317218
-0.009841775
-0.013311429
-0.0091168275
-0.0067403507
-0.0077305716
-5.0512806E-4
0.0077333096
0.0066306433
-0.0022576924
-0.010624639
-0.008510762
-0.0031422032
-0.0036712934
-0.004252997
-0.005035726
-0.0016316723
0.0093450695
0.010444627
0.0046113557
0.0066246493
0.010137291
0.012848737
0.013371225
0.013174056
0.013796369
0.0026594389
-0.006340152
-0.0013896222
-0.0039048183
-0.0071520032
0.0012079536
0.003310349
-0.0041717
-0.01035221
-0.011453036
-0.008416938
-0.0063319667
-0.005760353
-0.0034504307
-0.001353679
-0.0012883117
-5.8062805E-4
0.004348192
0.0104076965
0.008374293
0.006661422
0.016678052
0.017907394
0.005284855
0.003195688
0.008455412
0.009425644
0.0075524347
0.0012332771
-0.003945013
-0.006002849
-0.008060455
-0.0078067137
-0.008142595
-0.007859273
-0.0042784177
-0.002028712
-0.0021398845
-0.0044551897
-0.0065439413
-0.0064153774
-0.007391146
-0.0053450274
0.0026187182
0.009239719
0.012477287
0.013637625
0.009690684
0.0027072653
9.1581285E-5
0.0025094291
0.0077461237
0.014519945
0.013940443
0.0058647096
0.0049562445
0.013257498
0.021802291
0.019580236
-0.0028035594
-0.026874976
-0.028035413
-0.016742233
-0.009657509
-0.006134522
-0.0031535605
9.1820967E-4
0.0036107353
0.0033532435
0.0028631252
3.8033107E-4
-0.001745949
-3.235132E-4
-8.2195176E-5
0.0014460435
0.006440945
0.0081295855
0.0066012773
0.0050397106
0.002981197
0.0011307439
8.301916E-4
0.0015366126
-2.3418054E-4
-0.002510149
8.087278E-4
0.006291689
0.007214256
0.003910353
-2.133491E-4
-0.0043815826
-0.008546072
-0.010216601
-0.0078614
-5.0069846E-4
0.008546684
0.011292302
0.0085595315
0.0046761814
9.845545E-4
0.0014011343
0.005955932
0.008892112
0.0055915313
0.0018686285
0.0065051997
0.011844032
0.010193507
0.0047053783
-0.003131087
-0.005862585
-0.0010993542
-0.0013702388
-0.006148128
-0.00515975
-0.0015652468
-8.4796955E-4
-0.0018063982
-0.003076847
-0.0031537737
-0.002125397
-0.002320822
-0.0034537485
-0.0037368326
-0.0026646578
-0.0012711228
5.411174E-4
0.0031128637
0.0016023874
-0.0021281817
-5.422008E-4
0.0028525956
0.0043878844
0.002880929
-0.0013447386
1.473927E-4
0.004872415
0.0054728696
0.004821225
0.0013734803
-0.0040894314
-0.005415427
-0.0035545665
5.4277055E-4
0.0076081837
0.014210947
0.01733511
0.018105198
0.013420875
-0.0010076032
-0.01356027
-0.012743626
-0.005415625
-3.1210692E-4
-3.022463E-4
-0.001955916
0.0011503381
0.0054720794
0.005755567
0.00271213
-0.002237874
-0.0033350973
7.5376424E-4
0.0022393076
0.0015459385
0.002615473
0.0014690489
-0.0020580993
-0.0030092709
-0.0022285602
-0.003947708
-0.0031862385
0.0048678843
0.00896089
0.0076468564
0.009905821
0.008523681
0.0047250586
0.003591097
-0.005402152
-0.013691692
-0.009142863
-0.0041521075
-0.0030600764
-4.5516656E-4
0.0012260405
0.0010751191
0.0010927623
0.0010892599
-9.01781E-5
-0.001827729
-0.0018769277
-4.2081106E-4
3.4009694E-4
-9.625573E-5
-0.0010077588
-0.0012935409
4.1920194E-4
0.0012281501
-4.6288173E-4
9.432101E-4
0.0035897929
0.0030468942
0.004585353
0.0056408546
0.002113785
0.002927464
0.008319468
0.008696869
0.0030486637
-0.0057282336
-0.01321207
-0.012070907
-0.0045210803
0.0018788701
0.010105297
0.019453056
0.020254808
0.0149619905
0.00838233
-0.0011291222
-0.007936934
-0.010882376
-0.013835279
-0.011843056
-0.0060736607
-0.0028612034
-7.5011194E-4
-3.369986E-4
-0.0030523236
-0.0046268534
-0.0038932178
-0.003668506
-0.0036194115
-0.0025745935
-6.284167E-4
0.0032770976
0.0056208153
0.0025595545
7.087065E-5
0.0012448507
0.0022194847
0.0033726573
0.0047484967
0.0044798707
0.0036070906
0.0030569294
0.004266104
0.008551746
0.011688806
0.009111328
0.0047231796
8.055223E-4
-0.0066219075
-0.01192036
-0.0081916945
-9.530959E-4
0.003987553
0.0028267705
-0.00385652
-0.0075557246
-0.005744942
-0.002080989
5.43529E-4
9.649722E-4
0.00291369
0.007130604
0.0077210115
0.0027954874
-0.0022284319
-0.0035913705
-0.0030093628
-0.0025094028
-0.0044295113
-0.006158081
-0.002201942
0.0028624448
0.0070173903
0.009538257
0.0025845598
-0.005198838
-0.0044725314
-0.0040946854
-0.0041562635
-9.5953763E-4
0.002207459
0.005327304
0.008996127
0.012764588
0.011021217
0.0020034895
-0.0045554787
-0.009032752
-0.013720806
-0.009482148
0.0018069091
0.00976315
0.011081144
0.0065051573
-0.0013806259
-0.0100436155
-0.014667311
-0.011265341
-0.0059730397
-0.0049956297
-0.005225081
-0.0026092154
0.0010324562
0.0019384413
0.001332887
6.2151294E-4
-0.0011692954
-0.0011889313
7.485707E-4
6.145845E-4
0.00137769
0.008284444
0.016862508
0.018693238
0.01512943
0.010242663
0.002059037
-0.0051179477
-0.005988162
-0.004815492
-0.0046538464
-0.0047226544
-0.0025257985
3.843381E-4
-9.5296727E-4
-0.0026943309
-0.0036938246
-0.007104162
-0.008007087
-0.005026433
-0.0014498446
0.0017067385
0.0028524117
0.0016145768
2.3273562E-4
1.5536547E-4
-0.0010940153
-0.0018352268
-2.8565538E-4
-0.0022206358
-0.0033323925
0.0023958615
0.008001623
0.008715029
0.00443579
-6.106249E-4
-0.0022566018
-0.0030271837
-0.003115598
-0.00234963
-0.0011131543
7.0341275E-4
0.0012170151
7.849063E-4
-0.0021723208
-0.005332711
-0.0050875586
-0.004705602
9.840657E-4
0.0093365535
0.008965799
0.0087074125
0.00933598
-9.296297E-5
-0.010853746
-0.014223446
-0.011944952
-0.006897081
-0.0034163306
4.4666853E-5
0.006350124
0.013294089
0.016927484
0.014498208
0.009449507
0.0036269384
-0.004019934
-0.00836902
-0.009026364
-0.010943741
-0.010925206
-0.0045699757
0.004322383
0.009808434
0.010609801
0.00766056
0.004514525
0.0033748965
-0.0026902654
-0.012237669
-0.013724802
-0.00835212
-0.0021797332
0.0012047436
-0.0011005574
-0.0035285396
-0.002545205
-0.0017470635
-0.00195319
-0.0014868042
6.3035745E-6
0.0013847261
0.0030423028
0.0031972355
-8.4996654E-4
-0.0062636374
-0.010942368
-0.010878023
-0.004714018
-0.0018723075
-0.0023797627
7.5896457E-4
0.005515808
0.009626156
0.010679043
0.006652426
0.00145226
5.538841E-4
0.0044083055
0.0045350115
0.0010303423
0.004770695
0.010323729
0.010562262
0.0126914885
0.014970713
0.011210379
0.00282609
-0.0063288147
-0.009898834
-0.009409019
-0.0104287295
-0.010372135
-0.00860796
-0.005740247
-0.0023213634
-0.0037739936
-0.010594705
-0.015986396
-0.01415213
-0.0067234156
0.0013405369
0.0062781763
0.0050178184
0.0025553757
0.0011212259
-0.0026531683
-0.0022508998
0.0021523573
0.0031418803
0.0025373755
0.0028846737
0.005479073
0.007398487
0.003988605
-5.044577E-4
-0.0014576231
-1.4792071E-5
0.0013150166
0.0020552967
0.0013081748
2.1428098E-4
0.0018170485
0.0016142583
-0.0015118191
-0.0054938807
-0.009252763
-0.006887606
-0.004560789
-0.004987279
-8.69815E-4
0.0038714716
0.009287057
0.008960261
7.5039733E-4
0.0031099718
0.008345121
0.0031547197
-0.0053986795
-0.013213514
-0.010383785
1.5905415E-4
0.0035555523
0.0021355897
-9.485023E-4
-0.0044372627
-0.005104759
-0.0019472714
0.005562343
0.011926901
0.0125122825
0.007295489
-0.0017369497
-0.010377325
-0.013502513
-0.008318916
-5.591125E-4
0.006009536
0.007305375
-4.8958306E-4
-0.0044349045
-7.977515E-4
0.0016072165
0.0025940547
3.1761915E-4
-0.0030132707
-0.0045508808
-0.0059415973
-0.004602965
-0.0038551085
-0.003992816
-0.0015751239
-4.247527E-4
8.4717205E-4
0.0039350186
0.004617573
0.001802999
6.537208E-4
0.002491605
-5.396781E-4
-0.005653056
-0.004715052
-0.00101236
9.820266E-4
-9.1075414E-4
-0.003715957
-0.004113457
-0.0036233803
-0.00117504
0.0011707244
0.005006881
0.013841109
0.017655745
0.01241526
0.0059841177
-3.6178096E-4
-0.00888177
-0.015395853
-0.015264729
-0.010184363
-8.744372E-4
0.010905917
0.019741774
0.021791069
0.011613113
-0.006890196
-0.01921718
-0.019589605
-0.011428984
-0.0031935715
-1.6122905E-4
0.0034076686
0.009156396
0.009097878
0.0017443523
-0.0057485267
-0.009681032
-0.008628443
-0.0041186037
-0.0019760968
-2.186342E-4
0.002599604
0.0038149199
0.0051385565
0.0021125926
-0.004528057
-0.00613135
-0.005537425
-0.0051851002
-0.003532779
-0.0016455803
0.001970939
0.006251503
0.007898936
0.006661775
0.004326966
0.0027844592
0.0034505052
0.0054649957
0.0050648525
0.0020639964
-0.0015451984
-7.608508E-4
0.006172408
0.006852993
5.7149155E-4
-0.0024348167
-0.0032005266
-9.766209E-4
2.2594405E-4
-0.003535437
-0.003311169
9.412133E-5
8.213853E-4
-0.0015319567
-0.004434561
-0.003579916
-0.0034213706
-0.0044463864
-0.003123843
-0.003020904
-8.89739E-4
0.0040851575
0.005234112
0.0023798563
-0.0017656564
-0.0038388963
-0.004040239
-0.005334562
-0.0042730807
-2.738615E-4
0.0018922776
0.003153113
0.004660262
0.0030697675
-3.7121229E-4
-0.002619446
-0.0034645128
-0.0015427825
8.8147755E-4
0.0013014745
0.002969002
0.006886249
0.009956785
0.007673112
0.0017467177
-2.0047594E-4
1.2217801E-4
-9.008388E-4
-5.5879314E-4
8.537731E-4
0.0022955092
0.0037024848
0.0041751945
0.0029563287
-8.2869496E-4
-0.004117259
-0.0044561173
-0.0042512408
-0.0047701686
-0.00523905
-0.0034916147
7.1997475E-4
0.0029105803
0.001354656
-0.0017963405
-0.004939442
-0.0062075383
-0.0056135976
-0.0049955226
-0.0032087145
2.065943E-4
0.0017869156
0.0021544367
0.0037027448
0.0024897924
-0.0016349028
-0.003674661
-0.004195133
-0.0037645944
-0.0018217906
-3.636083E-4
0.0019143382
0.0046754833
0.003381868
-2.7460456E-4
-7.961969E-4
0.0015425283
0.003693851
0.005795092
0.007111802
0.0057588657
0.0045044147
0.005483026
0.0062174182
0.0041506947
-2.1530404E-4
-0.0018570806
7.0286024E-4
0.0010150877
-0.0021526287
-0.0016881556
0.0024928953
0.0028221332
-5.5109244E-4
-0.0055284053
-0.012149901
-0.012022601
-0.0068617132
-0.007757818
-0.008481724
-0.0035769562
0.0023531988
0.0055056694
-3.691892E-4
-0.008261094
-0.0057818578
-3.634301E-4
2.556867E-5
2.2073454E-4
0.0032968987
0.005770798
0.006353203
0.007321863
0.006736006
0.0035413501
-2.2081008E-4
-0.0027088248
-0.0011264061
0.001226966
0.0012784383
0.002489279
0.004210742
0.0047626123
0.0041673165
0.0011984975
-0.0023618604
-0.003246087
-0.0016081692
-0.0011404753
-0.002303025
-0.0023296787
-0.001258334
6.81623E-4
0.0011086736
-0.0017224686
-0.0038082649
-0.0037264656
-0.0028396724
-0.002129341
-0.0011976396
0.0014806786
0.0027067773
0.0022568794
0.002980872
0.0010136642
-0.0037128013
-0.005284571
-0.0028223514
-4.1256435E-4
2.2100607E-5
9.1097277E-4
0.001727488
0.002007712
0.0037212102
0.0022916892
-0.0029033886
-0.004964224
-0.0042135017
-0.0025899522
3.598639E-4
0.0022831443
0.003520279
0.0052149384