0.0032234322
0.0034371866
0.0026315849
0.001442666
0.0025205193
0.0026741482
0.0023292738
0.0017298583
0.0033037863
0.0045956713
0.0015117202
-4.9650733E-4
-4.9246097E-4
-2.4780355E-4
-8.878634E-5
-5.596883E-4
1.1623761E-4
0.001304937
0.0031885738
0.0029628917
3.5206636E-4
0.0012095371
0.0015711164
1.8225242E-5
1.2550407E-4
3.9725797E-4
0.0015199385
0.0017921521
0.0012358847
0.001512017
9.4895985E-4
0.0011148606
0.0013033136
0.0017262507
0.0031737664
0.002871617
0.0012167118
-5.311043E-4
6.4120913E-4
0.0013784973
-0.0014536998
-5.9960637E-4
-7.4948824E-5
-0.0018328184
-0.001620979
-0.0036073104
-0.0021579922
0.0016666951
-7.332775E-5
-7.41014E-4
4.7328038E-4
8.9035934E-4
0.0010417396
4.915848E-4
6.036075E-4
-4.7053743E-4
1.031059E-4
0.0028338435
0.0033062391
0.0041750255
0.0039606546
0.0033004628
0.003934942
9.5203496E-4
-3.3725987E-4
0.0017577686
6.7049154E-4
-2.4839208E-4
0.001053004
0.0011690161
4.769196E-4
0.0017616563
0.003451421
0.0027781643
0.0023895951
0.0014289398
-0.0010501598
-0.0013990055
-0.0012572476
-0.0014931184
-1.746193E-4
1.6848277E-4
-0.0011877941
-3.861593E-4
0.0011239153
-7.9177355E-4
-0.0016857869
-4.5962594E-4
-8.894642E-4
1.9568102E-4
3.1126855E-4
-0.0020650844
-5.26601E-4
-3.572014E-4
-0.004947123
-0.0050811884
-0.0013649313
-7.491384E-4
2.5576336E-4
0.0035580958
0.0029644012
0.0019998858
0.005263601
0.005744574
0.0031195157
7.8740873E-4
-0.0012532931
1.5184958E-4
0.002297961
0.001452951
0.001020265
0.0026507059
0.0038543248
0.0024640558
0.0018453742
0.0025723393
0.0011394244
0.0013026922
0.0017802536
-0.0010964405
-0.001709908
-0.001341906
-0.0030884533
-0.0033859771
-0.003379476
-0.004087246
-0.0041209403
-0.0033857033
-0.0011221605
0.0014583988
0.0031297891
0.0031807232
0.0010081214
-4.5787226E-4
-0.0010592432
-0.0021815486
-0.001703642
-0.0014420968
-0.0020937938
-0.0010064145
-2.7710578E-4
4.9815496E-4
0.0014857717
-1.7002644E-4
-5.114941E-4
0.001488242
0.002374967
0.0029411153
0.0036648263
0.005445116
0.005699775
0.0013993278
-0.0015074458
-0.0013943807
-0.0015517516
-0.0014115011
-0.0010590126
1.4493529E-4
3.406233E-4
-0.0015952938
-0.0011978511
-6.1142154E-4
-0.001958118
-0.0018548099
-0.0025370177
-0.0036566472
-0.0015816136
1.1513911E-4
-8.7567E-4
-9.314702E-4
0.0016526892
0.002895498
2.5793732E-4
-0.0016327167
-0.0019091023
-0.0038138586
-0.0039210944
-0.0014551966
-1.5412217E-4
0.0013599886
0.0031945545
0.003934627
0.004457021
0.0045580873
0.005151192
0.004958144
0.002894895
0.0021747737
3.3146865E-4
-0.0038500647
-0.0054508657
-0.0043062987
-0.002678963
-0.0032209202
-0.004144024
4.5475646E-4
0.0046887966
0.0026096676
0.0014518201
0.0027832733
0.0024624218
0.0020642655
2.8124676E-4
-0.003096015
-0.003758905
-0.004413847
-0.005109338
-0.0024678202
-0.001726747
-0.0025551803
-6.9724367E-4
-4.6748182E-4
-0.0019741666
3.277767E-4
0.0045740195
0.0055823526
0.0064370004
0.008098011
0.005668295
0.0039713285
0.0038891467
-7.382831E-4
-0.0049033365
-0.005363716
-0.005224854
-0.0073046475
-0.012201699
-0.0133179985
-0.0103637865
-0.008901178
-0.007957621
-0.0058541945
-0.0021882174
0.0036393593
0.012590067
0.021252194
0.024592383
0.023128279
0.016198022
0.009290761
0.0022557825
-0.019065002
-0.039186753
-0.031936467
-0.008930888
0.011047989
0.023741512
0.02927936
0.03498785
0.04558514
0.04682332
0.019546214
-0.02982564
-0.067322895
-0.063006684
-0.029728277
-0.0070848456
-0.00198291
1.878753E-4
4.766388E-4
8.4743695E-4
0.0023651156
0.0018669929
0.0031401508
0.006540518
0.007552424
0.00710987
0.006413795
0.0026599905
-0.002203583
-0.005617153
-0.009384923
-0.007826703
-7.113562E-4
0.0030326582
0.0049993605
0.0064973547
0.0072409865
0.007787889
0.0048138704
0.0044979476
0.005592235
9.698473E-4
-0.0016548644
-0.0029192339
-0.0032546432
0.0019216598
0.002522308
-8.04053E-5
0.0030391593
0.008404605
0.011026297
0.0040727486
-0.006419748
-0.0063912356
-0.0012265244
7.928141E-4
0.0017439477
0.0027900678
8.640799E-4
-0.004074292
-0.006898075
-0.0067182234
-0.00399278
-0.0028577335
-0.0072123995
-0.006921815
-0.0022815403
-0.0019911306
-0.0010346207
-4.8394353E-4
-0.001057902
0.0014363496
0.0023280953
0.0032262926
0.005656864
0.006602169
0.00793052
0.008265185
0.008304871
0.0070330906
0.002042975
-6.313531E-4
-0.0023236102
-0.004834663
-0.003930213
-0.0018907
8.179007E-4
0.0021218783
9.6291414E-4
0.0023833278
0.001580385
-0.0018442117
-0.0012922025
-0.0017133926
-0.0041472763
-0.004262052
-0.004093494
-0.004420176
-0.0038568976
-0.0023088355
-9.128033E-4
2.810392E-4
0.0014246394
0.0018807316
0.0028215386
0.002128004
6.661405E-4
0.0028651122
0.004898772
0.00578947
0.0067320685
0.005566214
0.004723046
0.004141927
0.0038065892
0.0044483677
0.0037911409
0.0033560644
0.002762254
0.0026428523
0.0016498636
-0.004553323
-0.006217274
4.8751588E-4
0.0045406385
0.0014630873
-0.0046698223
-0.0059508267
-0.004284656
-0.004594759
-0.0038589335
-0.004227165
-0.0040947404
-0.0014884509
-7.7805266E-4
-3.1417975E-4
-4.1277223E-4
-4.161714E-4
0.0010825299
0.0011411904
9.708296E-4
-0.0010582407
-0.0023592063
7.500709E-4
0.0023721464
0.003790922
0.0046688193
0.0030585527
0.004292465
0.0048239795
0.0024565405
6.9364934E-4
-4.114905E-6
2.526532E-4
-0.0014016596
-0.0013112889
0.0027512892
0.0038469469
0.004887537
0.010458626
0.015200158
0.013510221
0.0039212634
-0.008972031
-0.014616232
-0.0077259466
4.2016382E-4
4.4822646E-4
-0.0015242457
-0.0022257827
-0.0012277224
0.0020669624
0.0029761754
0.0016739684
0.0019387256
0.0023911058
-0.0018357917
-0.008192205
-0.006835333
-5.052422E-4
0.0015455824
5.111502E-4
3.9990008E-4
1.904941E-4
-0.0026544004
-0.003920854
-0.0013409667
3.814722E-4
0.0032605447
0.0061876136
0.0043153362
0.00240315
0.0017059804
8.785252E-5
-0.0010711667
-0.0010630138
0.001913068
0.004436111
0.0037948848
0.0041106073
0.0034564333
0.0016141516
0.0018274996
8.076306E-4
4.5059397E-4
0.0025003026
0.002879256
0.001817821
-0.0012149006
-0.0028075275
0.0014419971
0.004962273
0.0053478135
0.003941324
0.0019376215
0.0037154502
4.9322646E-4
-0.008980173
-0.0081425
-0.0024670416
-0.003651521
-0.004538608
-0.0025152701
5.109717E-4
0.0034959745
0.005272836
0.008675342
0.009386764
0.0053535313
0.003839727
0.003959229
0.002192624
-0.0012850824
-0.0036811444
-0.0024461108
-0.0036629916
-0.006416033
-0.0056049363
-0.0057407944
-0.0045020576
-0.0013865257
-0.002080063
-0.0015429296
0.0016502602
0.0026944317
0.0012935341
-9.6298044E-4
2.3288112E-4
0.002801055
0.0030343207
0.0059649954
0.007470992
0.0018469283
-0.002221631
-0.004476441
-0.008503151
-0.0043170615
0.0067149
0.018384926
0.031531934
0.026730582
0.0065001203
0.0073644463
0.018150806
0.014008127
0.0032771162
-0.01915731
-0.0405095
-0.032254055
-0.014994913
-0.011476001
-0.01108305
-0.0051094126
0.0042527826
0.009416211
0.012169289
0.018781357
0.025992097
0.028925028
0.014145361
-0.015664311
-0.026225971
-0.014783573
-0.008886578
-0.00776686
-0.0010122393
0.006082358
0.0074843457
0.004237685
0.0017022687
-0.0013328851
-0.0055124443
-0.003593381
-0.0016177307
-0.006580541
-0.007697678
-0.002369433
0.0016321267
0.0039927615
0.006046183
0.006379114
0.0049650115
0.00442067
0.004628528
0.002236615
5.8544474E-4
0.008391838
0.022100242
0.026327968
0.024157219
0.025901444
0.02381156
0.018726412
0.0046992274
-0.02954201
-0.0485716
-0.034382965
-0.020220658
-0.013624942
-0.0070313425
-0.0031595407
-8.8462996E-4
-0.0017590701
-0.001788716
-0.0012997672
-0.0048730494
-0.0030579788
0.0042901435
0.01020506
0.015462683
0.016411629
0.012812285
0.010662075
0.0068484056
-0.006830452
-0.018614758
-0.012490238
-0.0039491383
-0.0011516381
0.0065467474
0.011534161
0.012835828
0.013203503
0.006482278
0.0030932585
0.0044067567
0.0013823148
-0.007112074
-0.02335828
-0.026501033
-0.0055774013
0.008980229
0.012093107
0.018019615
0.01806555
0.01064164
0.0046098894
0.0011819145
-0.0014319171
-0.003913873
-0.0049592718
-0.004157007
-0.0024412014
-0.002009728
-0.0020509462
6.3727284E-4
0.0017847256
2.4711638E-4
0.0010684392
0.003424393
0.0029023518
-0.0038079855
-0.010736418
-0.009218027
-0.0018409641
0.005092765
0.006179881
0.0035641424
0.0039718295
0.0038296843
-2.6315483E-4
-0.0054116007
-0.008431913
-0.007814456
-0.005854093
-0.0035099662
-0.0016676178
-9.91199E-4
5.620867E-4
0.0033782076
0.009130585
0.015497292
0.017622124
0.019976446
0.024597567
0.023857817
0.014591038
0.0034082865
-0.0069609378
-0.016625758
-0.017221594
-0.012041838
-0.010636297
-0.006527848
-0.0020175863
-0.0038961428
-0.0039270967
-0.0015691353
-0.00113133
6.99362E-4
0.0028522229
0.003955062
0.005870553
0.0053379866
2.9418847E-4
-0.0035930178
-0.0023195927
-9.888988E-4
-0.0037000142
-0.004913685
-0.0033395959
-0.0039057282
-0.002076662
0.0036651683
0.0060210647
0.0053474796
0.0041101486
0.00472958
0.006170836
0.0012369755
-0.006711558
-0.015367934
-0.023239987
-0.01757206
-0.002187505
0.008488535
0.013126524
0.014982712
0.019372733
0.030155642
0.040416986
0.036963962
0.02477883
0.019135483
0.013990912
0.008087054
0.008179208
0.0017042016
-0.016477633
-0.033696897
-0.037950248
-0.0322749
-0.031023473
-0.03486554
-0.037535314
-0.033730585
-0.0201838
-0.004607884
0.009167105
0.018191205
0.014265024
0.0021639597
-6.667211E-4
0.009487303
0.012789141
0.0037507932
-0.0058240867
-0.009249598
0.0011690196
0.015782235
0.025468847
0.03439369
0.035212487
0.0340115
0.036089282
0.036303334
0.03447346
0.02642276
0.03493641
0.05456382
0.044647265
0.029383322
0.019414298
-0.012943653
-0.050089497
-0.07223006
-0.075526975
-0.06957695
-0.07101704
-0.07137121
-0.065942444
-0.052289832
-0.030402554
-0.019850172
-0.024632953
-0.03182916
-0.034909
-0.037071224
-0.03430494
-0.018406406
-0.0020058579
0.0073892395
0.012121341
0.016855968
0.036580477
0.06665355
0.09580354
0.12362579
0.1480749
0.16504833
0.15897828
0.13041241
0.09421938
0.050525337
0.004188754
-0.038850877
-0.06554095
-0.06851419
-0.065728456
-0.05701832
-0.045321133
-0.042426504
-0.038868204
-0.04196605
-0.05180342
-0.054222275
-0.05747961
-0.058318686
-0.0550522
-0.0573529
-0.057190195
-0.055829618
-0.05591296
-0.05037
-0.043710016
-0.0350792
-0.025675822
-0.018624699
-0.005186668
0.00607198
0.015486223
0.041480176
0.069689214
0.08465551
0.09392618
0.10071825
0.10036524
0.08411281
0.06540486
0.06076623
0.055276908
0.04382429
0.03581406
0.030128885
0.024811087
0.025572184
0.0372117
0.044458568
0.030820975
-0.0069103385
-0.059220355
-0.09473659
-0.10132787
-0.09462872
-0.08843648
-0.0896086
-0.087905236
-0.08192507
-0.07874221
-0.07215199
-0.058430176
-0.032588713
-0.0040636654
0.018876493
0.04684559
0.07089366
0.089733556
0.10964393
0.11961272
0.110705376
0.07646323
0.040992387
0.019791316
-0.0016101132
-0.0067993575
-0.006543149
-0.027596397
-0.049733542
-0.06243858
-0.06241757
-0.049780082
-0.036504716
-0.021794677
-0.013152851
-0.013703086
-0.019432332
-0.026598144
-0.020097421
-0.014343083
-0.02663808
-0.032284424
-0.014623879
0.013824701
0.03570626
0.046209224
0.052386682
0.055452693
0.049399525
0.042935364
0.051942512
0.057047863
0.038001854
0.015497915
0.0030681917
-0.0030055202
-0.006416062
-0.0064878366
0.0035451816
0.0075970367
0.0035226028
0.015787719
0.02986486
0.025510656
0.012110947
-0.0065134903
-0.026218973
-0.0401743
-0.04813197
-0.0515793
-0.056942906
-0.060634397
-0.0518078
-0.03606264
-0.022292862
-0.011971123
-0.0038074178
0.0055735507
0.013543367
0.018280612
0.021010147
0.021307802
0.02010119
0.014580761
0.010505247
0.009632193
0.002351268
-0.0025976247
-0.006365818
-0.009771012
0.0036071069
0.016205115
0.013977486
0.011522063
0.012749972
0.007051154
-0.010088069
-0.010439387
-7.8113546E-4
-0.020678692
-0.044293616
-0.042810716
-0.024257975
-0.0032917445
0.0028391052
-0.0020076067
-4.816556E-4
0.040997818
0.1044794
0.13802782
0.15914732
0.14430133
0.08614877
0.044061482
-0.0014803399
-0.024189085
-0.01485201
-0.0583709
-0.10906012
-0.12654355
-0.13526635
-0.10011534
-0.055733945
-0.04130362
-0.024575902
-0.003289567
0.0060238075
-0.006251105
-0.021182785
-0.027781697
-0.04784866
-0.065169536
-0.05390803
-0.019591829
0.022094132
0.059628792
0.08455123
0.091181606
0.10228582
0.12186489
0.11820234
0.09445186
0.07306995
0.059142612
0.03785598
0.0016145146
-0.03135749
-0.059631348
-0.08352276
-0.091413766
-0.08916871
-0.0855066
-0.08098062
-0.067454115
-0.047753714
-0.032281365
-0.014526269
9.043753E-4
0.008463391
0.011438163
0.0071733417
0.0051313634
0.00591126
0.0040581548
0.008845492
0.024189046
0.05301468
0.09555773
0.13831241
0.15816973
0.1570004
0.15773363
0.12890162
0.046618573
-0.039678976
-0.09958734
-0.1335077
-0.15105703
-0.16770758
-0.1681384
-0.14519775
-0.11464958
-0.08542757
-0.06160453
-0.028001394
0.015859587
0.045864295
0.065573595
0.07704171
0.068915166
0.05712919
0.041077077
-0.011303358
-0.07586034
-0.08948144
-0.044768397
0.033634722
0.11951389
0.18105309
0.20957452
0.20243108
0.16454236
0.112981014
0.03465556
-0.06358916
-0.13065144
-0.15191385
-0.14830352
-0.12613997
-0.08780173
-0.052921735
-0.036010206
-0.0286995
-0.022998596
-0.019202469
-0.0155462185
-0.011151581
-0.010761348
-0.012022456
-0.0059515405
4.9444247E-6
0.002868743
0.0092349
0.0139664775
0.0201372
0.025219006
0.026229046
0.03091928
0.022987172
0.009246656
0.010983153
0.007930936
-0.0016612449
-0.0028242914
0.016766299
0.06896138
0.1131593
0.12196915
0.11473585
0.08507335
0.039651822
-0.002917881
-0.058424503
-0.11531058
-0.13226707
-0.10434901
-0.059239402
-0.023432638
-0.00574364
3.754068E-4
9.237492E-4
-0.0033479158
-0.011431053
-0.020849476
-0.02783778
-0.031033184
-0.03330521
-0.033224758
-0.027566716
-0.018774988
-0.008316219
0.003949431
0.016382797
0.027809706
0.036516417
0.042081468
0.045257796
0.044785194
0.041425705
0.038152914
0.034811214
0.02866497
0.0187983
0.0074041565
-0.0010332462
-0.0042339964
-0.00674075
-0.010239635
-0.011254244
-0.010790672
-0.009484936
-0.0074066077
-0.005812426
-0.003577088
-0.0035119287
-0.007165658
-0.012662791
-0.018533617
-0.016248737
-0.0068955463
-0.0037846705
-0.004905079
-0.0047272765
-0.006912165
-0.009790967
-0.0112258755
-0.012319523
-0.012278919
-0.010354992
-0.0050512827
0.004816139
0.017730746
0.027003424
0.026934778
0.023644432
0.02052918
0.014035431
0.0103153335
0.012103122
0.012235573
0.009800946
0.0058645434
7.8516523E-4
-0.0027258268
-0.0048412895
-0.0071735233
-0.008467905
-0.0061366735
-0.0045300685
-0.006985693
-0.008119531
-0.008869861
-0.009283209
-0.0070478898
-0.006367057
-0.00477584
-0.0038113547
-0.0036425272
2.1521373E-4
-0.004644588
-0.009386516
0.0021580425
0.008426341
0.00458131
0.002715825
-0.0016384799
-0.0031829001
9.962557E-4
0.0047016996
0.007057508
0.003662707
-0.0016424834
9.778513E-4
0.0057831164
0.0050317678
0.0038375184
0.0064187553
0.00982424
0.01172215
0.009554751
0.0038740495
-0.001215836
-0.0047229417
-0.003163007
0.0027945705
0.005502991
0.0065130778
0.0084913
0.00709759
0.0026542805
-0.0022796039
-0.008418422
-0.013651222
-0.012804011
-0.0066595837
-0.0018234239
-5.340869E-4
-2.7201138E-4
2.9784965E-4
0.0014612406
0.0029858146
0.0037728383
0.0031160018
0.0012445758
-3.5827595E-4
-0.0016707494
-0.0030005462
-0.0010270022
0.0032383061
0.005909321
0.007284238
0.00551755
0.0025402864
0.0012940564
-0.0029586067
-0.0081087155
-0.009451015
-0.0075962394
-0.0026343442
3.773497E-4
3.763686E-4
0.0018819798
0.0019007099
4.3515678E-4
0.0011501978
0.0013240529
6.7679066E-4
0.0020304741
0.0036318945
0.005026081
0.007141501
0.009355896
0.013514808
0.01591113
0.012778426
0.008132308
0.002501597
-0.0018167746
-0.004855231
-0.009713585
-0.009635741
-0.0073089143
-0.006683408
-0.002555719
-8.066835E-4
-0.0020869337
-0.002532027
-0.004253017
-0.0035160517
-0.0011957509
-3.34196E-4
-3.212481E-4
-3.1883144E-5
0.0014959972
1.7572753E-4
-0.0010290403
-7.0428214E-4
-0.003370319
-0.0030962364
1.6364324E-4
0.0012796295
0.0021541938
0.0040530968
0.0015395621
-0.009199743
-0.009464118
0.0050249835
0.009352894
0.0056589213
0.0055250963
0.0044063097
0.003491949
0.0037627541
0.0041878484
0.0035203744
0.0013336367
-3.9127E-5
-4.923126E-4
-4.8431757E-5
-0.0013052878
-0.0035689827
-0.0047192876
-0.0036909026
0.0018213722
0.0037774174
0.0022342897
-5.372536E-4
-0.008603691
-0.010273153
-0.011199883
-0.014589767
-0.0056744902
-0.003562038
-0.008101655
-1.3905026E-4
0.0044533666
0.0062629087
0.011369228
0.013209375
0.018545322
0.021496136
0.01785972
0.014915481
0.00883354
2.1092595E-4
-0.0079902895
-0.015118385
-0.015621758
-0.01107631
-0.007830614
-0.005862811
-0.004046034
-0.003837273
-0.0037566244
-0.0032426897
-0.0032495998
-0.0011583186
-0.0010636928
-0.00569459
-0.006953847
-0.0052866936
-0.0059001674
-0.0058109905
-0.0030533124
5.073294E-4
0.0030863336
0.0037648843
0.0032313974
0.0040421044
0.006366301
0.007330863
0.006555758
0.0047578705
0.0034316182
0.003353142
0.0024685583
0.0016996198
2.4163102E-4
-0.0018347959
-8.778844E-4
-0.0021306544
-0.0036856527
0.0014856312
0.003313388
0.0025837773
0.008016884
0.009641393
0.0067292475
0.0067504635
0.0046370984
1.14210954E-4
-0.0028252394
-0.00547579
-0.00801764
-0.008851775
-0.00786675
-0.0072459793
-0.006462737
-0.0039488547
-0.0030005414
-0.0031677408
-0.0022398368
-0.0028687117
-0.0030434877
-3.1397003E-4
0.0013335933
0.0013414006
0.001840011
0.0018648679
0.0016226053
0.0027493527
0.004358748
0.004604199
0.0040688883
0.0036589522
0.002181347
1.8124974E-4
7.506842E-5
0.0016195816
0.0026113007
0.0020276194
9.360231E-4
-7.3111727E-4
-0.0031154028
-0.0028284297
-1.16902076E-4
0.0012623321
0.0023192065
0.0038695869
0.0028487882
-3.2395494E-4
-0.0010933437
2.1632333E-4
3.640899E-4
1.0307092E-5
-5.861532E-4
-0.0013644183
-9.3206245E-4
-1.1105061E-4
-4.4651967E-4
-0.002057846
-0.002811093
-0.002200646
-0.0021467612
-0.0027202622
-0.002990317
-0.001426111
-7.2971324E-4
-0.0018771939
5.2854186E-4
0.002351896
0.0010159857
0.0012396222
0.0014388071
0.0026310617
0.0031653175
6.03941E-4
0.0014975227
0.004685344
0.0061840704
0.005281347
0.0021955094
0.002027929
0.0029321285
0.0023588047
9.2191825E-4
-0.005070963
-0.010593146
-0.00991103
-0.006774062
-0.003827764
-0.0017008977
-1.8955028E-4
6.993909E-4
0.0011082245
2.7652094E-4
-0.002680979
-0.004448421
-0.0051269834
-0.0050446093
-0.0030154109
-0.0029681714
-0.0023539239
0.0012475324
0.003064569
0.0034660972
0.0026618498
0.002260798
0.004410398
0.004405559
0.0028154713
0.0012246727
-4.0774985E-4
0.0010121706
0.0019078923
0.0014747784
4.6034824E-4
-0.0026303069
-4.0208493E-4
0.0028490669
6.196069E-4
0.0014192736
0.003112222
0.0048054755
0.007024087
0.003525083
0.0010959329
-0.006027542
-0.01667324
-0.006756234
0.0032079266
-0.007935617
-0.011105258
-0.0014198155
0.001885215
0.0010948455
9.4145356E-4
-0.0011191063
-0.0036077227
-0.003229265
-0.0024263887
-0.0030434306
-0.0019405447
4.2213572E-4
0.0015309728
5.170838E-4
-0.001452954
-0.0010321148
0.0013721448
0.003034434
0.003837358
0.00350768
0.0026394352
0.00399152
0.0052707456
0.003056729
3.2185754E-4
-9.054065E-4
-1.8990794E-4
8.461829E-4
-4.9072E-4
-6.4106935E-5
0.0021829484
0.0025111644
0.0025426743
0.001471125
-7.444237E-5
-1.617395E-4
-7.407872E-5
-1.7335104E-4
-0.0016181843
-0.0033741116
-0.003990914
-0.0036231873
-0.0023862778
-0.0021614865
-0.0016947726
-0.002524531
-0.005160758
-0.004272614
-0.0047661816
-0.0069390843
-0.004525211
-0.0022014447
3.370192E-4
0.003259609
0.0029947122
0.003658751
0.0037397717
0.0012435595
-8.56805E-4
-0.0014796844
0.0017958469
0.0053979093
0.0056508803
0.0066374564
0.006901969
0.0040439945
0.0018223838
0.0020169134
0.0024981506
0.0011625186
-7.1387296E-4
-0.0013866206
-0.0018815933
-0.0016817871
-4.0290516E-4
-4.903836E-4
-3.6317718E-4
0.0011281432
2.2125654E-5
-0.0011183147
5.5024255E-4
4.642938E-4
-0.0015425923
-0.0034123145
-0.004264673
-0.0031665922
-0.0033643537
-0.0054199947
-0.0049174777
-0.0018518545
-0.0019444893
-0.004642039
-0.0034064148
-8.2642736E-4
3.4506863E-4
0.0013799181
-4.5816586E-4
-0.0023094418
-0.0016760407
3.5567695E-4
0.003566331
0.0030271616
3.7907605E-4
-8.9520967E-4
-0.0014087582
0.0028050507
0.008059802
0.0104921665
0.012232776
0.0107221715
0.008241985
0.0065030083
0.0043075667
0.0021108421
-0.0037025963
-0.008187911
-0.006069187
-0.0037317192
-0.0030837446
-0.002604209
-0.0021721015
-0.00168082
-0.002028737
-0.0032330547
-0.004128311
-0.002276035
-0.0015267321
-0.0043080836
-0.0048250733
-0.0045737526
-0.0031324571
8.767394E-4
7.8471913E-4
4.4992083E-4
0.0015440958
3.6037614E-5
0.0024017666
0.005146909
0.0023655426
0.001577267
0.0029015492
0.0023206905
0.0013900469
9.206391E-10
-0.0014098809
-0.0012475824
-4.6566606E-4
-6.2646257E-4
-5.4341846E-4
4.3148824E-4
0.0010253191
0.0012188839
3.5565894E-4
-6.303949E-4
-6.585829E-5
4.5231904E-5
1.3570178E-4
6.9722795E-4
-1.2677402E-4
-3.322188E-5
0.001013221
9.367075E-4
9.689247E-4
-5.5107294E-4
-0.0029793778
-0.002476788
-0.0013681332
-0.0014229746
-0.0012233133
-5.369268E-4
3.597088E-4
1.3600313E-4
-3.1480956E-4
-2.7954855E-4
-2.5142304E-4
8.418875E-4
0.0013996906
0.0023147443
0.004603249
0.004556986
0.002650761
7.1340604E-5
-3.9993267E-4
0.0020024457
0.0011250869
6.953701E-4
0.0027126842
0.0019653465
0.001424988
-2.4230032E-4
-0.002545265
-9.4306935E-4
-5.780926E-4
-0.0025925522
-0.0044378336
-0.0049547143
-0.005013507
-0.0066786646
-0.0040093595
-6.607695E-4
-5.338006E-4
0.0029032717
-0.0013125422
-0.010573646
-0.0058596134
0.0012603739
0.0018679899
0.0035314811
0.0031932143
0.0024062179
0.0032266441
0.0014644185
0.0015269697
0.0036953872
0.0022916473
0.0016441476
0.0035718726
0.0034245602
0.0040454767
0.0045711594
0.001625386
0.0016132515
0.0022317532
-0.0014012665
-0.002745631
-0.003338243
-0.004910472
-0.0025286234
-5.7452027E-4
-0.001282967
-0.0010907677
-1.230362E-4
9.773496E-4
2.5585064E-4
-7.4848376E-4
4.4229664E-4
6.606064E-5
-0.0019473644
-0.0029291827
-0.0017988664
3.4395573E-4
-1.6621099E-4
0.0010128896
0.004097427
0.0018087747
2.8580544E-4
0.0019583362
6.7756855E-4
-3.047018E-4
-3.0059664E-4
-5.913191E-4
1.7327878E-4
-3.465533E-4
-7.631302E-4
2.6165872E-4
2.4702752E-4
-0.001389856
-0.0035466577
-0.0024800447
6.6387776E-4
9.469783E-5
-0.002112439
-0.0020883023
-8.215599E-4
9.885863E-4
0.0017338938
5.4228515E-4
5.753272E-4
0.001422519
-1.0257942E-5
-6.0193863E-4
2.965966E-4
-7.779603E-4
-9.7277225E-4
0.0012823908
0.0022623183
0.0011640353
1.7644014E-4
7.724651E-5
-1.1057062E-4
1.5054284E-4
8.5930084E-4
5.900646E-4
-1.9789422E-4
-9.172116E-4
-3.6826014E-4
6.0583395E-4
-5.108862E-4
-5.192955E-4
0.0015558659
0.0018459955
4.075187E-4
-6.0885266E-4
6.920276E-4
0.0025741488
0.0016534214
6.747228E-4
0.0016539323
0.0027435913
0.0035818405
0.0029244325
6.949258E-4
-1.738261E-4
-2.9581078E-4
-0.001868137
-0.002441627
-3.5290944E-4
5.525931E-4
-0.0016785081
-0.0034222107
-0.0032027697
-0.0029080515
-0.0022418192
-0.002268546
-0.0039594145
-0.0028185225
4.7807154E-4
7.1315246E-4
-1.862803E-4
-2.0296394E-4
-1.6045482E-4
3.9724365E-4
0.0010231573
0.0015104284
-1.2375222E-5
-0.0029095458
-0.002273095
-4.3373613E-4
5.606249E-4
0.0029816842
0.003562108
0.0030878116
0.0045165787
0.0036108226
0.0014909857
0.0017727748
7.967855E-4
-9.6259185E-4
2.446071E-4
9.3928754E-4
-6.220774E-4
-5.0451886E-4
0.0011533917
0.0017345285
0.0010522655
7.9187436E-4
0.0014254389
1.21395205E-4
-7.1034784E-4
0.0018900579
0.0018476457
-8.91034E-4
-0.0013047578
-0.0016475647
-0.0027161886
-0.0036190532
-0.004376078
-0.003729074
-0.0034461068
-0.0027516675
-7.200903E-5
9.4888045E-4
5.4512406E-4
2.084881E-4
-7.082651E-4
-0.001054742
-0.001372501
-4.6418648E-4
0.0010278135
-6.483844E-4
-0.0015461462
-1.4857174E-4
6.118446E-4
0.0012381299
1.452323E-4
5.5730063E-4
0.0034032958
0.0016965475
-2.6802326E-4
9.933049E-4
4.146815E-4
-3.392203E-5
9.616457E-4
0.0018829239
0.0026005658
0.002151135
0.0018656949
0.0018596518
0.0019415878
0.0025418347
0.0023210945
0.0024496594
0.0018348884
-7.048566E-4
-0.001277626
-9.716143E-4
-0.0016788278
-0.0015803528
-0.0024329755
-0.0027485224
-7.670955E-4
-9.94745E-4
-9.011978E-4
4.8975257E-4
-0.0019683086
-0.002163483
-0.0034808877
-0.012674503
-0.010886663
9.353858E-4
0.0018249045
4.500697E-4
0.003581238
0.0024996928
1.2802875E-6
3.179294E-5
0.002570781
0.0043438333
0.002154434
0.0010656554
0.0023340732
0.003992598
0.004812788
0.0018598074
9.8212564E-5
0.0013718758
7.035604E-4
8.0069713E-4
8.9532847E-4
-0.0011806302
-3.6729922E-4
6.322736E-4
-9.821057E-4
-9.364936E-4
-3.9769747E-4
-6.274418E-4
-8.287344E-4
-0.0016559054
-0.0016316347
-0.0014916887
-0.0024023806
-0.002327198
-7.155953E-4
0.0010426046
3.8831515E-4
-9.102133E-4
6.751728E-4
0.0014914019
1.4159049E-5
-1.8953878E-4
0.0014626802
0.001868936
-7.844121E-4
-0.0017094512
-2.2038007E-4
-0.001361679
-0.0022219128
-6.817633E-4
-3.176991E-4
6.422095E-5
0.0018791918
5.8968633E-4
-0.0031901894
-0.0015955666
0.0013650685
-0.0010828143
-0.002274757
-0.0012741248
-3.28012E-4
0.0028091378
0.0034793452
0.0019910375
0.002242682
0.0013560958
5.465456E-4
0.0014130777
0.0018763555
0.0017883457
6.701707E-4
-1.9638603E-4
7.720997E-4
6.0243875E-4
-3.582078E-4
6.4704445E-4
2.1595383E-4
-6.0299813E-4
6.2860054E-4
-0.0018075119
-0.0037174658
-0.0015531624
-0.0020464852
-0.0011567927
-1.41232795E-5
-0.0031162826
-0.0057199732
-0.009125698
-0.003729697
0.009501305
0.007265831
-8.405536E-4
-0.0016230794
-0.0032552888
-0.0010388533
0.0020909163
0.0013088101
0.0023400376
0.0010526582
-4.9777835E-4
0.0011525216
0.0012055461
0.0017920698
0.0035924271
0.004458422
0.0033028158
1.0482977E-4
-0.0010463423
-3.3413278E-4
1.3217841E-4
-4.6663877E-4
-0.0013301602
9.753954E-4
0.002142522
9.189456E-5
1.5698296E-4
5.1866716E-4
-8.3416054E-4
-0.0019332911
-0.0012058724
8.2020415E-4
8.291771E-5
-0.0018923299
-0.0019178252
-0.0014499769
-0.0011777128
-0.0020781825
-0.0026883495
-0.0031292713
-0.0046373284
-0.002442661
-1.7828977E-4
-0.0019850733
-0.0015125709
-4.8313185E-4
-2.8048793E-4
0.0016063913
6.519317E-4
-3.5822508E-4
0.002005349
0.0031228664
0.0034014469
0.0028421865
0.0012348857
0.0021176338
0.0031281023
0.0016630982
8.186766E-4
0.002505179
0.0042192903