4.231632E-4
-7.816083E-4
-9.1735006E-4
0.0014535977
0.0043471423
0.0046846853
9.199323E-4
1.5229952E-4
0.0011820473
-9.966788E-4
-0.002030927
-0.002144922
-0.0022543543
-7.541899E-4
0.0019625693
0.002568746
-5.855482E-4
-6.4006896E-4
-0.0022940475
-0.008359424
-0.0059499457
-0.0015459723
-0.0013695892
0.0013029752
0.0011520903
-0.0010476619
-0.0011814086
-0.001351255
2.5071023E-4
0.0015636736
0.0019510775
0.0026782234
0.0023609279
0.003545195
0.0050855256
0.0041503306
0.0028056847
6.651372E-4
-0.0016638637
-9.2501007E-4
-7.7145617E-4
-0.0019416438
8.1301713E-4
0.0026842204
0.0021521372
0.0035948402
0.0038293283
0.0022007579
-0.0035599861
-0.009590725
-0.0074129556
-0.0057799984
-0.006042025
-0.0033318817
-2.4712923E-5
0.0042203525
0.003503274
0.0021776457
0.0021832928
-0.0045885197
-0.005570805
-0.002211336
-0.0013066279
0.005728339
0.008192008
0.005330966
0.0034138567
-0.0018038838
-7.6152314E-4
0.0019918238
-0.002173562
-0.0036373239
-0.0028053864
-0.0023475015
9.517786E-4
0.005307832
0.0047388473
-3.2270513E-4
-0.0018497679
-0.001166189
-0.0014236834
-0.00217335
-0.0036245242
-0.0022291674
-7.1421586E-4
6.5876317E-4
0.0047162515
0.0042174454
3.6685125E-4
-2.70498E-4
0.0011981989
0.0026172348
0.0019485176
0.001505854
0.0023769632
0.0016380139
-1.3764568E-4
-0.0029312342
-0.004952728
-0.0028584145
-4.2642298E-4
-8.9680206E-4
-5.392692E-5
0.0015529197
2.183929E-4
8.287899E-4
0.0019077759
-0.001352676
-0.0027638597
-0.00268962
-0.0030583849
-0.0013110066
-7.47515E-4
7.2614045E-4
0.0026987514
6.517478E-4
-5.9833244E-4
-9.960075E-4
-0.0025757106
-0.0026266912
-0.0016790867
5.0311437E-4
0.0028606902
0.0032778156
0.0027244724
0.0020259558
0.0020757106
0.0015147289
-3.1927705E-4
-0.0010704191
-0.001356336
-0.0017979344
-8.8625017E-4
0.0013263712
0.0028041233
0.0027517786
0.0030372296
0.0023899819
-5.452567E-4
-0.0019875267
-0.0012415036
-7.94059E-4
-3.7738107E-4
8.5477723E-4
0.002200411
0.0016515024
-6.888992E-4
-0.002199924
-0.0021182725
-0.0010458821
-1.2734452E-4
-0.0010589886
-0.0019331335
4.4151922E-5
0.0020091122
0.0017112232
3.4588072E-4
-0.002449065
-0.0039856792
-0.0026746648
-0.0026624382
-0.003127249
-0.0011574053
0.0017981464
0.003202796
0.0020088286
8.3396916E-4
-1.5492493E-4
-0.0013513144
-1.16678835E-4
8.593156E-4
9.1759133E-4
0.0025202404
0.0030478209
0.0022774034
0.001779699
0.0019082011
0.002217899
4.524026E-4
-0.0012214219
-0.0017938914
-0.0036414282
-0.0033995134
-6.58379E-4
3.599159E-4
6.745002E-4
7.3566486E-4
-6.270977E-4
-0.0012529163
-8.538289E-4
-8.1467634E-4
-1.7890858E-4
6.742106E-4
-2.5602156E-5
-8.078108E-4
-3.9156585E-4
-8.0950744E-4
-0.0016156709
-0.0018402757
-0.0025000193
-0.0013612218
6.099566E-4
0.0013526872
0.004146606
0.005571667
0.0030262016
0.0015561873
0.0011961489
0.0011648028
5.083694E-4
-0.0016599203
-0.0024664009
-0.002996873
-0.0026448984
2.4269985E-4
0.0022277741
0.0019968322
1.4948542E-6
-0.0015346782
-0.002104898
-0.0033461927
-0.002330168
6.9044274E-4
0.0017526065
4.0039125E-5
2.7133853E-4
0.0020204184
-0.0047685998
-0.0098485
-0.0017290447
0.0026000973
2.8824765E-4
0.0017389485
0.0032507875
0.0036882989
0.0039167227
0.0029972647
0.002013358
0.0018226547
0.0025191712
0.0011224053
-2.5376322E-4
8.751019E-4
5.084712E-4
-1.0806821E-4
1.21603836E-4
-6.0282106E-4
-8.8805106E-4
-0.00183588
-0.004122683
-0.0042336294
-0.0019258478
-0.0010448437
-5.52527E-4
9.993758E-4
1.9090793E-4
-8.471211E-4
-4.8579182E-4
-9.659124E-4
-9.5679436E-4
-0.0014638308
-0.0013532209
7.6119666E-4
0.00148032
0.0019143661
0.002562442
0.0029187016
0.0029088953
9.201328E-4
5.461895E-4
7.508226E-4
-8.174793E-4
5.8648747E-4
0.0024820943
0.002091256
0.0017960285
1.5894219E-4
-0.0024361066
-0.004045552
-0.004142012
-0.0034283753
-0.0031599097
-0.002225962
-8.4657164E-4
9.138959E-4
0.0024864627
0.0012183113
-5.2406284E-4
-6.4812147E-4
-3.156779E-4
3.822079E-4
0.00116243
0.0027949482
0.0037460024
0.0023629055
0.0013537357
2.532752E-4
-0.00115813
-0.0017140913
-0.0033752
-0.0036981239
-0.0012761944
-7.7292E-5
4.921686E-4
0.0011562213
5.622046E-4
5.9101376E-4
3.172737E-4
-0.0011743228
-0.0011453027
-9.879114E-4
-3.1440868E-4
0.00213312
0.0015365893
4.8562634E-4
0.0027627072
0.002901006
2.6673905E-4
-0.002285987
-0.0024965995
-2.4531633E-4
-1.4285669E-5
8.2123134E-4
0.0034379447
0.0032504373
0.0043009515
0.0061365217
9.648428E-4
-0.006614248
-0.004862199
4.964387E-4
-0.005340309
-0.011086305
-0.00384398
0.0024692116
0.0025993562
0.0013815153
-0.0012614204
-6.862006E-4
0.0012602318
7.1540417E-4
7.108378E-4
1.8296136E-4
-2.3706237E-4
0.001531981
0.0020886653
6.785526E-4
7.764984E-4
0.0013176907
-0.0011765647
-0.0022553068
-2.993795E-4
-0.0014140307
-0.0021570455
0.0010667907
0.0032718563
0.0036275485
0.001958993
-0.0011862691
-0.0019172229
-0.001218633
-0.001215952
-0.0011957079
-6.523112E-4
3.4435332E-5
1.6534692E-4
8.283835E-4
0.0021423227
0.0017947865
5.276615E-5
2.8505406E-4
0.002159801
0.0018776637
0.0020449783
0.004246269
0.0026970413
-0.0014722791
-0.0036260837
-0.0040387036
-0.0035605545
-0.0031086535
-0.0024385964
-0.0020206221
-0.0015125978
7.5501346E-5
8.2065916E-4
0.0020037673
0.0016012198
-0.002627384
-0.0035416405
-0.0015863349
-0.0016757674
-0.0019320233
-3.585808E-4
0.0024070921
0.0023178419
0.0010850203
0.0011564837
-4.2951174E-4
3.717967E-4
0.0021277796
7.1729417E-4
9.033054E-4
0.0017836144
0.0032460613
0.0058175246
0.0053354776
0.002148514
-0.0022088296
-0.0039240126
-0.0026917723
-0.0019664802
-8.791095E-4
-4.8356334E-4
0.0020972702
0.004881152
6.3110184E-4
-0.0032005124
-0.003446401
-0.0033713228
-0.0021856485
-0.003137593
-0.002865745
4.304524E-4
0.0013011133
8.156847E-4
3.8070168E-4
4.4160525E-4
-3.295702E-5
-0.0018291321
-0.0014956814
-6.084723E-4
-4.8188685E-5
0.0015983732
0.0031438419
0.0044124513
0.002310778
-0.0014534227
-0.0012145926
5.5618702E-6
-5.642924E-4
-0.001431509
-8.851682E-4
6.456793E-4
8.216816E-4
0.0013464881
0.002120014
0.0013549459
4.1613888E-4
-6.844699E-4
-5.8836385E-4
-2.141051E-4
-0.0014399895
-9.3974994E-4
5.1316427E-4
0.0012774717
0.0011488096
-0.0015109818
-0.0021553717
-7.7249424E-5
-3.2838614E-4
-0.0016711869
-0.0025087097
-0.002193788
-3.5855797E-4
0.0017899406
0.0034157378
0.0019365164
-2.9399522E-4
-6.3465146E-4
-0.0017068295
-0.0012706082
3.169552E-4
0.0010224085
0.0033227806
0.004104115
0.0026816574
0.0022836695
0.0012638515
-0.001030547
-0.004150968
-0.005725847
-0.003247922
4.5780838E-4
0.002788695
0.0026527497
9.5801125E-4
-4.3407697E-4
-0.0025792995
-0.0037613444
-0.0021929303
-0.0018611756
-0.0031712463
-0.0015942415
0.001123135
0.0021434547
0.0034980143
0.002659904
-3.7522524E-4
-5.265389E-4
-1.5499325E-4
-3.712261E-4
9.057658E-4
0.0012703995
9.716439E-4
0.0020732696
0.0033027302
0.0019459781
-0.0011034638
-0.0020228815
-0.0013413584
6.0566374E-5
0.0013157962
-5.310271E-4
-0.0021268465
-3.0066838E-4
8.775242E-4
-5.3644035E-4
-0.0027377796
-0.0050736424
-0.0052724206
-0.0012199376
0.0023347805
0.0028577705
0.0034805993
0.003673565
0.003936782
0.004474492
0.0024056004
-5.56039E-4
-0.0021678065
-0.002247138
-0.0013816095
6.137488E-5
0.002335978
0.0026989158
0.0013199556
-7.2647247E-4
-0.003264217
-0.0036414887
-0.00422481
-0.0035422386
-3.265507E-4
2.7533495E-4
0.0020136614
0.0012293552
-0.0052349707
-0.0039417795
0.001534498
8.803919E-4
-7.154234E-4
-2.5951778E-4
8.0946134E-4
0.0016159514
0.0031581991
0.004124728
0.0032300118
0.004053716
0.003553004
7.362741E-4
1.0305731E-5
-8.1330014E-4
-0.0021576793
-0.0018889074
1.5893293E-4
6.377471E-4
-0.002049362
-0.003593019
-0.0058498047
-0.0064936904
-0.0019495382
-4.0036006E-4
2.7973516E-4
0.002694134
0.0014570922
8.203347E-4
0.0023205515
0.0034874415
0.0032300784
7.1578316E-4
-8.539175E-4
-0.0029541827
-0.00432788
-2.0055698E-4
0.0036673758
0.003398013
0.002573313
0.0043117823
0.00691658
0.004817561
8.2307536E-4
-9.125203E-6
-0.0015514393
-0.005930391
-0.008316108
-0.005839743
-0.0028284995
-0.002212803
-0.0011118221
-8.76263E-6
-0.001119933
-0.001433265
0.0014431066
0.004480134
0.0033470911
-7.7470083E-4
-0.0013841909
1.20988465E-4
-0.0011821698
-4.0201558E-4
5.715641E-4
-0.0027081133
-0.0019891358
0.0017450058
0.0022582533
0.0013393365
-7.654093E-4
-0.0013629989
-9.6873246E-4
-0.0013936835
4.0184578E-4
4.026035E-4
-3.791984E-4
0.0016088069
0.0014534595
0.0012919513
0.0020556434
0.0015211834
0.0025763812
0.0032266965
0.0021663893
6.204901E-4
-1.7653176E-4
0.002215962
0.0041627456
0.0026928918
-3.679419E-4
-0.0023657652
-0.0016675605
-0.0017114496
-0.002635044
-0.0015394933
-5.647339E-4
-9.390537E-4
-8.822872E-4
0.0013083396
0.0024849065
-7.540139E-4
-0.0038464295
-0.0045916187
-0.004996132
-0.0045089847
-0.0025289308
2.4286618E-4
7.4073055E-4
-6.0769217E-4
-4.0100358E-4
-0.0011944809
-0.003441192
-0.0043084687
-0.0046555977
-0.0030621572
1.0438088E-4
1.1903827E-5
-3.6059154E-4
0.0025928882
0.0033458266
0.0018293195
0.00255336
0.003062867
0.0030182954
0.0040360256
0.004205251
0.004010926
0.0057265237
0.0092698615
0.0105214175
0.007728188
0.005181628
0.0037191922
0.0020748822
2.08793E-4
-0.0023232163
-0.0025609296
-0.0018674653
-0.004823448
-0.0066061136
-0.0047952184
-0.00461329
-0.005710806
-0.0072927256
-0.0091831265
-0.0073322896
-0.005289474
-0.004813917
-5.405493E-4
0.0017089569
-4.4610267E-4
-5.701904E-4
-0.0014847268
-0.0025511344
-1.7433889E-4
0.0018803811
0.0030531092
0.0035400658
0.0027335063
0.002456579
0.0030102246
0.003979911
0.0042795325
0.0033780793
0.002631491
0.0037152497
0.005829112
0.005592657
0.003163457
5.8391993E-4
-0.0019274316
-0.0043633417
-0.0059068655
-0.006278168
-0.004479415
0.0019273044
0.0054557277
0.0033606899
0.0050556753
0.0015245532
-0.0075119147
-0.0042415056
0.0016493449
0.0020004371
0.0037693004
0.003441274
0.0028974277
0.0014743696
-0.007021823
-0.015607322
-0.015477521
-0.009577685
-0.0064023924
-0.0024828853
0.0055986163
0.009899012
0.0094839325
0.005615758
0.0032920302
0.0066329744
0.005195525
-4.8164526E-4
-0.0037226204
-0.006922842
-0.005470619
0.0020838198
0.0070159263
0.006083088
0.0043964763
0.0032275922
0.0011488952
0.0027175413
0.004095505
-7.3154166E-4
-0.0060079857
-0.008906809
-0.009095332
-0.006432059
-0.0019416007
0.003000961
0.0042554587
0.0036699132
-4.2113542E-4
-0.006707722
-0.004719852
-0.004112113
-0.00782953
-0.0025281196
0.0031377207
0.004625446
0.0077864164
0.007830641
0.0056203697
0.0018183812
-0.0036579235
-0.0034902745
-4.3356747E-4
-3.9529143E-4
-5.8286765E-4
-3.2968273E-5
0.0010932429
0.002367766
-0.0015133042
-0.008405226
-0.008592612
-0.00409263
-5.300956E-4
0.004339603
0.009098072
0.011075958
0.009489173
0.0058361883
0.0053212955
0.0039845766
9.5812883E-4
7.258324E-4
-0.0037491356
-0.007208457
-0.0038382416
-0.007253442
-0.011168534
-0.005564016
-0.0027473376
-0.0035614367
-0.0019129497
6.5192656E-4
0.0043136193
0.007696853
0.009644015
0.0067603886
-0.0022380622
-0.006921623
-0.004928924
-0.0036117958
-0.0025670638
-7.1374525E-4
0.0015378185
0.0054990863
0.0093344115
0.009507665
0.00625311
0.0054005655
0.0057436987
2.3104319E-4
-0.00587492
-0.009291545
-0.012225907
-0.010418456
-0.0075540086
-0.006093732
-0.004362296
-0.006529101
-0.007050788
-0.004768141
-0.0028308202
5.2462146E-4
-0.0020756396
-0.0013520919
0.0077600284
0.0061535547
0.0043290784
0.01442487
0.019560216
0.015570897
0.0111518325
0.009000106
0.0048174057
0.004549996
0.011862555
0.008341686
-0.0030620506
-0.008504631
-0.014357389
-0.017553532
-0.012812744
-0.004474272
-0.0018019859
-0.009315653
-0.011767242
-0.0063703093
-0.0038612892
-0.0030131692
-0.00558301
-0.010432732
-0.010120819
-0.00247897
0.009515883
0.013496837
0.0057326015
0.00180892
0.008182128
0.013218852
0.011693031
0.009637004
0.007607083
0.003618326
-8.487309E-4
-0.00237957
0.0029350582
0.008130103
0.0054017836
0.0017062403
0.0030894862
0.002078358
-0.01143486
-0.028544202
-0.033101585
-0.029790932
-0.022830406
-0.008159342
0.004098923
0.0064921686
0.004043132
0.0016730924
0.0043699993
0.009483416
0.011548802
0.010493454
0.0021307147
-0.0055666263
-4.1591612E-4
0.004860095
0.004292156
0.0065235184
0.008482646
0.00906674
0.007327312
-0.00242379
-0.011925696
-0.009533814
-0.0045061465
-0.01289915
-0.02449729
-0.025285821
-0.0261575
-0.029970575
-0.027294906
-0.020225601
-0.011162971
5.825626E-4
0.009884811
0.012085016
0.00979192
0.007548312
0.008887223
0.015119222
0.017466027
0.012624702
0.010212214
0.0060251188
-0.00447011
-0.009139351
-0.008541009
-0.006757363
0.0015394634
0.0077576535
0.014655488
0.036163107
0.05485894
0.05766368
0.053963613
0.04474362
0.035968658
0.030519636
0.021841686
0.01316677
0.0015319737
-0.016584773
-0.032108076
-0.042069465
-0.056329805
-0.07745463
-0.08917178
-0.08709699
-0.079292685
-0.06398348
-0.043093998
-0.018205795
0.010736248
0.04169687
0.072957195
0.08768587
0.0800964
0.06673465
0.052596837
0.03820217
0.023248455
0.0062316777
-0.004093287
-0.013554793
-0.03964542
-0.07222344
-0.09525388
-0.10821929
-0.095514834
-0.06404806
-0.05822581
-0.06939129
-0.057584964
-0.025828052
0.0013583554
0.00949885
0.0138651235
0.006324973
-0.04037851
-0.067333624
-0.018539714
0.0658394
0.1292649
0.16473661
0.22766303
0.30771318
0.3316202
0.32854626
0.28477973
0.13905498
-0.012217689
-0.10804998
-0.18244193
-0.18769763
-0.1356804
-0.13727851
-0.18579301
-0.17192091
-0.112131454
-0.11187295
-0.11517539
-0.052867297
-0.01832331
-0.039351217
-0.0959081
-0.1770982
-0.14169073
0.01564436
0.10267772
0.098771386
0.07102374
0.03208821
0.0150072845
0.0065624537
0.0064020082
0.008864508
-0.02348351
0.010264788
0.10014622
0.10422423
0.09861689
0.1010203
0.057317607
0.06087053
0.055891015
-0.011325282
-0.05386532
-0.09913379
-0.14942345
-0.13523425
-0.040483482
0.06612708
0.11430567
0.17415616
0.19897261
0.08031035
-0.051885456
-0.12729062
-0.16842668
-0.14524223
-0.09702814
-0.04649903
-0.0109180985
-0.0047903834
0.034531966
0.08283762
0.06604573
0.0301887
0.041787345
0.079491094
0.1327601
0.18531126
0.1350513
0.002417521
-0.08353065
-0.11753601
-0.13454397
-0.13216406
-0.097881004
-0.035175085
0.03487264
0.097214535
0.091538616
0.008586285
-0.08399801
-0.13223271
-0.11041961
-0.10710734
-0.1325445
-0.0989277
-0.08696331
-0.09502313
-0.037823886
0.02738716
0.092614755
0.14531755
0.13948451
0.1308778
0.1323722
0.084108286
-0.0010117482
-0.03119025
-0.009983461
-0.016566478
-0.024505448
-0.021120483
-0.018824834
0.018524813
0.043417588
0.019994244
-0.008255551
-0.0200377
-0.0050894143
0.0169695
0.024346234
0.024901861
0.018445333
0.016546104
0.020794678
0.018453646
0.013455845
0.007221375
0.0025970165
0.0010205868
-0.0032357438
-0.0095057925
-0.01607195
-0.022148049
-0.024958983
-0.022260109
-0.021069352
-0.024258887
-0.022135947
-0.018282404
-0.017994905
-0.017587364
-0.018757407
-0.018113853
-0.014503244
-0.012365515
-0.0092891585
-0.004370116
0.0018622382
0.008310524
0.0108278645
0.009717515
0.0077970666
0.0061684554
0.005301407
0.004834798
0.004650058
0.004961189
0.0037457575
0.002416189
0.0023535276
-7.8768027E-4
-0.0037802022
-4.7831963E-5
0.00477189
0.0070141302
0.009615791
0.0111853
0.013463692
0.017277263
0.017472632
0.014056108
0.009488102
0.0055496464
0.0030808202
0.0018937632
0.0021540727
9.835588E-4
0.0014486916
0.004724849
0.0028735113
-7.7770685E-4
-5.777989E-4
-5.553514E-4
-0.0017771317
-0.0022759764
-0.0011732253
-6.1976997E-4
2.877618E-4
0.0031172277
8.953341E-4
-0.0043643275
-0.00618602
-0.007822053
-0.008534346
-0.0062148836
-6.501881E-5
0.006775916
0.008348395
0.012450634
0.018404106
0.012660692
0.0010788313
-0.005011845
-0.0057516377
-0.0058123916
-0.010002177
-0.012767465
-0.0069008134
-5.9383615E-6
-2.736763E-4
-0.0043496713
-0.008216661
-0.009017985
-0.004838926
-2.3301232E-4
0.0025649434
0.0030535965
4.2367625E-4
3.6834023E-4
0.0019655142
-7.078904E-5
-0.0016586744
1.5174052E-4
0.0021332295
0.0025395048
0.004858841
0.0077903126
0.007616744
0.009084128
0.008270475
7.259089E-4
-0.0052032718
-0.008823939
-0.010006696
-0.006607401
-0.0027580091
8.163492E-4
0.001700353
0.0012581564
0.0038007696
0.0035671755
8.220287E-4
3.8567127E-4
-4.043846E-4
-0.0016775939
-0.0014406791
2.0979374E-5
0.0027544417
0.0050945105
0.0028061862
-0.0021237163
-0.00374179
-0.0046546324
-0.0064036245
-0.005709066
-0.0040054503
-0.0017677713
0.0011696146
0.0031933174
0.0032221237
-7.909449E-5
-0.0032401567
-0.002447293
-4.7263055E-4
6.4601377E-6
3.3826378E-4
0.001891638
0.0038601144
0.0058898274
0.0066368654
0.005196181
0.0034877297
9.814012E-4
-0.0015867216
-0.0019272408
-0.0012124794
-3.6014506E-4
-2.20894E-4
7.708835E-4
0.00342597
0.0027601044
-9.797065E-4
-0.0036020372
-0.0044663814
-0.0049336404
-0.0062520667
-0.0042705876
0.0019268867
0.005908416
0.0058206394
0.0031927142
1.8980548E-4
-0.0021588393
-0.0039390465
-0.0024040716
-6.949249E-5
4.7555496E-4
0.002970767
0.0050842557
0.004638132
0.0038252822
0.0013154568
-1.8569527E-4
9.0321695E-4
-3.140329E-4
-0.0022738106
-0.0015385193
0.0012160722
0.0037355756
0.0019738842
-0.0018095116
-0.0034850608
-0.003860117
-0.003191532
-0.0030606277
-0.0023260897
4.9357666E-5
3.3982436E-4
8.4357185E-4
0.001845363
3.2123706E-5
-0.002419145
-0.005273955
-0.0062277047
-0.003978664
-0.0025105726
1.2259447E-4
0.0035151397
0.0053670965
0.0075102667
0.006167712
0.0012338363
-0.0011961032
-0.0013367208
-3.5653825E-4
0.0020572848
0.0026600214
0.0018845394
0.00448245
0.0071763517
0.004786178
6.1598874E-4
-0.0011070281
8.377812E-5
2.1013326E-4
-0.0026726965
-0.003655078
-9.269619E-4
0.003039444
0.0044371258
0.0025196509
9.593828E-4
-0.0018091028
-0.0052207517
-0.0048572016
-0.0027544904
-9.291644E-4
3.4388056E-4
0.0011539307
5.092476E-4
-0.0029034803
-0.00411603
-0.0034563167
-0.0045726355
-0.003280016
-0.001109194
-0.001374024
5.7882874E-4
0.0046050553
0.0053714314
0.002909876
7.597297E-5
-0.002226839
-0.0027287616
-0.0014861042
8.5251595E-5
0.0013329819
0.002097224
0.0046045636
0.006090683
0.0030716914
2.9155615E-5
-0.0025206304
-0.0037004459
-0.0025318724
-0.003245941
-0.0016109257
0.0016846079
2.682648E-4
-6.0004374E-4
-3.48626E-4
-0.0025336589
-0.0043250006
-0.0044832816
-0.0034491057
-0.002408055
-9.113588E-4
0.0025643436
0.005438134
0.0051729856
0.003249477
0.0019234737
5.0651643E-4
2.2986394E-4
0.0012095985
-4.4156995E-4
-4.8782275E-4
0.0031853104
0.0045497194
0.004067087
0.0023619016
-2.1263702E-4
-6.62907E-4
-4.6216903E-4
-1.4443944E-4
-3.586191E-4
-0.0015243484
-0.001411261
-0.0018871484
-0.002583833
-0.002123911
-0.002846589
-0.0022204202
-6.712236E-4
-0.0022268659
-0.0032277452
-0.0021850967
-0.0011230003
7.6861266E-4
0.001360451
-1.2741864E-4
-0.0016051659
-0.0034709468
-0.003971579
-0.0022789945
-0.0016405034
-0.0010537866
0.0017073619
0.0040837517
0.0042687794
0.0028207344
0.0014543795
0.0021423737
0.0024816797
8.207379E-4
1.6896284E-4
0.0013537954
0.003558954
0.0041712443
0.0022930747
0.0020992684
0.0014272453
-7.0373813E-4
-0.0010231957
-0.0028923617
-0.0032195188
-0.0011526489
-0.0011481532
0.0021988347
9.3912793E-4
-0.007715446
-0.00560733
4.8282766E-4
-6.6042383E-4
-0.0012829612
-0.0019179636
-0.0020001356
1.9682506E-4
0.0012591315
0.0020885966
0.0011616187
-3.8049012E-4
-8.420553E-5
-7.578877E-4
-0.0015167475
-0.0017342934
-8.639902E-4
0.001821837
0.0029294062
0.0029920773
0.0030474947
0.001771932
-4.6845668E-4
-0.0027746828
-0.001870513
6.4741116E-4
-6.2178716E-4
-0.0025354358
-0.0019180896
-0.0012093441
-0.0013802806
-0.0023860612
-0.0027129787
-0.0014552374
-0.0012560005
-0.0014805164
2.5213222E-4
0.002302354
0.004661063
0.0072600315
0.0075541777
0.0066672917
0.004586066
-7.9606613E-4
-0.0054202327
-0.0047196443
-0.0021623385
-9.649728E-4
0.0032394058
0.0075255693
0.0033101165
-0.0023423564
-0.0023414458
-0.001987342
-0.0031767562
-0.006203179
-0.007358583
-0.002196336
0.00103118
6.529843E-4
0.0017234184
-3.7258178E-5
-0.0020202643
-4.5391214E-5
-4.9786904E-4
-0.0031861824
-0.002856626
-2.1904727E-5
0.0025653718
0.0030590203
0.0027388996
0.0026388846
0.0017546575
0.0012135674
9.356551E-4
-3.970892E-4
-0.0014110907
-0.0016700156
-0.0014301273
-6.6467655E-5
0.0014403444
0.002136664
0.0014605385
-1.3571896E-4
2.7860971E-5
0.0012852092
0.0013002908
0.0016568457
0.0026933602
0.0024014954
0.0012641643
-1.8000146E-4
-0.0025701867
-0.0037632813
-0.002560867
-0.0016254685
-9.599047E-4
-2.578917E-4
-0.0012323699
-0.0011799207
7.254241E-4
3.6190802E-4
-0.0015133077
-0.001132312
0.0010522091
0.0015607565
2.5919204E-5
-4.716784E-4
9.987559E-5
0.0012478299
0.002864493
0.001417416
-0.0015683252
-0.0011589307
1.0817965E-4
1.7556857E-4
0.0020091743
0.0041781995
0.0026964047
4.8654506E-4
0.0013999665
2.7252725E-4
-0.003920656
-0.0043759933
-0.0034108965
-0.0037228342
-0.0023609293
-0.0018688781
-0.0021359103
-6.394331E-4
5.60106E-4
2.4352473E-4
-9.797397E-4
-4.7324883E-4
1.6029851E-4
-0.0017926648
-0.0015282361
7.4695324E-4
0.0025048526
0.004602853
0.004916699
0.004772686
0.004293087
0.002425516
0.002264922
0.0023341798
0.0019525887
0.0016463522
7.735711E-4
0.0019077014
0.0025434897
4.006563E-4
-0.0018848169
-0.0029853808
-0.0021431078
-0.0030076287
-0.0055165114
-0.004378344
-0.0025804925
-0.0026500397
-0.0017738511
5.807978E-5
-1.3917069E-5
-0.002846368
-0.0037771969
-0.0024327019
-0.0028721609
-0.0026331535
-3.6182528E-4
0.0013163055
0.0022252193
0.0025050584
0.0018766208
9.972842E-4
0.0016516286
0.0031053403
0.0027928331
0.0028044088
0.0037327441
0.0037146672
0.004792621
0.0054260613
0.0029100536
-6.088354E-4
-0.0037726585
-0.0040824623
-0.002180717
-0.0016807606
4.0907582E-4
0.0024298953
5.9490517E-4
-0.0011985006
-0.0024391003
-0.0023404283
-0.002120671
-0.00553059
-0.005312958
-0.0015988385
-0.0010482457
4.0524386E-4
0.0017535269
8.303759E-4
9.7911696E-5
-0.0010730274
-8.6181425E-4
1.8082262E-4
0.001200611
0.0029958135
0.0024963918
0.0029911143
0.0057116975
0.0035116414
-0.0012425375
-0.0019847755
-0.0012959782
-0.0025362587
-0.002781327
-0.0015891632
-0.001125125
0.0013112581
0.0038979123
0.0029336542
0.0017965354
3.973706E-4
-0.0024546494
-0.004157618
-0.0046235104
-0.0035818112
-9.971905E-4
0.001518748
0.0035565037
0.0037237403
0.002306152
0.0023453669
0.0025859147
-1.5157362E-4
-0.0034088339
-0.0034260014
-0.001530773
-2.3563982E-4
9.183261E-4
0.0026515233
0.0028072253
4.0301602E-4
-0.0018068249
-0.0022246428
-8.7906903E-4
6.563542E-5
-0.0015094805
-0.0012411915
0.0023205297
0.0034519837
8.4652635E-4
-0.001593143
-0.0014024967
-0.0012367736
-0.0027898839
-0.0016996694
0.0013292569
0.001408759
4.5036408E-4
0.0010902549
9.841959E-4
-1.5867851E-4
-4.195563E-4
-8.7946386E-4
-5.1192305E-4
0.0012178654
9.364977E-4
0.0012281777
0.0026217334
8.5599767E-4
-7.7381346E-4
-0.0010797825
-0.0020779702
-0.0022902016
-0.0027387664
-0.0031152086
-0.0018786476
5.276058E-4
0.0026417833
0.0022136315
0.0010324419
-3.482007E-4
-0.001738437
-8.167759E-4
-0.0011593605
-0.0015814846
0.0011177101
0.0022942182
0.002673946
0.002949751
8.331926E-4
-2.3336627E-4
8.5206813E-4
0.002128935
0.0023869341
9.953944E-4
-3.2649867E-4
7.8743434E-4
0.0032727313
0.0032211903
0.0018553258
-1.1422628E-4
-0.003174712
-0.0018362072
-5.3967396E-4
-0.0025925841
-0.0011768127
-0.003812582
-0.0089935195
-0.0038868687
5.019881E-4
-6.909214E-4
4.6651726E-4
-0.003696816
-0.009388273
-0.0037078003
0.0028366155
0.0023027388
0.0026809988
0.0037608515
0.0028755418
0.0017402676
1.7848962E-4
-2.6006365E-4
-8.388153E-5
4.1472915E-4
0.0028856774
0.0046412284
0.006155725
0.0057856864
9.478966E-4
4.1645315E-5
0.0026741482
0.0016604586
6.550459E-4
1.5140753E-4
-0.0013921068
-0.0014523179
-5.425243E-4
6.383905E-4
-3.5474676E-4
-0.0031978427
-0.0024456896
-0.0013048727
-0.002736418
-0.0019806484
-3.5156775E-4
1.99697E-4
4.3473937E-4
-0.00142704
-0.0029288123
-0.0035109958
-0.0050736265
-0.0042189136
-0.0026689155
-0.0027072579
-8.7481196E-4
0.0016684124
0.0030711617
0.0034874673
0.002443874
0.0013149583
0.0011467328
0.0016940088
0.0010910146
-3.8054478E-4
5.047466E-4
0.0028937028
0.0048206015
0.004913335
0.0028541796
0.0015081114
5.786485E-4
-0.0010795193
-0.001653244
-0.0011695503
-2.6579385E-4
0.0010837024
0.0017026995
0.0011941794
3.5794143E-4
-0.0015474642
-0.0037911036
-0.0036179726
-0.0028913585
-0.0039075585
-0.0044832476
-0.0023625959
8.5065473E-4
8.079306E-4
-6.211765E-4
-9.905744E-4
-0.002610879
-0.0017301956
9.801971E-4
8.9180765E-5
-3.0100057E-4
7.264506E-4
6.3245726E-4
0.0014297166
0.0028890215
0.0037016266
0.0030536666
0.002246128
0.0017634621
-4.5575324E-4
2.7950003E-4
0.0040122494
0.0041298983
0.0047667995
0.005446292
4.912612E-4
-0.0016665063
3.4112408E-4
-9.106442E-4
-0.002122558
-0.002450422
-0.002136856
5.3551892E-5
7.0504757E-4
0.0016277429
-6.453949E-4
-0.0053292974
-0.00328916
-0.0065209805
-0.013607613
-0.0081254905
-0.0021901287
-7.2928105E-4
0.0012979467
-5.1782274E-4
-0.0015032451
-0.0022823152
-0.003177955
-6.946856E-4
-1.8119866E-4
0.0014321327
0.0035653086
0.0036302202
0.007908502
0.009718227
0.0067366515
0.005311813
0.0028292728
0.001443285
0.0030072008
0.0044585313
0.005457937
0.00563137
0.006149066
0.0051492057
0.0017591373
-3.2702077E-4
-0.0027810445
-0.0054103197
-0.005627455
-0.006247945
-0.007385614
-0.0063299513
-0.0032977106
-0.0017031828
-0.0031770838
-0.003497101
-0.003239786
-0.005473605
-0.0049312324
-0.0013806191
8.674799E-5
8.8758447E-4
0.0014256533
0.001621093
0.0022644484
7.7239366E-4
-7.963512E-4
-3.8144346E-5
8.646348E-4
0.0018488414
0.0023915474
0.0030534486
0.004250985
0.0030479012
9.5610827E-4
2.3633083E-4
-9.060351E-5
-8.9604576E-4
-0.0015826517
-0.0010682007
-0.0012753202
-1.2828849E-4
0.002635164
0.001255144
-7.024607E-4
-9.23205E-4
-0.0012456874
1.0166637E-4
-6.359902E-4
-0.0015075773
6.140149E-4
0.0011285532
0.0023922767
0.0039929254
0.0018728955
-5.713509E-4
1.6176852E-4
0.0021142196
7.781149E-4
-4.590337E-4
0.0011627339
0.0020173062
0.0025971995
9.4889436E-4
-0.002363799
-0.003375499
-0.0031176792
-0.0024089548
-0.0032789903
-0.0027894047
-3.6244153E-4
-2.6174908E-4
0.001508624
0.0016115571
-0.0012166002
-0.0017319185
-0.0022046554
-7.568235E-4
-8.1143423E-4
-0.0014770179
-2.985015E-5
-0.006088413
-0.006881672
0.0012506328
0.002354031
0.0016852728
-0.003467801
-0.008121531
-1.4255314E-4
0.0038755506
0.003235802
0.005460559
0.0044135465
0.00393381
0.0032830269
0.00166664
0.0022110785
0.0012347823
9.770485E-5
6.994268E-4
0.0023857653
0.0038488489
0.0036137034