8.8305125E-4
-0.0033863804
-0.015236225
-0.018999299
0.001999174
0.026783394
0.05180207
0.06847339
0.0659341
0.06528725
0.0716001
0.07921228
0.0905692
0.10150623
0.0963754
0.069063425
0.03678336
-0.009665478
-0.06738572
-0.09221384
-0.09155082
-0.09029075
-0.083506346
-0.07638667
-0.06800672
-0.05448719
-0.04247243
-0.039361425
-0.040075425
-0.029540671
-0.020183625
-0.021485837
-0.020172402
-0.013715753
0.0011401699
0.01540746
0.017963793
0.022381634
0.029190367
0.03322657
0.03655883
0.032670617
0.025879582
0.021591367
0.013249166
0.0048152166
0.0019481
-0.006197935
-0.021785412
-0.028059797
-0.024061242
-0.022777086
-0.023951532
-0.021089006
-0.0147137055
-0.01472748
-0.017961027
-0.009928468
0.0019199103
0.016522523
0.040919773
0.052208718
0.042529717
0.037620336
0.043241173
0.03999862
0.024011357
0.012586875
0.0067060827
-0.00309644
-0.011922955
-0.017782683
-0.018653039
-0.0106649045
-0.0016966878
0.0033605506
0.00798347
0.0130541
0.010971473
5.104114E-4
-0.006993646
-0.012502323
-0.017845673
-0.017244022
-0.014475236
-0.012169152
-0.011499117
-0.012362087
-0.012516244
-0.010790481
-0.0044146515
-0.0036195328
-0.0112088
-0.01745341
-0.022935152
-0.024704482
-0.030070562
-0.042213615
-0.04999431
-0.05605848
-0.05063371
-0.03974606
-0.035904005
-0.015773369
0.015556389
0.05126461
0.074812874
0.043663464
0.010820578
0.022711823
0.03645326
0.048305493
0.057873916
0.05142034
0.044287637
0.031872183
0.019464679
0.027215164
0.041298777
0.048158135
0.05075235
0.042319573
0.017345801
-0.010624743
-0.028855339
-0.036114447
-0.03465166
-0.031380814
-0.028168384
-0.02651593
-0.031186318
-0.036844604
-0.037901267
-0.031908214
-0.022388292
-0.019461052
-0.01885602
-0.0127106225
-0.005865928
-0.0022958
9.045337E-5
7.599623E-4
-0.003746535
-0.008569642
-0.006979869
-0.0039956784
-0.0059393244
-0.009257556
-0.006801833
-5.414334E-4
-4.060792E-4
-0.009096131
-0.015644284
-0.012467566
-0.0072583803
-0.003189821
0.0033047101
0.007654502
0.008575658
0.012089316
0.018735882
0.022807553
0.025781015
0.03377368
0.04218473
0.044465415
0.04031202
0.036724683
0.030977506
0.0077964864
-0.012684103
-0.012007723
-0.016385034
-0.02841155
-0.032135528
-0.03283224
-0.032095112
-0.027460791
-0.019451832
-0.012061764
-0.007580251
8.487166E-4
0.011723163
0.01941502
0.025619518
0.028900327
0.024201253
0.013096642
0.0040889704
-0.006376876
-0.02614858
-0.04580677
-0.054754253
-0.052691504
-0.0461463
-0.037936635
-0.025814995
-0.016505575
-0.00703604
0.0075184233
0.019786255
0.025674015
-0.024692295
-0.14775775
-0.19965532
-0.105829805
0.0062920027
0.058714118
0.075014256
0.07653618
0.08306937
0.08351714
0.07159092
0.069215745
0.07459546
0.08203814
0.089176
0.10643996
0.12080985
0.06487008
-0.034799494
-0.08562484
-0.090639465
-0.08220093
-0.065645665
-0.045917463
-0.030424858
-0.028280344
-0.030070541
-0.029731954
-0.034670684
-0.043840833
-0.055062655
-0.061105862
-0.056683015
-0.0471155
-0.036144063
-0.020784434
6.860166E-4
0.022519996
0.044475988
0.06499704
0.08455752
0.10780581
0.12062282
0.120418854
0.113961555
0.09575453
0.07230072
0.04502489
0.011883933
-0.023297364
-0.061012533
-0.09391178
-0.11611081
-0.12624796
-0.13157146
-0.13297696
-0.12294964
-0.11284514
-0.097068734
-0.08253523
-0.07900611
-0.05918836
-0.04829867
-0.046245232
-0.026795825
-0.029982548
-0.02748247
-0.013663006
-0.0057245954
0.091437384
0.21863441
0.2510773
0.24772254
0.23915596
0.22194526
0.21880709
0.2118696
0.21100429
0.18520173
0.07152786
-0.06630669
-0.14073104
-0.1600027
-0.15323025
-0.13875985
-0.13404109
-0.13037077
-0.12142456
-0.12016126
-0.12322401
-0.12576956
-0.12590702
-0.1182176
-0.108839914
-0.09520275
-0.07442224
-0.053907726
-0.034556754
-0.017882017
9.85112E-5
0.021518365
0.040532365
0.058317453
0.07385847
0.08602891
0.09213471
0.08835829
0.08147825
0.07201571
0.057634253
0.043312185
0.033064097
0.027424682
0.021401986
0.017029224
0.017337404
0.016595779
0.015516275
0.0154653555
0.014664577
0.0135905035
0.018485323
0.03330025
0.041561197
0.037269495
0.03033338
0.014466156
-0.0063346443
-0.018744446
-0.030364867
-0.047942236
-0.06399771
-0.06931917
-0.06180348
-0.048925217
-0.037668947
-0.028869398
-0.02404037
-0.023965945
-0.021703359
-0.014312476
-0.007554217
-0.0017683111
0.0036153314
0.007017132
0.009278445
0.010279811
0.011058783
0.008427752
-4.1689607E-4
-0.0075494596
-0.009092478
-0.009352469
-0.008957538
-0.0052827722
-1.4588438E-4
0.0030269318
0.004663468
0.0053215683
0.008793283
0.015751267
0.020175671
0.022427345
0.021548131
0.018218804
0.018371593
0.017411457
0.012746908
0.007982565
0.0040539573
0.0016380543
-0.0014242237
-0.002382194
5.4951997E-6
-3.1274502E-4
-0.0028214944
-0.005226693
-0.006413648
-0.008221664
-0.012617939
-0.014672728
-0.016304906
-0.016440978
-0.009534252
-0.0042237504
-0.0030946182
-6.5939565E-4
0.002292628
0.0047866027
0.002736527
-0.0038422626
-0.006803001
-0.003824268
0.0020245924
0.0087828515
0.013566112
0.013311286
0.010500112
0.004896354
-0.007851783
-0.018449314
-0.017553056
-0.012355533
-0.007150731
1.8804114E-4
0.0051428704
0.0028523614
-0.0014907017
-0.0024729415
-0.0044630477
-0.008690275
-0.009973239
-0.0072055557
-0.002631145
7.7725635E-5
0.0029829491
0.009133713
0.010847398
0.006195378
0.0023437417
-2.031607E-4
-8.916434E-4
0.004649503
0.0127195995
0.0155488895
0.014530943
0.0145233
0.012891397
0.00708429
0.0021541535
-5.2880245E-4
-0.0033064217
-0.0025067467
3.1762125E-4
0.0024823456
0.0066541075
0.0061226073
0.0046130093
0.010860627
0.011533973
0.0076954947
0.011725413
0.017563224
0.02287334
0.026290504
0.023246873
0.01841247
0.012823375
4.9557956E-4
-0.019750163
-0.039280374
-0.050050836
-0.0552099
-0.060986448
-0.06460328
-0.06250529
-0.06200651
-0.059466373
-0.05047347
-0.048207216
-0.047124248
-0.0419921
-0.03831147
-0.029410278
-0.026609724
-0.026339948
-0.010718339
0.01099082
0.061397605
0.14500631
0.18252228
0.13249339
0.060491823
0.050755642
0.09714813
0.12290896
0.1048724
0.09575582
0.11255454
0.09590541
0.029719794
-0.035814535
-0.07853417
-0.09478425
-0.09457745
-0.0940563
-0.08898135
-0.09254757
-0.09657979
-0.081796825
-0.07525403
-0.07601301
-0.06789009
-0.060518216
-0.04625033
-0.02784834
-0.017716723
-0.009693953
-5.298023E-4
0.008648269
0.015182602
0.021378297
0.031466726
0.041037276
0.04787298
0.050017342
0.048667334
0.046016365
0.03729298
0.026029674
0.01521801
0.0038956124
-6.084037E-4
8.307698E-4
0.001988688
0.0032124321
0.0040964345
0.005187384
0.005957324
0.0043300074
0.002545875
0.0026378797
0.0062952307
0.013421685
0.017307255
0.014639985
0.0105309915
0.0076551903
0.0039228234
-0.001396326
-0.00874339
-0.01662777
-0.02013179
-0.017779255
-0.010159456
-0.0010193666
0.0021144848
6.030506E-4
-0.0024005398
-0.0068932553
-0.011897821
-0.020695023
-0.024996126
-0.019130385
-0.016457444
-0.014418112
-0.0071954313
-0.0021413409
7.4857246E-4
-0.0018069169
-0.011325087
-0.017139645
-0.011287665
0.0017876263
0.009057823
0.011703533
0.013708258
0.007133797
-0.0022041565
-0.00607032
-0.01058585
-0.018549979
-0.016885405
0.0041245776
0.022459218
0.022468988
0.016923588
0.012813204
0.014247875
0.012978265
-8.933906E-4
-0.007777985
6.140758E-4
0.013053009
0.020217743
0.01689853
0.013592679
0.013424776
0.015720349
0.02095025
0.0138140125
0.003963229
0.009376966
0.021871686
0.028997587
0.018319879
0.003592711
-0.0035090821
-0.021831153
-0.04257619
-0.055448007
-0.06417899
-0.05995445
-0.05291677
-0.044037074
-0.025619075
-0.013977599
-0.011279223
-0.0133107975
-0.017286556
-0.013288407
-0.010067256
-0.014670388
-0.0101534845
0.02309887
0.07366437
0.102771856
0.094620265
0.067569576
0.049753357
0.04220343
0.025877144
0.015400297
0.019212361
0.01687379
0.008393353
-0.0010308165
-0.009461658
-0.017373636
-0.033740796
-0.052545346
-0.06523977
-0.06741536
-0.057286486
-0.044565823
-0.035369143
-0.031905524
-0.024902327
-0.011473376
-0.0086217495
-0.00839588
-0.0026349316
0.005894119
0.026310088
0.041547004
0.043540906
0.044579513
0.03884127
0.04461334
0.063487895
0.051820923
0.017150914
-1.1837287E-4
-0.0046333997
-0.012283609
-0.015249473
-0.015858106
-0.023581842
-0.026948327
-0.024584334
-0.026007501
-0.029414319
-0.03338466
-0.027502093
-0.0105399415
-7.697167E-4
-1.6961756E-4
-0.003536568
-0.0073192865
-0.009969589
-0.018507106
-0.026589165
-0.02421045
-0.014923993
-0.0066988426
-0.00486929
-0.006566657
-0.009269261
-0.009010801
-0.0038723655
-0.0023518796
-0.004167033
-0.0051750164
-0.002001856
0.008500244
0.016600499
0.020982226
0.02439983
0.022867026
0.023711449
0.026014883
0.023380693
0.02064161
0.017293809
0.015001885
0.0147249745
0.010333097
0.008335249
0.01143403
0.012276994
0.016091915
0.023494309
0.02904408
0.03866276
0.051877983
0.060454994
0.06022736
0.052147906
0.041638408
0.02604459
0.00246062
-0.023394596
-0.046524383
-0.059359223
-0.06323637
-0.06900242
-0.076958105
-0.084923975
-0.08936891
-0.091268
-0.10356281
-0.12134943
-0.12358787
-0.112605415
-0.10731156
-0.1030927
-0.093716264
-0.08759276
-0.0696655
-0.044784367
-0.030010505
0.019166816
0.106026836
0.16520774
0.19466251
0.23010816
0.25538617
0.24183536
0.20506445
0.1642873
0.13025092
0.11962895
0.11493306
0.111742064
0.11709901
0.09506823
0.047204852
0.0018278674
-0.03384169
-0.060851213
-0.095630504
-0.12057375
-0.1312798
-0.14883429
-0.14930992
-0.14598916
-0.15808018
-0.16074601
-0.15113932
-0.12122417
-0.08809797
-0.076677956
-0.06805359
-0.06399822
-0.066362455
-0.07427306
-0.08252517
-0.083263375
-0.10407929
-0.07626181
0.029659461
0.061469845
0.066911
0.17939334
0.23687974
0.15589118
0.07387064
0.035435703
0.04742669
0.09158996
0.087579355
0.072184734
0.11198014
0.16961196
0.19444141
0.15685572
0.07094293
-7.205447E-4
0.008288477
0.071839765
0.057008006
-0.029635318
-0.07694963
-0.10035434
-0.11590792
-0.110952854
-0.10915275
-0.09811963
-0.08136872
-0.076424845
-0.077388205
-0.085090704
-0.07865509
-0.043970756
-0.0025139113
0.017046157
0.009593394
-0.0049639153
-0.020627234
-0.023406902
-0.009919312
-0.0027390728
0.0011101711
-0.0017193925
-0.008497268
-0.009778139
-0.018196184
-0.020806346
-0.023898864
-0.04071391
-0.056078818
-0.078082964
-0.095187895
-0.09855658
-0.07068083
0.026585435
0.11861847
0.14386082
0.1606731
0.1895061
0.18075189
0.090890154
-0.021136919
-0.06682969
-0.05938385
-0.018145148
0.046227463
0.117196046
0.18529312
0.18570863
0.108998604
0.020019846
-0.05574062
-0.09954612
-0.11331407
-0.11967639
-0.12359201
-0.12568831
-0.10973245
-0.08230108
-0.068892084
-0.060346983
-0.04621932
-0.028199622
-0.00881645
0.009749926
0.025439618
0.038362056
0.050653197
0.05137689
0.048226282
0.055329483
0.059430473
0.062879376
0.066917345
0.0587933
0.04297648
0.021923972
-0.0020327948
-0.022517925
-0.040527347
-0.05748737
-0.07150764
-0.07328078
-0.055608984
-0.03554419
-0.03735159
-0.04114614
-0.034376927
-0.053927734
-0.08766752
-0.10923674
-0.1277123
-0.13486221
-0.1356977
-0.07673364
0.078993745
0.1896881
0.19998427
0.19098744
0.16533776
0.13710885
0.11886041
0.09973823
0.10510459
0.087505385
0.03134827
0.005928092
-4.9740763E-4
-0.0017381229
0.015731342
0.032423966
0.05200215
0.065804884
0.06969779
0.06576976
0.0063730115
-0.08367949
-0.13151707
-0.15002686
-0.1618804
-0.16520403
-0.16172555
-0.14165936
-0.10456833
-0.06631466
-0.04321062
-0.031943765
-0.021509983
-0.011754237
0.0035459867
0.014527579
0.014279806
0.023498159
0.03355354
0.03127188
0.030035568
0.029023256
0.02439183
0.020155445
0.019672919
0.022018809
0.01947381
0.021580214
0.036017887
0.04517455
0.04983021
0.059591793
0.058169074
0.043188747
0.030871201
0.02095274
0.010585063
0.0011756837
-0.0069028735
-0.010778514
-0.016485121
-0.027927892
-0.036468495
-0.04111179
-0.046251014
-0.05075717
-0.047777392
-0.03327678
-0.014142372
0.0036582397
0.02029683
0.035420716
0.044286866
0.046141982
0.045074865
0.0356965
0.020432493
0.01116966
0.006053639
8.4778323E-4
-0.0061648428
-0.014977882
-0.014790519
-0.004113508
-0.0019241074
-0.015739191
-0.024809416
-0.0143299345
0.0074087786
0.030934604
0.05182164
0.06650663
0.074020684
0.07479008
0.06478398
0.04351427
0.017274454
-0.013618507
-0.043719523
-0.07675884
-0.114804156
-0.14266786
-0.182382
-0.18875913
-0.0800163
0.0241321
0.028554548
0.018250255
-0.006638005
-0.072337985
-0.14096802
-0.19751234
-0.2217581
-0.23340462
-0.25139347
-0.22238423
-0.13204259
-0.016766522
0.10723165
0.25588125
0.39382687
0.4311954
0.412791
0.40462217
0.33470416
0.23438273
0.19387096
0.16237141
0.12165021
0.09600123
0.04178393
-0.056116574
-0.15251811
-0.1841815
-0.17406662
-0.19769643
-0.20270842
-0.15841937
-0.11495943
-0.08144866
-0.106535114
-0.16923906
-0.19811752
-0.2025666
-0.13959852
-0.058090284
-0.032004833
0.050214104
0.1577792
0.18772796
0.21437547
0.24616934
0.2051764
0.113117725
0.050800733
0.008220036
-0.024027519
0.018943107
0.047427893
-0.023328599
-0.092339806
-0.13326614
-0.16711073
-0.18343948
-0.20271833
-0.22382596
-0.24036185
-0.23605736
-0.21448363
-0.19066232
-0.11859269
0.0038874291
0.13345613
0.23237813
0.27103814
0.28359574
0.29153433
0.28792554
0.26717222
0.2205744
0.1859521
0.15632153
0.11135259
0.08903775
0.073644154
0.061806265
0.066005155
0.04730015
0.013548086
-0.022427488
-0.06652356
-0.103718
-0.13851634
-0.16059174
-0.16684952
-0.17262094
-0.16699603
-0.16686128
-0.18221442
-0.17829078
-0.14779226
-0.1101823
-0.07768644
-0.04763319
-0.018097633
0.0032860404
0.011182333
-0.0092218155
-0.04049322
-0.038066145
-0.01583734
8.361285E-4
0.02396424
0.0607826
0.101971105
0.123220034
0.12892933
0.14655796
0.15040582
0.10985902
0.04677217
-0.014594503
-0.060831003
-0.0626342
-0.013444481
0.04126466
0.07893078
0.103456624
0.092632905
0.055658616
0.024373116
0.0010509221
-0.01573756
-0.03822028
-0.0677963
-0.08144403
-0.07801332
-0.063736916
-0.044555992
-0.026144827
-0.0056784432
0.0054837973
0.0077923564
0.012036437
0.0101882955
0.0030768684
-0.0024396675
-0.0023772814
0.010526908
0.030354694
0.040166512
0.031674422
0.019049507
0.00815315
-0.019899784
-0.05916332
-0.07958602
-0.06866862
-0.0392198
-0.01126179
0.0074723954
0.010644163
7.686267E-4
-0.0047168494
-0.0063297534
-0.015544975
-0.03090566
-0.036791317
-0.02254258
-0.0018010264
0.019076295
0.041853268
0.048886202
0.037567124
0.025512451
0.01546486
0.0078639975
0.00956378
0.011563158
0.0069807135
0.008335598
0.012524082
0.0062088417
-0.0060449094
-0.017834071
-0.030283142
-0.042218257
-0.042126548
-0.0264943
-0.007023847
0.012948163
0.021264398
0.010370189
0.005264022
0.009337942
8.717886E-4
-0.015951477
-0.020656176
-0.008607024
0.0034208454
0.0055227154
0.008404372
0.015532582
0.012342646
-0.0023428344
-0.0050725034
0.0070926053
0.015258993
0.02527105
0.03977434
0.037330505
0.024530286
0.021648552
0.01969436
0.013651547
0.0036515903
-0.02174898
-0.047904972
-0.0506986
-0.036593694
-0.023571314
-0.013857824
8.7300425E-5
0.008142419
0.009370093
0.014726268
-0.0033168355
-0.048272233
-0.06939166
-0.058222905
-0.053743154
-0.060598347
-0.054126423
-0.044349037
-0.023814168
0.039107982
0.09057729
0.09339016
0.0957928
0.09914603
0.09561735
0.10517694
0.11039136
0.10522578
0.10607476
0.08973102
0.01869366
-0.06689697
-0.087432645
-0.06364433
-0.052344896
-0.05000712
-0.05581795
-0.063517846
-0.066902734
-0.08804761
-0.10189068
-0.07698034
-0.040921155
-0.019021979
-0.026151896
-0.053007573
-0.058930617
-0.04287469
-0.01656906
0.021700611
0.04688696
0.05551003
0.066021904
0.06911694
0.06758006
0.07323714
0.07530081
0.06718149
0.05020744
0.024057824
-0.009401698
-0.03831642
-0.04740312
-0.047960043
-0.048607554
-0.04067392
-0.036956582
-0.03465257
-0.0227335
-0.015117017
-0.0055954335
0.0024985461
0.007560649
0.03131914
0.04737092
0.043087628
0.033020854
0.015957452
0.017533135
0.018514205
0.013639437
0.05916504
0.100230105
0.08096487
0.046026222
0.0041676983
-0.036003683
-0.05598219
-0.072758734
-0.0823759
-0.07837595
-0.07649547
-0.07164942
-0.051439073
-0.036061104
-0.036082685
-0.036157228
-0.04216164
-0.060559634
-0.07731277
-0.056697372
0.012644326
0.060171068
0.055291634
0.053389553
0.07826639
0.10408089
0.101494394
0.08381757
0.057539202
0.005792764
-0.022121135
-0.005739629
0.0155362
0.0426603
0.05936827
0.049866095
0.03824068
0.026512524
0.009794347
-0.017069295
-0.05006773
-0.05934424
-0.043152273
-0.027266249
-0.022392038
-0.026399933
-0.031443752
-0.026969356
-0.025374472
-0.040562436
-0.044904333
-0.032389514
-0.02043179
-0.00533552
-0.013965564
-0.035524745
-0.019408626
-8.1469356E-5
-0.005273468
-0.018282587
-0.040519726
-0.04282617
-0.019559612
-0.005557489
0.0075675105
0.025510434
0.03123976
0.027911229
0.023502475
0.019872421
0.01868586
0.02993404
0.057201892
0.074917346
0.072394736
0.06888192
0.06260946
0.04884243
0.036535263
0.015006904
-0.008235497
-0.00852604
-0.0035762102
-0.0044844346
0.010494712
0.024451902
-0.003167714
-0.045560677
-0.052828986
-0.052389104
-0.06085288
-0.050963063
-0.0424788
-0.036943566
-0.022151707
-0.026160998
-0.033838242
-0.029896934
-0.042649698
-0.072780594
-0.085042045
-0.04199774
0.010814457
0.011217432
0.024432579
0.078506544
0.09868815
0.08746054
0.06293
0.0017272842
-0.038087644
-0.011497442
0.01662997
0.017543288
0.016031843
0.013348251
0.009210176
-0.008105317
-0.02292255
0.0040203365
0.025811734
0.0053355545
0.0026601604
0.035047926
0.052711982
0.038332157
0.014071951
-0.008737422
-0.03332972
-0.044682637
-0.045838602
-0.060420856
-0.055116106
-0.0076414794
0.026470808
0.028556624
0.030059123
0.029385727
0.0100205345
-0.024228694
-0.045113575
-0.040283583
-0.028268509
-0.011235288
0.0065400186
0.016989041
0.028666655
0.034701683
0.02961214
0.01984173
0.011083679
-1.595741E-4
-0.022207629
-0.021466235
0.012444122
0.025611179
0.008937666
0.0033029907
0.025877137
0.038634025
0.005742015
-0.034958486
-0.05091272
-0.05321238
-0.05159757
-0.05332028
-0.061294142
-0.0797337
-0.07806724
-0.024792012
0.031396676
0.054539487
0.06381785
0.065559804
0.0549358
0.04449396
0.05073896
0.039483283
0.0016548351
-0.0040576435
0.007345107
0.002263704
0.009900377
0.028763011
0.04583172
0.049913142
0.025502358
0.0025440883
-6.798891E-4
-0.008310868
-0.03191169
-0.048289575
-0.0333737
-0.01675973
-0.024741516
-0.029402263
-0.02348347
-0.02326607
-0.023899212
-0.022757273
-0.022680253
-0.016452728
-7.8805623E-4
0.015120489
0.022250114
0.02109122
0.0130434325
0.0029876276
0.001211508
2.5976746E-4
-0.0041461624
0.0034350483
0.010859531
0.004273157
0.002215886
0.003239431
-9.574835E-4
-4.6235436E-4
3.0710918E-4
-0.0038138372
-0.0065181814
0.0016437419
0.026790388
0.04910583
0.04688417
0.029949432
0.018119557
0.011501437
-0.0047827656
-0.026273163
-0.035279248
-0.032631297
-0.02292888
-0.0117461495
-0.012586821
-0.019499999
-0.017945638
-0.0109602865
-0.0049474747
-0.005791089
-0.01297875
-0.012631754
-0.0024145502
0.006470917
0.009284081
0.008865783
0.0076991464
0.006485523
0.00907676
0.007878502
-0.008932439
-0.023448372
-0.014105525
0.009743096
0.023893863
0.016328428
0.0053157234
0.010651665
0.020238612
0.017555283
0.0074763456
0.0052785017
0.016170966
0.028727934
0.03194941
0.027222142
0.019144038
0.0067506786
-0.0092717875
-0.02009883
-0.019159513
-0.009933607
0.004478339
0.024151156
0.042173255
0.049564555
0.033417877
-0.009196118
-0.045962956
-0.06344528
-0.077663556
-0.082116015
-0.08028401
-0.0719628
-0.041905403
-0.015460584
-0.0013847642
0.016739435
0.021091502
0.009362569
5.695982E-4
2.1215498E-4
0.009423754
0.02079635
0.024396587
0.020435026
0.017657384
0.015040303
0.009380047
0.007789631
-1.7392582E-4
-0.010234947
-0.0038896601
0.005273241
0.014603418
0.020042406
0.012511392
0.012263947
0.008041345
-0.01282414
-0.029619332
-0.042496417
-0.042658783
-0.020279128
0.0013296307
0.008693211
0.012836246
0.018404901
0.008422597
-0.013680244
-0.025515784
-0.023156792
-0.0037818071
0.015844336
0.02320235
0.039716154
0.050541002
0.03683348
0.020172073
0.007959609
0.004713524
0.017625831
0.0289848
0.028158829
0.028457072
0.034256507
0.033907384
0.02720056
0.022067739
0.014977196
0.0013996646
-0.010439552
-0.014367779
-0.018443242
-0.024072144
-0.03133813
-0.047177244
-0.061928317
-0.067997955
-0.07650088
-0.09417886
-0.10434112
-0.09448435
-0.08914348
-0.08477762
-0.06276653
-0.04906217
-0.028487604
0.016936453
0.044345945
0.050184596
0.053247467
0.070132226
0.118101664
0.14193287
0.112868026
0.08414989
0.05669102
0.028511377
0.04772744
0.086791314
0.093184896
0.083602786
0.06409687
0.035722315
0.0155897895
-0.0026687875
-0.01015456
-0.01182682
-0.036346912
-0.061571952
-0.06810228
-0.06933763
-0.06561595
-0.057535674
-0.047972262
-0.042076398
-0.045443315
-0.0494624
-0.045855694
-0.0361074
-0.02775439
-0.016749667
0.0033343914
0.014302444
0.010246995
0.011330729
0.020056004
0.019254476
0.00479611
-0.0095305145
-0.014540502
-0.0070627723
0.008550378
0.01561118
0.013876223
0.015420989
0.019786118
0.022173248
0.018783491
0.011987954
0.0017130903
-0.013158118
-0.013763586
0.0025973835
0.015020013
0.02408448
0.029028116
0.021182766
0.009677798
-0.0026280019
-0.012770905
-0.009152526
0.002175442
0.015746111
0.0347471
0.045919154
0.03303835
0.012744352
0.009108955
0.004762029
-0.0102959545
-0.017110758
-0.018282712
-0.01771842
-0.016693067
-0.015600578
-0.002468033
0.0028620714
-0.008598557
-0.015152353
-0.024250796
-0.030747153
-0.021816805
-0.011555783
-3.274129E-4
0.006636093
4.3126437E-4
-0.0050713136
-0.0067457748
-0.011182176
-0.014407908
-0.013442537
-0.011089919
-0.004409
0.007253144
0.015818708
0.020804629
0.016629698
0.0018668496
-0.010211683
-0.018269068
-0.012291865
0.006309039
0.008834688
0.0015888419
7.6034915E-4
0.0010483152
-0.0031423639
-0.014364237
-0.017501663
-0.012037095
-0.009458031
0.0011083982
0.010295141
0.0067211986
0.0022147454
0.0029624843
0.012444768
0.015133178
0.0024624458
-0.005009121
-0.007968924
-0.008202063
0.0029375385
0.013268441
0.015522653
0.012841917
0.008488351
0.0053746584
-0.002265739
-0.009346391
-0.0027451974
0.009883432
0.012873194
0.009460549
0.0072904155
0.0023875672
-6.626545E-4
-0.0017436118
-0.0136636775
-0.024412652
-0.017321225
-0.0019223887
0.009436873
0.01488761
0.012973423
-0.0029552435
-0.018839013
-0.014384008
-0.005251718
-0.0038881195
-0.005916168
-0.010060856
-0.004998584
0.0069111814
0.014020521
0.018725358
0.018785303
0.011466724
-0.0045920857
-0.020382859
-0.015164097
0.0015710583
0.012103147
0.022619203
0.030793944
0.029077731
0.022808246
0.012928727
-0.0031620043
-0.01629085
-0.018093726
-0.013041872
-0.006085966
-0.001890874
-0.003094546
-0.004642648
-0.0073089628
-0.013917516
-0.021132382
-0.025828408
-0.021953318
-0.0072150966
0.011859445
0.024820004
0.01896327
0.00361457
0.0031891994
0.0053970404
-0.010712548
-0.024444012
-0.021054367
-0.011481392
0.004831858
0.020683179
0.022221804
0.020697363
0.018870857
0.0062613776
-0.0054572737
-0.007156964
-0.0040664882
0.0032947273
0.012126178
0.019766044
0.0216601
0.016037907
0.015327474
0.012289669
-0.0038900955
-0.015733207
-0.016622739
-0.0058044577
0.010338428
0.007609001
-0.0023466034
-7.9619134E-4
0.002512163
0.008651207
0.011198979
-0.0057265474
-0.029168354
-0.032289933
-0.017551651
-0.00981505
-0.004776174
0.003914502
0.0026116031
-9.105996E-4
-0.007569045
-0.023267148
-0.026563687
-0.01359042
0.00435186
0.018716807
0.020569537
0.02014158
0.021820506
0.014086913
0.0012946929
-0.0059067984
-0.008029943
-0.006816796
9.854931E-4
0.011473383
0.01731661
0.023472793
0.028989723
0.023385486
0.009620972
-0.006312049
-0.017940976
-0.01335525
-0.0039198566
-0.006144202
-0.012227409
-0.015220008
-0.007039851
0.0059804944
8.096412E-4
-0.004520914
0.003803994
0.008780233
0.013560176
0.009940636
-0.001823982
-0.0024626402
-0.005033426
-0.007135396
-0.0031191488
-0.010905969
-0.016501954
-0.01037863
-0.004620364
8.912935E-4
0.0046409117
0.010863253
0.02024426
0.017715668
3.964073E-4
-0.017823547
-0.02211922
-0.014246203
-0.0032153118
0.010829846
0.018665591
0.016957313
0.019865954
0.015974954
-0.004105422
-0.009550757
-0.004257724
-0.01517012
-0.01493728
0.0061502727
0.017893896
0.017288527
0.006611992
-0.0076810136
-0.011070678
-0.010831197
-0.012125221
-0.011081076
-0.003203173
0.009340287
0.010418605
0.0053444253
0.0068864925
0.0062801726
3.5779485E-5
-0.00862079
-0.01480485
-0.010858081
0.0013107511
0.011580534
0.013185708
0.013259221
0.011915132
-0.0027646853
-0.017080376
-0.016061634
-0.014198297
-0.0114706475
0.0024648344
0.012236303
0.013789927
0.015586076
0.0064939708
-0.005839092
-0.0044472036
5.5197644E-4
0.0055568744
0.00881503
0.0041445917
3.4237144E-4
-5.1717955E-4
9.657167E-4
0.0035657967
-5.0142605E-4
-0.00648203
-0.01099553
-0.008643096
0.0038664837
0.008238617
0.0048135603
0.0038365193
8.61751E-4
0.0026793762
0.0062588323
-0.001947947
-0.015821194
-0.02322287
-0.01769554
-0.0036856295
0.0051936395
0.004598357
0.0066954824
0.016483713
0.014176407
-0.0032940765
-0.01139559
-0.005607503
-7.161052E-4
-0.002456397