-0.008568013
-0.010280075
-0.009114385
-0.007156606
-0.0027827998
0.004715003
0.019383611
0.028644033
0.016242651
-0.0033082417
-0.016625898
-0.023706293
-0.023649817
-0.02091239
-0.015352758
-0.004523822
0.01055575
0.020764155
0.013563166
-0.0012897929
-0.010107598
-0.011802818
-0.0092830965
-0.00940809
-0.008276482
0.0018838415
0.01887097
0.028408024
0.017647352
7.2547514E-4
-0.011605742
-0.020475917
-0.017809303
-0.0092739565
-6.8019994E-4
0.010060995
0.01945788
0.028911557
0.028349226
0.013547172
0.0011990594
-0.0067127277
-0.0117634665
-0.012335025
-0.012854481
-0.006748219
0.008122277
0.017123971
0.010167151
-0.0057406565
-0.015642166
-0.016405985
-0.013246568
-0.008804841
-0.004506581
0.002727167
0.011693641
0.014225454
0.007379664
-0.0060046567
-0.013508701
-0.0113686295
-0.012159667
-0.010804316
-0.008073967
-0.010490169
0.0073277117
0.032889098
0.025703544
0.003588804
-0.011120124
-0.018099096
-0.014244644
-0.009117108
-0.002487546
0.009641155
0.019789383
0.02710282
0.02447926
0.009994821
-0.0031194629
-0.011388932
-0.016883302
-0.018487403
-0.013588948
6.422065E-4
0.019103471
0.027632842
0.018278066
7.2732376E-4
-0.012721092
-0.018676838
-0.019247439
-0.016714914
-0.010246773
-8.194831E-4
0.010879463
0.01889106
0.014467095
0.0030301348
-0.008398314
-0.014536863
-0.012411058
-0.010624617
-0.008559149
0.0016786886
0.01791657
0.027798796
0.02004496
0.0031388784
-0.011516417
-0.01915915
-0.017620567
-0.014749342
-0.009717561
2.8855985E-4
0.011350494
0.022538792
0.021335788
0.005937383
-0.006957161
-0.01163074
-0.010020398
-0.009067639
-0.008012051
0.002040944
0.01569913
0.023375297
0.016802825
-0.0015209367
-0.015411707
-0.020979017
-0.018735304
-0.010131284
-0.0047089127
0.0014421954
0.01383734
0.022020588
0.018890414
0.005711366
-0.008136556
-0.010493191
-0.008010263
-0.008862707
-0.006850726
-5.7516398E-5
0.014161138
0.02806961
0.021050978
3.1821887E-4
-0.015901558
-0.02473124
-0.02490712
-0.017706031
-0.0078086993
-4.936169E-4
0.0098724505
0.024763746
0.023836618
0.008905934
-0.0038223036
-0.012598246
-0.012161087
-0.008434509
-0.0068185898
8.0768834E-4
0.012078857
0.021847446
0.020112026
0.004035484
-0.010357825
-0.017991576
-0.019315878
-0.014357163
-0.007274635
0.0039936733
0.016270189
0.022778742
0.02003656
0.005723865
-0.010022551
-0.015231222
-0.014547738
-0.015008195
-0.0117416335
-0.0014775532
0.012415571
0.023062164
0.018675305
0.0020795485
-0.013219101
-0.021803955
-0.020061726
-0.012556493
-0.005238096
0.00361301
0.012940662
0.021478267
0.020729763
0.006772904
-0.004912052
-0.0076286574
-0.007832821
-0.008683953
-0.007159426
1.2778127E-4
0.011800736
0.024720695
0.02429044
0.0062052063
-0.00831333
-0.014669442
-0.017089875
-0.012003671
-0.0068690316
-0.001147584
0.0097515555
0.016988378
0.015350507
0.0036744794
-0.01157235
-0.016723813
-0.013285437
-0.011775612
-0.012035157
-0.005105143
0.010176061
0.020792179
0.017464641
0.0037851436
-0.010550748
-0.017161876
-0.01741359
-0.0135427285
-0.006118345
-1.7476684E-6
0.010028808
0.023374226
0.02261394
0.008442128
-0.0050791358
-0.011217609
-0.01037273
-0.00994251
-0.007584278
0.0022306365
0.016239153
0.028798467
0.026335437
0.008849613
-0.0075945104
-0.018289212
-0.020955512
-0.015975952
-0.0091171535
-6.26404E-4
0.010388226
0.020380316
0.018619198
0.004902689
-0.0066881324
-0.011404742
-0.011748806
-0.012422596
-0.012747716
-0.005383158
0.0069525437
0.017870756
0.018156951
0.003453226
-0.012350043
-0.019739242
-0.018646665
-0.013249792
-0.009378294
-0.0023361351
0.009432698
0.02061817
0.02507291
0.014892383
-6.303111E-4
-0.0064355233
-0.007326667
-0.00816313
-0.0055891173
-0.0018474871
0.006172366
0.019246172
0.021077119
0.008926423
-0.00489329
-0.014231809
-0.015082437
-0.013091529
-0.010550621
-0.0023791639
0.0062759984
0.016220842
0.020882765
0.00690552
-0.010196272
-0.015266969
-0.014099242
-0.012878327
-0.012065971
-0.0056781066
0.0076077334
0.019066922
0.01797615
0.0039379643
-0.0093081035
-0.013957247
-0.014096336
-0.012118424
-0.005792669
0.0025254353
0.010963165
0.021892551
0.023609824
0.011788183
0.0017509974
-0.0026699437
-0.0021190573
-0.0021145549
-0.008170144
-0.00652194
0.0053510317
0.016286867
0.016322205
0.0012738785
-0.014096238
-0.02178107
-0.023249948
-0.016049754
-0.006485431
0.0025451547
0.012269197
0.01943412
0.018479008
0.0053127143
-0.009069584
-0.01469866
-0.014818707
-0.012608624
-0.009844929
-0.0036046272
0.009364429
0.02353399
0.026070163
0.012436301
-0.004214936
-0.015843302
-0.020698195
-0.016145328
-0.009122054
-0.0020447392
0.008085477
0.018289533
0.021824215
0.012227706
-0.0017110308
-0.008028419
-0.009181511
-0.008312912
-0.0067783813
-0.0032359879
0.007777426
0.02191555
0.024039177
0.00974204
-0.006015421
-0.013694077
-0.016044173
-0.012896692
-0.0077506723
-0.0042837798
0.003683532
0.0155888945
0.019086527
0.007926067
-0.0095198685
-0.018422088
-0.015130071
-0.010612879
-0.008823124
-0.003557708
0.0073343352
0.02051408
0.023129677
0.008848288
-0.007856786
-0.01745096
-0.020335216
-0.017173639
-0.012186212
-0.005120289
0.006005067
0.01740912
0.021989299
0.0144642545
0.0025476858
-0.0032069606
-0.0044551142
-0.0049405606
-0.004744061
-0.001918815
0.0071326345
0.018802615
0.021048525
0.008559956
-0.009356146
-0.018878119
-0.017609049
-0.011932079
-0.003678815
0.0037157189
0.009770193
0.019574786
0.022498816
0.011729309
-0.0027123813
-0.017102385
-0.023579706
-0.018622557
-0.014943554
-0.010981783
0.0021802876
0.018313171
0.023786899
0.012344713
-0.0057614828
-0.017855953
-0.020925159
-0.016926456
-0.010230829
-0.0017500988
0.010100968
0.021014195
0.024812551
0.01837743
0.0033639017
-0.0076022223
-0.008642492
-0.010724071
-0.011453675
-0.0042425697
0.006481318
0.021813374
0.027558118
0.012544405
-0.0038301067
-0.013757819
-0.01850552
-0.016310692
-0.0133068375
-0.005652227
0.006811849
0.016111908
0.02072423
0.012445312
-0.0059134923
-0.014811738
-0.013342882
-0.0134744225
-0.013728392
-0.008293628
0.0033048661
0.01908524
0.025120996
0.012142214
-0.0062099434
-0.018750234
-0.022525903
-0.017237509
-0.009489994
-0.0018337057
0.0072755055
0.01839985
0.025736159
0.01904809
0.0034477273
-0.0063738185
-0.0070561524
-0.005496045
-0.004237418
-0.0016873424
0.0043903776
0.018945664
0.026436506
0.012318082
-0.0043311827
-0.015587976
-0.025258576
-0.02618044
-0.019015599
-0.006108215
0.0069452804
0.01676288
0.023617582
0.015647616
-7.3881925E-4
-0.008420555
-0.010217401
-0.010317208
-0.010206563
-0.0078088753
0.0019055724
0.015894515
0.0230971
0.013085825
-0.0048285653
-0.015671462
-0.019593958
-0.018518122
-0.013202051
-0.0040123323
0.0070127985
0.016086008
0.022090187
0.01739033
0.0014579394
-0.010425153
-0.012167378
-0.011375252
-0.011793217
-0.008403172
0.0018674204
0.016376883
0.024565723
0.01571996
0.0010242902
-0.0067188293
-0.010380331
-0.008650099
-0.0030299448
0.0010382385
0.0070035006
0.016206052
0.021949193
0.015976604
-0.0018419641
-0.020873027
-0.029109456
-0.023615826
-0.014858702
-0.008554499
0.0048366156
0.023483682
0.030356921
0.02191079
0.0056966795
-0.011225174
-0.02159089
-0.026313543
-0.024516001
-0.013949428
-0.0021509142
0.011645099
0.024377123
0.022464218
0.00900133
-4.8771905E-4
0.0011144013
-0.0050962274
-0.021706028
-0.015032558
0.0072878865
0.021606646
0.028291846
0.014064723
-0.009298081
-0.018059555
-0.018900448
-0.013762388
-0.0070800036
-0.00456276
0.0011997898
0.011936873
0.021435842
0.017536845
0.0022568954
-0.008363901
-0.010097459
-0.007936776
-0.009736106
-0.01051876
1.8125784E-4
0.01604975
0.024647279
0.0155318
-0.0031904653
-0.01371052
-0.01697214
-0.016345436
-0.012703989
-0.0067993477
0.004567826
0.016431784
0.021724926
0.0171236
0.003896516
-0.008895327
-0.013515392
-0.010487668
-0.008035467
-0.0075268536
4.2216416E-4
0.015370618
0.022833584
0.014029819
-0.002382059
-0.015227604
-0.020024924
-0.017170653
-0.012559146
-0.006769516
0.0037842887
0.01780303
0.02677894
0.021394204
0.006737021
-0.008474316
-0.01744129
-0.015276692
-0.011488565
-0.008559327
0.0011054924
0.016114524
0.026312603
0.018000776
-5.933689E-4
-0.012336149
-0.018683137
-0.018619299
-0.012373601
-0.0063106143
0.0012241214
0.011420869
0.020164352
0.020325389
0.009842685
-0.0033660296
-0.009862015
-0.009721788
-0.01124961
-0.01087462
-0.0016595422
0.012246377
0.022354785
0.016339535
-7.307182E-4
-0.012461164
-0.018609848
-0.020031687
-0.016695097
-0.009544123
0.0025160208
0.014759467
0.023253089
0.02078606
0.006578961
-0.005198625
-0.010959741
-0.014431094
-0.013898226
-0.007719877
0.003935324
0.016729994
0.024109604
0.019561872
0.0036753337
-0.011284436
-0.0159706
-0.014632565
-0.012493069
-0.0062414655
0.0032997802
0.01379383
0.021792384
0.016476497
0.0021520117
-0.009117481
-0.014122213
-0.013224828
-0.013445906
-0.011955365
-0.003335226
0.010779791
0.026913958
0.022930676
-4.679283E-4
-0.014860677
-0.017598933
-0.014055906
-0.010884352
-0.009309691
7.563507E-4
0.0108320275
0.017832482
0.021156289
0.009124745
-0.0067315265
-0.012438863
-0.011425447
-0.009918558
-0.008991731
-9.0817903E-4
0.014889621
0.027742293
0.023464605
0.0037210635
-0.010488852
-0.01699475
-0.022991894
-0.021017278
-0.008530598
0.0046179094
0.011642139
0.01884738
0.021450125
0.0076042917
-0.00926124
-0.015205075
-0.011597069
-0.0065031447
-0.006394374
1.4279153E-4
0.015920667
0.02567171
0.020909967
0.0037323276
-0.011981043
-0.019470772
-0.023003502
-0.018315485
-0.0069789574
0.003306846
0.014085412
0.024807286
0.0243049
0.0064787436
-0.0132734245
-0.019212008
-0.016753055
-0.015196168
-0.0130235
-0.0031540208
0.013367931
0.024040334
0.020538177
0.0061284592
-0.010316307
-0.018695092
-0.0154232085
-0.00745291
-0.0013637963
0.0045598336
0.015308602
0.026410231
0.02390606
0.008601902
-0.0056363763
-0.013220123
-0.013431962
-0.011741529
-0.012122778
-0.0059910924
0.007745804
0.02064834
0.022120802
0.0037288142
-0.019765157
-0.025835864
-0.016987653
-0.009112039
-0.0073598213
-0.004611692
0.0040705777
0.012398133
0.014726656
0.012966366
0.005918275
-0.0036650072
-0.0061946823
-0.0034682923
1.264137E-4
0.005781706
0.013678041
0.02168705
0.01589204
-0.0044036624
-0.017390648
-0.020982858
-0.023013286
-0.01979285
-0.010079297
0.0032492236
0.014588782
0.02185284
0.023047486
0.012340328
-0.002416555
-0.00994567
-0.012588458
-0.01462262
-0.014161012
-0.007130662
0.00881426
0.026233163
0.02640308
0.0094337305
-0.006784616
-0.019279985
-0.02286141
-0.013286952
-0.0045664534
9.2624186E-4
0.008825689
0.018105948
0.022882722
0.010793388
-0.009910806
-0.019928537
-0.021228021
-0.018275762
-0.01127626
-0.002453255
0.011205267
0.025409862
0.026717355
0.014283857
-0.0019182581
-0.01363702
-0.015842324
-0.012633195
-0.007960044
0.0013010332
0.010568288
0.015911974
0.017639259
0.009476949
-0.0048484877
-0.012645493
-0.013913126
-0.01432545
-0.012901344
-0.0067141796
0.0060838456
0.02131379
0.022704542
0.00643848
-0.008464233
-0.012758074
-0.012949856
-0.012876303
-0.009029501
9.186814E-4
0.012867379
0.024313854
0.026910333
0.0138194
-0.001077846
-0.008073017
-0.011493741
-0.013652727
-0.014487061
-0.010921817
-8.901788E-4
0.011927171
0.014660286
-2.6213212E-4
-0.016776413
-0.022623673
-0.021616526
-0.015091053
-0.005812372
0.002249939
0.011942884
0.025665056
0.0341961
0.027738472
0.014763043
0.008892604
0.010744961
0.0116397925
0.006948931
0.0018737279
0.0040513026
0.011926931
0.009742527
-0.0063788514
-0.024867537
-0.042559665
-0.04980544
-0.044378355
-0.039821055
-0.029929262
-0.011347149
0.0051783756
0.013810094
0.0071158614
-0.0072521656
-0.0132557815
-0.010721923
-0.002226811
0.009563673
0.018880062
0.0303183
0.04849531
0.056093365
0.04470681
0.030001199
0.017701237
0.011761662
0.013399575
0.0132557135
0.012591518
0.012008234
0.014203017
0.013262355
-0.012475111
-0.047610402
-0.063092574
-0.05881288
-0.046327814
-0.03669516
-0.02284547
-0.0014968769
0.013702776
0.017375257
0.0055058645
-0.013520189
-0.023225458
-0.023375304
-0.017228961
-0.01034144
-0.0045281327
0.0056909393
0.018942202
0.027607666
0.02080755
0.0038423985
-0.004082281
-7.6739996E-4
0.0045365295
0.0052429987
0.0047420356
0.012579952
0.024665192
0.028058043
0.01860609
0.003653628
-0.008769865
-0.016597886
-0.01671428
-0.0100718755
-0.005062763
6.9126935E-4
0.01414723
0.02409295
0.019203188
0.007715603
-3.780167E-4
-0.004091947
-0.004365001
-5.30613E-4
0.006844977
0.018304266
0.03265927
0.035575107
0.021765636
0.0034254913
-0.015172866
-0.028527338
-0.030813677
-0.02844487
-0.023842026
-0.013637832
5.040144E-4
0.0057882513
-0.0033494264
-0.014050544
-0.021522323
-0.0240995
-0.021370329
-0.023249388
-0.02464563
-0.01689162
-0.0045892294
0.0023610995
-0.0076118056
-0.022672791
-0.02490561
-0.022866007
-0.016046904
0.008543729
0.039915815
0.06429214
0.08673505
0.10264965
0.095098324
0.06850469
0.03950242
0.0062281936
-0.027343072
-0.043881513
-0.050764486
-0.054584857
-0.045723807
-0.04169154
-0.057518974
-0.07065295
-0.05783046
-0.02618218
-0.0034174493
0.0045817
0.011796014
0.026544262
0.052757557
0.071687706
0.06946272
0.060411863
0.045712367
0.025348058
0.008863085
-0.002769724
-0.0011880334
0.019159278
0.04008142
0.042099565
0.027209066
0.002104275
-0.025740907
-0.04519633
-0.065899596
-0.08479537
-0.080501005
-0.07063989
-0.070161335
-0.06254989
-0.044489477
-0.023112686
-0.011427148
-0.022823818
-0.04267875
-0.043127697
-0.017636884
0.026441311
0.07177718
0.08855587
0.079268634
0.06780571
0.051296778
0.025182694
0.004288361
0.010005041
0.026407994
0.016624574
0.0042067
0.019013079
0.04402938
0.05087101
0.020991921
-0.015226891
-0.033081234
-0.04956253
-0.051734556
-0.025369111
0.023370557
0.07405491
0.09062241
0.08479545
0.0758546
0.037854522
-0.031671215
-0.08209693
-0.080447786
-0.07483363
-0.09205252
-0.08612382
-0.059673067
-0.039021097
-0.025162399
-0.027395384
-0.027065583
-0.014854249
-0.010482336
-0.0034935153
0.006206649
0.0031962926
-0.0044428064
-0.011096399
-0.015068107
-0.016756086
-0.01202615
0.016801182
0.0493933
0.055035494
0.056285292
0.060743153
0.046747353
0.025875347
0.013302136
0.008599864
0.008709888
0.007078465
0.011758866
0.025320997
0.03580518
0.035903636
0.022072202
0.01133024
0.008294883
-0.0044657616
-0.011052464
-0.010721482
-0.02784162
-0.041096482
-0.029102774
-0.009844612
-0.0020407273
-0.0053848634
-0.0054090605
0.001169661
0.0057395822
-9.123142E-4
-0.023648838
-0.044616282
-0.0489228
-0.044358104
-0.039477944
-0.041705713
-0.04386386
-0.03383547
-0.022455757
-0.009369275
0.014216876
0.03505816
0.047455058
0.05245283
0.044790216
0.030285098
0.016072197
0.0065457337
0.007496573
0.015829546
0.02121903
0.020163398
0.023258787
0.028507609
0.020485217
0.005363627
-0.0053935964
-0.006978432
0.0020086467
0.0059019295
-0.0013267798
-0.0036567552
0.004854609
0.007462651
-0.0039158724
-0.011877822
-0.014807075
-0.019477919
-0.019105779
-0.020204188
-0.023014605
-0.017043402
-0.0015539167
0.01420835
0.00906711
-0.009269502
-0.017315153
-0.014615289
-1.948072E-4
0.010244836
0.0058128573
0.007802996
0.015127104
0.013550215
0.0031058947
-0.010897995
-0.018701548
-0.017972989
-0.012018622
-0.0059562987
-0.0043016514
-0.0054742997
8.9306844E-4
0.018228747
0.019154457
-0.0024942486
-0.018486084
-0.021231536
-0.012151579
-8.146168E-5
0.0082511455
0.024975892
0.047179054
0.060685355
0.04716979
0.012662373
-0.0018801343
0.0023294701
-0.0059685134
-0.02888974
-0.042206302
-0.028929159
-0.007635693
0.010559201
0.019407926
0.0041637896
-0.0151711665
-0.030210251
-0.04523776
-0.04444135
-0.037413605
-0.02277654
0.011251102
0.032206014
0.030716127
0.030086325
0.020873314
-1.2682765E-4
-0.0063758246
-8.0635055E-4
-0.0017281405
0.0052452222
0.029566705
0.049238253
0.046302013
0.028545981
0.009671168
-0.010875099
-0.032301117
-0.045176398
-0.041319646
-0.021648528
-3.1031985E-4
0.013162064
0.013852424
0.001995611
-0.0061517954
-0.009195617
-0.015943121
-0.020147098
-0.018225294
-0.008144634
0.008538328
0.02078972
0.022753762
0.010302093
-0.010686577
-0.018725427
-0.009451777
9.2237786E-4
0.0058837277
0.0075982474
0.0082775215
0.01650282
0.027145397
0.019121036
-0.0025743018
-0.013902044
-0.014175051
-0.014874228
-0.013744254
-0.0061474945
0.006049921
0.015345015
0.011111855
-0.002648175
-0.015849303
-0.022301374
-0.0146207735
-0.003214167
0.004371501
0.01813233
0.034935556
0.04374349
0.029974021
-0.0024294457
-0.021581648
-0.02239849
-0.01795334
-0.014651891
-0.016377674
-0.01163645
0.0010039591
0.011404744
0.01464546
0.004594755
-0.011311297
-0.01968807
-0.016798964
-0.011310286
-0.010497
-0.004525409
0.002748915
0.0027470808
0.002088719
-0.0010451367
-0.0038509707
1.744276E-4
0.008254688
0.020154092
0.03266409
0.040810805
0.043967243
0.046551242
0.044308618
0.021579897
-0.017273784
-0.05264494
-0.06780726
-0.05846543
-0.041450296
-0.026587611
-0.008833961
0.010878805
0.019102188
0.007846266
-0.00633378
-0.012494512
-0.014877007
-0.015197151
-0.013634313
-0.00333189
0.013812471
0.029810674
0.036089774
0.015187661
-0.012571569
-0.013390215
-0.0019667412
0.0044351257
0.009870698
0.018759225
0.034540616
0.04582184
0.034695994
0.010162343
-0.0019042908
-0.0045128744
-0.014969934
-0.023280406
-0.024262665
-0.025222728
-0.012236532
0.008740857
0.0040641776
-0.019265197
-0.03237615
-0.035373703
-0.033896163
-0.02311049
-0.0025709472
0.016660528
0.02793376
0.036197625
0.0347434
0.018856954
0.0014640931
-0.01123997
-0.020075483
-0.024095086
-0.020592235
-0.01108286
0.0037231247
0.029705832
0.04527106
0.03222654
0.017067607
0.008658617
-0.0060385508
-0.015657134
-0.010497879
-0.004446274
-0.0036306384
0.0014805302
1.7793539E-4
-0.0150883915
-0.022542166
-0.015343661
-0.0053098635
-0.002527702
-0.0055167507
-0.0025243643
0.008204473
0.025976678
0.03461824
0.020218067
0.0064494186
-2.8951044E-4
-0.010279109
-0.019219382
-0.02635803
-0.023017174
-0.009815721
0.0013152659
0.0057352916
-0.0064179213
-0.021586614
-0.019643506
-0.0094561195
4.725704E-4
6.935862E-4
-0.0040430836
0.010214389
0.029988956
0.030292824
0.01841404
0.0011034851
-0.013184896
-0.010698901
-0.0023331535
-1.01757E-4
0.0039789854
0.021354552
0.05088207
0.06257037
0.036450993
0.0013313957
-0.014690879
-0.019293841
-0.02556381
-0.0299807
-0.02856766
-0.021317173
-0.0077796527
-0.0041537485
-0.016988652
-0.027035428
-0.027996553
-0.022854012
-0.01177978
0.0025879128
0.016616998
0.028173614
0.03918415
0.037351947
0.016217351
-0.008494338
-0.026827954
-0.025975415
-0.012058661
-0.008643123
-0.0060572443
0.0077089393
0.025224833
0.028325018
0.007461636
-0.011012277
-0.01773206
-0.024717703
-0.022845013
-0.012216407
-0.002201284
0.009466592
0.021838842
0.022909597
0.0077518686
-0.006644272
-0.008346042
-0.0015538442
0.008483347
0.017305154
0.02490688
0.03414029
0.044541877
0.042568035
0.019857693
-0.0064150766
-0.02811342
-0.049839523
-0.06095408
-0.0465848
-0.016964579
0.0030962438
0.015532298
0.021267675
0.012688448
0.004685752
-0.0021749856
-0.008498771
-0.0111030415
-0.021503348
-0.025741944
-0.021605035
-0.013133038
0.010888863
0.019215658
0.0050108135
-0.0026632415
-0.0060900045
-0.003921797
-0.0015116959
-3.5025566E-4
0.013717501
0.024285337
0.023642149
0.017966839
0.0055308496
-0.0032519165
-0.0070992815
-0.007763232
-0.0028011212
0.004353264
0.017146373
0.03122714
0.032716602
0.015922615
-0.005626368
-0.016551962
-0.03154837
-0.045635622
-0.028361505
0.0010357565
0.015452453
0.025246335
0.030712092
0.02363538
0.005777279
-0.013367732
-0.020585245
-0.022944318
-0.02860652
-0.026052443
-0.0097016655
0.014114382
0.02420249
0.010582193
-0.005123984
-0.013195848
-0.013039882
-0.0064260904
-0.0053049834
-0.004021231
-0.0017654995
-6.792456E-4
0.008326072
0.011162335
0.0011986282
-0.009797707
-0.01732251
-0.01448405
-0.005936073
0.0021394053
0.013491782
0.026513943
0.035966452
0.033816315
0.027278947
0.019843416
-0.0031640453
-0.026211761
-0.026411034
-0.010816045
0.0043804157
0.010130204
0.015481921
0.017150851
0.0027992858
-0.006583408
-0.0032493898
-0.004623733
-0.007596935
-0.0087581165
-0.006812106
0.002764376
0.0034392478
-0.011271445
-0.02512889
-0.03240164
-0.030208822
-0.016840136
-0.0032840685
0.0028763665
0.007724617
0.016742582
0.020373143
0.012138036
-0.003323985
-0.017408913
-0.015639743
-0.0068925875
-0.0049549923
0.0027000643
0.01585643
0.03178635
0.045853864
0.036175285
0.008913956
-0.017629635
-0.03255503
-0.02679698
-0.012812738
-2.643811E-4
0.010917576
0.021488234
0.03012093
0.02462762
0.009863734
1.4817147E-4
-0.0021222641
-0.006204078
-0.018236587
-0.017404435
-0.006356606
-0.0020904317
0.0030033307
-0.005034376
-0.023104804
-0.026830252
-0.019696098
-0.0037405235
0.0075496286
0.0073229303
0.010208468
0.012511114
0.014235426
0.0070074787
-0.015544417
-0.026498435
-0.021319035
-0.015288037
-0.012144353
-0.006132171
0.01317873
0.03530039
0.04436784
0.033773575
0.0053191516
-0.016988093
-0.019239612
-0.012724885
-0.008586654
-0.00725466
1.06636704E-4
0.013223603
0.021354383
0.015489153
-0.005799388
-0.020862712
-0.01266497
-0.0016738625
-8.433576E-4
0.0028789723
0.012296139
0.025568431
0.034744754
0.026468867
0.01342266
0.0035252608
-0.011186848
-0.020810828
-0.022376783
-0.018599866
-0.0040239072
0.007360233
0.0044841655
-0.004440383
-0.017710363
-0.029690564
-0.03207138
-0.03156173
-0.030577315
-0.02468535
-0.012507503
0.010987593
0.032986864
0.03151421
0.013114887
-0.005977004
-0.013202037
-0.005556179
0.0012858376
0.004646003
0.013861239
0.025334902
0.029512884
0.02785601
0.029162766
0.026912333
0.021292822
0.020915823
0.015260102
0.00325622
-0.009622789
-0.014377573
-0.0031670125
-0.008022685
-0.033692367
-0.04431777
-0.041227177
-0.03302359
-0.02054657
-0.009976695
0.0029948584
0.017295558
0.026276883
0.02245894
0.006510127
-0.005745589
-0.006196672
-0.0017535338
-0.009635308
-0.023773184
-0.01648672
0.0050043534
0.01887407
0.018264513
0.007419168
-1.4312952E-4
-0.0034327568
-7.046033E-4
0.004958163
-0.0025195961
-0.0031650942
0.019158188
0.03305816
0.026703695
0.013376848
-0.007979346
-0.028392268
-0.030831287
-0.0225266
-0.013783955
5.3043466E-5
0.018859653
0.0327832
0.03010162
0.011781309
-0.0053680153
-0.011844259
-0.0126333665
-0.013409071
-0.01179674
-0.003756099
0.005637029
0.0071610445
-0.0012645269
-0.013635038
-0.022658123
-0.024308
-0.022075089
-0.017166035
-0.0032737604
0.010662261
0.02183968
0.041300382
0.044422284
0.012861791
-0.02081189
-0.03171118
-0.02820611
-0.023057763
-0.013442723
0.0028361133
0.017889638
0.03270679
0.04322614
0.03951064
0.027144516
0.020896055
0.023979988
0.015346441
-0.009524333
-0.02411201
-0.018815042
-0.007378123
-0.009198134
-0.023615282
-0.03182946
-0.03356121
-0.031829275
-0.024397843
-0.01632089
-0.008042997
0.005448455
0.021574244
0.019975184
2.1096678E-4
-0.009843447
-0.010486449
-0.009164887
-0.0033612018
-0.0033584102
-0.00218054
0.014772654
0.03516925
0.036592185
0.01796726
-3.621037E-4
-0.00849152
-0.007927244
-0.0032185852
-0.001153399
0.004949204
0.018638523
0.028993139
0.027718669
0.013372286
-0.0041778977
-0.012832678
-0.012860142
-0.009212675
-0.004795976
-4.3374556E-4
0.0077025145
0.019054618
0.017482296
-0.0042662653
-0.029113816
-0.042457644
-0.041523755
-0.031081237
-0.020298878
-0.009294652
0.004208571
0.013154241
0.013091476
0.0049626343
-0.009278882
-0.016821414
-0.012192997
-0.0086485185
-0.0055258144
0.003295575
0.015809644
0.031489603
0.03731961
0.027644407
0.015164773
0.010594056
0.014881105
0.01795331
0.02601597
0.03589485
0.026196958
0.015218068
0.0058161695
-0.022240076
-0.045288835
-0.047896486
-0.038289398
-0.027258758
-0.026626566
-0.02303693
-0.0078686625
0.008270524
0.011018413
-0.0045856303
-0.016170891
-0.018414516
-0.021910038
-0.017253341
-0.004287087
0.007494179
0.015312713
0.02267528
0.026706502
0.01456658
-0.0012463464
-0.0037355288
3.4009467E-4
0.007336983
0.01622329
0.027207432
0.040796693
0.04795101
0.04144267
0.019964084
-0.008738052
-0.03107606
-0.040067237
-0.03767012
-0.03150683
-0.022816356
-0.010412112
1.2548635E-4
0.0053891744
0.0054487665
0.0024509234
-1.6105257E-4
-5.283611E-4
-0.001017845
-0.003413176
0.0025233345
0.019319033
0.029280016
0.020938605
0.0013099127
-0.015300346
-0.022986019
-0.022505876
-0.017759306
-0.016263122
-0.009277302
0.0052666254
0.009394571
0.009174539
0.008740971
-0.0025061006
-0.00959316
-0.010207817
-0.015908899
-0.012256703
0.0032244364
0.017008217
0.028118767
0.034825888
0.028990876
0.006735594
-0.015361645
-0.01807284
-0.011316859
-0.00854734
-0.008563928
-0.004476103
0.010111227
0.022762625
0.018828843
0.003813891
-0.010419593
-0.0143987965
-0.013680502
-0.017219746
-0.015822273
-0.009670768
-0.0067876284
-0.0051933057
-0.011350872
-0.021624679
-0.0174546
-0.0025393174
0.011933014
0.02629404
0.043089285
0.062119994
0.07130809
0.06544262
0.046616822
0.010073502
-0.026703678
-0.04873415
-0.06366697
-0.0622388
-0.041527938
-0.016414499
0.0034800754
0.008071972
0.0010410573
-0.008496975
-0.017717978
-0.02108148
-0.021927759
-0.020112773
-0.011499312
7.712416E-4
0.014501247
0.019155636
0.009056727
-0.004022681
-0.008481053
-0.0042340155
5.809367E-4
0.009685825
0.024687747
0.036436845
0.045628704
0.044885367
0.026491042
0.00260679
-0.011135463
-0.01403778
-0.017438538
-0.016014941
-0.010443606
-0.008430387
0.003594556
0.01275355
0.003580461
-0.009205583
-0.018747017
-0.015743788
-0.004810729
0.0013393319
0.008644122
0.017559115
0.029905247
0.03322455
0.014881923
-0.009515338
-0.032460686
-0.041064046
-0.032339875
-0.026215782
-0.021687636
-0.014876866