0.003620507
0.0044746627
0.002643794
9.085925E-4
0.001007814
-8.5102874E-5
-7.958449E-4
7.157679E-4
0.0023284762
0.003560192
0.0019850763
-4.331249E-4
-0.001070916
-3.128534E-4
0.0013572879
-1.2808014E-4
-0.0011546175
-6.7661825E-4
-0.0015029191
4.6012897E-4
0.0010431407
0.0020732253
-4.146141E-4
-0.01476917
-0.014831559
-3.6363796E-4
5.9620116E-4
-0.0010336634
0.0026293257
0.0042468575
0.0050741117
0.0030072294
0.001520582
0.002329687
0.0016798243
-1.3580007E-4
-0.0020100041
-0.0014831161
-6.607616E-4
7.4479164E-4
0.0033269634
0.002158245
0.0017486907
0.0018999205
-0.0010841694
-0.001496493
-0.0021731202
-0.003332269
-4.035731E-4
8.791869E-4
0.001044273
0.0026768951
8.0193207E-4
-0.0017852919
-5.172659E-4
5.7124847E-4
3.243387E-5
-5.0987775E-4
-0.0011521399
7.488458E-4
0.002900421
0.0012074797
7.281828E-4
0.0013683868
-3.815304E-4
-8.3249994E-4
-1.1551096E-4
-9.396798E-4
-0.0022301027
-0.0023740774
-0.0022035984
-0.0024488806
-9.362697E-4
-1.3215595E-4
-7.0822943E-4
4.3251293E-4
-0.001938521
-0.004930054
-7.258977E-4
0.0022752928
0.0015072585
0.0031768414
0.0032589687
0.0016842205
0.0025488941
0.0019954706
-8.502835E-5
-3.1034884E-4
2.1956924E-4
6.7000376E-4
-1.1562713E-4
-5.8879465E-4
7.9059595E-4
-8.000866E-5
-1.905302E-4
0.0023587947
0.0010965231
-7.9041463E-4
-0.0010197976
-0.0019541043
-2.4541415E-4
4.5508915E-4
-0.001447876
-3.593272E-4
0.00122299
6.954605E-4
-6.9058326E-4
-0.0020181558
-0.0020403275
-8.3638093E-4
3.841576E-4
-5.033032E-4
-9.1399497E-4
3.8292495E-4
-0.0012888832
-0.002308415
2.0856447E-4
4.983694E-4
-0.0019667484
-0.0022317185
9.913015E-4
0.0022512407
0.0014065169
0.0014854212
-7.443612E-4
-9.995706E-4
0.0018261295
6.311701E-4
-4.8973545E-4
0.0010797005
0.0021157796
0.0027610883
0.0019326421
8.223499E-4
0.0013273992
0.0017932658
6.725921E-4
-4.344982E-4
-3.1060106E-4
-9.3752693E-4
-9.4998407E-4
-5.173732E-4
-0.0011080524
-3.9841764E-4
-2.1969258E-4
-4.8158888E-4
-9.0855797E-4
-0.0026258808
-0.0018476862
-0.0018179883
-0.0025664244
-5.8923266E-4
-0.001553245
-0.0017134733
0.0011662574
5.958015E-4
-2.8259974E-4
-6.341821E-5
-1.2279712E-4
5.6989177E-4
9.4708893E-4
0.0022718024
0.003406688
0.0019677216
4.1743793E-4
5.322797E-4
8.421923E-4
7.4190286E-4
0.001084233
5.7558747E-5
-0.0014783441
-6.5558794E-4
4.6242465E-4
3.1273294E-4
-0.0014117003
-0.0020361494
-1.02451646E-4
3.16544E-4
6.327272E-4
1.886091E-4
-0.002126982
-9.384318E-4
4.4186326E-4
2.4658255E-4
0.0011662788
3.250939E-4
-2.0323647E-4
-4.252532E-5
-9.7633334E-4
-3.816443E-4
3.5343684E-5
-4.289707E-4
-4.289524E-4
-5.049214E-4
3.0797924E-5
1.7396259E-4
-6.9341523E-4
-0.001126469
-3.7417404E-4
7.941075E-4
0.0012178796
9.777251E-4
2.0994643E-4
1.9629228E-4
3.4516538E-4
-3.358017E-4
3.908548E-4
-4.0579544E-4
-0.002805276
-7.035417E-4
0.0018950152
6.137271E-4
-3.372754E-4
4.0889546E-4
0.0017702472
0.0025718973
9.4226794E-4
-0.0013165406
-0.0011035384
2.192689E-4
3.2322443E-4
9.5763775E-5
7.9889584E-4
0.0019888924
0.001587831
-6.6580076E-4
-0.002594671
-0.0035881712
-0.0023090942
-1.4384408E-4
-7.214328E-4
-2.7057278E-4
0.0016607589
2.98183E-4
-6.270593E-4
0.0010682202
6.4985413E-4
-0.0019684061
-0.00268488
-9.0735673E-4
6.247958E-4
0.0020689734
0.0028267568
0.0010380176
0.0010494408
0.0026575746
0.001256149
1.3247556E-4
-3.953253E-4
-0.0020364758
-0.0010453364
0.0010827517
9.7649166E-4
-5.3256314E-4
-0.0015190421
-7.20898E-6
8.9490943E-4
-8.013506E-4
-0.0014011504
-0.0013099614
-0.0015492851
-9.4623264E-4
-4.2690182E-4
1.313761E-4
1.00392754E-4
-8.679787E-4
-5.03107E-4
-3.9419676E-5
-6.115724E-4
2.537521E-4
0.0015035669
0.0014767287
0.0016710007
0.0014367414
5.5705826E-4
9.2477066E-4
8.142527E-4
-9.908741E-4
-0.0017055116
-0.0011610555
-9.885228E-4
3.3443913E-4
0.0021040177
0.0010478867
1.5514747E-4
0.0012309675
3.4479366E-4
-9.024596E-5
6.538465E-4
-9.212808E-4
-3.2775343E-4
0.0016677631
1.02662765E-4
-6.2567455E-4
-5.5993947E-5
-0.0011889194
-0.0012678966
3.6252568E-5
1.801396E-5
-6.564991E-4
-1.2218374E-4
5.5425426E-5
-3.6544297E-4
-9.351992E-4
-0.0034798987
-0.0032261224
3.2671075E-4
1.677599E-4
6.357041E-4
0.002371963
3.6077236E-4
1.8329568E-4
7.260856E-4
-2.681491E-4
0.0018161451
0.0019986657
-6.83758E-4
-9.844204E-4
-6.3800975E-4
4.62646E-4
0.0017754878
0.0020264
0.0028254425
0.0016690246
-2.7962154E-4
-5.362467E-4
-0.0018262395
-0.0017013701
-5.1335164E-4
-0.0024297556
-0.002389822
8.6580706E-4
0.0012996828
-3.4887993E-4
-6.689322E-4
-1.5316487E-4
-3.2834965E-4
-5.888103E-4
8.320422E-5
2.4506276E-6
-2.5863684E-4
0.001680652
0.0029447782
0.0011564496
-0.0012797962
-0.0022371332
-6.017928E-4
0.0014337675
7.625952E-4
1.1281437E-4
5.693011E-4
2.8320932E-4
7.8546454E-4
9.405832E-4
2.721694E-4
7.196239E-4
-0.0012877687
-0.0037739226
-0.0015041283
1.3929115E-4
-7.199525E-4
-1.0881522E-4
6.36073E-4
5.995692E-4
3.4434235E-4
-1.9687031E-4
-9.61688E-4
-0.0019375043
-0.0018680549
-0.0011892054
8.867497E-5
0.0019938636
0.0015127836
1.7927091E-4
-3.8635924E-5
-6.927995E-4
-4.0958752E-4
3.4665205E-5
-2.3565223E-4
7.127583E-4
0.0016326362
0.002620783
0.0034045575
0.0016230377
-1.1523788E-4
4.521628E-4
0.001118764
-4.3685627E-4
-0.0024624628
-0.0013731619
-1.5657517E-4
-6.296257E-4
6.380863E-4
0.0014919641
2.4754152E-4
-4.2972446E-4
-7.4310834E-4
-0.0014422018
-0.0019979984
-0.0014618171
-6.2875584E-4
-4.9220293E-4
5.9564854E-4
8.2347234E-4
-2.8212403E-4
5.8162166E-4
0.0010346995
1.0595727E-4
-2.31265E-4
-0.0011621695
-0.0018713695
-0.0010955659
-6.74807E-4
-8.849451E-4
-1.0037268E-4
9.257295E-4
7.526507E-4
-3.920424E-4
-0.0016461457
-8.4063696E-4
0.001733031
0.003044055
0.0025751507
0.0013580403
0.0013311835
9.273806E-4
-0.0018712891
-0.0012817587
0.0020187201
4.8361236E-4
-0.0013402541
0.0010267381
2.5062042E-4
-0.0033269357
-0.0019625537
9.294254E-4
7.552127E-4
-3.4427078E-4
-0.0018300479
-0.0019256575
-8.440022E-5
0.0011888844
0.0014846828
0.001647416
0.002373257
0.0015287151
-2.5194182E-4
-1.5655723E-4
2.5224793E-4
4.657639E-4
-3.4864145E-4
-3.1875054E-4
9.589284E-4
-1.6611714E-4
1.6820744E-4
-7.3398376E-5
-8.808252E-4
7.5717526E-4
-0.00186901
-2.3209729E-4
0.0023255874
-0.0010299103
0.0035769972
-0.0040019155
-0.018365689
-0.00613394
0.0030184367
2.4773882E-4
0.0042580445
0.002371837
0.0013928611
0.003557147
0.001120973
0.0020359342
0.0018395921
0.0010275071
0.0018464524
5.0532704E-5
9.749893E-6
1.0737933E-4
4.3092243E-4
0.0017518407
9.637902E-4
0.0011116463
0.0012308919
0.0011143595
5.3615496E-4
-0.0015864234
-0.0012310613
-7.054851E-4
-2.3009919E-4
5.292612E-4
-0.0012974275
-8.667038E-4
1.2749052E-4
-9.082472E-4
-9.258363E-4
-0.0023631456
-0.001968566
0.0013867773
0.0017147935
9.4660907E-4
3.8647253E-4
-8.920138E-4
-0.0011339979
-0.0014520703
-0.0018251401
-0.001217488
-0.0014216738
-0.0017311482
1.2601254E-4
0.00179309
0.001604935
0.0020272944
0.0027903859
0.0023233085
-4.909915E-4
-0.0051356796
-0.0049924264
-3.733932E-4
7.950366E-4
9.0533664E-4
0.0025326945
0.0017810196
0.0014745606
0.0030661735
0.0024602814
7.603316E-4
-0.0013948181
-0.0035636856
-0.0013537395
0.0015251612
1.4350872E-5
-2.569446E-5
0.0016235762
9.797183E-5
-8.9974527E-4
-5.642618E-4
-4.5986593E-4
9.0828945E-4
0.0011095757
5.509977E-4
9.4005914E-4
-5.9194653E-4
-0.0019293644
1.5074326E-4
0.002051674
6.139013E-4
-0.001638944
-0.002184044
-0.0023366164
-0.0017491395
-1.5752614E-4
-2.860999E-4
-5.6666404E-4
0.0013742644
0.0023470158
-8.061107E-6
-0.003171301
-0.0037031816
-0.0015777829
4.2493385E-4
7.353877E-4
0.001054055
0.0021993937
0.0020578885
0.0011981115
7.251865E-4
-1.08801774E-4
-3.3518687E-4
-6.027709E-4
-6.260992E-4
5.142158E-4
2.3092679E-4
6.858123E-4
0.0028591852
0.0022961188
5.5015064E-4
-2.117396E-4
-4.4816284E-4
-1.3852451E-4
-3.9924355E-4
-4.2362404E-5
3.7085175E-4
-4.014574E-4
-2.8624907E-4
-2.0908134E-4
-7.798541E-4
-0.0011962983
-0.0019095696
-0.0023007023
-0.0020123327
-4.9550144E-4
9.1006217E-4
8.553552E-4
1.8833666E-4
-0.0012830694
-0.0015132183
-8.8303065E-4
-5.546169E-4
0.002018712
0.003194057
0.002009906
0.001960628
8.861838E-4
-3.989406E-4
-4.1991373E-4
-3.042835E-4
-7.37861E-4
-0.0019992806
-0.0010642208
3.6317052E-4
-2.834711E-4
2.0206047E-4
8.7475777E-4
6.7029946E-4
4.0298683E-4
-6.414165E-4
-0.001484633
-0.0015810453
-5.6637644E-5
0.0025984752
0.0031682122
0.0012279127
-3.1677447E-4
-3.0086798E-4
-9.0685533E-4
-8.214864E-4
2.2111578E-4
-1.0765717E-4
0.0012150721
0.0015446658
-0.0013114234
-0.0017766481
-0.001697259
-0.0012556277
-2.1251758E-4
-0.0038139224
-0.006356425
-0.0028729131
0.001220589
0.0023983945
0.0017698274
0.002364135
0.0026290324
0.0012475078
7.068144E-4
-2.2139815E-4
-8.639305E-4
1.9642683E-4
9.926712E-4
0.0024977485
0.004061777
0.0034423375
0.0031562806
0.002835592
-2.9046883E-4
-0.0016380599
4.94645E-4
4.940589E-4
-5.289678E-4
-0.0010972994
-0.0025447956
-0.0013492876
-1.3535742E-4
-0.0024047564
-0.003493016
-0.0021971574
-8.4106134E-5
2.4347425E-4
-0.0014243528
-0.0010084587
-0.002088934
-0.0042066704
-0.001202149
5.1021203E-4
-8.757068E-4
4.893719E-4
0.0014104417
8.803155E-4
0.0012225779
0.0014957486
0.0014990094
7.685477E-4
5.016893E-4
1.3380362E-4
-0.002524729
-0.0036107856
-0.003033332
-0.0031045333
-5.253511E-4
0.002746687
0.0046230746
0.0075575863
0.008859807
0.007305842
0.006309069
0.004790566
-4.9397285E-4
-0.0060186097
-0.006777739
-0.0047170008
-0.0027912818
-0.0017386933
-1.4568194E-4
0.0026439305
0.0030538754
0.0018084624
7.030551E-4
-1.11146604E-4
-2.995244E-4
-0.0044618407
-0.009305921
-0.008660348
-0.005407135
-0.0020387021
-0.00246325
-0.003538217
-8.404419E-4
2.1945918E-4
0.002209928
0.00469323
0.0039079585
0.005034693
0.0066473205
0.0060450872
0.0031026679
1.8896606E-5
4.307214E-4
1.2401235E-4
-0.0017265457
-0.004307401
-0.004801462
5.2588014E-4
0.0038015125
0.0029216295
0.0019751259
0.003590541
0.0035934977
-0.0017767701
-2.7433145E-4
-0.005677183
-0.019011602
-0.008290777
-0.0011043211
-0.0068524336
0.008666799
0.018816283
0.012787644
0.010291933
0.002973146
-0.0032672095
-0.004314205
-0.0054418608
-0.004586483
-0.00515313
-0.0030813226
7.896326E-4
0.001421238
0.0032291191
0.004069812
0.002010725
-7.675394E-4
-0.0027407408
-0.00393842
-0.0063502067
-0.0065033096
-0.0051273806
-0.0049500605
-0.0032622563
-0.00240194
-0.0017402257
0.0028283582
0.0073787007
0.007350891
0.0048088734
0.002406541
-7.150821E-4
-9.956561E-4
0.0032974207
0.005168114
0.0052031474
0.0076854965
0.009795272
0.0089387195
0.0028602015
-0.005012312
-0.0075207436
-0.0076874276
-0.0076188203
-0.0041161953
-5.5135816E-4
7.378913E-5
-0.0023808733
-0.00861766
-0.01360588
-0.010811458
-0.0028890874
0.001494319
0.0020363333
0.002928059
0.0024659135
0.0035070886
0.005554104
0.0020171958
-9.503828E-5
0.0021912246
0.0033194015
0.0064607863
0.008751303
0.00511662
0.0013467736
0.002255152
0.0044034594
0.004109221
0.004546197
0.0034750493
-0.0024802268
-0.00643401
-0.0071645034
-0.0054754894
-0.0019948515
-0.0019457467
-9.4518723E-4
-9.2531356E-4
-0.007870798
-0.011825816
-0.013224635
-0.014974206
-0.00855257
-5.002573E-4
0.0046508946
0.011704116
0.014728114
0.012595394
0.009869681
0.0064183874
0.0023836417
-8.981772E-4
-0.0019546798
-0.0026759687
-0.0014551197
4.2029025E-4
-0.0038251865
-0.0034777084
0.003922899
0.004494855
0.0044154995
0.0064578033
0.0018610491
-0.0026769808
0.0011321915
0.0063941623
0.0011194748
-0.008095241
-0.010111471
-0.011046388
-0.01085915
-0.008225631
-0.0071818735
-0.0032705553
0.0011413448
0.0027380502
0.0052482923
0.0073805545
0.0069332835
0.0023277767
-0.0014210931
0.0016572977
0.0028350349
-0.0027904827
-0.006210034
-0.0017442723
0.0057835123
0.008128146
0.005493109
0.002843918
-0.001687561
-0.0060319067
-0.002485063
0.0043279575
0.007704236
0.0074889185
0.0022657176
-0.0020434505
-0.002438608
-0.0028127334
7.682176E-4
0.0030627504
-0.004630989
-0.013076987
-0.013719747
-0.010294535
-0.0073445085
-0.0037934424
-0.0010735424
-0.0019036889
-0.0037452255
-0.008533402
-0.012878818
-0.009551679
-0.005471754
-0.0030394096
0.0010325701
0.001267543
-0.002101158
-4.3053317E-4
0.0068262117
0.011455389
0.012532923
0.01218313
0.010780157
0.012204558
0.008136798
-0.007659722
-0.020016683
-0.018800113
-0.010246073
-0.005233563
-0.0059435777
-0.0067140097
-0.0049321293
-9.839076E-4
4.7793478E-4
0.003287771
0.011962635
0.016695311
0.021037051
0.029667344
0.032550834
0.02998886
0.027824413
0.02600052
0.020015793
0.0109883975
0.0027052718
-0.005974634
-0.009126155
-0.014237579
-0.02870622
-0.0353488
-0.03445746
-0.028403947
-0.009308658
0.008600955
0.014614198
0.012443046
0.011925633
0.020128775
0.02838131
0.02871569
0.01634693
6.458466E-4
-0.004390605
-0.007815115
-0.0108887525
-0.009485287
-0.009762523
-0.01464761
-0.03105732
-0.050111096
-0.05858914
-0.06559112
-0.069342084
-0.064831845
-0.059514023
-0.05362351
-0.045218337
-0.032036457
-0.00986444
0.01273598
0.019369908
0.019751422
0.039025392
0.07337927
0.11379632
0.15703988
0.17947373
0.15562692
0.074087806
-0.0228672
-0.052404795
-0.008553925
0.0617311
0.13537292
0.16624476
0.11343518
0.017726447
-0.051966432
-0.0962515
-0.14891542
-0.1882838
-0.21377026
-0.25034752
-0.23963346
-0.15842633
-0.054727294
0.069462426
0.17050494
0.19023877
0.17995726
0.17427695
0.12703279
0.029602597
-0.05289899
-0.09809146
-0.16906913
-0.23096201
-0.17112899
-0.028520975
0.09336834
0.15355888
0.14678271
0.12927528
0.11706471
0.06255396
-0.019293863
-0.08885553
-0.12984863
-0.18696795
-0.2576117
-0.19392276
-0.0303886
0.07013426
0.1310097
0.16393493
0.1548169
0.12790826
0.076186664
0.06480767
0.079058215
0.04831982
0.023367412
0.0010512406
-0.021191167
-0.025794404
-0.053373
-0.057217687
-0.008753129
0.06297325
0.13552108
0.12873797
0.03678896
-0.07411716
-0.15398835
-0.16739087
-0.15463845
-0.1061994
0.012256944
0.100184314
0.0935858
0.02562769
-0.061289236
-0.09424155
-0.055915263
-0.011951316
0.0072047166
-0.0034491606
-0.049616765
-0.08100025
-0.063487045
-0.035178125
0.0012737811
0.057362802
0.08462224
0.07723133
0.06934171
0.030480945
-0.028385324
-0.027323674
0.012588411
0.03187059
0.037825886
0.03608415
0.038895413
0.04436947
0.027976355
0.0052420236
-0.01022331
-0.013982516
-0.011702657
-0.014569444
0.0015693782
0.016000643
9.753067E-4
-0.009680721
-0.015919397
-0.02515572
-0.02622621
-0.024501733
-0.01422723
-0.0048531336
-0.007300196
-0.006485496
-6.025176E-4
0.0045211716
0.0055767493
0.004069218
0.005875791
0.0039096302
-0.0041141678
-0.0076886523
-0.005494866
-0.0025720384
0.00214703
0.004270057
-4.584095E-4
-0.0014309587
0.0041560065
0.010149506
0.013035232
0.010676428
0.008318693
0.005878922
0.003433859
0.004089309
0.001608278
-7.423912E-4
-3.5812444E-4
-0.0033799983
-0.007185567
-0.008975162
-0.007979908
-0.005128055
-0.0014956977
0.002207104
0.0019158574
0.0030460302
0.0065481686
0.0056776754
0.0045939493
0.002996209
-8.872559E-4
-0.0027257605
-0.0024448433
-7.673424E-4
4.4610095E-4
-7.451363E-4
-0.006092695
-0.011201122
-0.009476253
-0.008595504
-0.0091002565
-0.006695014
-0.004002478
0.0045584524
0.010814572
0.0076577812
0.007229445
0.0055205673
-5.519611E-4
-0.0029461375
-6.439343E-4
0.005445568
0.0038168903
-0.0057256967
-0.0046279533
0.005322486
0.012479774
0.014996607
0.017444013
0.024795234
0.028152762
0.018888699
0.0036693932
-0.008957593
-0.018646555
-0.027448565
-0.02879737
-0.020514233
-0.011833323
-0.0074739675
-0.0070396764
-0.0062184082
-0.0027870326
2.8294258E-4
0.0050107515
0.010199832
0.013714608
0.015719816
0.010149819
-1.3452624E-4
-0.0066376445
-0.0077849375
-0.005032709
-0.0023176998
0.0019867506
0.00458358
0.0030055183
0.007850217
0.0071452744
-0.006817093
-0.008219056
0.0030255916
0.007237018
0.004693555
-6.338295E-4
-0.0067164386
-0.009174566
-0.005744341
-0.0031991892
-0.005942117
-0.004790628
-9.16631E-4
-3.114535E-4
0.0017246761
0.003715622
0.0040553976
0.0049826414
0.005827849
0.0064249984
0.0037834758
-1.0417028E-4
-0.001849082
-0.0040346226
-0.0033038312
-0.0015742426
-0.0037285332
-0.0028009382
3.3108774E-4
1.6067634E-4
1.2256199E-4
1.271324E-5
-0.0014181995
-0.0017434849
7.812444E-5
0.0030535017
0.0048436024
0.006287038
0.007075111
0.004611437
0.0013242626
-0.0015547078
-0.0039397813
-0.004587187
-0.0048894924
-0.0042396407
-0.0028214538
-0.0014233752
0.0011458325
0.0021653227
5.956077E-4
-0.0020469911
-0.0048409277
-0.0046017063
-0.001576794
4.614478E-4
3.813811E-4
7.2412734E-4
0.001768736
9.778714E-4
5.810342E-4
1.9667842E-4
-0.0017792548
-0.0016556724
-7.8133715E-4
-2.7357298E-4
3.114583E-4
5.3374024E-6
0.0019262374
0.0029765754
8.0060126E-4
-5.422711E-4
-0.0024916355
-0.0032478615
-9.3282014E-4
3.6490098E-6
5.811894E-5
0.0014758329
0.0025853526
0.0012952145
-3.7605918E-4
-3.4914387E-4
-4.919721E-4
-4.0014007E-4
-4.7197237E-4
-0.001170638
4.1265335E-4
0.0030340771
0.0042422684
0.0037113577
0.0017479667
-1.8895193E-4
-0.0014609781
-0.0016406057
-0.0014258596
-0.0011951303
-0.0012895563
-0.0021956153
-8.5671124E-4
7.369816E-4
-4.506955E-4
-0.0012901863
-0.0012002765
4.857541E-4
0.0010392326
-0.0012509816
1.4511516E-4
0.0019448297
8.8110723E-4
5.45818E-4
-0.0021930868
-0.004285817
-0.0029327422
-0.0019825553
-1.0781068E-4
6.8768725E-4
3.4976559E-4
0.0016796002
0.00172907
0.0021382398
0.0020389115
-8.737226E-4
-7.5877697E-4
4.523578E-4
-0.0010081443
-0.001118765
-9.256973E-4
-0.0011525683
0.0014324527
0.00399504
0.0027737876
1.7460779E-4
-0.0013343852
-0.0024949382
-0.0027779343
-0.0015988977
6.828979E-4
0.0030577427
0.0022970715
0.0010428489
0.001921766
2.9434077E-5
-0.0015212287
-5.9714464E-5
-6.547469E-4
-0.0011188345
-3.2412494E-4
-3.1006685E-4
6.6234375E-4
0.0015839529
0.0012035405
-0.0010873196
-0.003578205
-0.001879716
0.0010781978
0.0017727414
0.0016455933
0.001942813
0.0028370277
0.0016656651
2.6554326E-4
0.0014919437
6.564896E-4
-0.0015774146
-0.0022752387
-0.004032846
-0.00441077
-8.493387E-4
0.0017747829
8.425571E-4
1.7565131E-4
6.5055036E-4
-5.7108846E-4
-0.0016241957
-0.0013631224
-7.41902E-4
8.9865393E-4
9.977055E-4
3.7305773E-4
0.001312293
6.050442E-4
-2.1255573E-5
9.4837806E-4
7.033905E-4
1.7170413E-4
1.8553664E-4
6.701612E-4
4.042724E-4
4.2326478E-4
0.001661065
1.2894858E-4
1.0573609E-4
7.518945E-4
-0.0017405231
0.0010705304
4.909574E-4
-0.0023704679
0.0045642634
-0.0029275096
-0.016681362
-0.006192324
0.0031953105
-1.1731792E-4
-2.1549463E-4
-3.2240784E-4
9.094816E-4
0.0031437515
0.0027096611
0.00245787
0.0018569883
0.002296318
9.779899E-4
-0.0018950991
-5.49909E-4
7.238235E-4
0.0012132655
0.0015222098
-5.030546E-4
4.0466152E-4
0.0035077026
0.003999931
0.0019121494
-7.9960615E-4
-0.0015738865
-0.0025765311
-0.0037738208
-0.002461997
-6.794622E-4
6.571847E-4
9.866507E-4
4.3989383E-4
5.4049656E-6
-0.0011593286
-0.0010708185
-8.067632E-4
-0.0023209138
-0.0018079648
-5.3939765E-4
-6.7832886E-4
2.8954694E-4
9.3301863E-4
5.8779813E-4
0.0010597731
0.001468781
8.173974E-4
-0.001216115
-0.0019153829
4.4457303E-4
0.0014617798
0.001100134
0.0019300678
0.0014398625
-0.0013510811
-0.0044804555
-0.0034958408
0.0014714202
0.0026253692
8.9875964E-4
6.941588E-4
0.0012411138
0.0029001804
8.776455E-4
-0.003712755
-0.0024147024
3.5268731E-6
-1.0110385E-4
1.5357803E-4
-0.0017079297
-0.002279656
2.4750453E-4
6.731693E-4
9.394971E-4
0.0019334613
0.0014084328
7.2092004E-4
2.7247728E-4
4.9340725E-4
8.636042E-4
0.0012091576
0.0017933211
8.82921E-5
-0.0014287571
-5.4696185E-4
2.4626532E-4
7.4962754E-4
-6.6100986E-4
-0.0020630038
-0.0010729077
-0.0011002563
-4.8604496E-5
0.0010494288
-7.2483195E-4
-5.014366E-4
-4.4092635E-4
-0.0012022447
8.043546E-4
2.074043E-4
-0.0015626162
-8.210856E-5
3.6384168E-4
-2.4042728E-4
3.507053E-4
9.1656536E-4
3.9037436E-4
-7.699696E-5
9.634826E-4
0.0010595242
1.068559E-4
1.9462619E-4
7.210057E-5
2.2321369E-4
6.880518E-4
5.7035842E-5
-3.8258667E-4
-4.1859443E-4
-8.85109E-4
-0.001301069
-7.7071675E-4
5.3300423E-4
0.0010596813
0.0011500539
6.275371E-4
-0.0015486536
-0.001974255
-3.8682128E-4
-3.6056677E-4
1.2407318E-4
7.0837134E-4
-9.982608E-4
-7.1521744E-4
7.001637E-4
-4.955638E-4
-8.7345677E-4
-8.116327E-5
7.582425E-4
0.0011239713
-7.6578825E-4
8.058456E-5
0.002422399
3.105927E-4
-6.0559827E-4
-1.547452E-4
-7.474411E-4
0.0013300845
0.0019783196
6.77831E-4
9.4864477E-4
8.2313654E-4
6.2559365E-4
-6.532953E-4
-0.0015888232
-3.7648232E-4
-9.19884E-4
-9.194902E-4
-3.105971E-5
-6.409845E-4
-3.103662E-5
5.0725073E-5
1.7427128E-5
0.0010286238
8.8137836E-4
0.0010575042
1.1268241E-4
-9.739277E-4
-5.0891854E-4
-0.0010237172
2.813881E-4
0.001296779
1.4506665E-4
3.936857E-4
-0.0020260136
-0.004006986
-0.0011001579
-5.18779E-4
-9.768594E-4
0.0010762162
7.3228084E-4
-0.0012610287
5.445068E-5
0.002456794
0.0017320125
5.4705545E-4
4.4466511E-4
-5.5569975E-4
-9.995084E-4
-3.4407314E-4
6.304651E-4
0.0010429734
4.725406E-4
0.0013937136
0.0015404992
-0.0012435132
-0.0013326613
5.014123E-4
-4.200062E-4
-7.2025514E-4
3.2140987E-4
6.918936E-4
0.0019460703
0.001542449
-8.981979E-4
-7.588757E-4
4.59447E-4
-5.570093E-4
-0.0019889704
-4.7461793E-4
0.0015471029
7.680587E-4
2.8676953E-4
-1.2086802E-4
2.85743E-4
0.0026107833
0.0013672337
4.629484E-5
8.407126E-4
-6.683167E-4
-0.0015833562
-0.0022977416
-0.001779919
0.0010961756
0.0011854353
6.4291165E-4
-3.7304068E-4
-0.0021414973
-0.0013749221
-4.859583E-4
0.0013572822
0.0019421945
-7.9171296E-4
-0.001353256
-8.551231E-4
-5.322323E-4
-9.1346924E-4
-0.0019278325
5.486868E-5
4.917007E-4
-8.4001565E-4
5.28988E-4
0.0017327633
0.0016439606
5.2856415E-4
1.6679696E-4
4.8363203E-4
-3.861568E-4
3.326283E-4
4.5820046E-4
2.2481874E-4
0.0023085158
0.0013435119
-2.3699306E-4
0.0012975762
8.015613E-4
-0.0014271772
-0.0016620604
-1.5486173E-4
1.5344545E-4
-5.8701355E-4
6.482695E-4
0.0016300995
8.110046E-4
5.1435427E-4
6.100785E-4
2.900204E-4
-9.749441E-4
-0.0020358071
-9.0717274E-4
5.2820233E-5
5.8930353E-5
9.757614E-4
5.2372867E-4
-4.8056274E-4
2.1622531E-4
-0.0013258206
-0.0029852863
-0.0013636975
-0.0014243022
-0.0013524307
9.564441E-4
2.8848718E-4
-6.4779475E-4
6.2174746E-4
2.485532E-4
1.7225384E-4
9.761311E-4
-7.0462306E-4
-0.0014114449
4.087836E-4
1.810892E-4
-2.870256E-4
0.001171082
0.0011641465
6.2907406E-4
7.253055E-4
-1.1389128E-4
-2.3988509E-4
7.1996154E-4
0.0013688633
0.0016876624
0.0012853518
3.4820323E-4
-1.03507526E-4
2.1083142E-4
1.4013222E-4
-7.328075E-4
-9.226765E-4
-4.0353436E-4
9.529926E-5
4.912854E-4
3.620435E-4
2.011833E-4
3.7564474E-4
1.7097402E-4
5.6075875E-4
0.0016403397
-4.923112E-4
-0.004091667
-0.0021767907
0.0019764297
0.0019278704
-8.233869E-4
-0.003203884
-0.002323848
1.1542824E-5
-2.2803288E-4
-1.0733137E-4
9.778299E-4
6.5917283E-4
9.807527E-5
-6.533635E-4
-7.466767E-4
2.2278137E-4
1.3237087E-4
4.9236645E-5
4.9701356E-4
-3.4458484E-4
-9.1308967E-4
2.8247313E-4
9.558809E-4
8.6933206E-4
0.0014217893
0.0011176507
3.490607E-4
3.314531E-4
5.929844E-4
0.0015118622
6.4280763E-4
-0.0015645177
-0.0010255261
3.5214814E-4
0.0012029574
0.001390378
3.6866637E-4
8.6089555E-4
2.085296E-4
-0.0023394935
-0.0011871747
8.3748496E-4
9.991E-4
0.0014306329
3.7110248E-4
-4.719275E-4
1.0871082E-4
-0.0010071704
-0.0013686466
-2.0822337E-4
-3.2327021E-4
-1.7646393E-4
5.469579E-5
6.649322E-5
0.0015092161
0.0010849485
-0.002360848
-0.0037553667
-0.0014102831
8.352824E-5
-0.0013297572
-0.0010421653
9.1699336E-4
0.0010924982
0.001578948
0.0011976571
-4.3895777E-4
8.493184E-4
0.0011714926
-0.0011150537
-7.397158E-4
3.2953403E-4
-1.1170276E-4
7.6753284E-5
9.7158976E-4
0.0022434846
0.0021868248
5.923446E-4
8.459709E-5
-3.1966605E-4
-7.3661946E-4
1.4749581E-4
5.8912206E-5
-1.3974503E-4
8.7133166E-4
2.6184798E-4
-9.318681E-4
-7.5497647E-4
-7.136486E-4
-7.191697E-4
1.21304794E-4
5.094144E-4
-8.1328634E-4
-7.14894E-4
0.002163865
0.0026061342
3.8735312E-4
-0.0014272663
-0.002907796
-0.0021780792
-8.731968E-4
-0.0015399198
-5.294602E-4
0.0020942278
0.0020869148
2.1898953E-5
5.733097E-5
0.0013345362
4.8344876E-4
7.789757E-4
0.0018699752
-4.247941E-4
-0.0019336119
-6.813255E-4
6.2574385E-5
9.766091E-4
0.0013814757
1.872544E-4
-8.815989E-4
-0.0014389404
-9.2942413E-4
-1.9924024E-4
-2.3084073E-4
0.001158379
0.0025216113
0.001895587
0.0012897754
2.5146376E-4
-0.0013451123
-0.0017605515
-0.0013558781
-0.0018306831
-0.003410318
-0.002255553
5.6368357E-4
-5.909742E-4
-0.00306848
-0.002761853
-0.0018432444
-0.0025073334
-0.0020688674
1.3168457E-4
1.3507126E-4
4.8279724E-4
0.0028139274
0.0037403794
0.0038916317
0.0028811395
0.0020505667
0.0024969792
0.0024978428
0.002677879
0.0017795996
0.0025338759
0.004302629
0.0032832914
0.0025882125
-4.708099E-4
-0.0020417147
2.1689106E-4
-2.9495693E-4
0.0015574186
0.0020788051
0.0027499208
0.003676533
-0.009016366
-0.01166436
-0.0026868244
-0.009145005
-0.011915298
-0.009902445
-0.011047026
-0.0014753402
0.005380426
0.0059905876
0.0075848103
0.0055390885
0.0031128917
0.0011425145
0.0015465661
0.0023531266
0.002455502
0.0017557597
-0.0075916634
-0.007845588
0.004430884
0.0054688635
0.0034118306
0.004344863
0.0029260956
0.0025841312
-7.979965E-4
-0.0020123476
0.0014142529
0.0023837653
0.0034620387
0.0028061462
-9.145911E-4
-0.0029107574
-0.0024672258
-0.0016205336
-0.0020428482
-0.0013471929
2.764156E-4
0.0015183173
0.003311206
0.0028883165
0.0013969628
6.52431E-4
-0.0010593781
-0.002265365
-0.0025515275
-0.0023015924
-0.0015705829
-8.6496613E-4
-8.805019E-4
-0.00289567
-0.003538187
-0.00211781
-0.0025585962
-0.002758679
-0.0011046374
0.0010001867
0.0026133654
0.0021626668
0.0014602942
0.0016153668
7.310961E-4
-6.2975264E-4
-9.559329E-4
-2.4321523E-4
-1.14193565E-4
9.73672E-5
0.001800335
0.0010442474
-2.5777376E-4
0.0014532582
9.9715E-4
-1.4949121E-4
9.088198E-4
7.337578E-4
9.934488E-4
0.0016110054
7.022184E-4
3.2820998E-4
5.4844347E-4
0.0013664487
0.0015544131
7.0688495E-4
6.9263263E-4
-2.3298875E-4
-0.0011124214
-0.0015317161
-0.0031218345
-0.0017156663
0.0017069317
0.002118482
6.9136854E-4
-2.5531126E-4
-1.866981E-4
-0.0010485732
-0.0021567466
-5.340265E-4
6.50461E-4
-1.2381871E-4
-5.7827396E-4
-9.3520066E-4
-9.397369E-4
-0.0010577932
-0.0014166004
-1.7657233E-4
0.0016080879
0.0018702777
0.0011920208
9.7651116E-4
0.0010654042
7.308988E-4
1.4837093E-4
-6.5025286E-4
-0.0012313221
-0.0013748627
-0.0014996551
-0.0013260974
-0.0011399271
-7.221445E-4
6.324819E-4
0.0019025689
0.0015325892
-7.117241E-4
-0.0016693027
9.434781E-5
9.5422816E-4
3.8351555E-4
8.546886E-6