0.19472907
2.2879403
3.968753
5.139121
6.3246403
6.62338
6.8805614
6.6593757
6.014194
5.487264
4.4882274
3.772195
3.046231
2.3630478
2.1310236
1.8066437
1.906677
2.094617
2.2953486
2.7574632
2.9545338
3.2236602
3.2331939
2.9472756
2.8102264
2.4809475
2.0814104
1.450494
0.660812
-0.056896824
-0.8948008
-1.5423746
-2.0904014
-2.5108566
-2.643167
-2.6989408
-2.5004885
-2.1875038
-1.8131683
-1.3099529
-0.8640555
-0.37917912
-0.017931333
-0.02300581
-0.17506976
-0.26150483
-0.28383917
-0.25254628
-0.17172728
-0.06966518
0.03129139
0.12366289
0.21083054
0.29697615
0.38121787
0.46705747
0.55259436
0.6374246
0.72146904
0.80115813
0.87717617
0.9467534
1.0091954
1.0649245
1.1121988
1.1531788
1.1875349
1.2166111
1.242537
1.2653927
1.2879331
1.3103858
1.3336918
1.3588804
1.3849125
1.4125571
1.4403999
1.4675899
1.4935042
1.5161431
1.5353484
1.5497473
1.558847
1.562873
1.5613573
1.5552083
1.5445915
1.5303633
1.5150597
1.499909
1.48491
1.470061
1.4553603
1.4408066
1.4263986
1.4121346
1.3980132
1.3840331
1.3701928
1.3564909
1.342926
1.3294967
1.3162018
1.3030398
1.2900094
1.2771093
1.2643381
1.2516948
1.2391778
1.226786
1.2145182
1.202373
1.1903493
1.1784458
1.1666614
1.1549947
1.1434448
1.1320103
1.1206902
1.1094834
1.0983886
1.0874046
1.0765306
1.0657653
1.0551076
1.0445565
1.0341109
1.0237699
1.0135322
1.0033969
0.99336284
0.9834292
0.9735949
0.96385896
0.95422035
0.9446781
0.9352313
0.925879
0.9166202
0.907454
0.89837945
0.88939565
0.8805017
0.87169665
0.8629797
0.8543499
0.8458064
0.83734834
0.82897484
0.8206851
0.81247824
0.8043535
0.79630995
0.7883468
0.78046334
0.7726587
0.7649321
0.7572828
0.74970996
0.7422129
0.73479074
0.72744286
0.7201684
0.71296674
0.7058371
0.6987787
0.6917909
0.684873
0.67802423
0.67124397
0.6645315
0.6578862
0.65130734
0.6447943
0.6383463
0.6319629
0.62564325
0.6193868
0.6131929
0.607061
0.6009904
0.5949805
0.5890306
0.5831404
0.577309
0.57153594
0.5658206
0.5601624
0.5545608
0.54901516
0.543525
0.53808975
0.5327089
0.5273818
0.52210796
0.51688683
0.5117179
0.50660074
0.5015347
0.49651936
0.49155417
0.48663858
0.4817722
0.4769545
0.47218493
0.46746305
0.46278837
0.45816043
0.45357886
0.44904307
0.4445527
0.44010714
0.43570605
0.43134895
0.42703548
0.42276517
0.41853753
0.4143522
0.41020873
0.40610662
0.40204552
0.39802507
0.3940448
0.39010432
0.38620332
0.3823413
0.3785179
0.37473276
0.37098542
0.3672755
0.3636028
0.35996678
0.35636714
0.3528035
0.3492755
0.3457828
0.342325
0.3389018
0.3355128
0.33215764
0.3288361
0.32554772
0.32229224
0.3190693
0.31587866
0.31271985
0.30959263
0.30649665
0.30343166
0.3003973
0.29739335
0.29441944
0.2914752
0.28856042
0.28567484
0.2828181
0.27998987
0.27719
0.27441815
0.27167395
0.26895717
0.26626757
0.2636049
0.26096883
0.2583591
0.25577548
0.25321773
0.2506856
0.24817875
0.24569693
0.24323991
0.24080756
0.23839954
0.23601559
0.23365548
0.23131898
0.22900584
0.22671583
0.22444871
0.22220424
0.21998218
0.21778241
0.21560457
0.21344855
0.21131411
0.20920101
0.207109
0.20503786
0.20298746
0.20095757
0.19894794
0.19695845
0.19498888
0.19303897
0.19110861
0.18919757
0.1873056
0.18543258
0.18357828
0.18174246
0.179925
0.17812577
0.17634454
0.17458108
0.17283526
0.17110696
0.16939595
0.16770199
0.16602495
0.16436473
0.16272107
0.16109386
0.15948287
0.15788808
0.15630916
0.15474609
0.15319863
0.15166667
0.15014997
0.14864853
0.14716199
0.14569035
0.1442335
0.14279118
0.1413633
0.13994971
0.13855019
0.13716474
0.13579312
0.1344352
0.13309088
0.13176003
0.13044241
0.12913802
0.12784663
0.12656811
0.12530246
0.124049455
0.12280896
0.12158087
0.12036505
0.1191614
0.11796978
0.116790086
0.11562219
0.11446598
0.113321334
0.11218813
0.11106625
0.10995558
0.10885599
0.10776737
0.10668972
0.1056228
0.104566604
0.1035209
0.10248569
0.101460844
0.100446254
0.0994418
0.09844735
0.09746292
0.09648827
0.09552339
0.09456816
0.093622476
0.092686206
0.091759354
0.0908418
0.089933425
0.08903411
0.088143736
0.0872623
0.08638969
0.08552578
0.08467057
0.08382383
0.08298555
0.082155734
0.081334144
0.08052078
0.07971552
0.07891837
0.0781292
0.077347904
0.076574475
0.075808674
0.07505062
0.07430008
0.07355705
0.07282153
0.07209328
0.0713723
0.070658594
0.06995204
0.06925252
0.068560034
0.06787446
0.06719568
0.0665237
0.06585851
0.06519988
0.064547926
0.06390241
0.06326333
0.06263068
0.062004358
0.06138435
0.06077054
0.060162812
0.059561163
0.058965594
0.058375984
0.057792217
0.05721429
0.056642205
0.05607584
0.05551508
0.054959923
0.05441037
0.053866297
0.05332759
0.052794367
0.05226639
0.051743776
0.051226288
0.050714046
0.05020693
0.04970482
0.049207717
0.04871562
0.048228413
0.047746092
0.04726866
0.046795994
0.04632798
0.04586473
0.045406133
0.044952065
0.044502527
0.04405752
0.04361692
0.043180734
0.042748958
0.042321473
0.04189828
0.04147926
0.04106441
0.040653735
0.04024723
0.03984478
0.039446384
0.03905192
0.03866139
0.038274795
0.037892014
0.037513047
0.037137896
0.03676656
0.036398917
0.03603497
0.0356746
0.03531781
0.03496459
0.03461495
0.034268767
0.03392604
0.03358677
0.033250958
0.032918483
0.032589346
0.032263428
0.031940848
0.031621486
0.031305224
0.030992178
0.030682234
0.03037539
0.030071644
0.02977088
0.029473213
0.029178528
0.028886704
0.02859786
0.028311877
0.028028755
0.027748493
0.027470974
0.027196316
0.0269244
0.026655106
0.026388554
0.026124625
0.025863437
0.025604753
0.025348691
0.025095252
0.024844317
0.024595885
0.024349956
0.024106411
0.02386537
0.023626713
0.02339044
0.023156552
0.022924928
0.022695689
0.022468714
0.022244005
0.02202156
0.02180138
0.021583347
0.021367459
0.021153836
0.02094224
0.020732788
0.020525483
0.020320205
0.020116953
0.019915728
0.01971653
0.019519357
0.019324211
0.019130973
0.018939642
0.018750219
0.018562702
0.018377094
0.018193273
0.01801136
0.017831234
0.017652897
0.017476348
0.017301587
0.017128615
0.016957311
0.016787795
0.016619949
0.01645377
0.016289262
0.016126422
0.015965132
0.01580551
0.01564744
0.0154909175
0.015336065
0.0151827615
0.015030889
0.014880566
0.014731793
0.01458445
0.014438657
0.014294295
0.014151363
0.014009861
0.01386979
0.01373115
0.013593821
0.013457922
0.013323335
0.013190059
0.0130582135
0.012927679
0.0127984565
0.012670426
0.012543706
0.012418298
0.012294082
0.012171177
0.0120494645
0.011928944
0.011809615
0.011691479
0.011574535
0.0114587825
0.011344222
0.011230735
0.01111844
0.011007218
0.0108971875
0.01078823
0.010680346
0.010573534
0.010467796
0.01036313
0.010259537
0.010156898
0.0100553315
0.009954719
0.009855179
0.009756593
0.00965908
0.00956252
0.009466914
0.009372262
0.009278564
0.009185819
0.009093909
0.009002952
0.008912949
0.00882378
0.0087355655
0.008648185
0.008561758
0.008476166
0.008391408
0.008307485
0.008224396
0.008142142
0.008060722
0.007980136
0.007900385
0.007821349
0.007743148
0.007665662
0.0075890105
0.007513074
0.0074379724
0.0073635858
0.0072899144
0.0072169583
0.0071448367
0.0070734303
0.0070027392
0.0069327634
0.0068633836
0.006794719
0.0067267697
0.0066595357
0.0065928977
0.006526975
0.0064616483
0.006397037
0.0063330214
0.0062697213
0.006207017
0.006144909
0.0060835164
0.0060227197
0.005962519
0.0059029143
0.0058439057
0.005785493
0.0057276767
0.005670456
0.0056137126
0.005557565
0.0055020135
0.005446939
0.00539246
0.0053385776
0.005285172
0.005232362
0.005180029
0.005128173
0.005076913
0.00502613
0.0049758237
0.0049261134
0.00487688
0.0048281234
0.0047798436
0.0047320407
0.0046847146
0.0046378653
0.004591493
0.0045455974
0.0045001786
0.0044551175
0.0044105332
0.004366426
0.004322795
0.004279522
0.004236726
0.004194407
0.004152445
0.0041109603
0.004069833
0.0040291827
0.00398889
0.003948955
0.0039094966
0.003870396
0.003831653
0.0037933867
0.0037554782
0.0037179273
0.003680734
0.0036438983
0.0036074203
0.0035712998
0.003535537
0.003500132
0.0034650844
0.0034303945
0.0033960622
0.0033620875
0.0033284705
0.0032952111
0.0032623094
0.003229646
0.0031973403
0.0031653922
0.0031336825
0.0031023305
0.003071336
0.00304058
0.0030101817
0.0029800218
0.0029502194
0.0029207747
0.0028915685
0.0028626006
0.0028339904
0.0028056186
0.0027776044
0.0027498286
0.0027222913
0.0026951116
0.0026681703
0.0026414674
0.002615003
0.002588896
0.0025630277
0.0025373977
0.002512006
0.002486853
0.0024619382
0.0024372619
0.0024129432
0.002388863
0.002365021
0.0023414176
0.0023180526
0.002294926
0.0022719186
0.0022491496
0.002226619
0.002204327
0.0021822732
0.002160458
0.002138881
0.0021175425
0.0020963233
0.0020753425
0.0020546
0.002034096
0.0020137113
0.001993565
0.001973657
0.0019538682
0.001934318
0.0019150061
0.0018958134
0.0018768591
0.0018581433
0.0018395466
0.0018211884
0.0018029494
0.0017849487
0.0017670674
0.0017494244
0.0017319006
0.0017146153
0.0016974491
0.0016805214
0.0016637129
0.0016470236
0.0016305727
0.001614241
0.0015981478
0.0015821737
0.0015663189
0.0015507025
0.0015352053
0.0015198273
0.0015046877
0.0014896673
0.0014747662
0.0014599842
0.0014454407
0.0014310164
0.0014167113
0.0014025253
0.0013884587
0.0013746304
0.0013609213
0.0013473314
0.0013338608
0.0013205094
0.0013072771
0.0012941641
0.0012811703
0.0012684149
0.0012557787
0.0012432617
0.001230864
0.0012185854
0.0012064261
0.0011943859
0.001182465
0.0011706633
0.0011589808
0.0011474175
0.0011359734
0.0011246485
0.0011134428
0.0011023564
0.0010913891
0.0010804218
0.0010695738
0.001058845
0.0010482353
0.0010377449
0.0010273737
0.0010171217
0.0010069889
9.969753E-4
9.869618E-4
9.770674E-4
9.672922E-4
9.576362E-4
9.480995E-4
9.3856273E-4
9.291452E-4
9.198469E-4
9.1066776E-4
9.0160785E-4
8.9254795E-4
8.8360725E-4
8.7478576E-4
8.660835E-4
8.573812E-4
8.4879814E-4
8.403343E-4
8.3198963E-4
8.23645E-4
8.1541954E-4
8.073133E-4
7.992071E-4
7.9122005E-4
7.8335224E-4
7.754844E-4
7.677358E-4
7.601064E-4
7.5247703E-4
7.4496685E-4
7.375759E-4
7.301849E-4
7.2291313E-4
7.1564136E-4
7.084888E-4
7.0145546E-4
6.944221E-4
6.8750797E-4
6.8059383E-4
6.737989E-4
6.67004E-4
6.6032825E-4
6.5377174E-4
6.4721523E-4
6.4077793E-4
6.343406E-4
6.2802254E-4
6.2170444E-4
6.1550556E-4
6.093067E-4
6.03227E-4
5.9714733E-4
5.9118686E-4
5.852264E-4
5.7938515E-4
5.735439E-4
5.6782184E-4
5.620998E-4
5.5649696E-4
5.508941E-4
5.454105E-4
5.3992687E-4
5.3456245E-4
5.2919803E-4
5.239528E-4
5.187076E-4
5.134624E-4
5.083364E-4
5.032104E-4
4.982036E-4
4.931968E-4
4.8830925E-4
4.834217E-4
4.7853412E-4
4.7376574E-4
4.6899737E-4
4.643482E-4
4.5969905E-4
4.5504989E-4
4.5051993E-4
4.4598998E-4
4.4157924E-4
4.371685E-4
4.3275775E-4
4.284662E-4
4.2417468E-4
4.1988314E-4
4.1571082E-4
4.115385E-4
4.0736617E-4
4.0331305E-4
3.9925994E-4
3.9532603E-4
3.9139212E-4
3.8745822E-4
3.835243E-4
3.797096E-4
3.7589492E-4
3.7208022E-4
3.6838473E-4
3.6468924E-4
3.6099376E-4
3.5741748E-4
3.538412E-4
3.5026492E-4
3.4680785E-4
3.4335078E-4
3.398937E-4
1.5384582E-4
-0.0010079981
-0.0037233385
-0.008011667
-0.014344187
-0.02247448
-0.031852566
-0.04253168
-0.05332508
-0.063841455
-0.07335124
-0.08089073
-0.08645564
-0.08881942
-0.08830713
-0.08496966
-0.07895435
-0.07211152
-0.06445399
-0.057606418
-0.052447345
-0.048977107
-0.048861485
-0.05103975
-0.055957362
-0.06297025
-0.07026198
-0.07824973
-0.08417317
-0.087737605
-0.08794529
-0.082895674
-0.07412826
-0.059910934
-0.04168885
-0.020536436
0.003527938
0.026738279
0.049666565
0.06923602
0.08395133
0.09429865
0.09678105
0.09410377
0.08456845
0.068876676
0.05037526
0.026828557
0.003776901
-0.020169158
-0.043813664
-0.06315286
-0.08347925
-0.09919016
-0.11496621
-0.13210449
-0.1473644
-0.17156066
-0.1964396
-0.23118256
-0.27676648
-0.32426345
-0.39568922
-0.4228551
-0.36047697
-0.2860274
-0.20289668
-0.1105644
-0.052045047
-0.0024491418
0.042597543
0.06546266
0.07598036
0.084924504
0.09292307
0.076171294
0.039094344
-0.0033104147
-0.045296993
-0.049382072
-0.021716062
0.006098666
0.03237471
0.042529777
0.041113775
0.040140882
0.028287364
0.0013129245
-0.039789192
-0.0764083
-0.09993089
-0.12533587
-0.14573331
-0.16184622
-0.17046364
-0.15201566
-0.13782991
-0.14432552
-0.13786586
-0.12548342
-0.11870017
-0.11218622
-0.11697514
-0.12233256
-0.12644129
-0.13845217
-0.14269017
-0.1414014
-0.13584007
-0.13345215
-0.15184164
-0.15572622
-0.13697003
-0.13126026
-0.12507403
-0.101869226
-0.077904016
-0.0680481
-0.0651377
-0.05656894
-0.050702248
-0.047109403
-0.049734052
-0.065872006
-0.068875894
-0.058916003
-0.06694041
-0.08699522
-0.09473369
-0.092104904
-0.09886844
-0.11016009
-0.11026394
-0.109436475
-0.10745312
-0.090498246
-0.07957308
-0.08509215
-0.08085488
-0.08093947
-0.09728139
-0.09699915
-0.093251415
-0.109020025
-0.12524839
-0.12779175
-0.11266589
-0.09948465
-0.099443756
-0.099575706
-0.110169865
-0.124909036
-0.12305939
-0.118294045
-0.121998176
-0.11819417
-0.11074931
-0.12320912
-0.13039699
-0.122139856
-0.12488794
-0.12204218
-0.11887203
-0.12636937
-0.12843081
-0.13821165
-0.1423959
-0.13768223
-0.14158532
-0.13390191
-0.12819518
-0.1329057
-0.13150151
-0.13238345
-0.13565932
-0.14759724
-0.15264323
-0.13844188
-0.13326006
-0.12935638
-0.1324246
-0.14821453
-0.1464368
-0.1473947
-0.15648301
-0.16017102
-0.17623304
-0.1884285
-0.18965235
-0.19319373
-0.19077398
-0.18462564
-0.17928329
-0.17150496
-0.15924844
-0.15739103
-0.16955198
-0.16388269
-0.15261212
-0.15644373
-0.1545417
-0.14832997
-0.13742265
-0.13279067
-0.14528006
-0.14758843
-0.15168498
-0.14585863
-0.12103029
-0.13339654
-0.139806
-0.11849411
-0.117143616
-0.09680587
-0.11560097
-0.2126363
-0.2505573
-0.23350902
-0.24476945
-0.25305414
-0.24120861
-0.22595124
-0.21919201
-0.21684723
-0.21062584
-0.20463772
-0.19662742
-0.20075265
-0.21245529
-0.21239145
-0.20825292
-0.20326018
-0.20846635
-0.21135469
-0.19266453
-0.17853624
-0.16664393
-0.15504278
-0.15689622
-0.15397571
-0.15344265
-0.15627576
-0.1541914
-0.17081851
-0.18958932
-0.18835425
-0.18807596
-0.18975061
-0.18925722
-0.1957996
-0.20503917
-0.21895322
-0.22758761
-0.21096158
-0.19502792
-0.19732352
-0.20410316
-0.21688958
-0.22065662
-0.21252315
-0.21364802
-0.21554269
-0.21400267
-0.21730447
-0.22644965
-0.22540534
-0.2035956
-0.20078067
-0.21733391
-0.21602577
-0.21093795
-0.20514865
-0.20147042
-0.21353935
-0.21699527
-0.21253754
-0.21453916
-0.20902687
-0.20260113
-0.2043963
-0.19695003
-0.1919337
-0.21249984
-0.22759047
-0.22131914
-0.21568114
-0.21092628
-0.21874648
-0.23072258
-0.21878065
-0.20749153
-0.20845555
-0.21324244
-0.21745138
-0.21368778
-0.22670086
-0.23905502
-0.22803646
-0.2279218
-0.22090991
-0.20415367
-0.2116201
-0.21874255
-0.21885793
-0.2161227
-0.20069447
-0.20027258
-0.21363027
-0.21233156
-0.20986976
-0.2174001
-0.22202067
-0.22163907
-0.2176232
-0.21765
-0.22851348
-0.23150876
-0.2302134
-0.23909386
-0.24126177
-0.23893516
-0.23693201
-0.22721319
-0.22139949
-0.22371268
-0.2306174
-0.2330279
-0.23160611
-0.23800854
-0.23272987
-0.22116639
-0.22240087
-0.21771854
-0.21174392
-0.20948382
-0.20109573
-0.19399686
-0.19123732
-0.20228797
-0.21851456
-0.22240143
-0.22782768
-0.22697519
-0.21236326
-0.21346685
-0.22878304
-0.23454529
-0.24233332
-0.25744182
-0.2564473
-0.24461903
-0.23738104
-0.23451604
-0.2435501
-0.24657662
-0.2354986
-0.24178486
-0.2506721
-0.23820908
-0.23076761
-0.23226485
-0.22490044
-0.21565896
-0.21235617
-0.2114557
-0.21336767
-0.22060661
-0.22046277
-0.20565476
-0.20689598
-0.22129487
-0.20939489
-0.20137003
-0.21788503
-0.22257374
-0.22841501
-0.23822542
-0.2289781
-0.22816324
-0.242264
-0.2507307
-0.24955177
-0.2393533
-0.23815922
-0.24234381
-0.23310146
-0.23409124
-0.25142187
-0.24950103
-0.23978466
-0.24948725
-0.24520917
-0.22350205
-0.21869074
-0.21935043
-0.22129162
-0.22356598
-0.2189569
-0.2213524
-0.21681203
-0.21297123
-0.221884
-0.21463253
-0.21295482
-0.22756392
-0.23258665
-0.23560381
-0.23207723
-0.22609475
-0.22535156
-0.22280315
-0.23740587
-0.25715566
-0.25449795
-0.2420242
-0.23503663
-0.23494041
-0.23238444
-0.22842033
-0.2323976
-0.23866716
-0.2367844
-0.23192254
-0.23799652
-0.2329658
-0.22072479
-0.2320963
-0.22472693
-0.2094162
-0.23009254
-0.23277652
-0.22047299
-0.22265007
-0.21658957
-0.22178942
-0.22973005
-0.22683306
-0.23609927
-0.23782031
-0.22878568
-0.22044387
-0.21180674
-0.2203257
-0.23148328
-0.22994886
-0.23192927
-0.23640375
-0.23885506
-0.24436149
-0.24895729
-0.2369577
-0.21953887
-0.2248818
-0.23294154
-0.2322183
-0.24051653
-0.24423976
-0.24714603
-0.2522405
-0.23408687
-0.2195035
-0.22760339
-0.2264285
-0.2244936
-0.23004153
-0.2216412
-0.21921417
-0.22636785
-0.21727948
-0.21398602
-0.21497248
-0.20111355
-0.20878173
-0.22717932
-0.22687101
-0.23647314
-0.24154343
-0.23036316
-0.23497221
-0.2378752
-0.23211314
-0.2360013
-0.23083149
-0.22634079
-0.2377321
-0.23749529
-0.23198675
-0.23507889
-0.22841392
-0.2243899
-0.23259407
-0.23496296
-0.22739391
-0.21139744
-0.21100007
-0.22923997
-0.22648638
-0.21893144
-0.22281803
-0.2195402
-0.22556368
-0.23391922
-0.22914767
-0.22109707
-0.20736252
-0.20601243
-0.22691311
-0.24876027
-0.2531591
-0.24061908
-0.23549071
-0.23030074
-0.21978448
-0.22611444
-0.23017818
-0.22715826
-0.22819442
-0.22880429
-0.23657066
-0.2291297
-0.20900498
-0.21270996
-0.21980993
-0.21867813
-0.22417243
-0.22132552
-0.20980144
-0.2164736
-0.2354632
-0.23111811
-0.21629311
-0.21979031
-0.2180661
-0.20899111
-0.21712658
-0.22523963
-0.21681763
-0.21030354
-0.21923807
-0.23213853
-0.23114103
-0.22164401
-0.23077823
-0.25172028
-0.24565808
-0.22364041
-0.22327739
-0.2357472
-0.23884413
-0.23358807
-0.23056981
-0.23747967
-0.25037622
-0.25020167
-0.22631778
-0.2016008
-0.19914027
-0.20752229
-0.21100616
-0.21831389
-0.22415264
-0.21054024
-0.20652898
-0.2203202
-0.21713229
-0.21138981
-0.21244822
-0.21169123
-0.2146675
-0.2017473
-0.19096199
-0.20772111
-0.22278133
-0.22808664
-0.22834766
-0.22932433
-0.23736489
-0.23552112
-0.22647698
-0.22274922
-0.22517431
-0.23055746
-0.2341283
-0.23512104
-0.22442351
-0.22045042
-0.22923888
-0.21974193
-0.21604891
-0.21999742
-0.20566544
-0.21057945
-0.22779481
-0.22772153
-0.2244392
-0.2175699
-0.2181513
-0.22410569
-0.21870837
-0.2167617
-0.21324383
-0.20614608
-0.20866698
-0.2117034
-0.21801023
-0.22258371
-0.21285583
-0.20839475
-0.21262552
-0.21327044
-0.22020316
-0.23089625
-0.22404079
-0.2105549
-0.22550182
-0.24495552
-0.2266317
-0.21174891
-0.2215949
-0.21185139
-0.19104189
-0.18808275
-0.20217644
-0.22590883
-0.2340114
-0.22037882
-0.20378679
-0.19599336
-0.19860448
-0.19941883
-0.20875372
-0.22221722
-0.20886159
-0.19849838
-0.20753957
-0.2129396
-0.22216211
-0.22382239
-0.2232728
-0.2391764
-0.24131665
-0.2309231
-0.23031554
-0.2330425
-0.22393556
-0.20631321
-0.21500309
-0.22980817
-0.22622691
-0.236032
-0.23105699
-0.2055975
-0.2037618
-0.20230205
-0.19263473
-0.1885303
-0.18325554
-0.18511477
-0.1865314
-0.18591927
-0.19328292
-0.20146945
-0.21379812
-0.21895865
-0.20545933
-0.20068668
-0.21030265
-0.2116229
-0.21167783
-0.21834637
-0.21843931
-0.2207023
-0.22522211
-0.21758144
-0.22132762
-0.23416409
-0.22716908
-0.22470441
-0.23764794
-0.23530124
-0.2223081
-0.2191824
-0.20778635
-0.18194619
-0.17703007
-0.1917961
-0.2007111
-0.20239362
-0.19820032
-0.20357537
-0.20702258
-0.1957517
-0.20275977
-0.19950393
-0.17497884
-0.18325286
-0.19853628
-0.20081566
-0.20938951
-0.2152311
-0.22605513
-0.22623779
-0.21105081
-0.21186836
-0.21444961
-0.21414079
-0.22186725
-0.22651243
-0.22109154
-0.20455122
-0.20548663
-0.22081521
-0.21247178
-0.21416624
-0.23201525
-0.21455373
-0.19217005
-0.19079852
-0.18046343
-0.18823838
-0.2049733
-0.18549566
-0.18888082
-0.21381147
-0.19879532
-0.19698945
-0.2119699
-0.19926015
-0.18848313
-0.18564847
-0.1962129
-0.21710368
-0.21691218
-0.21409011
-0.21548687
-0.21681046
-0.22093555
-0.21217036
-0.20786415
-0.20918016
-0.20291331
-0.20192508
-0.19692762
-0.20016305
-0.2150755
-0.20892926
-0.20081156
-0.19833611
-0.1912861
-0.2057625
-0.21101752
-0.18634139
-0.18821333
-0.20514864
-0.19746822
-0.19328755
-0.194703
-0.18414533
-0.18301995
-0.19334216
-0.19433303
-0.19597004
-0.20944285
-0.21235044
-0.20470455
-0.20299067
-0.19547714
-0.19619744
-0.20745747
-0.20159315
-0.20167024
-0.21223632
-0.21306309
-0.21375223
-0.2070653
-0.19819556
-0.19654545
-0.19851518
-0.21018705
-0.21058105
-0.19853382
-0.19710413
-0.197793
-0.19466837
-0.19570701
-0.20438361
-0.20666371
-0.19841936
-0.18889293
-0.17553447
-0.17514932
-0.18072478
-0.18156753
-0.19226006
-0.18543923
-0.18168084
-0.20657867
-0.21349522
-0.2092012
-0.20083208
-0.19229232
-0.20539244
-0.20068432
-0.1906578
-0.2017489
-0.20440911
-0.20598808
-0.2016649
-0.19663653
-0.20869556
-0.20247786
-0.18481877
-0.18924622
-0.1957686
-0.18624571
-0.1847832
-0.19919775
-0.19927147
-0.1938966
-0.19609867
-0.1872776
-0.17701183
-0.17400719
-0.17944624
-0.1895678
-0.19267704
-0.20004499
-0.21115358
-0.2199633
-0.22069407
-0.21233304
-0.21624742
-0.21527374
-0.20366544
-0.20025037
-0.1917511
-0.19670017
-0.21121411
-0.20397954
-0.20307818
-0.21151191
-0.20531203
-0.19578817
-0.19395651
-0.18774733
-0.1727799
-0.17498443
-0.18438624
-0.17191623
-0.16458875
-0.17967793
-0.1909286
-0.1842148
-0.17828509
-0.18307735
-0.18477517
-0.18163136
-0.17803745
-0.19181022
-0.21253698
-0.19877158
-0.18713202
-0.19973913
-0.20056613
-0.20451374
-0.20783839
-0.20133226
-0.21020856
-0.21424922
-0.20511384
-0.1997273
-0.19569041
-0.2026376
-0.21291259
-0.2122126
-0.21063943
-0.20359686
-0.19161761
-0.18836567
-0.19178398
-0.2001526
-0.20083846
-0.19254912
-0.19695795
-0.19313197
-0.17512418
-0.17619327
-0.18418057
-0.18466173
-0.17915997
-0.17202841
-0.18459249
-0.19510582
-0.1889305
-0.19145076
-0.19125547
-0.18796512
-0.19566092
-0.19582038
-0.18925503
-0.1873103
-0.1817012
-0.17232904
-0.17539117
-0.19632447
-0.21452065
-0.21704914
-0.20839953
-0.1968485
-0.19384795
-0.19773942
-0.20070043
-0.19515027
-0.1790422
-0.17681378
-0.19357482
-0.19555812
-0.18239132
-0.18479615
-0.19621278
-0.19631685
-0.19604665
-0.20028242
-0.1994163
-0.19487752
-0.18564202
-0.17984283
-0.18756415
-0.19289368
-0.1932531
-0.1934998
-0.18804528
-0.19631113
-0.20874543
-0.19524184
-0.18592267
-0.19468486
-0.19711655
-0.19104402
-0.18141392
-0.18378216
-0.18581544
-0.16734329
-0.17052872
-0.18722476
-0.1791605
-0.18340522
-0.19497782
-0.1877534
-0.18601464
-0.18175088
-0.17638776
-0.1801727
-0.17650756
-0.18797672
-0.2019781
-0.18977197
-0.19379169
-0.20502132
-0.19613147
-0.1973025
-0.20565613
-0.20781316
-0.19923866
-0.18796383
-0.20006151
-0.20636393
-0.19823337
-0.20373392
-0.2004968
-0.1887774
-0.18049751
-0.17047346
-0.17374456
-0.173633
-0.16180053
-0.16980977
-0.19391774
-0.20121916
-0.1861554
-0.18053703
-0.18611774
-0.17663352
-0.17050588
-0.18079771
-0.17904733
-0.15863873
-0.15917398
-0.18630564
-0.19759293
-0.20730183
-0.21980925
-0.2048788
-0.19873066
-0.20499043
-0.2031842
-0.21025927
-0.2001815
-0.18184118
-0.19058935
-0.20064406
-0.20070285
-0.19252239
-0.18080024
-0.18814081
-0.19968641
-0.19173019
-0.18155716
-0.18192829
-0.17554416
-0.17001012
-0.18047337
-0.18028837
-0.17082109
-0.17522146
-0.17965266
-0.17841123
-0.17498617
-0.1706442
-0.17646529
-0.18376483
-0.1856662
-0.19484544
-0.20306557
-0.20237747
-0.20560223
-0.20769703
-0.20076242
-0.18930429
-0.18514353
-0.20504226
-0.21494387
-0.20425747
-0.21957384
-0.21855015
-0.18027447
-0.16725951
-0.16784129
-0.17421126
-0.19185872
-0.18627633
-0.17813598
-0.17882416
-0.16768938
-0.15962237
-0.16358055
-0.17448364
-0.17613658
-0.1664461
-0.16705093
-0.17754193
-0.1928168
-0.20088978
-0.19775648
-0.2055489
-0.21381694
-0.2046531
-0.18888831
-0.18514943
-0.1954929
-0.19427574
-0.19280408
-0.20715523
-0.20714371
-0.19990067
-0.19813766
-0.1907605
-0.19189045
-0.1927269
-0.18185616
-0.17653216
-0.17357616
-0.16594128
-0.15973611
-0.16395573