-0.007631204
-0.009108634
-0.007475574
-0.003783122
-9.118503E-4
-1.19017044E-4
9.954002E-4
0.0010326726
-3.780891E-4
-0.0027787297
-0.008808529
-0.01196487
-0.007136677
-6.9600664E-4
0.0035758612
0.005835066
0.006076198
0.003072946
2.7995568E-5
0.0011372586
-3.1182243E-4
-0.0038759862
-0.001242257
0.0070038075
0.017346526
0.021597374
0.02077487
0.023319673
0.01704952
-0.0026624002
-0.020364024
-0.028378688
-0.022741199
-0.008119563
0.0010704335
0.0032646246
0.0051882546
0.0065506785
0.0015833908
-0.007227377
-0.01003386
-0.008458308
-0.0072977464
-0.0034027782
0.0012706534
0.002246346
0.0013974241
9.909273E-4
-1.8797637E-4
-0.0049360064
-0.0114451805
-0.012602326
-0.0073246188
-0.0010281827
0.0050506094
0.011515112
0.014328065
0.013075772
0.013212107
0.011270819
0.0012302811
-0.009351002
-0.01270326
-0.009067033
-5.4788805E-4
0.006562057
0.009355549
0.011653689
0.0129084885
0.009949495
0.005633854
0.004769387
0.0023607162
-0.0043585794
-0.0019896538
0.008430944
0.006110761
-0.008662348
-0.019077117
-0.01974266
-0.0145491855
-0.009547444
-0.005914796
-1.7868305E-4
0.0047573117
0.0045588342
0.0025595387
0.0023187343
0.0013358012
-0.0019792449
-0.005003408
-0.0068267537
-0.005365498
0.0018277911
0.0074395523
0.0051180697
-8.9784554E-4
-0.0046845474
-0.0025187023
2.7579215E-4
-0.002029838
-0.0021766988
1.7200982E-4
5.749828E-4
0.002921425
0.0043586656
0.0035110328
0.004500823
0.0033552062
-0.0018115378
-0.00638869
-0.00517857
0.0014972839
0.009651113
0.019066976
0.02106254
0.01001121
-0.0017890715
-0.0059480555
-9.286318E-4
0.0070439302
0.0076482818
0.004647397
-0.0021661073
-0.014512661
-0.01838313
-0.011028249
-0.0037118003
-8.8983023E-4
-0.0038290776
-0.0111780735
-0.014628376
-0.009855092
-0.0025077313
0.0038736814
0.008866186
0.009363033
0.005786008
0.0019276107
-7.613318E-4
-0.0038397028
-0.006158278
-0.0032316598
0.003723189
0.010178968
0.011929243
0.007928767
0.004628487
0.0036066251
-6.9106295E-4
-0.007875532
-0.011180375
-0.008319895
-0.0034784565
0.0020009307
0.005439793
0.0044569746
0.0030643677
0.0012115903
-6.767116E-4
-0.0029474553
-0.0074273758
-0.005925651
9.6470804E-4
0.0048788
0.006536282
0.006164682
0.005169236
0.0042475406
9.5647754E-4
-0.0038543534
-0.00788872
-0.0064003356
-2.3466435E-4
0.0055097295
0.00878149
0.007894665
0.006111505
0.002880504
-0.0030148511
-0.006214384
-0.008219725
-0.008020314
-0.0037976734
-2.1973056E-4
0.0022375504
0.002038755
0.0015367398
0.0026978506
-2.9315235E-4
-0.005029183
-0.0074742944
-0.0059273
2.3765504E-5
0.0046218866
0.007064863
0.0077587166
0.0062313024
0.003881118
-0.0010312288
-0.006109258
-0.009153876
-0.010305644
-0.0066293958
-7.4119685E-4
0.0021020756
0.0024898602
0.003758251
0.0043928716
4.0612038E-4
-0.007293397
-0.013588493
-0.010746315
-0.0019251852
0.003798548
0.008858429
0.010644645
0.00815036
0.007999173
0.0030262226
-0.006059049
-0.009058094
-0.0076286714
8.7728794E-4
0.014440922
0.023397237
0.02933559
0.02752634
0.014009596
0.0012199053
-0.009622968
-0.022881798
-0.029570103
-0.023354173
-0.0068095457
0.008311686
0.010791874
0.0054866113
-4.3600492E-4
-0.006760765
-0.014887421
-0.021416973
-0.018875837
-0.011240667
-0.004269643
0.0019131784
0.0031206985
0.0024320444
0.002703766
2.612624E-4
-0.0017929208
-0.0020703836
-7.379326E-6
0.007315989
0.01576043
0.020234708
0.020016158
0.015402336
0.0074114944
-6.630595E-4
-0.007586791
-0.011072396
-0.005423878
0.0026776043
0.0064744446
0.00872126
0.0057856706
0.0011020808
-0.001079373
-0.0056747966
-0.00856348
-0.0098095955
-0.010865129
-0.005713255
-2.506251E-4
3.3452714E-4
-2.8494548E-4
-0.0017518101
-0.0038953563
-0.005372979
-0.0059588025
-0.006423129
-0.004171086
0.0019849476
0.006189339
0.006966878
0.0065431786
0.0067040604
0.0088802455
0.0090921195
0.006037024
0.0020453865
-0.0029518201
-0.005696717
-0.0019238577
0.0053966395
0.009995186
0.009648715
0.003729878
-0.0055913622
-0.01291999
-0.015548369
-0.011668004
-0.0041110045
0.0011330791
0.0038532275
0.0038766717
0.0022366361
0.0029264276
0.0029569585
-0.004939431
-0.01643683
-0.018979723
-0.014382901
-0.009313935
-0.001046643
0.008983527
0.018053291
0.02708185
0.03312956
0.025618924
0.0010678034
-0.018216679
-0.015877977
-0.0050639776
-0.0015450548
-0.0063824034
-0.007667065
-6.969455E-4
0.0075409324
0.013835201
0.013582308
0.004122682
-0.0066503556
-0.0051042405
0.0086567085
0.015806856
0.0072242394
-0.014392778
-0.033755682
-0.031605665
-0.018198308
-0.005354069
0.008229356
0.015821831
0.01456304
0.00671295
-0.0014964328
-0.006418472
-0.00829445
-0.008944373
-0.016901756
-0.013892339
0.007590185
0.01568501
0.015995061
0.018331802
0.009309786
0.003969071
0.006261092
0.003900788
-0.0017813705
-0.006446068
-0.0015236648
0.007876378
0.0104423715
0.0070881657
-2.7393256E-4
-0.0052530156
-0.005743198
-0.006248158
-0.0072293947
-0.007306892
-0.0040248088
1.6271688E-4
0.0037539373
0.006183883
0.00351933
5.0338253E-4
-5.5027986E-4
-0.003615611
-0.0073366035
-0.008522318
-0.0054900846
-0.0019635202
6.754791E-5
0.001555936
0.0010159874
7.643451E-4
-4.593464E-4
-0.0042640464
-0.009647067
-0.014536268
-0.0076575163
0.003944304
0.004614159
0.0046826494
0.0065273023
0.0030827401
-0.0020882413
-0.0076990793
-0.00805311
-0.0058568614
-0.007292156
-9.816878E-4
0.008979351
0.012516733
0.017631676
0.023887837
0.023441678
0.00935681
-0.014556749
-0.02705059
-0.019111054
4.4829358E-4
0.010996312
1.2559856E-4
-0.009468817
-0.005693775
-0.001735909
4.1314157E-5
-3.1406197E-4
-0.0012295829
6.544596E-4
0.003484085
0.0066545093
0.006611207
0.0058909957
0.0068661463
0.0030347046
-5.6567497E-4
0.0010623278
0.0035178633
0.005274518
0.0052050534
0.005334656
0.007537954
0.009110152
0.007938219
0.007029844
0.0061762095
-0.009194993
-0.033308472
-0.039368484
-0.031104192
-0.024627574
-0.021769175
-0.020585155
-0.016615996
-0.011043932
-0.0051964065
0.0021714089
0.0078094536
0.008280185
-2.4335737E-4
-0.0071840873
-7.784431E-4
0.0073597925
0.010647307
0.011882491
0.012712888
0.016938712
0.020389302
0.02204577
0.020786082
0.011560159
0.0030465561
0.0019808155
0.009659114
0.02200336
0.026370844
0.024779009
0.016508924
0.0023644974
0.0063210125
0.020766092
0.014777897
-0.007267459
-0.028237069
-0.03724679
-0.030961886
-0.019744914
-0.011179835
-0.00790306
-0.007817459
-0.003527385
0.007170324
0.0162417
8.621467E-4
-0.037604447
-0.056133233
-0.043601394
-0.028457291
-0.01894201
-0.010013391
-0.00373936
-7.439651E-4
0.0030223872
0.009668644
0.015491634
0.018282916
0.022294119
0.030394275
0.029062526
0.00993004
-0.0019882326
0.0073325965
0.020512538
0.02799005
0.025401535
0.0113478685
-2.898782E-4
-9.6953654E-4
0.003485866
0.0057241633
0.005643442
0.008205848
0.01134171
0.008735182
0.0035304911
-0.0030003632
-0.017037658
-0.028183907
-0.02629977
-0.0214125
-0.015768437
-0.010614705
-0.009242149
-0.0058677983
-0.006012778
-0.006836621
4.216078E-5
0.00529292
0.010335219
0.011412727
4.8942864E-4
-0.005986328
-0.0019751568
0.0069708964
0.014560773
0.00576286
-0.01468203
-0.024728276
-0.016047854
-0.001971653
0.005069422
0.010083412
0.013049924
0.012811492
0.014268286
0.011800019
0.003165555
-0.0034578724
-0.004115863
-0.0040378184
-0.004522166
-0.0019472152
-0.00239221
-0.0038530538
-5.91333E-4
0.0016927175
0.007633662
0.020473236
0.027941361
0.016111955
-0.011485359
-0.030656062
-0.03112051
-0.018674297
-0.007480172
-0.006663106
-0.0010732138
-8.402322E-4
-0.015660161
-0.016549952
-0.0040651197
0.009986331
0.02209765
0.012667781
-0.010447113
-0.020498801
-0.012134845
-0.0021712552
0.006104391
0.03418128
0.06244582
0.058538683
0.030437956
-0.010800974
-0.043483462
-0.047929287
-0.031380303
-0.0018542573
0.02898553
0.04137162
0.018711409
-0.016470645
-0.020276083
-0.0068307384
-0.0051848833
-0.014390253
-0.030925633
-0.035722356
-0.02377904
-0.015228522
-0.010797607
-0.00352587
0.0073448378
0.019448588
0.024930445
0.015410265
-0.0068046534
-0.017794566
-0.0074105943
0.0036570674
0.006352132
0.007638799
0.013280502
0.022391086
0.020541117
0.0035818457
-0.0096723605
-0.009022531
-0.0054767914
-0.0058830427
0.00116303
0.023277864
0.045374803
0.04521111
0.015783673
-0.023609418
-0.041271225
-0.033070013
-0.020527573
-0.012304621
-0.0053552655
5.7993404E-4
0.0023401133
-0.004048556
-0.009830962
-0.005833483
-0.0010821719
-0.0017120405
-0.0020666358
-4.997201E-4
-9.731878E-4
-0.00362334
-0.0033026014
3.4677697E-4
0.0031813208
0.0038931645
0.0018634677
-0.0021887214
-0.0059155887
-0.0074172355
-2.3177879E-4
0.019747453
0.04041139
0.049800165
0.04341606
0.008073409
-0.039065156
-0.0479453
-0.023801299
-0.008458968
-0.0053874445
-0.0035572378
6.769282E-4
0.005534036
0.0046772263
-0.0013846308
-0.010901163
-0.013211264
0.0011602724
0.018351039
0.028353589
0.02972049
0.016142048
-4.0401632E-4
-5.7760725E-4
-0.0029394757
-0.023083303
-0.025654588
-0.008781499
-0.008031028
-0.009355792
7.609678E-4
0.0090189865
0.009647624
0.0011625192
-6.6847104E-4
2.5070083E-4
-0.0131082805
-0.024794756
-0.02675989
-0.017810699
-0.004194143
-0.0021026037
0.0012438339
0.012902341
0.031107385
0.04757823
0.036998358
0.017296076
0.00809305
-0.00810893
-0.025625937
-0.028044727
-0.014973396
-0.0023233187
0.0016835216
0.013970046
0.034583174
0.046644617
0.0343054
4.7763105E-4
-0.025641702
-0.038834322
-0.041686315
-0.028990457
-0.017581219
-0.01212932
-0.005604408
0.0014314125
0.007129282
0.002717963
-0.0037270752
-1.5306986E-4
0.007528501
0.018846704
0.026048554
0.015490904
-0.0035369142
-0.01612027
-0.018000318
-0.008368754
0.004068369
0.00941159
0.009638793
0.0039177802
-0.002583439
-5.780439E-4
-1.4011146E-4
-0.004934066
-0.010283503
-0.011481692
0.0053983354
0.026790341
0.03119592
0.021525865
-0.0032597356
-0.026401829
-0.023597123
-0.007302768
0.00435907
0.006548965
-0.004184227
-0.021306144
-0.024210794
-0.008306947
0.008773208
0.025929425
0.034829326
0.021052686
0.009575887
0.0018912385
-0.019405525
-0.02664291
-0.017907333
-0.017923964
-0.017754357
-0.014551445
-0.0114717
-3.1888508E-4
0.013503113
0.020950329
0.021992307
0.026923466
0.035844468
0.02626819
0.0021335892
-0.012940919
-0.01659323
-0.010531026
-0.006405991
-0.0142049985
-0.013812585
-0.0024010404
6.826588E-4
0.004432542
0.012269325
0.0016699331
-0.013500784
-0.010404773
-0.00999019
-0.0122551555
-0.004059877
-0.0058061266
-0.013013078
-0.009542329
-5.240802E-4
0.016505934
0.025006969
0.0084772725
-0.008378872
-0.008879976
-0.0031804703
0.0038825597
0.012365946
0.01589694
0.020089475
0.029886877
0.022267662
-0.0027881302
-0.016516859
-0.018026916
-0.015876254
-0.008879672
1.3490257E-4
0.006807909
0.009128493
0.0073451204
1.7677253E-4
-0.006244418
-0.006886458
-0.0076000737
-0.004226806
0.0010771108
-0.0038355372
-0.011378024
-0.0107133305
-0.004379909
6.0624763E-4
6.0616137E-4
-0.0012844066
-0.0011787877
0.0025918395
0.0069886935
0.008956476
0.011611336
0.01255204
0.003708973
-0.01219844
-0.022717496
-0.021522839
-0.013793707
-0.006497837
0.0018952421
0.009167075
0.006052485
0.0017243493
0.0068519525
0.012257
0.012640099
0.009243801
0.007823391
0.014185982
0.021900235
0.022895765
0.008077971
-0.017171314
-0.028428078
-0.024298567
-0.024457073
-0.02739941
-0.011461316
0.016975284
0.03456146
0.041932166
0.034285344
0.019983599
0.009876152
-0.029614687
-0.06937702
-0.044975553
2.5150072E-4
0.012971026
0.009103024
0.0052048173
0.0067131454
0.0114428885
0.0045627365
-0.009973829
-0.014692971
-0.017067833
-0.018878387
-0.00685137
0.0067976336
0.019212304
0.031101963
0.019324109
-0.00730934
-0.021505333
-0.01922108
-0.009158402
-0.004477732
-0.0037276838
0.0011048703
0.0057180407
0.003874711
-2.6837207E-4
0.004849251
0.018971859
0.04043288
0.061319377
0.04864654
1.24354465E-5
-0.041070852
-0.048310447
-0.030023454
-0.010779026
-0.008349823
-0.011178639
7.526756E-4
0.017399449
0.016588947
0.0023681207
-0.0061292094
-0.0030253
5.0961674E-4
-0.0022378433
-0.005883675
-0.009319665
-0.011747315
-0.010484121
-0.008899395
-0.0089740055
-0.006702078
0.0014137563
0.010376384
0.01250772
0.0032940537
-0.011079775
-0.011266933
0.003630256
0.017835425
0.022453552
0.013840702
0.0045696637
0.0057748966
0.007709738
0.0013765821
-0.008873875
-0.010569338
-0.006025231
-0.0022185273
0.0037873778
0.0045235334
0.003053061
0.007509318
0.008689555
0.0025299601
-0.010122719
-0.014524346
-0.003251279
-0.0017002628
-0.009386775
-0.008370634
-0.0062066824
-0.0054251794
-0.0021225736
0.0027228014
0.009657371
0.010723103
6.9166694E-5
-0.00894973
-0.006578918
0.0022757608
0.021522924
0.04595809
0.049023516
0.019859204
-0.024753092
-0.042116724
-0.017166885
-0.0016252514
-0.014607981
-0.02456558
-0.024520915
-0.015499861
-0.0027738695
0.0072355005
0.016891927
0.0080714915
-0.012883755
-0.015450706
-0.00815632
-0.0018465214
0.0049433825
0.0063616866
0.0026280382
-0.00492745
-0.0079889
-0.0020307512
0.008863445
0.022838209
0.02652918
0.029964967
0.050752003
0.06367321
0.04386163
-0.013148854
-0.06733513
-0.064584754
-0.03362981
-0.011816833
0.0063270256
0.013302952
0.008092009
-0.0032514879
-0.007597221
0.0019900268
-2.511951E-4
-0.010187038
-0.007843842
-0.0038817103
-4.6397067E-4
0.003507831
0.0017664721
-0.0050894422
-0.009914579
-0.0063738176
-0.0025403625
-0.0023792065
-7.02624E-4
0.0037283169
0.009917389
0.0061113713
-0.008649838
-0.014777243
-0.0032273636
0.011890244
0.008373042
-0.0043964605
-0.006018346
-0.0034500605
0.004378861
0.013889405
0.007635494
-0.002340782
-0.0028168166
-1.8016252E-4
0.0062065027
0.0238469
0.04244323
0.031418253
0.0012286754
-0.010345937
-0.010071238
-0.00638025
-5.8291684E-4
-0.007541644
-0.011121465
-0.0074165384
-0.011986653
-0.011336501
-0.009547377
-0.010363199
-2.5248076E-4
0.010000355
0.016562704
0.009772574
-0.01651393
-0.026490826
-0.016591713
-0.00862882
-7.967492E-4
6.681363E-4
-0.0017960015
0.0012527878
0.0010780568
-0.0040865545
-0.004357726
0.0012272529
6.969297E-4
-0.0018284025
0.007522627
0.015346176
0.012015863
0.0065919273
2.7580294E-4
-0.004599683
-0.0031572115
0.002688581
0.00817956
0.0073833964
-5.568566E-4
-0.0032650423
0.011460799
0.03293084
0.041277252
0.030061148
0.0027085918
-0.025743578
-0.033649687
-0.022462824
-0.012310247
-0.0013960978
0.009817875
0.0033439335
-0.0061325217
-0.00854358
-0.013692224
-0.008459207
-0.004499554
-0.010648654
-0.0042738817
2.9346053E-4
-0.007898401
-0.012786311
-0.009679659
-4.0769228E-4
0.002191447
8.428369E-4
0.007811862
0.018954204
0.032304373
0.029780455
0.0068448815
-0.0098532485
-0.015703626
-0.012494647
-0.0054302006
-0.0055982964
-0.0028860064
0.001997951
0.0011654221
4.8183443E-5
-0.0033576211
-0.0038057994
0.003269671
0.0047464725
0.0029560172
0.004664391
0.0017220838
-3.4818827E-4
9.193395E-6
-0.005741813
-0.0045223786
0.0032083858
0.003416421
0.0030669624
0.002015209
7.425911E-4
0.009784783
0.024631247
0.031711675
0.01671932
-0.007462611
-0.011378377
-0.006227293
-0.010171335
-0.011944963
-0.008791418
-0.010580504
-0.013644303
-0.008395854
-5.896411E-4
-0.0023973803
-0.011679313
-0.014968527
-0.007579035
-3.4384325E-4
1.2215195E-4
-0.0036210488
-0.007023353
-0.00448504
-0.0019542277
-0.005122341
-0.0025899054
0.0098338965
0.01760419
0.013308304
0.0060723736
0.0028677294
0.007538104
0.017863207
0.01650265
0.0056396187
0.009847874
0.028676841
0.03695537
0.017296165
-0.020218674
-0.042570766
-0.030291183
-0.0054405155
0.004332987
0.005895429
0.004134296
-0.0047710706
-0.009358711
-0.009121486
-0.005586481
-0.0029315532
-0.013357379
-0.016436433
-0.003937178
6.887166E-4
1.4073437E-5
7.961129E-4
-8.2375534E-4
-0.0027758947
-0.004140508
-0.0015898433
0.0035372835
0.0053351875
0.0044246786
0.0042632027
0.0021058714
-0.0038207208
-0.004537729
-0.004297904
-0.0059068114
0.002790101
0.013099455
0.018561305
0.019754143
0.011447624
0.005332881
0.0010052024
-0.0057741744
-0.005397167
5.655193E-4
0.011119253
0.013623356
0.0026506449
-1.9647794E-4
6.659339E-4
-0.0070092552
-0.012480051
-0.0063810865
0.001954308
-0.0041449163
-0.012222867
-0.012066363
-0.01172008
-0.0066052442
-0.0036715278
-0.0046620914
-7.6003873E-4
-8.132927E-4
-0.0036203002
-0.0054000285
-0.0059630955
8.6905646E-5
0.00483379
0.004896648
0.0064875213
0.012768249
0.020361759
0.018924247
0.009483435
-0.0012954706
-0.006084238
7.417653E-4
0.008397762
0.005933319
-0.005253773
-0.00873717
4.5537174E-4
-0.002147549
-0.013033411
-0.013044897
-0.012123389
-0.009059219
0.0038773243
0.01444802
0.012187963
-4.0161159E-4
-0.008561776
-0.0053205304
-0.004286609
-0.011552135
-0.014925463
-0.0076799225
0.001183067
0.005097267
0.012009087
0.024908744
0.026018167
0.008471692
-0.0017933226
0.005260801
0.0037042259
-0.008169498
-0.0074160467
-0.0025340281
-0.0029254295
0.0026372734
0.00135633
-0.010208393
-0.008549729
-0.0015786325
-0.0020068313
0.004174239
0.016264422
0.018735897
0.0073885173
-0.009686854
-0.019200617
-0.01596717
-0.010094475
-0.010279727
-0.010888632
-0.0053768307
0.0032567685
0.0037569543
-0.0038562766
-0.0025167586
0.005245856
0.0068341717
0.004882896
-6.823679E-4
-0.0044359565
-2.4390387E-4
0.004377138
0.007445916
0.008190042
0.0065551745
0.0069267107
0.004892661
6.2800257E-4
0.002456351
0.008411597
0.00853974
0.0018523473
-0.004007506
-0.0068898364
-0.0058626058
-0.0018549717
-5.4154615E-4
-0.0018178802
-0.0042974367
-0.0052432534
-0.0029943865
-8.8027323E-4
0.00210825
0.0038398118
0.0023009323
-6.740986E-4
-0.005088209
-0.0061569978
-0.0061598513
-0.008093564
-0.0057189385
2.4709626E-4
0.008705804
0.014698331
0.01051881
0.0019729224
-0.0041247457
-0.005743998
-0.008059771
-0.010813238
-0.004724347
8.2787673E-4
0.0024754687
0.0061644553
0.0045616594
0.003309436
0.0052172216
0.0023529453
-0.0030664483
-0.010220354
-0.013633306
-0.009418273
4.882888E-4
0.012628842
0.014184408
0.01126575
0.011810788
0.0029570234
-0.005933212
-5.9705507E-4
0.005771905
0.0027006755
-6.283499E-4
-0.001249325
-0.0066762394
-0.008010261
-0.003603141
-0.0041327574
-0.0048918254
-0.0035653084
0.0025047283
0.009005007
0.0075688753
0.008384022
4.558899E-4
-0.018043235
-0.019007124
-0.010825454
-0.007215877
-0.0021427989
0.002652504
0.005901283
0.0071870633
0.009659479
0.008348614
0.0011549884
0.001619245
0.0014601791
-0.0064140945
-0.008810165
-0.0015604374
0.008935865
0.014669849
0.021029899
0.019174559
-0.004768726
-0.020097604
-0.014623457
-0.010589068
-0.008678317
-0.0039700153
0.0029310284
0.0070262062
0.006154601
0.005361405
0.003205029
0.0023542433
0.0016342803
-0.001723044
-0.0033309022
-0.006537479
-0.00511668
6.5496285E-4
-0.0017494857
-9.216432E-4
0.003977035
-7.864736E-4
-0.006062918
-0.0047886893
-0.002283404
3.7799033E-4
0.004925591
0.009170936
0.008528298
0.0051769163
0.0029001005
9.577021E-4
-0.001419373
-0.0034769913
-0.004377452
-0.006128163
-0.0071355067
-0.0033670024
2.3292721E-4
-3.5149488E-4
-2.0503654E-4
0.002751285
0.0026524535
-0.0031876052
-0.0048826393
8.976136E-4
0.0041215927
0.002285678
-0.0012387459
-0.0022980878
-0.0012435935
-0.0040332125
-0.006103268
-0.0047309105
-0.0014357272
0.007199942
0.013806737
0.010356802
-0.0032296493
-0.012637856
0.0021268607
0.022765256
0.030619543
0.030091878
0.0067687957
-0.027531682
-0.033627518
-0.016604874
-0.005142957
-0.0037677211
-0.0023412167
-0.003571677
-0.0065069664
-0.0010325001
-7.4981543E-4
-0.009953368
-0.007983515
0.0033761652
0.010049419
0.009825176
0.0030204616
-0.0055562304
-0.0054143434
-1.8792227E-4
-3.7235947E-4
0.0012012098
0.004998539
0.004889828
0.006361934
0.007240304
0.010574758
0.01653354
0.012341063
0.0024509209
-0.009529165
-0.02125713
-0.024380665
-0.019490639
-0.0045222663
0.005750054
0.001367574
0.0014396491
0.0042322655
0.0045376983
0.0049918373
-0.0023410374
-0.0065564844
-0.0016716615
0.0018745788
0.006088388
0.0100115575
0.01049402
0.010673837
0.008560606
0.002136633
-0.0019140166
0.0011086612
0.0011382382
-0.007241911
-0.012087068
-0.0074622217
-0.0027847781
-0.0042547677
-0.0066370475
-0.0073620523
-0.005208529
1.21584024E-4
0.0012515447
0.0015172262
0.0032716794
-0.0010604651
-0.0031941321
-1.8295828E-4
-8.5237046E-4
-0.0011040062
3.069732E-4
8.441372E-5
8.105807E-4
0.0029383316
0.005231498
0.0061811875
0.0048656655
0.0014531155
-0.0015400748
-7.592696E-4
8.2192954E-4
6.5130775E-4
1.1637756E-4
-5.97517E-4
-0.0011691699
-9.33013E-4
1.0096187E-5
-0.0012017074
-0.0036295357
-0.0022079977
-9.075699E-4
-0.0021865456
-9.480877E-4
0.0014307129
0.002296602
0.002980766
0.003090706
0.0020715236
8.849142E-5
-0.0022206006
-0.0026573911
8.559216E-4
0.0039440435
0.0015641424
-0.0012998662
-0.0022244002
-0.0037054152
-0.004420656
-0.005630267
-0.006561659
-0.0033807666
0.0019458313
0.0062197014
0.010254166
0.015140212
0.012308309
-0.0014279861
-0.01074485
-0.011701154
-0.009854114
-0.0035845058
0.0037955507
0.011170415
0.013798365
0.007322437
0.0040788627
-8.582584E-5
-0.0132417735
-0.01906068
-0.011842663
2.8361828E-4
0.005991184
-9.977624E-4
-0.006230918
-0.0026905993
0.002358268
0.0041403268
0.0016463322
0.0011950397
-0.0013751845
-0.0078553185
-0.0040048514
0.0035530475
0.0042739045
0.0054926253
0.006156941
0.0029326594
-5.80009E-4
-0.0015765814
8.742676E-5
0.0045139263
0.011696278
0.013071775
0.0067116357
0.0015097613
-0.0041568745
-0.011799816
-0.016083444
-0.014250331
-0.006230126
0.0018138901
0.00720484
0.014475527
0.01839194
0.0076399115
-0.010219202
-0.014176081
-0.006922409
-0.004475909
-0.0036291264
-2.4936922E-4
-5.320065E-4
-0.0036636284
-0.0024563435
0.0016102348
0.0014150615
4.8116566E-5
-9.369203E-4
-0.004973279
-0.00388081
0.004089353
0.007164547
0.0049089016
0.0046436964
0.0032493134
-0.0010701481
-4.2960257E-4
7.0159475E-4
-0.003198033
-0.002397732
7.66757E-4
6.7443843E-4
0.002676713
0.006054909
0.007002997
0.002252239
-0.0023815506
-0.0013192047
-0.004017772
-0.005114347
9.358173E-4
0.0013763072
-4.0538813E-4
5.093268E-4
-0.0014285196
-0.003350985
-0.005184841
-0.0070844437
-0.005354085
-0.002506608
0.0010112907
0.004334086
0.0021272511
-0.0012718355
8.110661E-4
0.0037644827
0.0013894471
-0.0056519653
-0.0090185385
-0.0057697333
-0.002643085
0.004007872
0.014071184
0.019129433
0.020720242
0.011288598
-0.007695389
-0.014548332
-0.009144793
-0.0022686212
-9.7511103E-4
-0.007104393
-0.0068671573
-4.396336E-5
0.003361128
0.0053335014
0.0035204035
-9.3305984E-4
-7.652375E-4
-0.001869967
-0.005063886
0.0011643159
0.008183096
0.0029229186
-0.0021313194
-0.0016787478
-0.0032467193
-0.0067047905
-0.012701755
-0.01316384
-0.0019606228
0.008764196
0.014805731
0.016981378
0.007917817
-0.008723945
-0.016780429
-0.01137543
-0.004127142
-0.003163675
-0.0036402938
-2.751145E-4
0.0017777168
0.0014189078
0.004365978
0.0066550416
0.008989118
0.008600816
-0.00106554
3.3558783E-4
0.0121952
0.01089802
0.0059098382
0.002342897
-0.0029371048
-4.1279975E-5
0.002860732
-0.0030836666
-0.009817617
-0.011273306
-0.008002116
-0.0033957693
8.502353E-4
0.0034180458
0.0050232857
0.0028065564
-0.005100301
-0.0076761227
-0.0055292337
-0.006592649
-0.004805862
8.4839405E-5
0.00273351
0.0037462013
0.0040268237
0.002256073
-0.0011048622
-0.0034581737
-0.006112798
-0.005503627
4.4975223E-4
0.0038060907
0.005381282
0.0060751345
0.004055351
0.004152554
0.003765301
5.9321517E-4
-0.001776705
-0.0012785293
0.0024693816
0.004214783
0.0027957822
0.0021817563
0.0029841915
0.0031329521
-8.872291E-4
-0.0051168217
-0.0049954355
-0.0036966486
-0.0027489099
-0.0019789534
8.538478E-5
0.0034519397
0.004257833
0.0017092703
-0.00145945
-0.005163611
-0.009272893
-0.006819038
-9.0292527E-4
-2.5745193E-4
8.941259E-4
0.0016714076
1.368295E-4
3.332373E-4
-0.0011542958
-0.0014942128
-0.0043789693
-0.008174483
0.0022787903
0.01869939
0.030897396
0.028681139
0.005552704
-0.015533236
-0.02561722
-0.0220978
-0.007045475
-0.005293929
-0.008564855
-0.0030078725
0.0038045147
0.014478278
0.0200484
0.014109155
0.0013909988
-0.0135326
-0.018628988
-0.015251936
-0.00571925
0.005763625
0.00851884
0.015422218
0.023523198
0.011720658
-0.009545128
-0.020199563
-0.01636701
-0.008669534
-0.0042837695
9.134739E-4
0.007130176
0.0153291
0.017293554
0.0020238971
-0.012923536
-0.013113512
-0.008790764
-0.0026558598
0.006036748
0.009848337
0.009017215
0.003433372
-0.005050609
-0.004061905
-5.872249E-4
-0.003710897
-0.0023652385
-7.526521E-4
-7.5681164E-4
0.0057779434
0.0061089015
0.0012909909
0.0043714126
0.0042694756
-0.002620708
-0.00643282
-0.007925814
-0.007795869
-0.004949436
-9.5825776E-4
0.004019975
0.0056349654
0.0028534837
0.0036759155
0.006417764
0.003264631
-0.002492152
-0.0047358805
-0.002427064
0.0010159902
0.0021841854
0.0018545096
2.956024E-4
-1.3002935E-4
0.0013509644
-0.001787631
-0.0073465686
-0.0072608255
-0.0031144898
0.0013605449
0.0036012162
0.0026399686
0.0022880628
0.0027974574
0.0014711685
-0.0012311636
-0.004611665
-0.0061013238
-0.0032743816
0.0010960399
0.0048148464
0.0066046445
0.0058871033
0.005199769
0.0017559137
-0.0056035295
-0.008577794
-0.0057615135
-0.0031611915
-0.0026670105
-8.791266E-4
0.0065256082
0.014344292
0.0132509805
0.001683605
-0.013858899
-0.019498881
-0.010391597
0.0029179794
0.016295584
0.026540473
0.018280083
-0.0059884395
-0.017331365
-0.008195427
0.001258155
0.005144172
0.005704924
0.0012475102
2.981461E-4
1.0126394E-5
-0.009324475
-0.013583289
-0.0076074237
-0.004793086
-0.0044921925
-0.0042048567
-0.004927101
-0.0022721656
0.0018873912
0.0030171096
0.0011773324
6.668162E-4
0.004147997
0.0039602867
-0.0023689005
-0.0076848394
-0.010436697
-0.007633806
0.0034006787
0.014394139
0.022137001
0.029355725
0.025627073
0.0050446047
-0.01362945
-0.01725123
-0.014563432
-0.009398856
-1.0696171E-4
0.0049361773
0.004217301
0.006001934
0.0042822617
-0.004653179
-0.007110511
-0.0051532583
-0.008842327
-0.010216454
-0.004788036
0.003752855
0.009943004
0.0071212905
0.0032881296
0.0054035513
0.0047996603
9.0560416E-4
-0.0013863285
-0.0040472583
-0.005126758
-0.0035858273
-0.0029113286
-0.0021484224
-0.0017509122
-0.002860634
-0.0044993595
-0.008038572
-0.009744444
-0.0060576256
4.663427E-4
0.0074881017
0.009799506
0.0077281133