0.14778496
0.193886
0.200047
0.16088308
0.1357099
0.14355104
0.15281697
0.13377084
0.09086231
0.03503633
-0.05766943
-0.1663922
-0.23025903
-0.26416513
-0.28736946
-0.28126094
-0.2598731
-0.23871988
-0.21211849
-0.17583658
-0.14388724
-0.11273512
-0.048060957
0.020841684
0.06112389
0.11586824
0.1912173
0.25002655
0.28045532
0.2863703
0.25861898
0.1970493
0.16891068
0.18876606
0.17676046
0.16101953
0.18003939
0.12312981
-0.043128002
-0.20791176
-0.30330122
-0.3187672
-0.27592003
-0.24648304
-0.2610778
-0.26878762
-0.21704793
-0.09827895
0.026921185
0.0879802
0.109564364
0.14746752
0.21209033
0.27734795
0.2866076
0.23302166
0.14761016
0.042624604
-0.008234531
0.03863666
0.08388471
0.05839221
-0.010344212
-0.12246315
-0.25405428
-0.2866199
-0.22832707
-0.22488497
-0.23916751
-0.19659688
-0.18018883
-0.18041635
-0.14533849
-0.091598116
0.010664193
0.13286765
0.2021264
0.22976616
0.23617007
0.22597867
0.21379103
0.21246873
0.20302358
0.13501203
0.026414968
-0.04363976
-0.05426408
-0.044444367
-0.04038457
-0.033810765
-0.024980651
-0.05148661
-0.122363344
-0.17532872
-0.1714952
-0.13990505
-0.098508246
-0.05001217
-0.023298474
-0.022530261
-0.0068970853
0.01629111
0.027543886
0.073322244
0.13034923
0.15291171
0.1812557
0.18970785
0.1664593
0.15802436
0.122843884
0.05434221
-0.017240956
-0.09649734
-0.15855302
-0.19304304
-0.18097413
-0.14639735
-0.15442277
-0.14642559
-0.08926772
-0.03249052
0.0308206
0.09032227
0.10415729
0.043248832
-0.06217589
-0.11983533
-0.11508584
-0.077439286
-0.033937767
-0.04318055
-0.07291891
-0.04175744
0.025366992
0.07211548
0.089195214
0.07903458
0.05153876
0.028097318
0.024182322
0.03229498
0.023372475
0.010705948
0.034480598
0.06592795
0.079116955
0.091342926
0.09049064
0.08322
0.0806383
0.0642419
0.055215713
0.06262312
0.060597375
0.060484502
0.06528209
0.044014163
1.4755788E-4
-0.026505182
-0.031780303
-0.04571816
-0.055983894
-0.051945858
-0.07735039
-0.1248806
-0.13934842
-0.122530915
-0.09285872
-0.06343549
-0.0633584
-0.075579375
-0.061779253
-0.03331424
-0.016687522
-0.021618547
-0.036875512
-0.040580973
-0.028634211
-0.014246358
-0.01674059
-0.028719593
-0.02924139
-0.031877726
-0.020166457
0.046141494
0.12214024
0.14489035
0.13014883
0.116526514
0.10960359
0.09651884
0.08000246
0.06966974
0.059333052
0.046849225
0.036885787
0.03283203
0.03579014
0.034118496
0.023607163
0.015639925
0.01651303
0.020939436
0.0143455835
-0.0035692703
-0.018326426
-0.02954595
-0.044062834
-0.06587381
-0.08672957
-0.07628095
-0.03406826
-0.0035014132
0.0081446655
0.01904587
0.019369742
0.01676446
0.022016227
0.012459673
-0.011651741
-0.03472958
-0.055291563
-0.067213476
-0.07519775
-0.0829634
-0.07914267
-0.067380905
-0.055584997
-0.040781848
-0.026595278
-0.019955678
-0.01659023
-0.009999826
-0.004544858
-0.0020015037
0.003847912
0.009826852
0.01064979
0.011982846
0.015196912
0.01609134
0.01789826
0.021132119
0.022092216
0.021525458
0.022752032
0.03437503
0.054996613
0.078776404
0.10499759
0.09776925
0.043179266
5.7163957E-4
-0.012205603
-0.019670716
-0.013549397
-0.0017285593
0.008426722
0.029453162
0.0436409
0.042631537
0.04068074
0.047138933
0.06876455
0.09259672
0.11877795
0.12389438
0.038974073
-0.08132784
-0.14049947
-0.17974196
-0.2083806
-0.18923822
-0.1667626
-0.15731801
-0.13841122
-0.11461037
-0.0862747
-0.06186944
-0.045032457
-0.03326021
-0.032379474
-0.023294453
-0.009964723
-0.011586009
0.0011808979
0.027431684
0.037722073
0.048839703
0.07243171
0.103575096
0.13641469
0.1487312
0.13587974
0.107531264
0.07962313
0.07250333
0.074689105
0.07272192
0.060438104
0.029347444
0.005051165
0.0031029778
0.0035538075
-0.004520789
-0.019633044
-0.034102153
-0.04434489
-0.04534394
-0.032920986
-0.021729426
-0.017099798
-0.016634474
-0.017342439
-0.014455809
-0.01816335
-0.02529711
-0.03598765
-0.05559912
-0.068228476
-0.08227879
-0.08672806
-0.05604743
-0.03043227
-0.021700367
-0.00471545
0.0017081749
-0.003054976
-3.5884744E-4
-1.652626E-4
-0.0041670892
0.002264113
0.018297968
0.034076065
0.045580633
0.047826424
0.042222727
0.031935424
0.022154825
0.026720399
0.025198624
0.0039771902
-0.0024629568
0.005622794
0.016498957
0.035375535
0.03780275
0.024631679
0.010057011
-0.013613012
-0.020995067
5.26891E-4
0.018407462
0.016751729
0.012312218
0.02175915
0.024431413
0.0075088367
-9.556958E-5
0.0015990477
-0.0045748455
-0.0077982256
-0.005254829
3.9480047E-4
0.01050596
0.012180059
0.0034095612
2.3971051E-4
0.0019895504
-0.0039686463
-0.014562231
-0.018743929
-0.013684698
-0.006189721
-0.004968656
-0.0056913313
-0.0022048508
4.3521973E-4
0.0056874
0.016264223
0.018894423
0.012090551
0.007506455
0.0060464432
0.0026605476
-0.003068446
-0.007566832
-0.008836949
-0.009515586
-0.010196838
-0.009263194
-0.009334474
-0.011745678
-0.012870726
-0.0121971015
-0.01247357
-0.0135495635
-0.013793516
-0.0115181245
-0.0058144
-4.8419603E-4
6.5039727E-4
9.342469E-4
0.002153538
0.0021273433
0.004548837
0.009411839
0.010321453
0.011428182
0.016632363
0.018885167
0.018897867
0.020875359
0.022134336
0.02388036
0.022661304
0.011831172
2.862131E-4
-0.0047334405
-0.0070074303
-0.0075050476
-0.0077049346
-0.007956362
-0.007166865
-0.0074774195
-0.0074478723
-0.006229395
-0.006174979
-0.009602327
-0.016723163
-0.017534915
-0.010135748
-0.007491625
-0.0075306157
-0.0040578996
-0.003082307
-0.0050835507
-0.008698413
-0.011156202
-0.0047517545
0.005847973
0.011111107
0.009937341
0.005227511
0.004605325
0.011122159
0.015312697
0.007844021
-0.004410806
-0.0057671783
0.001717733
0.007013539
0.009488234
0.010335005
0.013789523
0.01731851
0.009918247
0.0025025695
0.005189853
8.5654174E-4
-0.015060677
-0.023197932
-0.014686377
2.0712285E-5
0.009712668
0.009041778
-0.0025673185
-0.015086494
-0.018823335
-0.01459697
-0.008584794
-0.008489599
-0.010837858
-0.006542742
-2.9043577E-4
0.0017449073
0.003040797
0.0069044246
0.009183827
0.0053869085
0.0022314547
0.0041918936
0.0055720042
0.005544666
0.0040058233
0.0014903137
0.006007885
0.015874771
0.022133844
0.02333553
0.018306943
0.0066221827
-0.010195456
-0.024908014
-0.02301598
-0.010848415
-0.005874294
-0.005269534
-0.0042110863
-0.002915965
-0.001231767
-0.0023187299
-0.004391407
-0.0069786585
-0.009410072
-0.0084681995
-0.0064051244
-0.0014457443
8.846228E-4
-0.004695797
-0.0044028587
-8.956076E-4
-0.0039005592
-0.0037224982
-7.8500895E-4
-0.0011973947
-0.002766963
-0.004289841
-0.0027349154
7.3999376E-4
0.002517415
0.0037413423
0.0051557645
0.0052943593
0.0017207
-5.4202E-4
0.0025239668
0.0031169017
0.0017757071
0.003885115
0.0068069254
0.0111139305
0.014333955
0.012764048
0.011885368
0.013094714
0.012899473
0.0109999655
0.008418155
0.006533978
0.0046771993
0.0012872153
-0.0028500592
-0.0056873253
-0.009364601
-0.015354793
-0.016281005
-0.012476135
-0.011006678
-0.009603351
-0.008047801
-0.0065486277
-0.003906501
-0.0046825674
-0.00626752
-0.0042387242
-0.0012396654
0.00122959
0.0028184971
0.003899295
0.0027519928
-6.6431455E-4
9.760257E-4
0.010998521
0.021096319
0.020161036
0.014392107
0.01604119
0.015360768
0.004169607
-0.007785713
-0.0138290245
-0.014702667
-0.014502732
-0.015154535
-0.014280916
-0.011011833
-0.0071870144
-0.0062865997
-0.0063539445
-0.0040016733
-0.0024547616
-0.0023214826
-0.0014341909
0.0010816073
0.003787913
0.0034276976
0.004313228
0.00917852
0.012193392
0.012619149
0.010125214
0.0031867845
0.0018949005
0.011178256
0.015443398
0.00932189
0.0071445876
0.008786688
0.0070541115
0.0058282195
0.0021533072
-0.0047142035
-0.006809975
-0.0065381876
-0.007103663
-0.0061781527
-0.0057051377
-0.009103773
-0.013978425
-0.01143457
-0.0028058128
0.001705359
0.003625194
0.0057843947
0.006233422
0.0045067514
-0.0018670493
-0.007254546
-0.006519361
-0.007081807
-0.008336153
-0.006862149
-0.0069088875
-0.006096173
-0.0035559696
-0.003342185
-0.0029268514
2.293873E-4
0.0062836567
0.012143978
0.0112046115
0.005928033
0.0013424135
-0.002724562
-0.0046332204
-0.0053867633
-0.0046491395
-5.8611954E-4
0.0019581805
0.0025882951
0.0034739033
0.005788692
0.011247911
0.013712043
0.012206814
0.009829309
0.0047114682
-0.0036908016
-0.019556843
-0.027952613
-0.011150204
0.004664736
0.0027175525
1.7833055E-4
0.0019545034
0.0053231474
0.008643429
0.007980296
0.0014187214
-0.0070026894
-0.007326822
-0.0022951057
7.4868015E-4
0.0024648309
0.0021727316
0.001628481
-8.000196E-4
-0.0036657788
-9.222453E-4
-0.0014050391
-0.0060763136
-0.0059291814
-0.004430493
-0.004914273
-0.00962932
-0.017023178
-0.019872405
-0.019893348
-0.018953685
-0.01572843
-0.011959244
-0.00656767
0.0010561629
0.0071912105
0.009504185
0.010015428
0.010168174
0.009340836
0.008137508
0.007209127
0.0072375843
0.0075518955
0.008433494
0.010535194
0.0076891333
6.7215104E-4
2.8710147E-5
0.005603844
0.010822897
0.012884861
0.0077108
-0.0054834955
-0.014423771
-0.011026488
-0.007216374
-0.010219745
-0.014580446
-0.014489808
-0.007830561
-0.006032834
-0.0092225075
-0.0036383178
-2.315542E-4
-0.004154982
-0.0016547691
0.0041854763
0.012238481
0.022769207
0.022873491
0.014726821
0.0042241123
-0.0111175915
-0.019343667
-0.015264525
-0.010651011
-0.006207083
-0.0014585345
1.3117194E-4
0.002519617
0.0034331365
-4.642816E-5
-0.0032396193
-0.0056586317
-0.0071563413
-0.0061330786
-0.004227992
-0.003913453
-0.004277347
-0.0018601079
0.0012443234
0.0020504089
0.0024306006
0.0034580291
0.0039865235
0.003664724
0.004819819
0.004954641
0.002223739
0.0017460855
0.0015852757
0.0027861786
0.0086211255
0.010193549
0.0066763028
0.0034409217
9.6949807E-4
-5.5549408E-5
-0.0047352593
-0.011376427
-0.010630895
-0.0062949653
-0.006811186
-0.010547962
-0.011586674
-0.011524754
-0.013609806
-0.014591573
-0.012772054
-0.008385004
-0.0037364129
-0.001154419
0.003583023
0.010509121
0.0147172
0.017694054
0.020892862
0.020180805
0.017079744
0.01606929
0.013365173
0.009150685
0.0051910114
-0.0030063186
-0.010418945
-0.011967139
-0.013313015
-0.01781816
-0.021373177
-0.018052531
-0.013188595
-0.010007874
-4.8875215E-4
0.010235158
0.014629172
0.017766405
0.02102451
0.02136134
0.018176444
0.013554301
0.010531203
0.010866132
0.013006342
0.013036566
0.011587669
0.00941596
0.004475006
-0.0013017083
-0.0038177897
-0.005714208
-0.017138278
-0.03345797
-0.042729013
-0.052251935
-0.061327133
-0.05921627
-0.05168415
-0.045253526
-0.04200025
-0.041000575
-0.033588026
-0.013608057
0.016295549
0.047780354
0.0757434
0.09778115
0.11866058
0.13554043
0.120317996
0.07561195
0.022427296
-0.04296714
-0.07986636
-0.060394984
-0.044517457
-0.053104743
-0.051308915
-0.03692809
-0.020688264
-0.011389132
-0.01958513
-0.044416267
-0.0671378
-0.05208436
0.0027717343
0.04657245
0.04881781
0.03412949
0.03420778
0.040625963
0.03393499
0.034842715
0.0482929
0.044327274
0.033414055
0.020944871
0.002917156
0.016276095
0.026980078
-0.0051495065
-0.01791106
-0.030039072
-0.09659486
-0.15266483
-0.16508788
-0.16295634
-0.13916637
-0.08904028
-0.031171951
0.006155715
0.015303334
0.027606945
0.05423584
0.0822622
0.11790735
0.15223001
0.15302496
0.12989447
0.10781747
0.06868538
0.019125642
0.0082532065
0.032002352
0.040600926
0.024400543
0.011033833
0.011631435
0.013183598
-0.006739518
-0.05724915
-0.10910602
-0.12770931
-0.11553797
-0.09998779
-0.10128911
-0.10883457
-0.10383826
-0.09361198
-0.08226414
-0.05711385
-0.019011585
0.032410625
0.09194333
0.12775898
0.14509706
0.16830796
0.16604804
0.12239233
0.07237059
0.042173453
0.029615158
0.011808659
-0.0024065098
0.010099879
0.021640593
0.017646201
0.01559411
-5.709433E-4
-0.057321515
-0.1269416
-0.16586159
-0.20740283
-0.267409
-0.26214895
-0.18160975
-0.11816584
-0.09462377
-0.05790624
0.0038126148
0.042810775
0.052306894
0.06936708
0.07226741
0.039562583
0.03859034
0.091685064
0.12336836
0.14720273
0.20992327
0.21413688
0.117064245
0.023520013
-0.016729686
-0.013529365
1.5674837E-4
-0.0154750515
-0.016778545
0.0012907822
-0.030043177
-0.07844252
-0.10496566
-0.12621345
-0.117505975
-0.105577394
-0.1038103
-0.05663414
0.0035077312
0.067620404
0.14735669
0.17246072
0.17188267
0.19867861
0.21480519
0.17334667
0.038640175
-0.08675748
-0.0838797
-0.023460733
0.023944523
0.04607572
0.03608669
0.025477773
0.0039605973
-0.06472202
-0.16102716
-0.2448874
-0.32935497
-0.4233655
-0.42951596
-0.3164192
-0.19504887
-0.08953621
0.028956564
0.09432824
0.06300719
-6.2443607E-4
0.007619199
0.12054779
0.2476008
0.2994847
0.2786603
0.18470778
-0.008852586
-0.20103441
-0.17892595
0.04937421
0.26867554
0.41206148
0.45163804
0.34873065
0.24933176
0.22590576
0.15976228
-0.045292005
-0.3159735
-0.40569478
-0.2947366
-0.1938084
-0.12706223
-0.068239905
-0.03738145
-0.048199795
-0.11600658
-0.10893144
0.0014583659
0.04262685
0.019554587
0.015565576
0.001459611
-0.034629565
-0.062442318
-0.06657177
-0.045175694
0.020472087
0.09298856
0.103729986
0.08551508
0.052701134
-0.01723907
-0.06667571
-0.063957505
-0.03260924
-0.0013156203
0.008737436
0.01562641
-0.0024819048
-0.06433831
-0.09634588
-0.07789994
-0.04920711
-0.0225
-0.01640908
-0.018775972
-0.022035
-0.0572883
-0.08068185
-0.04154946
0.022981016
0.069296286
0.08024714
0.077774234
0.102750525
0.15397263
0.20697851
0.22152324
0.17615701
0.13495985
0.14137681
0.119921125
0.031555053
-0.046698228
-0.079695694
-0.101732105
-0.11417639
-0.10103929
-0.0702567
-0.03350918
0.016711222
0.07245715
0.107372455
0.13026983
0.105151094
-0.048147697
-0.24586785
-0.30438697
-0.22366399
-0.15000056
-0.13226016
-0.11468131
-0.073391154
-0.02701591
0.003226969
0.015167984
0.02386189
0.023750287
0.011210332
0.006621891
0.016201055
0.02891559
0.032766495
0.024114639
0.012158636
0.007991989
0.010520267
0.007827277
0.00978509
0.029357322
0.04850501
0.05587722
0.05425659
0.051611744
0.051956948
0.03734167
0.022803271
0.040051106
0.062153142
0.054102115
0.027686002
0.012418221
0.0024277116
-0.026094638
-0.054440342
-0.06637836
-0.0660792
-0.04090141
-0.005023434
0.010246419
0.002904874
-0.013873277
-0.021464685
-0.013842678
-0.0037278011
-0.0034904606
-0.008634619
-9.231895E-4
0.010855646
0.0066377753
-0.0030023581
-0.0071224687
-0.010639577
-0.016214361
-0.016992753
-0.0068038767
0.0054095294
0.010173583
0.007557988
0.0066724997
0.013136607
0.014065375
0.009402414
0.008196698
0.0042483974
0.0026484914
0.010872678
0.021839043
0.02914808
0.0314262
0.033141673
0.035752382
0.039709307
0.040618047
0.02684734
0.013404012
0.014918288
0.012631995
1.3482617E-4
-0.008656598
-0.010843159
-0.014999724
-0.017306421
-0.005656811
0.010074951
0.017504867
0.0193843
0.023266481
0.033612214
0.037898693
0.035220083
0.036773708
0.035078682
0.024131957
0.004347946
-0.018597705
-0.033253442
-0.039440446
-0.042553656
-0.045525067
-0.048465393
-0.051204465
-0.0457359
-0.031906843
-0.030069932
-0.027829515
-0.008093989
0.0045644604
0.0027846722
-0.0058625904
-0.019564288
-0.02308296
-0.010021234
0.006804573
0.016104503
0.01742226
0.005386118
-0.018289424
-0.030843943
-0.025661571
-0.009166957
0.020357179
0.051344767
0.03968748
-0.026700601
-0.073288
-0.067775376
-0.05809139
-0.05678504
-0.045788974
-0.012148919
0.030885058
0.07287288
0.12405807
0.15164168
0.15052277
0.15171091
0.14353637
0.11731471
0.09044878
0.100354984
0.13205993
0.16695532
0.22712271
0.19180977
0.03128624
-0.086108014
-0.15763661
-0.20794788
-0.21521302
-0.24680178
-0.27572918
-0.2614342
-0.23265903
-0.19715548
-0.18232346
-0.16939165
-0.13301888
-0.104136996
-0.082781434
-0.05998311
-0.029725993
0.007844304
0.041085653
0.07622881
0.10613898
0.12796056
0.14982858
0.16856898
0.18441007
0.18764232
0.17843035
0.16714603
0.1495089
0.1263106
0.10097728
0.07752493
0.054120313
0.024086064
-0.0032104277
-0.023092374
-0.039366852
-0.05000295
-0.054513097
-0.05460458
-0.052433193
-0.048706263
-0.044542164
-0.038877994
-0.03162844
-0.027798349
-0.025121931
-0.024224684
-0.02784651
-0.030442778
-0.033432823
-0.038579043
-0.042993087
-0.044904523
-0.04287105
-0.041431766
-0.040463455
-0.03625801
-0.03200389
-0.025499837
-0.013277362
6.2552816E-4
0.012585812
0.018322693
0.019070873
0.024967786
0.03259812
0.039108254
0.04863115
0.0451408
0.029459616
0.02321207
0.022139175
0.020292439
0.018891834
0.017261064
0.020762634
0.024650207
0.026430355
0.026558924
0.019290647
0.012833919
0.010852217
0.008856783
0.009780203
0.010770278
0.007994454
0.0027077165
0.005190085
0.019859312
0.027499354
0.022875277
0.016600143
0.008368674
-2.7842546E-4
-0.007600889
-0.011307796
-0.0069504785
-5.226899E-4
0.0016867331
8.237864E-5
-0.003962049
-0.010012294
-0.015373634
-0.01426872
-0.0082792705
-0.0036588444
-0.0016148743
-5.1503495E-5
0.0026066916
0.006017188
0.008708285
0.0074084518
0.004624646
0.0060265223
0.00676259
0.004711643
0.003394858
0.0011730754
-6.874756E-5
0.0011217099
0.002389527
0.00508764
0.005301313
-2.7126246E-4
-0.0026786723
-0.0027124877
-0.0071441196
-0.006663213
-0.002310366
-0.0020803662
-0.0029461833
-0.013062318
-0.025675638
-0.022360282
-0.014564605
-0.010669626
-0.009668181
-0.011037255
-0.0075966
-0.0057309303
-0.0030209967
0.00620463
0.0100371735
0.013806713
0.021418555
0.021885755
0.011077795
-0.0056189056
-0.010006054
-0.0055220956
-0.010715452
-0.020571662
-0.024377484
-0.01008564
0.01436369
0.024895675
0.027171161
0.022344537
0.0047866073
-0.009267286
-0.012599878
-0.007348811
-0.0026155221
-0.005903442
-0.007264901
-0.00800751
-0.010955891
-0.014902465
-0.024350816
-0.022034913
-0.003947687
0.006585448
0.008899118
0.0075780856
0.0028016395
0.0038881425
0.0055087847
8.467486E-4
-0.002315691
-0.0043451786
-0.009357629
-0.010120206
-0.00437279
-0.0014672152
-0.0014729409
4.9355195E-4
-1.940046E-4
-0.0028417245
-0.00112079
0.00487424
0.010075956
0.009355819
0.007139921
0.0069488417
8.279181E-4
-0.010948047
-0.017166236
-0.015864592
-0.013145815
-0.008627963
-0.004204376
-0.0044213776
-0.001970273
0.0037082273
0.005221551
0.0042733094
0.0032436256
0.0067725256
0.013044446
0.0126475645
0.005673025
-0.0039428207
-0.00857699
-0.0072301887
-0.0053185015
-1.9876687E-4
0.0070103044
0.017893597
0.021912701
0.0030994143
-0.015899843
-0.016231416
-0.006901463
-0.0055597294
-0.018723188
-0.019089557
-0.009461353
-0.009885049
-0.0038491485
0.0020701378
-0.003251398
-0.01528828
-0.029792015
-0.023274882
-0.0046133916
0.0066355895
0.017384388
0.018594058
0.012116795
0.0014309983
-0.009905261
0.0020898946
0.018558541
0.014434975
0.007546191
0.008081094
0.012526253
0.015815536
0.01621116
0.009364927
-0.006238319
-0.013757931
-0.012741948
-0.009921418
-0.0026465002
6.820869E-5
-0.0010439925
-0.0030771475
-0.0076848073
-0.008104791
-0.009638448
-0.014132684
-0.01631641
-0.016197894
-0.007882994
0.0032642714
0.009372085
0.011887588
0.0075559267
0.0024722025
0.0016898636
8.411488E-5
-0.001027114
-0.0012228041
0.0011090046
0.007169913
0.008435509
0.0015449965
-0.0070226435
-0.010201223
-0.007209807
-0.0019523777
0.0031842522
0.007027469
0.011107274
0.012204332
0.0061073946
0.0021928288
0.0044006333
0.0024638618
-0.0073184436
-0.013487291
-0.003911406
0.009168801
0.0106550595
0.0057475623
-0.00823337
-0.023853982
-0.019098202
-0.008280123
-0.0060483865
0.003294316
0.0135508
0.0072672255
-0.0064147334
-0.013528048
-0.014062395
-0.011073097
-0.004978278
-8.8531856E-4
-7.718815E-4
0.00324466
0.010026214
0.011810011
0.010841666
0.008651934
0.006371791
0.0102060335
0.01726089
0.02198298
0.022735942
0.015949909
0.0034286955
-0.011814313
-0.022714324
-0.019363761
-0.012936136
-0.01418266
-0.013949514
-0.008134093
-7.1556895E-4
9.872136E-4
-0.0040272987
-0.005396443
-0.0055529913
-0.009300519
-0.008041798
-0.0025356186
-1.5360904E-4
0.0011152124
0.003689181
0.004103731
0.00251699
0.0039168624
0.006600255
0.0069753192
0.007536011
0.006963479
5.413716E-4
-0.005427041
-0.0023021083
0.0015530606
-2.4688416E-4
-4.5050425E-4
-8.127963E-4
-0.0035164203
-0.0045158197
-0.005194214
-0.0025718324
5.115478E-4
-0.0028182233
-0.0036474837
-5.794169E-4
-1.7760253E-4
5.98114E-4
0.0017370114
0.0043686824
0.009165169
0.010281783
0.0064037074
-0.0029156706
-0.009709248
-0.004112161
0.0027781632
0.0049417038
0.007668597
0.0063270805
1.0814747E-4
-0.00720875
-0.010785543
-0.0057442966
-8.7005744E-4
-5.5311667E-4
5.240058E-4
-1.1913036E-4
-0.0021528353
-0.0029821156
-0.005080159
-0.007161931
-0.0062929713
-0.0036195752
-0.0017070703
1.895402E-4
0.0014555032
4.689528E-4
0.0030058236
0.008743869
0.008878132
0.004735085
0.0026367093
0.0019888447
-0.0012579056
-0.004848912
-0.0033096352
-2.6171494E-4
-4.7187062E-4
-0.0023533788
-0.0040158364
-0.0044723437
-0.003963172
-9.517222E-4
0.0036338943
0.0042502256
0.0040209736
0.0052770604
0.0020598953
-0.0028512022
-0.0036001164
-0.0011007244
0.0016058045
0.0010396001
3.4060818E-4
0.0034791138
0.0058283205
0.00633129
0.0077534127
0.008651707
0.010715478
0.012928423
0.0061199176
-0.0037010226
-0.0032571992
-0.00449936
-0.011526755
-0.0059046233
0.0014506578
-0.0060913847
-0.012662106
-0.012849397
-0.014925778
-0.014738544
-0.011604011
-0.0066922395
0.006981048
0.02098935
0.02235129
0.022773765
0.016982162
-0.0059066387
-0.014936349
-0.008327085
-0.01069139
-0.008395079
0.0046691424
0.019909149
0.026315454
0.011150747
-0.010262246
-0.027605679
-0.035786107
-0.023866937
-0.009538333
-0.0014933518
0.0070582177
0.007913985
-0.0011416662
-0.00915615
-0.0031966274
0.008569307
0.012276926
0.010513481
-6.2778784E-4
-0.016117824
-0.020636385
-0.0026369593
0.033602167
0.052388504
0.051120747
0.050634984
0.041949835
0.027352454
0.0053312685
-0.024494486
-0.04254802
-0.051992536
-0.05093275
-0.037309792
-0.02758152
-0.01944808
-0.012341255
-0.008042882
-7.386887E-4
0.0054820515
0.0075671184
0.0022098136
-0.0055114445
-0.008658054
-0.01744502
-0.02804198
-0.026009664
-0.016492758
-0.005703398
0.007920843
0.014488708
0.016474264
0.032667376
0.051884193
0.06121987
0.060865365
0.0449734
0.03352185
0.032535076
0.0258354
0.019445777
-0.0016761167
-0.045056444
-0.08040333
-0.10042562
-0.1058643
-0.08942315
-0.06609057
-0.0401343
0.014246054
0.08310297
0.12301995
0.13654445
0.13090727
0.10786649
0.08660391
0.07333607
0.08149621
0.08810587
0.049809586
-0.0016068735
-0.06048612
-0.1373929
-0.1658556
-0.13950351
-0.11294698
-0.09632242
-0.09985396
-0.11217953
-0.10090547
-0.08999919
-0.09069824
-0.070609495
-0.0414388
-0.043345638
-0.08328267
-0.1122774
-0.08684784
-0.04443257
4.0301157E-4
0.08574802
0.19278347
0.2848394
0.34864008
0.36465988
0.33931676
0.31569698
0.2897542
0.20588844
0.07705716
-0.07125841
-0.22398731
-0.2790271
-0.22317222
-0.14356667
-0.063447624
-0.03286617
-0.06970567
-0.12136033
-0.18251877
-0.20241131
-0.12653075
-0.04718058
-0.051297896
-0.068555325
-0.04859393
-0.054178182
-0.06815099
-0.0337786
0.03978956
0.1248207
0.14313509
0.10116496
0.0752697
0.039006196
0.006432859
-0.0107775545
-0.047734395
-0.044612877
-0.01446983
-0.021809468
-0.023026751
-0.0034706788
0.015525593
0.024338895
0.0069979466
0.0028924246
0.039840456
0.06259295
0.042322434
0.01481948
-0.009411321
-0.042478297
-0.06702249
-0.068415396
-0.050983727
-0.020793846
0.012123315
0.037842285
0.04096004
0.010087453
-0.033085015
-0.056062818
-0.063009985
-0.06340854
-0.042114377
-0.00974846
0.0298231
0.084827125
0.0980959
0.058457423
0.037304405
0.037449498
0.03000146
0.018198209
0.006971019
0.020319112
0.0722196
0.13789889
0.18507016
0.192086
0.13348247
0.0010983921
-0.12768185
-0.17717806
-0.18244068
-0.17151214
-0.108096
-0.013555142
0.027299896
0.011331911
0.001599829
-0.007872328
-0.04127681
-0.08792363
-0.12318898
-0.11132925
-0.07771829
-0.06071687
-0.054611787
-0.06469834
-0.06963298
-0.05188907
-0.030891301
-0.02964814
-0.05104375
-0.03257707
0.00790377
0.004182673
0.0055289906
0.011247114
0.05434658
0.20425485
0.30726182
0.27819607
0.22347382
0.18286042
0.16254576
0.14311041
0.10276415
0.07069691
0.048997115
0.032861356
0.014805742
-0.0099060275
-0.020091295
-0.023606097
-0.035505466
-0.056532264
-0.079997994
-0.09252395
-0.10140183
-0.11297903
-0.12655146
-0.13811953
-0.14081798
-0.1463868
-0.15328422
-0.1426871
-0.11489727
-0.08331803
-0.04469051
0.0120552685
0.06455754
0.09494839
0.111359306
0.112576954
0.10542377
0.09192849
0.067839414
0.048801776
0.04272455
0.041489534
0.038264714
0.03673345
0.03799021
0.038653806
0.04134867
0.042339336
0.048950482
0.06070109
0.07074895
0.089587696
0.07093134
-0.004528465
-0.055041533
-0.06489061
-0.07304576
-0.07694189
-0.07771137
-0.078294255
-0.080033414
-0.08651796
-0.090795375
-0.09429819
-0.10063345
-0.106514804
-0.1067102
-0.09765055
-0.08230411
-0.06554594
-0.046976224
-0.0187471
0.015475074
0.048882056
0.08215891
0.09769203
0.09668085
0.1091676
0.1336913
0.15078713
0.15360267
0.14360964
0.13302672
0.13580874
0.14734712
0.15245429
0.15233059
0.15287939
0.15245275
0.11597548
-0.008952528
-0.15882643
-0.23504342
-0.26447263
-0.25351882
-0.19061276
-0.1727417
-0.21986711
-0.23490322
-0.20302072
-0.16792677
-0.13872655
-0.11380354
-0.089449175
-0.07370411
-0.076314904
-0.06086461
-0.011649826
0.033375647
0.07103787
0.109188125
0.13544919