-0.0014609974
0.0024193956
0.0057989894
0.0074608168
0.004903074
0.0026177948
0.0015468221
1.2325548E-4
-4.969008E-4
-0.0010538695
-0.001179768
2.3080052E-5
0.002729475
0.0035277107
0.0012491392
7.573537E-4
-0.0010750007
-0.0040768734
-0.003971225
-0.0056127086
-0.0056660487
-0.0015382834
0.0018838032
0.0048296684
0.0028742526
-0.0020421909
-0.0025175677
-0.0023849038
-0.003088012
-0.0028488806
-0.0013132789
0.0013046004
0.0032131248
0.0053988025
0.0048817117
6.437226E-4
-0.0022318945
-0.0040234826
-0.0043889377
-0.0031250932
-0.0015086354
0.003100515
0.007718855
0.0074554603
0.0045860484
0.0021469798
5.7642043E-5
-0.0026981256
-0.0046664276
-0.0038176703
-0.0011874882
0.0015941305
0.004204506
0.0058770115
0.0047595683
0.0010781619
-0.0023016708
-0.0041634403
-0.0052931504
-0.0047177398
-0.0021672389
-4.4215732E-4
6.98929E-4
0.0023224545
0.0024232739
0.0010081688
-7.05797E-4
-0.001727791
-0.0026401882
-0.004190799
-0.0033379938
-3.8049897E-4
0.0026024783
0.004823983
0.0030202647
-8.767247E-4
-0.0028816136
-0.0038279544
-0.003977692
-0.0023067368
7.634667E-4
0.002072296
0.0022552833
0.004249061
0.0052248253
0.0037641227
4.067594E-4
-0.0031540117
-0.0036660759
-0.0036594388
-0.003443984
3.2429324E-4
0.0037199543
0.0031348278
0.0025429027
0.002396249
-2.068866E-4
-0.001125931
-0.0018807217
-0.005834666
-0.004629188
3.995088E-4
0.0030627463
0.004767919
0.003312196
8.2507136E-4
-9.838275E-4
-0.0031615507
-0.002383968
-0.0014503659
-1.5963387E-4
0.0039708354
0.007482489
0.010404472
0.009884472
0.005323983
0.0010123308
-0.004469409
-0.009093435
-0.009763592
-0.0077952542
-0.004042939
0.0010060017
0.006471081
0.006498399
1.0917176E-4
-0.004996345
-0.0074074087
-0.007746075
-0.006046104
-0.0051383427
-0.0033
0.001617302
0.0048727947
0.0029237284
2.7531682E-4
-0.0016428623
-0.0044734236
-0.0029538462
8.011834E-4
8.7817456E-4
0.002468325
0.005783777
0.0072213537
0.008385005
0.0063882954
0.0018997613
7.22218E-4
8.8986044E-4
1.843967E-4
-1.6731476E-4
-9.586089E-4
-7.909059E-5
0.0034376709
0.0038389056
-2.056748E-4
-0.0033099898
-0.004154616
-0.004918511
-0.005371809
-0.0046252212
-0.0018596216
0.0019596396
0.0024878427
0.0010041677
0.0010364836
-5.030539E-4
-0.0021102945
-0.0016004001
-0.003301712
-0.0043829
-0.0018781578
0.0011842307
0.0048806653
0.004990298
1.8104573E-4
-0.0020010166
-0.0020361894
-0.0029751488
-0.0021275745
4.811165E-4
0.002210514
0.0027557404
0.0037833913
0.003875114
0.0017609077
-7.396754E-4
-0.0024651699
-0.0014231431
-5.171538E-4
-0.0020847134
-7.515398E-4
0.0017769124
0.002166621
0.0021897415
8.230871E-4
-0.0018213562
-0.0048651975
-0.0057534236
-0.0043428657
-0.0042197835
-0.0014580054
0.0042348756
0.007145041
0.0066443384
0.0037758974
8.0922083E-4
-0.0021152997
-0.0033135416
-0.0015168848
-0.0011820856
0.0010570702
0.005737883
0.0076424256
0.007618574
0.0034313123
-0.0017381236
-0.003273426
-0.0031525397
-9.678774E-4
-0.0014837714
-0.0023262466
7.821174E-4
-2.905941E-4
-0.0012326709
-3.2573246E-4
-0.004988256
-0.0075914073
-0.0062015275
-0.0065127034
-0.0052589425
-2.972701E-4
0.006031629
0.008863215
0.0063431943
0.0027469643
-7.603698E-4
-0.004045232
-0.003359962
-0.0011699094
-0.0016632054
8.585656E-7
0.003591489
0.0049275765
0.006608342
0.0055674617
0.0010455735
2.7887672E-4
0.0013348004
-6.491562E-4
-0.003012379
-0.0019119001
1.1993464E-4
-2.4607615E-4
-0.001313113
-0.0040081344
-0.005694666
-0.0027522924
-8.669305E-4
-4.3455538E-4
4.4044072E-4
-4.5457194E-4
3.4653582E-4
0.0042711985
0.0064730127
0.003258522
-0.0016055411
-0.0015255384
4.1086544E-4
-1.3914409E-4
-0.0011405296
-8.7627675E-4
8.8984624E-4
0.0023074404
0.0021262255
4.8494205E-4
-0.0023817108
-0.0034981845
-0.002817275
-0.0026717754
-0.0018304794
-2.6300462E-4
0.0024577314
0.006776276
0.0067570535
0.0018308681
-0.0016244322
-0.0038871542
-0.0049242573
-0.0033686906
-0.0025528653
-0.001283801
0.0019272334
0.0046155816
0.0049279793
3.1355838E-4
-0.0048250905
-0.0049390383
-0.0044767847
-0.0042983205
-0.0013900271
0.0012437889
0.0025102193
0.004642506
0.0057872008
0.004218964
0.002269523
3.2580693E-4
-0.0021407339
-0.0034072583
-0.0029975132
-0.001682891
4.4726876E-5
0.0025035737
0.004392459
0.002797186
-0.0010027852
-0.0037821028
-0.003812606
-0.001612157
1.429377E-5
6.419774E-4
0.0014090133
0.0038693126
0.007168454
0.0064238845
0.0019607309
-0.0022504355
-0.0038599817
-0.004062288
-0.0061579226
-0.005742205
-0.0010707647
0.0040427046
0.008697358
0.006345071
-5.540777E-5
-0.0010659086
-0.003226143
-0.0059499755
-0.0038995247
-0.0027641244
-3.1365122E-4
0.0037711046
0.002356081
-0.0014456721
-0.0030325954
-0.0036695853
-0.00522108
-0.0075794733
-0.006645656
-6.4342876E-4
0.0058554322
0.007683
0.004869204
0.0013089802
-0.0017751611
-0.0033244942
-0.0016538108
5.921617E-5
0.0019156893
0.0055495296
0.0060890825
0.004420109
0.0030081146
-6.061868E-4
-0.002029388
-1.8489241E-4
0.0010056501
0.0030035777
0.0046432465
0.007451238
0.011314389
0.008012788
0.0020013
-0.0011657845
-0.0067260955
-0.0122701265
-0.015753765
-0.017212102
-0.011935385
-0.004161763
9.398008E-4
0.004602349
0.0050281836
0.0037311707
0.0034615078
0.0015953841
-0.0023699456
-0.0053825253
-0.0040128287
4.5866065E-4
0.0039715543
0.0064741094
0.006184396
0.0041730227
0.0052826083
0.0045729214
-4.6478168E-4
-0.004335049
-0.006279848
-0.0040968983
0.0020768521
0.0052791745
0.004264848
7.2471553E-4
-0.0029830332
-0.0022157384
-1.3192213E-4
-0.0023550647
-0.004635689
-0.0018811631
0.0027326692
0.0047081145
0.002923039
-0.0014127345
-0.0045613423
-0.004070892
-0.0018156758
-6.9849467E-4
-4.9631385E-4
0.0012234052
0.0039744005
0.005541114
0.005043227
0.0027575225
6.0193514E-4
-0.0013693263
-0.004008623
-0.005505239
-0.0047319927
-0.0017707094
0.002134268
0.004661682
0.004471226
0.0018003166
-9.071221E-4
-0.0026838635
-0.0030033982
-0.0011181629
-0.0010295188
-0.0016144733
0.0021415749
0.004986029
0.0029726597
1.1576133E-4
-0.0026864521
-0.0053251158
-0.005313935
-0.0039521437
-0.0031869835
3.350739E-4
0.00583525
0.007503893
0.0053892
3.0425828E-4
-0.0048215333
-0.0040296214
-0.0023147594
-0.0032759234
-0.0010442247
0.002181655
0.003020581
0.0040557105
0.0040276977
0.0017354098
-0.0012234334
-0.0030103268
-0.0020754156
-0.0010062545
-8.879686E-4
0.0022994874
0.0068887793
0.00818362
0.0077238614
0.0043517146
-0.0029890973
-0.005645438
-0.003436928
-0.003959461
-0.0035560047
-2.8638993E-4
0.0028347375
0.00509314
0.0019683312
-0.0042239497
-0.0067021586
-0.0065293503
-0.0044659474
-0.0021695541
-0.001514993
-0.0015182438
-0.0014245847
0.0013572956
0.0022580326
-0.0019223092
-0.003695098
-0.0044295476
-0.005186883
-6.854193E-4
0.005611235
0.010610724
0.012591237
0.010571416
0.0071137673
0.002306033
5.982239E-4
0.002135384
-8.484036E-4
-0.005685637
-0.006516022
-0.0037137074
-4.8454327E-4
8.370694E-4
5.178821E-4
-0.0036018693
-0.008123027
-0.007473646
-0.0054956777
-0.003167639
4.7722784E-5
0.0018127421
0.0041041034
0.0065058367
0.0057942006
0.0015244391
-0.0030835778
-0.003942101
-0.0027856324
-0.0017289695
4.0119185E-4
0.004194721
0.009271925
0.012240063
0.010633757
0.005819008
2.0066567E-4
-0.003813406
-0.006227032
-0.0072053783
-0.00699311
-0.006306222
-0.0035707692
-9.4882445E-4
-0.0010261597
-8.6773717E-4
1.390529E-4
-1.6285681E-4
-0.0019114959
-0.0019452028
0.0010810964
0.003708598
0.0059668543
0.007907856
0.006996222
0.002777662
-0.006281177
-0.013142955
-0.009443839
-0.0047802953
-0.005153299
-0.0031478382
0.0020757404
0.004753495
0.0037040457
0.0020418635
-9.877057E-4
-0.0035223984
-1.6778775E-5
0.0031646749
0.002014649
0.002843736
0.004406163
0.004469079
0.003518558
4.6220067E-4
-0.0014188217
-0.0012063426
-6.296394E-4
-3.8753144E-5
-0.0020116847
-0.0013597378
0.0067847944
0.011385755
0.009247894
0.007888823
0.002667775
-0.0070423
-0.011660741
-0.01052659
-0.009196164
-0.009473899
-0.005506157
0.0023840866
0.0045601865
0.002837936
9.332317E-5
-0.003101975
-0.0011822408
3.4467637E-4
-0.0013617193
3.3963102E-4
0.005217165
0.009368307
0.0072386805
0.0011899167
-0.0016242218
-0.0027089552
-0.003815239
-0.0057874788
-0.0046919775
0.0012967344
0.0042164354
0.004787712
0.004006484
-2.0867735E-4
-0.003728358
-0.005813061
-0.0049100392
-0.0036578723
-0.004543436
-0.0015722394
0.0014252448
0.0021683485
0.0035426964
0.0017142963
-0.0011555147
-0.002012494
-0.0010910642
4.2901695E-4
6.992522E-4
0.0037671987
0.0074344543
0.007155331
0.0057972646
0.002967252
-4.820689E-4
-0.0031152584
-0.004430469
-0.0018202496
5.065504E-4
0.0020102388
0.0073729344
0.009490312
0.004234577
-6.074022E-5
-0.002245359
-0.0057019107
-0.007468595
-0.0076293545
-0.0062941257
-0.0018461401
8.4162597E-4
8.639494E-4
-2.1145382E-4
-0.002944577
-0.0027988483
-0.0010802184
-0.0021018463
-0.003728397
-0.0046882797
-0.002458481
0.002411548
0.0052794665
0.0052901097
0.0015609144
-0.0025940386
-0.0035713476
-0.00409052
-0.0017884246
0.0039795884
0.008044672
0.011509455
0.013439435
0.008261405
-0.001121188
-0.007100855
-0.008638709
-0.008775436
-0.0070320526
-0.0030533911
0.0013887417
0.0062356056
0.0076706563
0.0042691217
0.0031546103
0.0028533465
-0.0016434549
-0.0044927634
-0.0038754214
-0.002753826
1.4475135E-4
0.003833083
0.0049177087
0.0015439845
-0.0024843032
-0.003406389
-0.005843961
-0.009401063
-0.008132726
-0.0035395578
3.2447276E-4
0.0023916594
0.0042447676
0.0053088083
0.0028934006
-9.4521296E-4
-0.0038627621
-0.005018282
-0.003373221
-0.0013932767
-1.3889266E-4
0.0040254192
0.010300159
0.011520338
0.0074145114
0.0029854376
-0.002933377
-0.008737314
-0.008765519
-0.004203129
2.546154E-4
0.004321941
0.008741594
0.008417493
0.0049475506
0.0041581234
0.0013257157
-0.0013782175
-6.0252176E-4
-0.002575329
-0.004724702
-0.0034839374
-7.7195367E-4
-5.626417E-4
-0.0034316308
-0.002947438
-0.0037922806
-0.0063619837
-0.004874382
-0.006070536
-0.0050257733
-9.6445216E-4
-9.671517E-4
0.003411993
0.005858953
0.0013611724
2.6105376E-4
-1.2401649E-4
-3.588016E-4
-4.5166508E-4
-0.0021280542
6.35555E-4
0.005169549
0.0064884443
0.004420509
0.0016679349
0.0014884205
0.0011053378
0.002106508
0.0070590195
0.011752287
0.008952496
-8.622761E-5
-0.00164715
-4.377763E-4
-0.0063816314
-0.010155571
-0.011157529
-0.010368898
-0.0063192
-0.0038204119
0.0012887695
0.0061992635
0.0054321513
0.0052238926
0.0043906565
0.0016642893
-4.3879158E-4
-0.0050460976
-0.010383782
-0.0104601225
-0.006243829
-0.0022205547
0.0010152666
0.002554225
0.0032369494
0.004721779
0.0039536017
0.0038613921
0.0038084798
9.965873E-4
0.004133104
0.0071115033
0.0019791045
-9.4850146E-4
-6.5459305E-4
2.1553983E-4
-4.0651028E-4
-0.0058226795
-0.005848922
0.0024578022
0.0089831045
0.008477394
0.002962505
-1.6074938E-4
-0.0018214433
-0.0054426915
-0.0065536373
-0.006672078
-0.006468592
-0.0036360382
-0.0010750938
0.0012804728
0.0022098115
4.1352175E-4
-9.615474E-4
-0.0017021652
-4.762096E-4
0.0017649127
0.0012840166
0.0019647435
0.0046525253
0.0049812784
0.0044759912
0.003866676
9.979983E-4
-0.0020833998
-0.00308619
-0.0030650038
-0.0020469215
-0.0012892757
-0.0022055851
7.4639254E-5
0.003529373
0.001092213
-0.001638217
-0.00219494
-0.0043162247
-0.0043690186
-0.0035873414
-0.0046462547
-0.0027007558
0.0034825525
0.008143066
0.0064985957
0.0036092033
0.0017384712
-0.0041960315
-0.009664894
-0.0104180025
-0.0048297504
0.007919997
0.016239503
0.014850771
0.0069189277
-0.0030257585
-0.0028140806
0.0031151269
1.937699E-4
-0.008251498
-0.012196984
-0.008022835
-0.0021544725
0.0010802059
0.0043176
0.005224833
0.0054653995
0.0066687004
0.005733993
0.0067068413
0.0066515114
-9.008663E-4
-0.0052002943
-0.0018088438
-0.0053059785
-0.013425309
-0.011227147
-0.0054151407
-5.420864E-4
0.007255584
0.0085276645
0.0042222813
-5.5433327E-4
-0.008300866
-0.010853029
-0.008054525
-0.006559569
-0.0047610034
-0.0031267677
-0.0010162103
0.0018871874
0.0066105863
0.0120069785
0.010618341
0.00518699
4.0660048E-4
-0.0015517427
4.0711672E-4
-0.0013311327
-0.0021758073
0.0025001687
0.0049080886
0.009360985
0.012198251
0.0025232867
-0.007735556
-0.008525087
-0.007686777
-0.008913506
-0.0076516406
-0.0055902135
-0.007872048
-0.011781289
-0.01308368
-0.012683259
-0.011995997
-0.0068292194
0.0032985518
0.010579424
0.0152726
0.018906023
0.02071513
0.024611264
0.026200932
0.025411395
0.02591501
0.017349765
-0.0010108248
-0.019347899
-0.033237264
-0.038818184
-0.03834429
-0.036130134
-0.034543335
-0.038955092
-0.048092227
-0.05170618
-0.042337086
-0.023164075
-9.0415246E-4
0.023075694
0.044507824
0.058458026
0.07005184
0.07786037
0.07467879
0.07011363
0.065918595
0.05064233
0.032164566
0.013640746
-0.01183493
-0.034431282
-0.048026524
-0.05693576
-0.06532566
-0.069122426
-0.05923298
-0.043078367
-0.025208965
-0.0064363764
0.0076017077
0.028203946
0.050701436
0.059901945
0.06494474
0.06521754
0.054699097
0.04353858
0.03741901
0.026899837
0.016301813
0.025312591
0.03276061
0.02092357
0.0041154106
-0.032322597
-0.07854056
-0.10487293
-0.11418875
-0.11096509
-0.123038694
-0.15005606
-0.1495687
-0.13393801
-0.11909887
-0.092002034
-0.06407525
-0.05204804
-0.03826416
0.007827889
0.08022936
0.15792544
0.20847443
0.22271268
0.24327415
0.2612672
0.29519522
0.38064784
0.3803122
0.20472878
-0.023004295
-0.1774133
-0.25521758
-0.30799976
-0.30307606
-0.2292313
-0.167392
-0.100609146
0.0062462795
0.08816379
0.07993136
0.0046399953
-0.042136844
-0.06344597
-0.109787084
-0.16020541
-0.22197096
-0.25317484
-0.1720871
-0.011310732
0.15029041
0.2703527
0.3438348
0.3423557
0.2519528
0.13909741
0.022587033
-0.08878291
-0.15473936
-0.19037576
-0.16901846
-0.07297865
0.033650387
0.09698086
0.050390843
-0.06794297
-0.108745046
-0.08370995
-0.06789235
-0.039562277
-0.023384359
-0.03778843
-0.015408
0.033725962
0.050766557
0.062266756
0.09281001
0.1277655
0.15569979
0.14832656
0.09957248
0.031322554
-0.030715682
-0.058792643
-0.077837214
-0.09965818
-0.086855285
-0.058814716
-0.030461837
0.0042411056
0.0089147175
0.001185694
0.010329653
0.008484428
-0.0040502576
-0.021094255
-0.042098675
-0.049343053
-0.043750238
-0.028719902
-0.007245384
0.0131189
0.02595998
0.038386762
0.06554783
0.06597185
0.03499752
0.034556046
0.030588571
-0.009051856
-0.03844344
-0.052317705
-0.050246976
-0.034327097
-0.02691563
-0.022660712
-0.022410408
-0.024275232
-0.020672735
-0.020476373
-0.018237757
-0.010407051
7.1631133E-4
0.013112119
0.016540602
0.017121721
0.020846624
0.023753582
0.030661812
0.04190014
0.050652806
0.05097568
0.042905647
0.029623237
0.013263089
4.3165538E-4
-0.0063589877
-0.009867126
-0.01354683
-0.017789647
-0.016447328
-0.012847868
-0.012939091
-0.015125393
-0.019364582
-0.021526676
-0.019640073
-0.015553297
-0.009592915
-0.0046590813
6.9314835E-4
0.0052584624
0.008593882
0.01475531
0.015600376
0.010452816
0.009587811
0.010636231
0.009244209
0.0061514406
0.004760151
0.006880706
0.0086654825
0.007555633
2.533355E-4
-0.010455636
-0.015085034
-0.016674196
-0.020692967
-0.021425541
-0.016005006
-0.00775455
0.0022114033
0.0113392025
0.012606945
0.006876143
0.0020850482
-6.524417E-4
-6.6677073E-4
0.0025978447
0.0054775137
0.010376
0.01659741
0.01780426
0.014043414
0.005564931
-0.0043230494
-0.011422711
-0.016523564
-0.015447001
-0.009318013
-0.0029677977
0.0042554513
0.0071234806
0.0064096474
0.0019881066
-0.012373537
-0.020442106
-0.017319128
-0.020077147
-0.021925762
-0.01668052
-0.0069888914
0.012733664
0.028760176
0.030360695
0.028878648
0.023049317
0.008583164
-0.003104888
-0.0017803957
0.0066590477
0.008701976
0.0038487574
-0.004475114
-0.012505199
-0.009830798
-0.004110847
-0.0058497037
-0.006854475
-0.004939183
0.0027450975
0.013232976
0.008987769
-0.003396193
-0.011264099
-0.016729299
-0.015355255
-0.011370637
-0.0082518235
9.979878E-4
0.00941212
0.011822054
0.011057386
0.005936316
-0.0017114979
-0.008204932
-0.008590423
-0.004609237
-0.003356533
-0.0012144989
0.005109627
0.009802678
0.0056362334
-0.004694461
-0.009389706
-0.009587854
-0.010396517
-0.006590464
3.2677906E-4
0.005056474
0.00944882
0.01581764
0.020617235
0.017685857
0.007999754
-6.621793E-4
-0.002606473
-9.734264E-4
-0.00110351
-0.0013300531
-0.0011388853
-0.0016244372
-0.0032373702
-0.0070141517
-0.008881225
-0.008092397
-0.0071737375
-0.0047322805
-0.0016047921
0.002103996
0.0040335604
0.0021412424
0.0017028779
5.6024676E-4
-0.0032019687
-0.0036203277
-0.0022171815
-9.685833E-4
4.927549E-4
7.54779E-4
0.0033729437
0.0089979805
0.01092649
0.006449372
3.5017554E-4
-0.0036659073
-0.0051080734
-0.003549802
-0.002151054
-0.0017663488
0.0013577854
0.0045559984
0.0047575054
0.003994157
0.0014778922
-0.00253462
-0.0043395106
-0.004364989
-0.003914042
-9.940921E-4
0.0034394208
0.0067321314
0.0076485747
0.004007698
-0.0026353237
-0.006862531
-0.0072283703
-0.0069188764
-0.0074703833
-0.0057553365
-8.5959013E-4
0.004400015
0.007262023
0.0044762124
-8.568911E-4
-0.0025710373
-0.0023643267
-0.0025717276
-0.0019394347
3.6870877E-4
0.0040788115
0.007512847
0.008993621
0.00622971
7.881092E-5
-0.004316575
-0.005709596
-0.0049833423
-0.003027622
-0.0014303426
8.4076007E-4
0.0036443835
0.00517093
0.0033172665
-0.0019586019
-0.0052622543
-0.0056345453
-0.0057180813
-0.0048643267
-0.0038675223
-9.0738887E-4
0.004707763
0.0075488496
0.005931237
0.0013496885
-0.002833246
-0.004189171
-0.0043514953
-0.002275893
4.6784492E-4
0.0024718947
0.006207242
0.0080842115
0.006545991
0.0030130476
-0.0020932306
-0.004636507
-0.004313273
-0.002562239
-0.001309126
-0.0010586976
0.003055976
0.00565682
0.0024008162
-9.065492E-4
-0.0045038876
-0.0070634047
-0.00684454
-0.005217051
-0.0016383758
0.0014351952
0.0040586693
0.0049022585
0.0030977281
0.0021217237
-4.5579433E-4
-0.0018868053
-7.915487E-4
-0.0018278144
-8.6381746E-4
0.0014163493
0.0029938922
0.0043051764
0.0018896712
-4.304806E-4
-0.0033465286
-0.0077081807
-0.0067263627
-0.0043066177
-0.0028058114
0.0010967695
0.005164754
0.00770512
0.007177545
0.0027730723
-0.003121196
-0.005221716
-0.0031360406
-0.0032347778
-0.0030789818
0.0011979422
0.0058917
0.008120706
0.006028475
0.0016608291
-0.0015917396
-0.0031153357
-0.0034036026
-0.0032984167
-3.4560048E-4
0.0037888363
0.005635313
0.006178873
0.0031239348
-0.0018819513
-0.005056856
-0.007669538
-0.008109682
-0.0058482513
-0.0024314276
0.0015592488
0.004430139
0.005733087
0.0048107095
0.0010341025
-0.0041445945
-0.007348021
-0.0061507933
-0.003137545
-0.0010718385
8.71978E-4
0.0037887092
0.0054625645
0.005022754
0.003983933
-4.5942652E-4
-0.004586705
-0.0033205047
-0.0020464207
8.237176E-4
0.0050848653
0.005662929
0.0069376146
0.0054032397
2.205977E-4
-0.0012325816
-0.0036646433
-0.006070557
-0.0047001764
-0.0033225399
3.5451332E-4
0.003666667
0.0038018674
0.004495473
0.002516943
-0.0012391479
-0.0024169409
-0.003590584
-0.0042579626
-0.0032278758
-0.0011521388
0.0029778928
0.0049691712
0.0022122564
-5.1747233E-4
-0.003201931
-0.0063842232
-0.0058801738
-0.0033783177
-0.0019152422
-4.373007E-4
0.0012827108
0.0041712313
0.00628414
0.00411471
6.1118155E-4
-0.001374795
-0.0024873249
-0.002048107
2.0971242E-5
0.0022306873
0.004084167
0.005183611
0.0038338634
1.8975721E-4
-0.0032036726
-0.004412515
-0.003723979
-0.003459679
-0.0023219623
0.0012156276
0.0031752198
0.004062949
0.005854986
0.004790506
0.0014337801
-0.0011829835
-0.0035662649
-0.0044740434
-0.0023120164
-2.4202882E-5
3.5686613E-4
0.0012108379
9.79249E-4
-0.0014210936
-0.0024569992
-0.0043711313
-0.0063752756
-0.005198651
-0.0051577035
-0.004419657
-9.3478465E-4
0.0014677484
0.003928426
0.004247321
9.334096E-4
-6.7806785E-4
-4.785181E-5
3.9608785E-4
-2.1631685E-4
-5.106485E-4
0.0018611274
0.0051859138
0.0058384575
0.003710023
0.0025361413
0.0015603999
5.007083E-4
0.0059319525
0.012360977
0.009063314
0.0016244153
-0.0021088049
-0.0034467566
-0.0053277877
-0.006048612
-0.0040842146
-0.0034721529
-0.0051995795
-0.0062199472
-0.004697239
-0.0013901797
7.2785106E-4
0.0015728915
-3.584783E-4
-0.004653534
-0.0054268865
-0.0048129284
-0.004914344
-0.002460694
3.7624623E-4
0.0022094077
0.0037008931
0.004921151
0.005427937
0.0031763453
6.296018E-4
-4.2293032E-4
-0.001356782
-5.971226E-4
9.920232E-4
0.0022735733
0.004120584
0.003982368
0.0012473568
-8.525191E-4
-0.0013925637
-0.0024161
-0.004264276
-0.004225792
-0.0016873897
0.001718113
0.004402874
0.004450964
0.002248605
4.0568138E-4
-3.3851055E-4
-0.0011865426
-0.0015686025
-4.0964177E-4
0.0014565835
0.003783461
0.0047736047
0.0029386817
0.0011796539
-5.90187E-4
-0.003369685
-0.004655896
-0.0047624432
-0.004199243
-0.0024996323
-6.4129004E-4
0.0020505805
0.0038924916
0.0023039293
5.138359E-4
1.3598481E-4
-7.302994E-4
-0.001214051
-0.0029376678
-0.0056617437
-0.0022529424
0.0033408205
0.0026737733
9.990687E-4
4.432188E-4
-0.0010442948
-0.0011264106
-0.0024250834
-0.0038551332
-0.0016690139
0.0010998864
0.0041301306
0.0060566193
0.004048419
0.0011244655
-7.5648475E-4
-0.0010867559
-0.0011685125
-0.0027268988
-0.0023999296
-4.8054106E-4
1.2603821E-4
8.974784E-4
0.0011907284
-4.5618202E-4
-0.0023780307
-0.003497496
-0.0033860418
-0.00207369
-6.1253505E-4
0.0015755147
0.0047071613
0.0057153283
0.0038596503
0.0016418957
2.7545297E-4
5.710322E-4
0.0014276719
3.7755034E-4
-7.1189797E-4
0.0016829214
0.005119037
0.0050696274
0.004790884
0.0055408305
0.0018665139
-0.002228127
-0.003263946
-0.0066107432
-0.008251272
-0.004802417
-0.0020694882
-2.842665E-4
-4.923847E-4
-0.004171371
-0.0057492177
-0.004987405
-0.0039978544
-0.002301419
-0.0026502134
-0.0018702275
0.002950498
0.0044582426
0.0016873373
1.4661429E-4
-2.3404432E-4
-0.0010547413
-0.0010807967
0.0010204058
0.001982506
0.0016829054
0.004311563
0.0058645136
0.0038146717
0.0021600914
0.0014293898
9.0212625E-4
-5.812572E-4
-3.9335008E-4
0.0024065347
0.0017886955
0.0018722798
0.0046583777
0.0028097555
-5.8058587E-5
-0.0018271198
-0.0041719116
-0.0042289174
-0.0042582583
-0.0028313794
0.0013630294
0.0032069804
0.0039344965
0.0035436824
0.0011772058
-8.359973E-4
-0.0044084704
-0.005851474
-0.00318709
-0.0017407866
-2.3467503E-5
4.1791E-4
-1.6988172E-6
0.0030259048
7.81789E-4
-0.004143821
-0.004204394
-0.007514869
-0.0077543906
-9.96674E-4
0.001948735
0.0037371996
0.004930833
0.0044734064
0.003967182
6.4886664E-4
8.5669174E-4
1.0517174E-4
-0.005239486
-0.0028148268
0.001574695
0.0042693894
0.005233927
-0.001724435
-0.0025479225
0.001013062
-0.0015495598
-0.0013020587
-0.0039707874
-0.005835416
0.0032106903
0.0076680053
0.0061177174
0.006306594
0.0039779134
0.0012941656
6.192016E-4
-4.734182E-4
-0.0019432734
-0.0020047699
-0.0014564446
-3.3944528E-4
0.0029995004
0.0026439005
-0.0022063877
-0.0047840485
-0.00521015
-0.00383722
-0.0022099493
-0.001966169
-9.59812E-4
2.8030208E-4
0.0014855907
3.4172894E-4
-0.0024247442
-0.002541285
-0.0028294367
-0.0025013378
-0.0010764333
-0.0012914315
7.7235623E-4
0.0041041435
0.005519178
0.0050141313
0.0018176372
-5.5906276E-4
-0.001249446
-0.0017268033
-8.103207E-4
8.8160037E-4
0.0027331694
0.0039290227
0.0043647755
0.0034814517
3.9342776E-4
-0.0022097884
-0.00332819
-0.0029627695
-0.0020182077
-0.0018349084
-6.0038143E-5
0.0025422727
0.0040361458
0.0034103824
8.3950546E-4
-4.301955E-4
-0.0024386924
-0.0040303566
-0.0024541446
-0.0020520268
-1.4381105E-4
0.0030861618
0.0032731805
0.0025994265
-0.0031756165
-0.009853634
-0.0064918175
-0.0023949991
-0.0035327678
-0.0023427529
7.213389E-4
0.0035774854
0.0062705646
0.0055899536
0.0018897859
-0.001396544
-0.0021628477
-0.0011915794
-0.002195626
-0.0033015637
-5.2693696E-4
0.0034019882
0.0059525617
0.005459782
0.00237156
5.142469E-4
-0.0013316956
-0.0028275799
-0.0021264723
-0.0012958247
0.0015901778
0.0060924324
0.0077854483
0.0057226475
0.0010326855
-0.0025856267
-0.004652773
-0.007484464
-0.008599386
-0.0053524547
-2.5105698E-4
0.0019261097
0.0030866947
0.005044785
0.002344683
-9.827662E-4
0.0016408161
0.0036439106
0.0016975953
-1.0056122E-4
-0.0028011606
-0.0065792548
-0.005351341
-6.6719303E-4
-3.5526862E-4
-0.0023261828
-0.0024292036
-0.002601819
-0.0026489373
-0.0013040347
8.4428006E-4
0.0036945087
0.006646214
0.006771816
0.002570243
-0.0011384228
-4.826164E-4
5.428141E-4
-6.710197E-4
-6.5499276E-4
0.0018225067
0.004634284
0.006056481
0.0044933967
0.0011186961
-0.0012923428
-0.0023456523
-0.0029391563
-0.0034159322
-0.0024945852
-8.2057854E-4
8.698119E-4
0.0033809158
0.0031315382
-1.1641638E-4
-0.0030152602
-0.005284677
-0.0054707406
-0.005872387
-0.0063679675
-0.0017764246
0.0039334684
0.0056046853
0.0033303737
-6.7886297E-4
-0.002799775
-0.0033423936
-0.0025574125
-7.939245E-4
-3.3023968E-4
1.5753832E-4
0.0032724028
0.007411159
0.006451842
0.001684893
-5.2435935E-4
-0.0024304078
-0.00489738
-0.0046968614
-0.0013315649
0.0029572987
0.005895333
0.008822434
0.007946743
0.003894149
0.0028952674
-0.001647229
-0.007891348
-0.0076433374
-0.0057994286
-0.0036146294
-0.001091227
0.0017131753
0.00494871
0.0026817715
-0.0014317471
-0.0031429627
-0.0050210794
-0.004857855
-0.004051584
-0.0026615965
0.0023707547
0.005566588
0.0033645479
-1.6373962E-4
-0.0022325118
-0.003374396
-0.0034803785
-0.0025409437
-0.0012020479
0.0022498595
0.006728277
0.009238091
0.009462696
0.005852391
2.7587725E-4
-0.0035724512
-0.0067029065
-0.0073375693
-0.003877725
-2.0670364E-4
0.0033081574
0.006665451
0.0054374677
5.7117804E-4
-0.0034414933
-0.0055703814
-0.0053891195
-0.004327983
-0.0040911394
-0.0024574331
0.0013650218
0.004040342
0.0037229366
0.002123612
-6.3562424E-5
-0.0021184026
-0.001828445
-0.0011388421
-0.0015069187
3.258827E-4
0.0048600114
0.008383078
0.007388449
0.002629155
-0.0019970294
-0.0041619926
-0.0048157237
-0.004871544
-0.002623261
-8.0392533E-4
4.3892346E-6
0.0045272596
0.006046643
0.001336832
-0.0023025372
-0.0051812907
-0.0045669684
-6.7761604E-4
-9.097141E-4
-1.4685513E-4
0.0026677302
0.0027695715
0.0036974982
0.0019885951
-0.0035258427
-0.0048514167
-0.004353458
-0.0054295803
-0.003484292
7.567466E-4
0.0038464929
0.005834184
0.0056942585
0.0038770002
0.0027047626
0.0014267971
-8.772704E-5
-3.2265735E-4
-9.404139E-5
-4.5523158E-4
5.6162453E-4
0.004051855
0.0046561747
-3.6551323E-4
-0.004341198
-0.004543427
-0.0037699894
-0.0023720062
-0.0032838949
-0.0057517393
-0.0019713605
0.004345347
0.0044918256
0.001319269
-0.0021409949
-0.0049780956
-0.0058093267
-0.007101062
-0.006662043
-0.0026835694
2.443115E-4
0.0027264291
0.005471262
0.004829089
0.0025097006