-0.0033136774
-0.0033920591
-0.0038265453
0.0016928934
0.0038390579
0.002304218
0.0027758784
0.0032384312
0.004885667
0.004633303
7.3529454E-4
-0.0016396823
-0.0029694003
-0.003107169
-0.0023813988
-0.0034617274
-0.0037264999
-9.610094E-4
0.005542396
0.011904639
0.015199037
0.018768989
0.01376239
-0.0016661239
-0.0100909285
-0.012187042
-0.0149310175
-0.012369423
-0.0068714377
-0.0034701044
-0.0026483298
-0.0033075027
-0.0019590654
-0.001214665
-0.0011139113
2.917648E-4
-4.8132267E-4
7.3878904E-4
0.0029499037
2.9327936E-4
-1.4986712E-4
-8.125213E-5
-0.0035680914
-0.0023780584
6.2805944E-4
0.0010631619
0.0028268672
0.0042909854
0.0051701493
0.005328194
0.0026823157
3.5000165E-4
3.7859092E-4
0.0015024343
0.0014160634
4.1624793E-4
8.509231E-4
9.32621E-4
9.519426E-4
0.0017766024
0.001397561
0.0013405218
0.0015658936
0.0020964723
0.0042488477
0.004629493
0.003576389
0.0032888297
0.0025941439
0.0023196598
0.0016097728
1.7107857E-4
-8.2223746E-4
-0.0023961058
-0.0022610081
-6.996882E-4
-0.0019471537
-0.004553097
-0.0057630115
-0.006052395
-0.00678895
-0.0069556134
-0.0054560676
-0.004904433
-0.0042361766
-0.0027641656
-0.0035160435
-0.0037152702
-0.0028025522
-0.0028308842
-0.002251251
-0.0027135077
-0.0031589922
-0.001987133
-0.0016529398
5.8864884E-4
0.00416051
0.005724717
0.008753578
0.011030171
0.008631835
0.007507139
0.0076988423
0.00304744
-8.617056E-4
0.001525711
0.0045319246
0.004879786
0.0054279016
0.010005488
0.015040792
0.013233604
0.008887426
0.0050556106
-0.001353951
-0.006243352
-0.008465137
-0.011648524
-0.013168513
-0.009577521
-0.007312494
-0.01045723
-0.009671426
-0.0069879983
-0.009604848
-0.009184687
-0.005137489
-0.002772941
-0.0016525004
-0.002216094
-0.0029236919
-0.0038493287
-0.0026291392
3.7180632E-4
0.001092271
0.0051939148
0.008812113
0.007724174
0.009295745
0.007996207
0.0037261685
0.00358079
0.0035505313
0.0034868487
0.0029585257
0.0013716506
0.0017964602
0.0021987867
0.0026271495
0.0023787983
1.1340843E-4
-7.6453516E-4
-0.0018100744
-0.0038506608
-0.0027314592
-4.915674E-4
-2.2352651E-4
9.201877E-4
0.0020108353
4.5006534E-5
-0.001367416
-0.0013887658
-0.0024867211
-0.002747726
-0.0014831822
1.1366885E-4
0.0010733133
8.105369E-4
2.4386078E-4
-2.9341434E-5
6.943596E-5
-6.3820323E-4
-0.0013900703
-0.0012418241
-0.0022160008
-0.0017182473
-7.251301E-4
-0.0033209017
-0.0030807513
7.73917E-4
4.5433364E-4
-0.0024663555
-0.0027987799
-0.0010605832
5.3448335E-4
0.002394935
0.004198137
0.004495439
0.0034954282
6.848492E-4
-0.0014986692
-9.823825E-4
-0.0020476088
-0.003476872
-0.0014319592
-2.695469E-4
-2.3186639E-4
0.0035387145
0.0070301443
0.005551013
0.0034128816
0.0026147293
0.001289272
0.0012182979
0.002377141
0.0014403625
-0.0015103209
-0.0031992814
-0.001960354
0.0011166725
0.0026567744
2.0989505E-4
-0.0023252894
-0.0033978096
-0.005260404
-0.004179011
-0.0018271874
-0.0016809847
8.392592E-5
5.4601865E-4
-0.0010388172
-0.0012227874
-0.0027386323
-0.0031683333
-0.001162843
5.208019E-4
0.0012202209
-7.7895465E-4
-7.155284E-4
0.0018889678
0.0016382931
0.0018668447
0.0016686436
5.506147E-4
0.0026145957
0.0042201253
0.0050508063
0.0059932442
0.0052438276
0.003953397
-3.5120822E-5
-0.0038557607
-0.002708957
-0.0010694518
-0.0012903665
-0.0018953308
-0.0015513503
-5.4879863E-5
4.4142027E-4
0.0017843074
0.004272461
0.0023914496
-0.0022535322
-0.0031460505
-0.0020305794
-0.0019759622
8.557997E-5
0.0038324932
0.004128815
5.350026E-4
-0.0016806289
-0.002299665
-0.005622451
-0.006787447
-0.0030629856
-0.0011000949
-8.479514E-4
-7.295125E-4
-5.4524787E-4
0.0015606937
0.0011674847
-0.0016168932
-0.0012932344
-6.1770674E-4
-0.002473137
-0.002809221
-5.6595312E-5
0.0013754751
0.0018730296
0.0031542673
0.0016624248
2.0792341E-4
0.0019845832
0.0034618436
0.0035695727
0.0042416668
0.0069429846
0.0064914115
8.5614197E-4
-4.8256497E-4
0.0019763797
-1.0485279E-4
-0.0026670888
-9.3389855E-5
-8.321837E-4
-0.008467295
-0.008544328
-0.0010208217
0.0014886092
0.0023920198
0.0023632445
-7.9874607E-4
-0.0010223093
-0.0013238966
-0.0046154093
-0.005510541
-0.0030416863
5.9127755E-4
0.0028940297
0.002383232
2.307147E-4
-0.0018455859
-0.0016723555
4.8584942E-4
0.0014364646
6.940507E-4
-7.353708E-4
-0.001134214
0.0018399704
0.004252503
0.0031757301
8.014681E-4
-0.003223109
-0.004362753
-0.0010470627
2.1231938E-4
0.0010734412
0.002287656
0.0023097994
0.003044782
0.001838214
3.3045735E-4
1.4304854E-4
-9.4891636E-4
-0.0010581156
-0.0017486362
-0.0011034978
0.0032544427
0.0040910416
0.0011469809
-3.3099408E-4
-9.162825E-4
-0.0015755466
-4.7235872E-4
0.0013670488
2.7537378E-4
-2.773736E-4
2.1651546E-4
-0.0027175979
-0.0040919115
-0.001035502
0.0032276146
0.003999038
-0.0017035078
-0.0054784217
-0.00412857
-0.0020663438
0.001401572
0.0022911555
-5.723387E-4
-0.0010753636
4.1228088E-4
6.335775E-5
-7.881179E-4
4.0509514E-4
7.780135E-4
-9.06438E-5
2.189334E-4
4.5093632E-4
0.0014019238
0.0018389586
6.872781E-4
4.7316303E-4
-6.578305E-4
-0.0024046206
-0.0024528853
3.600991E-5
0.0035233921
0.003801289
0.0036515687
0.0025557254
-8.226834E-4
-0.0016283744
-0.0028414838
-0.0017763131
0.0025024095
0.0021332183
0.0022985893
0.0034397987
0.0040177717
0.0074291653
0.0063473764
0.0018497753
-0.0017879256
-0.0035481786
-0.0026581478
-0.00810969
-0.011339296
-0.003921343
-5.078252E-4
-0.0011131328
-7.785385E-4
-0.0011979021
-3.0902037E-4
-9.6774526E-4
-0.0023832228
-0.0029615348
-0.003330577
-0.0014601416
-0.0013380569
-0.0030964233
-0.0019220758
5.9436774E-4
0.0014773172
0.0015461514
0.003694291
0.0069318805
0.008997821
0.008543059
0.0058307275
0.004477341
0.0015346416
-0.0032795558
-0.0047020395
-0.0058968347
-0.0052561862
-6.9898444E-5
0.0027935219
0.0027327894
0.0031059915
0.0016860635
-0.0012536001
-2.5989354E-4
0.0016108144
-0.0019093045
-0.0036469828
-3.5876397E-4
0.002132948
0.0022065134
-8.7208994E-4
-0.0036307126
-0.0034290997
-0.002778967
-9.915449E-4
0.00125068
0.0021396105
0.0017163267
9.230595E-4
0.0011517282
9.822861E-5
-0.0026671968
-0.004238679
-0.004676389
-0.0040282616
-0.0010157018
0.001529585
6.419947E-4
0.0016091142
0.003615502
1.9162745E-4
-0.0025421125
-0.0022285234
-0.0012087808
0.0022720252
0.0034674855
0.0029733786
0.002900354
0.0010910559
0.0021695644
0.0034793057
0.0011442923
-6.12955E-4
-0.0028049932
-0.004597381
-0.003271335
-0.0014249436
-0.0012611304
-0.0012220945
0.0014001266
0.003510666
0.0017995813
-0.0017718408
-0.003302785
-7.7993213E-4
8.6082076E-4
0.001497178
0.0034779306
0.0021701301
5.255183E-4
0.0010206763
0.0010379994
0.0020323973
0.0011236242
-8.5468363E-4
-6.483802E-4
-0.0016566126
-0.0025276886
-9.5572043E-4
0.0013985628
0.0016578075
-4.5691902E-4
-0.0012467032
-0.0027754244
-0.0039356677
-0.0032377127
-0.006660747
-0.0062046982
0.0013533033
0.0032648041
0.002324531
0.0023751648
-4.6202607E-5
-2.772898E-4
8.3661394E-4
0.0012378627
0.0030955514
0.002792963
0.0014961789
0.0027326823
0.0034329854
0.0018879825
-8.449444E-4
-0.0024466843
-0.002101781
-0.0010398708
4.65435E-4
-2.2501507E-4
-0.001883047
-1.717166E-4
0.0013915064
9.861287E-4
8.661523E-4
-1.4366762E-4
-0.0011448858
-0.0010746154
-0.0018432895
-0.0021341343
6.764363E-4
0.0034529977
0.002888813
0.0017091656
9.4073155E-4
5.0321774E-4
0.0010814015
4.20993E-4
-6.846159E-4
-0.0017572877
-0.0029457049
-0.00205953
-0.0017302067
-0.0010700676
4.4865173E-4
-0.0016311442
-0.0021090927
-3.962732E-4
-8.1855984E-4
8.3228137E-4
0.0020302464
0.001238742
0.0013683847
-6.1107747E-4
-0.0012898326
9.866983E-5
-0.0014916648
-0.0013281596
0.001439061
0.0022425666
0.003405901
0.005111736
0.0044529354
0.002632405
9.324141E-4
-0.0014992543
-0.0043344
-0.0056346986
-0.0036959352
2.0457273E-4
0.002926711
0.002970794
7.638357E-4
-1.9164581E-4
0.0013409484
9.1792614E-4
-0.0024488242
-0.0049855094
-0.0046610227
-0.0028596558
-0.0011363386
4.740975E-4
0.0013012734
0.0018172356
0.0025050635
0.002661602
0.0032047809
0.0037043376
0.0026901958
-7.5104815E-4
-0.004075733
-0.002547979
-6.5445306E-4
-0.0023566985
-0.002860877
-0.0014751429
-6.762961E-4
-0.0010376018
-5.6575466E-4
0.001535674
0.001869847
0.0016206185
0.0020306439
0.0015316041
0.001701936
3.6656455E-4
-0.0029685348
-0.0022335667
0.001722368
0.0027241018
0.0015271232
0.0012621889
6.3000625E-4
-4.307723E-4
-0.0016154005
-0.0022345183
-6.7624095E-4
-5.3956034E-4
-2.0031651E-4
0.0025493957
0.0019593923
0.001197841
0.0017555922
-0.0010879547
-0.004226552
-0.0053927125
-0.0036806627
-0.0038508296
-0.007937861
-0.0045692073
0.0015500672
0.0025587007
0.0051596793
0.0058975746
0.0045764684
0.0053647235
0.0037291467
0.0027631607
0.0044366284
0.004608937
0.0028668118
-9.992976E-4
-0.0031055987
-0.0012372559
-2.3807504E-4
-0.0014376058
-0.0031574965
-0.0047865133
-0.0051650372
-0.003518036
-0.002033891
-0.0023263558
-0.0017735198
-0.0010682013
-0.001625586
-5.045227E-4
-5.756933E-4
-0.0032785828
-0.0018813486
0.0014933031
0.0015741137
0.0027243695
0.00437915
0.002485933
0.0010751175
8.050174E-4
-1.698611E-4
0.001808312
0.0043927757
0.0026293027
0.0011113402
0.0029568293
0.0023149287
-0.0024289158
-0.0036148832
-7.766E-4
-0.002180684
-0.0056313914
-0.0051949155
-0.0031759762
-6.490098E-4
3.9854378E-4
-0.0014220783
-0.0010611748
4.7788076E-4
8.750001E-4
0.0033757251
0.0060402234
0.007164592
0.0070587634
0.005150551
0.004972751
0.0038508626
-0.0016472541
-0.0056354376
-0.00861854
-0.010674046
-0.0061567496
-6.905241E-4
8.1782835E-4
0.001504814
0.0014949818
0.0011529039
-4.5539087E-4
-0.0030890047
-0.0045518023
-0.0067887646
-0.0054625296
5.8939925E-4
0.0025582043
0.002421014
0.0038238724
0.0037640794
0.0026163
9.060563E-4
-6.643657E-5
-2.7587856E-4
1.4133369E-4
0.002283869
0.0025759765
0.0014079696
0.0016666831
0.0021601971
0.0014865914
-4.6404387E-4
-0.0012258642
-0.0031378097
-0.0039168876
8.77084E-4
-9.847939E-4
-0.0045207455
0.004071391
0.007909655
0.0024075345
0.0016271349
0.0026890293
0.0019185299
8.4617827E-4
-0.0010375787
-0.0018475258
-6.2242243E-4
2.0449875E-4
-0.0016114127
-0.00398934
-0.0043423064
-0.0037571122
-0.0039776685
-0.0035151234
-2.3706953E-4
0.0025772739
0.002459422
0.0010481282
1.4257026E-4
5.3165486E-4
4.1331392E-4
0.0016470001
0.002865483
-0.0011288398
-0.0018505953
0.0041579935
0.007799393
0.008428165
0.006624776
-3.7587155E-4
-0.008018429
-0.006686757
-1.3010026E-4
-0.0015061188
-0.00768005
-0.010286024
-0.006680449
-4.0537046E-4
-0.0017049484
-0.002933695
0.0020985429
0.0024841453
0.0015962949
0.003491002
0.0044119316
0.0043786387
0.0037834388
0.006819762
0.008849347
0.0059291036
0.00438986
0.002858921
0.003525805
0.005838296
0.0030849695
-1.1184458E-4
-0.004391046
-0.011213199
-0.015603096
-0.01721205
-0.013946918
-0.009110736
-0.0062812176
-0.0029870144
-0.0022224917
-0.0018512844
5.980596E-4
0.002887068
0.0068980446
0.008672071
0.00760205
0.0071923565
0.0043806965
0.0028720181
0.0039678067
0.0040879208
0.00701896
0.010659001
0.011070183
0.010275914
0.008330321
0.0053164144
4.134882E-4
-0.00587234
-0.01059203
-0.0138902385
-0.0151920635
-0.014230484
-0.012746507
-0.010681897
-0.006776765
-0.0024303314
-0.0024499188
-0.0047551244
-0.0045804726
-0.0031749392
9.295184E-4
0.0055866796
0.0072478238
0.009316577
0.009290138
0.006433855
0.0048131254
6.093802E-4
-0.0050194147
-0.004068575
0.0015174276
0.0040985174
0.003896499
0.0049230703
0.0047484227
0.0011649709
-0.0013183401
3.5387653E-4
0.0027746777
0.002732714
0.0033352294
0.00678451
0.008240911
0.005033402
5.418767E-4
-0.0045631374
-0.010194656
-0.01130638
-0.009412224
-0.0112310285
-0.013755082
-0.012837601
-0.011289619
-0.011374889
-0.012542402
-0.013156351
-0.0128413495
-0.010658682
-0.005037217
-1.7442051E-4
-0.0014960538
-0.0043890476
3.348016E-4
0.010256661
0.016062144
0.017646559
0.02074562
0.02498924
0.025848491
0.024904607
0.023301635
0.017433025
0.012505167
0.014573629
0.019776933
0.016618706
-0.006299776
-0.03567379
-0.05011821
-0.049861085
-0.038503956
-0.022311108
-0.011879909
-0.0060658073
1.0823375E-4
0.010307745
0.024202237
0.034258034
0.03649677
0.031545013
0.020800566
0.007667484
-0.0029270283
-0.011785805
-0.025147486
-0.039354924
-0.048475016
-0.05442248
-0.0513722
-0.03238197
-0.0060272054
0.015416824
0.026689664
0.030696489
0.033030517
0.028699791
0.020039147
0.022072995
0.027366498
0.028076094
0.031704783
0.029964205
0.0266307
0.032657888
0.032218657
0.024929069
0.027345499
0.030591289
0.020310156
0.0072072996
0.0012597414
-0.004782393
-0.011930171
-0.030747734
-0.07606033
-0.1344013
-0.18294676
-0.18623772
-0.13686526
-0.08741834
-0.05194848
-0.017702188
-0.001056374
0.010330806
0.03639858
0.07598391
0.12352833
0.15598997
0.15943621
0.13778584
0.1129281
0.106340595
0.08657599
0.04560598
0.009066271
-0.039941117
-0.07220959
-0.05303121
-0.029196246
-0.0032630581
0.03130626
0.026450327
-0.0022088073
-0.0043438114
0.022132138
0.046383426
0.030689394
-0.016739663
-0.063253425
-0.112820305
-0.14639227
-0.11340907
-0.05091274
-0.03297037
-0.026727775
0.0020105438
0.0024307389
-0.037897665
-0.07718655
-0.07943625
-0.052603953
-0.05648676
-0.07461973
-0.051216163
-0.036150295
-0.03907754
-0.0070529035
0.025139866
0.051837336
0.113820456
0.18540464
0.24087481
0.2427195
0.15972576
0.08216811
0.094716124
0.12030461
0.056909338
-0.039478187
-0.06372116
-0.0055882833
0.09065034
0.12758486
0.06457607
-0.022279754
-0.11963117
-0.2069415
-0.22557011
-0.22505942
-0.21467756
-0.15599048
-0.10986731
-0.11712087
-0.13446316
-0.104884215
-0.03228505
0.02872497
0.100879356
0.19441037
0.20907968
0.15883878
0.15083897
0.1438268
0.08031221
-0.008524453
-0.09579241
-0.12723105
-0.10981971
-0.116332166
-0.11381844
-0.0761739
-0.04350533
-0.011226531
0.029120836
0.06506029
0.08244251
0.09272457
0.10826151
0.09370918
0.059857775
0.031514812
-0.0015519654
0.0021037436
0.030681733
0.021621594
0.015653068
0.055950973
0.11227994
0.153827
0.17148714
0.16568781
0.10371145
-0.03913695
-0.17989798
-0.2230526
-0.20035347
-0.19175561
-0.20022637
-0.18262513
-0.14189148
-0.112099476
-0.07928913
-0.021830061
0.023672339
0.032188598
0.021792503
0.003224999
-0.00873204
-0.010578449
-0.022021955
-0.024208518
-0.0018631564
0.02196694
0.05880266
0.12539935
0.19369724
0.2146515
0.1844019
0.15783696
0.10052061
-0.012388142
-0.050562184
-0.016793936
-0.03328149
-0.08362115
-0.13474193
-0.15177967
-0.07093377
0.06156765
0.15873972
0.1913128
0.1728362
0.1307356
0.06929406
-0.0125979725
-0.10734457
-0.17742468
-0.18578057
-0.18117757
-0.19684641
-0.17384884
-0.09917309
-0.020876933
0.047951747
0.0978458
0.106597245
0.081797145
0.03528246
-0.012030197
-0.025674326
-0.029963518
-0.059083834
-0.075194664
-0.048799247
-0.0024375864
0.042520016
0.0730899
0.07847889
0.063857004
0.044369653
0.03206004
0.03534949
0.058631685
0.091679454
0.10737227
0.075969875
-0.0030191678
-0.06987517
-0.07502144
-0.054648522
-0.034990378
-0.0030452358
0.013453145
0.0051809065
-0.007910623
-0.032635227
-0.058669414
-0.07685749
-0.08625321
-0.06603668
-0.033644076
-0.011942348
0.012276699
0.038720418
0.06299865
0.07122452
0.0523053
0.03354915
0.019803781
0.0024770289
5.975969E-4
0.009854482
0.010997321
4.5429607E-4
-0.009305198
0.002769089
0.025505403
0.040967792
0.049949843
0.040191405
0.011447515
-0.024945306
-0.060606338
-0.0702175
-0.052296102
-0.031585276
-0.019986449
-0.021856122
-0.028892735
-0.034413803
-0.034858827
-0.023168318
-0.017659815
-0.021512108
-0.015408091
-0.007263169
0.0052405354
0.029755449
0.048231967
0.054220647
0.04710632
0.035253465
0.041170616
0.051630147
0.04366355
0.025302501
0.0026957942
-0.017776772
-0.019137174
-0.003559465
0.01377771
0.027992414
0.03899483
0.045894023
0.03666636
0.0014737351
-0.032747157
-0.045623064
-0.054262664
-0.063221104
-0.06964693
-0.07746363
-0.079039454
-0.070007674
-0.049102236
-0.025669891
-0.017910616
-0.015786959
-0.003913772
0.016581671
0.036375917
0.04022426
0.033877153
0.0332568
0.051450618
0.08978578
0.11108618
0.1062339
0.103464186
0.09391777
0.06507092
0.018194405
-0.037059817
-0.066282526
-0.06981223
-0.07548239
-0.07394961
-0.05694603
-0.039797466
-0.02738745
-0.025129879
-0.040854648
-0.06175003
-0.07465964
-0.07255741
-0.046394676
-0.010928713
0.01038279
0.016453436
0.012636088
0.0025361883
0.0039913445
0.03494794
0.07426854
0.09983054
0.12278089
0.12763156
0.09355467
0.04274889
-0.0027073082
-0.034609873
-0.05358112
-0.064057745
-0.06571657
-0.06489751
-0.058841024
-0.04296137
-0.025769114
-0.011326578
-0.0031818552
-1.8976556E-4
0.004065678
0.010454439
0.014062663
0.008635611
0.0069920155
0.014931968
0.016053278
0.013155387
0.009700757
0.0034975805
0.004336092
0.0038151045
-0.0029067153
-0.003345542
-0.003047641
-0.0060016476
-0.0057739927
-0.0028492
0.0045613153
0.008875403
-0.0014498136
-0.015136631
-0.023419028
-0.032311957
-0.037703454
-0.029778527
-0.0075775487
0.0126097035
0.015880454
0.017699052
0.030331962
0.04036325
0.043618698
0.04884176
0.051092062
0.037162352
0.013357876
-0.004935853
-0.01452639
-0.014767889
-0.012110337
-0.017777508
-0.028813789
-0.034648564
-0.029098865
-0.018702863
-0.013248248
-0.01140717
-0.012044787
-0.012036462
-0.0068378397
-4.6546446E-4
0.005081983
0.009680421
0.012736348
0.014169172
0.010576125
0.0032587028
-0.0020403622
-0.0042728535
-0.00734102
-0.00878569
-0.0029470841
0.0017448781
0.0019970082
0.004099698
0.0050055417
0.0052484535
0.0026996296
-0.0058970526
-0.012604642
-0.018219365
-0.017511353
-0.00316747
0.0043289512
-0.003372914
-0.008536327
-0.007124406
-0.009068579
-0.011619401
0.006032021
0.042063743
0.06376309
0.063183285
0.053516265
0.037044093
0.0223566
0.017105933
0.01082832
-0.0028958418
-0.01785089
-0.026784968
-0.02687177
-0.02427487
-0.025418567
-0.02712883
-0.025616901
-0.021767873
-0.019879173
-0.02039271
-0.0170186
-0.013789455
-0.0149160735
-0.013410408
-0.012861383
-0.014038072
-0.008852096
-0.0027797064
0.0015599563
0.006927163
0.010832707
0.016974876
0.02257195
0.019026943
0.013535868
0.014683745
0.018963242
0.02019938
0.015311144
0.0081142
0.0038692781
2.1029264E-4
-0.004260097
-0.0075421957
-0.011194311
-0.012554219
-0.011352014
-0.013184866
-0.008995234
0.006120146
0.017221149
0.018404458
0.012112658
0.0029761246
0.003455699
0.011077109
0.011801199
0.0061558574
-0.0010957633
-0.009635886
-0.0136432
-0.011025674
-0.009868354
-0.012211505
-0.01444943
-0.016148238
-0.013179059
-0.0063662156
-0.003632005
-0.0025418373
-2.265157E-4
3.5558664E-4
-0.0018352992
-0.008888017
-0.012960041
-0.0071542636
-0.0016781021
0.0022305495
0.0053637926
0.0018408059
0.0030657898
0.0105862515
0.011578664
0.013372078
0.018659122
0.018158082
0.013590953
0.008275583
0.0063045523
0.0081674205
0.0075777397
0.0068639196
0.0059181983
3.86133E-4
-0.0047583715
-0.006074011
-0.00133949
0.009886673
0.013898651
0.0029087183
-0.009854612
-0.01546388
-0.016845742
-0.0122709125
-0.0062691052
-0.010063138
-0.016771292
-0.017418675
-0.017764507
-0.017962713
-0.014366425
-0.011880308
-0.013800331
-0.014682903
-0.012388919
-0.011354325
-0.009075959
-0.005075075
-0.002047342
0.006572821
0.017932344
0.023658527
0.027197406
0.030716084
0.031133303
0.024178505
0.015000915
0.013440663
0.013511152
0.012313613
0.014076765
0.013673017
0.011618589
0.01338465
0.015650114
0.009248174
-0.0050721504
-0.014625998
-0.020358924
-0.026708215
-0.025892254
-0.019192547
-0.012753527
-0.007139403
-0.0013734727
0.0026754495
-0.003470019
-0.017113453
-0.027013607
-0.029386673
-0.021731827
-0.010112881
-0.003882839
-0.0014505658
-2.1340082E-4
6.481633E-4
0.0014396041
0.0030309486
0.006678799
0.0086412905
0.0087184
0.00987755
0.010287202
0.009258028
0.0067602335
0.0034138313
0.004445256
0.009897188
0.012590712
0.012625342
0.013893819
0.011728897
0.0042781895
-0.0021309997
-0.0033847138
0.0024857512
0.011593343
0.012907434
0.0035679047
-0.007080307
-0.010806064
-0.00840799
-0.0051337555
-0.004267656
-0.005619081
-0.008418324
-0.011166303
-0.010614394
-0.008860514
-0.008253727
-0.0054733255
-0.0022187217
-6.4113986E-4
-9.936801E-4
-0.0053296685
-0.0075775967
-0.005311981
-0.0036748634
-0.0012521723
-5.820029E-5
-0.0016133502
7.8619996E-5
0.004162694
0.008274603
0.011108412
0.008097272
0.0041087195
0.0044972235
0.0041578272
0.0038085594
0.005302577
0.0070331926
0.012919594
0.015904553
0.011081467
0.008638462
0.0037471293
-0.002882796
-0.0028500566
-0.009166515
-0.01643138
-0.012350862
-0.009715441
-0.008221666
-0.004533008
-0.0052443175
-0.007630002
-0.008889629
-0.006510062
-0.0027338492
-0.0022818584
-6.453118E-4
0.001403502
0.0011388533
7.616358E-4
2.8373016E-4
-2.7737903E-4
-0.0015808505
-0.0015260164
0.0010555227
0.0019131374
0.0011877762
0.0015773915
0.0027896333
0.002229113
2.53223E-4
8.524399E-4
0.0022636063
0.0022703211
0.003489641
0.0049168924
0.0034463194
0.002507429
0.005884749
0.007863014
0.005668961
0.0032177623
0.0019067412
0.004503011
0.007942687
0.0057181367
0.0023462025
0.0026832335
0.0056379526
0.008829627
0.010127164
0.008109028
-8.246335E-4
-0.0144946715
-0.023911659
-0.025288284
-0.02028281
-0.01348879
-0.0098197535
-0.008112045
-0.004998332
-0.0023937013
-0.0020356406
-0.0013030905
6.355171E-4
0.0025394831
0.0033307187
0.001979569
-2.46212E-4
-5.4410205E-4
5.833491E-4
9.958668E-4
0.0038101359
0.008560344
0.008607454
0.0053631626
0.0030838565
0.0023344106
0.0014456531
2.6520243E-4
0.002250461
0.0024343003
7.126888E-4
0.0019672087
-4.026527E-4
-0.0013849683
0.003031288
0.0056820894
0.0081182895
0.006650445
0.004103367
0.0042116935
0.0016941581
0.0034237101
6.518692E-4
-0.007809308
-0.0035409401
-0.0019100487
-0.006679451
-0.002804921
-0.0021137565
-0.0062492574
-0.0060261344
-0.0038317624
-0.0035433958
-0.0052343346
-0.0054371287
-0.0060464707
-0.005508635
-0.0035426398
-0.0060180146
-0.0068638646
-0.004733295
-0.0016723853
0.00623655
0.011511202
0.011818098
0.014257646
0.017689137
0.01518802
0.003557011
-0.007654804
-0.009175427
-0.003507367
0.0031218487
0.0059999945
0.005494305
0.0039173597
0.0022489685
-9.796106E-4
-0.005463742
-0.007982462
-0.01095044
-0.012379594
-0.009608547
-0.008260452
-0.0065954346
-0.0036886735
-0.0024538627
-0.001293087
-0.0016784703
-0.0013957858
0.0019434236
0.004644332
0.004533894
0.0017101455
0.002077085
0.0056773303
0.006191988
0.007685016
0.011019305
0.01206199
0.012564884
0.012252221
0.008979861
0.0029877396
-0.0026999235
-0.0057873996
-0.006081799
-0.0018468923
0.0027336075
0.0010055614
-0.003962157
-0.008513115
-0.012887513
-0.012699358
-0.0066137323
-0.002287394
-0.0022286635
-0.0026695442
-0.0024127425
-0.0020784743
-0.00377846
-0.005437249
-0.0037510253
-0.0011680403
0.0013040296
0.0023173227
0.0011062834
1.1595466E-4
-5.2655203E-4
1.3232889E-4
8.244397E-4
6.3690695E-4
0.0019956834
0.0028228904
0.0020809856
-3.124856E-5
3.5825008E-4
0.0032261545
-0.0019913695
-0.0060723806
-0.0010145752
0.0019822784
0.0071163774
0.012089228
0.011320526
0.013911481
0.012576447
0.0068937596
0.0037752844
-0.0033062869
-0.0053174826
-5.3601772E-5
-3.2355913E-4
-0.0023894028
-0.001428847
6.2239077E-4
2.2508732E-4
-0.004409411
-0.007846065
-0.008798737
-0.009157107
-0.009019216
-0.008421189
-0.006829672
-0.0055485587
-0.004665939
-0.004080198
-0.00376465
-0.0036212276
-0.0035691687
-5.143979E-4
8.574494E-4
-0.0015637801
2.3796883E-5
0.0019247619
0.0018939397
0.0045328545
0.0076016234
0.010468053
0.010203422
0.0073036104
0.0081230225
0.008008054
0.0026388587
-0.003975255
-0.0056427964
-0.0011220326
0.0015042932
0.0022165694
0.0064084213
0.010594176
0.010491381
0.006532068
0.003721991
0.0025435237
-0.0017880967
-0.0066725514
-0.007788765
-0.0058359164
-0.0043678023
-0.0053294892
-0.006365016
-0.006359098
-0.006356708
-0.007909925
-0.00919623
-0.0071826405
-0.0049741436
-0.0042777704
-0.004925255
-0.005947328
-0.0037342333
-0.0021581699
-0.0026383665
1.4968793E-4
0.0029429528
0.003701432
0.005716786
0.0056601833
0.0021345587
0.0024149942
0.006200131
0.0067682625
0.008999791
0.013033626
0.010444236
0.0066039306
0.005686904
0.00479369
0.00534023
0.004829899
0.0026018952
0.002353482
0.0020110917
-0.0023364567
-0.006185964
-0.0025952458
4.970733E-4
-0.0024146547
-0.0049089426
-0.008936186
-0.013255494
-0.013646538
-0.011150287
-0.004071136
1.771666E-4
-4.2221582E-4
9.4022404E-4
-0.0011253096
-0.004502005
-0.004552695
-0.00490094
-0.00176935
0.0021696894
0.001867509
0.0024264052
0.0042304657
0.004647541
0.0039552506
0.0033299513
0.0043236013
0.005211553
0.00345374
0.0021038712
0.004352648
0.0052222977
0.0019382861
-0.0026194598
-0.006895778
-0.0060254736
-0.0012842352
-0.0011724593
-0.0028907734
-6.212764E-4
0.0014389813
-5.2161445E-4
-0.0019895365
-0.0014993885
-0.0012892503
0.0016234817
0.0046924986
0.0060213413
0.008659828
0.0082494635
0.0059453603
0.0037910598
9.3728356E-4
0.0021485717
3.9092227E-4
-0.006084587
-0.0059302235
-0.0029800702
-0.0019675123
-0.0017522529
-0.004807403
-0.0068634264
-0.0032000563
0.0018114909
0.002229128
-0.0012332447
-0.0051516197
-0.0074090096
-0.006053467
-0.003980493
-0.0017226483
0.0025235757
0.0038390525
0.0025971544
0.002792311
0.002742078
0.0014352282
4.328863E-4
0.001941786
0.0025672356
-4.7261428E-4
-0.001461956
2.886866E-4
4.037572E-4
-0.0021623878
-0.004360772
-0.0023483704
-3.1914802E-5
9.994505E-4
0.0036321043
0.0030805736
3.6452225E-4
0.0013143959
0.0011639872
-0.0012984319
-0.0015789949
-0.0021565747
-0.001699588
0.0044104764
0.011858006
0.017435558
0.019263307
0.011604617
-5.012677E-4
-0.0063494127
-0.0076360307
-0.0091548115
-0.0077618514
-0.0047118873
-0.0070904014
-0.009049411
-0.0032257894
8.890115E-4
-0.0011165679
-0.003152688
-0.0054713204
-0.007930671
-0.008145889
-0.0062702885
-0.00236414
4.844773E-4
5.839526E-4
2.1268168E-4
2.3626792E-4
0.0024912232
0.0058630193
0.007086065
0.0091089
0.010825181
0.007538032
0.0030466926
2.556687E-5
-0.001473855
8.793092E-4
0.0029252432
0.0012794005
3.3703094E-5
3.629697E-5
-7.9961854E-4
-0.0033318321
-0.004259661
-6.594496E-4
1.9170337E-5
-0.0037944159
-0.004892471
-0.0043979664
-0.0018454499
0.0017751035
5.1577576E-4
-2.5115645E-4
0.0016871596