0.0036811153
0.0029423905
9.4259257E-4
0.0016970878
0.0020646525
0.0016575548
0.0012759588
5.776385E-4
-5.8790236E-5
3.1904157E-4
0.0014027907
-5.3284934E-4
-0.0021112773
-0.0020061096
-0.00280215
-0.0011898279
-0.0010144223
-0.0028666365
-0.0016473696
-3.8074484E-4
5.463202E-4
0.0013726726
0.0011210676
0.0014759497
0.0016444933
1.5472437E-4
-0.0020229057
-0.0016481433
-8.037661E-4
-0.0010747355
1.991127E-4
-4.2207303E-4
-0.0010353308
-6.836434E-5
-0.001580129
-0.0021153614
-0.0039962875
-0.0062599527
-0.0017112652
0.0018062962
0.0014221394
0.0017813592
9.784639E-4
8.775873E-4
0.0018265032
0.0011744555
2.241465E-4
1.3298118E-4
0.0011896623
0.0026785415
0.0027972744
0.0017809906
0.001580146
0.0019445933
0.0020865598
0.003260447
0.002843929
-5.905474E-4
-0.0011656673
9.5794455E-4
5.0256844E-4
-4.897961E-4
2.485971E-4
4.74469E-4
-5.5550336E-4
-0.001859325
-0.0022015227
-0.0016221055
-0.0011976059
-8.280268E-4
1.7815268E-4
0.0017813988
0.0013669704
-8.6542696E-4
-8.0798625E-4
-5.3669367E-4
-0.0014894472
-0.0015072053
-0.0024855514
-0.0023904478
-9.3533046E-5
2.6771467E-4
3.1836054E-4
9.992399E-4
-0.0013024866
-0.0046471977
-0.0026257047
0.0018527472
0.0010279911
6.60639E-5
0.0022115903
0.0017446321
6.3756574E-4
4.3239642E-4
-3.312347E-4
-0.0011813393
-0.0031000124
-0.0031712253
-6.8433606E-4
5.543162E-4
9.782584E-4
9.5373025E-4
-1.9481384E-5
1.347392E-4
0.0019094896
0.0018486228
-4.2372828E-4
-0.0012474827
-5.608644E-4
0.0012585284
0.0028563137
0.0024518678
0.0028061294
0.002639306
8.0768357E-4
3.5065736E-4
-6.2048924E-4
-0.0023808214
-0.001856275
3.4291195E-4
0.001132428
1.8303022E-4
4.2788463E-4
7.7768817E-4
-1.7725035E-4
-0.0010191111
-0.0018363008
-0.001693346
-0.0010392386
-6.2186795E-4
2.809175E-4
5.708927E-4
-1.7618855E-4
-0.001114574
-1.0670194E-4
-1.8971236E-4
-0.0041152346
-0.0038389592
-1.684311E-4
0.0010114083
0.0018579582
4.166753E-4
-4.9826177E-4
0.0016558649
7.891333E-4
-0.0012484548
-0.002157636
-0.0023036515
-7.2780786E-6
0.0016705496
0.0019159595
0.0027109801
0.0033227357
0.0026465915
0.0011201206
1.8285777E-4
-7.541522E-4
-0.0011353372
-4.4933E-4
-1.9758212E-4
1.2848007E-4
4.1527548E-4
7.500209E-4
5.0178973E-4
-0.0010936691
-0.0017494615
-0.0020102672
-0.0014290969
2.1562458E-4
3.903576E-4
0.0010103409
0.0011886245
4.4066436E-4
6.4268714E-4
-8.7093894E-4
-0.0014698479
-7.993729E-4
-0.0021308113
-8.1026106E-4
0.0019725766
0.0016618986
9.479003E-4
0.001920295
0.0032667082
0.0019112907
-4.3867604E-4
-0.0012923552
-0.0046949415
-0.0072255004
-0.0022995656
0.0028779784
0.0021594632
0.0015361483
0.0026834083
0.0011398064
-0.0012173255
-0.002357804
-0.0031157346
-0.0014929597
1.6127847E-4
-6.7612843E-4
4.3691642E-4
0.003224148
0.0032770108
0.001336569
-8.274222E-5
-0.0013443987
-0.0030235674
-0.0022424385
0.0012202277
0.00295753
0.0026296002
0.0021239975
0.0011752119
6.0546974E-4
3.5999014E-4
-0.0016185313
-0.0028937287
-5.0888705E-4
8.9316483E-4
3.772773E-5
4.7334866E-4
-7.536156E-5
-3.098812E-6
0.0025330542
5.260288E-4
-0.0040863096
-0.00438829
-0.0029765682
-0.0017777069
7.770301E-5
0.002434249
0.0042016516
0.003696546
0.0022104667
7.784642E-5
-0.0022413915
-0.0025441367
-0.003448994
-0.004274025
-9.896682E-4
0.0022600268
0.0034106718
0.0039136196
0.001625116
-0.0010992779
-0.0026384771
-0.0038747985
-0.0013740876
0.0016080346
0.0014791075
0.0026597828
0.0031510848
0.0010777833
-1.7264629E-5
-0.0013437597
-0.0028914372
-0.003163374
-0.0029785084
-7.9286465E-4
0.0021886802
0.0021499803
0.0011210158
0.001011078
-4.0419886E-4
-0.002028745
-0.0029521731
-0.0039949925
-0.002089712
0.0013937806
0.002803539
0.0043096766
0.0051090894
0.003545286
0.0015435249
-1.1952761E-4
-0.0011102534
-0.0018241002
-0.001705274
-1.18823664E-4
0.0017592049
0.0037976056
0.0044006915
0.002378384
2.3633147E-4
-1.8148072E-4
-0.0021652072
-0.005108462
-0.0017050308
0.0010199196
2.1781679E-4
0.0026574314
-0.0060406416
-0.014065795
-2.6102786E-4
0.005088889
-9.551879E-4
2.3080388E-4
-0.0065314174
-0.0098280255
-5.23481E-4
0.0017902971
0.002945447
0.0055029974
0.002910349
0.0016757704
-4.3041367E-4
-0.0019728076
8.127481E-4
0.0013155779
0.0019540705
0.005301109
0.0055785994
0.003901408
0.0030251108
8.568041E-4
-0.0014810564
-0.0017060293
-0.0013801497
-3.5901685E-4
0.0018829
0.0022104946
4.723468E-4
-1.1803531E-4
4.0351078E-4
-0.0010566897
-0.0043011853
-0.0044960175
-0.0018015463
-3.8665388E-4
5.1307323E-4
0.0014234423
0.0016320883
0.0017893082
3.1840964E-4
-0.002173874
-0.003584646
-0.0040821666
-0.0023349363
3.581644E-4
0.001024804
0.0010408476
0.0014614473
0.0016785237
3.3868942E-4
-0.0021657941
-0.0032289145
-0.0041597807
-0.0038032825
5.5233226E-4
0.003926131
0.0040922756
0.0030465503
0.0016741903
0.0020109608
0.0015271616
-0.0022649022
-0.004904623
-0.0024621566
0.0024317822
0.0041405214
0.0030759305
0.0022813636
0.0013836634
6.2442693E-4
-0.0014705036
-0.0040480015
-0.003139183
-0.0017100237
-6.6932885E-4
0.0022958014
0.0030607185
0.002288041
0.0032733944
0.0017978896
-0.001396145
-0.0024996237
-0.0038713994
-0.0037817592
-9.110662E-4
2.9268485E-4
0.0010664528
0.0024610518
0.0022495606
0.001472885
-3.1977834E-4
-0.0024534122
-0.003097
-0.0023152402
3.0686118E-4
0.0022382354
0.0028576911
0.0023347125
-0.0012569237
-0.0032259354
-0.002179003
-0.0017599819
-0.0012430423
-8.6807425E-4
4.4778464E-4
0.0025845566
0.00308477
0.0028355883
6.840701E-4
-7.7905884E-4
2.6939568E-4
-0.0016259674
-0.002978547
-7.7602715E-4
7.21063E-5
7.849667E-4
0.0023817613
0.0027311794
0.0018402495
4.3516673E-4
-3.601443E-4
-0.0013908258
-0.002882364
-0.0030685533
-0.0022792267
-0.0012398213
2.2265279E-4
0.0016617791
0.0020955345
0.0013938291
-3.8262262E-4
-0.0025146601
-0.002778579
-0.0020198463
-9.110573E-4
0.0012874316
0.0023036494
0.0029726662
0.0035611806
0.002034651
5.544156E-4
-0.0016648279
-0.0033615513
-5.9973006E-4
0.0016967535
0.0016899427
0.0023588024
0.0030637016
0.003642481
0.0012792561
-0.0031729296
-0.0039489223
-0.0032538238
-0.0027072525
-7.062547E-4
7.2568754E-4
0.0016381827
0.0015654329
6.0943206E-4
0.0014375264
8.8189426E-4
-0.0019426094
-0.002782125
-0.0024679787
-0.0015318427
1.5241259E-5
3.5166877E-4
0.0011599468
0.0015815061
-2.9463652E-5
-9.2567975E-4
-0.0020728514
-0.0037900615
-0.0025489135
7.578314E-5
0.0020859963
0.0041986327
0.004400828
0.0025771079
9.769403E-4
-0.001023886
-0.002973748
-0.0030288517
-0.0021354936
-0.001242274
1.9511898E-4
0.0017176049
0.0022288705
0.001965244
0.0017834064
0.0012402801
-3.345739E-4
-0.0024022227
-0.0030331153
-3.8922718E-4
0.0029267643
0.0034324187
0.0033373577
0.00390704
0.0016714717
-0.002098639
-0.0026928298
-0.0023216521
-0.0030437703
-0.0014671091
0.0011714061
0.002310156
0.002266655
7.8974984E-4
3.695368E-4
-5.5204135E-5
-0.0031663487
-0.004307334
-0.003080315
-0.002244847
-4.3490872E-4
0.0010453367
0.0015484103
0.0016660872
2.27273E-5
-0.0019184175
-0.0019210492
-0.001793008
-0.0026727219
-9.0641377E-4
0.0021648556
0.0018092409
0.0020501802
0.003782698
0.0033069928
0.002604895
9.4888534E-4
-0.001354333
-0.0014012154
-7.690071E-4
5.9034635E-4
0.0014403816
7.648737E-4
0.0017181307
0.0026342648
0.0015419032
-9.0577547E-4
-0.00356701
-0.002999439
-0.0014588074
-0.0011537467
4.8350974E-4
0.0012663428
0.001911683
0.003214169
0.0011788784
-5.6094833E-4
-6.858095E-4
-0.0025998831
-0.0025272963
0.0010111812
0.0044753305
0.004714924
0.002747775
0.002936745
0.0017296809
-0.004126678
-0.009002964
-0.008958901
-0.00586746
-0.004711554
-0.0042944187
-0.001979014
-0.0013474491
-1.4779843E-4
0.0019964292
0.0016717687
0.0023071645
0.002189387
-1.6004818E-6
-0.0012294195
-0.002500358
-4.8646436E-4
0.0035382516
0.0047134217
0.006827146
0.0079295905
0.005093982
0.0037950643
0.0053299353
0.006228152
0.00528215
0.0039950516
0.0014017766
-0.0021625545
-0.0040002526
-0.0076187234
-0.010040685
-0.005941269
-0.0030109538
-0.0026870717
-0.0020173688
-0.0027603866
-0.0014414008
1.5180738E-4
-5.375227E-4
-8.3910057E-4
-0.003062499
-0.0033377302
-4.1408805E-4
-0.0015864946
-0.0021704282
7.2912837E-4
0.0023370064
0.0028416575
5.164101E-4
-0.0021747344
-4.3874123E-4
0.0014982532
0.0013394709
0.0013120397
0.0027331985
0.0041091996
0.0024477448
7.223167E-4
0.0014254224
0.0020131515
0.0024521016
0.0029808292
0.0015577418
-0.0018734243
-0.003105855
-7.873107E-4
3.2190193E-4
2.7942006E-4
0.0011411998
7.4427645E-4
-3.203301E-4
-0.0013243156
-0.0023909367
-0.0016203235
-4.2054875E-4
-6.923727E-4
-9.069996E-4
-2.8836625E-4
8.947862E-5
-0.0010844071
-0.0036494415
-0.005263668
-0.0043591713
-0.0023142272
-6.8475906E-4
8.487319E-4
0.0025562795
0.0037585346
0.0039802673
0.0037702816
0.0033368932
0.0021137968
8.074726E-4
2.1801417E-4
0.0010970152
0.0037319819
0.004604228
0.0020483998
-9.860215E-4
-0.0031245758
-0.003576451
-0.003682814
-0.0064715026
-0.007663765
-0.004049286
-0.0011863147
-7.1972056E-5
0.002048516
0.0029876833
0.0018608469
4.5410735E-7
-3.0603172E-4
0.0034366685
0.005972996
0.0018914266
-0.0026275015
-0.0014102511
1.8785412E-4
-0.002952242
-0.0046113133
-0.0026067009
-0.002601936
-0.001404162
0.0015904742
0.001387981
0.0027456551
0.005703812
0.005458209
0.004434117
0.0019877178
-9.3926775E-4
-5.6807493E-4
-9.799238E-5
-9.7361946E-4
-7.753667E-4
7.390937E-4
0.0018029052
0.0010847222
0.0014059496
0.0032431534
0.0026872142
7.196989E-4
-5.408309E-4
-0.001676755
-0.0016628758
-0.0019451804
-0.005102615
-0.0079267165
-0.008625208
-0.01051302
-0.01213764
-0.008637229
-0.0032154908
-0.0012219197
4.8784935E-4
0.0036725744
0.0055745137
0.00753368
0.008891375
0.0070913252
0.005123815
0.005676276
0.007853858
0.00922307
0.007969761
0.0042859097
-2.6517775E-4
-0.0011391421
0.0015026415
-2.2675977E-4
-0.006744496
-0.0112086795
-0.011419823
-0.007953939
-0.0025606307
6.7773776E-4
0.002050852
0.004931757
0.0065278905
0.0043283612
0.0017477836
8.96927E-4
0.0030612105
0.0076144305
0.009319304
0.00621589
0.0014403752
-0.0024291722
-0.005228458
-0.0068195174
-0.0079389615
-0.010935402
-0.012576565
-0.0103898505
-0.0085867755
-0.00612527
-0.00268801
-0.0021937618
-8.71553E-4
0.0017370424
-7.7571644E-4
-0.0056684366
-0.0051962454
0.0011454516
0.007779112
0.012147639
0.01642726
0.02024951
0.023163779
0.025710024
0.023723096
0.014886249
0.003834706
-0.0040718806
-0.008458428
-0.012486656
-0.017022202
-0.023740508
-0.03228394
-0.031969566
-0.019697417
-0.0063898065
0.0032755928
0.007885147
0.004803976
-0.0013021664
-0.0070809587
-0.012397925
-0.013130333
-0.00798356
-2.5102234E-4
0.008941789
0.02083905
0.03250803
0.036113773
0.032946605
0.031004526
0.025485601
0.011127313
-0.0019038196
-0.008208347
-0.016472824
-0.029817995
-0.035899736
-0.026335312
-0.014683745
-0.01203457
-0.010848962
-0.012014072
-0.018807318
-0.018994711
-0.01190335
-0.0065135364
2.0115408E-6
0.0074228165
0.012173421
0.0176071
0.02440313
0.026375633
0.018201802
0.007173291
0.003514728
0.0037613572
0.003319315
0.0046054563
0.012517913
0.026319737
0.033180736
0.029557003
0.024101537
0.018505972
0.013445657
0.0056884643
-0.007873372
-0.017990239
-0.024831863
-0.03323242
-0.037964303
-0.043205824
-0.048032574
-0.04234653
-0.03457918
-0.028418757
-0.016898049
-0.0064677848
1.2704697E-4
0.005707208
0.010155402
0.014149623
0.013215604
0.00644239
-0.0024401792
-0.0074035623
-0.005853638
-0.008800363
-0.009855544
0.004628026
0.024575692
0.045595974
0.06466407
0.070612386
0.06474881
0.052822407
0.038883913
0.022667808
-0.0014107758
-0.033384636
-0.056675553
-0.053685848
-0.040573113
-0.035101064
-0.027615622
-0.013888687
0.0024191453
0.019734154
0.03260456
0.02344066
-0.009010883
-0.029701533
-0.033674426
-0.034531776
-0.02236762
-0.01107782
-0.013601698
-0.018309144
-0.021750648
-0.024240928
-0.02666942
-0.02390101
-0.00950842
0.01889634
0.055368338
0.07597988
0.07349024
0.053647283
0.023208525
-0.003174335
-0.022670494
-0.024507463
-0.014662874
-0.012460504
0.0019373801
0.026046574
0.043436676
0.058267873
0.055202574
0.041740056
0.037662044
0.027632695
-2.5146946E-4
-0.03651824
-0.06384525
-0.07331776
-0.07024708
-0.06947687
-0.06893936
-0.05694592
-0.049861185
-0.04260579
-0.026561245
-0.017277429
0.0043363143
0.0271754
0.028247366
0.03736183
0.047198687
0.044918425
0.052369453
0.06450947
0.06279454
0.051784642
0.04413289
0.010674603
-0.0478236
-0.080364056
-0.10299473
-0.11177629
-0.07644975
-0.023344973
0.058553062
0.13532358
0.14267123
0.12638819
0.096994705
0.037754063
-0.028675724
-0.10769017
-0.14561939
-0.11055843
-0.07120495
-0.033734962
0.020930983
0.06936071
0.09709512
0.090301216
0.07726445
0.10469932
0.14102574
0.12968647
0.063917994
-0.035721254
-0.12823525
-0.17277713
-0.1950521
-0.21449572
-0.1882988
-0.13642047
-0.09978021
-0.06570446
-0.049608923
-0.03793339
7.0788024E-4
0.03304718
0.0634796
0.10080136
0.11075359
0.1182909
0.13333847
0.118774176
0.07917569
0.03672066
0.013071545
-0.0043084878
-0.026016973
-0.006624855
0.0314234
0.05085501
0.069360845
0.0742118
0.09507031
0.13035451
0.11642298
0.060591962
-0.057032038
-0.18880647
-0.24154423
-0.2950682
-0.32485822
-0.23525918
-0.12151056
-0.014861061
0.104904726
0.15010928
0.10923007
0.07071797
0.05380715
0.019981088
-0.0025185833
0.007112081
0.026476933
0.069779955
0.111331664
0.11514205
0.08149281
0.033179697
0.03144676
0.022229401
-0.051346965
-0.07475472
-0.008734343
0.07829764
0.13289227
0.10521526
0.033637132
-0.008563659
-0.052928098
-0.13813353
-0.18147047
-0.132608
-0.0926882
-0.09123668
-0.06529265
-0.03903532
-0.013759985
0.022035193
-0.006359315
-0.061715644
-0.05795721
-0.05570359
-0.05853479
-0.013155138
0.03439539
0.06669051
0.08295601
0.07871886
0.093745634
0.1057866
0.086589694
0.058331016
0.039001938
0.0327185
0.005587615
-0.018311951
0.012201558
0.055190664
0.0848993
0.09879262
0.068393216
-0.003964628
-0.07935148
-0.11312658
-0.10540306
-0.07838635
-0.036398258
0.018676525
0.06130911
0.046841487
0.0074728113
-0.00900537
-0.02027069
-0.030610241
-0.06377442
-0.103177294
-0.08334092
-0.039126333
0.0119149415
0.08184623
0.103592835
0.068557225
0.022721872
-0.050620317
-0.1424673
-0.16096161
-0.09535995
-0.04195662
-0.018916909
-0.0012202463
0.0067912196
0.020027576
0.03384267
0.040866926
0.04736039
0.048056193
0.051626053
0.056909237
0.05995826
0.063728735
0.06173205
0.059717774
0.05469306
0.045809522
0.03911379
0.026827075
0.017773075
0.010845315
-3.7451388E-4
-0.0067061177
-0.016335027
-0.024329528
-0.027071174
-0.03537914
-0.040732484
-0.04734004
-0.05037514
-0.040153455
-0.03665027
-0.030910438
-0.01736995
-0.013578243
-0.0023543572
0.0150472345
0.018097844
0.016806915
0.015588766
0.014011993
0.014198952
0.010565119
0.0077260844
0.006760938
0.0031544673
-6.6732784E-4
-0.007559561
-0.016554466
-0.022825863
-0.028285757
-0.031176006
-0.030407341
-0.0289981
-0.025905143
-0.02172398
-0.018286651
-0.01456879
-0.01147223
-0.008461576
-0.0030335744
0.0036745288
0.010608409
0.019037154
0.02919274
0.037952404
0.04135915
0.0395766
0.034777302
0.03150696
0.033310317
0.03565847
0.034975763
0.033065256
0.032311108
0.032537885
0.031294942
0.030766184
0.02551153
0.0056719068
-0.01666313
-0.030091848
-0.040379066
-0.046540096
-0.046827275
-0.045779493
-0.04298093
-0.039012533
-0.037399974
-0.0364442
-0.033642348
-0.03179968
-0.03183964
-0.03040487
-0.026835848
-0.020956034
-0.012850874
-0.006216052
-0.0017608252
0.0030809105
0.006460626
0.0076018004
0.009963947
0.014203422
0.020217435
0.027165385
0.030428464
0.028432032
0.02394096
0.020813972
0.021355823
0.021976879
0.020539373
0.020963289
0.02257822
0.021831868
0.02010382
0.016567873
0.010846175
0.008187771
0.007151297
0.004311798
0.0014693422
-0.0021647543
-0.0044125174
-0.005559024
-0.009856102
-0.01289016
-0.015138738
-0.018356033
-0.018447496
-0.020128231
-0.021996727
-0.019108806
-0.01704366
-0.015967617
-0.014317078
-0.012654193
-0.011119571
-0.011037196
-0.0086602615
-0.005021474
-0.0023944057
9.666512E-4
0.0018231032
0.001735605
0.0019395822
0.0016084329
0.0024083876
8.141332E-4
7.399443E-4
0.0038386728
0.004546968
0.0062254653
0.007325827
0.008113695
0.01032858
0.008362675
0.0067645945
0.0050399154
0.0019699554
0.0048049875
0.0071232636
0.0066661877
0.006346771
0.0048769955
0.006650781
0.006706043
0.0029905548
0.0021030172
0.0015679158
0.001649991
0.0017680475
6.546522E-5
5.0350453E-4
6.832772E-4
-0.0010038869
-0.0020739962
-0.0028225915
-0.0036772366
-0.0044807578
-0.0032667236
-0.0015980051
-0.0014964765
-6.659635E-4
5.937048E-5
5.767462E-4
0.0013838549
0.0013632381
0.0013562877
4.6268306E-4
-6.5804075E-4
2.088374E-4
0.0017998505
0.0028730317
0.0029329334
0.001494696
-2.9482096E-4
-5.728776E-4
-7.186886E-4
-0.0019389552
-0.0015378052
-4.6425336E-4
1.4906726E-4
0.0021022065
0.0033706194
0.0028814736
0.0017313936
6.1466225E-4
-1.8146679E-4
-0.0010853691
-1.1262694E-4
0.0017942155
0.0022810313
0.002884956
0.002840294
0.0019544275
0.0013636329
0.0010715771
0.0010121346
1.8649289E-4
0.0014664382
0.0034086613
0.00169684
0.0019315884
0.0037363446
0.0024029803
0.001191775
-4.1407588E-4
-0.0025627513
-0.0012694945
0.0019313077
0.002722523
0.002866582
0.0045931335
9.27733E-4
-0.0051623834
-0.003269349
-8.44675E-4
-0.00209326
-0.0020059468
-0.0023082865
-0.001616888
-1.4687121E-4
-1.0472449E-4
7.078029E-4
7.844847E-4
-2.3721336E-4
-0.0011877528
-0.002610994
-0.0029276048
-0.0017524814
1.544514E-4
0.0013491556
0.0010800353
0.0012110798
0.0018310928
0.0016302608
7.6613703E-4
-8.911789E-5
-0.0015756134
-0.0014772105
0.0017127998
0.002169964
8.277497E-4
0.00193021
0.0015372531
-3.27269E-4
-0.0019201685
-0.0021064274
4.2908394E-4
0.0012833953
-4.2138704E-6
-9.541384E-4
3.9858533E-5
0.0028788217
0.0026810446
0.0020687848
0.0022884775
-3.4424366E-4
-0.001352059
-0.0012992569
-0.0015927777
6.677789E-4
0.0024406055
0.002266853
1.1292236E-4
-0.0013825643
-0.0016511842
-0.004789678
-0.0043643913
-1.9347499E-4
-5.547491E-6
-2.1575757E-4
7.4282885E-5
5.585608E-4
0.0024030441
0.0015222704
-3.8039288E-4
-0.001342086
-0.0020760181
-3.6207947E-4
8.211075E-4
-4.3803154E-4
-2.7262226E-5
6.251693E-4
-4.4502638E-4
-1.19796554E-4
-5.9273455E-4
-0.0025749647
-0.0020007705
-0.0018501529
-0.0019871318
2.414459E-5
7.7718485E-4
0.0016235419
0.0029866972
0.0029455733
0.0017746238
-1.09596476E-4
6.670847E-4
0.001941392
0.0010927782
0.0010650835
0.002144119
0.004196435
0.003645404
0.0015653323
0.0018438343
4.1684977E-4
-4.1334462E-4
-3.1861386E-4
-1.2200216E-4
0.002590417
0.0012812468
-2.323483E-4
6.121861E-4
-9.702862E-4
-0.0034191946
-0.011799141
-0.013199018
-0.0017669237
0.0011385286
0.001761113
0.0037417249
0.0021347913
0.003191046
-0.005653536
-0.011950646
-7.499283E-4
0.0034986152
0.0016048814
0.0028397962
0.0020588452
0.0031533448
0.0020051019
-2.105715E-4
0.0012211327
5.973719E-4
-6.283872E-4
-3.387834E-4
7.528096E-4
0.0011572228
-2.970073E-4
-3.680228E-4
-1.5632431E-4
1.5345443E-4
8.046407E-4
9.68095E-5
2.8861625E-4
-7.915508E-4
-0.0015363641
0.0013637696
0.0014826584
5.814387E-4
0.0026533366
0.0025668722
4.2613017E-4
-7.529016E-4
-8.0666726E-4
7.177686E-4
0.0025720529
0.0024379115
0.0016146098
0.0023958427
0.0026621514
0.0012217064
-5.158627E-4
-0.0026353747
-0.004182202
-0.003616812
-0.0012957454
4.0397162E-4
1.3939054E-4
2.455675E-5
2.7014827E-4
-2.3163095E-4
-9.390328E-4
-0.0028926865
-0.0054961573
-0.0053674257
-0.0024854713
-3.187487E-5
1.5927973E-4
-8.808977E-4
-4.3770307E-4
0.00174331
0.0019185034
-4.187449E-4
-0.0013883193
-0.0014208255
-0.0015379259
9.898335E-4
0.003709538
0.002994785
0.002522618
0.0029677048
0.0020926457
0.0020058865
0.0012333335
-4.5491828E-4
-1.8880986E-4
-6.2593207E-4
-1.9754302E-4
0.002160483
0.0025991057
0.0033022237
0.0024920017
-3.7672228E-4
-3.2566E-4
-2.2140755E-4
2.5487528E-4
0.0021421148
0.0012063083
-9.231435E-4
-9.3180366E-4
0.0012488281
5.5452704E-4
-0.0017385088
-2.9395142E-4
-0.0026501005
-0.0047565238
-5.576287E-4
-0.0019104487
-0.0041505736
-4.1027577E-4
6.808751E-4
-8.4007095E-4
-0.0022241028
-0.0027714302
-0.0025154594
-0.0026539739
-0.0013443579
-5.1450805E-4
-6.68265E-4
-6.8168144E-4
-0.0017262115
-0.0016762692
-0.0023905179
-0.0038853914
-0.0021642048
-7.149887E-4
6.447264E-5
0.0016889215
0.0014277514
0.0019801112
0.0034034527
0.0020428232
8.818573E-4
6.275009E-4
1.031791E-4
0.0016470903
0.0025900628
0.0010124984
9.295263E-5
-6.305376E-5
2.9759688E-4
5.66423E-4
-3.2772057E-4
-5.375764E-4
-2.4579334E-4
3.315035E-4
0.0020783637
0.003562546
0.0044026882
0.0049945777
0.005059274
0.00418867
0.0037824414
0.004464285
0.0028426114
6.445953E-4
0.0018435045
0.0023236517
-3.5110975E-4
-0.002449833
-0.0014756626
-0.0011990578
-0.004462716
-0.005559973
-0.005273916
-0.007617943
-0.007320736
-0.0051156036
-0.0052467757
-0.006394483
-0.007704355
-0.008267122
-0.009267149
-0.010830702
-0.011331814
-0.010326491
-0.0044951644
0.0031714689
0.0074912496
0.009951013
0.009900572
0.009385057
0.00959395
0.008512196
0.0091081485
0.009255138
0.0074497955
0.0071736397
0.0066882186
0.0048445486
0.0024356388
0.0013946842
0.0018472362
0.0018112742
0.0021523186
1.579554E-4
-0.0023476563
-0.0019473782
-0.0026135414
-0.0029135458
-0.0035049473
-0.0046628946
-0.004029349
-0.0041064215
-3.9968212E-4
0.0016569733
-0.0015130491
-3.3128445E-4
-0.005339847
-0.011059588
-0.0023337908
-3.2402825E-4
-0.008513192
-0.0069100563
0.0028671082
0.0073064347
0.0031981864
6.904923E-4
-2.0744566E-4
-0.002586776
-0.0015988486
-0.0020604902
-0.003010339
-0.0017520323
-0.0020615242
-3.5046454E-4
3.2411673E-4
-4.8937416E-4
0.0022279888
0.0027587963
0.0020563286
0.0032090247
0.0024960092
0.00202951
0.0034487653
0.004193431
0.003734132
0.0032821822
0.0028425655
0.0023391498
0.0019650254
6.88484E-4
-1.3170672E-4
-4.8293427E-4
-0.001117578
-1.01325844E-4
5.3422665E-4
3.7035023E-4
8.963641E-4
5.575142E-4
4.9131585E-4
7.708609E-5
-0.0017259372
-0.0024270625
-0.0020757588
-0.0014270784
-0.0012129175
-0.0020418859
-0.0029095283
-0.0033162702
-0.003017181
-0.0032754173
-0.004134574
-0.004218812
-0.003948893
-0.0019914987
6.2689715E-4
0.0010483285
0.0012239865
9.4745983E-4
-5.155472E-4
1.7997301E-4
0.0019180732
0.00153737
0.0016752562
0.0035370197
0.003514668
0.002085247
0.0022087013
0.0019011787
0.0012446331
0.001169148
-0.0010709098
-0.0018494726
0.0013843894
0.0029816064
0.0013405617
-6.1097863E-4
1.9645577E-4
0.002174742
7.8768167E-4
-0.0011430752
-0.0011407405
-0.0011782162
-0.0016547128
-0.0023380574
-0.0016010804
-9.264754E-4
-0.0013942949
-7.0648275E-5
-2.577657E-4
-0.002731136
-0.0033003166
-0.003522873
-0.0033709188
-0.00232006
-0.0018307568
-4.8570635E-4
7.592767E-4
-6.226292E-4
-0.0034153808
-0.00322062
-2.518877E-4
1.7813074E-5
-5.9518404E-4
0.001049477
0.0020919847
0.0022426585
0.002555732
0.0033095046
0.0038236505
0.0029726806
0.0026485932
0.0030426783
0.003267172
0.0036212185
0.0027435627
0.001708131
0.0015633221
-3.5603624E-4
-0.0024795462
-0.0016641031
-9.0888306E-4
-0.0011190249
-3.1327902E-4
-4.0631197E-4
-2.0829283E-4
0.0011869015
-3.1275016E-5
-0.0017486073
-0.0020176545
-0.0033355472
-0.0037352883
-0.0017678235
-3.070913E-4
-6.9880136E-4
-3.1789762E-4
0.0016469983
0.0018161669
5.446722E-4
-3.6196737E-4
-0.0013277262
-0.0013247257
-0.0010832336
-9.719315E-4
6.297856E-4
0.0017013436
5.9140526E-4
-3.870397E-4
-4.432536E-4
-0.0014042482
-0.0027788708
-0.002542837
-0.0011154072
1.1450745E-4
-2.5177206E-4
-0.0010356412
-2.1840556E-4
2.1734883E-4
7.5415964E-4
0.0017139012
1.898367E-4
-1.5161432E-4
0.0019631952
0.001974695
0.0022138155
0.0032283955
0.0027590739
0.0040846854
0.0047435253
0.0020152954
0.0013446112
0.0020404223
0.0015725342
0.002170987
0.0018587143
2.4220916E-4
-2.3565332E-4
-3.4921363E-4
-6.695519E-5
-5.9300754E-4
-0.0030410031
-0.004433006
-0.0039777127
-0.003123216
-0.0025091893
-0.002419757
-0.0022707703
-0.0030695554
-0.0047961567
-0.0041052387
-0.0025053408
-0.0033022838
-0.0027359396
-6.354826E-5
4.0534232E-4
-2.6977884E-6
-3.3156824E-4
-3.009682E-4
0.0030073712
0.0045877816
5.9945346E-4
-0.0021810946
-6.111298E-4
0.0019617071
0.0034664182
0.005196198
0.0069127777
0.005351422
0.0029391863
0.0027380963
0.0021245582
0.0012420597
0.0016776852
0.0025211435
0.0026475063
0.0019676962
0.0021958384
0.0024395857
9.3726016E-4
4.4556207E-4
9.183211E-4
-0.0011860857
-0.004169383
-0.004710733
-0.0034622503
-0.002336487
-0.002322796
-0.0028146985
-0.0031711396
-0.004034803
-0.0048753773
-0.0050504385
-0.0048889252
-0.0038731876
-0.0021952288
-9.874738E-4
-6.7090715E-4
-7.608557E-4
-6.4297253E-4
-4.8004455E-4
1.265219E-4
0.0010347207
0.0010734008
0.0015319376
0.0037178856
0.005787211
0.006388019
0.006303217
0.0057421117
0.004274567
0.0027805986
0.0021908763
0.0028615247
0.003592066
6.9298653E-4
-0.0023527301
-6.898563E-5
0.0017174487
9.664876E-4
2.0101621E-4
-0.0019524796
-0.0022980913
-0.0019667374
-0.003106199
-0.0019413326
-0.0010148741
-7.033829E-4
5.94661E-4
-3.4443176E-5
-0.0011431433
-0.0023796197
-0.0043888413
-0.004672969
-0.003927221
-0.0043707155
-0.003941873
-0.0014263332
-0.0014682999
-0.0026142201
-0.0025105483
-0.0037568877
-0.0013719359
0.0021028789
0.0017594058
0.0039059075
0.005842669
0.0048439885
0.0045295595
0.0046487106
0.0034885153
4.9921434E-4
0.0012806657
0.0031969773
0.0020106744
0.0033574067
0.0041117053
0.00357211
0.0025486983
0.0013478805
0.003865822
0.00363433
0.0032452142
9.5528323E-4
-0.004575679
-0.002783862
-0.010280064
-0.014532904
-0.0018944276
-0.007045343
-0.0078116166
0.0030399798
-0.009571476
-0.01077662
0.0038545216
0.0033156965
0.0032297925
0.004086904
0.0027105068
0.004396262
0.002992704
0.0018498541
8.2600524E-4
5.0238654E-4
0.0018578101
8.674793E-4
0.0023012327
0.0045699915
0.0039635524
0.001995038
1.5238413E-4
0.0016887115
0.0024610814
0.0014175556
0.0012159509
-5.9696677E-4
-0.0010569842
-5.1543704E-4
-0.0017528038
-0.001883702
-0.002045286
-0.003418157
-0.004222511
-0.003274343
-9.0269983E-4
2.338579E-5
6.2089384E-4
0.0023365414
0.0016150675
-2.9097739E-5
1.9103965E-4
-7.020762E-4
-0.001943749
-0.0018040673
-0.0011732776
7.441741E-4
6.039793E-4
-0.001109992
8.557255E-4
0.0017703624
-1.9106299E-5
-2.7805197E-4
-6.063963E-4
-2.7630062E-4
8.5393933E-4
6.180979E-4
0.0012740087
0.0030500935
0.0037995642
0.00305341
0.0016808982
8.6090964E-4
4.4139274E-4