0.0035812396
0.004869421
0.0019517791
-0.0013738867
-0.0023953165
-0.002392069
-8.2427036E-4
-5.242901E-4
-0.0019475109
-0.002974819
-0.0026309106
-0.0014873692
-0.0016559385
-0.0017535929
-0.002104454
-0.0028121606
-0.0016747626
-0.0014025959
-0.0011008412
0.0012319731
0.0025218409
0.00332518
0.0037175606
0.0015851907
-0.0011178679
-0.0020509062
-0.0017211935
-0.001205311
-7.1429485E-4
5.5858464E-4
0.0027352015
0.002948855
0.0014220781
7.657931E-4
-6.799315E-4
-0.0017891524
-0.001977077
-0.0026636599
-7.262809E-5
0.002963069
0.0030536146
0.0038377573
0.0021969425
-0.0018939694
-0.0030497448
-0.0024206447
-0.0010673857
3.843474E-4
-5.1584473E-5
1.7901894E-4
0.0023862368
0.0025234632
1.2499111E-4
-8.621227E-4
-0.0012764283
-0.0022286046
-0.0010259554
6.034833E-4
5.1222416E-4
3.259328E-4
8.284348E-4
0.0015552702
2.017844E-4
-0.001932588
-0.0016605749
-0.0024524298
-0.003796175
-0.0015669945
6.927993E-4
0.001963856
0.003798665
0.0031592194
0.0021471074
0.0029992019
0.0013774098
-0.0011576116
-0.0011421919
-0.0016015514
-0.002694819
-0.0020044213
-6.1947544E-4
1.5521771E-4
7.527338E-4
0.001460712
0.0010859864
9.311714E-5
5.4939056E-4
0.0014381614
0.001728681
0.0016365758
6.387471E-4
-1.8493758E-4
-4.963668E-4
-0.0017402819
-0.003391592
-0.0032332442
-0.0012593203
-1.9141148E-4
5.5126566E-4
0.002279816
0.0025356337
0.0017359661
0.0013999433
3.7691285E-4
-0.0013131949
-0.0022943947
-0.0018107551
-0.0016326725
-0.0016277678
-1.7258877E-5
0.0010387728
0.002038027
0.002989731
0.0010298262
-0.0010664018
-0.0018097537
-0.0012890372
3.172348E-4
6.67203E-5
0.0010542423
0.0035405338
0.0031157958
0.0016638214
-6.552802E-4
-0.0021376912
-0.0010228445
-0.0018552558
-0.0021118796
-2.8913468E-5
1.9252766E-4
8.236907E-4
0.002527538
0.002340914
6.839318E-4
-0.0014331376
-0.002332853
-0.0017155907
-0.0011518832
-3.8613123E-4
4.3270574E-4
0.00114805
0.002221029
0.0018603054
-4.8992387E-4
-0.002710758
-0.0035554918
-0.0023703282
-6.589282E-4
-6.857756E-4
-1.4948932E-4
0.0020183693
0.0018780928
-5.889572E-4
-0.0010465054
2.8083552E-4
3.8476102E-4
-4.27952E-5
-3.4059025E-4
-6.8435585E-4
4.1940194E-4
0.001645302
0.0015569872
0.0017078853
0.0026997665
0.0035686379
0.001528002
-0.0025069567
-0.0029489126
9.90623E-4
0.005180096
0.005757746
0.004033023
0.002609407
-0.0010789236
-0.004860528
-0.004465267
-0.0036075832
-0.004602122
-0.004293296
-0.0015453579
-4.2410722E-4
-0.0010340767
-6.475395E-5
-0.001953267
-0.0042955936
-0.0010965087
-1.6740282E-4
-0.0015455473
4.3897197E-4
0.0011880839
8.740269E-4
0.001254406
2.6020783E-4
-0.0012594259
-0.0020537514
-6.066793E-4
0.0020132754
0.0038704737
0.005534218
0.006854102
0.007299843
0.0039930707
2.5569033E-4
0.002330374
0.002334564
-0.002289824
-0.0036997849
-0.0037871748
-0.0044151912
-0.0037407894
-0.0018255571
7.188533E-4
5.422346E-4
-0.0010889565
-0.0012318625
-0.0011447031
-1.6342606E-4
-1.15129784E-4
-0.0021289752
-0.002361275
-5.089167E-4
0.0014690739
0.0015951403
-2.2736104E-4
-6.4622564E-4
-3.914632E-5
-2.7764804E-4
4.184544E-4
0.0019959263
0.0026340035
0.0032318528
0.003768296
0.0025859082
3.448262E-4
-0.0017663083
-0.0025961306
-0.002669124
-0.003881131
-0.004736775
-0.004644449
-0.002451603
0.0024532462
0.0043537794
0.003404115
0.0017091207
-0.002432437
-0.00417282
-0.0023184137
-3.9145065E-4
0.0018612704
0.0039082305
0.0056026727
0.005753319
0.0045298226
0.0042706965
0.00351659
0.002439218
0.0022315453
0.0010006824
-0.0022845168
-0.003362212
3.130372E-4
0.0019700185
0.0010417827
5.096247E-4
-0.0035777471
-0.009276172
-0.0125179
-0.010154187
-0.0037947248
-8.2912203E-4
0.0017980518
0.0026872016
-7.7669206E-4
-2.3095596E-4
-6.811916E-4
-0.004463168
-0.002328537
0.002168434
0.0010880688
-0.0026447638
-4.833717E-4
0.004193048
0.0061540226
0.007996922
0.007482464
0.006473451
0.0031909228
-0.0019323272
0.002558918
0.007020913
0.005448768
0.008034845
0.00871277
0.0055566207
0.0028537796
-0.0015532648
-0.003937431
-0.0037395253
-0.0045753527
-0.003645676
-0.001652085
-0.0045635537
-0.008262941
-0.011151863
-0.018777458
-0.022149544
-0.018342184
-0.01348331
-0.0049768067
0.0028937764
0.008271555
0.010237012
0.005050452
0.0022375856
0.0026893248
-1.4427722E-4
-0.0016886974
0.0010247381
0.0033329157
0.00457342
0.010781224
0.016607495
0.018934473
0.021591201
0.022051044
0.02498473
0.02150572
0.01377925
0.013595917
-0.008479554
-0.03341707
-0.02346678
-0.018100677
-0.025678976
-0.020451609
-0.01157215
-0.012963478
-0.022399604
-0.015246228
0.0025001348
0.0034441105
2.500641E-4
-3.4880234E-4
-0.003406825
-0.0039127506
-7.556306E-4
0.006141826
0.010399223
0.012248821
0.013827783
0.013794775
0.017477412
0.01792878
0.013474778
0.010438962
0.009381859
0.011674448
0.0029354522
-0.013980195
-0.017757297
-0.015706388
-0.015752802
-0.01589879
-0.012357264
-0.0028337606
-6.7863887E-4
-0.006292566
-0.011430001
-0.014091376
-0.0089355195
-0.0037560093
-0.0016683365
0.0022537827
0.0034705931
0.0060849153
0.006924581
9.247136E-4
-0.0017947861
-0.0024278308
0.001797155
0.012692504
0.016006993
0.015213007
0.012804475
0.0023645367
-0.00515843
-0.0036293867
0.0037921816
0.012956641
0.021485057
0.031186478
0.027279925
0.0052292966
-0.008692554
-0.004867499
0.0024146955
0.0046675242
0.002186154
-0.0039048167
-0.007392684
-0.0068959473
-0.015372548
-0.026817342
-0.028518958
-0.028355742
-0.025565876
-0.020893363
-0.022103246
-0.02105769
-0.015317207
-0.01238989
-0.010859943
-0.0067363116
-0.0063171526
-0.006004187
0.012691946
0.034369536
0.03195243
0.015431389
0.004574818
0.009032995
0.014137738
0.0025200145
-0.0025613257
0.0130316485
0.031718284
0.040975843
0.033510204
0.01901649
0.005056038
-0.00782624
0.005758691
0.012784853
-0.033238485
-0.056087274
-0.033393312
-0.049216576
-0.07839574
-0.06840296
-0.056880444
-0.053056184
-0.026424425
0.028695172
0.09139215
0.12947632
0.13808393
0.136434
0.10788019
0.025900513
-0.057657264
-0.07875242
-0.05957666
-0.040838614
-0.021276025
0.0297053
0.1000853
0.10902863
0.064578325
0.04637781
0.04442141
0.02845373
-0.007948656
-0.05405329
-0.07166184
-0.0825551
-0.11025474
-0.13982512
-0.17721575
-0.19120558
-0.17571792
-0.14099613
-0.050244648
0.035342142
0.070586964
0.11995606
0.1759119
0.20844215
0.22922873
0.23367009
0.16529804
-0.007545727
-0.14861296
-0.15818034
-0.0900029
-0.00850912
0.008613221
0.0134071605
0.09396293
0.12960912
0.06652747
-0.005178343
-0.05331876
-0.070300445
-0.0470183
-0.001725932
-0.012508827
-0.096389085
-0.14205341
-0.13873325
-0.14301708
-0.13365227
-0.09557073
-0.018614795
0.1018662
0.21985698
0.25393432
0.18153292
0.11156453
0.0870129
0.06001491
0.08025652
0.09374279
-0.016624713
-0.092387915
-0.045912877
-0.033851106
-0.035519857
-0.0049915714
-0.015396181
-0.007248291
-0.004006647
-0.10874783
-0.18608405
-0.13633306
-0.07457523
-0.048375197
0.0014990343
0.05627588
0.03929725
-0.01718765
-0.034264147
-0.025579115
-0.022288825
-0.024255076
-0.02560409
-0.026383713
-0.023158843
0.03050952
0.112352535
0.13528858
0.1340066
0.10372709
-0.024133619
-0.10136204
-0.009872197
0.1167541
0.15170072
0.07870067
-0.015777674
-0.08299051
-0.17001078
-0.17689927
-0.05993481
0.024868825
0.05090465
0.049271267
0.05447913
0.12387196
0.10420695
-0.043016657
-0.09052198
-0.049175937
-0.03991204
-0.032151576
-0.02113997
0.015431623
0.036358047
-0.034333773
-0.061899174
-0.014311723
-0.008914145
-0.024323003
-0.0717591
-0.12948667
-0.10013777
-0.034379244
0.027413046
0.06036413
-2.642966E-4
-0.040064584
0.04255409
0.099967726
0.046304163
0.0055806898
-0.0012585343
-0.035973284
-0.026378514
0.014591588
-0.008736036
-0.028159969
0.014993101
0.07318101
0.14729132
0.20348538
0.1196467
-0.053960193
-0.13553037
-0.13586414
-0.13632205
-0.12786362
-0.097370796
-0.04364237
-0.011480274
-0.009597229
0.011727709
0.05419776
0.10460423
0.11768319
0.10888121
0.1440405
0.14335829
0.0660232
-0.019834165
-0.077577166
-0.08253537
-0.055618435
0.009122859
0.0936735
0.07843009
-0.018149802
-0.07308553
-0.05359463
-0.017952714
-0.016778395
-0.011831698
-0.023270613
-0.07220382
-0.08203214
-0.0859696
-0.11573148
-0.11272769
-0.07946828
-0.02340121
0.008892167
-0.0020654378
0.03684238
0.08022996
0.065083586
0.07682428
0.08955528
0.05110001
0.028529346
0.047439262
0.07394744
0.054260004
-0.030139863
-0.11445902
-0.120879084
-0.046977267
0.019513696
0.07670914
0.17486636
0.22420442
0.16246283
0.034995805
-0.07810916
-0.104012065
-0.05210166
0.058850735
0.1404195
0.10758889
0.038632575
-0.05240989
-0.1408434
-0.14243379
-0.12099377
-0.116720356
-0.117009714
-0.10262236
-0.045785032
0.0053399545
0.05223567
0.06418005
0.015551469
0.006761532
-0.013028994
-0.09506064
-0.13049406
-0.09487954
-0.020782944
0.055013686
0.09207742
0.0779416
0.048931174
0.050905824
0.030528141
-0.0064972704
0.0013957279
0.041347004
0.12124871
0.16634074
0.10177527
0.0010470647
-0.078974955
-0.10039798
-0.08062707
-0.07109518
-0.04098814
0.015838254
0.078891106
0.09316467
0.038680542
0.028936176
0.056496225
0.050363157
0.045319173
0.0043791183
-0.06788897
-0.08235943
-0.077467546
-0.07764964
-0.040110096
-0.017381527
-0.039676495
-0.058630556
-0.06593548
-0.06725231
-0.061273247
-0.05133835
-0.029737487
-0.0012603258
0.009667955
0.0045840465
0.041081663
0.088644385
0.05628561
0.023874734
0.03544902
0.013086328
-0.005692066
0.004834783
0.022591209
0.043803647
0.04049587
0.04522072
0.047058698
0.0064450316
-0.024727441
-0.03189048
-0.012738402
0.0049153776
-0.027662147
-0.051351324
-0.057194725
-0.07311608
-0.06112443
-0.03718579
-0.027063716
-0.020625679
-0.013952596
-0.015521035
-0.017998204
0.015629962
0.024725026
-0.028094249
-0.021569123
0.028471684
0.025170708
0.038954142
0.07135569
0.04036002
0.009979174
0.023349585
0.013545131
-0.008491762
-0.01110788
-0.0326355
-0.054159
-0.0301009
0.0047425106
0.019276697
0.027420523
0.026287848
0.0060335053
-0.016174614
-0.018910037
-0.0133713735
-0.024239875
-0.041218594
-0.03920537
-0.020723874
-0.0041164244
-0.00451441
-0.012790667
-0.0029724496
0.010813519
0.004298774
-8.0601615E-4
0.00422031
0.004705767
0.00976405
0.01550775
0.0045522805
-0.009577905
-0.013229996
-0.009333093
0.0017367222
0.009627401
0.0041904915
-0.004652797
-0.0025855445
0.009501179
0.010595571
-0.0049023363
-0.0126683535
-0.004325386
0.007712326
0.009697607
-3.8738307E-4
-0.0064202063
-0.007619393
-0.0052600373
0.007921405
0.0145689035
0.008387566
-0.0033454874
-0.021701587
-0.031797726
-0.029199693
-0.020639984
-0.010391578
-0.008845287
-0.010234903
-0.017136239
-0.031059254
-0.036133908
-0.038844485
-0.03594291
-0.025206685
-0.018325651
-0.008847836
-0.007845362
-0.008563095
-0.0039358623
-0.020216726
-0.03022226
-0.024563696
-0.022106303
-0.0059472714
-0.0012358263
0.0055346303
0.045501284
0.05801329
0.040073123
0.03000865
0.02287255
0.032606643
0.05292348
0.067140475
0.076291926
0.07571924
0.07600296
0.07540952
0.06465697
0.048852324
0.02770826
0.008854669
-0.0067560975
-0.022774873
-0.030717146
-0.03722017
-0.05013535
-0.065204695
-0.08309098
-0.10220578
-0.11616015
-0.12584285
-0.13318242
-0.13322775
-0.12967628
-0.12666199
-0.11814708
-0.102398165
-0.07321991
-0.030255098
0.011644002
0.04546094
0.07426078
0.11065227
0.15376924
0.18311152
0.1982537
0.20109789
0.18573922
0.16187109
0.1349565
0.10806856
0.09010881
0.07797572
0.06299186
0.04050083
0.010731187
-0.019401034
-0.048108265
-0.082476564
-0.11389884
-0.12611027
-0.13258141
-0.1463708
-0.15696199
-0.16322191
-0.16309735
-0.15182097
-0.13571958
-0.107938394
-0.069929674
-0.037236232
-5.361317E-4
0.042212386
0.074367635
0.09524572
0.10758386
0.112559065
0.11112752
0.09886003
0.081405915
0.06734193
0.056090113
0.045901127
0.03838512
0.036050048
0.034071878
0.024923896
0.006886523
-0.014695658
-0.027701085
-0.032237083
-0.03932257
-0.04663966
-0.04840169
-0.045483034
-0.03885921
-0.03300209
-0.032254472
-0.03567863
-0.03821145
-0.032112204
-0.018227924
-0.0068416423
1.3610016E-4
0.00948811
0.02229738
0.03394084
0.04041234
0.043021508
0.048286792
0.057362605
0.066658325
0.07618932
0.08520905
0.09137891
0.09482972
0.09420933
0.08729939
0.075518206
0.06477501
0.060924053
0.060195927
0.05574123
0.047363896
0.036876135
0.02804305
0.018529352
2.6683035E-4
-0.020938352
-0.03560436
-0.04576892
-0.056421652
-0.07023743
-0.08459505
-0.095489055
-0.10635137
-0.118744165
-0.12722601
-0.13488361
-0.14475559
-0.14805926
-0.14599364
-0.14246882
-0.13177319
-0.114529476
-0.09220431
-0.070367515
-0.05706301
-0.046634033
-0.032821737
-0.01430357
0.0063897483
0.028602159
0.054083817
0.07826227
0.11007448
0.15150107
0.18502474
0.21068384
0.23250976
0.2517674
0.26919368
0.2731283
0.2542857
0.22171009
0.20216544
0.18421926
0.14801137
0.11987194
0.07732884
0.008529768
-0.036805697
-0.07818994
-0.13064776
-0.16580349
-0.1947686
-0.2154351
-0.21663328
-0.2068854
-0.2117778
-0.25178546
-0.28432292
-0.2808587
-0.26267344
-0.23417583
-0.19812576
-0.16048135
-0.12642431
-0.09286295
-0.04743768
-0.0027614702
0.035433784
0.07393933
0.10750002
0.13811208
0.16001746
0.1644989
0.15990627
0.15636493
0.157866
0.15850925
0.15222299
0.14029425
0.1274766
0.11719571
0.10562085
0.092233784
0.07605914
0.055090122
0.037244186
0.023908822
0.0105502475
-0.0015717502
-0.0110236965
-0.01736033
-0.02211962
-0.028327692
-0.037418287
-0.045866925
-0.050800543
-0.054055247
-0.054731328
-0.05434872
-0.05475579
-0.053894114
-0.051600218
-0.0484303
-0.04892117
-0.050018672
-0.045671605
-0.043770667
-0.043202396
-0.039827265
-0.037563335
-0.032596424
-0.026018715
-0.02135337
-0.01728305
-0.0143540725
-0.009969124
-0.0039042768
0.0033472767
0.0099885035
0.012964859
0.018138006
0.025109582
0.029001854
0.029774742
0.025537638
0.022356894
0.023604855
0.024351079
0.026541598
0.03007266
0.031830046
0.030852452
0.028321477
0.026549052
0.023467619
0.021228516
0.019890212
0.01670225
0.017294152
0.017316343
0.013596201
0.015142542
0.017400334
0.014524176
0.010435359
0.0066881552
0.0052981824
0.005516943
0.006410659
0.009605784
0.011943736
0.012688839
0.01388708
0.0132803805
0.01068049
0.008222447
0.005504001
0.0043424307
0.006717145
0.008754404
0.009799226
0.012045447
0.012404972
0.011062462
0.009032631
0.005563481
0.006436839
0.010405906
0.010533553
0.009944616
0.009160836
0.00677645
0.007023191
0.007936946
0.0063898107
0.0041677705
0.0022906358
0.0016028688
0.0015462551
0.0019179414
0.0031261393
0.0038019444
0.0033995567
9.360596E-4
-0.0017058145
-0.0028549267
-0.0057769245
-0.0074085016
-0.005359738
-0.0042283433
-0.002522994
5.195493E-4
0.001118084
-2.661684E-4
-0.0028598383
-0.0058374447
-0.006047465
-0.003766718
-0.0020697082
1.7971144E-5
0.0038790903
0.006847359
0.0077861208
0.005835178
0.0010968806
-0.0023228913
-0.003182839
-0.0035505826
-0.0032385038
-6.5743463E-4
0.0029052754
0.0030230356
-1.8542156E-5
-0.0011204132
-5.2066223E-4
-0.0015551599
-0.002658041
-0.0015298952
3.185489E-4
8.4454427E-4
0.0013399915
0.0034135794
0.0033810388
-7.366213E-5
-0.0030107743
-0.005343028
-0.0064890953
-0.0051314617
-0.0034804114
-0.0019375202
-7.620022E-4
-3.115551E-5
6.212781E-4
5.1109056E-4
-8.7350263E-4
-0.004951201
-0.007095239
-0.0042045224
-0.0026873266
-0.0025925424
1.21954065E-4
0.0038403722
0.004289009
0.001620584
-3.0060054E-4
-0.0028963813
-0.0038973377
-0.0026549955
-0.002782881
-6.237182E-4
4.9066363E-4
0.0015508031
0.0051612523
0.004347519
0.0042156386
0.0010005187
-0.0028585154
0.0021219028
-0.006044303
-0.019660877
-0.018852033
-0.015688624
-0.004007878
0.0063199764
0.0018618442
3.6924751E-4
-0.0014711318
-0.0033128867
3.1467184E-4
-7.3455035E-4
-7.3804846E-4
0.001347718
0.0020434293
0.0033609422
0.0013605959
-3.1673818E-4
-0.0011468218
-0.0020604606
-0.0010347324
-0.001789599
-6.076931E-4
0.001728566
0.0013822481
0.0021117951
-1.4382233E-4
-0.0043987017
-0.0043435805
-0.0043465127
-0.0057395664
-0.004311317
-0.0013460948
-1.554112E-4
8.45993E-4
0.0023775357
8.989992E-4
-0.0023972054
-0.0031271381
-0.0018288915
-0.0019571509
-0.0027268298
-0.0014804265
7.762068E-4
0.0032818026
0.0028107774
-0.0022459792
-0.00511102
-0.0049624443
-0.005457256
-0.0052787927
-0.003997247
-7.847852E-4
0.0014464967
-0.0018269687
-0.0040735416
-0.0025743041
-0.003407066
-0.0038584166
-0.0024493074
-0.0025277333
-3.1734112E-4
0.0028624684
0.003622041
0.00492399
0.004180915
8.179886E-4
-0.0026091456
-0.005020693
-0.0036945953
-0.0025277846
-0.0019184671
8.2896306E-4
0.0016529819
0.0029541673
0.0035228156
3.0125558E-4
-6.987541E-4
-0.0024959256
-0.005259865
-0.0036058566
-0.0024299084
-0.0021891568
-0.0014616358
-9.757767E-4
0.001110598
6.6138647E-4
-0.0033558656
-0.0049186978
-0.0018763854
9.41923E-4
1.681163E-4
6.977433E-4
0.0013425179
-4.0223025E-4
0.0011433003
0.0025920754
-2.8228931E-4
-0.002483377
-0.0023960336
-0.0024897743
-0.0034784107
-0.0018924109
0.0016498343
0.0020654728
8.342544E-4
-7.44155E-4
-0.0039461586
-0.006380326
-0.00549446
-0.0030654795
-0.0026460486
-0.002178676
-8.162252E-5
0.0011160272
0.0024201837
0.002769836
9.9362645E-5
-0.0018600271
-0.0010701416
2.0158372E-5
3.2743716E-4
0.0011571314
0.0014935968
0.001673727
0.003135708
0.001483779
-0.002275594
-0.0029743996
-0.0029024486
-0.0029164988
-0.0019581867
-7.053823E-4
9.549114E-4
0.002280083
0.0031123077
0.0015377117
-0.0030818575
-0.0055423058
-0.00397011
-0.0022910684
-0.00326145
-0.0036836
-6.7913334E-4
0.0021744042
0.0034107945
0.0029454199
-8.854711E-5
-0.001860334
-0.0015786245
-0.0014042464
-4.1388618E-4
-1.0518738E-4
-6.877698E-4
7.7294034E-4
0.0020315305
5.419789E-4
-0.0018862713
-0.0037606834
-0.0033883012
-0.0020369464
-0.0028208538
-0.0029147249
-6.9141295E-4
0.001473951
0.0022740168
5.726964E-4
-0.0017588658
-0.003005627
-0.0029317883
-8.8534754E-4
-2.8279419E-5
6.837699E-5
0.0022670426
0.003504099
0.0024172438
6.4280373E-4
-7.847562E-4
-0.0017318841
-0.0019236271
-9.286869E-4
-7.3900924E-4
2.109266E-4
0.0028043862
0.0035120468
0.003201691
0.0014164307
-0.0017331494
-0.0034122553
-0.004319867
-0.0031590872
-0.0018746639
-0.0019463022
-8.262539E-5
0.0015549115
0.0035801067
0.0032057313
-0.0023406514
-0.0020008327
0.0013708296
-7.6997076E-4
-0.001960474
-0.0026060296
-0.0031295887
-3.0919566E-4
7.5314817E-4
-3.579693E-4
-0.0011504068
-0.002517942
-0.0025776809
-0.0010541513
-4.3240533E-4
-6.331773E-4
1.2578379E-4
0.001330368
0.0012031094
-4.9912243E-5
-0.0014449081
-0.0019437879
-7.501803E-4
2.4570536E-4
-0.0012820842
-0.0021719858
0.0010208588
0.0038145687
0.002788569
3.3376302E-4
-0.0016730143
-0.0016897781
-9.341443E-4
-8.429112E-4
9.548766E-4
0.0016567226
-3.9235747E-6
0.0018002047
0.0030992068
-7.487113E-4
-0.0029109193
-0.0027084767
-0.002607876
-0.0011375751
-0.0013534355
-0.0022264393
-6.80117E-4
0.0010167435
0.0024597468
0.001501098
-0.0019616743
-0.0026998338
-7.399758E-4
7.500294E-4
5.075509E-4
7.217607E-4
0.0017577282
6.5218756E-4
2.506846E-4
1.5238015E-4
-0.0017780775
-0.0013715086
-9.139288E-4
-0.0019503748
-0.0016663234
-0.0014128806
-7.633332E-5
0.002022642
0.0023761687
7.2308735E-4
-0.0022402566
-0.003634384
-0.004279921
-0.0040123276
-0.001209901
-2.7073704E-4
-3.415632E-4
0.0013849053
0.0023450379
0.0014716565
-5.3032517E-4
-7.8143E-4
-1.4246982E-5
7.258037E-5
0.0021339566
0.0034082814
0.003128921
0.0040594214
0.0030739475
-2.845225E-4
-0.0033313215
-0.00409081
-0.0029329164
-0.0029718704
-0.0022521534
3.6252134E-6
6.1598513E-4
7.847947E-4
0.0014666263
0.0017150773
6.449334E-4
-0.0024368346
-0.004138566
-0.002263161
-0.0013725639
-0.0025518169
-4.885938E-4
0.003253462
0.0037839932
0.0028004483
0.0013103987
-9.933943E-4
-0.0031048665
-0.0033032747
5.2566964E-5
0.002082014
0.0010432142
0.0023971456
0.0037489184
0.002112342
5.8241154E-4
-0.0015565158
-0.0048387903
-0.0055593303
-0.003179311
-0.0014585829
-0.0011448093
3.3092E-4
0.001655071
-5.2453368E-5
-0.001888655
-0.0011706115
-4.7876587E-4
4.6696034E-4
0.0019432274
0.0012767479
0.0014178463
0.0027955344
0.0023160593
0.0021099045
0.001100059
-0.0015817728
-0.0017946942
-0.0013350818
-0.0025974414
-0.0027488593
-0.0011210226
0.0013909971
0.0021338966
-4.123235E-4
-0.0019509018
-0.002017279
-0.0024460424
-0.0017986806
-0.001446843
-0.0013013968
-4.468626E-4
6.25272E-4
0.0021161274
9.918506E-4
-0.0013819872
-0.0017641815
-0.0016484942
-5.484503E-4
-1.4172694E-4
-8.047794E-4
-1.2938061E-4
0.0011094555
0.0018084535
4.918448E-4
1.9233603E-4
5.1688415E-4
-0.0013137715
1.0154466E-4
0.0021335373
0.0025918626
0.003940014
0.004298153
0.0057295626
0.0041436935
7.019837E-4
-3.80048E-4
-0.0031345235
-0.0013081903
9.7145967E-4
-0.0010921092
-0.001273158
-6.3084264E-4
0.004380419
0.0041103195
0.0015899712
0.0037855122
-0.011307247
-0.018984383
-0.011972086
-0.015595566
-0.0010688568
0.006812153
-0.011817733
-0.004959349
0.006520724
0.0016130435
0.004081239
0.0031661913
0.0011553519
0.0041697286
0.0041369204
0.0046432484
0.0051708464
0.003860279
0.0010981166
-1.0936044E-4
4.8314684E-4
4.0621663E-4
0.002838651
0.003360463
0.0022017725
0.003790378
0.0029932272
0.0011839856
-2.1799635E-4
-0.0031527784
-0.0045917802
-0.0034070485
-0.0027771883
-0.003746318
-0.0014121695
0.0020388567
0.0019509497
8.9556235E-4
-0.0012822715
-0.002330234
-0.0016128186
-0.0019337434
-8.28091E-4
2.5946373E-4
-1.6744551E-4
0.0012960715
0.0041766195
0.0036023704
2.6007424E-4
-9.365171E-4
-0.0017449647
-0.0012123588
-2.4743428E-4
-0.0014505305
-0.0016447025
-0.008982356
-0.013926836
-0.0018510974
0.0036032575
-7.8891334E-4
4.4875997E-4
0.0010447879
0.0021800613
0.0031862038
0.0025809905
0.005105468
0.004173798
0.0016642231
0.001414545
-4.921895E-4
-6.5313076E-4
-4.1205622E-4
-0.002199507
-0.0018729031
0.0014120105
0.0051760552
0.0054251566
0.0031464344
0.0010292863
-0.0023774663
-0.0046893186
-0.004296627
-0.003383237
-0.0016395181
5.0720375E-4
0.0018021156
0.0022058168
7.8336895E-4
-0.0019713256
-0.0036596367
-0.004149075
-0.003417217
-0.0013133354
-3.3603894E-4
0.0011036885
0.004463838
0.0051124613
0.0031055624
7.768322E-4
-9.203707E-4
2.8793131E-6
3.438481E-5
-0.0019356485
-0.0019663034
-5.1172986E-4
0.0014465248
0.0012473639
-0.0019019656
-0.0025407805
-0.0015331724
-0.0017275646
-0.0010831679
-2.907419E-4
3.482885E-4
0.0016333396
0.0027684388
0.003996393
0.0032820234
-7.183341E-4
-0.0032344926
-0.0031531516
-0.0035426582
-0.0019278175
0.001581501
0.0018076119
6.3427415E-4
0.0012564401
0.0015304873
5.5759334E-5
-0.0015959515
-0.0016734867
-0.0019397053
-0.0016379949
7.2470354E-4
5.020315E-4
-6.2053045E-4
8.155972E-4
0.0011445149
2.553986E-4
-0.0011611205
-0.002885604
-0.0032099676
-0.001945768
6.0950185E-4
0.0011536477
0.00115616
0.004021041
0.005077956
0.003486678
0.0011826812
-8.501656E-4
-9.972982E-4
-0.0017344999
-0.0012907091
9.113229E-4
6.7787047E-4
0.0012960271
0.0027561325
4.8884266E-4
-0.0026954662
-0.0031668611
-0.001999135
-5.1721896E-4
0.001881502
0.0025200292
9.856255E-4
0.0015673975
0.00107071
-0.001733801
-0.003277949
-0.004260527
-0.003637029
-0.0029982321
-0.0025374726
4.3885925E-4
0.001746225
0.0021299175
0.0025221007
-1.273487E-4
-0.0019559585
-0.0025653392
-0.0026612375
-0.0013848217
-0.0017038818
-0.0010812967
0.0020850024
0.0036969725
0.0031287454
0.0018443436
-3.4620584E-4
-0.0017702035
6.031925E-4
0.0016324958
6.245418E-6
0.0016251391
0.0019060374
0.0015137334
0.0036242919
0.0021077394
-2.0269497E-4
-0.0010429655
-0.0011567313
1.17248404E-4
-7.1203016E-4
3.4426202E-4
0.0029160834
0.0027885665
0.0027638203
4.391823E-4
-0.00294287
-0.005283198
-0.007089023
-0.00466547
-6.9537875E-4
0.0020289235
0.00325244
0.0047460874
0.0038178528
-0.004088007
-0.003431717
-0.00205103
-0.015897894
-0.013578261
0.0038867386
0.006607377
0.005900427
0.006390655
0.0031784335
0.0021405737
2.744086E-4
-0.001415426
-9.827354E-4
-3.2793975E-4
6.3540455E-4
2.19917E-4
0.0015511307
0.0044474076
0.0037238807
8.5703E-4
-0.0015938609
-0.0018567339
-5.336688E-4
-8.3585776E-4
-3.8243132E-4
0.0011742465
2.0690983E-4
4.8149357E-4
0.0022853129
-6.8745855E-4
-0.004167351
-0.0033621504
-0.0023709855
-0.0019399232
-9.2118705E-4
-2.7401902E-4
3.4187108E-4
0.0021808185
0.0025765912
-5.67952E-4
-0.0017884035
-0.001372901
-0.0016574265
5.3616066E-4
9.6205185E-4
1.0524837E-4
0.00205359
0.0023240172
0.0018308982
0.0013135341
1.6518019E-4
5.457265E-4
1.4117241E-4
1.648097E-4
-0.0015003372
-0.005849591
-0.003008614
0.004029856
0.005902823
0.0033013702
-8.535946E-4
-0.002616698
-0.0027702078
-0.0030590093
-0.0011724132
1.850302E-4
-3.5297422E-4
7.709972E-4
0.0023848743
0.0012839589
-3.5983376E-4
-7.799006E-4
-0.0025253757
-0.0036264758
-0.0021654095
-0.0017498458
-3.9317211E-4
0.003300569
0.0035245272
8.4634E-4
-6.381481E-4
-0.0019943656
-0.0022564786
1.2802663E-4
0.0015049567
7.841736E-4
0.0017800388
0.0035671005
0.0026833036
0.0013932723
6.1094365E-4
-0.0018034334
-0.0026655456
-7.48031E-4
1.6749107E-4
5.7657994E-4
0.0013873746
0.0013304666
0.0016362912
0.0022154113
-6.2657535E-5
-0.0033141463
-0.0024491344
-0.0011704749
-0.0013797155
0.0015266328
0.0012506606
-0.0022582484
6.355751E-4
0.0018557926
-0.0025956272
-0.0032159747
-0.0018404577
-0.0011380526
4.4888986E-4
0.0011338753
0.0018357979
0.002940804
0.002369474
-2.2480497E-4
-0.0029093241
-0.0035016309
-0.0028580355
-0.0023664131
-0.0014665304
3.028833E-4
0.0016470021
0.0018810384
0.0021645878
0.001572211
-7.7006465E-5
-5.1014486E-4
1.4196076E-4
2.585391E-4
-6.1559957E-4
-3.3179185E-4
0.002301884
0.0043929224
0.0041877395
0.0019106487
-0.0011588768
-0.0031576345
-0.0035507774
-0.0016767287
9.694581E-4
0.0016326732
0.0015360051
0.0021890854
0.0019982476
5.158833E-4
-4.735644E-4
-0.0016149613
-0.003156196
-0.0027140437
-0.0014940331
-0.0010648664
2.3923436E-4
0.0016122949
6.1297865E-4
-7.187062E-4
-1.1282695E-4
-0.0013532937
-0.0033800672
-0.0014487007
-1.4222518E-4
-6.5580476E-4
0.0015168332
0.003961801
0.0036978014
0.0014113473
-0.0013092888
-0.0033800292
-0.0034378623