0.0018315534
0.0040892526
0.0014239363
0.0014435932
0.0023069764
0.0031890285
0.007702837
0.01027226
0.008639721
0.0053674863
0.0032664365
-0.0029542043
-0.015212339
-0.015644565
-0.0035996456
0.0040689274
0.005962616
0.0029507584
-0.0022448737
-0.005325643
-0.008019687
-0.005445736
0.0012636638
0.003855439
0.0034175895
0.0025145835
0.005791971
0.011930472
0.007919067
-0.00421518
-0.0075065317
0.0012584381
0.0060361675
-5.292489E-4
-0.006563322
-0.007960115
-0.005751053
-2.2933072E-4
2.2399223E-4
-0.0012247866
9.911483E-5
-0.0016389225
-0.0037759875
-0.0058499854
-0.008088715
-0.00616267
-0.005134767
-0.005454269
-0.0013965275
0.0051111006
0.010317294
0.011748576
0.005830299
-0.0017178066
0.0013367422
-9.2948147E-4
-0.019872548
-0.019897835
0.0042391373
0.019782424
0.024780387
0.022455566
0.013826832
0.008478487
0.0038448714
0.0021744333
0.005600842
0.006171745
0.0047535463
0.0016455384
-0.0041280803
-0.008462701
-0.01200435
-0.0156741
-0.017734254
-0.015247656
-0.0074786036
-0.0028804918
-0.0047112093
-0.0038509727
6.9778156E-4
0.0011353432
-0.003318161
-0.00794498
-0.0093241315
-0.009389673
-0.009997774
-0.0074370466
-0.0011600009
0.0076028807
0.016041446
0.017580278
0.0136750415
0.008277891
0.002826396
0.0012042053
0.0030990012
0.006387723
0.007519988
0.003431108
-0.001171707
-0.00403452
-0.0056843697
-0.005598269
-0.00482055
-0.0019282411
0.0012807512
9.989006E-4
-0.001396566
-0.0028353073
-0.0013803035
0.0015381094
0.0052571814
0.0076925154
0.0051677534
0.0026472593
0.0027623563
0.0022447149
2.5619898E-4
-0.003661112
-0.005499703
-0.00409548
-0.004158694
-0.0051840683
-0.0048132977
-0.0023202046
-6.655662E-4
-6.398999E-4
0.0016801562
0.0014273172
-0.002829152
-0.003807803
-0.0014837912
0.0029935725
0.008424451
0.0119785275
0.01463062
0.015041035
0.011352737
0.0074427067
0.0056991135
4.431397E-4
-0.008053214
-0.011115957
-0.012867825
-0.017156951
-0.01562868
-0.010868249
-0.0112402495
-0.014353457
-0.014068509
-0.011111705
-0.01133554
-0.011762645
-0.0067675156
-7.638274E-4
0.002767633
0.006749525
0.010837544
0.011374368
0.013221463
0.020005802
0.021191124
0.01537642
0.013789522
0.013342796
0.0058559002
0.0014906821
0.008637204
0.014320749
0.0138829835
0.014046201
0.008571911
-0.0029501712
-0.014058735
-0.02487198
-0.029887127
-0.02651868
-0.019267207
-0.013658854
-0.013433112
-0.009378855
0.0025563946
0.011399764
0.0141632445
0.015192802
0.014124438
0.009975068
0.0077762394
0.009660959
0.01083337
0.009332099
6.4155564E-4
-0.014274937
-0.02260693
-0.022141417
-0.0165755
-0.00753798
-0.0025040035
-0.0023618238
-0.0018448608
-0.0023665766
-0.0044532116
-0.0030524894
-2.7396096E-4
-0.0035001135
-0.007228216
-0.0032344123
0.0032159975
0.0058237715
0.006817374
0.009612734
0.011283871
0.010414625
0.010585434
0.011030003
0.0108311605
0.011024772
0.011564726
0.010455846
0.0060758805
0.0040587713
0.0014220496
-0.006760773
-0.008873079
-0.0063363817
-0.0067662084
-0.0040828562
-0.0011037287
-6.5257115E-4
-7.812765E-4
-0.0030623027
-0.0029156164
-0.0012627726
-0.0022284747
-0.0021493046
-1.5981408E-4
0.0019654331
0.0012097746
-0.001215394
2.624927E-4
0.0012565169
-0.0017395669
-0.0043418007
-0.0071822526
-0.012088809
-0.015811775
-0.014206553
-0.009034211
-0.0058016004
-0.0031296907
0.0015323514
0.004422648
0.0043195984
0.0048617492
0.00682825
0.007902271
0.007787981
0.005919402
0.0011687315
-0.0017966833
7.643328E-4
0.004495999
0.0065917727
0.008486318
0.008605001
0.005941522
0.0037676312
0.002487624
0.0012682213
0.0023718462
0.0037693144
0.0031356458
0.0016170869
-0.0026001798
-0.006011632
-0.00546578
-0.0062106256
-0.004478882
0.0029194679
0.0068736738
0.00468839
0.001602123
0.00166884
0.002165654
-0.0019498605
-0.0059783696
-0.0074002813
-0.0080189565
-0.0043361494
9.2798035E-4
0.0030075896
0.0022584675
-0.0022188288
-0.0066022505
-0.008254225
-0.010379639
-0.010476622
-0.008428783
-0.008038333
-0.006497359
-0.0044338643
-0.0042972052
-0.001282167
0.004066325
0.0060843946
0.00641162
0.0075001093
0.007128568
0.0058665257
0.005998988
0.0068834624
0.009042224
0.012412677
0.013767909
0.012656208
0.010793658
0.007869334
0.003253974
-1.9531172E-4
6.4259744E-4
0.0020027263
-5.625048E-4
-0.0051346477
-0.007751673
-0.00798962
-0.011224332
-0.016671687
-0.015012156
-0.008372035
-0.0053070327
-0.0050151427
-0.0037822681
-0.0010913522
4.645865E-4
5.827987E-4
0.0017170975
0.002562572
0.003119973
0.0040325685
0.0033715453
0.0034583125
0.0042669266
0.0023362143
9.996878E-4
0.0013567287
1.293768E-4
-1.8081348E-4
6.207246E-4
1.537751E-4
0.0013345244
0.0035419585
0.0044437815
0.0055884747
0.0055267666
0.0040200124
0.0035320467
0.0029657893
0.0013760179
-0.0012430984
-0.004608265
-0.0055025965
-0.00380185
-0.0032501854
-0.0028130887
-0.0023455322
-0.0035873416
-0.0034688523
-0.006396985
-0.013649015
-0.012109794
-0.0022836975
0.005190713
0.0051946803
-0.0014313991
-0.0038063761
-0.0030617032
-0.005541037
-0.0051868428
-0.004310634
-0.0010636044
0.009810715
0.015926655
0.013973112
0.0130712455
0.014037757
0.014902825
0.014167078
0.010412918
0.0075740125
0.0074067377
0.002975738
-0.003243981
-0.0060359207
-0.011754416
-0.015785025
-0.0130940145
-0.009310631
-0.004719743
-0.002289083
-0.0011168603
6.405969E-6
-0.0020900574
-4.95379E-5
0.0031128698
0.00311707
0.005749283
0.0036294505
-0.0020239356
-0.0029399097
-0.0028649918
-0.001567569
-4.0918065E-4
-0.0020372241
-0.0024872653
-0.0017092002
-0.002762475
-0.0029301636
-5.11805E-4
-0.002066221
-0.0037940256
-0.0024318476
-0.0061288555
-0.004875443
0.0022005814
5.5983925E-4
-4.7646204E-4
0.0028415103
0.0044709058
0.0074166823
0.008525877
0.0066815005
0.0039138123
0.0043669185
0.008646911
0.0067176144
0.0030458074
0.0032405285
6.85723E-4
-0.0029472248
-0.0061468515
-0.008436517
-0.0081935655
-0.007442011
-0.007371176
-0.009624398
-0.009869005
-0.007540258
-0.006488922
-0.0012644038
0.003847643
0.0048970864
0.009358021
0.012731032
0.011545421
0.010433792
0.008318332
0.0057894727
0.008757415
0.01747816
0.020314835
0.015577958
0.014389194
0.013783745
0.005827861
-0.0114116045
-0.03149003
-0.037477925
-0.029625766
-0.019665338
-0.008652461
-0.0014416947
-0.00308226
-0.007277445
-0.005767056
-0.0020024553
-0.0035993403
-3.437411E-4
0.009698771
0.008341067
-5.8256504E-5
-0.0029668887
-0.004824401
-0.0042464514
-0.0016849658
-0.0015504279
0.0037806898
0.010609395
0.007306134
0.0016667085
-5.587306E-4
-0.002277335
2.8539074E-4
0.001367748
-0.0031031235
-0.002971165
-0.002469344
-0.004757291
0.001513263
0.011051588
0.015258568
0.015271944
0.009291329
0.0051829116
0.0089047365
0.013301359
0.016561428
0.016994784
0.014374324
0.013500101
0.011096662
0.005981615
-0.0016144556
-0.01579066
-0.027892914
-0.029851617
-0.027844317
-0.024302848
-0.01980897
-0.017144214
-0.012845589
-0.007084292
-0.0043068533
-0.0029003003
-0.0025928288
-0.0036636058
-0.0027976113
9.961015E-5
0.0049931197
0.010391471
0.012463161
0.013174981
0.01353972
0.012029528
0.00812002
5.833174E-4
-0.0041380418
-6.2536955E-4
0.0044115013
0.0067639193
0.008091856
0.008039336
0.00655657
0.0053159175
0.0038609381
5.158507E-4
-0.0028734333
-0.0047454042
-0.0053286757
-0.0045317984
-0.0045380257
-0.0060069175
-0.0068548545
-0.0059018834
-0.005246786
-0.006959802
-0.0045219935
0.0026629744
0.004107132
0.0018683492
0.0028976866
0.0033864554
1.3718999E-4
-0.004431978
-0.0062005683
-0.005203805
-0.0035725096
2.155245E-4
0.0037058971
0.0047883666
0.0054087895
0.003031457
0.0022788532
0.008932964
0.013697234
0.015831115
0.02017114
0.015355133
-3.9058222E-4
-0.013099981
-0.01693763
-0.0146985
-0.01265933
-0.012242986
-0.009919391
-0.007304327
-0.0041715913
2.6226285E-4
0.002205167
0.0015911752
4.5626765E-4
4.5274256E-4
0.0011326558
-6.3509995E-4
-0.0023088239
-0.001215901
3.462776E-4
0.0014167585
5.033384E-4
-4.3423678E-4
0.0030886177
0.0064201355
0.0057283356
0.0035256715
-5.980996E-4
-0.004447625
-0.0051972927
-0.004083195
-0.0017665306
-0.0027559258
-0.006660901
-0.006098997
-0.0026815683
0.0020114598
0.007959939
0.009110571
0.0066436576
0.004548131
0.0024041205
0.0016728912
0.0017400184
6.4335094E-4
-0.00137549
-0.0024485628
-0.002130148
-0.0018320468
0.0012820091
0.004740984
0.001974789
-0.0014659921
-0.0024002756
-0.00460118
-0.004983128
-0.003558194
-0.0037912983
-0.0040937355
-0.0036882171
-0.0020946392
5.831203E-4
0.0016005356
0.0021375774
0.0049622892
0.007897923
0.008387605
0.0071003833
0.003938382
-2.0479641E-4
-6.710684E-4
9.2937466E-4
-0.0015699811
-0.0055366685
-0.0072880667
-0.009269154
-0.010585234
-0.009151003
-0.008040325
-0.0072288387
-0.0044913553
-0.003941668
-0.0043821335
-3.7358128E-4
0.0036139577
0.007373473
0.01330254
0.016288076
0.01881728
0.022135045
0.023706567
0.024268582
0.016071199
0.0044629844
0.0012370376
-0.0043489216
-0.014160759
-0.020354511
-0.023218593
-0.020399714
-0.017896667
-0.018212605
-0.014895172
-0.012292348
-0.009442545
-0.0044368594
-0.0049193557
-0.0078026494
-0.006953902
-0.0052557862
-0.0043116617
7.461774E-5
0.0074530304
0.0107873585
0.011623286
0.013881111
0.017878545
0.02513173
0.02827381
0.024417581
0.02182004
0.018091002
0.0084600765
-0.0050243624
-0.01960032
-0.025075765
-0.016511075
-0.0103947455
-0.017648613
-0.024670064
-0.021925619
-0.015548466
-0.010259838
-0.006844267
-0.0011769286
0.0077141495
0.012235946
0.0139923375
0.015582608
0.01280198
0.011137049
0.01522782
0.020211365
0.01873599
0.00619314
-0.005579102
-0.006655385
-0.009631071
-0.017975375
-0.018358657
-0.011225693
-0.0065579563
-0.005523593
-0.0041915127
-5.134891E-4
0.001350051
-0.003088581
-0.0075672218
-0.0058251275
-0.0028015745
-0.004989551
-0.009537222
-0.008952319
-0.004612864
-9.392548E-4
0.0035510992
0.009164874
0.01569249
0.021280752
0.024233969
0.026969133
0.025535677
0.0191542
0.013967691
0.009636015
0.007464573
0.005579651
-0.0014354354
-0.011822746
-0.023817476
-0.02842812
-0.025187187
-0.028810976
-0.032502826
-0.028563356
-0.023227112
-0.014295071
-0.007918071
-0.008493774
-0.008580772
-0.011453366
-0.016768767
-0.016386686
-0.009356287
0.0024262813
0.013584061
0.020139491
0.026400588
0.03577268
0.04654237
0.055562407
0.05900544
0.057387374
0.055525355
0.05072683
0.0395931
0.025607252
0.007684138
-0.013043058
-0.031241417
-0.04488501
-0.04556625
-0.03722563
-0.044096157
-0.066086695
-0.079122834
-0.07317888
-0.052252136
-0.029464766
-0.017455235
-0.0120290425
-0.0087474
-0.0076526008
-0.0038234633
0.0014094692
0.0072691785
0.014795529
0.01964329
0.02648267
0.03817305
0.048263088
0.055076912
0.0540716
0.042571075
0.029769452
0.022390949
0.015922321
0.0057904758
-0.0022872942
-0.0060934816
-0.009700245
-0.011974458
-0.012265064
-0.010893211
-0.011284682
-0.012857764
-0.0074936906
-0.0034442858
-0.005394567
-0.0045185103
-0.005841794
-0.006952927
-0.0029408974
-0.0030352455
-0.00329843
-0.0017525258
-0.005481777
-0.0089981835
-0.009044864
-0.008548202
-0.007411481
-0.0066455263
-0.008138973
-0.010084601
-0.0098439185
-0.011488801
-0.013346363
-0.008492174
-5.6409376E-4
0.008494572
0.017299674
0.02408166
0.031009797
0.026227092
0.009818405
8.648366E-4
-0.0032690114
-0.0061430666
-9.943987E-4
0.0048207967
0.006135606
0.006504033
0.005787199
0.0036048866
0.0020408374
3.4811892E-4
-0.0039608893
-0.0069557703
-0.0077535305
-0.0089389
-0.0057182307
-2.9372997E-4
0.0017292689
0.0032532194
0.0041549006
0.0024027142
-0.0024373957
-0.0075945775
-0.0076467013
-0.0051435623
-0.003668353
-0.002765777
-0.0021160073
-5.3052994E-4
-7.595015E-4
-0.00267565
-0.0021051366
-0.003454422
-0.006666885
-0.0040613106
-0.0014616034
-0.0029512192
0.0020585617
0.010053811
0.010316185
0.0073018423
0.003336144
-5.4093305E-4
0.0014736891
0.006831541
0.0091738785
0.00598726
0.0018414353
-2.227986E-4
-0.0046567745
-0.00930032
-0.012851556
-0.015162663
-0.010367531
-0.0054264823
-0.005006566
-8.521164E-4
0.0012800032
-0.0030625802
-5.9392955E-4
0.008549357
0.011101239
0.009402983
0.008262765
0.0042631114
-2.526829E-4
-0.0047790767
-0.011073497
-0.016123472
-0.020558977
-0.026258437
-0.030564843
-0.029422035
-0.02597113
-0.021327743
-0.0065078316
0.013121812
0.028632067
0.043144953
0.05227283
0.052187607
0.042815775
0.026491607
0.012068929
-0.0013561833
-0.02027785
-0.049115345
-0.07730168
-0.08459197
-0.078775816
-0.07073026
-0.053587556
-0.02373231
0.017274396
0.05742655
0.089747354
0.115667626
0.13114594
0.13974671
0.141726
0.12960692
0.1053155
0.073018156
0.03682301
0.002381433
-0.027458422
-0.053390313
-0.07774027
-0.09837527
-0.10544987
-0.09259815
-0.06811564
-0.03456647
0.0042362786
0.030432649
0.044450894
0.043259274
0.013742459
-0.025553456
-0.05756085
-0.0877987
-0.120226674
-0.15390189
-0.17628077
-0.16930223
-0.14044967
-0.11273683
-0.07084955
-0.0055203065
0.057468873
0.12782313
0.18436837
0.17959104
0.13697983
0.061467744
-0.033289306
-0.08934822
-0.11407195
-0.12271135
-0.1291941
-0.14264022
-0.07554412
0.1143683
0.30676174
0.37513575
0.3798903
0.4326756
0.45507896
0.38864908
0.30521104
0.21318522
0.10483646
-0.0074665695
-0.12154546
-0.2606422
-0.4501787
-0.5500976
-0.46226096
-0.31640247
-0.1859675
-0.088378645
-0.0466298
-0.02589648
-0.057480704
-0.13673463
-0.18304342
-0.18836963
-0.13769037
-0.060292043
-0.02717771
0.025258793
0.09261391
0.032720596
-0.10556457
-0.13245346
-0.03267873
0.07968884
0.15957746
0.19753793
0.17656638
0.15109764
0.15643427
0.12619692
0.057244428
0.02563172
0.03879632
0.065453745
0.09313107
0.1099253
0.109827004
0.09984289
0.115937576
0.17018516
0.19534574
0.17650476
0.17176647
0.15455258
0.091431804
0.027581673
-0.037651338
-0.11964527
-0.17879353
-0.2066434
-0.23037091
-0.265603
-0.31488603
-0.3523131
-0.32414392
-0.22137979
-0.13022767
-0.09844611
-0.076846965
-0.046035696
-0.0050824783
0.037406605
0.045910344
0.047398582
0.07071058
0.10386581
0.14050563
0.1557235
0.16749409
0.18676202
0.18038334
0.18696938
0.18184812
0.09138812
-0.011528129
-0.07976663
-0.14283937
-0.17321642
-0.17317621
-0.16713649
-0.1339403
-0.07180708
-0.0066767936
0.037335485
0.047769696
0.042859394
0.048380714
0.05367386
0.04150049
0.030721983
0.030382993
0.027483584
0.020290973
0.0062885038
-0.001316311
0.003554577
-0.011599565
-0.03543018
-0.023505386
0.019390851
0.07047673
0.11748403
0.15156253
0.1521399
0.10098631
0.033699643
-0.026883554
-0.09624069
-0.13404134
-0.108217
-0.055193983
-0.001334336
0.03829657
0.052673947
0.05371472
0.045565248
0.030347593
0.01248406
-0.012152475
-0.03593565
-0.05373708
-0.067978024
-0.07601697
-0.08130917
-0.08415251
-0.085324995
-0.08659624
-0.08252145
-0.07344565
-0.060427066
-0.05433539
-0.05373687
-0.043649457
-0.044916213
-0.040895224
0.0044166
0.05106747
0.08197739
0.10294724
0.09767638
0.09665835
0.11362079
0.1233421
0.11681812
0.087947294
0.06071887
0.056058586
0.053267278
0.045811795
0.03929743
0.034679744
0.030750852
0.019928947
0.00491743
-0.008412605
-0.0208555
-0.035607405
-0.053702008
-0.066964455
-0.07175509
-0.07346446
-0.07393951
-0.0708535
-0.062178057
-0.049295496
-0.032776862
-0.012437347
0.005346653
0.015168056
0.019463846
0.0212478
0.024398502
0.028798945
0.020934885
-0.0010995165
-0.018898655
-0.022078924
-0.012944137
-0.003761184
-0.0017619441
-0.004030292
-0.021066995
-0.049046535
-0.06292362
-0.059433483
-0.04691098
-0.031235972
-0.016253404
-3.0682646E-4
0.011568888
0.016942024
0.022524009
0.030119846
0.034923416
0.03492674
0.034617048
0.034241535
0.034656864
0.038364284
0.03812134
0.033269376
0.030116543
0.028186928
0.025013788
0.019311002
0.014151038
0.010288306
0.007744285
0.008281049
0.004965488
-6.8889215E-4
-0.002378306
-0.004568514
-0.0069688703
-0.010337758
-0.014249181
-0.013989858
-0.014048935
-0.014570553
-0.015094305
-0.01654456
-0.014648516
-0.015172225
-0.017832335
-0.01588734
-0.012164146
-0.007551678
-0.0074646086
-0.011760769
-0.012375941
-0.016084168
-0.022870457
-0.022667954
-0.019271325
-0.01954821
-0.019142479
-0.011894672
-0.0039228904
-8.3516276E-4
2.4869962E-4
0.0013878505
0.0058796895
0.009397854
0.007596601
0.009793582
0.01632075
0.018743506
0.017404178
0.015117692
0.011605445
0.0083116805
0.009829323
0.015253592
0.01964637
0.022360992
0.024733873
0.022987748
0.012394296
0.0013879712
-0.0072692535
-0.018926479
-0.021171385
-0.015250802
-0.01560311
-0.015805887
-0.0119913975
-0.006147222
-0.0021211873
-0.004620014
-0.004963211
-0.0039633033
-0.0053127925
-0.003415398
-8.7920454E-4
0.0040029576
0.009703283
0.009866322
0.0075222375
4.66635E-4
-0.005858953
-0.0025550956
0.0027818142
0.0076189036
0.011557724
0.010327874
0.008248235
0.0073286844
0.0059702103
0.0050364076
0.0039016148
0.004023613
0.007864034
0.010009344
0.0022252735
-0.009660534
-0.0127976565
-0.009080122
-0.0051911375
-5.5931654E-4
0.0010832197
-8.8015635E-4
0.002329657
0.006870849
0.0031807746
-0.003285191
-0.0076123765
-0.011558612
-0.013640533
-0.013258965
-0.010522027
-0.0064187846
-0.0043203486
-0.0027696732
-1.1833506E-4
4.990548E-4
8.1304274E-4
0.0035476456
0.004804194
0.0032844217
5.792237E-4
-0.0020408777
-7.6688157E-4
0.0041693756
0.010118758
0.014412263
0.01319798
0.010414898
0.007765951
0.0016469792
-0.0020938772
-0.0012218198
-0.0010068169
-0.0013401881
-0.0017587765
-0.0027485834
-0.0038102462
-0.0043850574
-0.0035358875
-0.0023476717
-0.0019802984
-0.0027640294
-0.0034162821
-0.0029176534
-0.003978887
-0.0052250545
-0.0034397896
-9.7515987E-4
5.1040656E-4
5.6131236E-4
-9.044119E-4
-0.0016025852
-5.2724336E-4
0.0020979182
0.005591755
0.0076440894
0.006138926
0.00199756
-5.141102E-4
-8.2611165E-4
-0.0012736392
-1.1162954E-5
0.0011561873
-3.3459067E-4
-6.6178426E-4
-0.0011794767
-0.0013886162
0.0020080225
0.0020229155
-9.504145E-4
-0.001339346
-0.0012440382
0.0011553543
0.0031782067
0.0016622074
8.3983765E-4
-9.857486E-4
-0.0016673439
0.0016768598
0.0048762443
0.006003897
0.0029858693
6.983215E-4
5.7437236E-4
-0.0036734298
-0.0042913365
1.1401766E-4
0.0010955906
0.00109783
6.9195393E-4
-3.9666484E-4
-2.159492E-4
-3.9087085E-4
-0.0011520707
-0.0017022993
-0.0018029824
-0.0038468416
-0.0061546084
-0.004204065
-0.0013860348
0.0013635857
0.0034373414
0.0012025414
-0.0019140666
-0.0023459618
7.249379E-4
0.0038948525
0.0029376566
0.0013302967
6.5210153E-4
0.001032321
0.0015334112
-7.497207E-4
-7.5003726E-4
0.0015332345
5.620695E-4
-5.5557735E-5
0.0011971744
0.0010499172
-3.2680001E-4
-1.0241179E-4
0.002224382
0.0022024752
5.5153003E-5
-7.232974E-4
-0.0022407766
-0.004144953
-0.003943202
-0.002798449
-4.12597E-5
0.0024221546
5.1458646E-4
-0.0010513675
7.845805E-4
0.001909195
0.0024822303
0.0016547093
-0.001471488
-9.475134E-4
0.0023755361
0.0020156095
-1.8085653E-4
-5.402372E-4
-5.017288E-4
-8.3038065E-4
-3.1928136E-4
2.1945652E-4
-2.7771358E-4
-0.0010303523
-8.4572914E-4
4.520725E-4
0.0018202043
0.0034284017
0.0044116336
0.0030177499
4.3127022E-4
-0.0024175262
-0.0037884286
-0.0032357373
-0.0031924213
-0.0012797579
0.0014745196
1.2889411E-4
-0.0026466604
-0.0037936678
-0.0026664403
2.5982835E-4
0.0019472209
0.0013921635
7.181826E-4
0.0028447022
0.00424211
0.002282325
0.0023798957
0.0022061665
7.023451E-4
0.0023766553
0.0013956736
-0.0016720527
-2.605763E-4
0.0016222325
9.802332E-4
-5.293021E-4
-4.5029278E-4
-3.346863E-4
-0.002779744
-0.0032205877
-0.0027519558
-0.004027428
-0.0034735736
-0.0024665135
-0.001514226
-7.920511E-4
-0.0014131623
-1.1780537E-6
0.0014748154
0.0022364736
0.0044908007
0.0030416606
-0.0010215092
-0.0010719926
0.0010987355
0.0011701402
6.15348E-4
0.0028070572
0.0040267287
0.0029968852
0.0041043754
0.0044714636
0.0033126976
0.0019988045
-0.0024541086
-0.0067320163
-0.008559339
-0.008191902
-0.00424165
-0.00115414
-2.1831796E-4
-2.603437E-4
-2.6905304E-4
0.0032245691
0.0048743417
0.004159314
0.005684142
0.0035452906
9.645223E-4
0.0023738157
6.521348E-4
-0.0026718753
-0.0033620119
-0.0021006926
1.4671152E-4
0.0012142949
0.001843761
0.0029290388
0.0026595015
-0.0014448966
-0.0057220752
-0.003418563
-5.1469525E-4
-5.759298E-4
3.4497477E-4
-0.0016113234
-0.003581439
-0.0025482979
-0.0033965183
-0.002903615
-0.0020914797
-0.0036790601
-0.0030267343
-0.0019352713
3.0400947E-4
0.004575093
0.0045197597
0.0023817692
0.0018797397
0.0016797882
0.0025581708
0.003633921
0.004544537
0.0043687094
0.0019150507
6.619519E-4
1.0373776E-4
-0.0012802662
-4.3764475E-4
0.0019138675
0.002891444
0.0020109
0.0026085977
0.0048969616
0.0022514185
-0.0023921595
-0.004081571
-0.006251673
-0.0060954103
-0.0037378678
-0.0043531945
-0.0049246727
-0.0038446211
-0.0017162403
0.0010835119
0.001626553
9.4749994E-4
0.0010533965
0.0010673753
5.2928994E-4
3.3743258E-4
4.6540433E-4
-1.397748E-4
2.1245817E-4
0.0015288395
0.002152606
0.0020727618
6.8532967E-4
6.5354275E-4
0.0010029187
-0.0019360346
-0.0025950065
3.6427772E-4
0.0013784212
1.920094E-4
-0.0010054137
-6.299168E-4
8.2955776E-5
-4.9684936E-4
-8.855538E-4
-5.9158343E-4
-8.811012E-4
-0.0018719878
-0.0010871072
6.0567126E-4
4.294451E-4
0.0013821976
0.0035637685
0.0034036504
0.0028353531
0.003549753
0.0027195213
1.6913116E-4
-0.0013788859
-0.0027126467
-0.0035066078
-0.0026886496
-0.0027882683
-0.0023357682
-0.0012139872
-7.681415E-4
0.00271929
0.0051979353
0.0027124805
9.7495655E-4
0.0023221546
0.00449937
0.0020161953
-0.005169832
-0.0077277394
-0.0046879775
-0.001483417
3.852925E-4
-3.7050617E-4
-0.0029249783
-0.002279838
0.0016125139
0.0021160743
1.9235197E-4
2.8951754E-4
-5.0726143E-4
-0.0015411007
-0.0012369029
-0.0019154069
-0.0010236845
0.0015811946
0.0010987839
-0.0016207295
-0.0011611788
0.002547107
0.0040500932
0.0040117884
0.0051772823
0.0045562973
0.0028874418
0.0025339993
0.0018432528
0.001349951
1.0269951E-4
-0.0036638326
-0.0046180314
-0.0020134903
-0.0019662795
-0.0024582227
-3.236266E-4
0.0016420018
9.824751E-4
-0.0021568588
-0.0030815748
-0.0018552396
-0.0022491422
-0.0017240286
-0.0023464342
-0.0042891335
-0.0023855658
-0.0010378559
-9.875587E-4
6.362445E-4
4.83888E-4
2.7479854E-4
0.0013947838
0.0017336623
0.0014488231
0.0014689214
0.0033439226
0.0042056167
0.0030121694
0.0031556021
0.0024045247
0.0011653163
0.0012493497
-1.6256896E-5
1.4615002E-4
0.0021470806
0.0017693404
0.0018990253
0.0038652113
0.0033425994
8.477663E-5
-0.0026748013
-0.0034329316
-0.0032388049
-0.0032274995
-0.003047588
-0.0035408952
-0.0053267647
-0.0057056653
-0.0041298964
-0.0026431112
-0.001226247
-6.6011405E-4
-9.492433E-4
-9.054917E-4
-0.001255352
-9.303966E-4
-2.984265E-4
-4.490686E-4
3.8495543E-4
3.067455E-4
-9.9842044E-5
0.0017221845
0.0031759497
0.004505991
0.004478369
0.0025984251
0.003679141
0.0046692137
0.0035292853
0.0031854846
0.0024795143
0.0021880323
0.0015439359
3.9085824E-4
0.0014520905
0.0014464826
-1.8170978E-4
-4.0565932E-4
7.2306435E-4
0.00263303
0.0014869064
-0.00363183
-0.0072075496
-0.0073302966
-0.006122157
-0.004828719
-0.0034177296
-0.0012840113
8.5707323E-4
2.3255537E-4
-0.0011165465
0.0010340923
0.001890524
-4.3668054E-4
-0.0012884213
-0.0016434928
-6.078012E-4
0.0012726317
-3.0884676E-4
-0.0011162654
-2.2454941E-4
-0.0017279767
-0.0013593396
0.0020320658
0.0023399035
4.4981556E-4
8.194305E-4
9.299297E-4
1.4862041E-4
0.0023041079
0.0042716423
0.0025760154
9.320913E-4
0.0011762459
0.0014570557
0.0015919445
0.0015491162
0.0013927026
0.002827714
0.0033433812
0.0015336783
0.0016820491
0.0015346725
9.0846384E-5
8.6453377E-4
-6.6522637E-4
-0.004404246
-0.005972193
-0.0074570565
-0.0075730095
-0.0057347906
-0.005460392
-0.0046911296
-9.0527884E-4
0.00120969
-6.620437E-4
-4.954466E-4
0.0017847561
0.0012665185
9.082112E-4
0.001560098
3.4807232E-4
0.0019186445
0.0072813826
0.008143858
0.006048712
0.00634163
0.0041725663
0.003868737
0.0065303603
-7.094358E-4
-0.008902729
-0.006644191
-0.0034123175
-0.0010729257
0.0013644069
9.3187974E-4
-0.0011960365
-0.004775111
-0.0068339235
-0.0056491736
-0.0037278996
-0.0019018082
-0.0016607662
-0.0022538453
-5.190693E-4
0.0024600325
0.0029264048
0.0020574885
0.0025780203
0.0017038365
4.99216E-4
0.0012899351
8.912829E-4
6.381941E-4
0.0014115154
0.0015770991
0.0022983404
0.0015106117
-7.5453444E-4
-0.0017159678
-0.0015984919
-5.293452E-4
-7.5140205E-4
-0.0018645595
-7.057789E-5
0.0019170004
0.0020659917
0.0019445437
5.4206354E-5
-0.0014492378
-2.5546615E-4
-2.9565732E-4
-0.0012907287
-9.273557E-4
4.474132E-5
0.0023149957
0.0035582255
0.0020150212
3.139292E-4
-6.5663777E-4
-1.6025815E-4
5.553701E-4
-3.2489526E-4
-0.0013399603
-0.002093363
-0.0015502023
-8.8134746E-4
-0.0020029568
-0.0014989963
-1.3945704E-5
2.4819098E-4
5.5951986E-4
-6.101918E-4
-0.0017958861
-5.8320316E-4
-7.7228644E-4
-0.0022568156
-9.709429E-4
5.682744E-4
3.9914626E-4
0.0010521953
0.0011350136
9.0748345E-4
0.0022359511
0.0018587445
4.7853249E-4
0.00108014
0.0022030429
0.0021400931
0.001361459
0.0018551251
0.0013618749
-0.0011357308
-0.0016379744
-0.002400833
-0.0039166114
-0.0024318544
-0.0013846641
-0.0012172274
3.5333243E-4
-4.680762E-4
-0.0019284332
-5.866587E-4
-0.0011405279
-0.0020552909
1.7381918E-4
9.789821E-4
0.0013800234
8.047085E-4
-0.002664004
-0.0013722753
0.0013521283
0.0014060694
0.005052057
0.00746574
0.006581913
0.0061638434
0.004277875
0.0022738548
-2.1012724E-4
-0.0021474864
-0.0013882478
-9.618358E-4
-5.115497E-4
-0.0017054176
-0.0033915215
-0.002578824
-0.0046422337
-0.005230035
-0.0021350007
-0.004333593
-0.0055363216
-6.6167145E-4
0.0011746003
9.5512376E-5
0.0010827605
0.001049115
-0.0013446306
-0.0019431587
-0.0012530058
-0.001994042
-0.001165815
0.0018513626
0.0023608517
0.0011538672
0.0029054368
0.0042550922
0.0019921956
0.0017875978
0.0029413127
0.0014453034
9.829357E-4
0.0010157432
-3.6351493E-4
-3.756668E-4
4.924322E-4
8.273688E-4
5.300651E-4
4.335453E-5
2.2775296E-4
4.7429278E-4
9.879038E-4
8.4013434E-4
-0.0010776395
-0.0011180541
7.37747E-4
1.7268369E-4
-6.7288865E-4
-2.573953E-4
-5.2848144E-4
4.5103327E-4
2.0581982E-4
-0.0024689555
-0.001927081
-0.0017558525
-0.0033578766
-0.0016142132
-9.869086E-4
-0.0018993003
-6.652559E-4
-2.8466235E-4
-5.0066115E-4
-5.126249E-4
-9.300276E-4
-4.065486E-4
2.521918E-4
6.1392336E-4
0.0012213223
0.0013511206