0.129362
0.20302713
0.12177489
-0.0031907686
-0.014677161
0.05334414
0.012065129
-0.09117681
-0.136011
-0.14317104
-0.06242728
0.06735854
0.16619655
0.21835633
0.17475396
0.0940778
0.039818924
0.059798732
0.1485868
0.12523696
-0.004572756
-0.08659547
-0.06869025
0.016266363
0.02249294
-0.04010171
-0.076682866
-0.14641617
-0.20243108
-0.16180708
-0.07203245
0.008629923
0.029137095
-0.003322895
-0.006606883
0.027968641
-0.0039880457
-0.09869002
-0.1484569
-0.17666107
-0.19092627
-0.121731564
-0.030110689
-0.01881638
-0.022127273
0.10559534
0.27014542
0.2876106
0.21583597
0.1233096
0.03607879
0.016226778
0.014579225
0.029035611
0.09529086
0.12382471
0.08421188
0.03593023
0.009775975
-0.0032840655
-0.034279842
-0.07129049
-0.08249677
-0.07521675
-0.06303267
-0.04255025
-0.018070042
-0.015833529
-0.053555835
-0.112061694
-0.15198499
-0.15105815
-0.08083436
0.06867654
0.19068876
0.21051824
0.17013149
0.05939088
-0.08476801
-0.16513282
-0.20458852
-0.18064438
-0.0440405
0.059831917
0.05111057
0.06678858
0.12671058
0.11056802
0.036295943
-0.01864948
-0.058975313
-0.10418212
-0.1711938
-0.1974718
-0.08908542
0.06810987
0.15797178
0.21585082
0.266535
0.23737366
0.10387972
-0.02747591
-0.08552996
-0.111731455
-0.106581576
-0.009909897
0.15622528
0.21970807
0.09121273
-0.07627886
-0.17775977
-0.22533888
-0.20973288
-0.1645509
-0.08268827
0.071763
0.20812286
0.22031711
0.11808344
0.006021378
-0.070424125
-0.15055339
-0.16495991
-0.06250748
0.016920218
-0.0068138842
-0.028961562
0.0029603483
0.012461789
-0.014297788
-0.033265576
-0.05516614
-0.09109635
-0.13234706
-0.13455044
-0.038959563
0.12621118
0.24947819
0.21954504
0.10382748
0.073085845
0.08311138
0.028111676
-0.02643372
-0.013352429
0.011667399
0.010226462
0.06232769
0.13894194
0.1251764
0.09174881
0.06509698
-0.031689435
-0.126003
-0.1520766
-0.15546623
-0.16116452
-0.13181631
-0.07478825
-0.09080397
-0.15676385
-0.18039918
-0.1360695
0.03883552
0.21781385
0.20496689
0.12704633
0.093909785
0.05837177
0.042815644
0.058673624
0.09206571
0.089817435
0.0110146655
-0.06837701
-0.1067324
-0.08105233
0.030766984
0.13075824
0.14311242
0.08493811
-0.004096781
-0.08889447
-0.16807975
-0.23052827
-0.25770715
-0.20440565
-0.03279015
0.12278518
0.13029121
0.07319044
0.04842075
0.030853976
-0.018209357
-0.080570646
-0.107557304
-0.05268982
0.06587062
0.13609289
0.103788234
0.052762214
0.076922394
0.15135667
0.14941518
0.044873856
-0.028086936
0.0043027014
0.027262079
-0.0534151
-0.10162031
-0.056649208
-0.047720198
-0.016849447
0.08139957
0.09688057
0.02948269
-0.055959612
-0.1276595
-0.1140327
-0.061318185
-0.05342573
-0.10585637
-0.15131351
-0.06289049
0.08275011
0.123105146
0.07541078
0.0031082695
-0.027468316
-0.0031523325
-0.012772116
-0.042889595
-0.024600234
0.0054000895
0.024851078
0.049569424
0.043195177
0.013842045
-0.0038817225
-0.04092574
-0.055135965
0.0052514425
0.08132435
0.1501893
0.1768106
0.11611501
0.05081225
0.021752793
-0.019222528
-0.05949615
-0.0746691
-0.068877846
-0.02613391
0.030872108
0.027167149
0.006629722
0.057078924
0.07667262
-0.0018448292
-0.060089894
-0.076029114
-0.10931223
-0.1408691
-0.17520313
-0.20303829
-0.14807564
-0.0399961
0.012358885
0.008772878
0.0077789626
0.017243203
0.064770386
0.15071294
0.15408319
0.077562876
0.024283262
-0.024790412
0.004317746
0.115509674
0.12861718
0.11704622
0.14030279
0.06687161
-0.05071457
-0.12711814
-0.11582062
-0.012290439
0.041534934
0.03426233
0.04720037
0.06481918
0.06706502
0.03410662
-0.024571272
-0.08430635
-0.14519121
-0.17822707
-0.1501394
-0.06372193
0.016748803
0.03731006
0.03522127
0.029797528
0.0143894795
0.03523013
0.068803765
0.016552392
-0.090103246
-0.15290143
-0.13480586
-0.040635485
0.027252728
-0.0035070756
-0.0776554
-0.10857963
-0.011603654
0.12009094
0.14498934
0.1343323
0.1255355
0.111050986
0.112178974
0.06742544
8.2714687E-4
-0.045855172
-0.082074784
-0.032260023
0.031557202
-0.009229346
0.004165389
0.119861
0.122977935
0.0294111
9.903099E-4
-0.01291255
-0.048885617
-0.071399316
-0.10545071
-0.09232828
-0.04926818
-0.09602454
-0.1254404
-0.059999473
-0.042099446
-0.07849122
-0.07750849
-0.047373988
-0.011716286
0.012250076
0.02291246
0.059662882
0.13105682
0.18162896
0.18535113
0.18487501
0.15982975
0.06833199
-0.026139323
-0.10084852
-0.15273306
-0.08218463
0.05645376
0.07309533
0.01945098
0.042364724
0.071374446
0.026704311
-0.040487207
-0.08734813
-0.122057706
-0.16934709
-0.18701111
-0.13985348
-0.093389735
-0.094501324
-0.12301871
-0.07271818
0.07389366
0.14287782
0.08667343
-0.0059314477
-0.0152077405
0.089816086
0.11132631
0.058804035
0.087113366
0.110776916
0.12061998
0.15997535
0.15899934
0.11539928
0.058185384
-0.016548036
-0.1012156
-0.15361565
-0.18731566
-0.19497687
-0.08544505
0.041302383
0.057420604
0.01824072
-0.01819068
-0.024004623
-0.05068294
-0.09267199
-0.05296303
0.03166874
0.100434564
0.11566178
0.0739635
0.015957024
-0.0526104
-0.09069865
-0.10898828
-0.061501067
0.09502034
0.16444606
0.14200963
0.11382447
9.512055E-4
-0.06730845
-0.03132133
-0.023261515
-0.023199635
-0.028523982
-0.07669599
-0.11812997
-0.11915601
-0.0788447
0.0056324434
0.08409809
0.056874696
-0.038543757
-0.048081443
0.033702526
0.07342707
0.025757782
-0.041348048
-0.0911174
-0.11332651
-0.07676899
0.026263753
0.12517829
0.12617522
0.072917804
0.024877217
-0.0015690344
0.049722012
0.082618654
0.021574914
-0.05168617
-0.116720036
-0.120071955
-0.04408295
0.08380552
0.22969532
0.21734004
0.10536666
0.07206404
0.026127089
-0.047389746
-0.089971654
-0.068367064
0.04635278
0.08996858
-0.011945977
-0.12891647
-0.20052044
-0.21700758
-0.1589993
-0.030937534
0.07065063
0.056444988
-0.014569235
-0.09007888
-0.14076217
-0.103329144
-0.008372057
0.057925098
0.056199405
-0.0022123356
-0.041344326
-0.015714511
0.0049642413
-0.008771549
-0.007711649
-0.006819278
0.010126338
0.10725225
0.21251167
0.22129434
0.14790767
0.042733267
-0.045688845
-0.062883385
-0.011968311
0.05160808
0.068043776
0.024094505
0.040626038
0.17019944
0.23214263
0.15230173
0.03503262
-0.050254233
-0.058675908
-0.051496785
-0.10972877
-0.1711304
-0.19095723
-0.15550388
-0.08971631
-0.1013972
-0.17412564
-0.23594448
-0.27555496
-0.19545434
-0.0046877987
0.08580092
0.039771065
-0.013625695
-0.06119292
-0.08671764
0.019284986
0.21793598
0.2882377
0.15937571
0.007734986
-0.03392925
0.01902313
0.13122037
0.24923797
0.30850813
0.31054282
0.27581295
0.1976632
0.09401023
-0.013462396
-0.13547727
-0.2515499
-0.30840206
-0.3061189
-0.26054847
-0.13629684
0.02879381
0.097276464
0.030345114
-0.06112485
-0.07311458
-0.043405045
-0.052912995
-0.0920768
-0.15184698
-0.19937514
-0.16201992
-0.058785044
0.07949351
0.20172352
0.22022592
0.16158181
0.08145136
0.009860939
-0.030566383
-0.015773071
0.11035534
0.2380887
0.21442759
0.10358405
-0.010343213
-0.10435122
-0.16864745
-0.15538387
1.605636E-4
0.14678346
0.11510289
0.004034195
-0.02187715
0.04961803
0.07994849
0.007931647
-0.06739819
-0.107057214
-0.13967289
-0.15206672
-0.16382797
-0.18414858
-0.09842785
0.067076646
0.11953149
0.10092477
0.08546741
0.004510475
-0.08471093
-0.12873183
-0.09709345
0.05534906
0.20365012
0.226948
0.1359188
0.0052609434
-0.09045973
-0.122121565
-0.02465
0.13704498
0.15472446
0.019856887
-0.11930294
-0.15384343
-0.06413266
0.068594426
0.1305825
0.046217933
-0.09443148
-0.1211091
-0.056109075
-0.0037798053
0.020092746
-0.011572008
-0.10158901
-0.17593119
-0.22357216
-0.22060224
-0.073085666
0.13324535
0.24804564
0.29267094
0.29814625
0.267362
0.20850804
0.08896674
-0.068895325
-0.16812849
-0.14594166
-0.06367387
-3.851193E-5
0.077990815
0.16285065
0.19302197
0.16409351
0.08165647
-0.019576447
-0.10513543
-0.17355429
-0.2228872
-0.28187838
-0.33712897
-0.35991287
-0.34150815
-0.21442226
-0.03198536
0.101341784
0.20576333
0.2032161
0.078351945
-0.004565351
-0.03650753
-0.044155516
0.025371669
0.10407833
0.097739905
0.06819477
0.13670908
0.21253161
0.16302472
0.13194929
0.19893695
0.24790744
0.23466349
0.13552639
-0.026240092
-0.16947153
-0.27970335
-0.33739892
-0.30899528
-0.19586095
-0.048576973
0.08372677
0.2043508
0.25162435
0.19144133
0.10498686
0.010853013
-0.085348286
-0.1553681
-0.22204857
-0.24323829
-0.14731497
0.0184633
0.15429448
0.22214308
0.21396036
0.120077364
-0.009521223
-0.113131054
-0.18446527
-0.22659199
-0.24377339
-0.2390751
-0.22259744
-0.1913493
-0.066953115
0.12741724
0.1953803
0.11309518
0.07308435
0.1438753
0.21763356
0.20557979
0.138965
0.07670912
0.026913308
0.0061552483
0.00617988
0.024184793
0.1120383
0.23527774
0.30267283
0.24991658
0.082071654
-0.077034496
-0.17478983
-0.23190767
-0.23925294
-0.24115194
-0.255885
-0.28575465
-0.30108464
-0.21487604
-0.11466238
-0.08528503
-0.03945378
0.04178825
0.123743825
0.18163681
0.19693227
0.15257907
0.03610862
-0.07006604
-0.13209279
-0.16889022
-0.12911886
-0.025848607
0.107859954
0.24657497
0.33076727
0.35000828
0.30843195
0.254921
0.21144821
0.12187718
0.023553759
-0.056295037
-0.13169514
-0.17120293
-0.19086699
-0.18915159
-0.16073368
-0.120489016
-0.03374973
0.03710315
0.016622735
-0.027051782
-0.043868974
-0.013749524
0.06900506
0.11105682
0.056524288
-0.04685178
-0.15567699
-0.23665279
-0.27168956
-0.270934
-0.24474281
-0.1869811
-0.045294702
0.16289416
0.31252554
0.35623097
0.29211113
0.14136986
-3.4424858E-4
-0.10734724
-0.18287432
-0.22496162
-0.25216928
-0.18324131
-0.016765311
0.11291815
0.17600536
0.19100711
0.17126809
0.16185121
0.17448205
0.16665459
0.121859625
0.12424656
0.17532772
0.15513062
0.06352428
-0.02199864
-0.043140393
-0.012889355
-0.035639625
-0.1051418
-0.13221203
-0.082781725
0.009749525
0.026791628
-0.04705036
-0.098243244
-0.10206684
-0.12229858
-0.19330953
-0.25635836
-0.2568599
-0.18694992
-0.056593355
0.016736157
-0.0076142447
-0.012643951
0.039551117
0.14609219
0.24747859
0.21120256
0.074577115
-0.027918577
-0.07435699
-0.06552885
0.03476577
0.1354352
0.09663672
-0.00992754
-0.064835966
-0.04786955
0.031516522
0.08418074
0.056885336
-0.012065262
-0.07558416
-0.07229523
-0.005257551
0.07869255
0.1014293
0.0271438
-0.012781845
0.004112897
0.024167899
0.086473554
0.0872882
-0.00990488
-0.07839032
-0.108404264
-0.083618306
-0.01717743
-0.012600323
-0.041349854
-0.017744161
0.047239136
0.09105256
0.097189665
0.07964133
0.055109117
0.060192287
0.023970466
-0.08562065
-0.128706
-0.10991331
-0.12910831
-0.1458342
-0.09217663
0.0034686506
0.052623123
0.0702763
0.088550106
0.07608072
0.09076203
0.10672649
0.036178082
-0.054371085
-0.12233054
-0.16989876
-0.19596906
-0.19390494
-0.09534449
0.03395548
0.09886457
0.16787311
0.20136935
0.12396021
0.063810535
0.0965624
0.11927918
0.07792403
0.026916187
0.018857826
0.04968464
0.056577407
0.0071420874
-0.052108802
-0.090264946
-0.12440661
-0.17847486
-0.23912284
-0.27789196
-0.2732963
-0.1720547
-0.01514996
0.100903116
0.18953891
0.20949674
0.14558814
0.11634475
0.08231739
-0.019080432
-0.08546377
-0.10191676
-0.09127892
-0.008095078
0.08441948
0.1197125
0.17080764
0.2501499
0.2926264
0.2980282
0.2463191
0.118575595
-0.015065093
-0.108395785
-0.16715777
-0.20373079
-0.22015639
-0.2026073
-0.18726686
-0.19893071
-0.20314237
-0.2058704
-0.2083323
-0.1916555
-0.1513037
-0.037726976
0.100046
0.1463759
0.16747639
0.18635558
0.12484129
0.06644749
0.051690254
0.0316198
0.020474482
-0.016359296
-0.043984514
-0.009339324
0.018208992
0.082684
0.19277906
0.20240867
0.12228852
0.045354158
-0.014817278
-0.03357151
0.0017597987
0.0261925
-0.028857647
-0.13648683
-0.222928
-0.18555918
0.0049414337
0.13740145
0.11055628
0.080235794
0.07222137
0.057775315
0.05070295
0.017585613
-0.0024008225
-0.011559168
0.0031300108
0.11156627
0.13526534
-0.009934886
-0.13043211
-0.19812909
-0.25219682
-0.2759077
-0.25540718
-0.13217734
0.00824768
0.052445892
0.04160527
-0.0010207557
-0.034941297
-0.03084627
-0.05919436
-0.11991968
-0.13867548
-0.05934416
0.11812466
0.276728
0.34021273
0.36062512
0.31027904
0.17784116
0.10333677
0.09416919
0.06277747
0.014629345
-0.043728553
-0.04617743
0.019937584
0.024027959
-0.0535536
-0.13026151
-0.13238466
-0.08485952
-0.09229705
-0.110682435
-0.10126968
-0.1303697
-0.16878596
-0.1805976
-0.18440899
-0.16986603
-0.10095113
0.02849502
0.14560772
0.15243554
0.037493996
-0.07184611
-0.0913052
-0.027409792
0.14139353
0.28618142
0.28119755
0.21871847
0.13181241
0.032442443
-0.020821277
-0.035492368
-0.030161472
-0.060096428
-0.11534536
-0.11854802
-0.07391437
0.0043373527
0.054054804
0.018996418
-0.017758053
0.0040353183
0.013719747
-0.054812998
-0.09013229
-0.007659679
0.049920693
0.036729623
0.049335632
0.0717719
0.04144271
-0.040380094
-0.118580945
-0.13148421
-0.05399335
0.061323274
0.13749677
0.17530568
0.16292232
0.10083898
0.053601775
0.006039339
-0.06407506
-0.12725353
-0.1713819
-0.19789405
-0.21456173
-0.15515427
-0.031317946
0.009763542
-0.010335359
-0.009318749
0.0021125954
0.0066765654
-0.02771183
-0.048454292
-0.04919887
-0.06720448
0.013998686
0.117731445
0.10776919
0.12736493
0.17251943
0.15162306
0.15122327
0.177812
0.16507939
0.090728596
-0.021491399
-0.09352514
-0.058742918
0.073249035
0.1529803
0.088302314
-0.01407053
-0.086654656
-0.12786755
-0.14823765
-0.18320443
-0.20489319
-0.20570976
-0.19242917
-0.12672102
-0.042455707
0.007426309
0.008050445
-0.034646656
-0.06564727
-0.066350386
-0.035853572
0.06328102
0.18248954
0.2162363
0.16794275
0.11846741
0.09102963
0.066909514
0.04452209
0.015234844
-0.012772563
-0.013869019
-0.015392389
-0.045540195
-0.05728307
-0.032096587
-0.026224198
-0.0122127505
0.06592936
0.111402676
0.057779334
-0.016139815
-0.064907104
-0.08677751
-0.074877486
-0.044987738
-0.035308547
-0.0605845
-0.07256779
-0.072072566
-0.06307336
0.029508095
0.12897778
0.14720584
0.17374822
0.16374291
0.059097994
-0.023929313
-0.06806815
-0.09151804
-0.08776606
-0.11552703
-0.10638005
0.0014025528
0.06774772
0.043826498
0.018270291
0.013478804
0.028316254
0.054698113
0.052775256
0.012067398
-0.041448537
-0.062610924
-0.039908554
-0.02742467
-0.051123533
-0.071504936
-0.060196813
-0.035501692
-0.015386523
-0.0016853927
-0.012659563
-0.02924759
0.004901167
0.066418596
0.09004697
0.079850025
0.07912638
0.088248156
0.068755895
0.026475698
-0.0022567217
-0.019323148
-0.030474273
-0.03035877
-0.028827649
-0.026800385
-0.016242674
-0.004005417
2.9453175E-4
-0.008830772
-0.019147119
-0.008734982
-0.006052087
-0.035843674
-0.05377848
-0.043128528
-0.030261142
-0.02218563
-0.02071252
-0.029052258
-0.05003661
-0.07141193
-0.082693785
-0.061461147
0.054178245
0.1785946
0.16106382
0.10890742
0.12558767
0.10330926
0.035658915
0.009141787
0.02138406
0.028074984
-0.0017010095
-0.019710202
0.017832942
0.03655052
-9.730786E-4
-0.053550925
-0.10867415
-0.1458824
-0.12660927
-0.05217344
0.026425347
0.0578064
0.035614222
-0.0260554
-0.088328324
-0.121751405
-0.1439734
-0.13697244
-0.11398058
-0.12909183
-0.09961988
0.046805244
0.19643338
0.23163813
0.17420198
0.10186603
0.044995412
0.009240947
-0.018671641
-0.016646767
0.09281412
0.21063341
0.18865436
0.09676808
0.01186689
-0.043651756
-0.05818883
-0.07317923
-0.058689225
0.0052500023
0.04928869
0.03751017
-0.0090856785
-0.03443532
-0.03794041
-0.059156504
-0.08109707
-0.09324428
-0.102361426
-0.113317445
-0.12422855
-0.117422596
-0.09115169
-0.055093944
-0.04762051
-0.05021234
0.009569868
0.07035639
0.061438665
0.021667982
0.0090346895
0.081938885
0.1697668
0.15320364
0.09310793
0.051195756
0.0052598394
-0.011297998
-0.011465684
-0.028815646
0.01922681
0.10139279
0.10002066
0.105434984
0.13993387
0.090473264
0.01828256
-0.041893132
-0.11097102
-0.12594207
-0.13362859
-0.17000194
-0.14798203
-0.068981156
-0.018706786
-0.028186396
-0.057566687
-0.07124982
-0.031716086
0.06274964
0.09706267
0.044196453
-0.0028623703
-0.0220274
-0.0036200343
0.025884937
0.009981674
-0.003694499
-0.0017019712
-0.007289018
0.054286916
0.14828666
0.12545365
0.028825019
-0.010102745
-0.008002768
-0.008877791
-0.018024381
-0.06672459
-0.1266589
-0.099126525
-0.0046899887
0.009001642
-0.03909687
-0.0011241356
0.056408312
0.03982226
0.03788349
0.045201812
0.008645896
-0.0037806153
0.013258139
0.012341717
0.007191652
-0.016311057
-0.043805826
0.015007635
0.105911955
0.095067196
0.031884883
-0.01484928
-0.062063448
-0.07601804
-0.060984995
-0.065977536
-0.07228709
-0.04333657
-0.0039881165
-0.0152080245
-0.038968317
-0.04655181
-0.09035974
-0.07301122
0.031830564
0.07476864
0.07983914
0.0942585
0.09525414
0.11863446
0.12324669
0.085373096
0.057654724
0.044057377
0.03694383
0.033918336
0.063583374
0.10803204
0.06328358
-0.03562057
-0.09400256
-0.15215045
-0.2199195
-0.21938811
-0.1549013
-0.115010805
-0.11756953
-0.124414675
-0.14358431
-0.15896782
-0.08975539
0.060555156
0.14176671
0.105640456
0.08232098
0.08917075
0.07436958
0.058570508
0.032221813
0.044878032
0.14512824
0.25559872
0.3083606
0.262021
0.17540954
0.12196054
0.040018752
-0.0062014353
0.016936086
-0.04183004
-0.13666567
-0.16802879
-0.18363518
-0.1947024
-0.21540219
-0.26851478
-0.30598843
-0.25429794
-0.11267239
0.033450592
0.12414641
0.1332096
0.06598449
-0.03404679
-0.11543315
-0.116878
-0.053027242
0.044960976
0.16996428
0.24178077
0.24973568
0.22635749
0.13748889
0.029692719
-0.012849307
-0.0064091086
-0.017152393
0.0081422515
0.12555769
0.15589677
0.03710639
-0.045989126
-0.051480833
-0.041213945
-0.040710967
-0.058558747
-0.078255475
-0.09969913
-0.11237963
-0.1040705
-0.09347696
-0.10128191
-0.07292647
0.055280365
0.14942306
0.106141455
0.026274314
-0.03205018
-0.06214929
-0.07495294
-0.086407505
-0.084938325
-0.09464513
-0.092690475
-0.059677865
0.0155370245
0.15288994
0.2090582
0.15323542
0.1319263
0.13104537
0.09811442
0.03138283
-0.046468094
-0.08501127
-0.088400744
-0.082199536
-0.13131754
-0.16723883
-0.040608134
0.094320625
0.098557286
0.043813247
-0.024139035
-0.008995499
0.07636456
0.09499891
0.061613888
0.011837014
-0.052971534
-0.094864555
-0.11465705
-0.12511
-0.11273028
-0.061667666
0.04354787
0.18479432
0.25617716
0.19592142
0.106025316
0.047529876
-0.014675263
-0.06807997
-0.09085044
-0.09691364
-0.11366413
-0.13239808
-0.13224505
-0.1286466
-0.10697792
-0.085020654
-0.08324614
0.0026984548
0.16423164
0.20966083
0.110226244
0.036924217
0.048137143
0.038163304
-0.020846104
-0.0412412
0.0070471857
0.06546302
0.08810232
0.07812045
0.061910465
0.064110965
0.046796124
-0.018018883
-0.063958846
-0.062461156
-0.017822608
0.041494116
0.019389821
-0.05799372
-0.10195334
-0.11458719
-0.10797745
-0.11644054
-0.11807657
-0.056918737
-0.007846199
-0.005609272
0.00859842
-0.0023733035
-0.05454171
-0.023878736
0.064242214
0.06055621
0.08538625
0.2050311
0.19671482
0.06111171
-0.01047904
0.06456837
0.230261
0.27260366
0.14116839
-0.008288836
-0.11295244
-0.14815663
-0.13826649
-0.15180014
-0.17509314
-0.1684559
-0.10259517
-0.015065141
0.025202407
0.035067577
0.030065278
0.0021978484
-0.033083566
-0.057352997
-0.061414856
-0.060313478
-0.053974163
-0.061010238
-0.09800225
-0.08078009
-0.013667312
0.009818021
0.065702885
0.18818313
0.22742184
0.15644997
0.06573877
5.631133E-4
0.0063832393
0.050498273
0.032863066
-0.03437883
-0.08389706
-0.097420335
-0.088760346
-0.08889986
-0.084450535
-0.016650766
0.10325171
0.17765364
0.16788916
0.13628542
0.106785916
0.06536981
0.04096633
0.031712513
8.4921706E-4
-0.03629134
-0.05366077
-0.054730043
-0.027061593
0.007518445
-0.01322728
-0.07215408
-0.12248882
-0.16173685
-0.19451092
-0.21146002
-0.14103256
-0.0023812165
0.046206407
0.0073641934
-0.026628671
-0.04856347
-0.029488908
0.009088483
0.012223525
0.003119205
-0.012684497
-0.011085194
0.06611693
0.16111533
0.20131323
0.22859696
0.22592986
0.12773776
-0.0068752863
-0.09192338
-0.055005357
0.09167485
0.14985976
0.05577072
-0.062001135
-0.122858614
-0.060705457
0.051405482
0.037941355
-0.06414081
-0.13318741
-0.14455105
-0.09415227
-0.036476377
-0.04817698
-0.05863395
-0.016741222
-0.046745468
-0.13888709
-0.12464366
0.014351187
0.15385166
0.17561789
0.09062961
-0.0097381435
-0.063603535
-0.034778204
-0.0051162993
-0.03091165
-0.04688053
-0.062852405
-0.06445065
-0.011852135
0.058736905
0.12213512
0.12989962
0.073376425
0.00609585
-0.011636897
0.032084182
0.009575417
-0.047063142
0.016496966
0.094448514
0.08706031
0.04546759
-0.025538646
-0.12289199
-0.14697921
-0.0032225878
0.14286251
0.09912792
-0.026256165
-0.07048305
0.007912115
0.09012936
0.03472259
-0.06684673
-0.07938278
-0.033903033
-0.02622081
-0.026953254
0.03229806
0.03070715
-0.05942422
-0.056228343
0.05060766
0.09812884
0.05962587
0.078291245
0.1490143
0.10507624
-0.03850121
-0.1708277
-0.25615773
-0.22470485
-0.060630713
0.049567185
7.7704777E-4
-0.039611816
-0.047012154
-0.11257216
-0.119973
-0.10506293
-0.17293665
-0.15091035
4.291167E-4
0.12776464
0.21308132
0.26493165
0.21309645
0.056723855
-0.048451375
-0.011174777
0.03874636
0.05416557
0.14661562
0.25177526
0.24608779
0.19365068
0.1493901
0.11807914
0.10236233
0.03144982
-0.10368425
-0.24284542
-0.30078557
-0.20064183
-0.07360823
-0.03807346
-0.031043664
-0.047988232
-0.07219579
-0.05695492
-0.032916237
-0.029290915
-0.080597915
-0.15583457
-0.17242903
-0.12469806
-0.017875992
0.08917366
0.09308896
4.797083E-4
-0.081188716
-0.043594792
0.029417144
-0.0077314186
-0.031873483
0.034027968
0.015211266
-0.09988642
-0.13818139
-0.060465746
0.05080149
0.15305394
0.24348858
0.27557412
0.20218293
0.07786795
0.022202767
0.07538872
0.13774502
0.11355977
0.048262205
0.009007656
-0.010428173
0.024430998
0.10999091
0.143914
0.13504474
0.11334062
0.034053884
-0.07572432
-0.18325284
-0.25983387
-0.3019245
-0.3173529
-0.22314125
-0.112849146
-0.1031276
-0.07325242
-0.045622386
-0.086960755
-0.117212236
-0.098588966
-0.015616954
0.07080372
0.102507025
0.101101644
0.07854562
0.097564824
0.1399011
0.12074346
0.04376451
-0.051475473
-0.10633923
-0.10114887
-3.97087E-4
0.13665546
0.14158879
0.06024274
-0.0402185
-0.06403007
0.09087604
0.19484676
0.17918213
0.15590748
0.100883484
0.072382174
0.018833943
-0.069983445
-0.08091285
-0.078078225
-0.078936145
-0.08910331
-0.0923291
-0.03445863
-0.03406184
-0.06509821
-0.020200904
0.034582805
0.01351601
-0.078185104
-0.09188411
-0.05094139
-0.072587155
-0.08291841
-0.0918626
-0.07638414
-0.03102628
-0.0465713
0.0055119963
0.0912535
0.052621286
0.001104768
0.0036510008
0.076006554
0.19168906
0.22778635
0.22752135
0.21483375
0.1055859
-0.032229424
-0.107556626
-0.15300311
-0.1875082
-0.18764828
-0.15550585
-0.06693211
0.041465353
0.03846732
-0.0056511713
0.045061994
0.070786245
0.005261877
-0.026980104
-0.0030768993
0.008524909
-0.02227957
-0.07196161
-0.070795424
-0.022430144
-0.015782539
-0.06641359
-0.10541371
-0.09523235
-0.03079812
0.11988472
0.2869188
0.30088726
0.18558185
0.08353687
0.03362104
0.021004444
0.0039061958
0.0019397736
0.043774392
0.05487326
0.027880993
-0.020171946
-0.08897224
-0.11826998
-0.13084616
-0.14399481
-0.116432935
-0.08360175
-0.051303282
-0.013339379
-0.0088466
-0.03596129
-0.08595909
-0.1303278
-0.10680667
-0.02148475
0.039820977
0.042584717
0.04137058
0.03371339
-0.018263375
-0.048149507
-0.0071377605
0.018478993
0.02084636
0.12131373
0.25504395
0.25341576
0.1481062
0.041212503
-0.023895841
-0.059146777
-0.09608788
-0.11590336
-0.09921983
-0.004569852
0.114317566
0.11215758
0.059191577
0.01196357
-0.058166374
-0.0057008886
0.13207985
0.15801157
0.09876826
0.018484889
-0.062892325
-0.11193784
-0.14902556
-0.18058674
-0.17750525
-0.14528826
-0.11826481
-0.104403846
-0.09349991
-0.060102187
0.0157658
0.05945048
0.025343915
-0.0042409203
0.01918505
0.047228325
0.028849635
0.006578417
0.014065825
0.018970612
0.07786746
0.18252102
0.20095672
0.14292127
0.09249758
0.07253393
0.06883253
0.049127556
0.011839532
-0.040049195
-0.08988301
-0.10649591
-0.11014023
-0.123334035
-0.14489068
-0.14046362
-0.051150348
0.05872248
0.060209554
8.7549706E-4
-0.0052713347
0.01064713
0.004540707
0.0053051594
0.01866421
0.025852973
0.015998477
0.01987475
0.052846134
0.044789203
-7.3680794E-4
0.013042313
0.058754154
0.028528214
-0.030602021
-0.00929356
0.022267101
-0.034691837