2.0560397E-5
9.0951263E-4
0.0016159677
0.0021471311
0.0017487619
6.364897E-4
-4.946199E-4
-0.0016604837
-0.0012740315
-9.722919E-4
-0.0014793753
-2.4644849E-5
9.401973E-4
3.327624E-4
3.6639156E-4
8.074199E-4
0.0017859781
8.595727E-4
-0.0013478448
-6.6860294E-4
-7.089558E-4
-0.0018212408
1.7110266E-4
0.001326637
-6.619165E-5
-8.81761E-5
2.4612356E-4
-0.0010755346
-0.0016157805
-0.0012804336
-0.0022358554
-0.0020496766
2.0904723E-4
0.0013804559
0.0012202451
7.629702E-4
3.8140675E-4
2.7678395E-4
3.2275458E-4
0.0010935224
0.0013507465
2.6993039E-5
-5.8941334E-4
2.994821E-4
4.4319115E-4
-1.5125613E-4
3.2032785E-4
3.875291E-4
-0.0010494068
-0.0015897042
-1.1394594E-4
0.0013839601
9.055761E-4
1.6719346E-4
8.6115295E-5
-5.0026213E-4
3.3619677E-4
0.0010361959
-0.0010172994
-0.0026103293
-0.001778684
-3.311054E-4
-7.667291E-4
-3.1582714E-4
0.0023861502
0.0021282826
0.0021630905
0.0035628625
0.0011371353
2.9302193E-4
0.0025256283
0.0027485953
7.895078E-6
-0.004077225
-0.004245371
-0.001689527
-6.2372425E-4
-3.8728132E-5
-1.7050936E-4
3.3813958E-5
-3.4571026E-4
-0.0016046374
-0.0010816617
-0.0012671789
-0.0010911819
2.9141697E-4
-3.3646665E-4
-4.1035668E-4
-4.4235567E-4
-0.0018432343
-0.0010664077
0.0010801691
0.0013355634
5.229304E-5
7.614002E-4
0.0023579388
8.745368E-4
-3.9793347E-4
3.7185117E-4
-1.7284715E-4
-9.5492206E-4
4.1893884E-4
8.2526106E-4
-6.427039E-5
0.002225402
0.002678048
-8.8981196E-4
-3.1040885E-4
0.0011841266
5.880021E-4
0.001366324
3.584746E-5
-7.008805E-4
0.0012321827
8.9363725E-4
6.031606E-4
9.419223E-4
2.645177E-4
-6.109348E-4
-0.0018148405
-0.0010622458
-2.5302533E-4
-0.0010364626
-9.226695E-4
-9.046066E-4
5.841308E-4
0.0012251271
-0.0022268258
-0.003462146
-0.0025760978
-0.0019434191
-5.1905273E-4
-2.598379E-4
8.307862E-4
0.0011919182
-1.387308E-4
8.1318256E-4
3.04788E-4
-2.7277248E-4
0.0014433266
0.001162307
0.0018968233
0.0027321808
0.0013762151
0.0010727159
-7.864984E-4
-0.0032215356
-0.002975225
-0.0014948121
4.1072813E-4
6.885975E-4
5.903301E-4
0.001926523
0.0028257896
0.0031525057
0.0019794968
6.2316866E-4
0.0010085931
0.0010535051
6.548245E-4
-1.8774024E-4
-0.0010050623
-0.0012088789
-0.0022013204
-0.002483959
-0.0022273918
-0.0023383724
-0.0016030677
-0.0011355812
-2.6469535E-4
3.1999004E-4
-8.9842116E-4
-8.7733945E-4
-1.8719719E-4
-5.5445795E-5
0.001102767
0.0016861709
1.415756E-4
-0.0023300203
-0.0028154815
-7.202015E-4
8.9283346E-4
0.0013230791
0.0020732067
0.0031986067
0.002585977
0.0016143845
0.0033791163
0.0033729856
0.0011227877
0.0013693882
7.750407E-4
-0.0017790125
-0.0017317511
1.8683966E-4
-0.0013100624
-0.00496286
-0.0040152785
-0.0024737564
-0.0038350455
-0.0019134076
0.001318633
0.0024707597
0.0025566414
5.5201835E-4
-5.773981E-4
9.051405E-4
0.0016553767
4.1793537E-4
-3.4388472E-4
9.783008E-5
-5.4114766E-4
-6.907884E-4
-4.334731E-4
-4.3891984E-4
0.0019140153
0.0026856044
0.0013673662
5.6363817E-4
-0.0011322487
-8.7712215E-5
0.0011993293
-3.3259805E-4
-1.0354228E-4
-6.836854E-4
-0.001712932
-7.9986994E-4
-0.0012838633
-0.0015639033
-6.922562E-4
-6.689687E-4
-0.001095275
-1.4471512E-4
0.0012275084
5.9371843E-4
0.0014584489
0.0024365075
4.0105538E-4
5.0257944E-4
9.0726954E-4
-6.79063E-4
-4.6648548E-4
3.911774E-4
6.525601E-5
-6.671294E-4
3.2984163E-4
4.40807E-4
-0.0024624618
-0.0026625092
-0.0020518631
-0.0018495822
0.0011930076
0.0013637397
3.981086E-4
0.0011752477
-1.0618549E-4
9.651858E-4
0.0020871707
-8.2945346E-4
-0.001821956
-0.002547056
-0.0026514367
0.0016639715
0.0038155208
0.0027790482
0.0023938096
0.0019511228
0.0015456977
-0.0018745562
-0.005885715
-0.0033991328
7.712664E-4
0.0042395988
0.0073375064
0.0036368745
-3.5401664E-4
0.0010894326
-0.001340337
-0.0050541325
-0.0032484985
-0.0015177559
-0.0015556557
-6.996822E-4
2.101061E-4
5.969346E-4
-2.6358492E-5
-0.0016878309
-0.0022218477
-0.0014598101
-0.0014096452
-0.00136624
-7.8713417E-4
4.3885908E-4
0.0033402245
0.0042478726
0.0022437032
6.164631E-4
-0.0019729228
-0.0034664874
-0.0017926584
2.0480207E-5
0.0013749644
6.514019E-4
2.077226E-4
0.0023861257
0.0019437176
0.0010729231
0.0012885449
-6.116379E-4
-8.3161064E-4
-2.0656758E-4
-3.5989977E-4
0.0011408632
0.0016650179
2.8104574E-4
-0.0010952849
-0.0017513823
-0.0025264074
-0.0031197192
-0.0012395564
6.4186676E-4
0.0020204016
0.005031853
0.006863356
0.0052244053
4.724817E-4
-0.0027502761
-0.002804717
-0.002700458
-0.0013018938
-5.029597E-4
2.7373782E-4
0.0013434535
-0.0019340422
-0.002619696
-6.88942E-4
-0.002851926
-0.0025154746
-6.5481185E-4
-7.8266097E-4
-6.5501095E-5
-9.8723234E-5
-1.7399565E-4
-8.073746E-4
-0.0017799368
-6.616603E-4
-3.1730146E-4
-3.3133372E-4
-7.8517136E-5
-5.0926517E-4
3.6751942E-4
0.0017166429
0.0026335076
0.003046082
0.003069872
0.0030131997
0.0019732148
0.0014578775
0.0013294097
6.2210245E-5
-6.3072523E-4
-7.2716764E-5
-3.9596757E-6
-7.2576944E-4
-2.444482E-4
2.5356028E-5
-1.439165E-4
7.423116E-4
-0.0021143819
-0.0056971726
-0.0034279486
4.657049E-4
0.002023254
2.0239105E-4
-2.4040641E-4
0.0023602517
0.0013444541
4.897295E-4
-8.5510686E-4
-0.00413706
-4.4263774E-4
0.0011171509
-0.0022119326
0.0010421806
0.0028193016
0.0014695188
0.0032159335
0.002502521
0.00107949
7.530277E-4
-0.0019768027
-0.00440137
-0.004452834
-0.002285963
-4.2727494E-5
-2.5557974E-4
-5.32844E-4
1.7009268E-4
-5.843771E-4
-0.002245024
-0.0016013911
4.2099442E-4
0.0010857997
0.0012906631
0.0011014796
5.8509357E-4
1.1597616E-4
-7.083576E-4
1.597111E-4
8.911296E-4
5.9825566E-4
0.0027699424
0.004017275
0.0034739256
0.003626779
0.0019510838
3.632685E-4
-1.6880003E-4
-0.001614803
-0.0017183323
-0.0014312721
-0.0018308932
-6.0017145E-4
6.4660393E-4
-6.670042E-4
-0.0016309719
-2.1734493E-4
-6.8513467E-4
-0.0024568713
-0.0021827577
-0.0022951188
-0.0020151027
-5.3462456E-4
4.1364116E-4
0.0012278367
1.8295691E-4
-0.0011937451
-7.469742E-4
-1.2258007E-4
8.809728E-4
1.423694E-4
-0.0010803281
2.6542036E-4
6.526234E-4
0.0010622931
0.0016187092
4.1838223E-4
0.0017522357
0.0027252166
-7.742455E-5
-0.0010009933
1.3006953E-4
-1.5619324E-4
-6.3106476E-4
1.5872032E-4
9.736069E-4
9.221149E-4
5.824006E-4
-1.5183382E-4
-7.100452E-5
0.0010443155
2.9656576E-4
-0.0015539152
-0.0019534994
-9.0001716E-4
9.2628633E-4
0.0014879697
9.963639E-4
0.0017940683
0.0011639026
-0.001733209
-0.0014032635
-3.0996065E-4
-0.0035067
-0.004296028
-4.3753895E-4
0.001588868
0.0021866444
0.0025836988
0.0015561508
8.048923E-4
1.6527233E-4
-3.1196108E-4
-2.5370813E-4
-0.0015249522
-0.002261101
-0.0015328143
-0.0012450315
-6.124689E-4
-1.7715745E-4
6.07371E-4
0.0023590622
0.0015000057
-5.078384E-4
-6.681231E-4
-1.522052E-4
4.3857298E-4
5.7416747E-4
0.0010537353
2.2273001E-4
-0.002722791
-0.0020534554
3.4593118E-4
2.1492792E-4
3.7273174E-4
0.0010413352
0.0016500511
1.1936255E-4
-0.0025601469
-0.0010730783
6.8113E-4
7.0542825E-4
0.0014824099
0.0014758823
0.0020705021
0.00273965
0.002556021
9.543639E-4
-0.002860696
-0.0028692577
-0.0010534277
-0.00105432
7.7605527E-4
4.900101E-4
3.6165045E-5
0.0022693675
3.5227355E-4
-0.0020759327
-0.001431928
-0.0017529706
-0.0029837163
-0.0031145648
-1.8544775E-4
0.0016665421
4.3031995E-4
0.0011954834
0.001575205
6.1025E-4
0.0010405086
4.909865E-4
-3.8694285E-5
2.4525527E-5
-4.6262273E-4
7.163486E-4
0.0018866212
0.0016248701
0.0013227257
-6.1462016E-4
-0.0026612387
-0.002000357
-0.0018537351
-0.0026375994
-8.587255E-4
0.0014696564
0.0018569786
0.001223323
1.4734469E-4
-0.0011356937
-0.0028035014
-0.0027551907
3.837787E-5
0.0016713883
0.0020877137
0.0036297766
0.0050323284
0.00457295
0.0024322176
0.0017547136
0.0018671877
-5.8553845E-4
-0.0027311125
-0.0031373072
-0.0030660632
-0.0013381529
2.5236185E-4
-0.0020986113
-0.0068956097
-0.007910714
-0.00532595
-0.003873812
-0.0024223058
-0.001236006
-8.545861E-4
0.0022163584
0.007061082
0.009506467
0.007682153
0.005990154
0.0063850638
0.0039487095
0.0028916744
0.0060621146
0.006272602
0.0036603436
9.43884E-4
-0.0020289442
-0.0043108687
-0.004717873
-0.0030284629
-0.00406853
-0.0075491862
-0.0074440683
-0.0050185826
-0.0036024253
-0.0054741767
-0.008624679
-0.00870339
-0.008550827
-0.007984995
-0.005300809
-0.003479845
-2.3768516E-4
0.004981809
0.008225664
0.009942107
0.011338694
0.011691672
0.010470704
0.008851542
0.007826303
0.0063832216
0.005059911
0.0042023547
0.0015205427
-0.0029652752
-0.005526615
-0.004934682
-0.0035629293
-0.0027238987
-0.0042352933
-0.005913275
-0.0020518587
0.0015581843
-5.478979E-4
-9.763809E-4
0.0010198028
-4.6195136E-4
-0.0018484615
2.6617807E-4
-3.1815754E-4
-0.0042610317
-0.005599435
-0.0064191115
-0.0068347156
-0.003261307
7.119355E-4
0.0026946566
0.0011536445
-0.002185249
-8.7020476E-4
0.0019272538
0.0032692526
0.0038515443
-2.0048396E-4
-0.004968727
-0.0052767755
-0.0042280764
-0.0035878143
-0.0023407792
-3.9696236E-4
-1.6999677E-5
7.921239E-6
0.0027513125
0.005982088
0.00980899
0.014675497
0.017435083
0.017585544
0.014619901
0.010314143
0.007674089
0.0041686487
-4.7009814E-4
-0.0043641506
-0.01035357
-0.017078679
-0.017955147
-0.014238033
-0.010778626
-0.0076558776
-0.0055318144
-0.002972514
9.7470346E-4
0.0023982057
0.004333944
0.008254306
0.0087224
0.00728798
0.0035979357
-0.0023910943
-0.0044761426
-0.005941102
-0.009240121
-0.011266068
-0.012715154
-0.008101258
0.0031771532
0.011709462
0.013600233
0.008222066
-9.628737E-5
-0.0094124945
-0.02109012
-0.026997136
-0.029153103
-0.031647123
-0.024544943
-0.011121583
-0.0012731546
0.0024283167
0.0014781419
0.006331765
0.019578185
0.034409657
0.047004562
0.05788774
0.066090725
0.060252592
0.047332015
0.038267292
0.017250983
-0.007279756
-0.021866854
-0.035984457
-0.033621695
-0.013234252
-0.0012408592
0.0021932002
-1.1512483E-4
-0.0121470485
-0.026885431
-0.036817726
-0.040879812
-0.044712264
-0.044626743
-0.035190232
-0.027688809
-0.026752025
-0.026751295
-0.026672656
-0.025966557
-0.025535498
-0.023075443
-0.012336686
3.606759E-4
0.009139158
0.028882178
0.06345014
0.089401506
0.09742183
0.10151372
0.10269647
0.08724675
0.05835098
0.021719035
-0.02850093
-0.066356495
-0.070859306
-0.06755756
-0.061046794
-0.043645293
-0.020243274
0.0125174
0.032553215
0.03173387
0.030276757
0.013793645
-0.01269669
-0.021907054
-0.02751506
-0.0399252
-0.04500879
-0.029693592
-8.905951E-4
0.014393559
0.016228639
0.024244338
0.028920058
0.010616522
-0.018478408
-0.030748457
-0.02358236
-0.017617881
-0.03246688
-0.036681272
0.01742511
0.06281901
0.032914042
-0.0030709526
-0.01215866
-0.017638516
-0.02169549
-0.06039529
-0.103904195
-0.085666016
-0.057857376
-0.05247865
-0.020081703
0.05216334
0.15003702
0.2455152
0.28282753
0.24013065
0.1760322
0.11904929
0.012880798
-0.1120371
-0.17302501
-0.19041204
-0.17733258
-0.120873585
-0.07143897
-0.044854075
-0.0076936753
0.017497258
0.0195046
0.027031122
0.014776018
-0.01618213
-0.031460118
-0.04237514
-0.02108088
0.02048797
0.015423964
-0.017265102
-0.06380737
-0.0968665
-0.07283432
-0.03546879
0.01127289
0.070516914
0.099941134
0.09917311
0.079296984
0.092209995
0.117392145
0.07484423
0.048891086
0.049392406
-0.020691149
-0.10976702
-0.2054862
-0.31342936
-0.32845062
-0.25161368
-0.15204471
-0.044079978
0.0590087
0.16411713
0.2416816
0.2394769
0.17880349
0.047391955
-0.123071454
-0.16575672
-0.09947972
-0.08834673
-0.087919876
-0.019101983
0.03347321
0.008211567
-0.019254979
0.050733056
0.15704562
0.16068858
0.094916135
0.055290345
0.019922031
-0.03061496
-0.067444414
-0.091567665
-0.10918045
-0.11362587
-0.10849993
-0.092114046
-0.040529158
0.05386643
0.14060362
0.17455186
0.17276473
0.16596235
0.14884597
0.09432641
0.03293301
0.020223524
0.026696853
0.019065825
0.011803216
-0.002979355
-0.026229193
-0.04716709
-0.07429012
-0.10836048
-0.13470867
-0.14469895
-0.15275615
-0.16262928
-0.1556929
-0.13882992
-0.13010888
-0.12594658
-0.11083059
-0.0819541
-0.057066858
-0.046762783
-0.044815034
-0.026538363
0.028871097
0.098989636
0.15413469
0.18821825
0.20186198
0.20105667
0.19374903
0.18651797
0.17535342
0.1495636
0.11149271
0.06469959
0.01784633
-0.0079828305
-0.009717247
-0.004748746
-0.004977799
-0.010135059
-0.017094256
-0.023753656
-0.029567506
-0.03620447
-0.043173317
-0.049474988
-0.054806642
-0.056173928
-0.053366978
-0.050495174
-0.048057247
-0.04518126
-0.044370443
-0.043099266
-0.036771618
-0.029743992
-0.022772232
-0.0108672315
0.0019299699
0.01296093
0.024673773
0.03514757
0.04457957
0.05163846
0.05370564
0.05705355
0.0621037
0.06421937
0.066620804
0.0692236
0.07023905
0.07075184
0.070053376
0.06793447
0.06293671
0.05638089
0.050946772
0.0445898
0.039721455
0.037520483
0.031522613
0.022130044
0.012716237
2.1342645E-4
-0.015869962
-0.033720985
-0.05196067
-0.06739404
-0.082799196
-0.101072215
-0.1176933
-0.13215102
-0.14463256
-0.15488611
-0.16552481
-0.17119512
-0.16930576
-0.1624368
-0.14561774
-0.120361365
-0.09410949
-0.06522084
-0.029997138
0.007978163
0.043875802
0.07972919
0.1173292
0.15446344
0.18799993
0.21730804
0.24761455
0.27912503
0.30603176
0.3214794
0.324784
0.32285044
0.30458808
0.2666479
0.21809933
0.13619024
0.027894704
-0.065789625
-0.14367501
-0.20564404
-0.24586257
-0.27508485
-0.2973137
-0.3183809
-0.33302775
-0.33409497
-0.331677
-0.3198656
-0.29608554
-0.27002007
-0.23703177
-0.19841969
-0.15815787
-0.11202364
-0.06218273
-0.013642443
0.030062156
0.069701195
0.10694059
0.13804987
0.16251011
0.18088192
0.19257982
0.19707671
0.1895201
0.17311238
0.15548703
0.13609536
0.11935374
0.10568441
0.08743103
0.06974571
0.056821693
0.04504053
0.034388028
0.024499934
0.0171635
0.01070672
0.0030016284
-0.0026251597
-0.010171913
-0.018658377
-0.023613466
-0.02930558
-0.035112433
-0.041712448
-0.04840638
-0.051928084
-0.057749227
-0.063197225
-0.06559952
-0.06931221
-0.07046132
-0.06772031
-0.061800856
-0.053956136
-0.04756929
-0.039205097
-0.030004025
-0.02324767
-0.016644755
-0.010324609
-0.004716136
8.7273154E-5
0.006342632
0.0136393905
0.015879598
0.016204786
0.018793521
0.020940293
0.022891037
0.023685494
0.023204524
0.023965536
0.023891727
0.022989579
0.02407909
0.024618471
0.022800582
0.022174094
0.023174116
0.022078516
0.019897796
0.020290364
0.021088293
0.019443242
0.017705664
0.017114148
0.016419694
0.015717724
0.015645897
0.015843306
0.015428822
0.015323276
0.015008079
0.012654272
0.011662261
0.012956242
0.012142377
0.009848863
0.009343561
0.010077809
0.009658519
0.008781179
0.00858254
0.00795692
0.008160192
0.008139892
0.0063722143
0.005580885
0.0044016857
0.0027257784
0.0024324146
0.0018796836
0.001969543
0.0016651386
0.0013894716
0.0034203415
0.002966827
0.0017799203
0.0036200797
0.004138651
0.0037088115
0.0024799018
8.423224E-4
0.0028426019
0.0035480952
0.0015123648
0.0027811916
0.0034197876
0.00134042
0.0017233832
0.0018272003
1.8339058E-4
0.0013307617
0.0019945824
-6.4855424E-4
-0.0014514182
-3.5802956E-4
-0.0012416673
-0.0024000702
-0.0018786413
-0.0019027914
-0.0026423584
-0.0014488566
7.7275943E-4
0.0011375567
3.4798283E-4
0.001546653
0.0033932705
0.0014761715
-0.0013459458
-0.0012451013
-0.0010565063
-0.0011397601
-6.258135E-4
-2.191316E-4
4.9516937E-4
-2.2019786E-4
-0.0016706217
-0.0018166268
-0.0021824923
-0.002048453
-0.001722609
-0.0019843103
-0.0011099156
-0.0015448314
-0.0028774804
-0.0018523835
-0.0012354784
-0.0018090045
-0.0022128006
-0.002560722
-0.0021247657
-0.0022370315
-0.0023055873
-3.8666546E-4
0.0013707081
0.0016353349
0.0018737114
0.0025007012
8.6016825E-4
-0.002111682
-0.0010999981
0.0013467133
7.698634E-4
-0.0010795842
-0.0025631164
-0.0022272083
-7.6346344E-4
-3.1514405E-4
-8.412096E-4
-0.0014749462
1.4748835E-4
0.00102076
-0.0016487229
-0.0022595895
-0.0019179694
-0.0031295281
-0.0025166576
-0.0021593743
-0.002392508
-0.001533108
-0.0017660154
-0.0022536188
-0.001802979
-9.078132E-4
-5.1033386E-4
-0.0016701535
-0.0021740345
-0.001325445
-0.0013372891
-0.0022335234
-0.0026344473
-0.0015268044
-1.678727E-4
-5.9586734E-4
-0.0012317124
-9.7630685E-4
-0.0020286676
-0.0031198727
-0.0016597983
-0.0010790222
-0.00221236
-7.5307844E-4
0.0015659807
0.0015292083
7.193548E-4
-3.9637505E-4
-0.0015008403
-0.0014824407
-0.0011582231
-4.5383527E-4
5.9048587E-4
-1.4682418E-4
-0.0021558264
-0.0027309947
-0.0017600398
-6.1790826E-4
-4.2841224E-5
-4.812768E-4
-9.788396E-4
-5.2653946E-4
-6.486383E-4
-8.037449E-4
7.9138065E-4
6.0722383E-4
-0.0017449846
-0.0015805076
-2.8418528E-5
8.028403E-4
5.9597264E-4
-0.0015965395
-0.002938259
-0.0027587418
-0.0024887414
-7.049239E-4
6.41364E-4
-3.2236116E-4
-0.0017183602
-0.0021179053
-0.0014523246
-0.0011823333
-8.400296E-4
-5.624412E-4
-0.0017715582
-0.0015253373
-5.8595644E-4
-0.0015648644
-0.0013091946
-7.0907595E-4
-0.0013339429
-3.619117E-4
5.7266705E-4
2.8916777E-4
0.0012364859
0.0022084103
0.0013284024
-8.115355E-5
-8.1218773E-4
-0.0011365553
-0.0018139089
-0.002618653
-0.0022169652
-0.001356218
-0.001424903
-0.0011320347
-4.8045433E-4
-3.2079185E-4
-4.3070092E-4
-0.0018127112
-0.0027500081
-0.0015280212
-8.0259336E-4
-8.086611E-4
-6.132799E-4
-2.98171E-4
8.568866E-4
9.418054E-4
-5.529363E-4
-0.0013613242
-0.0019311851
-0.0024509355
-0.0014084076
0.0010750082
0.002847285
0.0022066243
7.440971E-4
0.0010332346
0.0014075282
-5.5899745E-4
-0.0013930682
-3.0114356E-4
-8.242594E-4
-7.4211735E-4
-7.679122E-5
-0.0010219786
-9.3143206E-4
-3.3086652E-4
5.753155E-4
0.0012272735
-0.0010229187
-0.0019267628
-4.934538E-4
1.1568289E-4
6.629813E-4
-9.896739E-5
-0.0012440204
-0.0012439479
-0.0023019137
-0.003370241
-0.0028895286
-0.0020156824
-0.0020068742
-0.0015870463
9.391491E-5
-3.3296164E-4
-0.001745736
-0.001107359
-9.762418E-4
-0.0015066187
-9.707333E-4
-6.061421E-4
-3.5198245E-4
9.27949E-4
0.0013517068
0.0010909648
0.0024769937
0.0022237897
3.2574814E-4
5.1514996E-4
7.176898E-4
7.9549465E-4
4.315198E-4
-5.7694805E-4
4.610028E-4
-1.7620978E-4
-9.826754E-4
0.0014580153
0.0010903138
-5.666584E-4
-2.4151427E-4
-6.4699515E-4
-0.0011548726
-0.0012762019
-8.478961E-4
-0.0011519691
-0.0019981207
-9.080277E-4
-0.00105718
-0.001966742
-0.002133737
-0.0033551494
-0.002370868
-7.220312E-4
-1.5401874E-4
0.0014333874
0.0014197712
9.915644E-4
3.0007822E-4
-9.139059E-4
8.745727E-4
0.0011698231
-7.754445E-4
-0.0014921596
-0.0022582493
-7.895381E-4
6.104629E-4
-4.3303389E-4
-3.162601E-4
3.5785934E-6
0.0010728976
0.0015175975
2.2089512E-4
0.0027491737
0.0037788926
-0.0012337269
-0.0030593364
2.4417846E-4
9.837188E-4
-0.0035985257
-0.005543482
-9.470456E-4
0.0014110659
3.741052E-4
8.1907783E-4
8.126401E-4
2.3449882E-5
6.488133E-5
3.6022297E-4
-8.685245E-5
-9.1943005E-4
-8.3675294E-4
-6.190635E-4
-5.4801704E-4
-3.7303148E-4
-5.202109E-4
-4.193762E-4
-8.6012157E-4
-0.0018410044
-0.0022222186
-0.0023899307
-0.0016955187
3.1490723E-4
0.002637244
0.003558518
0.0025923396
0.0021061748
0.0018255663
3.1722445E-4
-3.2891764E-4
-1.8766621E-4
-9.504505E-4
-7.033707E-4
5.080438E-4
-6.942314E-4
-0.0021626158
-3.7663765E-5
0.0020977457
0.0011132861
-8.9727354E-4
-0.0020685894
-0.0012213525
-6.4320484E-5
-0.0012569338
-0.0018752875
-3.8311517E-4
-3.2532855E-4
-0.0012907998
-0.0015888815
-0.0028374256
-0.0032328377
-0.0011034661
5.6453247E-4
0.0010366536
9.7037986E-4
2.4567652E-4
-2.2711816E-4
-1.2913301E-4
7.3340524E-4
9.481457E-4
-3.2641536E-5
3.1459815E-4
8.0962636E-4
7.807809E-4
0.0011352911
-4.215547E-5
-3.5684847E-4
4.1993932E-4
-0.0010935725
-0.001149817
2.9224143E-4
-7.5956246E-5
2.945446E-4
0.0013649848
0.002265493
0.0026323828
0.001025645
4.572545E-4
0.0012057527
3.97369E-4
-4.4122877E-4
-5.73111E-4
-7.3547795E-4
-6.1135413E-4
-6.7296857E-4
-0.001191063
-0.0011069499
-4.4675503E-4
-0.0018672495
-0.0035343152
-7.3751574E-4
0.0016770725
-7.975713E-4
-0.0021103327
-0.0013673378
-0.0032770012
-0.00397543
-0.0014162546
-0.0010908532
-0.0014245585
2.8282593E-4
5.4551184E-4
3.6404302E-4
0.0011901908
0.0011349736
0.0013747336
0.0021100834
0.002124178
0.0021435057
0.0020076304
0.0012418531
8.7298785E-4
0.0013908811
0.0017415548
0.0017167188
0.0015379786
5.433334E-4
-3.6807647E-5
4.5830855E-4
-3.9528238E-4
-0.0023817127
-0.0023466717
-7.4621366E-4
-8.524442E-4
-0.0014805291
-1.3933073E-4
0.0012423081
0.0019128262
9.640524E-4
-0.0025509705
-0.0036117553
-0.0018869552
-0.0020958048
-0.002086668
-4.877064E-4
-5.1977026E-4
-0.0014162691
-4.923242E-5
0.0015803964
5.2025993E-5
-0.0014033092
-6.5581076E-4
1.0189361E-4
0.0017553609
0.002611578
0.0010987686
9.2885277E-4
5.2711525E-4
-0.0014359045
-0.0015863911
-0.0014281191
-9.711745E-4
9.132668E-4
0.0012045228
0.0015886122
0.0026646736
0.0016556941
7.640724E-4
1.7564728E-4
-7.0893415E-4
-4.6289054E-4
-5.851635E-4
-3.1738658E-4
2.7973144E-4
-8.3620637E-4
-4.9121294E-4
0.0013204801
1.691971E-4
-0.0019659284
-0.0011259984
-1.08301265E-5
-8.081925E-4
-7.941632E-5
0.0016652002
0.001197833
2.6387422E-4
6.391707E-4
0.0013382132
6.266144E-4
-9.333684E-4
-0.0014488101
-0.0018156886
-0.0012404607
2.3492414E-4
-6.6146115E-4
-0.0017360348
-8.41553E-5
0.0015105224
9.59106E-4
4.13776E-5
-2.2869176E-4
-0.0014275279
-0.0018304922
6.1567865E-5
0.0013631097
0.0016156988
8.124798E-4
-0.0013722363
-0.0023303065
-0.0016363276
-7.976195E-4
-5.3980626E-4
-5.717525E-4
0.0011463099
0.003336544
0.0021423562
-1.6915561E-4
3.0201572E-4
0.0013293324
9.05588E-4
-6.3847554E-5
-0.001407169
-0.0019018897
-0.0011563007
-7.5820537E-4
-9.951498E-4
-0.0015836199
-0.0010858367
0.0014852228
0.0025238923
2.8902953E-4
-2.5343883E-4
0.0010804982
6.3084625E-4
0.0023057044
0.0037664957
-2.4821796E-4
-0.0012020745
8.6541066E-4
-0.0012291283
-0.001871458
1.3593593E-4
4.6536018E-4
-2.3019945E-4
-8.1121473E-4
3.8838372E-4
0.0014607937
-7.5007003E-4
-0.0030077759
-0.0017492482
-1.8603117E-4
-0.0016210836
-0.0018667708
-6.7035377E-4
-0.0011282541
-3.80028E-4
4.708395E-5
-3.5686098E-4
6.6385494E-4
-3.02562E-4
-0.0012322251
-6.693658E-4
-5.107453E-4
0.0013524076
0.0020755513
0.0015844419
0.002123234
8.898691E-4
5.926128E-4
9.290368E-4
-4.9708434E-4
3.8814734E-4
0.0013788802
-1.5887466E-5
-9.567764E-4
-9.85664E-4
-3.1429017E-4
-7.5536524E-4
-0.0012335579
5.442025E-4
7.9995306E-4
-3.4036578E-4
-6.4191705E-4
-0.001392177
-6.5423595E-4
0.0013818741
0.0014522737
5.19141E-4
4.568107E-4
3.2655554E-4
-7.5961807E-4
-7.253169E-4
5.048007E-4
8.820151E-4
0.0016451089
0.0023911984
0.002005728
0.0017121333
4.567193E-4
-0.0013869832
-0.0017430966
-0.0015012176
-0.0019275749
-0.0021278898
-9.357205E-4
-4.913205E-4
-0.00148745
-7.669072E-4
9.2873874E-5
-0.0019071687
-0.00351392
-0.0017996699
1.26515815E-5
-2.4683677E-4
2.171255E-5
7.0081203E-4
8.779977E-4
0.0013536048
0.0010715161
8.914051E-4
8.743328E-4
3.8264017E-4
0.0010514081
6.3535484E-4
4.773991E-5
0.0024387669
0.0036677977
0.0023522188
6.2294496E-4
-6.482498E-4
-2.4417543E-4
-4.548872E-6
-3.030989E-4
1.7909697E-4
-5.406557E-4
-0.0018961553
-0.0011354038
1.3136113E-4
-5.0409307E-4
-8.759861E-4
-5.5366504E-4
-0.001907811
-0.0023670394
-9.940484E-4
-4.1557378E-5
7.4885937E-4
4.947719E-4
-1.4808874E-4
-7.439859E-4
-0.0016837178
-5.3698407E-4
-2.372358E-4
-0.0012019299
7.6645974E-4
0.0021441071
0.0023131766
0.002216896
1.6244277E-4
2.9067093E-4
8.674194E-4
-0.0013818012
-0.0014048523
7.4752705E-4
0.0017772145
0.0017459203
0.0019802738
0.0024193886
6.325291E-4
-0.0012173067
-0.0011388047
-0.0012853183
-0.0013882442
-0.0011918838
3.5240962E-5
0.0010748835
-5.278114E-4
-0.0015342389
-0.0019428614
-0.0024594967
-6.674285E-4
-6.959657E-4
-0.0026957314
-0.0017090759
2.5372015E-4
0.0010193092
5.7845307E-4
-1.8326624E-4
4.2553616E-4
3.551777E-5
-0.0012000266
1.2591136E-4
0.0017315957
0.0016243946
0.0018042594
0.001730619
9.680569E-4
0.0015904877
0.0024501362
0.0014009593
2.274092E-4
1.9900735E-4
6.139932E-4
0.0011391628
5.9337856E-4
-6.381564E-4
-5.9704576E-4
-3.5348526E-4
-0.0010379704
-0.0014286933
-0.0011617142
-9.835415E-4
-0.0012821733
-0.0018013978
-0.0017677265
-1.8628877E-4
0.0016235207
0.0010982665
1.1902494E-4
-1.2706463E-4
-0.0017269466
-0.0023493823
-0.0011102891
-0.0014165577
-0.0020615146
-0.0010025951
5.7853933E-4
0.0015005128
0.0012876984
0.001324507
0.0012462147
-1.5237111E-4
-7.0019465E-5
6.929912E-4
8.436219E-5
7.633046E-4
0.0010393205
5.656142E-4
0.0025037045
0.002567985
1.1213259E-4
-6.6895894E-4
-0.0013520939
-9.963397E-4
6.300096E-4
3.8192573E-4
7.824093E-4
0.0021417248
0.0011803625
-0.0010736648
-0.001966571
-0.0011562385
-0.0014422622
-0.0016305881
7.921472E-4
0.0012903742
-3.802551E-4
-5.36243E-4
-1.5293754E-4
4.3445904E-4
3.7218566E-4
-2.973808E-4
2.9042822E-5
-3.0626575E-4
-8.3080196E-4
-5.4488296E-4
-0.001043019
-0.0012972085
-6.469376E-4
3.0192548E-5
4.231347E-4
4.7679197E-5
-4.111665E-4
-5.452639E-4
-2.67181E-4
3.983481E-4
2.5242555E-4
1.8961492E-4
0.0012038382
0.0013645341
1.7130646E-4
-6.958066E-4
-7.517787E-4
-4.1281607E-4
-7.547799E-6
2.8089996E-4
0.0010974833
0.0021298074
0.0024871384
0.0022674014
6.8582647E-4
-0.0010594804
-0.0013323363
-0.0015617729
-9.848513E-4
2.6455984E-4
6.326752E-4
6.533185E-4
-6.80335E-4
-6.9037045E-4
0.0015985314
7.2801363E-4
-4.5448763E-4
2.4943522E-4
-0.002147194
-0.0034314361
7.639039E-5
0.002072794
0.0014650243
0.0010749736
-2.3799975E-4
-0.0011799854
-8.6740265E-4
-0.0010918352
-6.6209835E-4
-4.6697026E-4
-0.0013766931
-9.352003E-4
-2.2667416E-4
-3.8274023E-4
-0.001068552
-8.531454E-4
0.001255984
0.0013568236
5.030031E-4
4.1797978E-4
-0.0010520017
-3.694317E-4
6.721947E-4
-6.843779E-4
-1.5769826E-4
-2.2021799E-4
-0.0011495084
6.0577074E-4
0.0020946052
0.0029322563
0.0036415723
0.0026686986
0.0013797863
2.932468E-4
-7.739088E-4
-0.001287914
-0.0019092343
-0.001891237
-5.922844E-4
-1.9724513E-4
2.2260298E-4
0.0017209857
7.683027E-4
-5.9490587E-4
3.1453738E-4
-2.7787557E-4
-0.0016369272
-0.0011839245
-7.6292246E-4
-0.0014635916
-0.0012925613
5.0022174E-4
9.511035E-4
4.4444826E-4
4.2284795E-4
-8.936285E-4
-0.0017344238
-4.0294166E-4
9.805615E-4
0.0010943256
5.456842E-4
-3.7964492E-4
-0.0013668246
-6.684353E-4
-5.304408E-4
-0.0016383792
-2.0506541E-4
9.939993E-4
0.0011286464
0.0017081351
1.5970507E-4
-2.2726129E-4
7.832689E-4
-2.8215934E-4
1.7068886E-4
0.0015783097
6.7561003E-4
1.8289333E-4
0.0012041652
7.176123E-4
-5.167277E-4
4.110845E-4
6.1745883E-4
-3.1741345E-4
3.9048225E-4
2.6963986E-4
-9.434497E-4
-0.0019301611
-0.002594256
-0.0011993325
7.721612E-4
0.0016221807
0.001666382
5.150138E-4
-6.338272E-4