0.0022227252
-8.7326433E-4
-0.0023623821
-0.001207506
-0.0015242649
-0.0036601403
-0.005174868
-0.0022939888
2.3292218E-4
-8.247601E-4
-0.0013928778
-8.3215977E-4
6.548464E-4
3.6021718E-4
-0.0019706762
-0.0012095064
-2.542551E-4
-0.002456834
-0.0021538145
0.0015239744
0.0026193438
0.0017881747
0.002260316
0.002502106
0.0015414126
-7.034371E-4
-8.0816605E-4
0.0015955457
5.3890166E-4
7.0011505E-4
0.0029095935
-6.094027E-4
-0.0027416581
0.0015034751
0.004899634
0.0035453974
-1.9660165E-5
-5.502351E-4
3.7081432E-4
0.001006468
0.0013801455
-0.0020540783
-0.003555139
-0.0013229969
-0.0018693954
-0.0014722199
5.00055E-4
5.046151E-4
4.7015495E-4
3.8232096E-4
1.8182657E-4
-9.8309665E-6
-7.321938E-4
-0.0019830512
-0.002363062
0.001038771
0.0033266216
7.1851566E-4
-0.0012211379
-0.002444828
-0.0041119345
-0.0027755222
-0.0011565618
-0.0026546323
-0.003144201
-9.190405E-5
0.0032871235
0.0052192067
0.004583122
0.0016138017
3.2724088E-4
-2.1808744E-4
-0.001530006
-7.850168E-4
6.1846693E-4
0.0012101631
0.0011822752
5.48821E-4
0.0015562627
0.002845979
0.0025102585
0.0014574392
-6.773271E-4
-0.002101563
-0.0013015089
-4.511973E-4
-5.4167217E-4
1.357106E-4
0.002022826
0.0019853613
-4.65515E-4
-0.0022456713
-0.002844857
-0.0028655198
-0.0023075738
-0.0011270206
-5.06154E-4
-9.562709E-4
2.5245256E-4
0.002091603
0.0016584275
8.4892364E-4
9.838359E-4
0.0011502294
8.298198E-4
7.1963645E-4
0.0012801297
0.001172007
4.8127657E-4
6.654054E-4
9.456454E-4
-0.0011078038
-0.0037861413
-0.0037385463
-0.0025691863
-6.273752E-4
0.001128688
0.0010288971
0.0030483007
0.0047903867
0.0022573057
-0.00144501
-0.0055016517
-0.0062550125
-0.0025401567
1.7149048E-4
0.0026045246
0.004859966
0.0049444125
0.0038079307
0.0010450912
-0.0026643185
-0.005350062
-0.0042931414
-0.0010026182
-6.5133866E-4
-4.912303E-4
0.0012326437
9.909108E-4
6.555334E-5
0.0016948904
0.0057193926
0.007089132
0.0041819755
0.001989601
-4.291717E-4
-0.007298367
-0.013692893
-0.01051914
1.2803239E-4
0.007943758
0.007998623
0.0026749766
4.3375872E-4
0.0022172048
7.74461E-4
-8.8030746E-4
-9.133478E-4
-0.0014254344
4.1664596E-5
1.63138E-4
-9.396557E-4
-4.8040974E-4
-0.0017004648
-0.0025489007
-0.0032949017
-0.0043724324
1.8847377E-4
0.005075735
0.004188258
0.0030818572
0.0014511677
-0.0025729113
-0.0025944905
-5.469204E-4
-0.0022658897
-0.0017563776
9.6466555E-4
1.8761757E-5
-3.5953315E-4
7.056225E-4
8.5883256E-4
0.0012400935
0.0010486799
8.0156844E-4
2.2361669E-4
8.6875504E-4
0.003746003
0.0032839614
8.600832E-4
-8.9479424E-4
-0.0032748631
-0.0024264308
-2.599125E-4
-5.3622865E-4
-5.998213E-4
9.2596856E-5
0.0011178936
0.0013208919
8.544908E-4
6.9287105E-4
-0.0013766509
-0.0027033277
-0.0013974705
-7.3428155E-4
-1.490704E-4
3.113148E-4
2.9563284E-4
6.856588E-4
1.6144759E-4
-2.6630456E-4
-0.0013077362
-0.0035064206
-0.0028737823
-0.0012561227
-7.987577E-4
5.2579393E-4
0.0013887384
0.0029710047
0.005290246
0.0027529586
-0.002669865
-0.003893425
-9.326649E-4
0.0022305986
0.003367488
0.0021598127
0.0010722681
0.0020320145
0.0015897991
-0.0011557032
-0.0015339387
-6.2187726E-5
-5.0361432E-5
-4.2751938E-4
-5.0159235E-4
-5.663041E-4
5.6058867E-4
0.0023084613
0.0032632945
0.0029875026
2.0595496E-4
-0.0031380227
-0.003370313
-0.002527777
-0.0024784857
-0.002101848
-0.001128203
1.3849315E-4
-2.8117138E-5
1.04554405E-4
9.742345E-4
-0.001397582
-0.0023171084
3.6968512E-4
0.0010063897
9.2426554E-4
5.2169967E-4
-0.001179587
-0.0010472261
2.6833854E-4
3.590266E-4
-8.29157E-4
-0.0013467596
-6.515857E-4
-4.7235182E-5
2.1194524E-5
-0.0013012183
-3.1435807E-4
0.004580797
0.0067918664
0.004945453
0.0015237065
-0.0012269435
-0.0012398264
-0.0010302621
-5.026147E-4
3.455624E-4
-2.6021493E-4
5.388757E-4
9.147985E-4
-5.8017095E-4
1.3864666E-4
1.8938753E-4
-0.001564257
-3.0062077E-4
0.0015896589
4.5232687E-4
-6.717673E-4
4.2110964E-4
6.56295E-4
-0.0012801017
-7.823063E-4
0.0014891945
3.4552364E-4
-0.0022256733
-0.0045493436
-0.0050120982
-5.2296894E-4
0.0029746867
0.0034148346
0.0037341197
0.0011127316
-8.5531734E-4
3.1456646E-5
-5.749831E-4
-6.4946833E-4
-2.0371986E-4
-0.0014538215
-0.0023522112
-0.0017727488
-5.748892E-4
-0.0013615577
-0.0028394267
-0.0015035756
-3.0670824E-5
-4.2455335E-4
2.2590437E-4
0.002290577
0.002255455
0.0013911478
0.0024001922
0.0013241965
-0.0014436863
-0.0012489703
7.069432E-4
0.00257131
0.003431013
0.0029154012
0.0026272768
0.0017889773
-4.882819E-4
-0.0010893347
-1.0116587E-4
-0.0012915634
-0.0013635785
0.0014691346
0.0015837972
1.1488746E-5
-4.866769E-4
-0.0011730158
-0.0017530562
-0.0025247454
-0.0020291363
-0.0010788792
-0.0025719733
-0.0025995001
-6.254923E-4
-4.1841857E-5
7.1596843E-4
0.0020836508
0.002815893
0.0023217588
0.0016402553
0.0026634468
0.0019620305
-7.355128E-4
-5.321069E-4
-7.195323E-4
-0.002423855
-0.0016084075
-0.0015043216
-0.0019747196
-0.0021060403
-0.0037511175
-0.0020588597
1.628295E-4
8.369661E-4
0.004429226
0.00429858
0.0015316264
-9.690286E-4
-0.0063189426
-0.005129711
-0.002329451
-0.0046632793
-3.514964E-4
0.0042404435
0.0039057736
0.0062125023
0.006321093
0.005453607
0.006826377
0.005540338
0.0025203065
-0.0016654932
-0.004401148
-0.0018914668
4.9672986E-4
-7.7224884E-4
-0.002789076
-0.0031649275
-0.0024014697
-0.002080741
-0.0017626198
-0.0012442895
-3.0955093E-4
6.351872E-4
-7.169198E-4
-0.0016677824
-1.1828402E-4
-0.0012422142
-0.004003344
-0.0030463384
-0.001427759
-0.0012261757
-9.0623325E-5
0.0012009426
0.002450156
0.003817143
0.0034084492
0.001245773
-9.7194756E-4
-7.755588E-4
0.0020974015
0.002808913
3.8589057E-4
-1.15617E-4
0.0011239421
9.703516E-4
2.0493893E-4
-0.0011506107
-0.0028949114
-0.0021601624
2.2887992E-4
7.604478E-5
-0.0014126387
-6.168626E-5
0.0012852887
7.6128263E-4
0.0021736915
0.0020605477
-0.0011398457
-9.204125E-4
2.1536986E-4
-9.956498E-4
-2.5134682E-4
0.0015549043
0.002072204
0.0022508414
0.0012695392
-0.001356606
-0.0032371054
-0.0025837605
-0.001614964
-0.0013349829
-3.3449105E-5
2.1434738E-4
-0.0011554891
-8.5140107E-4
-3.0351314E-4
-9.210085E-4
-0.0010280806
-0.0018145068
-0.0022113544
-4.32616E-4
1.88486E-4
-2.840285E-5
0.0013739489
0.002815114
0.0038139834
0.003377921
0.0010663496
-2.8407278E-5
4.718674E-4
0.001555549
0.002225745
0.0011708282
0.0016049856
0.003609469
0.0023472414
-5.1616586E-4
-0.0025487125
-0.0050675045
-0.0050484077
-0.0014906888
3.1264607E-4
-9.0025285E-5
0.0010559674
0.002814591
0.0017819792
-0.0012091169
-0.0021833782
-0.0010603593
-0.0014692761
-0.002891174
-0.0015702131
8.002249E-4
9.135925E-4
4.1394145E-4
-2.1776134E-4
-6.630085E-4
4.1335402E-4
1.0762935E-4
-7.613229E-4
6.7332847E-4
0.0019034242
0.0022225664
0.0010328563
-0.0010497721
-1.3874892E-4
0.0014615845
7.510587E-4
-9.781147E-4
-0.0021627406
-0.0010901843
1.6730887E-4
-2.5185116E-4
-7.295518E-5
0.001516575
0.00265944
0.0017620779
6.2188617E-4
6.681294E-5
-6.549786E-4
-0.0012690618
-0.0021014325
4.8640836E-4
0.003541591
0.0011067976
4.605403E-4
-9.553602E-4
-0.006301937
-0.0035301633
0.001639503
0.0019198543
0.0043324623
0.00511193
0.002906406
0.0024413643
9.0679893E-4
-0.0030827047
-0.0060391095
-0.0038110672
5.203011E-4
0.0010709882
-2.0138541E-4
-0.001966448
-0.0033005208
-0.0015906127
4.3584715E-4
5.1149033E-4
-8.2831667E-4
-0.0024205237
-0.0015085272
8.1471185E-4
0.0015252422
0.001407884
0.0012086902
7.0524897E-4
-7.688302E-5
-0.0021452429
-0.003507428
6.911723E-5
0.0054565296
0.0055108173
0.0018914235
9.272444E-4
0.0020021657
0.0012043605
-3.344951E-4
7.7129557E-4
0.0017727739
-7.797772E-4
-0.0018885981
-0.0015126159
-0.003776132
-0.0029557664
-6.212546E-4
-0.0018268342
-7.0560654E-4
3.630613E-4
-8.0238096E-4
2.6721015E-4
-2.9100457E-4
-6.6121813E-4
0.0013352472
0.0010090326
0.0012522528
0.0013900391
-3.090179E-4
-8.0147356E-4
-0.00257681
-0.0031965268
2.5268414E-4
0.002815197
0.0033009786
0.0031085056
0.003481791
0.0032545049
-2.6774695E-4
-0.0033590149
-0.0029882032
-0.0015772752
-0.0011978195
-0.0010705886
5.1423773E-4
9.6740224E-4
-1.580788E-5
0.0011320395
9.742266E-4
-0.0012692392
-9.079739E-4
-0.001096298
-0.002607758
-0.0011066893
6.926695E-4
0.0013848267
0.0015256912
-1.6268528E-4
6.3683814E-4
0.0026908221
3.553761E-4
-9.584173E-4
0.0010383269
6.690038E-4
-0.0011633913
-7.1669783E-4
9.093145E-4
0.0013208733
0.0010640703
1.5738735E-4
-0.0011406533
-1.6846962E-4
3.09587E-4
-9.280949E-4
-1.408165E-4
-6.7251135E-4
-0.002575044
-0.001220236
2.86036E-4
-3.3738042E-4
-0.0017113765
-0.0014592602
7.123238E-4
7.486355E-5
-0.0013021551
3.6464677E-5
9.5967646E-4
0.0017238533
0.0025257524
0.0030822705
0.0036548348
0.0023709957
0.0017929666
0.0014772831
-0.0017125563
-0.003698008
-0.0024696589
-4.719409E-4
-3.6101165E-4
-0.0018151614
-0.00130079
-3.9877807E-4
-5.8177736E-4
-7.7213335E-4
-0.0017679177
-0.0020573342
-0.001298735
-2.2870988E-4
0.001543866
0.002284739
0.0024393317
0.0031408481
0.0020369038
-0.0016331845
-0.0021013361
0.0029769994
0.0051981304
0.0026603763
1.5447575E-4
-0.0018020085
-0.0019324182
-0.002405454
-0.0027550133
5.229054E-4
8.177313E-4
-0.00230703
-0.002166923
-1.4054682E-4
0.001145614
5.006655E-5
-0.0019780083
-0.0019387426
-0.0012842505
-1.421949E-4
9.980052E-4
5.743786E-4
4.7390073E-4
0.0012016717
9.7491714E-4
-1.0567605E-4
1.02132806E-4
0.0018127001
0.0033039202
0.0034129103
0.0011213293
-0.0010151349
-0.0011769423
-0.002594513
-0.0036966575
-0.0020379173
-0.0020801756
-0.0037441985
-0.0018013733
0.0014660151
0.0013624455
2.7609122E-4
8.478785E-4
0.0014958425
0.0012022343
7.594607E-4
7.153592E-4
7.663477E-4
4.9256353E-4
5.6733115E-4
0.002814109
0.0045441883
0.0025248919
0.0019292347
0.0028894986
5.180916E-4
-0.0014337834
-0.0019441759
-0.0031190466
-0.002984047
-0.0019333456
-0.0013253075
-0.0010231604
0.0015743705
0.004737663
0.0020617337
-0.0019936117
-0.0029827792
-0.0041686483
-0.003976176
-0.0022065418
-0.0011293006
-5.66593E-4
-6.6798646E-4
-7.2569354E-4
-0.001003949
-9.010183E-4
1.0779748E-4
-1.7010546E-4
-1.2093304E-4
7.841545E-4
3.2403597E-4
6.913636E-4
0.0017122851
0.002117959
0.0028576583
0.0016448913
3.1787227E-4
8.0620346E-4
-6.2069204E-4
-0.0011170439
9.2975213E-4
0.0026516626
0.0052715642
0.0060160463
0.0054988367
0.006539699
0.0031322713
-0.0031382835
-0.006642063
-0.007005586
-0.0029820295
-6.2100665E-4
-0.0031977808
-0.003495145
-0.0019637463
-0.00229576
-0.0023702043
-0.002594972
-0.0040009483
-0.003561265
-8.216053E-4
0.001202765
0.0016954993
0.0015437426
0.0022455985
0.0028124833
0.0018181003
0.0018966278
9.669027E-4
-0.0015416697
5.4488896E-4
0.004669721
0.005538632
0.0035694274
2.179865E-4
-0.0010666236
3.2530836E-4
8.8260433E-4
-5.395344E-4
-5.1311875E-4
0.001411242
1.2011681E-4
-0.0026063046
-0.002853776
-0.0019666671
-7.4940047E-4
-0.0011584961
-0.0023780589
-0.0026668126
-0.002490291
1.0957704E-4
0.0018669881
7.2589575E-4
0.0011046573
0.0012522786
-7.180643E-4
-0.0016151341
-9.74884E-4
-0.001382871
-0.002136972
-8.8877557E-4
-5.837634E-4
-8.0767716E-4
0.0011713861
0.0018295269
0.0010073229
1.769189E-4
-7.433062E-4
1.17379226E-4
0.0018256623
0.0031604052
0.004064177
0.004337149
0.0037353393
0.0013358012
-0.0011598007
-0.0017413379
2.1179099E-4
0.001899741
-1.6105038E-4
-0.0016248781
-0.0011687328
-0.0019457331
-0.0024695583
-0.0015528492
0.0013567433
0.002406941
-6.7661086E-4
-0.0017861744
-0.0024092565
-0.004736997
-0.004217444
-0.0027365289
-0.0012059788
0.0013461583
1.1794851E-4
-0.0027815339
-5.9200404E-4
0.0016726286
3.2100157E-4
0.0019879767
0.0043043676
0.0027204747
0.002056111
0.0022585362
8.569352E-4
-6.905686E-4
-0.0011432321
-0.002341648
-0.004052779
3.865523E-4
0.005295114
0.0023678893
8.989873E-5
2.6292748E-5
-4.5543438E-4
0.0012274524
0.002177042
0.001954521
-6.166363E-4
-0.0042912043
-0.0020963163
0.0024848517
0.004408294
0.004409658
0.0020508417
-0.0037159454
-0.007729639
-0.0030087116
3.4601887E-4
-0.002347658
-0.0015226982
-0.0020847274
-0.0034402313
-7.8035204E-4
-0.0014504748
-0.0021390151
-6.920797E-4
-6.133186E-4
6.4215367E-4
7.722343E-4
5.9275026E-4
0.0026386876
0.0019510612
-0.0012106242
9.277598E-5
0.004750335
0.0043593054
0.0012104888
-0.0015967009
-0.0066610924
-0.006173541
-0.0012627895
-5.498828E-4
9.187945E-4
0.002671746
0.0019015868
0.0016397632
0.0016351149
0.0034360897
0.003759973
3.013887E-4
-4.659053E-5
0.0018924053
0.00221825
0.0011220444
-0.001983759
-0.0033213831
-0.0018095989
-0.002391774
-0.0029728303
7.8742794E-4
0.0049559847
0.0054250164
0.004547206
0.005166846
0.0049499725
0.0019238035
3.8539086E-4
-0.002414035
-0.012579874
-0.019808354
-0.017348388
-0.012871042
-0.010176054
-0.011129894
-0.013027821
-0.011331453
-0.010847136
-0.011192555
-0.008763022
-0.004384095
0.0033915874
0.010637958
0.016946485
0.0262088
0.02972587
0.026540173
0.025798257
0.025806265
0.024529716
0.020792734
0.012559638
0.005127471
0.0023058327
0.0026864856
0.0012641777
-0.003317809
-0.003971576
-0.0010329722
0.0030700893
0.009660303
0.012569251
0.012243214
0.014950879
0.018521652
0.020413933
0.018538194
0.010751192
-0.001852226
-0.015467093
-0.027681775
-0.042307686
-0.05781065
-0.07018566
-0.08107525
-0.087480105
-0.09238004
-0.09603155
-0.083990365
-0.06465787
-0.053710762
-0.039610352
-0.020881874
-0.0067986487
0.011792894
0.04200767
0.07422293
0.09218424
0.0985017
0.11946325
0.1541088
0.17161758
0.16256738
0.13823542
0.114696324
0.09997066
0.08420803
0.06861391
0.054972015
0.025125906
-0.012408994
-0.04023336
-0.0816217
-0.14224122
-0.19228989
-0.22488442
-0.24254541
-0.24106658
-0.21813121
-0.16612566
-0.10601573
-0.06494863
-0.023032717
0.030125191
0.07427287
0.10130973
0.11537375
0.12884586
0.14757451
0.16287075
0.17061646
0.17158829
0.16035499
0.13019595
0.09139205
0.054821502
0.016733294
-0.023975233
-0.06892966
-0.1071596
-0.12732956
-0.14019737
-0.14038786
-0.12982544
-0.13136686
-0.13625483
-0.122818395
-0.094506405
-0.073969774
-0.061412144
-0.039960563
-0.012533389
0.027286919
0.06503861
0.07897579
0.1011968
0.1304238
0.14843136
0.16793412
0.16555674
0.14208512
0.12852357
0.11428836
0.08828977
0.053048216
0.021245772
0.002250454
-0.027878353
-0.080538005
-0.12578574
-0.12955023
-0.093062006
-0.052314956
-0.046041958
-0.0734677
-0.08898277
-0.08595133
-0.09169241
-0.08760012
-0.06082366
-0.029695738
-0.003699877
0.009239619
0.010225619
0.007904861
0.0073356167
0.008535869
0.0063145743
0.0063500702
0.013425879
0.024529811
0.035077557
0.03821413
0.040628176
0.045050412
0.04365578
0.039498128
0.034428425
0.030511595
0.028666863
0.023747018
0.019699834
0.015701968
0.0076969215
0.001268634
-0.002403176
-0.002885111
-0.0012461498
-0.0032590711
-0.0059306016
-0.0055891103
-0.0038620844
-7.8009E-4
1.1360227E-4
-0.0043018577
-0.009794019
-0.013030149
-0.014681313
-0.015440557
-0.016241195
-0.018586399
-0.02118906
-0.019936044
-0.017015379
-0.016571816
-0.01532805
-0.01212709
-0.008684475
-0.005639718
-0.003521591
0.0012761833
0.0074828435
0.01069458
0.013331595
0.014909825
0.014020875
0.013120722
0.012954872
0.01326562
0.011438216
0.008264383
0.00878815
0.008686737
0.0031728407
-0.001103742
-0.0011645635
-0.0011682534
-0.0019931532
-0.0038068804
-0.0037469948
-1.2759559E-4
1.914439E-4
-0.002253033
-0.004252705
-0.0086262515
-0.0104389535
-0.010198851
-0.01305479
-0.012382084
-0.007953266
-0.005601827
-0.005702173
-0.0059467093
-8.29799E-4
0.004086932
0.0011254876
0.0020274993
0.012226808
0.018083597
0.014954619
0.013926073
0.018068833
0.017307186
0.011073827
0.0069500837
0.0038116246
-9.7371225E-4
-0.0054790364
-0.008391968
-0.009269934
-0.006620256
2.1844078E-4
0.0066801757
0.0047306623
-0.0051290416
-0.010584537
-0.008992029
-0.009110481
-0.0065270793
1.5574772E-4
-5.227084E-4
-0.0033889639
-0.00228699
-0.003722345
-0.0035238878
-0.0015702104
-0.004091103
-0.0037710865
4.8895545E-5
7.6964806E-4
0.0026921707
0.008400768
0.013709223
0.014467987
0.00927198
-9.469121E-4
-0.013711437
-0.019403737
-0.014792185
-0.009633056
-0.005701697
-0.0027950378
-0.004575604
-0.0072482717
-0.0083135385
-0.0049914783
0.0038267283
0.0083426945
0.0077515864
0.008801952
0.010072517
0.011057009
0.011521995
0.01058023
0.008029568
0.0020403343
-0.0020484272
6.25836E-4
0.005936875
0.008800512
0.0064241677
0.0025961155
1.9011067E-4
-0.0039109886
-0.0068460116
-0.00535504
-0.003471167
-0.004918714
-0.00700893
-0.0053968397
-0.0036211617
-0.004859148
-0.0064999997
-0.00810848
-0.008495705
-0.006381561
-0.003176952
7.146111E-5
0.0030090788
0.0051960438
0.0046897843
0.0036634991
0.0044867774
0.0033396045
0.0019782651
0.0019436481
-4.856949E-4
-0.0023629337
-0.0010879935
7.4469484E-4
8.1086945E-4
2.958118E-4
0.0023821052
0.0026995242
-8.456003E-4
-0.0017946223
-0.0015708556
-0.0019755894
2.76982E-4
8.12653E-4
-6.5243985E-5
0.0028224469
0.0036239286
6.307645E-4
-0.0013773707
-0.003571506
-0.004095584
-0.001428558
0.0016745533
0.0043784347
0.004184726
0.0028974568
0.003809522
0.003346793
0.0017728114
9.953432E-4
-4.6316354E-4
-0.0013129357
-0.0024431092
-0.005206708
-0.0046411343
-7.532905E-4
9.780643E-4
0.0013774919
4.666332E-4
-0.0019924215
-0.0019886878
-3.4628462E-4
0.001611844
0.0011357432
-0.002486023
-0.0023679778
-0.0032124596
-0.0063517024
-0.003298486
-0.0015564398
-0.002752715
-4.1216117E-4
0.0015007475
0.003748058
0.0072091576
0.00945005
0.00916663
0.00484733
-1.3229811E-4
-0.0052417857
-0.008484306
-0.004983819
0.0014518491
0.006994387
0.0077452576
0.0025829962
-5.5175816E-4
-1.2240346E-5
-2.635658E-4
-0.0018370665
-0.0025832944
-0.0017356913
-0.002115981
-0.0049609323
-0.0061936625
-0.0019062923
0.0024479576
0.0014570836
-4.040839E-4
-0.0013127088
-7.839217E-4
-0.0010678346
-0.00651866
-0.00631216
0.0015244102
0.0043106857
0.004247838
0.002124225
-0.0016443658
0.0012257156
0.0024268334
-8.26098E-5
0.0014034822
-0.0022685416
-0.005012865
0.003339817
0.00763975
0.006230062
0.0055527426
0.0025992296
4.910675E-4
-0.0026614368
-0.003972103
9.577618E-4
0.0010695603
-0.0012352921
-3.797683E-4
-0.0020009424
-0.0019165043
1.2695379E-4
6.467345E-4
0.0013104476
-2.2956988E-4
-0.0019063634
-0.0012627929
-0.0013582816
-0.0031547346
-0.0037674701
-9.5041964E-4
-8.320936E-4
-0.0037192153
-0.0027989785
-0.0016146246
-0.0011264341
3.6302157E-4
2.663396E-4
5.8368634E-4
0.0010017203
0.0013563227
0.0022393677
6.5574335E-4
2.9982076E-4
0.0013276287
-5.8621436E-4
-0.0010462303
0.0011254468
0.0022472865
0.0020227616
9.2171866E-4
-2.551455E-4
-3.9499844E-4
6.042837E-4
0.0013025786
0.001994494
0.0023269416
9.008147E-4
0.0015257526
0.0030020284
0.0021983797
0.0017836974
-8.02039E-4
-0.0021492206
1.4035679E-5
-0.0031095026
-0.004592542
-0.0013699578
-0.003842611
-0.0060354695
-0.004313661
-0.002073842
0.0011226283
-8.73446E-5
-0.002259754
-3.822751E-4
-8.439982E-4
-0.0022413316
-3.3926632E-4
0.0016991973
2.0262205E-4
-0.0020420954
5.0823396E-4
0.0019672497
-3.3072607E-5
0.0017493517
0.0032472392
0.0026757666
0.0040468946
0.004141953
0.0044061188
0.005657934
0.0046567246
0.004430046
0.004763224
0.0014346193
-0.0033173016
-0.0024464442
9.1415085E-4
-0.003866661
-0.008642113
-0.003865241
4.0541554E-4
2.1863749E-4
-0.0018295769
-0.004432238
-0.0030045295
-0.0010502011
-0.0021681397
-0.0032145362
-0.004113577
-0.0038130628
-0.0030143822
-0.0043092533
-0.00373811
-0.0011241643
-0.0011322811
-3.2162934E-4
0.0034618124
0.0043132156
0.0027725764
0.002794178
0.0026502577
0.002318937
0.0021267927
0.0013745804
0.0010799257
2.8955916E-4
-5.399334E-4
5.138303E-4
0.0027513234
0.003408824
0.0016767628
0.0026451617
0.006679385
0.008845573
0.008159402
0.0022379656
-0.005886223
-0.007956861
-0.0061281356
-0.004552527
-0.0023436863
1.7313167E-5
5.652652E-4
-0.0014526618
-0.0022272975
-5.708844E-5
5.75752E-4
-0.0010448804
-0.002726036
-0.0037779752
-0.0038660732
-0.005114035
-0.006147596
-0.0032401427
-0.0012616926
-0.0015655146
0.0018085476
0.0047979
0.0036143921
0.0030350075
0.0027102535
0.0015278938
8.0472406E-4
1.9207127E-4
6.86867E-4
0.0015565169
0.0020754207
0.002669215
0.0017022844
6.625009E-4
8.9626247E-4
8.776567E-4
-3.1155454E-5
-0.0024294695
-0.003090283
-9.765403E-4
3.8817406E-4
0.002161908
0.0017479088
-0.0019703323
-0.0015524436
7.0034905E-4
1.760378E-4
1.4345402E-4
7.860297E-5
1.4608579E-4
0.0016559407
0.0013345846
-2.7132436E-4
-2.3493532E-4
-3.4086028E-4
-1.7334819E-4
0.0031014613
0.0042140414
-5.073189E-4
-0.0035077045
-0.0022042587
-0.0013422181
-0.00161054
-0.002291804
-0.0025131286
-8.736862E-4
6.011247E-4
1.2553611E-4
6.6663764E-5
8.0044573E-4
-2.4628526E-4
-0.0017002597
-0.0020827118
-0.0024140682
-0.0018952509
-0.0014681255
-0.0016851132
-2.6498747E-4
0.0012366336
0.0014034399
0.0020015058
0.0020318588
0.0010122587
8.796514E-4
7.9062063E-4
6.9220155E-4
0.0012681257
1.9542791E-4
1.6781715E-4
0.002553032
0.001522887
-4.6470037E-4
-3.910119E-4
-0.0018756383
-0.0025264383
-0.001876621
-0.0016459775
1.87995E-4
0.0014923895
0.0027705268
0.0050069527
0.0041975304
0.002809698
0.0019966231
-5.320938E-4
-5.9660006E-4
9.96949E-4
4.290645E-4
1.4009785E-4
-3.3875136E-4
-0.00229853
-0.0034070322
-0.0028735418
-0.0021434275
-0.0034301376
-0.0043120026
-0.001118408
0.002063136
0.0016777746
0.0011795314
0.0026151054
7.2406133E-4
-0.0059928806
-0.008438877
-0.0056979503
-0.003673795
-6.7013083E-4
0.0013035192
5.177669E-4
0.0013368054
0.0022574374
0.002265146
0.003305171
0.004580648
0.00611492
0.006359436
0.0038456866
0.0012887238
-3.6573308E-4
-0.0022535615
-0.0022682215
-4.7774648E-4
-5.6055235E-4
-1.1396098E-4
0.0014226132
-2.9860364E-4
-0.0011360014
9.2696963E-4
9.0285036E-4
-3.1194664E-4
-1.667582E-4
7.471592E-4
3.3098867E-4
-0.0017267617
-0.0030851373
-0.0034518987
-0.0024592213
-6.369362E-4
6.559475E-4
0.0015330034
0.0012922977
0.0021261482
0.0032463246
8.482742E-4
-0.0012692225
-0.0013863352
-0.0016264855
-0.0012875597
-7.9435145E-4
-4.4904902E-4
-4.826719E-4
-6.206374E-5
8.106456E-4
-6.0629176E-5
-4.6230608E-4
-3.1622796E-4
-0.001229846
-0.0014200355
-0.0015267044
-3.6138383E-4
0.0016326612
0.0017116452
0.0013669282
-3.4875257E-4
-0.0010680244
0.0013429478
0.0020295018
0.0022253874
0.0020259472
1.0390712E-4
2.6362634E-4
4.393594E-5
-9.856273E-4
-9.5042883E-4
-0.0029248116
-0.003885921
-0.0023639456
-0.0019404023
-0.0011463385
1.0912452E-5
-1.403057E-4
2.989351E-4
0.0013881936
0.0017184597
0.001769156
9.6860045E-4
8.006957E-5
0.0013178976
0.0016150895
9.5902506E-4
0.0031415923
0.0033725856
0.0010630018
0.0016188977
8.212292E-4
-0.0017524378
-5.342278E-4
0.0011675297
0.0015624842
0.002500743
0.0022240279
0.0019813809
7.596035E-4
-0.0030345737
-0.0035549493
-0.0022613246
-0.003455161
-0.003967648
-0.004316777
-0.0032079786
2.3511004E-4
4.6823669E-4
-8.232969E-4
-0.0010264259
-0.0016591271
-0.0016388689
-0.0018694014
-0.0019151653
-3.869339E-4
9.9365745E-5
-6.398671E-4
-4.0001769E-4
3.6843034E-4
6.6614524E-4
0.0011108017
0.0010245068
4.0988554E-5
6.11953E-5
7.763756E-4
9.853295E-4
0.0011135134
0.002223302
0.0025981425
0.001510153
0.0037322843
0.0043776403
5.4334087E-4
0.0019538852
0.0033769147
0.0010443911
0.0026453387
0.0024195549
-0.002113368
-0.0048392867
-0.003058796
0.0010797333
0.0011809513
3.0359457E-4
-1.5377633E-4
-0.0017490279
9.870616E-4
0.0015089961
-0.0029023017
-0.003866527
-0.0037381111
-0.003951704
-0.0030358909
-0.0020115243
-8.9391094E-4
-9.5314323E-4
-2.74262E-4
0.0014329972
0.0015726753
7.1381306E-4
-1.8925883E-4
-0.001126786
-0.0023776868
-0.0012119708
0.00105579
8.6841355E-5
1.9904078E-4
0.0016720641
0.0012776363
0.001267309
0.0014208319
0.0016443941
0.0013821295
0.0013199658
0.0034115077
0.0035792033
0.0023681144
0.0019970634
4.7291094E-4
-4.005308E-4
4.3951295E-5
8.089533E-4
4.3887136E-4
3.779258E-4
0.0034599889
0.0032038342
2.3968407E-4
3.98657E-4
-4.026138E-4
-0.0015047243
-0.0023855527
-0.004119461
-0.004133274
-0.004135857
-0.0017568459
4.6438574E-5
-0.0035555905
-0.0033450704
-4.515432E-4
-6.785585E-4
-0.0016921452
-0.004611388
-0.0040418087
1.7096363E-4
3.901466E-4
4.0908053E-4
6.4003374E-4
8.6897135E-6
0.0019936974
0.0026456588
0.001478684
0.0020431075
0.0030607097
0.0033746841
0.003204113
0.0027438407
0.0022400804
0.003992946
0.005165652
6.2679197E-4
-0.0018648749
0.0011854317
0.0022885276
0.0021252416
0.0025048242
0.001787433
4.1014302E-4
-0.0022563087
-0.0053789713
-0.00646096
-0.004386724
-0.0017941064
-0.0017400999
-0.0020999983
-0.0026528765
-0.0038846107
-0.0029897278
-0.001275957
-9.552303E-4
-0.0017867988
-0.0025781295
-9.0154255E-4
0.001284334
0.0015155757
0.0020751895
0.002561969
0.0016554807
0.0013209914
0.0011657474
1.4203587E-4
-4.282848E-4
-5.6295743E-4
3.4536736E-4
0.0026505422
0.0036122508
0.0036806487
0.0048413947
0.0045278636
0.0019379334
-1.8685441E-5
-4.304844E-4
-4.2714124E-5
-7.7968097E-4
-0.0026811117
-0.001957544
-5.861232E-4
-0.0015274303
-5.238185E-4
2.7966313E-4
-0.0022767796
-0.0032987436
-0.0031439152
-0.002388735
-0.0011742747
-0.0032758433
-0.0036315657
-0.0011451452
-0.0011337072
-2.3554555E-4
4.931522E-4
-0.0016832144
-0.0027318923
-0.0022335157
-5.746436E-4
0.001294773
0.0022682534
0.0046405005
0.007586486
0.009034761
0.007496162
0.0036184052
0.0012816861
-4.2512288E-4
-0.0020249845
-0.0023797168
-0.0021987169
0.002155522
0.0069436445
0.004653426
0.0022640417
0.0031369622
-3.0093736E-4
-0.006737055
-0.007938463
-0.0038643198
-0.0028862953
-0.007107369
-0.0084058745
-0.004213582
-0.0013490845
-0.0017049577
-8.426786E-4
8.036853E-4
0.0011673167
0.0013671647
7.081804E-4
-2.0666412E-4
1.9652453E-4
5.201408E-4
6.3022296E-4
5.988139E-4
9.308132E-4
0.0030511876
0.004467674
0.003605398
0.0021013755
9.765532E-4
0.0017805683
0.0034370413
0.0021463342
-0.0012008669
-0.0015973734
2.017836E-4
-4.025454E-4
-3.1626588E-4
0.0011472674
-8.1240904E-4
-0.0011105513
0.0016550871
8.40544E-4
-5.1870267E-4
-4.3081603E-4
-0.0015446134
-0.0011396977
4.1159522E-4
5.386313E-4
-3.8104635E-4
-0.001620822
-4.636482E-4
0.0022105542
0.0019418518
4.293334E-4
1.7488982E-4
-5.399528E-4
-0.0015862555
-0.0019457388
-0.001565912
-5.753498E-4
-0.0014193725
-0.0034824386
-0.002585727
-6.2720926E-4
-6.02896E-4
-3.6489905E-4
9.4805757E-4
0.0014797499
3.1134766E-4
3.804771E-4
0.0024977822
0.0016799686
-2.2962724E-4
0.0010005431
0.0015924616
7.927801E-4
8.32082E-4
0.0015349756
0.003091131
0.0033422783
0.002484516
0.0022310317
-7.225633E-4
-0.004505959
-0.005006339
-0.004737028
-0.0040410077
-0.0026395447
-0.0016119424
-1.5139532E-6
-7.6336386E-5
-0.0012052341
-7.0885035E-5
-3.3365702E-4
-0.001458968
3.1458377E-4
4.1393348E-4
-0.0013803513