0.037123818
0.03148358
0.02137289
0.015425111
0.00477275
-0.00648441
-0.010279588
-0.011815678
-0.009091083
-0.0045132083
-0.0013124145
0.0037114124
0.0067912955
0.009141744
0.010961798
0.010712237
0.01374804
0.015019493
0.014537788
0.016134787
0.010748224
0.0039319354
0.0020609042
-0.0031219183
-0.008868572
-0.012752373
-0.016148116
-0.014914033
-0.013192263
-0.013605421
-0.011982841
-0.010208028
-0.008996979
-0.007412958
-0.006146149
-0.0030311942
-6.5131777E-4
-5.0612784E-4
0.0027250834
0.005827506
0.0054159537
0.0051691695
0.0024166948
-0.002491047
-0.004485505
-0.005082663
-0.0035824473
0.0010090932
0.0048961295
0.0075818263
0.009244349
0.008084026
0.0044318577
0.0015174355
4.7241105E-4
-0.0016640763
-0.0025635213
-1.0440685E-4
-9.1402566E-5
-0.0013348283
1.8075621E-6
5.6652067E-4
4.429983E-4
-7.932905E-4
-0.0037865678
-0.0036871112
-0.0012169163
3.2982836E-4
4.4171055E-4
-9.933417E-6
0.0027191367
0.0047649704
0.0019555732
7.5268466E-4
3.1583695E-4
-0.0035791583
-0.005580064
-0.0034391077
9.984928E-4
0.004788097
0.0041910307
0.0043538287
0.0066319923
0.003116122
-0.0016866616
-0.0027767061
-0.0045675244
-0.002715923
0.002086523
0.001929909
0.0012807244
0.002122184
0.0012697349
4.6860994E-4
-0.0017955692
-0.00537116
-0.0060365545
-0.0033463414
-4.1601938E-4
2.1575882E-4
4.3427086E-4
6.969994E-4
2.4917407E-4
1.5608296E-4
-0.0026498686
-0.006554479
-0.0056816647
-0.0022793328
5.1139377E-4
0.0024514466
0.0030358175
0.0034589763
0.004058201
0.0026927388
1.1020684E-4
-7.536665E-4
-0.0010393824
-1.1984754E-4
0.0025215729
0.0031104689
0.004576732
0.0063307364
0.0031055543
1.5031305E-4
-0.001730256
-0.0045981775
-0.003650975
-5.734448E-4
0.0013227738
0.0022158173
0.0013152097
-2.1536453E-4
-2.456847E-4
2.8437225E-4
-0.0021318074
-0.0048680287
-0.0037769189
-0.0013735392
0.0016453529
0.0029544935
0.0014642985
0.0018670874
0.0019471563
-1.0764906E-4
-0.0025694533
-0.0052023497
-0.004475352
-0.0018761628
3.2516127E-4
0.0034379482
0.0037380012
0.0020341151
0.0019424469
0.0010094572
-0.001173136
-0.0019607248
-7.054911E-4
7.0701644E-4
0.001820489
0.0036813028
0.004130884
0.0035549058
0.004688466
0.002955307
-0.0034741552
-0.0064289737
-0.004476954
-0.0028513796
-0.0011805218
7.5842376E-4
0.0018889016
0.0017858719
5.333614E-4
0.0010022521
1.975427E-4
-0.0033181985
-0.0027759632
-5.511148E-4
-8.476512E-4
-3.8730945E-5
0.0020976053
0.003089171
0.0020470582
3.4343648E-5
-0.0020114002
-0.0031949554
-0.0020966071
-9.800695E-4
5.479644E-4
0.0034507632
0.003632598
0.0022266
0.001834162
0.0013043553
2.3594896E-4
-0.0017165501
-0.0024913107
-8.5803313E-4
8.5881795E-4
0.0015786993
0.0017150936
0.00203425
0.0021282712
0.0012847264
-5.3500745E-4
-0.0025636915
-0.0030006797
-0.0028311554
-0.0017687378
6.781161E-4
5.8742665E-4
2.1637509E-4
0.0012979566
-9.011725E-4
-0.0027765098
-0.002103592
-0.0026908752
-0.0012129102
0.0012875516
7.7492435E-4
0.0016409685
0.0028527374
0.001614765
0.0013469814
5.8813754E-4
-0.0011290036
-0.0013824325
-0.0012758865
-1.3946966E-4
0.0010126742
6.861704E-4
7.860381E-4
5.4203416E-4
1.0177014E-4
1.9310486E-4
5.6887227E-5
9.4046566E-4
0.0014431612
5.979915E-4
8.045121E-4
0.0015215639
0.0015235898
7.32207E-4
-7.1373786E-4
-0.0013633266
-0.0011264825
-0.001927834
-0.0032064072
-0.0021854779
-3.8184927E-4
-5.3245753E-6
7.415214E-4
0.0011382299
3.5775543E-4
9.973128E-4
0.0019680487
9.71971E-4
9.469918E-5
-1.5302739E-4
-0.0012455154
-9.4408984E-4
7.564672E-4
0.0012237099
0.0016899192
0.0015220921
-1.21184385E-4
-7.3805556E-4
-0.0012170073
-0.0023336925
-0.0022850342
-0.0012917648
-9.2724006E-4
-0.0013181866
-8.9504523E-4
-1.633642E-5
7.212682E-4
0.0011487021
-2.3820806E-4
-9.6954603E-4
4.0747123E-4
6.2425964E-4
-5.588213E-4
-8.0003805E-4
0.0021195607
0.0055417656
0.004646391
0.0024619433
9.7067613E-4
-0.0010272677
-0.0010002338
-2.9934043E-4
-1.3414783E-4
0.0011733228
-2.3804289E-4
-0.0028860755
-9.854132E-4
-2.2150738E-4
-0.0030353665
-0.0026821694
-7.925979E-4
-6.9933385E-4
-7.326524E-4
-9.3611144E-4
2.4189238E-4
0.0031423809
0.0043218886
0.0021715465
-0.0018267755
-0.003281114
-0.0016284003
-9.093708E-4
-4.955941E-4
0.001162662
0.0023881379
0.0034327419
0.0042265765
0.0021358198
-0.0014096987
-0.003294529
-0.004465205
-0.0045763077
-0.00381912
-0.003656394
-0.0014748443
0.0027435287
0.005676092
0.005500671
0.0025933415
-4.1259216E-5
-0.002004981
-0.0026126276
-7.450402E-5
0.0020646339
0.00249815
0.0034343782
0.0041818786
0.0023153203
-0.0025566837
-0.0055348454
-0.005174718
-0.005075472
-0.0047706133
-0.0033144658
-1.5720908E-4
0.0038799467
0.0058117895
0.005718063
0.0030210079
-0.0012415932
-0.0031942932
-0.003157954
-0.0016519618
0.0012974369
0.0039008642
0.00523467
0.0060152174
0.0059382813
6.296154E-4
-0.0062574837
-0.0060622934
-0.0043345597
-0.0052888216
-0.00396221
-7.9719076E-4
0.0034572321
0.007352754
0.006594298
0.0021298167
-0.003078796
-0.0062894714
-0.005565088
-0.003069146
-6.2784046E-4
0.001931561
0.0036997772
0.0039253673
0.0027255348
-2.811194E-4
-0.003026469
-0.002553574
-0.0010278728
-8.4871874E-4
-0.002571608
-0.0040359087
8.743077E-4
0.008364405
0.008772176
0.0033939783
-0.001057148
-0.0020627512
-0.0033812264
-0.006064963
-0.0055539585
-0.0022977798
0.001862203
0.0053479346
0.0051561063
0.002407094
-0.0011950568
-0.003302962
-0.001912022
-9.6643594E-4
-0.0025891573
-0.0017335995
0.003308342
0.0061553894
0.004459389
9.2709914E-4
-0.0026046813
-0.0029221068
-0.001594505
-0.0014897549
-0.0014446127
-9.431508E-4
0.0020485818
0.0050613666
0.0046717916
0.001873626
-0.0025101788
-0.003596514
-0.0039400994
-0.0062353243
-0.0037383304
-2.2160348E-4
0.002666418
0.005910115
0.005306592
0.0033748753
-3.334948E-4
-0.0014560854
-8.5493404E-4
-0.004108028
-0.0010659521
-0.0041800966
-0.012595022
-5.2718005E-5
0.008857756
0.0026771827
0.0030153221
0.0010167827
-0.0013998258
-9.3007875E-5
-0.0027056334
-7.5511244E-4
0.0027980532
0.004143491
0.0060575907
0.002963201
-0.001015672
-0.0029685402
-0.003821732
-0.0015019969
-5.517747E-5
0.0011663024
0.0037585432
0.00441285
0.0027281535
-2.7765337E-4
-0.0023428255
-0.004034157
-0.0059073614
-0.0055748355
-0.0053256107
-0.004969371
-8.101401E-4
0.0037004745
0.0032674754
-6.1591755E-4
-0.003835737
-0.0047606435
-0.00332786
-8.021303E-4
0.0024359466
0.005143333
0.0058915005
0.008157736
0.009100899
0.004241456
-0.0010586851
-0.0045119985
-0.0037943064
0.0011428716
0.002893986
0.0027020036
0.0022304216
0.0022521124
0.0050121946
0.0027975254
-0.00215187
-0.0024589382
-0.00270995
-0.0023441892
-0.0017493686
-0.0032832231
-0.0023301959
6.7322007E-6
-1.5414563E-4
-0.0033433156
-0.0064541637
-0.0058994247
-0.004918878
-0.0039512753
-0.00133387
8.1946666E-4
0.0024734763
0.003904565
0.004978338
0.003465345
3.8633627E-4
3.3316723E-4
-0.0013619442
-0.0040316894
-0.0014879787
9.706049E-4
0.0022929306
0.0048155705
0.005701562
0.005257225
0.0024423203
-3.5512383E-4
8.1896526E-4
7.235614E-4
-0.0012975784
-0.00193666
-0.0018794477
6.5154186E-4
0.002254023
-0.0011300705
-0.0039958763
-0.004956493
-0.0049685594
-0.0019344866
-1.9994518E-4
-9.311691E-4
6.754838E-4
0.0035293677
0.00570229
0.0054753697
0.0024376474
0.0017196882
0.0014880978
-0.0024015878
-0.004875355
-0.0036782706
-0.0012167688
4.5577678E-4
2.1484864E-4
-8.1864746E-5
-0.0022135554
-0.0056819962
-0.0036988957
6.8962044E-4
0.0013820368
0.0016578378
0.0034545916
0.0040270854
0.0024447795
6.8095885E-4
-9.528396E-4
-0.0028313438
-0.0022083786
-4.9506425E-4
-0.001006801
-0.0011116368
6.5060746E-4
0.00315589
0.004645928
0.0028609019
6.950902E-4
5.959202E-4
7.306627E-4
0.001577612
0.0016150023
-0.0016683107
-0.0038063496
-0.0028170764
-0.0022986375
-0.0018938114
-0.0018087676
-0.0027748703
-0.0020602478
-0.0016539358
-0.0026229073
-8.638743E-4
0.0019797496
0.002877045
0.001531358
-0.0025469542
-0.004980839
-0.0020989971
0.0019469812
0.0023184784
-2.3357566E-4
-8.255135E-4
0.0013748505
0.002108424
0.001460003
0.0015339266
0.001112673
7.060903E-4
9.494448E-4
1.7901855E-4
8.806651E-5
0.0024896252
0.0043811765
0.004553907
0.004552749
0.0028804557
-8.465355E-4
-0.0025196967
-8.070837E-4
8.5637113E-4
9.417901E-4
8.97492E-4
-2.9893158E-4
-0.0029505764
-0.0032038852
-0.002566726
-0.003627682
-0.002943543
-0.0027508088
-0.004407034
-0.0036288311
-0.0032542385
-0.0027475283
9.261289E-4
0.0018160632
-3.6509332E-4
-9.2360337E-4
8.013464E-5
0.0013629573
0.0015940657
0.0021197642
0.0028502592
0.0023610971
0.0028851638
0.0026706508
8.208728E-5
-0.0012534088
-7.958991E-4
-6.939832E-5
3.5145364E-4
6.478205E-4
4.8253528E-4
-0.001431545
-0.0019192013
8.9246425E-4
0.0016940767
1.369916E-5
6.823961E-4
0.0025810755
0.0033213818
0.0035441383
0.002892329
0.0018990728
0.0017587276
0.0018163373
-7.9995116E-5
-0.003154206
-0.0027215474
-2.2768021E-4
9.45056E-4
0.0011760753
-5.9164723E-4
-9.735912E-4
-2.594793E-4
-0.0038097359
-0.006741046
-0.005760496
-0.0031710966
-5.7909987E-4
-1.5401624E-6
1.6797804E-4
-0.0012484068
-0.0024948246
-4.7067465E-4
-0.0016459606
-0.0043010823
-0.0048061726
-0.004824867
2.469251E-4
0.005907193
0.005996682
0.0054789907
0.005254948
0.003977624
0.0025638905
0.0015634142
8.6082757E-4
3.9408903E-4
5.1691174E-4
-2.6432995E-4
0.0010952377
0.0055266293
0.006209232
0.005166818
0.0059660547
0.004963109
0.0041551148
0.004959956
0.0026362124
-8.50589E-4
-6.694043E-4
-0.0010783209
-0.0045069815
-0.00776935
-0.011471596
-0.0122230835
-0.006960896
-0.002535187
-0.0023434712
-0.004416778
-0.0060796444
-0.0051263715
-0.0066555906
-0.011529252
-0.012745697
-0.012504598
-0.012474198
-0.008934888
-0.0061216867
-0.0026649435
0.0074399654
0.01936089
0.027124977
0.027406005
0.02309128
0.019683735
0.015742943
0.013417062
0.010170009
0.003064407
-3.1265288E-4
-0.0033750476
-0.0050366684
0.0018118559
0.008293908
0.011996449
0.012055549
0.0070727523
0.004714033
-0.0015916227
-0.013741928
-0.021897126
-0.029250562
-0.035933774
-0.03608158
-0.029918706
-0.023319962
-0.02259449
-0.024028905
-0.022544108
-0.017621784
-0.0103981
-0.003877141
0.004560148
0.015287202
0.023868565
0.033239827
0.04319972
0.046587773
0.043497227
0.035446793
0.019445652
9.883265E-4
-0.0125101665
-0.020294748
-0.016733946
-0.003850046
0.006311538
0.011954983
0.013086084
0.011309306
0.009844347
0.005037898
-3.9116443E-5
-0.006729421
-0.020233948
-0.027896283
-0.02558054
-0.021637177
-0.015788898
-0.01137414
-0.010943605
-0.010148955
-0.0075306725
-0.0020636152
0.0039423127
0.008056293
0.013940219
0.02235135
0.03064829
0.03223992
0.023065493
0.015153595
0.011556105
-0.0029885143
-0.022787875
-0.029567538
-0.025363779
-0.017230498
-0.011683086
-0.013508623
-0.0149146635
-0.015343688
-0.015290487
-0.0072228564
8.1119005E-4
0.0048184386
0.010974416
0.013823067
0.013364726
0.01138732
9.612426E-4
-0.011058504
-0.008806354
2.1487732E-4
4.4492297E-4
0.0077272383
0.027122186
0.031051993
0.020280171
0.008384863
-0.008394581
-0.019207802
-0.009148603
0.010848731
0.019636996
0.02116726
0.016374905
-0.0103473915
-0.033025306
-0.03036542
-0.02110123
-0.011689926
-0.0051577273
0.01122502
0.038333707
0.04125973
0.024737947
0.0032582686
-0.013853082
-0.009931712
-0.0053914376
0.0015655239
0.013380752
0.0043437444
-0.003935476
-0.0076127606
-0.021653049
-0.03319415
-0.05181164
-0.06828528
-0.06746315
-0.061656613
-0.052368008
-0.04679111
-0.029247358
0.008463944
0.029738586
0.038857143
0.05058432
0.065471314
0.093923114
0.11382743
0.11374154
0.09657175
0.06705018
0.050665244
0.023808556
-0.015713092
-0.018700635
-0.00893764
-0.0117543265
-0.017714897
-0.0329301
-0.036304247
-0.030089183
-0.04665029
-0.079516
-0.105550155
-0.1096729
-0.10809632
-0.11879241
-0.117187135
-0.0907153
-0.04758617
0.012514859
0.07492745
0.10492975
0.08507135
0.048198946
0.042327862
0.06797895
0.08704196
0.09028304
0.11024679
0.14531213
0.14536592
0.08697625
0.002002961
-0.06655269
-0.0983531
-0.0865025
-0.05959276
-0.062670596
-0.07220005
-0.05534213
-0.05366826
-0.07905843
-0.07290289
-0.04235387
-0.035989992
-0.015813613
0.038381156
0.07732163
0.092368424
0.10543066
0.12407374
0.0970633
-0.0038715578
-0.07174273
-0.08153266
-0.10995331
-0.11077991
-0.05211397
0.0026421596
0.030444948
0.027412789
-0.0048489836
-0.039138258
-0.07385849
-0.117230505
-0.14175761
-0.11980868
-0.06272154
-0.021821467
-0.02959386
-0.04267918
-0.04487024
-0.051352285
-0.0011017525
0.10833514
0.18946171
0.2286487
0.25823933
0.28083447
0.256267
0.16419218
0.06952857
-4.6460438E-4
-0.07801323
-0.14768027
-0.20437561
-0.24776846
-0.21573582
-0.113668166
-0.036371008
-0.015791347
-0.011280969
0.022649758
0.04632896
-0.007411728
-0.029649276
0.053337917
0.07995859
-0.00917386
-0.07794786
-0.076594755
-0.042839415
0.055373155
0.19794425
0.24010137
0.1801099
0.11988219
0.05286361
0.008069116
0.005629872
-0.042065132
-0.14464086
-0.23673531
-0.28534532
-0.28445083
-0.23251481
-0.13396244
-0.035950303
0.0068122447
-0.0041172677
-0.014736107
-0.005336492
-0.0076021263
-0.0033733444
0.00469129
-0.012035306
0.0039875363
0.07027375
0.14799893
0.23098172
0.29843494
0.31908977
0.2554041
0.123330295
-0.008867199
-0.1278335
-0.1875849
-0.13250762
-0.024079377
0.058891032
0.09214061
0.091507606
0.066677175
-0.011006731
-0.12382678
-0.19709717
-0.18886633
-0.12234418
-0.03717905
0.04002469
0.094742335
0.12661538
0.09466198
0.021533936
0.0064506284
-0.025437465
-0.119682446
-0.13840388
-0.09303491
-0.06848559
-0.07051442
-0.10324074
-0.10496941
-0.05696951
-0.02325458
-0.00855222
-0.004515316
-0.0066911695
-0.006530399
-0.0077428413
2.866996E-4
0.014923066
0.03241629
0.056781676
0.08033572
0.09593673
0.100387566
0.11373092
0.13727574
0.13597259
0.110694215
0.08583966
0.07134468
0.056846965
0.028836695
-2.592625E-4
-0.023651347
-0.042005293
-0.045629635
-0.039487015
-0.03495081
-0.03257771
-0.033250082
-0.03861243
-0.040401157
-0.04806397
-0.076180585
-0.081380375
-0.042442407
-0.03211164
-0.08064129
-0.111596555
-0.0936186
-0.085505456
-0.08676556
-0.061590824
-0.035387572
-0.014088045
0.002952138
7.4224797E-4
0.00428143
0.014113182
0.020769935
0.041710407
0.062589556
0.07268805
0.08434734
0.10117273
0.11747373
0.120649345
0.11577722
0.108345486
0.09348201
0.081295565
0.07075835
0.05961193
0.054212682
0.047997918
0.053074393
0.05167279
-0.030956483
-0.17488411
-0.25788453
-0.23532178
-0.16733283
-0.114399545
-0.08640153
-0.0682765
-0.059833817
-0.061532207
-0.066195555
-0.072527684
-0.06540428
-0.035153188
0.0015306768
0.036004603
0.06468055
0.086014055
0.106557705
0.118054375
0.1221353
0.13122928
0.13309878
0.12900619
0.13412705
0.13408354
0.12087528
0.1076347
0.093757465
0.07517637
0.054720372
0.031864446
0.008889488
-0.011520715
-0.02926441
-0.041679602
-0.050109204
-0.057748932
-0.06236734
-0.06309934
-0.06448977
-0.06903284
-0.07322322
-0.07554286
-0.07821628
-0.08291394
-0.09180566
-0.10221075
-0.110469885
-0.11821904
-0.123993054
-0.12657203
-0.12540518
-0.11617822
-0.09703196
-0.067825474
-0.032481313
0.0062099695
0.04867083
0.088083595
0.121276766
0.1383805
0.12803534
0.1138508
0.11515767
0.12575537
0.14178495
0.15179366
0.15716942
0.17070572
0.18580543
0.20304245
0.21820083
0.21122764
0.17927644
0.119227335
0.042160306
-0.012833409
-0.051133446
-0.108677335
-0.17525028
-0.22331664
-0.24747951
-0.24887444
-0.23108628
-0.20437928
-0.18098286
-0.16123462
-0.13762987
-0.11936689
-0.11524746
-0.11361598
-0.10521921
-0.0901988
-0.06968044
-0.04479716
-0.016951984
0.010990246
0.039483316
0.066752136
0.08828556
0.10712281
0.12307746
0.13453016
0.14564167
0.14940815
0.13824545
0.12076885
0.10257981
0.08380716
0.06772139
0.050313
0.031441078
0.020656308
0.015902495
0.012089862
0.011036927
0.013012566
0.01681004
0.012156057
-0.0037859664
-0.015589686
-0.02221209
-0.030107183
-0.035265375
-0.038571063
-0.04264878
-0.046401747
-0.04898635
-0.050609525
-0.05236906
-0.053419497
-0.05460811
-0.05458025
-0.04884973
-0.039669096
-0.030583395
-0.022342337
-0.015015789
-0.008621431
-0.004513612
-0.0010421444
0.0032253368
0.007794988
0.011625065
0.01303376
0.01578453
0.019138603
0.018990483
0.020053878
0.021053746
0.018495629
0.016804619
0.015710609
0.013653811
0.012354149
0.012775538
0.014656013
0.015701821
0.01574646
0.015607043
0.014589605
0.0124408435
0.010171537
0.011588696
0.014014889
0.010749029
0.0082192235
0.01174953
0.013309643
0.010669987
0.008830949
0.008008119
0.007907984
0.009051967
0.010574366
0.01238922
0.012389242
0.010582438
0.010130098
0.0085943425
0.0063621104
0.0064734784
0.005632769
0.005895919
0.00853007
0.007668183
0.0066433693
0.008216394
0.007852324
0.007274697
0.007334102
0.0054376437
0.004003133
0.005090235
0.0065757264
0.0055735004
0.0039189146
0.0055333995
0.0069676465
0.006009795
0.00506947
0.0024701152
0.0014033064
0.0044021783
0.004499436
0.0028449637
0.0024917999
-4.2276565E-4
-0.002203454
-3.3789952E-4
7.306655E-4
9.65366E-4
7.8368234E-4
-1.8501862E-4
-6.195272E-5
9.50322E-4
0.0014371112
0.0015055701
0.0013648673
9.5434434E-4
8.4180775E-4
0.0011631157
0.0010232365
4.2534465E-4
6.3525455E-4
0.0014240798
0.001694147
0.002449395
0.0032167055
0.002061502
-2.0863922E-4
-0.0027013686
-0.0038528496
-0.0031922671
-0.0028426603
-0.0013123273
9.41929E-4
0.0010154836
0.0011237606
0.0021998386
0.0022741032
3.2731713E-4
-0.0019049234
-0.0015958629
-0.0012662045
-0.0024096097
-0.002670484
-0.0019590803
-2.8286994E-4
0.0013199629
7.1063405E-4
-0.0023263646
-0.0050496035
-0.003793414
-0.0010847826
-7.672325E-4
-0.0018299641
-0.0020760598
-5.2559533E-4
-7.1422703E-4
-0.0028085173
-0.001694932
-7.9000124E-4
-0.002644818
-0.0025062775
-0.0016111395
-0.0021228374
-0.0016907234
-6.887837E-4
-1.497522E-4
5.3214224E-4
-1.581421E-4
-0.0019805464
-0.0013673046
-2.844358E-4
-0.0018778436
-0.0025218213
-0.001341436
-0.0010638704
-0.00128171
-0.0023438323
-0.004246528
-0.0042083706
-0.0021485777
-0.0019251124
-0.0039739246
-0.00363563
-0.0013604108
-3.5815293E-4
6.891891E-4
-1.9275719E-4
-0.0030443608
-0.0019703154
6.931625E-4
0.0013871815
0.0024915717
0.0018603251
-1.2271185E-4
3.468921E-4
-2.3538557E-4
-0.0023775739
-0.002152439
-0.0016707767
-0.0027509793
-0.0036341473
-0.0021884919
8.3119684E-4
0.0012365903
0.0014204257
0.0024269884
-0.0018895873
-0.0051703393
-0.0019686527
-0.0030836395
-0.009639853
-0.012564377
-0.00853102
7.8760735E-5
0.004017016
0.0010011425
-4.6635992E-4
4.93221E-4
9.858884E-5
-8.205233E-4
-3.1142143E-4
8.125921E-4
-5.983578E-5
-0.0014331234
-7.2562817E-4
2.2180527E-4
-4.6527598E-4
-9.674292E-4
-3.1701388E-4
-9.6828054E-4
-0.0011608134
0.0010372368
0.0015431786
3.4502058E-4
1.8716422E-4
0.0010069745
5.9039565E-4
-0.0020914443
-0.0021508762
-3.428767E-4
-3.8377513E-4
-0.0011902843
-0.0048597166
-0.006136373
-0.0017892199
-7.208209E-4
-0.0012456758
-4.2269216E-4
-0.0014811688
-0.0024676637
-0.0020745648
4.9412466E-4
0.0016719705
-8.8192994E-4
-0.0011984521
-5.672681E-4
-0.0016626366
-0.0025848344
-0.0029121651
-0.0012667655
-5.3559797E-4
-5.289813E-4
0.0012440565
-4.5080905E-4
-0.0025062158
1.5138615E-4
0.001025483
-0.0012122932
-0.002514847
-0.0017141767
7.2017364E-4
0.0011781283
4.2191637E-5
9.753315E-4
0.001118074
-9.596878E-4
-0.0019229429
-0.0020483183
-0.0026063477
-0.0026837036
-0.002053883
-0.0019287068
-0.0023551872
-0.001321043
-1.8051849E-4
-2.50051E-4
6.220381E-4
8.890758E-4
3.5680662E-4
9.802749E-4
0.0010769903
9.4376964E-4
2.7047386E-4
-7.159015E-4
2.3550492E-4
3.5566915E-4
2.6365537E-5
7.157169E-4
-5.3664495E-4
-0.0012413482
-3.447926E-4
-3.8132165E-4
-5.428614E-5
-3.1533488E-4
-0.0016856923
-0.0011640696
1.894457E-4
-0.0010369293
-0.003593984
-0.004727243
-0.0045416765
-0.002009895
8.0322684E-4
-7.483801E-4
-0.0024284162
-0.0012910403
-0.0013467501
-0.0015805784
-6.578401E-4
-1.9269873E-4
-1.7643701E-4
-3.94159E-4
4.5990324E-4
0.0018731673
0.001683202
9.348024E-4
9.832085E-5
-7.9628394E-4
-6.224643E-4
-2.3115469E-4
4.735596E-4
0.0017060196
0.001056099
-6.932059E-4
-7.617261E-4
-3.545995E-4
-4.7234667E-4
-6.2751543E-4
-0.0019625747
-0.0027125445
-0.0011090699
-5.6310184E-4
-9.0738095E-4
-2.0262343E-5
2.4941206E-4
2.623347E-4
-3.2867637E-4
-0.002387717
-0.0025336912
-8.078248E-4
4.3898702E-4
0.0010262873
6.2775856E-4
5.6318013E-4
8.171127E-4
-1.0663172E-4
-2.4671448E-4
0.0012493107
0.0020902937
9.250193E-4
-0.001376092
-0.0020699056
1.703848E-4
0.0021000337
0.0011585939
-0.0014836087
-0.0039349995
-0.0031079042
-3.7659344E-4
-0.0011614198
-0.003469657
-0.0035380982
-0.0023562834
-0.0012941451
-5.5555155E-4
7.3200493E-4
0.0010965661
-1.1649869E-4
-7.276874E-4
-7.5115345E-4
-5.8364315E-4
-0.0010209846
-0.0016964121
-0.0014340297
-0.0015896563
-0.0015680713
-0.001692186
-0.0025427986
-0.0017858443
3.3985652E-5
0.0014792512
0.0018375553
0.001835984
0.0025872472
0.0028726025
0.0033466485
0.0034673216
0.0029208125
0.0035163087
0.0041919067
0.003634327
0.0010439582
-4.2625386E-4
2.8814448E-4
-0.001198751
-0.0025886775
-0.0023523844
-6.247679E-4
0.00114333
4.9408886E-4
0.0022081074
2.3512791E-4
-0.00329644
3.6450967E-4
-0.003922847
-0.007622858
-0.003777441
-0.010999782
-0.012477668
-0.0063574784
-0.008502216
-0.0030215133
0.0045673056
0.004786346
0.0052313744
0.002118067
-1.2490024E-4
-5.416578E-4
-0.0016629061
0.001318588
0.0027008986
0.0021321843
0.0027222254
0.0018977871
8.5013825E-4
2.8959048E-4
0.0018493969
0.0035089147
0.004029841
0.005326512
0.0039993958
0.003060912
0.002279136
-0.0017640237
-0.0025856332
-0.0024703222
-0.0034796693
-0.0020881447
-0.0011304038
0.0011160069
0.0025327299
-9.509302E-5
-0.0019019936
-0.0033902205
-0.0033129228
-0.0011083856
-0.001801847
-0.0032454247
-0.003195964
-0.0017649002
6.2723947E-4
9.409905E-4
5.3434167E-4
9.859876E-4
0.0013533806
4.0016632E-4
-0.0018458283
-0.0012678417
-1.245846E-4
-0.001322196
-0.001044347
-0.0016967081
-0.0025683944
6.5443624E-4
0.0019111409
-4.9687693E-5
2.542704E-4
0.0010790661
6.0428283E-4
4.8629218E-4
1.0773678E-4
-4.978456E-4
4.2003852E-5
-9.292074E-5
-9.4627036E-4
-6.650028E-4
-9.2422386E-4
-8.121313E-4
5.6314445E-4
9.73519E-4
0.0012706232
0.0017282678
0.0021305326
0.002206561
9.975849E-4
5.672808E-4
-1.441308E-4
-0.0020613056
-0.00213047
-0.0013132064
-7.0965063E-4
1.5478476E-4
0.0010156725
0.0017411181
6.968017E-4
-9.370322E-4
-0.0013460995
-0.0018152228
-0.0011673735
0.0012484452
0.0014566281
-7.479306E-4
-1.4140004E-4
5.261957E-4
-0.0025766168
-0.0020085878
6.685517E-4
-0.001106971
-8.591133E-4
0.0012436955
9.104071E-5
-7.083967E-4
-3.4938147E-4
-5.579804E-4
-6.4843684E-4
1.277717E-4
3.593569E-5
-0.0014917213
-9.273211E-4
-4.8119278E-4
-9.738193E-4
0.0011083127
0.0019705396
0.0011047113
1.0593046E-4
-0.0014035143
-3.7628537E-4
1.16233576E-4
-9.116408E-4
-8.3156265E-5
2.3354415E-4
8.5591484E-4
0.0018212269
0.0012930352
9.206807E-4
3.0476277E-4
-6.19874E-5
-4.1578463E-4
-7.616091E-5
0.0013570155
-3.4498514E-4
-9.718822E-4
0.0012742521
-4.579737E-6
-0.0014048629
-6.095071E-4
-7.9992675E-4
-0.0013149946
-0.0010527552
-7.4951735E-4
-0.002028859
-0.0019634552
4.9025565E-4
0.0018353683
0.0014304499
-0.002569954
-0.0051941224
-0.001891943
2.3052249E-7
5.031904E-4
0.0015163955
8.062675E-4
7.3405454E-4
0.001284196
0.002603776
0.0032946402
0.0019819045
0.0016024223
9.926048E-4
0.0010111938
0.0015782928
5.1385316E-4
2.0299213E-4
-0.0011240266
-0.0022262558
-0.002022269
-0.0031413261
-0.0020691846
-0.001821322
-0.0020190086
0.0015560363
0.0013065981
-3.3175558E-4
9.38556E-4
5.310587E-5
-9.939683E-4
-0.0016542132
-0.0024379042
-0.002308236
-0.0021178345
-5.8387934E-5
0.0014490427
0.0010826817
9.2356914E-4
1.6308857E-4
6.9230795E-4
0.0013080869
3.4047995E-4
0.0013563402
0.002415836
1.14720606E-4
-0.0017739551
1.1168057E-4
0.0012067545
3.1418753E-5
8.4602856E-4
-4.8631756E-4
-0.0044992254
-0.0034464102
-2.3461241E-4
-2.8124105E-4
-6.008196E-4
0.0011695543
0.00202168
4.6147112E-4
3.1393272E-4
0.0010263115
-4.2383096E-4
-0.0013704906
-2.9572868E-4
9.116725E-4
0.001325811
0.001437475
0.0011978744
7.438638E-4
8.9211494E-4
-1.2191919E-4
-0.001398637
-6.366388E-4
-6.213433E-4
-9.832118E-4
-3.310423E-4
-4.582868E-4
-1.459286E-4
6.227376E-4
1.3440778E-4
-0.0010310982
-0.001481171
-0.0013969417
-0.0023226372
-0.001790463
1.0372066E-4
-4.421508E-4
-1.1764597E-4
0.0013278228
0.0011152332
0.0014648543
-8.386932E-5
-0.0020593363
1.864724E-4
0.0011152728
3.3498232E-4
0.0012784569
0.0013455775
0.0018675877
0.0021496345
2.45868E-4
-5.377615E-4
-0.0014955022
-0.002715586
-0.0011233948
2.3234214E-4
4.5748556E-4
0.0014894329
6.1099237E-4
-0.002080245
-0.0014893406
0.0011461512
3.7835163E-4
-0.0013415333
-8.7851146E-4
-2.9248136E-4
0.0013749918
0.0026359982
-8.411183E-5
-0.0018040724
-2.7169407E-4
-4.94108E-4
-0.0015379883
-8.27649E-4
-4.1676292E-4
-7.748664E-4
-0.0013330971
-0.0012171804
8.281632E-4
0.0019175181
8.9667644E-4
8.8927546E-4
0.001052288
-5.80676E-5
-2.511069E-4
5.6863506E-4
6.73501E-4
6.1700324E-4
2.7356966E-4
-5.111621E-4
4.1538905E-4
6.4688025E-4
-8.1752613E-4
5.8067124E-4
0.0018846245
8.9296984E-4
4.3946836E-4
-0.001229906
-0.0020856932
-7.0172246E-5
0.0018795853
0.0019105125
-1.6136696E-4
-7.1636506E-4
-0.00401667
-0.011053093
-0.007413887
6.525586E-4
0.0010486647
0.0019947067
0.002633472
0.0016356271
0.0026746755
0.0011721725
5.0653575E-4
0.0019208089
0.0013931178
0.00277728
0.0030833052
-2.2820052E-4
-5.6521763E-4
8.3715265E-4
2.3206674E-4
2.2697002E-4
7.4955495E-4
-3.555242E-4
-0.0013122538
-6.7708816E-4
4.2438548E-4
3.8982215E-4
-0.0010232646
-0.0012201112
-8.398162E-4
-0.0012018041
-2.2460434E-4
5.3823394E-5
-3.257221E-4
-5.474639E-4
-0.0028923468
-0.002376952
2.8602316E-4
-4.6800834E-4
-3.0788206E-4
0.0013165334
0.0018840337
0.0010984973
-9.457671E-4
-1.1367656E-4
0.0014768852
8.308688E-4
2.9643113E-4
-0.0010798861
-0.001292485
-1.7106034E-4
-7.648552E-4
-5.133052E-4
7.0477824E-4
5.658369E-4
-0.0012681469
-0.0016238452
0.0013247164
0.0012540712
-7.0504064E-4
0.0010198783
0.0025721125
0.001906808
5.2542606E-4
6.376667E-4
0.0019913937
4.9428054E-4
-0.0013285996
-0.0012216206
-0.0017640184
-0.002812521
-0.0026981423
-3.2482532E-4
0.0013274997
5.270985E-4
-6.3234725E-4
-0.0014697771
-3.1860394E-4