-0.007419105
-0.0045880624
-0.0033485235
-0.0020069105
9.224053E-5
8.4143924E-4
0.0020658767
0.0017811934
7.0093735E-4
0.0021371278
0.0019936622
0.001595746
0.0019949125
-5.003571E-4
3.0585195E-4
0.0013757603
-0.0039685336
-0.0033929935
0.002595035
0.0028246406
0.0021400678
0.0019231137
9.860301E-4
0.0020709012
0.0017979295
0.0011979742
0.0034734984
0.007843936
0.010993136
0.0062476667
-0.0010186615
-0.0039484086
-0.0070097125
-0.006889918
-0.004705542
-0.0072294613
-0.00645877
-0.0020801479
-0.0023944497
-0.0036648172
-0.0034293162
-0.0031005281
-0.0014092847
4.0954727E-4
3.3191667E-4
-8.12451E-4
-2.7261724E-4
0.0019050817
0.0019864792
-8.244589E-4
-0.0022501429
-5.4381834E-4
5.772447E-4
0.0012890435
0.004427422
0.0071909926
0.007505889
0.008229561
0.009186502
0.0046777525
-0.0034929002
-0.005976939
-0.003665329
-7.3058775E-4
0.0027731862
0.002949636
3.9484573E-4
-0.0022326624
-0.0048560603
-0.002103583
0.0019761787
-0.0015331691
-0.0038588948
-0.0010556723
-0.0027188757
-0.0043318295
-3.4768722E-4
5.8412395E-4
-0.0020928532
-0.003266405
-0.0030897264
-0.0015419145
-0.001044845
-8.321477E-4
0.0020366528
0.004491615
0.004470159
0.002475508
0.0021021047
0.0032652344
8.3256833E-4
-4.074942E-4
6.212348E-4
-8.181101E-4
-1.8235287E-4
0.001511541
0.001046714
0.0014452405
0.0017333566
6.9061253E-4
-0.0013216964
-0.0029398839
-0.0032003643
-0.0026101894
8.8352426E-5
0.002297372
0.0020501993
5.7270454E-4
-0.0018400978
-0.0025749472
-0.003271964
-0.004640137
-0.003512608
-0.0022393335
-1.5094438E-4
0.0027881945
0.0037293588
0.0038928315
0.002248715
0.0015208952
0.0033832206
0.0035502722
0.002797298
-1.707793E-4
-0.0034005223
-0.0019207558
-0.0013248122
-0.002480614
-0.0016978031
-2.9218802E-4
7.7109213E-4
-8.254063E-5
1.9534647E-5
0.0025418024
0.0031338595
0.0025853969
0.0018917654
4.583443E-4
-0.0016567386
-0.0045447666
-0.0052631884
-0.0039926046
-0.0020912304
1.2852317E-4
4.4967252E-4
7.198293E-4
0.0018701605
0.0026738774
0.003005782
3.0072455E-4
-0.0032448869
-0.003442821
-0.0010587291
0.0020832953
0.0026447847
0.0011485224
0.0013863902
0.0017323083
8.885145E-4
9.51613E-4
0.0011599965
5.3119362E-5
6.9514086E-4
0.0026787475
0.0010895331
-7.501596E-6
0.0023603386
0.0018120008
-0.0020842117
-0.0053109378
-0.005206005
-0.002465994
-0.0016720555
-8.0328964E-4
0.0011681753
4.1960727E-4
-3.1804314E-4
-6.073947E-4
-0.0023708304
-0.0030498353
-0.0024311119
-4.1024567E-4
0.0013810183
2.9780684E-4
0.0011697527
0.0053808745
0.006993718
0.0055964338
0.0041564708
0.0013901121
-0.0031880506
-0.004148257
-9.6639356E-4
-1.1034784E-4
-3.1920217E-4
0.0018535118
0.003867417
0.0035198864
-0.0015700902
-0.00795982
-0.008979767
-0.00798123
-0.0060394844
-0.0011585505
8.0358505E-4
7.5167697E-4
0.0025590137
0.0025854036
0.0020220722
0.0019897865
0.0015771999
0.003129317
0.0025717092
8.239162E-4
0.003549979
0.0038868992
0.001970199
0.0031797595
0.002917457
0.003120964
0.0026916985
-0.0021088906
-0.0021623562
1.1123576E-4
-0.0025708177
-0.0021958263
0.0020372455
0.0024491134
-0.0017860238
-0.006526878
-0.0079903165
-0.0074006063
-0.0067112953
-0.005101196
-0.0021668796
9.628757E-4
0.0020142104
0.0011825307
1.8833552E-7
-5.8490643E-4
7.8857807E-4
0.001891326
9.902267E-4
0.0010697235
0.0027378916
0.0036982615
0.0035080828
0.0028879305
0.0018325956
0.0012949252
0.0019437926
0.0024475318
0.0022312677
3.7917722E-4
1.7126226E-4
0.005489225
0.0077166697
0.0033316154
-3.4389865E-5
-0.002557059
-0.0050245486
-0.00575504
-0.0046346267
-0.0020194943
-0.0017463887
-0.0010672024
4.968258E-4
-0.0020332513
-0.0022342422
-9.654566E-4
-0.0024666341
-0.0015216741
-0.0023712348
-0.003996808
-0.0017171238
-4.1822283E-4
0.0022785
0.0029338757
-0.0026125235
-0.004528241
-0.0023143047
1.9496982E-4
0.0029232693
0.0036993495
0.003969729
0.003611956
0.0037865152
0.005794485
0.0045008203
5.7048636E-4
-0.0021135646
-0.0024552008
-3.6028677E-4
-2.0709759E-4
-0.0019049061
-4.9544545E-4
0.00368701
0.0064959186
0.0043318793
-3.0772382E-4
-0.003201787
-0.0040664976
-0.00218753
-2.7860343E-4
-0.0011105348
-0.002471405
-0.0041531813
-0.0034983298
7.565485E-4
0.0016345662
-0.0012446007
-0.0025998785
-0.002507812
-0.0012114097
0.0011423944
0.002106674
0.0016798016
0.001305442
4.4259E-4
-3.535341E-4
-1.8283389E-4
-2.2762596E-4
6.637465E-5
-1.9127E-4
-0.0017570562
-2.1007386E-4
0.0025867424
0.0020545973
0.00128209
0.0012130324
5.2970974E-4
-3.353518E-4
-0.0010241495
-2.2104148E-4
0.0010337965
0.0013943496
7.362354E-4
-9.6954644E-4
-0.0012117578
-3.9137845E-4
7.3642084E-5
0.0013098452
0.0021170373
0.0027212277
0.0030885048
0.002083545
0.0015033651
1.9623533E-4
-0.0016457975
-6.893065E-4
1.1829012E-4
-0.0016732998
-0.0031564347
-0.0036495088
-0.0032579207
-9.955848E-4
-5.9021E-6
-0.0018915116
-0.0027892317
-0.0028757753
-0.0028336858
-0.001300085
-0.0010022344
-0.0015509778
-4.1839597E-4
7.40152E-4
8.477851E-4
8.08469E-4
0.0019529157
0.003133011
0.0033901497
0.0037939271
0.0027335044
0.0018931819
0.0028238585
0.0017385258
0.001027901
0.0028302867
0.0028291529
4.230682E-4
-0.0024009848
-0.0028087918
-0.0011154093
-0.0032675085
-0.0057521597
-8.7436056E-4
0.0040944903
0.0025996529
0.0011641054
4.5634172E-4
-0.0035737075
-0.0058181793
-0.0029811442
-8.3147077E-4
-0.0022199072
-0.0019241838
0.0014963734
0.0024419872
8.432706E-4
-7.391639E-5
6.405128E-4
0.0039248997
0.005520239
0.0028936435
-7.939242E-4
-0.0050311307
-0.006182824
-0.0021388063
0.0017512646
0.003058377
0.0023580522
0.0017437114
0.001619286
8.1071374E-4
0.0010851094
-4.9411575E-4
-0.0034656955
-0.003018704
-0.0017004778
5.164363E-4
0.0011013099
-0.0019321102
-8.505344E-4
0.0017296119
0.0026934952
0.0045683566
0.0020500747
-0.0016169373
-0.001524352
-0.002153973
-0.003327585
-0.0031193946
-7.053E-4
0.0021824602
0.0026383966
0.0030465992
0.0026277294
1.4865224E-4
-5.613256E-4
4.6409386E-5
-0.0010565788
-0.0029058517
-0.002901174
-0.0013577064
2.2049116E-4
0.001506848
0.0020046763
0.002586134
0.0026794511
7.907534E-4
-0.0014809133
-0.0026831615
-0.0021526823
-0.0017325176
-0.0025993267
-0.002459195
-0.0016817258
6.950107E-5
0.0012791135
-3.6178972E-4
4.6060004E-4
0.002937652
0.002804858
0.002843562
0.0024754375
0.0024403343
0.0040157665
0.002554727
-8.616133E-4
-0.0028022549
-0.0040584705
-0.0029556083
2.7966427E-4
0.0015833658
0.002159243
0.0040421323
0.0049708644
0.0042084074
-0.0010020419
-0.008930941
-0.010000013
-0.006707006
-0.005822497
-0.0048924806
-0.0019548244
0.0022157992
0.0027643752
7.875731E-4
0.0027270773
0.0032772815
0.0016377375
0.0014543287
-5.8388134E-4
-1.642665E-4
0.0019110288
5.922806E-5
-7.026515E-5
0.0013747436
0.0016562412
0.0025191347
0.0030214058
0.0045496793
0.0042476114
2.4249512E-5
-0.0020022215
-0.0011519075
1.0045386E-4
1.6517856E-4
-1.7787164E-4
7.044319E-4
-0.0026632675
-0.0066536693
-0.0036117528
-6.4160395E-4
1.4810622E-5
0.0022071109
0.0028656602
0.0012586552
2.4714108E-4
6.5438176E-4
3.014189E-4
-0.0015899924
-0.0027976162
-0.002634612
-0.0017133914
-5.5988884E-4
0.001453637
0.0024069862
0.0015499928
0.0020580867
6.710806E-4
-2.653909E-4
0.001770768
-0.003504182
-0.0093566375
-0.0053379866
-4.721693E-4
0.0014545543
0.001453254
-2.096856E-4
-0.0014279648
-0.0017289324
3.2450457E-4
0.0015408678
9.1981713E-4
0.0019699251
0.0039197593
0.005903318
0.0049001244
0.0016446539
-0.0014432991
-0.0065290667
-0.00689018
-2.2895295E-4
0.0044792015
0.004766195
0.0030719934
0.0031453
0.005391114
0.0067200284
0.006049382
0.0023761436
-0.0024398917
-0.006027131
-0.0070700534
-0.005639681
-0.0048064
-0.0037271623
-0.0018526112
-3.159621E-4
4.8827048E-4
-0.0011319291
-0.0018069625
-6.4048904E-4
-0.0011868674
-0.0016969255
-4.382766E-4
7.660462E-4
-0.0014518987
-0.0039994665
-0.0027986586
-0.002269719
-0.001041362
0.0015656312
0.0020518736
0.0036677278
0.003641719
4.6959182E-4
-5.6468783E-5
0.0021887987
0.0055407584
0.005993885
0.0044240705
0.0062583224
0.005041118
-9.1077795E-4
-0.0033486162
-0.0024734584
-0.002447613
-0.0038880468
-0.0034764202
-3.8602712E-4
-4.5565184E-4
-0.0026703102
-9.458074E-4
0.0028107865
0.003982334
4.4571843E-5
-0.0048547294
-0.0031388537
-6.900245E-4
-0.0024475215
-0.0012079288
8.2711026E-4
5.074652E-4
0.0022649593
0.003810619
0.0034132148
9.031026E-4
-0.0032799086
-0.0040425537
-0.003655773
-0.0038463469
-5.676539E-4
0.0018205581
5.517252E-4
8.350898E-4
0.0023627998
3.207684E-4
-0.002433866
-0.0014272891
-5.4787885E-4
-6.22714E-4
3.3297794E-4
6.2182243E-4
0.0012433232
0.001316915
5.179346E-4
7.978589E-4
1.757087E-4
5.261313E-4
0.0028920847
0.004060055
0.0047795298
0.0066768033
0.008894964
0.005920039
-0.0014258339
-0.0034569895
-0.002076366
-0.0035748375
-0.0055179563
-0.0048549986
-0.0037398455
-0.0054782014
-0.0057551027
-0.0019556899
1.6766184E-4
-0.001661573
-0.0042239977
-0.0038941638
-0.0032069073
-0.0036535605
1.0824606E-5
0.004494838
0.0045795445
0.0031715443
0.0030278764
0.0024550695
-0.0021883468
-0.004607878
-0.0010413112
9.058015E-4
0.0037342093
0.009342704
0.012033408
0.011223175
0.007843555
0.0051049157
6.870481E-4
-0.0073849056
-0.010933836
-0.009238272
-0.004586471
-1.8723898E-4
-4.954823E-4
-5.48895E-4
-0.001238777
-0.0030446155
-0.0013725806
-0.0011459171
-0.0027304024
-0.004001353
-0.0039609773
-3.7686375E-4
4.690899E-4
-8.904422E-5
0.0025469996
0.0037788083
0.0038414714
0.0033055036
0.0025681688
0.0018787772
-3.9933177E-4
-8.7089016E-4
-0.0014950242
-0.0020114153
0.0014964655
0.0035248168
0.0032013878
-1.5952278E-4
-0.0041771983
-0.001197829
1.16091E-5
-3.2740092E-4
0.0043510906
0.0029786422
-0.0014979979
-0.0025315343
-0.004004283
-0.0026287977
-0.0020953387
-0.0038795231
-0.002439613
-8.727601E-5
0.003047153
0.0045651738
0.0036983518
0.0050032265
0.0053322227
0.0043418733
0.0015149103
-0.004234119
-0.0064746067
-0.0056110257
-0.0024096416
0.0027382711
0.0036522185
0.0010266172
-0.0032700405
-0.0058750953
-0.00302145
-1.6261287E-4
2.9007078E-4
3.4212868E-4
0.0014958368
0.0028468939
0.0011178168
-0.0012165831
-0.0024752102
-0.002222002
-0.0014439296
-0.0021478776
4.8805238E-4
0.0022000438
9.435267E-4
0.0031123788
0.0012472498
-0.0014468201
0.0012052727
3.7622513E-4
8.091004E-4
0.004093969
0.004280779
0.006137954
0.007207257
0.0029055253
-0.0012542758
6.868255E-5
0.0025196145
7.211664E-5
-0.00445162
-0.009760706
-0.011482039
-0.0054571815
-2.4971255E-4
0.0014677825
0.0014527111
-0.0011135361
-0.0035837449
-0.0052745594
-0.0043532834
-0.0022548584
-0.0016634269
4.4073566E-4
0.0020832224
0.0020110651
0.0029476641
0.0046617235
0.0033628184
-0.0020818121
-0.0017472822
0.004205304
0.0060147364
0.008291683
0.012169965
0.010191941
0.0027009393
-0.0024260816
-0.0019211894
-0.0052304077
-0.011396402
-0.009021958
-0.002926033
-0.0014640673
-0.0015590067
6.568798E-4
9.822015E-4
-0.0012045436
2.0528838E-4
7.0727436E-4
-7.654484E-4
-1.3868132E-4
-0.004171931
-0.00678111
-3.4167586E-4
0.0032197454
0.002054771
0.002594802
0.0043306085
0.0071412534
0.0065069473
4.2210074E-4
-0.003091775
-0.0010049542
0.0012085283
-3.1721607E-4
-0.003668579
-0.0053422973
-0.0046236846
-0.0022907371
9.767697E-5
0.001467221
0.0015790213
-1.8859422E-4
-0.0013727319
-7.127075E-4
-0.0011367704
-4.4231227E-4
0.0024841838
0.0031507406
0.002556654
0.0027050225
0.0028375215
0.0038398297
0.0044490877
0.0025923916
-4.749403E-4
-0.0021488846
-0.0030663088
-0.0052934075
-0.0043563046
0.001288744
0.0032849982
0.001946515
0.0029176273
0.001553603
-0.0020298597
-0.0028021152
-0.002943062
-8.853823E-4
0.0037843522
0.005426265
0.003632443
-0.0010782998
-0.005264772
-0.0051552164
-0.0053081503
-0.0055168895
-0.0032975418
-0.0012277721
-8.517802E-4
-0.0026979665
-0.0032036195
-0.0017662201
-0.0023102746
-0.0032867403
-0.0038065093
-0.0026276063
-1.2416691E-4
-0.0010275836
-6.099647E-4
0.004894958
0.008462165
0.0072742887
0.0053360923
0.0063864226
0.007884058
0.0056619304
0.006112779
0.012576512
0.015445044
0.013842171
0.010497612
9.014116E-4
-0.0050267354
-0.0020605144
-0.003002335
-0.005143631
-0.0037898866
-0.006326365
-0.015172541
-0.025193565
-0.022988053
-0.010732588
-0.005482847
-0.006411413
-0.0063318503
-0.0044164853
-0.0031242482
-0.002485698
-5.162707E-4
-0.0011871645
2.891107E-4
0.005073231
0.006420511
0.007466066
0.0027865567
-0.0022601304
0.004629182
0.009666309
0.010191382
0.01026863
0.006824977
0.007835409
0.010882283
0.011760684
0.011358269
0.0065066856
0.002772754
3.994022E-4
-0.0046622283
-0.010936419
-0.015727442
-0.015199996
-0.014850693
-0.015656956
-0.014059052
-0.015387801
-0.0173418
-0.018441893
-0.021730937
-0.025912827
-0.026349274
-0.016609523
-0.008631514
-0.006914691
0.0035948022
0.015801955
0.023712525
0.030628074
0.030653639
0.029807065
0.029588182
0.025508208
0.025291167
0.028759168
0.028093373
0.01895898
0.008799971
0.0075277127
0.0029332233
-0.008984408
-0.011363484
-0.0061320537
-0.0068309833
-0.013379921
-0.015899338
-0.008694605
0.0012597131
0.010769494
0.022388056
0.028268497
0.02665984
0.028602691
0.035074137
0.037525706
0.034088336
0.027752416
0.013872531
-0.012856387
-0.044373136
-0.06947145
-0.08501824
-0.100707
-0.12562415
-0.14210203
-0.13499138
-0.1184006
-0.10486856
-0.097819164
-0.09117509
-0.066006124
-0.022437572
0.018879712
0.051272854
0.08709985
0.13842824
0.19776739
0.23545885
0.23403092
0.21575011
0.2052507
0.19874044
0.18515426
0.1574832
0.11987454
0.08164219
0.03440222
-0.028627472
-0.09744636
-0.16090211
-0.20902805
-0.23398924
-0.23678885
-0.23251118
-0.23419926
-0.23129913
-0.2077444
-0.1640335
-0.113168746
-0.061093476
-0.0020044814
0.057176676
0.102568775
0.13384925
0.15474278
0.17269142
0.19590233
0.21712692
0.21581648
0.18189588
0.13490666
0.091454245
0.045763362
0.0017367528
-0.037454076
-0.08460753
-0.14987573
-0.22002572
-0.25309977
-0.23982109
-0.2118575
-0.1741753
-0.122396044
-0.060700502
-0.0027440568
0.021375766
0.023680978
0.03864677
0.06595686
0.09398679
0.11375001
0.1396109
0.18247567
0.21140404
0.20977071
0.18718545
0.16483158
0.14510897
0.08727959
0.025104005
0.023887739
0.009716522
-0.068355076
-0.11656206
-0.11772582
-0.1486418
-0.18859641
-0.18691362
-0.16535646
-0.13173251
-0.07856596
-0.039527103
-0.033556633
-0.023965985
0.010850569
0.03730476
0.045690052
0.048610058
0.026467172
-0.011951725
-0.0337808
-0.038397584
-0.03777881
-0.030083057
0.0034884706
0.04500613
0.059647918
0.06316935
0.057233088
0.0313465
0.011392935
0.008959469
0.012283104
0.010471133
0.011050647
0.018978465
0.016126167
0.012849749
0.022794731
0.034661345
0.043888662
0.040202945
0.034150004
0.04086322
0.039356843
0.026452463
0.011474894
-0.0016342558
-0.005593699
-0.017327864
-0.04064767
-0.053294968
-0.058849305
-0.06681613
-0.06852565
-0.06820541
-0.07134432
-0.05480714
-0.015728835
0.016476773
0.035725534
0.03538148
0.0039947075
-0.030631525
-0.03479719
-0.004237136
0.0339636
0.046561163
0.037541356
0.028324472
0.02233898
0.01335938
0.008096229
0.0155797945
0.020778714
0.01450242
0.0068993624
0.0068128114
0.023573842
0.04368566
0.04369755
0.027839119
4.8002778E-4
-0.029033419
-0.03657739
-0.025692547
-0.017447023
-0.02195648
-0.033782873
-0.03222119
-0.023577016
-0.030622458
-0.033451322
-0.020016242
-0.01383313
-0.010010446
7.808567E-4
0.006396371
0.008598061
0.010571354
0.009942967
0.009396288
0.0128807975
0.023280406
0.03438972
0.04120495
0.038929548
0.022444813
0.006814258
0.0023270755
0.0018546699
8.3516643E-4
-0.0014433415
0.0011229122
0.008090044
0.01424572
0.021223184
0.019530298
0.0031028064
-0.01669357
-0.027517986
-0.027069474
-0.02457691
-0.018658957
-0.0063270726
-1.0755367E-5
-0.0019512153
-0.009399737
-0.020027656
-0.024342682
-0.021449657
-0.011839238
0.0035574604
0.011861363
0.00368149
-0.011555054
-0.014836428
-0.006816074
-0.0035288506
-0.007091566
-0.008968257
-0.0042457865
0.0026551844
0.008388518
0.013373309
0.013998281
0.013044547
0.00963345
0.0031540727
0.0048804786
0.009839313
0.01265635
0.017582512
0.017250514
0.016466917
0.018331146
0.010890992
0.0023604517
0.0022097537
0.0010557458
-0.007063298
-0.015383583
-0.017266989
-0.019037945
-0.020793142
-0.016564438
-0.013703981
-0.010631636
-0.002125222
9.201522E-4
1.9630936E-5
0.004367255
0.0050644446
-6.028528E-5
-8.628783E-4
2.8890383E-4
-4.932303E-5
1.1323019E-4
-0.001646643
-0.0021499053
2.6568733E-4
3.7684437E-4
5.0354557E-4
0.0039012763
0.00926267
0.013083067
0.012853951
0.011532914
0.00872846
0.005415771
0.004234125
0.0016882808
-2.718128E-4
-0.0015619254
-0.004064331
-0.0041895052
-0.0048354454
-0.0036989984
1.5387691E-4
-0.0016687018
-0.0035635014
-0.0027753816
-0.005256775
-0.008206052
-0.011089573
-0.010305353
-9.669712E-4
0.006851975
0.0052074506
0.0015317169
0.0021711683
0.0031234024
0.0022041793
0.0017713999
0.0023860624
0.0035466894
0.0036992093
0.0033046196
0.0016623391
5.1344075E-4
0.0052983155
0.0066737244
-8.213394E-4
-0.0045469417
-0.0026316787
-0.0023611623
-0.005175113
-0.006898262
-0.0054012355
-0.005214933
-0.0044620186
-0.002331866
-0.0028241547
-0.004331615
-0.0070997817
-0.005715374
9.124015E-4
0.0012640689
2.739108E-4
0.005392857
0.009707047
0.00977402
0.007698278
0.009681922
0.013807561
0.008847307
-0.0014801362
-0.0043828283
-4.205119E-4
-3.2045762E-4
-0.0042097433
-0.004736989
-0.0049328986
-0.006356161
-0.0041445303
4.6598794E-5
0.0018214274
0.0011013687
5.8107317E-4
-3.5392807E-4
-0.0019254516
-0.0014925364
-8.079103E-4
2.9709336E-4
7.8734587E-4
-0.0021734992
-0.0018492923
2.698159E-4
-0.001739676
-0.0010985371
-7.749013E-4
-0.004981771
-0.0037130425
0.002022109
0.003924859
0.0028708102
0.0030879814
0.0050663017
0.002607852
-0.0040276144
-0.006992121
-0.006078544
-0.0036721013
-0.0023213106
-0.0033642848
-8.147004E-4
0.0062936693
0.010415176
0.007597064
0.002920424
0.0014189208
-1.00123776E-4
3.987855E-4
0.004431135
0.0045603933
0.003708432
0.0015072176
-0.0071988883
-0.009300824
-0.003353784
-0.0023829686
-0.0029838432
-0.0019414029
-0.0013168404
5.8056467E-4
0.0013876653
6.8575615E-4
-2.0892064E-4
-0.002304011
-0.003814142
-0.0040111914
-0.002650288
-6.8068394E-4
-0.0022609902
-0.0034380113
4.216999E-4
0.0032108233
0.003608119
0.0043829763
0.0018644534
-0.001575042
6.343526E-4
0.00507672
0.0059728534
0.0034875795
5.948032E-4
-6.5223774E-4
-0.0011259441
-0.0015516618
-0.002527397
-0.0034542345
-0.0017621468
-0.002048838
-0.004964344
-0.0018623272
0.001789068
-0.0013697363
-0.0054352735
-0.00664746
-0.0030991677
8.944331E-4
-5.7783804E-4
-0.0013966567
8.99658E-4
0.004493383
0.009073444
0.009134745
0.0032867738
-0.002207003
-0.0017217156
8.29668E-4
4.628721E-4
0.003727099
0.008640578
0.008768275
0.010065747
0.0085085435
-7.8469375E-4
-0.005127696
-0.0036778662
-0.008532396
-0.014285703
-0.012029008
-0.008951925
-0.0072329002
-0.0030048958
-0.001215799
-0.0026491857
-0.0033841897
-0.0035821598
-0.0027670949
-8.269692E-4
9.2602786E-5
1.1912868E-4
0.0031167208
0.0053717806
0.0013301461
-5.258903E-4
0.0021609867
0.003030006
0.00443464
0.0055770995
0.003706601
0.0019869157
0.0024020516
0.0042935302
0.006362394
0.0078646615
0.0055062175
5.1857776E-4
-0.0012265024
-1.988772E-4
0.0037227012
0.0049997526
-0.0014667159
-0.00369224
-5.2385265E-4
-0.0017795082
-0.004352217
-0.0050595296
-0.0046369163
-0.003136898
-0.0021948903
-0.0022444073
-0.0019734013
-4.678632E-4
-7.428992E-4
-0.003969491
-0.0057467883
-0.005677521
-0.0064989487
-0.006356996
-0.003266574
-4.7825478E-4
7.1115914E-4
0.0017319035
0.0018528419
0.001965522
0.0016629393
5.9246697E-4
0.0026787433
0.007816643
0.0110284155
0.007840774
8.839039E-4
-0.0020460298
-5.7976187E-4
-7.8009017E-4
-0.0036895985
-0.0013083033
0.0043256558
0.002497387
-6.109819E-5
1.7108956E-4
-0.0015537073
-1.6883042E-4
0.0011256867
5.236914E-4
0.001624466
-1.02770064E-4
-0.0014833967
5.710021E-5
0.0013414824
0.0029228549
0.003512151
0.0031672497
6.1694987E-4
-0.001547232
8.3901844E-4
0.0012951269
0.0011182708
0.0022052752
-9.982274E-4
-0.0038275574
-0.0055989064
-0.008811142
-0.009431674
-0.008007139
-0.004438239
-4.568486E-4
-0.0014031137
-0.0034202703
-6.7191257E-4
0.0024532727
0.0016007485
0.0017814194
0.0018891771
-0.0012722925
-0.0016319366
-0.0016604745
-0.0020407953
0.0024722815
0.00498112
0.0047721923
0.0064016236
0.007365229
0.0069038635
0.0033322882
-6.627108E-4
-0.001231488
-2.0560031E-4
0.0026522195
0.0034739873
0.0016071836
0.0024232564
0.002264772
8.484443E-4
0.002375376
0.0016233517
-0.0018220274
-0.001731724
-0.0027424148
-0.0071812677
-0.0061842166
-0.0025190006
-0.0029445577
-0.003346971
-0.0024851249
-9.6295064E-4
2.2602374E-4
-2.824719E-4
-2.857792E-4
-0.0016978353
-0.0036880572
-0.004078796
-0.004739634
-0.002575726
4.507304E-5
-7.4412406E-4
-0.0014012925
-0.0018521987
-5.3152815E-4
0.0029653846
0.0055138697
0.009250882
0.013811765
0.014788707
0.00942465
5.3787156E-4
-0.0059570987
-0.01011833
-0.010691834
-0.006038517
-0.0014418423
0.001076445
0.0024827824
0.0027828757
0.0039617373
0.005873249
0.006341192
0.0033920973
-0.004386431
-0.011152295
-0.010439598
-0.006702956
-0.0025299725
0.0024790661
0.0033840283
0.0031150351
0.004286766
0.002138095
-1.8445295E-4
-0.0010929895
-0.0021821086
-0.001005975
-3.7901124E-4
-0.0023175038
-0.0034985077
-0.0022174376
9.217899E-5
0.0016512637
0.002637994
0.0012693501
-7.5629953E-4
7.9005404E-4
0.0028798163
0.004430697
0.0043401676
-0.0019280023
-0.0083814
-0.006791925
-4.7148138E-4
0.0039274
0.0056950813
0.0069177113
0.007079157
0.0064434456
0.0059948936
0.0035753944
-0.0010143667
-0.0031975543
-0.0023037693
-0.0032210834
-0.0067608347
-0.008991836
-0.0058249217
-6.43347E-5
3.8840182E-4
-8.284592E-4
7.2854E-4
4.6867828E-4
9.8245284E-5
0.0011171419
0.0023826787
0.0048153
0.005379442
0.0037659782
0.0016363766
-4.421833E-4
-0.0018824731
-0.0036199605
-0.0037576584
-0.0043217894
-0.006225238
-0.004757639
-0.0022757864
-7.1680745E-7
-4.187802E-5
-0.004040362
-0.0047333366
-0.0048287236
-0.005847714
-0.004280916
-0.0050478545
-0.0038443077
-2.9322025E-4
5.306838E-4
0.0044085304
0.007995188
0.009145134
0.011968054
0.012466331
0.011830513
0.010882884
0.009399749
0.01086958
0.010086749
0.005824883
0.0035846822
0.0024948206
8.1133255E-4
-4.279954E-4
-0.0012332747
-0.005788944
-0.013156406
-0.016078921
-0.0162408
-0.016487384
-0.014757622
-0.011729513
-0.0072606313
-0.004072704
-0.0040485067
-0.001191684
0.0022493615
3.4584016E-5
-4.3210844E-4
0.0035202834
0.00207997
-0.0016588581
0.0013502571
0.004959075
0.005090923
0.0061295084
0.0070199557
0.0078279795
0.010170715
0.01053758
0.008195555
0.0045119985
6.294783E-5
-0.00113833
-8.09339E-4
-0.0049659824
-0.006470079
-0.0011014678
6.31327E-5
-0.0032233754
-0.0045048543
-0.0044246996
-8.084742E-4
0.0018440237
6.1095273E-4
0.0026231783
0.0027525364
1.2090282E-4
0.0025115635
0.0029534716
-5.8142887E-5
-8.916178E-4
-0.0016666112
-0.0016587491
-0.0014120628
-0.0019776311
-0.0013608142
-0.0018596547
-0.0025738429
-3.950838E-4
0.0015667902
8.374811E-4
1.6628155E-4
-8.2155835E-4
-0.0050034528
-0.0058767
-9.906889E-4
-6.81504E-5
-0.0013985496
0.0010354952
6.202793E-4
-0.0030516777
-0.0024448289
-9.533815E-6
6.593815E-5
5.174306E-4
0.0010256175
0.0014066361
0.004528866
0.007027733
0.0053408425
0.0021715383
0.0015107902
0.0026859175
-1.7472364E-4
-0.0065752724
-0.009395964
-0.0059084767
-9.2201465E-4
-5.2832754E-4
-0.002729115
-0.0055961017
-0.0103706755
-0.012935672
-0.011494653
-0.009037369
-0.009144764
-0.010726906
-0.007525749
-0.0017831534
0.0020187846
0.0046609114
0.0070428313
0.0120506
0.017211393
0.01959001
0.022168756
0.024394823
0.02617561
0.026496954
0.02348685
0.01931459
0.012962385
0.0059937094
0.0020271088
-1.3542511E-4
-6.7696057E-4
-3.3660443E-4
0.001200439
0.00323389
0.0023403892
0.0026136206
0.006474841
0.009607159
0.009991327
0.00667735
0.0036201472
0.0031389284
-4.2456773E-4
-0.0074505666
-0.017435675
-0.03027681
-0.039384704
-0.04555539
-0.052043725
-0.055844955
-0.059515502
-0.064280145
-0.0668533
-0.06818463
-0.06731637
-0.0629259
-0.057038724
-0.044703778
-0.01922204
0.007213566
0.022444211
0.0405239
0.061632674
0.06847303
0.07385472
0.08534689
0.09014105
0.09968277
0.12038987
0.13635877
0.14125943
0.13748169
0.12913054
0.10990501
0.07430533
0.035443857
-0.0043551666
-0.0418552
-0.06563823
-0.08260811
-0.088034555
-0.08606829
-0.103356585
-0.12640202
-0.13936327
-0.14804852
-0.14153455
-0.12515709
-0.10516011
-0.07575738
-0.053488303
-0.037465107
-0.015904633
0.0023882368
0.019940596
0.038614724
0.05329155
0.06804384
0.079414204
0.0843976
0.08772602
0.08700303
0.07881447
0.06761821
0.05520251
0.037223045
0.018136028
0.003622306
-0.009632186
-0.020385453
-0.027238963
-0.03213078
-0.03431567
-0.035260923
-0.034360528
-0.02970752
-0.024904745
-0.021817805
-0.017039409
-0.011591612
-0.010046465
-0.0049132477
0.011939244
0.033043124
0.049902137
0.060218662
0.065738216
0.06669986
0.06311242
0.061686676
0.05675636
0.04064189
0.024252268
0.010308146
-0.005686504
-0.02158464
-0.040574852
-0.064986706
-0.08750167
-0.099362485
-0.10201397
-0.09697879
-0.07900508
-0.056760106
-0.040619805
-0.028248543
-0.020618267
-0.018093962
-0.017719055
-0.0134931225
-0.0018704913
0.006921457
0.012669989
0.023031484
0.031103404
0.03800735
0.050016075
0.0592174
0.06266583
0.06246203
0.0584781
0.05805376
0.057244495
0.04401622
0.028404549
0.0150209125
-0.005105987
-0.020130306
-0.022646366
-0.02533203
-0.030031312
-0.030450862
-0.027266165
-0.022074599
-0.013797051
-0.008289673
-0.00749219
-0.002608643
-1.724564E-4
-0.0029218614
9.4423385E-4
0.0046442905
0.0043946714
0.004620101
0.0012121784
-0.0011237209
-0.0037617995
-0.01056105
-0.012505176
-0.010518598
-0.007659935
-0.003163637
-7.442706E-4
-9.367223E-5
-9.164162E-4
-0.001948471
-0.0014313912
-0.0012102182
3.0443977E-4
0.0010558898
-0.0021567033
-0.0043055527
-0.001718486
0.00300086
0.003992414
0.0020997948
0.0041681584
0.0062222085
0.0037794982
0.0018559097
-5.523637E-4
-0.003827117
-0.0013073152
0.002105987
-0.0019845157
-0.005876142
-0.0021729907
0.0021165204
0.001915269
0.001679103
0.0029501976
0.0012564932
-0.003634084
-0.005971983
-0.0036445868
8.219987E-4
0.004215864
0.003870331
0.0056897043
0.013829959
0.016441707
0.010945796
0.0053311638
-0.0041554207