-4.0908498E-4
-0.0013789227
-5.2854673E-5
7.283975E-4
5.3648825E-4
2.0018384E-4
-1.4226172E-5
8.478135E-6
-7.1229826E-4
-3.6553812E-4
8.357861E-4
7.4238394E-4
6.653433E-4
1.6438872E-4
-5.8091956E-4
7.139446E-4
0.0012470817
-5.3021405E-4
-4.049871E-4
0.0011686222
0.0012302726
0.0016533853
0.0017841194
1.8206189E-4
-4.2318687E-4
-1.7587035E-5
1.1669319E-4
-1.2174606E-4
-3.0132264E-4
1.678185E-4
-0.0011744766
-0.0024654998
-6.626079E-4
-1.4082676E-4
-7.73031E-4
9.603876E-5
-3.2162777E-4
-0.0022034992
-0.002564422
-0.0010568976
-7.8492175E-4
-0.0013970546
-7.604558E-4
-0.0013306775
-0.0012545474
8.147641E-4
9.204422E-4
9.5543155E-4
0.0017956159
0.0014345048
0.0010171478
5.9603364E-4
7.612663E-4
8.003923E-4
-2.0368746E-4
-8.247686E-4
-0.001370468
-4.0788064E-4
0.0017991122
0.002945992
0.0036066528
0.0023705144
6.5288856E-4
4.5829234E-4
-1.87078E-4
1.1011498E-4
9.602268E-4
7.0657587E-4
-4.8688555E-4
-0.002645686
-0.0018382287
0.0012806497
0.0018135466
3.576739E-4
-0.0012542498
-0.0014903094
-0.0016505311
-0.0029704547
-0.0026315695
-0.001021301
3.013035E-4
3.5024874E-4
-6.8319676E-4
-5.9056614E-4
-5.294689E-4
-5.9890305E-4
-5.2479765E-4
-0.0012961727
-6.9510017E-4
4.5981386E-4
8.898439E-4
0.0016498143
0.0012863978
6.881771E-4
0.0014959923
0.002156733
0.0017296112
0.0012303097
6.2711944E-4
-0.0011118661
-0.0013888782
5.262777E-4
0.0012753123
7.1485457E-4
6.077617E-5
2.6415155E-4
4.946896E-4
-2.5866303E-4
2.5338365E-4
7.336571E-4
5.0806743E-4
0.0015398953
0.001406815
-4.6918535E-4
-0.0019423319
-0.0010966666
0.0012202217
2.6259135E-4
-0.001789607
-4.4850243E-4
8.931409E-4
6.0171687E-6
1.6417683E-4
0.0016364607
2.1040923E-4
-0.002155782
-0.0017459219
-0.0015790293
-0.0015879305
-8.3314965E-4
-0.0011974395
-0.0013807712
-7.3586527E-4
4.3996327E-4
0.0011175487
5.6712696E-4
0.0013442277
0.0017292767
-2.647835E-4
-4.6761683E-4
8.7611086E-4
3.358332E-4
4.418623E-4
0.002539013
0.0023045319
2.357133E-4
7.290809E-4
0.0015213834
-1.4266798E-4
-7.917961E-4
8.172197E-4
8.1872003E-4
-9.709108E-4
-0.0010040033
-6.1276386E-4
-0.0013971917
-0.0010851221
-6.2229874E-4
-6.7901483E-4
-1.5277167E-4
-5.3965475E-4
-6.7691304E-5
0.0015589355
1.2323011E-4
-9.1212185E-4
6.7920017E-4
4.037902E-4
8.747812E-4
0.002104387
4.3898297E-5
-7.749153E-4
4.0953545E-4
7.3771854E-4
0.0010820553
7.486525E-4
7.3936617E-4
-3.5168673E-4
-0.0028381706
-0.0017848124
-3.612487E-4
-5.8294786E-4
4.476246E-4
3.9454203E-4
-6.5185956E-4
-0.0018514402
-0.002866285
-0.0020043002
-4.879453E-4
0.0010551849
7.438096E-4
-3.2190167E-4
0.0010868014
0.001329029
0.0011500997
0.0020418954
0.0013770302
0.0017569588
0.0013575079
-0.001167161
-7.0382695E-4
5.448914E-4
8.72693E-5
6.9049234E-4
0.001131773
-5.3347636E-4
-6.2452425E-4
0.0013158574
-2.7747403E-4
-0.0016273452
9.305938E-4
8.6511846E-4
-5.259931E-4
-4.4619606E-4
-6.174373E-4
4.1830415E-4
5.6952304E-5
-0.0015243703
-0.0010789221
-0.0010227258
-3.484134E-4
0.0015722428
0.0017263601
5.4563896E-4
-3.321221E-4
4.2396385E-4
0.0011622607
-3.14536E-4
-0.0024002264
-0.003155306
-0.0016779866
-2.0590067E-4
5.8680536E-5
8.6241413E-4
6.901117E-4
6.0760507E-5
8.955377E-4
0.0014621972
0.0014862055
8.9225377E-4
2.1062153E-4
7.618617E-4
3.6943605E-4
-8.801485E-4
-5.010758E-4
3.227859E-4
3.6827053E-4
4.6101434E-4
0.0011253186
0.0020981056
0.0019966275
3.7473583E-4
-6.5669033E-4
-0.0011187561
-0.0016728828
-2.0307119E-4
0.0011511539
1.0253059E-4
-6.538082E-4
-8.210173E-4
5.0447864E-4
0.002573341
0.001007097
-9.612084E-4
-6.4519537E-4
-8.6619536E-4
-3.6612016E-4
0.0010518421
9.642723E-4
-7.087548E-4
-0.0015328745
-6.3140626E-4
-0.0010905511
-0.0010571716
2.9467558E-4
-0.0013253763
-0.0015697535
7.862735E-4
8.720298E-4
9.969048E-4
1.444115E-4
-0.00191247
-7.590326E-4
5.600078E-4
6.924468E-4
0.0014976658
0.0016429859
0.0014408706
0.001041421
5.734369E-4
-3.4296612E-4
-0.0016772476
-7.926632E-5
0.0017026027
5.4067285E-5
-1.4289477E-4
0.0014734255
2.6509073E-4
-0.0017514243
-0.0012051412
6.665927E-5
9.548696E-4
0.0017028938
4.0392493E-4
-0.0012294737
-2.9042875E-4
2.1402884E-4
-5.482077E-4
1.3967717E-4
2.8850103E-4
-9.094825E-4
4.3936097E-4
0.0028454773
0.0030900424
0.0028244068
8.157148E-4
-0.002152175
-0.0017714712
-0.001162953
-0.0023863737
-0.0025754466
-0.001972295
-0.0012464434
-5.414543E-4
-4.1011153E-4
-0.0010292396
-0.0011899398
-3.2684678E-4
-7.904071E-4
-9.54322E-4
7.4573135E-4
9.746796E-4
1.3598238E-4
5.710237E-4
0.0024441753
0.0028716542
3.5324483E-4
-3.809025E-5
0.0013714812
5.693906E-4
-5.155163E-5
6.6985097E-4
0.0015677798
0.0013228126
2.602043E-4
8.988109E-4
0.0013696973
0.0010106653
0.0013657818
8.3188986E-4
2.654535E-4
1.654169E-4
-1.5351066E-4
5.1762245E-4
-6.820036E-5
-0.0023325917
-0.0035201365
-0.004170901
-0.0032115814
-9.4918365E-4
-1.7534154E-4
0.0011197096
0.001826857
6.3704138E-6
-5.3078565E-4
-7.5737265E-4
-0.0016208991
-6.384421E-4
-4.0835465E-4
-0.0011600956
-4.404852E-4
-9.853433E-6
4.6194295E-4
0.0017570059
0.0010692435
7.677233E-4
0.0028928833
0.0016678297
-4.3199598E-4
6.794738E-4
-3.6003618E-4
3.101755E-4
0.003319072
9.1555493E-4
-4.965858E-4
0.00126972
0.0013412791
0.002103807
8.1179733E-4
-0.0020754547
-0.0015678876
-2.025015E-4
5.153252E-4
5.513828E-4
-1.28511E-4
-3.9733405E-4
-4.0770334E-4
5.1102927E-4
0.0016844437
0.0017174976
2.4258885E-4
-0.0013367366
-0.0013951862
-0.0027363938
-0.0035183323
-8.264132E-4
2.4590318E-4
-1.9869581E-4
-4.6186248E-4
-0.0022118643
-0.0024133152
-0.0015425871
-0.0015488184
-1.287376E-4
0.0014744354
0.0018244409
0.0018605543
0.0018659679
0.002042662
8.8485976E-4
-0.001107129
-4.2403172E-4
0.0015955162
0.0016783304
8.614163E-4
6.134251E-4
8.06715E-4
0.0011095043
0.0011822222
9.5008546E-4
1.644966E-4
-2.4533962E-4
6.635518E-4
0.0013564946
9.874395E-4
-1.8573937E-4
-0.0011467139
-9.2660694E-4
-0.0016921626
-0.002336328
-4.0690367E-5
0.0010531634
7.4325124E-4
0.0021948942
7.385572E-4
-0.002270315
-9.3170046E-4
4.38661E-4
-9.402831E-5
-6.8041275E-4
-0.0023472735
-0.0018393497
5.713171E-4
6.1392644E-4
-5.533767E-4
-0.0017649048
-0.0016326647
-5.984857E-4
-0.0014132676
-8.5510995E-4
9.996777E-4
9.663124E-4
0.0020792868
0.0035339054
0.0031548939
0.0031784642
0.0022021364
-1.857119E-5
-7.4613997E-4
-0.0011876009
-0.0023742681
-0.0027554457
-0.0018232989
-8.86857E-4
-3.6372148E-4
0.0010193952
0.0016436065
6.481168E-4
7.6927507E-4
-7.0889495E-5
-0.0029567452
-0.0023467888
0.0010163125
0.0011394328
-0.0012016954
-0.0012734656
3.5709233E-4
3.7505207E-4
5.9759663E-4
0.0014645612
0.0010437049
0.0017328429
0.0021469183
2.5038625E-4
3.0086114E-4
0.002257232
0.0022587515
3.9830842E-4
-4.404122E-4
-7.216394E-5
-8.385114E-4
-0.0011831761
-0.0017642031
-0.0038633072
-0.0022411402
7.785811E-4
-1.5583736E-4
-0.0011836629
-0.0010065228
-0.0013627211
-0.0019126924
-0.0021342703
-0.0010729197
3.0297646E-4
0.0019578368
0.003827089
0.003313173
0.0015679543
-3.2770654E-7
-0.001962983
-0.0018530258
4.984737E-4
0.001212755
6.0743664E-4
0.0021939154
0.0037360953
0.0019128717
4.2748702E-4
0.0016573914
0.0025119532
0.0010825576
-9.5005333E-4
-8.321409E-4
-1.09181834E-4
-0.0010543138
-0.0019179635
-0.0025517684
-0.0025700277
-0.0011397313
-0.0010893069
-0.0015994622
-2.4261343E-4
0.0014946171
0.002789548
0.001645025
-0.0014079018
-0.0019779615
-0.0015990853
-0.0011394946
9.087186E-4
6.489623E-4
-0.0012848073
-6.640199E-4
6.00764E-4
0.0015199945
0.0029499645
0.004024308
0.004952325
0.003720272
-0.0014998551
-0.0048329523
-0.0035451418
-0.0023832908
-0.0010394091
-2.8080377E-4
-0.0023825595
-0.0021824278
-9.729135E-4
-0.00173342
2.8100392E-5
0.0022967276
0.0030407545
0.0040286165
0.004132698
0.003912733
0.002781224
0.0012949237
-4.0104694E-4
-0.004837207
-0.00642295
-0.0032684356
-0.0014003476
-6.5005425E-4
8.4894354E-4
0.003299665
0.0035392737
6.8883447E-4
6.242997E-4
0.0010769947
-0.0011225085
-0.003063876
-0.004468736
-0.0020904888
0.0029046987
0.0036722943
0.0013412341
-7.099996E-4
-0.001088515
1.1712957E-5
3.140304E-4
-2.1695433E-4
3.759597E-4
0.003118822
0.004689549
0.0032632817
0.0028420098
0.0038309433
0.0029863094
-0.0011570235
-0.0053355875
-0.004732896
-0.0029649541
-0.0036471647
-0.0034576273
-0.0013946465
9.1553474E-4
0.0015860937
1.8012285E-4
-9.5967454E-4
-0.0014454608
-0.0025397388
-0.0027331782
-3.605121E-4
0.0013136734
7.5057114E-4
7.309601E-4
3.1614938E-4
-3.2088862E-4
2.6468877E-4
1.735144E-5
8.254033E-5
0.001316313
0.0019934287
0.0024688568
0.002658866
0.0022699102
5.246061E-4
-0.002083699
-0.0026587613
-0.0015562671
-5.756871E-4
3.248631E-4
0.002196837
0.0041391267
0.003751544
0.0027076637
0.0012482593
-0.0012882
-0.0017339238
-0.001768428
-0.0025790972
-0.0019438979
-0.0020513404
-0.0018511452
4.0431062E-4
-2.7308168E-4
-0.00393041
-0.0038991433
4.665154E-4
0.0039793192
0.0039522476
0.001137474
-7.149831E-4
1.9878255E-4
7.912134E-4
5.816557E-4
5.4433855E-4
8.2368474E-4
6.868825E-4
-0.0017306069
-0.002890624
-0.0021263487
-0.0015069718
0.0024500012
0.0056998786
0.0058752922
0.0069424743
0.004294623
-0.0012494366
-0.005006284
-0.0058458652
-0.001612566
-8.1958564E-4
-0.005226962
-0.004797351
-0.0038790265
-0.0046442794
-0.0017920937
3.2082578E-4
9.247446E-4
0.0031896464
0.0036564856
0.0020983429
0.0030257644
0.0035913212
7.102873E-6
-0.0016725394
-0.0012763228
-0.0035130584
-0.002707786
0.0013415667
0.0025832192
0.0032928505
0.004461968
0.0030335363
-6.154588E-4
-0.002386677
-9.492806E-4
-3.5144316E-4
-7.9499005E-4
-0.0010961527
-0.0017324791
-5.285139E-4
0.0015044488
0.0039242804
0.0060812784
0.0032976044
4.6643318E-4
0.0010577225
-0.00244572
-0.007641068
-0.006737101
-0.0019007865
0.002755891
0.0062477137
0.007538878
0.0060964897
0.0021154257
-0.0029353604
-0.0043755537
-0.0018248761
-3.1761744E-4
-4.5059662E-4
-0.0024944788
-0.0053561665
-0.0036388151
-2.6246362E-5
5.1794434E-4
9.599667E-4
0.0019320319
-4.1473538E-4
-0.0029095171
-0.0010444609
-0.0011837492
-0.0030223608
-0.0010624437
-0.0022291425
-0.004702956
-0.0035369117
-0.0037455556
-0.0022160478
-8.174452E-5
-4.2448263E-4
0.0017465652
0.0022053216
2.680374E-4
0.0017084861
0.0049055717
0.0067918343
0.0050441073
0.0031901048
0.0039698146
0.004921071
0.007668759
0.009258456
0.008209229
0.0065138876
-6.2749075E-4
-0.00864185
-0.009827002
-0.0067967363
-0.0016093084
0.0026627406
0.0038904247
0.0035715632
-1.5181393E-4
-0.005748161
-0.007281929
-0.006459771
-0.0074256305
-0.005300272
-4.864443E-4
-0.0026291676
-0.0052460185
0.0015859483
0.005222066
-4.257806E-4
-0.0026811503
-6.2971306E-4
0.0011512224
0.0043275584
0.004120769
0.0014061745
0.001918761
0.0028960758
0.005455746
0.0064641163
0.0010653213
-0.0026365407
-0.0048603574
-0.007463389
-0.0051743938
-0.0027819462
-0.0015734232
8.546535E-5
-4.6386739E-4
4.5496025E-4
0.0016268884
2.6891063E-4
6.145E-4
0.00232101
0.0028225638
0.0016709694
0.002557963
0.0072156596
0.0077008824
0.00297248
-0.0015027508
-0.0042122286
-0.002732752
-8.6971425E-4
-0.002246614
-0.0010764534
0.0021405849
0.0021818227
-5.2275806E-4
-0.0020120717
2.0909886E-4
5.712352E-4
-0.0036208392
-0.006044681
-0.00673163
-0.008243509
-0.007982554
-0.0061457134
-0.004282542
-0.0035663156
-0.0054072654
-0.006967723
-0.0066618966
-0.006627956
-0.0047722105
8.1277953E-4
0.0067159464
0.010429485
0.011538847
0.009715609
0.0040644766
-0.0021961513
-0.0016855809
8.4835984E-4
-0.0019385437
-0.0018007042
0.00394137
0.008322605
0.009494126
0.0034975244
-0.0063293264
-0.007795049
-0.003998895
-0.0017845245
0.0027725291
0.007825051
0.008152721
0.0057042288
0.0033329283
0.0036727262
0.0049796966
0.0023767846
9.6711586E-4
0.005116353
0.009932798
0.011815868
0.00882223
0.005467864
0.007882348
0.010240174
0.008963029
0.0065983916
0.001065201
-0.004709675
-0.0049671745
-0.0070158
-0.017473275
-0.02610251
-0.028644433
-0.033055797
-0.037416354
-0.038477093
-0.036614597
-0.030419031
-0.02523641
-0.02079326
-0.012173414
-0.0029632791
0.0065751504
0.017396685
0.033244494
0.05797078
0.07398003
0.06855127
0.05213331
0.03346796
0.019056302
0.010390764
0.005037471
0.004449444
-0.0024176443
-0.02623083
-0.054622106
-0.06795719
-0.06185773
-0.0426012
-0.013161928
0.0144241415
0.033933975
0.05571178
0.06724776
0.056102168
0.042189557
0.039990205
0.033575196
0.0015117669
-0.03626688
-0.039447643
-0.009020741
0.019119231
0.02058439
0.008910376
0.003620017
-1.7110215E-4
-0.017599335
-0.04980378
-0.0728083
-0.09136518
-0.121741995
-0.13559912
-0.12432601
-0.08710014
-0.019889804
0.03812263
0.06468388
0.05047674
0.013053131
0.014290534
0.036886677
0.041786578
0.053342696
0.059241395
0.044096887
0.06499151
0.13560979
0.1710866
0.15114594
0.11592105
0.03787506
-0.05804572
-0.10980986
-0.1434642
-0.16147095
-0.13423076
-0.073077925
-0.026353005
-0.032578263
-0.045656685
-0.04378542
-0.04769355
-0.026409145
-0.0056633856
-0.013806255
0.00783165
0.075748876
0.14382032
0.15518019
0.11334391
0.06666819
0.012869063
-0.023492303
-0.023016779
-0.02336699
-0.0170325
-0.012865919
-0.02340885
-0.017907208
-0.016630348
-0.03598822
-0.059260655
-0.054045707
-0.009722191
-0.011451015
-0.052769624
-0.05221942
-0.05529716
-0.07842492
-0.09206939
-0.0978428
-0.06767091
-0.015007201
0.049496867
0.13221669
0.18328056
0.18253984
0.13684851
0.0780139
0.03559685
-0.02318271
-0.07355521
-0.07589651
-0.043639198
0.004142426
0.009661368
-0.026590198
-0.06397996
-0.07079391
0.016497701
0.0902292
0.044135917
0.0072815297
0.010718453
0.015002492
0.049225837
0.055531826
0.032235075
0.021381658
-0.03250567
-0.109608054
-0.118199535
-0.042841587
0.045132402
0.08382406
0.10354476
0.105623364
0.055046063
-0.020411747
-0.108360946
-0.16846025
-0.13741465
-0.07707547
-0.062976696
-0.0942232
-0.13786538
-0.12688214
-0.056985322
0.014970241
0.06839208
0.10099266
0.12832123
0.15061241
0.15913896
0.15740992
0.09204533
0.0032986077
0.008621711
0.04263119
0.028393894
-0.005805987
-0.039984856
-0.022255639
0.034774683
0.08283332
0.12181763
0.08553073
-0.015076319
-0.09698286
-0.15857567
-0.1525398
-0.087379664
-0.05356392
-0.0211855
0.014234899
-0.014343328
-0.07465621
-0.090266846
-0.04727925
0.0048027853
0.029585974
0.040632658
0.048679017
0.054431863
0.057288494
0.056414388
0.056416787
0.05570229
0.052795794
0.049041606
0.042143628
0.025219277
-8.729251E-4
-0.019110404
-0.026544213
-0.030680986
-0.028809175
-0.024083834
-0.019760467
-0.014097531
-0.0071672825
9.3090686E-4
0.00595275
0.009094013
0.011966537
0.010553915
0.0077786115
0.0028790066
-0.0050522382
-0.014137962
-0.028999558
-0.04496059
-0.057095684
-0.065048136
-0.067176946
-0.06982452
-0.06445426
-0.047225058
-0.038309965
-0.03087302
-0.009527176
0.019914608
0.053328913
0.078491464
0.08593359
0.08311298
0.07212247
0.050837956
0.024030281
0.0067949584
0.0079883505
0.013279343
0.01962726
0.04607012
0.08206348
0.09325195
0.08743182
0.0839898
0.057792436
0.0022805587
-0.04963193
-0.08351458
-0.098392405
-0.09452607
-0.08336401
-0.07939495
-0.08572254
-0.09736455
-0.11793039
-0.13012661
-0.10009526
-0.03954718
0.011326681
0.02787724
0.022681236
0.032260068
0.051380694
0.057619955
0.063783884
0.082906574
0.10163885
0.086349376
0.035018083
-0.008414187
-0.027856577
-0.031410724
-0.021685777
-0.008239332
0.008415392
0.020782793
0.014326066
9.808493E-4
-0.0069260523
-0.0081372075
-0.0015710846
0.002916288
-0.0013680431
-0.008878292
-0.012358647
-0.0076129897
-0.0025023168
-0.0054637557
-0.0058592865
0.0032680356
0.012182394
0.021510903
0.03227677
0.031510368
0.02162327
0.014783536
0.010476214
0.0042431406
-0.005740349
-0.017526418
-0.029993089
-0.03865796
-0.038067006
-0.038246445
-0.041589208
-0.03836171
-0.029599667
-0.015159039
-5.0208304E-4
0.0036602868
0.0023783247
0.0010110246
0.00281242
0.010485838
0.018673675
0.028556652
0.039258383
0.044220496
0.043694977
0.031385195
0.0071361344
-0.009908599
-0.012861772
-0.011691551
-0.010364071
-0.008526156
-0.007799472
-0.005609228
0.0015345939
0.008333678
0.008771481
0.0060653216
0.0028754864
-7.960647E-4
0.0015802436
0.00833273
0.0052455976
-0.0036673632
-0.0038190805
-3.719266E-4
-5.978381E-4
-0.0022852947
-0.0062445556
-0.0094605815
-0.0044418727
0.007384917
0.016658712
0.019428626
0.019106848
0.018713027
0.018353317
0.013319087
0.005203217
0.0027704348
0.0010102537
-0.005799693
-0.012215143
-0.01568111
-0.013687737
-0.008962979
-0.008030379
-0.0074844505
-0.004738706
-3.591383E-4
0.0040098242
0.0045221425
0.0048819324
0.0070583024
0.0064739077
0.0048414827
0.005737404
0.006806774
0.0057081236
0.005591804
0.005546383
3.0347146E-4
-0.0046535255
-0.0041427403
-0.0036406857
-0.0047576632
-0.0048703398
-0.0033556903
-0.0013641219
-0.0013274526
-0.0018664773
-7.400044E-4
6.683917E-4
0.0015656563
0.0016685969
8.107033E-4
-6.625746E-4
-0.0025210867
-0.0028311473
-0.001229546
8.031309E-4
0.0033925094
0.0056324853
0.0070703123
0.007215149
0.0054411897
0.00559869
0.005495274
-1.0589474E-4
-0.004801087
-0.0053737955
-0.0061756326
-0.006468648
-0.0055628037
-0.004990026
-0.0052982504
-0.005523612
-0.005678959
-0.009261737
-0.01311237
-0.011142877
-0.0076410365
-0.0054747667
-0.0014163152
0.0025314342
0.004059866
0.0047285743
0.004552451
0.004494087
0.004886108
0.003986127
0.003682113
0.00396416
0.003650442
0.005297706
0.006250994
0.0042496365
0.0036236953
0.0047556586
0.0044559017
0.0025523233
0.0018545882
0.0025947688
0.0023342741
0.00185532
0.0019430899
0.0020916397
8.376067E-4
-0.0026328354
-0.0044533997
-0.004937014
-0.0063864873
-0.006084298
-0.0051968344
-0.00554902
-0.0045183026
-0.0012981994
6.2936E-4
-8.3203724E-4
-0.0017840255
-0.0011713633
-4.4393653E-4
8.375652E-4
3.0169713E-5
-0.0013644464
-0.0010197447
-0.0019132285
-0.0018203752
2.1437768E-4
1.4898379E-4
-7.096649E-4
-1.0182832E-4
-1.6518633E-4
-0.0013746843
-0.0012199188
-9.781525E-4
-0.0021464787
-0.0024256709
-0.0019681123
-6.64132E-4
2.126016E-4
-0.0011908198
6.126762E-4
0.0035984179
0.0021819843
0.0028358656
0.004933967
0.0034637244
0.0024516198
0.0018021385
0.0014815332
0.0034359114
0.0040111537
0.0033893518
0.0028584506
7.988759E-4
-0.001233301
-0.0028047466
-0.0037555594
-0.0026361174
-9.264661E-4
-1.8261038E-4
-0.0010173523
-0.0022469223
-0.0018234543
-0.001290171
-0.0013019466
-0.0011216479
-6.6652935E-4
0.0012746985
0.0024314483
0.0013175308
0.0012594339
0.0020278168
0.0016217793
4.3275408E-4
-4.0884255E-4
-8.634181E-5
-5.109519E-4
-0.002166807
-0.0025598719
-0.00230825
-0.0027118118
-0.0028722421
-0.0029675155
-0.0034913754
-0.0031661354
-0.0016975167
-8.9912815E-4
-3.703193E-4
0.0012265353
0.0013667673
-5.6744943E-4
-0.0013496022
-0.0014305568
-9.4343646E-4
0.0017897469
0.004334556
0.0066421162
0.009385117
0.0097217085
0.0085541615
0.006309672
0.0035777446
0.0023557534
-0.0018689459
-0.007569738
-0.007237132
-0.0042333407
-0.0037511059
-0.0041224915
-0.0034832235
-0.0028548536
-0.0022986995
-9.574627E-4
-0.0013926938
-0.0024207262
-8.547705E-4
-5.314996E-5
-0.0010809255
-0.0019700713
-0.0028374502
-0.0029784762
-0.002442368
-0.0018227422
-5.42721E-4
0.0017346997
0.0037586961
0.004125606
0.0033900815
0.0015952344
-2.5978909E-4
-5.6862825E-4
-9.96392E-4
-0.002188927
-0.002231603
-8.76711E-5
0.0018066379
8.319921E-4
-4.3217988E-5
2.0635674E-4
-4.7375972E-4
-4.9729962E-5
0.001731183
0.0025671062
0.002468967
0.0019469002
0.0018465087
0.0025574355
0.0022341246
4.533717E-4
-4.4861727E-4
-9.37876E-4
-0.00199997
-0.0014227025
-6.9454916E-5
-5.278601E-4
-0.0015748284
-0.0014820178
-0.0017483168
-0.0025221976
-6.7706674E-4
6.274835E-4
-0.0014143772
-0.0012334432
2.5984013E-4
-9.732768E-5
-1.0189747E-4
-6.011461E-4
-0.001030321
-4.5831484E-4
-4.1261638E-4
5.1844E-5
0.0010175495
9.298869E-4
-3.5542808E-4
-6.2190235E-4
-5.7967217E-4
-0.002041788
-0.0011830616
8.056855E-4
8.680147E-4
5.719201E-4
-3.5179616E-4
4.1279272E-4
1.9281104E-4
-0.002942941
-0.0015898639
2.868602E-4
-6.235444E-4
2.2138267E-4
9.733452E-5
4.914152E-4
0.001654545
4.669654E-4
6.8334927E-4
0.0014747287
8.9231273E-4
9.796305E-4
0.002180891
0.002584865
-2.9028783E-5
-9.721105E-4
7.7596004E-4
5.7393557E-4
7.8895304E-4
6.448363E-4
-0.0012830982
-0.0017828586
-0.0021177817
-0.0017002946
8.124137E-5
7.955658E-4
0.001367418
9.973862E-4
-5.062477E-4
-8.7915594E-4
-0.0018238199
-0.003313527
-0.0026103396
-8.183224E-4
-2.7526628E-6
-9.175758E-5
-2.2623726E-4
2.898586E-4
5.552639E-4
-6.3917326E-4
-0.0013887408
1.3662154E-4
0.0018409764
0.0016553366
7.663574E-4
7.74354E-4
4.6918436E-4
-6.446953E-4
-3.6085316E-4
4.806093E-4
1.0564379E-4
-6.9473626E-4
-0.0016347484
-0.0016585676
-0.0012672548
-0.0015519498
-4.268903E-5
0.0017230498
9.359825E-4
-7.445615E-5
5.975028E-4
0.0026420697
0.0025609694
-4.2499607E-5
1.0808155E-4
0.0010388556
-2.4698875E-4
-4.251293E-4
6.0291344E-4
0.0012802948
1.7273254E-4
-0.0020631326
-0.0014898019
-4.3891615E-4
-0.0013220883
-0.0010197873
-2.690559E-4
-5.4013974E-4
-5.1275984E-4
-2.5476963E-4
-9.816332E-4
-0.0020249991
-8.555113E-4
5.15752E-4
-5.227831E-4
-6.112038E-4
-2.3645665E-5
-0.0011004301
-4.692437E-4
0.0011462307
4.0660254E-4
3.3938623E-4
0.0011139086
1.9470498E-4
-2.7764754E-4
-3.534616E-5
4.5312216E-4
0.0013298836
-1.0420748E-4
-0.0013501386
5.9961993E-4
0.0013433851
-3.3626487E-4
-8.658357E-4
-3.8241687E-5
-5.8758317E-4
-0.0012280843
3.8245186E-4
0.0015199506
0.0021943045
0.0026179363
8.368379E-4
2.5527884E-4
0.0015489797
0.0024901738
0.0025759921
0.0011658245
4.7421266E-4
6.438364E-5
-7.4456807E-4
-0.0015478163
-0.003902141
-0.0035636714
-0.0017552841
-0.001652059
-3.163098E-4
-0.0031454852
-0.0063315094
-0.0020627999
8.511166E-4
6.708964E-4
-1.1376529E-4
-0.002016608
-0.0013198593
-8.108219E-4
-0.0015535015
-0.0015506197
-0.001767868
7.398372E-4
0.0043645813
0.004534902
0.0028364977
0.0028058563
0.004284084
0.003616462
0.0024517756
0.002745931
0.0020996318
0.0013355042
2.5318709E-4
-9.0455706E-4
-9.418291E-5
6.4097246E-4
-2.1647726E-4
-0.0014915586
-0.0016453848
-0.0014810804
-0.0017681482
-0.0010068663
-6.657232E-4
-4.9068924E-4
6.6751425E-5
-0.0012914543
-0.0019736898
-9.1423723E-4
-1.06737556E-4
2.0809381E-4
-7.232404E-4
-0.0011627559
-7.723452E-4
-8.811421E-4
-0.0010565103
-0.002116135
-0.0015384039
0.0014319022
0.0017332182
2.166265E-4
3.4649004E-4
4.92107E-4
-1.20907345E-4
-2.8375565E-5
2.2496458E-4
7.2715025E-5
1.20646626E-4
2.49784E-4
4.830338E-4
7.26185E-4
9.499156E-4
4.401009E-4
-4.8890716E-4
6.9188623E-4
0.0012415256
-1.6318946E-4
3.7598627E-4
0.0010877604
0.001258437
0.0013601932
-1.7940455E-4
6.974993E-5
8.995804E-4
-9.225289E-4
-0.0016544526
-0.0010982528
-0.0012562149
-3.5711503E-4
0.0012609407
3.962806E-4
-9.901015E-4
3.9487347E-4
0.0010945392
0.0010300011
0.0017825911
7.95366E-4
4.0263083E-4
9.6185337E-4
6.552291E-5
-7.746365E-4
-0.001577446
-0.0010404722
-1.5002872E-4
-0.001932397
-0.0020057561
-1.5457529E-4
-0.0010229737
-0.0020688404
-5.3470966E-4
0.0014093339
7.9664786E-4
-0.002139287
-0.00375858
-0.0029833366
-0.0013462093
3.9770294E-4
8.518207E-4
1.3854697E-4
0.0010245381
0.0024720784
0.0014402849
8.4993284E-5
6.964165E-4
9.954112E-4
-1.1625934E-4
-1.2417606E-4
0.0010558568
7.5278996E-4
1.6563998E-4
0.0012047625
0.0021880418
0.0020645268
0.001114785
2.7562215E-4
5.9994624E-4
6.336777E-4
-0.001150107
-0.0025501333
-8.399477E-4
0.0011276425
1.7109248E-4
-9.415905E-4
-8.640809E-4
-3.640233E-5
0.001342235
5.164823E-4
-0.0010258663
-8.4433076E-4
-4.314633E-4
4.4840114E-4
-2.0047619E-4
-0.001857817
-8.475185E-4
-0.0011391952
-0.0025472248
-0.0012296636
-8.9265546E-4
-0.0010487568
4.2282548E-4
4.1141134E-4
-7.890452E-4
-5.15584E-4
0.0012246468
0.0010801782
-8.8429864E-4
-6.778726E-4
-1.66521E-4
1.3172017E-4
0.0015968329
9.850318E-4
3.458035E-4
0.0020123443
0.002077367
-1.4275507E-4
-0.0010172831
7.175322E-4
6.2311045E-4
-6.07563E-4
0.0014380766
0.0016139504
-3.612651E-4
3.162181E-4
4.0183772E-4
3.6038438E-4
0.0016182887
4.7980828E-4
-0.0022110573
-0.0026479212
1.1446122E-4
0.0025870502
0.0022448702
8.507837E-4
-0.0011185382
-0.0026790171
-0.0022730967
-7.7872735E-4
6.693049E-4
9.156176E-4
3.8434935E-4
-1.1831995E-4
-8.0740603E-4
-6.6308083E-4
2.4304925E-4
6.708384E-4
-1.890151E-4
-0.0022340866
-0.0027495658
-5.113617E-4
7.502908E-4
-3.9834413E-4
-1.04244384E-4
9.767E-4
7.788165E-4
0.0016356595
7.608477E-4
-0.0020135762
-0.0013126349
3.365206E-5
4.6243233E-4
0.0014613105
7.785538E-4
6.3931046E-4
0.0018102333
0.0016164487
0.0010569658
-4.6722074E-5
-0.0017997812
-0.0025735085
-0.0016718261
2.7984253E-4
0.0010606415
9.4447716E-4
0.0011037884
3.1690035E-4
-7.7769253E-4
2.0322115E-4
0.0018405805
5.0374045E-4
-0.0011366938
-0.0012686314
-0.002855304
-0.00192203
9.2877285E-4
-5.5461976E-4
-0.0010006018
0.0016328155
0.002051048
0.0019553693
0.0017179863
8.549575E-5
2.0517813E-4
0.0017724986
0.0018378412
5.841678E-4
-6.5258495E-4
-8.276707E-4
-1.9007438E-4
-7.663912E-4
-0.0021339643
-0.0019637467
-8.509441E-4
2.8746055E-5
0.0011956654
0.002513669
0.0017223884
-0.0016733176
-0.0023815883
-1.7585962E-4
-0.001254792
-0.0022430515
-1.4248643E-4
-6.3144596E-4
-0.0015059203
-1.2239747E-4
-8.394928E-4
-0.0014379116
1.703506E-4
8.3119224E-4
0.0011499787
0.0015731703
0.0010018026
5.598209E-4
8.840734E-4
0.001143882
8.6016237E-4
7.731922E-4
6.5118604E-4
-3.437143E-4
-0.0013289466
-9.0077333E-4
0.0010185741
0.0014451556
5.5914634E-4
0.001011174
-4.347614E-4
-0.0018342489
5.7192886E-4
0.0012354052
2.8557327E-4
1.6989687E-4
-5.8648514E-4
7.879639E-4
0.0020844801
4.6990623E-4
-2.721398E-4
-8.1016746E-4
-0.0024386032
-0.002580939
-7.1573217E-4
4.048588E-4
-3.741891E-4
3.6177319E-4
0.0014203894
2.737099E-4
6.994425E-4
0.0011101608
-9.735984E-4
-0.0012557565
-3.9710714E-5
4.8155664E-4
9.2889584E-4
9.1090286E-4
8.7698415E-4
-9.3266535E-5
-0.0019892973
-0.0018677713
-0.0010531716
-4.4491322E-4
8.483044E-4
7.9731626E-4
-1.19658165E-4
-0.0011384307
-0.002025722
-0.0015689746
-0.0015991626
-5.662245E-4
0.0021371054
0.0015999294
-1.619006E-4
-5.6888E-4
-0.001357438
-9.238506E-4
-1.8180079E-5
1.5556315E-4
7.9814E-4
6.522773E-4
6.3672074E-4
0.001928693
0.00299821
0.0038394348
0.0038042886
0.0029765633
0.0026451754
0.001383849
-7.040228E-4
-0.0015441511
-6.812264E-4
9.815794E-4
0.0011309928
-8.713417E-4
-0.002881857
-0.0034364467
-0.003017453
-0.0026373465
-0.0018628938
-0.0010165862
-0.0012225291
-0.0017148299
-0.0018327658
-5.119686E-4
9.654369E-4
-3.3910785E-4
-0.0012941037
-6.5112836E-4