-0.014877998
-0.0107520595
-0.005640186
-0.0016810796
3.2922582E-4
0.0021855147
0.0018866673
0.0013406232
0.0012041938
-0.0013766619
-0.0040073097
-0.0069824555
-0.008303027
-0.005626729
-0.0025207512
0.0040432937
0.010449043
0.009187616
0.007007971
0.008960383
0.011549406
0.008768997
0.00357078
0.0025151256
2.561416E-4
-9.818778E-4
-2.0607436E-4
-0.0039996053
-0.0046831723
-0.0029100692
-0.0041302326
-0.0039222226
-0.005517261
-0.0077115246
-0.006113022
-0.003777817
-0.0030036885
-0.003336487
0.0015730299
0.01049415
0.013655429
0.010623789
0.005837889
0.001948799
-0.0011515394
-1.6554815E-4
0.0066129873
0.007992657
7.6121703E-4
-0.002914791
0.0038353833
0.011369242
0.0065277414
-0.003820991
-0.0070562065
-0.0058167996
-0.007012085
-0.010524091
-0.009724493
-0.0050874148
-0.004886381
-0.007128103
-0.0055735204
-0.004280687
-0.006630598
-0.0079683475
-0.008029131
-0.008407824
-0.00811505
-0.009293853
-0.009215797
-0.0049078837
5.611304E-4
0.006293076
0.011499176
0.016938003
0.021228326
0.019609878
0.012807889
0.004811948
0.0018400467
0.001601273
-0.0013513579
-2.970877E-4
0.0036214388
0.0061228145
0.009980553
0.011467806
0.010373294
0.009320876
0.008629614
0.007775136
0.0011598
-0.0076105343
-0.010596728
-0.010227731
-0.009232329
-0.009824623
-0.015899003
-0.022161253
-0.017145123
-0.005741173
-0.0013916047
-0.00162148
-0.0013130326
-6.135696E-4
-0.001216453
-0.005868856
-0.007940049
-0.004331551
-0.0014110374
-0.0014056708
-0.0027890578
8.388075E-4
0.008644734
0.010178095
0.0065489463
0.0038235427
5.99911E-4
-0.0047493405
-0.006069332
0.0012798798
0.007939187
0.010000984
0.013124229
0.013809046
0.012933539
0.014324175
0.0086920345
-0.002443156
-0.007095143
-0.008868005
-0.009801375
-0.006102493
-0.003698783
-0.0030677873
-0.0010900542
-6.849614E-4
-0.0020627456
-0.0038573686
-0.0010231566
0.0044082687
0.0018822929
-0.0022435682
-0.0024675594
-0.004865028
-0.0056919446
-0.004206764
-0.0037980385
-0.0031327717
-0.0049326746
-0.004573674
0.0029140504
0.006690184
0.0054724663
0.011054585
0.020302644
0.020685896
0.0097045535
-0.0032018442
-0.009111164
-0.011227251
-0.011094351
-0.006074598
-0.002759645
-0.0035000702
-0.0042793057
-0.0049902275
-0.0055270204
-0.0073365876
-0.0076430733
-0.002777632
4.2535056E-4
-8.820384E-4
-3.7383218E-4
0.0039790627
0.005287302
0.0017997925
0.0019063049
0.0030366636
0.0016397196
0.0029619383
0.002471304
1.9861733E-4
0.0018651603
0.004161479
0.0051247184
0.0030235988
3.9858587E-5
0.0010099198
0.003136913
0.0032225787
-0.0012714204
-0.0041843783
-5.803863E-4
-8.412774E-4
-0.003026065
-0.0022986077
-0.0049356776
-0.007051013
-0.006563031
-0.0039102803
0.003692064
0.008804758
0.008344041
0.007837861
0.00815666
0.007769602
0.0066452357
0.0048357034
5.005459E-4
-0.0029839152
-0.0019318467
2.9560571E-5
0.001961945
7.296628E-4
-0.0040291147
-0.0034075067
-8.2190585E-4
-0.002297642
-0.003004078
-0.004529112
-0.0082215965
-0.00890294
-0.007281004
-0.0048720534
-0.0027914143
-0.0040838765
-0.0045516198
-0.0032929864
-0.005533802
-0.006238484
-0.0025134184
6.906222E-4
0.0033049225
0.0053573353
0.0060248123
0.0036925727
2.1060277E-4
0.0026249
0.00551529
0.0041378113
0.0041185627
0.003028931
0.0018907123
0.0045405733
0.007877693
0.010557587
0.0068527698
0.0013613403
0.004972992
0.00580353
0.0018781129
0.0035933189
9.4292714E-4
-0.0051011634
-0.0022710075
6.6057226E-4
-0.0052648378
-0.012805595
-0.011881963
-0.0051557543
-0.004187655
-0.0075104902
-0.007420768
-0.005543802
-0.004249356
-0.0017073953
0.0012016364
0.0011808963
0.0017898094
0.0041062357
0.0023662623
6.4850226E-4
-4.3702614E-4
-0.004963371
-0.0049405834
-0.001443549
1.08384054E-4
0.0044658617
0.008893024
0.009998878
0.008581194
0.005617276
0.005363077
0.0052854125
0.0037005036
0.0034774553
0.0014996066
-0.0026447983
-0.0059962645
-0.0070540397
-0.0066613946
-0.0073480452
-0.0067531243
-0.0031912313
0.0015595286
0.003022041
-8.3411485E-4
-0.0015102996
0.0011578923
4.1027114E-4
-9.4687816E-4
-0.0024170936
-0.0041834586
-0.005097767
-0.0053935186
-0.002521621
1.1779551E-4
0.0013718097
0.005614846
0.009150671
0.00828949
0.004209349
6.7773415E-4
4.851968E-4
5.4506573E-4
2.6133846E-4
0.001992531
0.0048638796
0.005314605
0.0027484673
3.5993318E-4
-0.0031404383
-0.006583915
-0.0067208637
-0.006135983
-0.0027510314
0.0024771548
0.003226
0.0017502868
4.8226782E-4
9.6520664E-5
0.0016088719
0.002922968
0.004001458
0.0043031876
0.0018320824
-0.0030140188
-0.0070445742
-0.007366981
-0.006264516
-0.0044659013
-6.223481E-5
0.005192932
0.0075387256
0.004819515
4.6516306E-4
-0.0034475045
-0.0065868255
-0.005516015
-0.0038161632
-0.0031205562
1.4911176E-4
0.0019759366
0.0018335668
0.0028473705
0.0033281697
0.0012438127
-0.0018852159
1.4810899E-4
0.004908721
0.005867273
0.005631135
0.00420362
0.003057425
0.004551585
0.0027398504
-0.0029733507
-0.007418657
-0.0063378178
-0.002512593
-0.004246085
-0.0066470783
-0.004334123
-0.0015147548
0.0018801006
0.0035163718
0.0022650578
0.0013971021
-5.418902E-4
-7.00932E-4
0.0022970517
0.002454851
0.0012793909
0.0036380868
0.0071284347
0.007535943
0.00434729
-7.968046E-4
-0.0035638623
-0.001753003
-0.0017828236
-0.0048034973
-0.0049022185
-0.0029687197
-0.0016181244
-0.0017111428
-0.0025247969
-0.0024720796
-0.003170275
-0.0036952994
-0.002670312
-6.2521145E-4
0.002605765
0.0046497607
0.004463525
0.003044466
0.0015675505
9.88781E-4
8.8146614E-4
0.0019116931
0.0027273013
0.0030644685
0.0026252468
-6.451516E-4
-0.0010887837
0.0017259803
0.002440137
0.0015546754
-0.0036589555
-0.008704277
-0.0069130096
-0.0049676686
-0.0044875345
-0.0031839965
-0.0026145226
-0.002494282
-0.0019712248
0.0018307549
0.0067979745
0.007869784
0.006909707
0.0062178317
0.006893492
0.008396412
0.009412644
0.008180872
7.2088314E-4
-0.0057332525
-0.004111364
-0.003765825
-0.00517023
-9.533188E-4
0.0023393366
8.324642E-4
1.2546641E-4
-7.6795375E-4
-0.004069584
-0.005529784
-0.005192302
-0.005936053
-0.0052692066
-0.0048595993
-0.0067420723
-0.0054708016
-0.0028370458
-0.0035562331
-0.0046075075
-0.0037732883
-0.0011452253
0.0016355608
0.00465288
0.0075796046
0.008144025
0.009351517
0.0076393494
0.0041874764
0.007103547
0.0025168913
-0.007355822
-0.0030431463
0.0027468693
0.003507566
0.007967119
0.009877246
0.008657166
0.0075853877
0.004571201
-3.3868774E-4
-0.005397372
-0.007503919
-0.0061606644
-0.002274555
-8.023004E-4
-0.0032945185
-0.0020461672
-5.969773E-4
-0.0041229455
-0.006736267
-0.0064475182
-0.0047527887
-0.0037765736
-0.0028874357
-8.0843054E-4
-1.4750891E-4
9.472335E-4
0.0020981554
0.0011247481
0.0014518116
0.003234351
0.005572538
0.0073582907
0.007021424
0.00594105
0.0023625048
-0.0018535733
-0.0013179277
4.7634996E-5
-0.0020219337
-0.0048280787
-0.005238241
-0.0023724206
6.7199016E-6
-1.0528419E-6
0.0021494054
0.004926041
0.0029934088
-0.002138334
-0.007943315
-0.01174141
-0.010947208
-0.008255312
-0.0058084964
-0.0016121819
0.0055175205
0.013211399
0.016770381
0.014371844
0.010338986
0.006845381
0.0016046715
-0.0012925171
-3.702241E-4
-0.0014201181
-0.0031782836
-0.0038391473
-0.0022372494
6.749398E-4
-0.0023847674
-0.0069029178
-0.009484555
-0.013014715
-0.009144174
-0.0023680804
-0.002939381
-3.6526556E-4
0.009197336
0.011851404
0.005635075
0.0042449962
0.0059231226
2.8499385E-4
-0.005000886
-0.0044180914
-0.0021389269
0.0025586116
0.007003246
0.0055771107
0.0034747885
0.00778804
0.007913929
-0.0011939968
-0.003962186
3.1117944E-4
0.0034251853
0.005624367
0.0034163168
0.0015660811
0.0036027434
-4.4957342E-4
-0.0073755826
-0.007333959
-0.0050616236
-0.0057380935
-0.007568632
-0.010517447
-0.01262513
-0.012051638
-0.01202659
-0.011404608
-0.009379709
-0.0068868897
-0.0025131574
-8.4334904E-5
0.0014053663
0.003510251
0.0024307647
0.0031523071
0.005245001
0.0055143633
0.008581955
0.011565802
0.012774879
0.014246893
0.016100766
0.01913742
0.021681719
0.024631258
0.022964094
0.014954648
0.010895746
0.007383429
0.0042438097
0.0036289257
-0.010087321
-0.03167494
-0.04247911
-0.042056885
-0.033373814
-0.020872183
-0.011124671
-0.0077021215
-0.007414085
-0.0035305645
7.964011E-4
0.002886836
0.004378465
0.0036892642
0.00284735
0.004244232
0.007186784
0.008451107
0.0074497215
0.008362449
0.007403622
0.004108319
0.005872759
0.009282548
0.009418224
0.0072930367
0.0040937136
0.0024756652
0.001619568
-0.001115565
-0.0050005973
-0.0084507875
-0.0090691205
-0.0072557856
-0.0067318943
-0.005201184
1.812638E-4
0.003563688
0.0029880297
0.0031802258
0.0042926623
0.0035128593
1.7108666E-4
-0.0010072332
0.001098759
7.0064893E-4
6.0120143E-4
0.0016775295
-0.0010118743
3.335496E-4
0.00781966
0.007864856
-3.6401878E-4
-0.0056250924
-0.00789267
-0.008368618
-0.0014847897
0.004831485
0.00388863
0.004387333
0.005558015
0.0052165454
0.0072678034
0.007177043
0.0038396188
-9.991647E-4
-0.008718698
-0.013352434
-0.011568112
-0.009435142
-0.009325201
-0.00816676
-0.005039244
-0.0030831667
-0.0057803793
-0.008175464
-0.003282931
0.0025743637
0.0044535976
0.006307727
0.0070269126
0.0072442424
0.008922046
0.01029716
0.012024128
0.012471529
0.011578885
0.011566746
0.011359459
0.010933387
0.008001391
0.0031624406
-0.0014503237
-0.01035701
-0.019616785
-0.022432916
-0.021780198
-0.019422166
-0.015332074
-0.01005214
-0.0045675677
-6.472709E-4
0.0012242612
5.576622E-4
3.3949305E-5
0.0013255588
0.0023759163
0.0024966272
-6.928901E-4
-0.0032386554
0.0012311323
0.007978441
0.014416128
0.020487431
0.024151927
0.026894948
0.026534291
0.021905366
0.012724512
-0.0032649396
-0.017336216
-0.02106521
-0.019677551
-0.021597903
-0.02355559
-0.015771028
-0.0080112945
-0.008963059
-0.006067456
-9.916472E-4
-6.9108215E-4
0.0013985065
0.0024026218
3.7861758E-4
-8.693215E-4
-0.004774297
-0.0065921033
-0.0024875551
1.7011567E-5
0.0032957175
0.00841848
0.008661581
0.009111578
0.012897365
0.015322826
0.015547502
0.014412856
0.012807873
0.0045361286
-0.0069663464
-0.007427198
-0.0064499844
-0.011289864
-0.012743514
-0.012281461
-0.008653036
-0.0028210068
-0.003005857
-0.0068045296
-0.005876979
3.1850196E-4
6.009847E-5
-4.25078E-4
0.008857653
0.009379041
0.004402196
0.0063111307
0.003683977
-5.099253E-4
-0.0022293394
-0.0020737892
0.0027245614
0.0038673421
0.0016070034
-0.0027538135
-0.008317882
-0.0038973205
0.0035432598
0.003909439
0.0022291518
7.210725E-4
1.8743383E-4
-0.0010474195
-0.0056071053
-0.009632306
-0.008117031
-0.0027643575
-0.0011342557
-0.002076911
-5.6971627E-4
8.7716396E-4
0.0034315826
0.0072402116
0.0064702868
0.0031880366
0.0018435265
0.0010893452
0.0018379622
0.0040793815
0.0041876053
0.0026838472
6.71467E-4
-7.687925E-4
1.6841484E-4
-0.0013327311
-0.0049686334
-0.002106647
0.0019116953
-0.002529629
-0.0057531665
-2.2894697E-4
0.0032301527
-3.766837E-4
-0.0047738547
-0.0062717744
-0.0063185613
-0.007085812
-0.003933858
0.003337955
0.005374116
0.0029825491
0.0020141923
0.0034684092
0.007001509
0.0070998007
0.0018347015
-0.0025820981
-0.0028663797
-0.0015154746
-7.642066E-5
0.0016423415
9.7136945E-4
5.181742E-4
0.002175591
3.3393363E-4
-0.0012489156
-5.2967144E-4
-7.449041E-4
0.0014911735
0.0015822496
-0.0012924412
-5.724951E-4
8.4628264E-4
0.002290318
0.0013587493
-0.004171108
-0.006729523
-0.0049975114
-0.0018897171
2.7829027E-4
8.457274E-4
0.0029313331
0.003788096
0.0035751015
0.002847427
-0.002529081
-0.005433481
-0.004098964
-0.005130547
-0.0041610417
-6.096123E-4
0.0014342346
0.0024160321
0.0021405672
0.0013034161
-7.543986E-4
-0.0012231834
7.422772E-5
-0.0050353366
-0.0077306977
-2.1412494E-4
0.0051273736
0.0064905244
0.005559909
0.0022346121
0.0026807631
0.0028405297
0.0022041157
0.003085522
6.388615E-4
-4.4862073E-4
-6.826159E-5
-0.0016040163
-0.0014179774
-0.0023359056
-0.0024225845
0.001530265
0.003982295
0.0040277005
0.0029731307
0.0015539441
-3.38036E-4
-0.0019530862
1.5465138E-4
0.002024815
3.627101E-4
-0.001472028
-0.0033098552
-0.0045886165
-0.0038978455
-0.0051211966
-0.008551525
-0.0062297275
-8.3980645E-4
-0.0016759007
-0.0030307078
-5.529058E-4
0.002098482
0.0038131417
0.00139909
-0.0015092234
-8.678198E-4
-7.7410333E-4
-4.4676234E-4
-8.233313E-4
-0.0015315249
5.3380884E-4
7.7998044E-4
0.0013018386
0.0043867934
0.0050204387
0.0056129703
0.006657616
0.004708822
5.824502E-4
-0.0019333038
2.72221E-4
-8.716209E-4
-0.007817895
-0.010655285
-0.0131902
-0.01617554
-0.009302251
7.6782505E-4
0.0044925464
0.003965923
0.0030578137
0.0049775005
0.0069591566
0.0074394564
0.009141343
0.008541179
0.005477518
0.0064525474
0.01252818
0.017194811
0.01684859
0.0155879995
0.010772762
0.0023838892
5.539049E-4
0.0014473926
-6.9394585E-4
-0.0054350463
-0.016550338
-0.02392434
-0.020139372
-0.01595
-0.0134470435
-0.0081604635
-5.0950126E-4
0.0060764174
0.008857611
0.010055748
0.00857722
0.00255486
-0.0035135937
-0.0075366916
-0.01570938
-0.03173866
-0.043169804
-0.040342998
-0.029903226
-0.01653284
-0.0041153627
0.0044711567
0.01075163
0.012371178
0.01356982
0.017001424
0.017373456
0.017002363
0.012812251
0.0065665464
0.010761627
0.014930268
0.011407351
0.0140988855
0.02313866
0.03020864
0.03392562
0.04086915
0.059043966
0.0781956
0.07834327
0.04644682
-0.0031378316
-0.031065416
-0.036081955
-0.048925444
-0.070105284
-0.08467806
-0.0849895
-0.07004299
-0.051036764
-0.035538483
-0.023594005
-0.018274637
-0.017836504
-0.015851526
-0.011936908
-0.0083977245
-0.0030771976
0.004891808
0.01156201
0.016570767
0.022314452
0.026512759
0.028806321
0.03224422
0.03423056
0.033018008
0.031059176
0.02775427
0.023296913
0.019280322
0.016418424
0.014320125
0.010512064
0.005831409
0.0024240403
4.310494E-4
-0.0054110764
-0.020135188
-0.029959165
-0.026797429
-0.021454
-0.014425506
-0.008503024
-0.0073838895
-7.5217255E-4
0.008199043
0.010511288
0.009233895
0.0074580633
0.006620427
0.0043106526
-0.0025742766
-0.010794046
-0.013828435
-0.013216613
-0.018280078
-0.022246916
-0.016412077
-0.010160207
-0.006657227
-0.0038081584
-0.0020441744
3.4275086E-4
0.0014694778
0.0036718294
0.007928167
0.010187965
0.012871356
0.014488728
0.012041425
0.008107402
0.0031999305
1.7599721E-4
0.0014376441
0.0046287277
0.007144201
0.007264705
0.0075332434
0.0061243535
-0.0016555286
-0.0056861257
-0.0014439657
-0.0013768038
-0.0043374016
-0.0026017867
-0.0011750883
-0.0022367283
-0.0029398897
-0.0028486154
-0.0032029117
-0.004609816
-0.003412574
-4.4778312E-4
-7.243362E-4
-0.0028382726
-0.0037745894
-0.0022527424
4.4457888E-4
0.0015533717
0.0018554634
0.0015012498
-1.15284805E-4
-7.90549E-4
2.0863373E-4
2.1419517E-6
-0.0021065788
-0.0014355065
0.0025721965
0.0041662226
0.0014293061
-0.0020077177
-0.0022518595
-3.2877803E-4
2.7292184E-4
-1.4354281E-4
0.0011840113
0.0052226037
0.00910817
0.009636357
0.005563518
-9.7418745E-4
-0.004162726
-0.0040880274
-0.0033885965
-0.0012277728
-7.645688E-4
-0.0013961268
4.230647E-4
7.7657116E-4
-0.0013837533
-0.002633812
-0.002635849
-0.0024796326
-0.0021416878
-0.0014882112
-0.001993581
-0.0014160763
8.546993E-4
-9.6938515E-4
-0.0034791026
-0.0015776264
-1.9046322E-4
0.0011554735
0.0033539522
0.001836442
0.0016866743
0.006139738
0.0070696445
0.0047562714
0.0029791757
-0.0023898866
-0.007035946
-0.004352039
-0.0012363363
-0.0012357752
1.0400122E-4
0.0016093065
0.0022805526
0.0033556854
0.001549505
-0.0019210024
-0.0024206908
-0.002148444
-9.8347E-4
0.0016301981
0.0010970741
7.7982293E-4
0.0033823708
0.0034384888
0.0037119836
0.0055853897
8.2592503E-4
-0.006158894
-0.005268092
-0.003185583
-0.0042268294
-0.0014511447
0.0012906182
0.0010576762
0.0022030668
-0.0013054367
-0.0066149044
-0.0035531223
0.0011913603
0.0030014755
0.0034222077
0.0017657526
0.001356163
3.2554648E-4
-0.0031292965
-0.003469997
-3.1280285E-4
0.0022038505
0.0027286932
0.0028826245
0.0021799386
0.0013888961
0.004223702
0.005840315
0.0026045484
-7.5437385E-4
-0.002404513
-0.0024416102
-0.0042288494
-0.008253403
-0.007655054
-0.0030492295
2.2704738E-4
2.1487809E-4
-0.0016531395
-0.0019356287
-0.0015529167
-8.306268E-4
-3.485531E-6
-0.0014114762
-0.0012696738
0.0018545493
0.0043656216
0.0056262347
0.0049547893
0.0031446612
7.996219E-4
-0.0017451913
-7.2152296E-5
0.003975602
0.0048736385
0.004489918
0.004691399
0.0050501344
0.003621275
1.4624912E-5
-5.3961645E-4
-7.558606E-4
-0.0046596904
-0.006332271
-0.0050580846
-0.0018880082
0.0010294412
-6.994801E-4
-0.0021949222
-0.0039450857
-0.0066524097
-0.0046543656
-0.003687517
-0.0035824212
-1.3184467E-4
0.0020317025
0.0037889716
0.0032106605
-0.0016190683
-0.0053676227
-0.006578951
-0.0051586586
-0.0032814054
-0.002252865
-1.2100823E-4
0.0023962716
0.003851778
0.0024839258
0.002701567
0.0059892572
0.0050315843
0.0035422856
0.0045147026
0.0031452915
0.0023992064
0.0039484506
0.0036680144
1.06063795E-4
-0.0027619584
-0.0028333701
-8.1116374E-4
0.0055026715
0.009970622
0.008760288
0.010981068
0.015386285
0.011654768
-0.0021003827
-0.015737781
-0.01907514
-0.015641771
-0.010762066
-0.00713879
-0.006579289
-0.0045995195
-0.0012336015
-9.346415E-4
-0.0032093383
-0.0055453335
-0.0075870855
-0.009499365
-0.008268995
-0.0058711735
-0.005438995
-0.0017856633
0.0033367102
0.0052031307
0.0076106135
0.0095787365
0.0088979425
0.009224554
0.009696841
0.008252806
0.0074821874
0.008414976
0.010194891
0.012213384
0.012615483
0.009551814
0.005185617
0.0029067826
0.001706218
0.0016921902
0.0011480531
-0.0039341208
-0.00794403
-0.010663463
-0.016269831
-0.01648878
-0.0127334725
-0.013374162
-0.013482294
-0.009128019
-0.0054805903
-0.006511381
-0.006707451
-0.0050750338
-0.006443787
-0.0037414616
0.0029098832
0.005774882
0.008142482
0.008964894
0.005694723
0.004818127
0.010023753
0.01378919
0.009936373
0.007894436
0.01175343
0.012883279
0.009502673
0.0050597787
9.75313E-5
-0.0067817536
-0.008627564
-0.0025838104
-0.0014290798
-0.0049432446
-0.0054531577
-0.0035656982
-4.1956233E-4
-0.0032202245
-0.009759498
-0.011883681
-0.013915406
-0.014622422
-0.010554751
-0.0042453255
0.0012013086
0.0018518856
0.001613583
0.0041833757
0.006705692
0.00822495
0.00880643
0.009569147
0.009620298
0.007758578
0.005402802
0.0022589501
2.5607467E-5
-2.5709916E-4
-7.8181375E-4
-0.001482843
-9.055294E-4
7.305703E-4
7.240099E-4
-3.843178E-4
-3.7057465E-4
-0.0011284068
-0.0024529742
-0.0030266806
-0.0028001287
-0.0018215855
-0.0015470464
-0.0033500018
-0.007123965
-0.006164632
-5.6770793E-4
-0.0013040926
-0.0029586954
6.029333E-4
0.0020370577
0.0032421576
0.0044342913
0.0028696393
0.0032584681
0.0024250008
-9.1256184E-4
-5.0861837E-4
-4.2336516E-4
-0.0043813176
-0.004788188
9.281259E-5
0.0035088162
0.0045916243
0.0044246744
0.0025715076
6.98435E-4
-0.001955554
-0.004002576
-0.0033226311
-0.0018065209
0.0011801585
0.0041794996
0.0053955843
0.0060840426
0.004372227
7.1155076E-4
-0.0027415191
-0.004646928
-0.004352273
-0.0044550416
-0.0027486
0.00229429
0.0054709506
0.0049924785
0.0025913492
6.770383E-4
-0.0014304891
-0.0049206526
-0.005867909
-0.0045818575
-0.004071095
-0.002616388
5.099911E-4
0.0015827721
0.0026084434
0.010422965
0.014257968
0.005539239
-0.0022068261
-0.0053048306
-0.005503927
-0.0018992121
-0.002595563
-0.0048385533
-0.0036153742
-0.003975013
-0.0038183434
-0.0010879599
0.0016502412
0.004136354
0.0047193454
0.0015558767
-0.0018054253
-0.002539905
-0.004017679
-0.0040964666
-0.00220383
-0.0043684226
-0.004647478
-8.6742116E-4
4.3290987E-4
0.003955193
0.008498046
0.0064606266
0.0020046867
-5.355378E-4
-0.0014274232
0.0011501393
0.005989481
0.007719503
0.006071269
0.00450525
0.004466783
0.0034323477
-0.0048862942
-0.014292157
-0.013739486
-0.009649902
-0.0074768593
-0.0050018737
-0.0028426978
6.674627E-4
0.0047061443
0.0055174977
0.0026904547
7.399848E-4
0.0023426975
0.0012127034
-0.0011523559
2.7745703E-4
0.0012869708
0.004152814
0.0087971175
0.009685296
0.008775174
0.0057673315
0.002940857
0.003619304
0.0033059004
0.0021203668
-1.2451063E-4
-0.0040688817
-0.0050544743
-0.006385236
-0.0100805005
-0.011130798
-0.010864674
-0.010319954
-0.0089889765
-0.009228611
-0.00862471
-0.004900626
-0.0021827726
-0.0022287178
-0.0022994734
-0.0031851623
-0.005589425
-0.004201266
0.0019010637
0.0071513904
0.010070083
0.012778459
0.015402326
0.015101175
0.010725807
0.0060666623
0.005054111
0.006803297
0.005257654
-5.782825E-4
-0.0032541046
-0.0019858002
-0.0014410993
-0.0023339395
-0.005279962
-0.0073722415
-0.005654621
-0.0039135637
-4.5635033E-4
0.004717305
0.0027581505
-0.001701748
-9.078241E-4
-7.6098926E-4
-0.0011902348
-6.249155E-4
-0.0023496237
-0.0015699803
0.001825288
0.002440308
0.0018255671
0.0016366331
0.0034660024
0.0044564405
-0.0010055918
-0.006677233
-0.008160669
-0.009057254
-0.008765263
-0.007674817
-0.006692998
-0.0047606644
-0.0018865272
0.0022099493
0.00395699
0.001558326
4.749276E-4
0.0013975123
0.0010638448
0.0013773
0.003701789
0.006563908
0.010165072
0.011321267
0.00694433
0.0043135136
0.0065893345
0.006970133
0.006034263
0.005005233
-3.6429596E-4
-0.005754533
-0.0073213675
-0.009132458
-0.009551522
-0.0067314934
-0.004826128
-0.0042754347
-0.0032662016
-9.40679E-4
0.0025566781
0.0039937785
0.0025780958
4.4472073E-4
-9.4943825E-4
-0.0017624886
-0.004041965
-0.0055394266
-0.0035513209
2.8970613E-4
0.004783391
0.0067645246
0.005875935
0.0056475867
0.0061681736
0.005271991
0.0010055462
-0.0020159553
-0.003074385
-0.007825469
-0.010034142
-0.008059381
-0.0050117588
4.5717342E-4
-8.893437E-4
-0.004068207
0.002201039
0.006018604
0.0036685898
0.0021356826
0.004128964
0.008303306
0.006307398
0.0013824167
-0.0013659162
-0.005568169
-0.0074617243
-0.0069040423
-0.0056031025
-0.002562285
-0.0012183805
2.7670403E-4
0.0014716644
4.0176418E-4
0.0010398269
1.954498E-4
-0.002826175
-0.0020018735
5.058768E-4
6.007111E-4
3.0764533E-4
0.0012952104
1.17733885E-4
-0.0011520628
0.0029433863
0.0048323344
0.0014877866
0.0020028776
0.004788265
0.004226052
0.002067635
7.434495E-4
0.0010366844
0.0013080683
0.0011209782
8.6463615E-4
-6.045223E-4
-0.0020976262
-0.0033307038
-0.0038411121
-0.0024666945
-0.002007696
-0.0011339607
0.0013585342
8.886227E-4
-0.002090259
-0.0055008912
-0.0071921586
-0.005881314
-0.005148207
-0.0027517015
7.107213E-4
3.776791E-4
1.829382E-4
-5.613847E-4
-0.0024457676
-0.0016356657
-0.0014647739
-5.103488E-4
0.0021124543
0.002478714
0.0030228402
0.0038381703
0.004927127
0.0064018187
0.004757854
0.0022724336
0.0015484379
0.0030289637
0.0045817485
0.004243706
0.0073252306
0.009317995
0.004776018
0.001211427
-0.0015844988
-0.0028182755
-0.0017080089
-0.0063572093
-0.00936583
-0.005926142
-0.0050012376
-0.0032603208
3.048191E-4
-6.967334E-4
-0.004493724
-0.005334293
-0.0016142476
-0.0011413852
-0.0039419495
-0.0028293193
-0.0031209216
-0.004015177
-0.0029631406
-0.005954892
-0.0055841105
-2.9584396E-4
-3.021474E-4
-0.0018450168
-0.0015801501
-0.001803107
8.8243355E-4
0.0062414496
0.008955524
0.00921077
0.010369351
0.010595677
0.010184186
0.010065296
0.005199519
-0.0015344324
-0.0038144987
-0.0020193441
0.002083032
0.004975543
0.00638103
0.005818331
0.002804568
0.0017973151
-0.0011966091
-0.006073176
-0.0056496183
-0.0060910895
-0.00898581
-0.009170521
-0.010804452
-0.014181435
-0.013594712
-0.0078251045
-0.0013442821
0.001435684
0.001467541
0.0010761342
0.0011127797
0.001794134
0.0037013388
0.0049260342
0.0022960207
-5.5674324E-4
-8.297818E-4
-1.9921288E-4
0.0014734162
0.0025942065
0.0030954387
0.004027086
0.0036379497
0.0030525452
0.0030219266
0.0025654398
0.0023468432
0.0016673452
6.0549704E-4
6.514435E-4
3.646081E-4
3.984714E-5
0.0015767801
1.7843966E-4
-0.0032602353
-8.6616E-4
0.0024420419
0.0033189997
0.0050682235
0.0040473854
0.0032088186
0.004623006
0.0027076968
-3.7411306E-4
-0.00281925
-0.0042870524
-0.0036972314
-0.004954267
-0.007410175
-0.007125365
-0.005338604
-0.004743462
-0.004781832
-0.0053515346
-0.0075631826
-0.0071448204
-0.003300905
-0.0010852327
-8.5366366E-4
-9.569621E-4
7.694004E-4
0.0031406858
0.0036957406
0.0042617135
0.0036647287
0.0036474066
0.0057639
0.0055287434
0.0060103517
0.008468983
0.0084174555
0.007189882
0.0046144067
9.759293E-5
-0.002705244
-0.002127098
-4.7362363E-4
-5.330845E-4
-0.0014816376
-0.0011470835
5.9784565E-4
5.5254815E-4
-0.0032526185
-0.00698674
-0.008031107
-0.0061317715
-0.003542054
-0.003657327
-0.002571615
6.667694E-4
0.0010478601
4.0968502E-4
5.173241E-4
-5.35059E-4
-3.345749E-4
0.0014691545
0.001693637
0.002897516
0.0052344715
0.0045134886
0.004183295
0.0044046817
8.536994E-4
-0.002022179
-0.0017103351
-0.0012458843
-0.0022330226
-0.0036029771
-0.002835711
-0.0019361717
-0.0013598484
-7.75526E-4
-0.0034538505
-0.004786228
-0.0021484962
-0.001439232
-0.0024480901
-0.0023169355
-3.2013957E-4
0.002706213
0.003548045
0.0033849769
0.0041486155
0.0031753576
0.0015212653
0.0026230207
0.0035088065
0.0029285036
0.0048446027
0.005875171
0.0030543918
0.0023935481
0.00274374
-3.31024E-4
-0.0014533026
-2.9003102E-4
-0.0029352827
-0.00500587
-0.003133948
-0.0029257617
-0.0030962797
-0.0015836416
-0.001855212
-0.0018830204
-3.839626E-4
-7.914793E-4
-0.0018959057
-5.630199E-4
0.001016939
7.4790866E-4
6.9187937E-4
2.7314035E-4
-0.0013628014
-0.0031128083
-0.0047932905
-0.003493631
-7.730359E-4
-5.232666E-4
5.2472165E-5
5.1869405E-4
9.390227E-4
0.0031074565
0.0020034197
-0.002086651
-0.0033352096
-0.0021941976
-0.0026857716
-0.0036700377
-0.0010230289
0.0020437925
0.0042005796
0.008065382
0.009266467
0.008562353
0.009667956
0.0075049265
0.0016901881
-5.1340164E-4
0.0016956447
0.00221923
0.0013520148
0.0021556152
0.0011850371
-7.561856E-4
-0.0018487546
-0.005088311
-0.008363293
-0.0095651
-0.0077846046
-0.003026643
-0.0012892684
-0.001245735
-1.7152796E-4
-0.004452833
-0.008683994
-0.004868927
-0.0018762781
-0.002762282
-0.0015995725
6.272568E-4
0.0031349615
0.0051056934
0.0051000854
0.00541589
0.0037326482
-2.518657E-4
-1.1989738E-4
0.002929737
0.0042074895
0.0034820891
0.001287866
2.2962084E-4
0.0015166294
0.0019494601
7.855198E-4
-1.454853E-4
-0.0013939685
-0.0026914964
-0.0018000226
1.9038496E-5
0.001193871
0.0024332423
0.0022113991
4.6750475E-4
-6.1496854E-4
-0.0015000484
-0.0025720967
-0.002811614
-0.0023361524
-0.0012238453
9.704947E-4
0.0021849729
0.0010908291
-1.11936264E-4
-0.0015039537
-0.0027331235
-0.0015897764
7.9564244E-4
0.0018157997
-3.325362E-4
-0.0011078104
0.0019022784
0.0014293918
-3.2691896E-4
-7.567594E-5
-0.0022202756
-0.002584506
-8.6334086E-4
-0.0012923474
-0.0011901055
8.2629634E-4