0.03994164
0.070871055
0.08645354
0.06357766
0.035057545
0.04053574
0.054661553
0.039410464
0.0024771127
-0.013565767
-0.004136055
-0.014930811
-0.040797703
-0.04689258
-0.043639734
-0.045893084
-0.047950897
-0.042479407
-0.038914774
-0.044746935
-0.03172431
0.0024470405
0.009028906
-0.014005998
-0.018860199
-0.0041303425
-0.0028488059
-0.010225088
-0.0030838074
0.013944831
0.022338223
0.019044382
0.021105148
0.035184827
0.04103731
0.034405578
0.023208426
-0.001093525
-0.016614003
0.0025868344
0.027842114
0.030781684
0.009418796
-0.023729447
-0.043649286
-0.041848183
-0.027836716
-0.017905165
-0.004784723
0.029121958
0.046906494
0.030040532
0.014682155
0.0052698045
-0.008102621
-0.020955006
-0.019403864
0.004370877
0.017562227
0.010743529
0.013970386
0.018736094
0.0031295174
-0.017012117
-0.020034513
-0.009457239
0.0015001978
-0.00442233
-0.02230506
-0.024910904
-0.029385349
-0.03906325
-0.023319837
-0.004929396
-0.002427234
-0.017031284
-0.048403643
-0.06375634
-0.05832987
-0.039477862
-0.012094983
0.032567423
0.122708336
0.1758522
0.12581027
0.05616384
0.016479744
1.3252955E-4
-0.005835641
-0.019792708
-0.040459257
-0.06846144
-0.050351802
0.032856133
0.0772543
0.055698182
0.02982572
0.015147905
0.010240151
0.008938756
-0.0055008065
-0.033567306
-0.069168314
-0.10165086
-0.103625156
-0.08301067
-0.06993227
-0.047839854
-0.021352526
0.013152104
0.09136997
0.13617918
0.09375559
0.046711694
0.024250407
0.0051344773
-0.011544221
-0.024242217
-0.012531132
0.009759702
0.005420676
-0.019192496
-0.046753217
-0.062994264
-0.054799166
-0.03971592
-0.02846015
0.0077989036
0.052959483
0.05314664
0.030052267
0.017281042
-8.3230564E-4
-0.013089099
-0.009766642
-0.009504972
-0.009475815
-0.0063428204
-7.03186E-4
0.009347063
0.012098649
0.022764124
0.047340423
0.048643257
0.04086039
0.05128535
0.048014205
0.016650112
-0.024510084
-0.047145575
-0.044823106
-0.05488972
-0.06805478
-0.05331441
-0.03936048
-0.047022358
-0.055028625
-0.034476336
9.585874E-4
0.020628786
0.054350723
0.09475357
0.08517906
0.04561987
0.0040672747
-0.0308509
-0.031018909
-0.018579546
-0.011296937
0.0075886548
0.013801868
0.0065152803
0.007916393
0.00820051
0.021523135
0.03653838
0.015483892
-0.010455293
-0.024475818
-0.0402247
-0.037963737
-0.031927522
-0.038047753
-0.03937346
-0.045169253
-0.033282887
0.016751794
0.035594612
0.008128376
0.0075786174
0.023021156
0.006535557
-0.012020621
-0.015087886
-0.020763492
-0.02002836
-0.015945138
-0.011458246
0.019729542
0.058206398
0.055104956
0.016824028
-0.011085866
-0.009241741
-0.0024633748
-0.0056149196
-0.012785234
-0.02013109
0.0036457162
0.057562236
0.07652182
0.05447485
0.041895907
0.045088924
0.037462447
0.009636072
-0.020578591
-0.03474258
-0.02352935
0.0061880867
0.022151422
0.018368706
0.017594237
0.013452554
-0.010204535
-0.042096473
-0.06282225
-0.069349006
-0.06586932
-0.05580564
-0.050234973
-0.054935362
-0.05383657
-0.030708157
-0.00787536
-0.003488048
0.0060073305
0.01340582
0.0075138565
0.019445073
0.034706723
0.013643119
-0.017385356
-0.01882708
-0.024887666
-0.038023554
0.03390611
0.1453761
0.15303974
0.0896735
0.052038472
0.044483297
0.024905602
-0.015874807
-0.035448793
-0.028124265
-0.012509815
-0.014350914
-0.035419475
-0.015041749
0.016571274
0.018081127
0.017881984
-0.0143876225
-0.045659903
-0.037229825
-0.044290006
-0.07088096
-0.10180368
-0.080381304
0.0019861849
0.028419342
0.012670268
0.009721733
-0.006087278
-0.01745674
-0.019078396
-0.00901964
0.0040562223
0.017586626
0.07862548
0.12566453
0.10258343
0.075607024
0.052461375
0.022806486
0.007715453
-0.0015045913
-0.0063126218
-0.01757177
-0.045616925
-0.06408011
-0.061137848
-0.05350353
-0.050558925
-0.039372038
-0.011610879
0.013648882
0.02364818
0.018036895
-0.0069018463
-0.03431657
-0.047925435
-0.054667782
-0.059468728
-0.05698618
-0.031853244
-0.009601766
-0.006300292
0.04735703
0.10700364
0.073980056
0.050087802
0.089281246
0.08505892
0.031128695
-0.0073547927
-0.018533215
-0.016213322
-0.018465444
-0.040173907
-0.05803918
-0.05281971
-0.064640045
-0.05436822
0.041713577
0.11854659
0.09951345
0.044040546
0.0062924405
0.008247367
0.010819417
-0.018143037
-0.043096043
-0.055172943
-0.053594436
-0.027881226
-0.009857158
-0.02047249
-0.02703298
-0.00657339
0.02085943
0.027899936
-5.479533E-4
-0.022538593
0.0055266153
0.02283465
-0.0016864326
-0.021042638
-0.026047692
-0.026295697
-0.03683491
-0.03769068
0.0126183545
0.060724735
0.058058932
0.04247903
0.043261405
0.045841146
0.026571015
0.008150287
0.0036261044
-0.016715782
-0.032261215
-0.029886981
-0.043677744
-0.063778155
-0.052899964
-0.008334962
0.020145273
-0.0013022361
-0.030193564
-0.029454134
-0.015559871
-0.014180287
-0.016389508
-0.0027465238
0.0075103906
0.015360536
0.044504527
0.06618285
0.049246024
0.011422543
-0.0032106547
0.031199198
0.067540914
0.057391133
0.053593073
0.08867814
0.08724905
0.03180377
-0.021239357
-0.055989746
-0.05649914
-0.03522343
-0.03350191
-0.038269863
-0.038367197
-0.03467886
-0.038254082
-0.058973413
-0.059372753
-0.048446197
-0.047509376
-0.04617591
-0.049278017
-0.018034196
0.022974076
0.020523658
0.025250254
0.023479596
0.005148666
0.014736397
0.018036785
0.02735829
0.051641766
0.044643454
0.040533718
0.04807497
0.036946364
0.019875158
0.009255964
0.024624877
0.040273704
0.007923071
-0.022840394
-0.01828308
-0.030748181
-0.04658576
-0.021063777
-2.7012764E-4
-0.014432844
-0.031709947
-0.046999257
-0.05333402
-0.032821424
-0.01603156
-0.024602525
-0.010685826
0.03983688
0.062386613
0.04133843
0.010372828
-0.024449905
-0.04567538
-0.032807525
-0.0065422915
0.0025135481
-0.0036224914
-0.011569734
-0.0031073438
0.06981765
0.16015206
0.14752752
0.07403903
0.024644364
-0.016816262
-0.039043237
-0.044687778
-0.061812267
-0.067714386
-0.058413632
-0.05138087
-0.055077057
-0.06772669
-0.0684011
-0.029730974
0.05967701
0.116826594
0.0772072
0.01984633
-0.017535051
-0.03846766
-0.030580414
-0.038690355
-0.047196683
-0.033408195
-0.029127145
-0.002499239
0.03947142
0.061208047
0.07385268
0.06788594
0.058031354
0.05642001
0.04228038
0.013595338
-0.016984934
-0.03653122
-0.05656366
-0.060495105
-0.047752153
-0.06402787
-0.07677612
-0.066530265
-0.040239263
0.0074476767
0.024091722
0.029592907
0.043088716
0.04129528
0.069116145
0.06979506
0.02136687
0.020850714
0.02381481
-0.0058391844
-0.021550402
-0.03457983
-0.03753085
-0.023008535
-0.011669735
5.361665E-5
0.0062032472
0.003125454
0.016942583
0.04298924
0.04340362
0.02482625
0.014455627
0.012014554
-5.342889E-4
-0.026971217
-0.029591069
-0.017433355
-0.020856978
-0.0044132764
0.020398768
0.017640445
9.129259E-4
-0.020650255
-0.03399159
-0.03989181
-0.028895423
0.00946232
0.020479608
-0.0025795337
-0.021742916
-0.03973028
-0.046305872
-0.047136206
-0.049228467
-0.030497218
-0.0141475955
-0.020516843
-0.04471584
-0.06970682
-0.0103493575
0.12554677
0.18782717
0.14714375
0.082176216
0.027037729
-0.010180786
-0.032045063
-0.015595831
0.028165622
0.030824864
0.015364607
0.020856215
0.019653367
0.018836964
0.01686691
-0.002912086
-0.01147258
-0.003934402
-0.0056002536
-0.015030423
-0.0256174
-0.034518857
-0.038772278
-0.04581211
-0.04169768
-0.028275207
-0.036644235
-0.035228364
-0.008502708
-0.0014902226
-0.007413482
-0.0055524874
0.008949503
0.036241174
0.04016317
-9.2971086E-4
-0.055206794
-0.06747729
-0.044557836
-0.029501446
-0.0032400966
0.022220103
0.009728417
-0.0068016415
-0.004727
-0.005529653
-0.01698746
-0.008674526
0.031620204
0.07728059
0.11310151
0.10207681
0.03919865
-0.023316192
-0.067745045
-0.09164545
-0.09855136
-0.0535718
0.050599605
0.100253165
0.08862535
0.08199008
0.06344778
0.04747612
0.029184638
-2.7617847E-4
-0.00896102
-0.008213318
-0.0108285695
-0.03994291
-0.075458445
-0.07515177
-0.06856213
-0.01231912
0.090568684
0.114366695
0.0630397
0.010773805
-0.012364692
-0.008382539
-0.014419619
-0.02870273
-0.031127043
-0.031955913
-0.05371198
-0.08999866
-0.11233764
-0.11998142
-0.10363453
-0.07856809
-0.06953186
-0.054893214
-0.03306462
0.024397114
0.09318233
0.08567353
0.07433609
0.119042695
0.14226317
0.1097501
0.05075616
0.0036863866
-0.0399108
-0.038429912
0.045029953
0.06593726
0.029353438
0.08404336
0.13654628
0.10052684
0.050004277
-0.0046503344
-0.063850425
-0.08324725
-0.07834038
-0.09847033
-0.12229275
-0.11659381
-0.10421826
-0.08649707
-0.065688156
-0.058617156
-0.040381134
-0.017519282
0.015708828
0.1128936
0.19816299
0.16633938
0.08022842
0.018690348
-0.011066514
-0.011919816
-0.0059764143
-0.010962742
-0.02792889
-0.029490983
0.0013929337
0.008290024
-0.0092624305
-0.009245877
-0.017013945
-0.018016718
-0.014288994
-0.03645159
-0.016097253
0.02386637
-0.007531631
-0.037688155
-0.031775396
-0.053943
-0.06147901
-0.030992635
-0.022653647
-0.0054158126
0.052643474
0.08367577
0.06911321
0.054495137
0.06472978
0.08057734
0.0531261
0.011420992
-0.004280827
-0.03923497
-0.06864471
-0.05891046
-0.050387222
-0.01683609
0.021230794
-0.005092026
-0.030321892
-9.6901413E-4
0.04794256
0.090235114
0.094022356
0.051534917
0.007529198
-0.011150579
-0.024214474
-0.026384855
-0.015132836
-0.04163359
-0.06641258
-0.027933048
0.0014977725
-0.012335393
-0.026127467
-0.019986771
0.0064982944
0.014993091
-0.012405265
-0.03760629
-0.025147654
0.013659284
0.027694331
0.0034714714
-0.042076606
-0.08146013
-0.088025086
-0.08047264
-0.057126325
-0.009460454
0.049149413
0.10070557
0.09228508
0.06424102
0.07859086
0.062445283
0.015385778
-0.004738021
-0.01849116
-0.011220284
0.029220428
0.056888167
0.06073459
0.05004741
0.01339984
-0.009118469
0.024292214
0.048896514
0.0296239
-0.010863992
-0.060428515
-0.04625336
0.017051067
0.016702013
-0.028538825
-0.054379474
-0.055353336
-0.046850536
-0.04565102
-0.044847798
-0.041058134
-0.029945577
-0.024456175
-0.03127546
-0.016771149
-0.012671947
-0.031752493
-0.033158384
-0.028678063
0.013742964
0.07519731
0.058005434
-0.008277724
-0.061190497
-0.07060904
-0.04061321
-0.017761927
0.033242308
0.09519231
0.09079686
0.06435455
0.043331623
0.022935688
0.02373726
0.025007
0.02623678
0.027615555
0.026342861
0.0407404
0.04898663
0.053282887
0.05481366
0.040793814
0.048210606
0.03884711
-0.009382135
-0.023370368
-0.034843907
-0.06993267
-0.07871927
-0.08712469
-0.108121395
-0.11662593
-0.11545454
-0.10554675
-0.09234315
-0.06459593
-0.025345633
-0.005496957
0.012279735
0.039712034
0.050627794
0.044941705
0.042590283
0.050864723
0.052138213
0.041520387
0.03807965
0.03921163
0.031313535
0.006106398
-0.014262242
0.032409977
0.12655261
0.1515776
0.08692943
0.012652851
-0.039139695
-0.061199702
-0.06629153
-0.0791316
-0.06660793
-0.04180927
-0.03688912
-0.021614145
-0.017012263
-0.026848476
-0.026137887
-0.03293487
-0.020445777
0.004389672
0.009447891
0.028637096
0.05948502
0.079326615
0.06580321
0.010005176
-0.033298705
-0.0539434
-0.077104755
-0.09020658
-0.08852721
-0.06999576
-0.034936097
-0.0095637245
0.013861789
0.096212395
0.18817842
0.1750625
0.115014754
0.079409555
0.04457943
0.034858827
0.03761878
0.012300077
-0.0230926
-0.042060435
-0.02786133
-0.0024869128
0.007593089
-0.020953316
-0.08972746
-0.11134488
-0.06451182
-0.021605013
-0.008416443
-0.02768438
-0.06497586
-0.100799136
-0.12505876
-0.13021916
-0.12465223
-0.07924127
-0.012064394
-0.009243398
-0.033456385
-0.014569098
0.0074998196
0.02812097
0.07481373
0.11458452
0.1533802
0.18949163
0.14844535
0.05295507
-0.016756713
-0.04377659
-0.006249659
0.078122504
0.13741606
0.14985502
0.14080627
0.12516098
0.09858939
0.071996115
0.06129826
0.07975551
0.10737093
0.060973838
-0.047605693
-0.11136691
-0.12217923
-0.13738878
-0.18028893
-0.24387407
-0.3046958
-0.3132005
-0.27758363
-0.28477716
-0.27174133
-0.15084474
-0.05538257
-0.048270147
-0.020774154
0.054241326
0.10551258
0.12976144
0.20612276
0.29827422
0.30999863
0.26406816
0.21394522
0.20231688
0.22777809
0.21994558
0.15711546
0.072585076
-0.008649704
-0.08322543
-0.13294604
-0.13203448
-0.11408457
-0.09548276
-0.04831771
-0.016765868
-0.069878876
-0.15341821
-0.16775961
-0.1382552
-0.11413656
-0.08218662
-0.05054652
-0.020578872
0.035466146
0.13005254
0.2025193
0.19106133
0.15485965
0.10444308
-0.0024637037
-0.11068242
-0.1721423
-0.13470045
-0.02757217
-0.0040976545
-0.045169972
-0.0719765
-0.11150193
-0.12410554
-0.10217949
-0.104713425
-0.11520029
-0.12852523
-0.14583594
-0.0937027
0.04974724
0.21154727
0.34761697
0.4492057
0.4607611
0.33046198
0.12622765
-0.024124589
-0.090445034
-0.12372126
-0.13437554
-0.09600981
-0.02233397
0.042869654
0.05622246
0.00418041
-0.060427994
-0.09929464
-0.110696696
-0.09197005
-0.08651702
-0.08446972
-0.054356784
-0.09019737
-0.17381479
-0.15509686
-0.06473774
-0.0064434707
0.021790018
0.01131336
-0.0484222
-0.08670456
-0.05403846
0.057258826
0.2272694
0.3271601
0.30391777
0.2587086
0.2076398
0.1313599
0.060267087
-0.012262865
-0.09293927
-0.17584638
-0.24281137
-0.2529575
-0.19762953
-0.121054
-0.074259795
-0.05163067
-0.0326159
-0.009313329
0.042359415
0.09211358
0.084565856
0.03483534
-0.044315994
-0.15256646
-0.1753158
-0.02830209
0.13493627
0.18319069
0.17292331
0.14249668
0.08896204
0.04781532
0.096327774
0.21774599
0.24344519
0.13549523
-0.009695676
-0.1407316
-0.19606772
-0.17037524
-0.11490233
-0.06591934
-0.06706866
-0.10747497
-0.17732494
-0.27824628
-0.3140106
-0.21562819
-0.07200825
0.0046539004
0.03566724
0.071606874
0.10692705
0.18356282
0.29680637
0.33913586
0.2975582
0.2357241
0.13250707
-0.0330988
-0.15804268
-0.16306175
-0.087231636
0.015472062
0.08482221
0.08991437
0.049226254
-0.015756428
-0.053041052
-0.059233498
-0.062610716
-0.04971973
-0.055599645
-0.08584562
-0.1092323
-0.14222237
-0.15634158
-0.1422095
-0.12613256
-0.083869666
-0.022675078
0.027894704
0.056023713
0.06782036
0.087664686
0.09147883
0.071369156
0.073208354
0.09866898
0.13038981
0.1689192
0.19272627
0.1850934
0.16614577
0.11881907
0.017772296
-0.06055198
-0.07040519
-0.06129781
-0.06315274
-0.1143059
-0.21071665
-0.2579095
-0.21289031
-0.1214897
-0.050949182
-0.029897416
-0.036074385
-0.04592807
-0.063203946
-0.08486014
-0.054991852
0.015916854
0.033955365
0.020420095
0.039675687
0.078340426
0.12212094
0.15480372
0.16256078
0.14871982
0.12803113
0.13581207
0.15555792
0.12780733
0.05114081
-0.02973521
-0.082473025
-0.10295355
-0.110933155
-0.11835979
-0.11511498
-0.09921257
-0.068627186
-0.025536956
-7.330609E-4
-0.008553215
-0.025864234
-0.004868543
0.047182087
0.048126746
0.030830605
0.06438666
0.07884672
0.04846802
0.018311376
-0.0064614746
-0.027350504
-0.047948916
-0.049299728
-0.029998697
-0.03151401
-0.063504025
-0.10821264
-0.12268479
-0.102310024
-0.0927721
-0.0695851
-0.021510473
0.0031444777
9.851642E-4
3.8932238E-4
0.046885688
0.13027559
0.15827937
0.13160169
0.10980442
0.07029824
0.019952167
0.002056434
0.004483942
0.04769885
0.10534168
0.079041995
0.042729188
0.07994706
0.09569807
0.05609897
-0.003142603
-0.06313996
-0.08548161
-0.0760554
-0.058093976
-0.04565186
-0.051735934
-0.06223807
-0.085652895
-0.12290145
-0.14783533
-0.13832538
-0.06444405
0.029818797
0.06591642
0.054884806
0.0284571
-0.008596875
-0.039860614
-0.03588579
0.0031963596
0.035854444
0.050983455
0.06250449
0.05625616
0.02463623
-0.003390884
2.3950274E-4
0.014319284
0.0070615043
-0.010038537
-0.011788271
0.0044865124
0.01746744
0.015567134
-0.0018480357
-0.030446444
-0.04013886
-0.022752855
0.014699182
0.05632042
0.054260854
0.030042011
0.010328588
-0.027922545
-0.02984831
0.0033332543
0.0026727843
0.020888569
0.07426924
0.08039423
0.042686775
0.02354427
0.024562519
0.004388471
-0.03305043
-0.062715136
-0.0844361
-0.0793021
-0.043284856
-0.013366958
-0.008429402
-0.005824803
0.007003424
0.0050223055
8.537129E-4
0.001091906
-0.02083716
-0.015955128
0.027574744
0.045813512
0.03911046
0.021540737
-0.0042176796
-0.02744594
-0.042520814
-0.031512383
-0.008866395
-2.4460032E-4
-0.0021895173
-0.0044641728
-0.004987391
-0.015683021
-0.018902658
-0.012440949
-0.02111563
-0.025752557
-0.027890231
-0.022956876
0.00828894
0.025864216
0.024739822
0.03933769
0.07279793
0.08661605
0.048257306
0.005742222
-0.012049515
-0.017597102
-0.029101415
-0.061405946
-0.026600262
0.06584471
0.08203091
0.056599032
0.03562298
-0.0029126455
-0.017435793
-0.014168674
-0.029046632
-0.0519999
-0.04682588
0.0019407553
0.034079123
0.019099545
-0.0070585087
-0.009721948
0.029658072
0.058294922
0.023624912
-0.022948189
-0.026225716
-0.0125121465
-0.017115254
-0.023834618
-0.031977955
-0.044945218
-0.029213687
-0.014455024
-0.030899217
-0.03392111
-0.031897895
-0.044110086
-0.038930867
-0.010526292
0.03136163
0.049449414
0.016696127
-0.024991157
-0.05793998
-0.054253127
0.04009575
0.14603527
0.14855348
0.08265376
0.031152526
0.0022966675
-0.020415971
-0.03928161
-0.052525926
-0.03305114
0.016162349
0.03505491
0.013943721
-0.0038322592
0.013703045
0.05076143
0.04924973
0.007625282
-0.023151472
-0.015467023
-0.003096308
-0.0346714
-0.05764457
-0.043138687
-0.033995956
-0.0021950048
0.023562431
-0.0077255066
-0.022381298
0.0024698838
0.023138575
0.032281242
0.02486445
0.0035731466
-0.01803603
-0.026908636
-0.02606303
-0.030376269
-0.042258214
-0.04456921
-0.007347325
0.046926986
0.07127723
0.051924113
0.0030547471
-0.004650956
0.02825969
0.023515813
1.0299861E-4
-0.015123398
-0.028728232
-0.030529922
-0.028083112
-0.016590692
-0.015516149
-0.030064233
-0.024301095
-0.020433132
-0.01683148
9.3809253E-4
-0.003857815
-0.012718248
0.0031003344
0.028192641
0.045918915
0.045163434
0.024200091
-0.018545737
-0.042223543
-0.015524765
0.013367745
0.033214144
0.05620823
0.060923092
0.059552986
0.06308532
0.052607134
0.02030301
-0.012213257
-0.026597442
-0.043567132
-0.05082397
-0.024866523
-0.006319216
-0.0061116256
-0.0057144403
-0.027303291
-0.060169473
-0.06127665
-0.041524082
-0.03328853
-0.032110102
-0.028557852
-0.027437648
-0.026031591
-0.017819613
-0.0066716555
-0.005890553
-0.004700771
0.01733629
0.033901438
0.029702267
0.03055299
0.03913632
0.05057071
0.059094746
0.049392946
0.033642467
0.022840722
0.012747508
0.009896746
0.012116588
0.011602831
0.007085887
0.0040820832
0.008987301
0.009851872
4.5037735E-4
-0.014474202
-0.030634096
-0.03221038
-0.025502238
-0.018476924
2.145578E-4
0.006136373
-0.009918206
-0.027835924
-0.055095036
-0.064880475
-0.027723681
0.010699822
0.015511179
8.633827E-4
-0.019771552
-0.03739838
-0.038607437
-0.024556084
-0.017864328
-0.01637628
0.0014031432
0.015267661
0.007955552
0.007403316
0.020559624
0.03186135
0.0412956
0.045470282
0.05941161
0.0871208
0.07803734
0.042747542
0.03261881
0.02655054
0.018467573
0.021751823
0.015528124
0.0012239988
-0.008480237
-0.0062368405
-0.005632517
-0.027854798
-0.043504484
-0.05340007
-0.07376067
-0.065842144
-0.04497952
-0.045605753
-0.05054693
-0.04967766
-0.032083392
-0.01268457
-0.011001496
-0.010807282
-0.021397032
-0.03102862
-0.0144158555
0.010106593
0.038903773
0.057535067
0.057990804
0.06289532
0.055626553
0.041759405
0.045113448
0.03690513
0.007818712
-0.010275558
-0.003927621
0.0054853093
0.009266542
0.011994825
0.001563572
-0.002169849
0.011334676
0.014751669
0.013706097
0.0106294025
-0.005532689
-0.029287167
-0.04616956
-0.039606318
-0.034476727
-0.063458994
-0.11670627
-0.13081752
-0.04115554
0.060335666
0.06410392
0.0312548
0.0050010583
-0.024420854
-0.03342976
-0.03195651
-0.020161942
0.014588102
0.044139188
0.07812582
0.13779087
0.16536944
0.121952794
0.06399582
0.02661168
-0.016062915
-0.063576244
-0.08736612
-0.065803915
-0.020636134
-0.00718599
-0.0078118877
0.009027854
-0.0035970043
-0.027925203
-0.006107741
0.017347323
0.028727837
0.06154766
0.07823362
0.06288812
0.027959447
-0.026225895
-0.06754763
-0.08941106
-0.074268475
-0.012521898
-0.006351538
-0.069112934
-0.094639376
-0.08961122
-0.10890175
-0.14865805
-0.16829143
-0.12387912
-0.055619616
-0.027715437
-0.01836613
0.0061761728
0.026400272
0.02666554
0.04247717
0.09015926
0.12758625
0.15295346
0.19240423
0.21943888
0.22910497
0.2499672
0.2751264
0.2887627
0.25028828
0.12961636
-0.009497836
-0.13022795
-0.23921217
-0.29571962
-0.30709672
-0.28763062
-0.21534964
-0.1545999
-0.13728699
-0.097549446
-0.041178327
-0.025825512
-0.048800748
-0.061602455
-0.050635606
-0.038288437
-0.006667662
0.055462852
0.110787004
0.13856314
0.15421253
0.18033157
0.2055832
0.20759378
0.1726024
0.08405697
-0.025632463
-0.13063185
-0.22083738
-0.22541401
-0.15087603
-0.09580895
-0.09514113
-0.121246584
-0.13816874
-0.13740401
-0.0930149
-0.0019276316
0.051909022
0.07372708
0.10963655
0.12690274
0.14815395
0.18147077
0.19668207
0.21804906
0.22200245
0.16727334
0.06867937
-0.040051386
-0.100806
-0.083302625
-0.03764706
-0.026450802
-0.029334983
-0.016189095
-0.026198057
-0.03627985
-0.013160461
-0.025500333
-0.090399794
-0.1532495
-0.17237806
-0.13165216
-0.075765386
-0.054564334
-0.056006715
-0.03402661
0.011269315
0.033204433
0.048305724
0.070616454
0.047335565
-0.009053909
-0.04070715
-0.040713288
-0.023228312
0.0019615146
0.02257149
0.025485147
0.01955621
0.019524403
0.019035421
0.02598412
0.036391515
0.020902777
0.0053424216
0.027017979
0.05864989
0.08148214
0.11129404
0.1375086
0.13829686
0.11944444
0.08043002
0.009413327
-0.06452914
-0.12365341
-0.18227307
-0.1856587
-0.10292635
-0.02066028
0.012450095
0.01747908
-1.4925564E-5
-0.024726816
-0.028536968
-0.016449446
-0.0048995013
0.013616128
0.024325904
0.013377282
0.012503988
0.008320897
-0.019965867
-0.03776233
-0.040627137
-0.040912595
-0.039182305
-0.02582182
-0.0020665347
-0.00687897
-0.011208131
0.015383224
0.012951974
-0.00375894
0.011151142
0.020286452
0.0028904963
-0.009722604
0.016350891
0.062610604
0.09316883
0.115975365
0.13017362
0.12782365
0.11112504
0.06928342
0.0042893514
-0.06436845
-0.10370765
-0.09381594
-0.06914325
-0.065355934
-0.061337486
-0.035895307
-0.016402196
-0.011377632
-0.015260186
-0.044492275
-0.07139117
-0.080170475
-0.07828515
-0.03220952
0.006980976
-0.025865592
-0.056177
-0.035549138
-0.0023903975
0.039051864
0.090478025
0.090257876
0.045867197
0.076849
0.13716559
0.09690115
0.041691266
0.039494056
0.021571646
-0.0030321765
-0.007200298
-0.012712233
-0.01995824
-0.02840717
-0.033715475
-0.022077661
-0.005271058
0.009907856
0.023683699
0.0138229085
-0.012949904
-0.03233356
-0.04492068
-0.04073917
-0.027728787
-0.033416845
-0.053389348
-0.06901686
-0.06277355
-0.038432922
-0.01533562
-0.012595847
-0.031411495
-0.015560066
0.032813385
0.045282017
0.028455224
0.005916656
0.010476282
0.059402507
0.07881306
0.057291463
0.04654273
0.05704766
0.08111796
0.07325558
0.024257213
-0.01794199
-0.04898283
-0.07775053
-0.07042747
0.0060197785
0.08357026
0.07407445
0.017073834
-0.037727024
-0.07221634
-0.05347332
-0.029218374
-0.046956345
-0.06268266
-0.061623987
-0.053211667
-0.026616435
-0.011312826
-0.007540195
0.037776414
0.10067499
0.11899246
0.08547876
0.024085645
-0.02732218
-0.055078536
-0.07250986
-0.07005112
-0.035608348
0.010206634
0.03796183
0.04210842
0.02285099
-0.008278034
-0.02078124
-0.014978524
-0.0067446595
-0.016746957
-0.047938906
-0.037212003
0.01945042
0.044879295
0.021938257
-0.010955289
-0.010156602
0.017753744
0.029988155
0.03048758
0.031686213
0.038218122
0.046145104
0.034588005
0.011961351
-0.012034302
-0.023943162
-0.018561924
-0.025484966
-0.012094466
0.03860928
0.048020896
0.00571872
-0.03341746
-0.052288074
-0.047034353
-0.028926287
-0.017796457
-0.011395422
-0.00967933
-0.011626166
-3.0827146E-6
0.012861021
-0.0011861264
-0.029184943
-0.044608835
-0.036105152
-0.020108335
-0.01844304
-0.013162083
2.760776E-4
0.0135716265
0.03120501
0.026863776
0.00722499
0.0060236133
0.010991064
0.016331527
0.0115614515
0.003997026
0.05040812
0.10976548
0.093335465
0.039364334
0.007198133
-0.0045404746
0.0038087214
0.008266813
-0.010926989
-0.026366245
-0.026620366
-0.01958729
-0.018165523
-0.029788297
-0.0359963
-0.036622155
-0.036432926
-0.03675558
-0.042341635
-0.033367943
-0.027229842
-0.034979854
-0.022419836
-0.0011582026
0.021637507
0.036191653
0.0277233
0.036757056
0.04797867
0.035213463
0.023729337
0.0074430965
-0.0037354492
-0.012458102
-0.036415327
-0.04705494
-0.030345242
0.026856422
0.09127603
0.08882322
0.050252452
0.020940116
-0.0110776685
-0.03880459
-0.04643365
-0.0342366
-0.027312782
-0.027100138
-0.017187221
-0.018262122
-0.010646192
0.026497446
0.039549787
0.021967387
0.017237911
0.020091988
0.010904769
-0.0023446472
-0.0047542895
-0.0031474263
-0.020965524
-0.04774191
-0.057708476
-0.0685063
-0.075532146
-0.040560547
0.0042120884
0.017096788
0.026190355
0.05457694
0.09850739
0.12907933
0.09728117
0.03240758
-0.002967549
-0.03352307
-0.075106874
-0.10103369
-0.106237516
-0.061443724
0.015663575
0.05272697
0.056084707
0.039383437
0.014409739
0.029444864
0.049490824