-0.0043408866
-0.0020241006
-1.5537828E-4
-0.0031330911
6.106111E-4
0.0038910136
0.0021319746
9.7644835E-4
-0.0036545955
-0.004680991
-7.676543E-4
-2.274228E-5
0.0019531942
0.0051779626
0.007917776
0.009829325
0.0068772803
0.001911195
-0.0017999974
-0.0036738676
-0.004175367
-0.0049729142
-0.004712742
-0.0024737346
0.0020263582
0.0048754415
0.0020548485
-0.0017272289
-0.0035620516
-0.003697448
-0.0029174318
-0.003416524
-0.003544058
-0.0010966401
0.004244563
0.007817018
0.0051236195
0.0013718068
-0.00143488
-0.004602895
-0.0051744194
-0.0047502993
-0.004047544
2.1274529E-4
0.00599672
0.008615404
0.006896209
0.0027888082
-9.972518E-4
-0.002555914
-0.0024585328
-0.0016065785
-9.347984E-4
-5.26628E-4
0.0037031195
0.008633938
0.0072964057
0.0024431825
-0.0034562838
-0.007173892
-0.0069504166
-0.0072932164
-0.0046716905
4.3646898E-4
0.0023396942
0.0050831824
0.0057491455
6.6523696E-4
-0.0023439922
-0.0021413546
-0.0030647137
-0.004167654
-0.002369981
0.0018598249
0.0054024383
0.0071325162
0.005533045
0.001245371
-0.0022478972
-0.005096613
-0.006451215
-0.004843527
-0.002787758
-4.1465793E-4
0.0032988947
0.0065030493
0.006643211
0.0018301397
-0.0031713413
-0.0033114504
-0.0030623854
-0.003162214
-0.0013938093
7.6612725E-4
0.005518001
0.008618854
0.0057002185
0.0016067883
-0.0042796507
-0.008478626
-0.0070562423
-0.0062970263
-0.0046591116
-2.145419E-4
0.0032144894
0.005205523
0.0048104804
0.001774603
-0.0021169866
-0.003014569
-0.0035593964
-0.006237063
-0.0034153066
-0.0019298857
-0.0029810017
0.0053774803
0.009557597
0.004310876
5.8994215E-4
-0.0034457217
-0.0035414586
-2.8249098E-4
3.9301836E-4
0.0025266455
0.0058844727
0.009422146
0.009860317
0.0051630633
5.851682E-4
-0.004229
-0.007838499
-0.007877159
-0.006157397
-0.0025701236
0.0017836792
0.006520283
0.006435617
-9.935796E-4
-0.0065851314
-0.008316615
-0.008412073
-0.0071890005
-0.0059989966
-0.0023612375
0.002831325
0.0067430264
0.006947229
0.002024162
-0.0022267231
-0.0035938038
-0.00403407
-0.0039255894
-0.0032697024
0.0015671676
0.008436438
0.011960007
0.011942799
0.0065245945
-8.487985E-4
-0.0039020493
-0.005023671
-0.005665078
-0.0036666936
-1.8623274E-5
0.0038247379
0.007556858
0.007508297
0.001514456
-0.004006654
-0.005903545
-0.006921451
-0.0062445905
-0.0049462593
-0.0025696396
0.0046230084
0.010943834
0.008396014
-7.5411884E-4
-0.0072047715
-0.0079563875
-0.008873912
-0.007843391
-0.0026716744
0.0010301938
0.005066847
0.008791376
0.0078058764
0.003873924
-0.0016830262
-0.003777922
-0.0026975253
-0.0044308393
-0.0041523436
-6.4597215E-4
0.0037469605
0.009099542
0.00923035
0.0042337514
-0.0011507735
-0.005559161
-0.006948512
-0.006381155
-0.0040785554
2.8233662E-5
0.0040864698
0.00819339
0.009561933
0.0050825905
-0.0025139437
-0.006424234
-0.0057794717
-0.006020838
-0.0050435984
-0.0014672306
0.0030880803
0.009868841
0.010721405
0.0032383383
-0.002656998
-0.0065303934
-0.008951588
-0.0068654516
-0.00391
-0.0011786586
0.004086721
0.008201749
0.0071510384
0.0031576436
-0.0018331639
-0.004740595
-0.00345589
-0.0028129527
-0.0035522352
-0.0018379427
0.0034917474
0.009437133
0.009269699
0.004232787
-0.0017403573
-0.0074383835
-0.0074355276
-0.0049944427
-0.00446426
-8.9638494E-4
0.003924073
0.0073911687
0.009348193
0.0059506637
-0.0011239146
-0.006077718
-0.006718841
-0.0056449813
-0.0048626517
-0.0021762492
0.0031898234
0.008710714
0.00968934
0.0052820044
-6.8254827E-4
-0.0058426186
-0.006432539
-0.003890652
-0.003770472
-0.002142391
0.003488578
0.007635926
0.007392169
0.003665632
-0.002112496
-0.00674727
-0.006285524
-0.00494665
-0.0059775696
-0.0031047799
0.0024376118
0.007088721
0.009710077
0.004416145
-0.0034837385
-0.005575497
-0.0049586375
-0.0038622415
-0.0030507473
-0.001239792
0.0040310286
0.009140403
0.0096935835
0.004803112
-0.001247921
-0.0046269456
-0.005937478
-0.00537923
-0.0049504875
-0.002636463
0.0037661926
0.0078090494
0.0078059747
0.0035991662
-0.0041306866
-0.0069951536
-0.0063230223
-0.0060397373
-0.0030076834
-2.0282679E-4
0.0021325208
0.006128517
0.006961562
0.003767264
-7.556288E-5
-0.0026744641
-0.0039909994
-0.004953526
-0.003497657
9.709862E-4
0.0058450387
0.009401992
0.009231299
0.0042102165
-0.0043355264
-0.010697579
-0.008175475
-0.003230755
-0.002461812
-3.744275E-4
0.0026524423
0.0046228417
0.00704492
0.0051424466
-2.1449565E-4
-0.0027311335
-0.003169123
-0.0048417104
-0.0066543077
-0.0038150565
0.0021092852
0.0064061424
0.007679787
0.0027792612
-0.0038766318
-0.0058609094
-0.006127607
-0.004668632
-0.002254916
-0.0011382451
0.0019909833
0.0057563917
0.00662313
0.0043288814
5.444877E-4
-9.3616906E-4
-0.0012016405
-0.003500815
-0.005491666
-0.0032199905
0.003196702
0.0088794185
0.008629315
0.003435637
-1.9513504E-4
-0.0021034172
-0.0058950116
-0.00675324
-0.0038373654
-0.0021932747
7.7877514E-4
0.005305279
0.0066103726
0.0047899955
0.0010017073
-0.0028699217
-0.0042983135
-0.0050693275
-0.005125361
-0.002929951
-3.2013335E-4
0.0038746214
0.007259657
0.003772499
-0.0019611374
-0.004744851
-0.005129521
-0.004043676
-0.003491711
-0.0013345877
0.0023067987
0.004466324
0.006214808
0.005611763
0.0025979576
-2.185932E-4
-0.0024736023
-0.0032345653
-0.0030310478
-0.0014773633
6.1387767E-4
0.0041051265
0.008594865
0.0058180606
-8.995827E-5
-0.0030649991
-0.0058645317
-0.0048206537
-0.0033082934
-0.0020464312
0.0027395063
0.004954329
0.00623884
0.0048770066
-4.0024015E-4
-0.0028328982
-0.0059073064
-0.005096568
-0.001136144
-0.0030558084
-0.0013273258
0.003608776
0.005206348
0.004592329
-6.621442E-4
-0.004048723
-0.0038021577
-0.0036656042
-0.0017649136
1.8269324E-5
0.0034929249
0.0056177075
0.0026624955
8.12289E-4
-0.0017164736
-0.004388011
-0.0031677336
-0.0023237695
-0.0026430236
-0.0026226558
-0.0011492021
0.0016330397
0.0036026114
0.0040299464
4.4246123E-4
-0.0034423112
-0.003234376
-0.003878123
-0.0042313244
-7.467182E-4
0.0027385314
0.0044418676
0.0053464724
0.0056980355
0.0052443347
0.0034505513
3.529529E-4
-0.0018908494
-7.4565964E-4
6.567708E-4
7.188985E-4
0.0039412673
0.0074093007
0.0055942005
0.0018617917
-0.0014261807
-0.005410561
-0.008533356
-0.00887288
-0.0058773854
-0.001480246
0.0015254595
0.0024109809
0.0010923918
-4.7470743E-4
-8.462679E-4
-0.0015935163
-0.0022089344
-0.0019302993
-0.0018423601
-0.0011118079
7.5291813E-4
0.0020203493
0.0019708725
2.2249733E-4
-0.002967022
-0.004317884
-0.0036355706
-0.0038491357
-0.0028367557
5.1437074E-4
0.003449105
0.0056688837
0.0059348494
0.0036672777
0.001978252
0.0013756908
5.2972056E-4
2.349719E-4
6.3399016E-4
7.685366E-4
0.002066788
0.00444538
0.00416029
0.0016333396
-8.552067E-4
-0.003118132
-0.0028480983
-4.930311E-4
-1.3333252E-4
-0.0010579048
-1.908459E-4
0.0016844767
0.0023289963
5.7258876E-4
-0.00266305
-0.004662401
-0.005256995
-0.0053128805
-0.00460225
-0.0032587096
-8.0283295E-5
0.0033258973
0.0029386175
-7.548114E-4
-0.0038273623
-0.0033185908
-0.0026520218
-0.0033353383
-6.8503246E-4
0.0025504236
0.0037601532
0.0056283907
0.00609926
0.0043619536
0.002164971
6.950447E-5
-0.0010400655
-0.0011462603
-0.0012164778
-9.3817717E-4
0.0020655696
0.004641483
0.00280019
6.886148E-4
1.0616104E-4
-4.3917488E-4
-0.0017383337
-0.0032390426
-0.0022177617
-1.8952094E-4
0.0012124059
0.0016979487
8.351166E-4
7.951629E-5
-0.001431354
-0.0024878446
-0.0027264056
-0.0026622429
-0.0012851278
-0.0017981539
-8.010424E-4
0.0012994093
0.001236848
0.0041660517
-2.7568926E-4
-0.009190678
-0.0051578246
-6.3807203E-4
-0.001166438
5.735662E-4
0.0022398632
0.0052733948
0.005518724
0.0030118995
0.0024074866
7.6841365E-4
6.244356E-4
0.0011191797
3.1574475E-4
8.127142E-4
0.0025439374
0.0057171527
0.005132252
0.0016886321
1.9488051E-4
-0.003108584
-0.0045832545
-0.003566319
-0.0038286324
-0.0016529262
5.9427366E-5
-4.2132492E-4
6.456113E-5
2.5327582E-4
-2.2160722E-4
-0.0018356998
-0.0034436549
-0.0024464894
-5.8503484E-4
-1.7881444E-4
-7.592811E-6
0.0017397458
0.002618338
0.0010233115
-0.0012478722
-0.0032656183
-0.0037746886
-0.0027929312
-0.0011662166
3.7440335E-4
0.0018203553
0.004128205
0.0041247373
0.0019353164
9.2776184E-4
-5.286337E-4
-0.0020181912
-0.0031743285
-0.0031868287
-6.5146445E-4
6.9248135E-4
0.0027401913
0.0044811913
8.4398186E-4
-8.213562E-4
-2.0384545E-4
-0.0022145424
-0.0017429478
-6.4560823E-4
-5.3979264E-4
0.0021669662
0.0041711535
0.0049891663
0.0046254257
0.00103777
-0.001230956
-0.0012008843
-0.002266366
-0.003373262
-0.0028889922
-3.846886E-4
0.0026677514
0.0027991273
6.989877E-5
-0.0025343946
-0.004030261
-0.004499489
-0.003797021
-0.002582007
-0.0011330704
6.296883E-4
0.002795727
0.0043251086
0.002453216
-5.125441E-4
-3.838592E-4
3.147804E-4
-3.796145E-4
-6.3994504E-4
8.3243137E-4
0.003431931
0.0046621184
0.0039721294
0.0018126087
-8.3548407E-4
-0.002340573
-0.0036086196
-0.0042028823
-0.003350764
-0.0017737428
1.789086E-4
0.0016192253
0.003090408
0.0028306604
2.5593844E-4
-0.0014928025
-0.0033027073
-0.0029573243
-5.9794844E-4
-5.7622005E-4
0.001812194
0.005415603
0.0042046914
9.272351E-4
-0.002248312
-0.0037168884
-0.004174202
-0.005765953
-0.0052509885
-0.0022581944
9.193327E-4
0.0034793816
0.004229726
0.0028856152
-1.5461506E-4
-0.003419721
-0.004965152
-0.0038677892
-0.0018951383
-5.6436285E-4
0.0019260128
0.0043830224
0.0043985946
0.001867659
-0.0015658922
-0.001905496
-0.001011702
-0.0018462191
-0.001307871
9.48098E-4
0.003770878
0.0067093116
0.007954895
0.0065719467
0.003507762
0.0013647901
-3.425929E-5
-0.0011848065
-5.49943E-4
4.2009773E-4
0.0019110527
0.004564357
0.0041748183
7.8687264E-4
-0.0019803706
-0.005684153
-0.008342884
-0.0058435546
-0.0033267234
-0.0019860286
3.4372535E-4
0.0012165405
0.0018643102
-0.0033769496
-0.011469883
-0.007931931
-0.0053856554
-0.0085813375
-0.0030985086
0.00123823
0.0017211968
0.0065159784
0.007702468
0.004508409
0.0014979794
-3.1891075E-4
1.6042308E-4
-4.270072E-4
-0.001852411
-9.5712754E-4
0.0021341748
0.0044404794
0.0040491065
0.0029692897
0.0011671841
2.081763E-4
9.789423E-4
6.676964E-4
0.0011006463
0.0013530301
0.0012527793
0.0046832035
0.0070345947
0.004996811
0.0018034428
4.0070128E-4
0.00127874
0.0016562416
0.0016828929
8.5037405E-4
0.0015756763
0.008230792
0.010568625
0.00399079
-0.0027197108
-0.007299433
-0.008434096
-0.008686655
-0.010800942
-0.0095614465
-0.0068366425
-0.004765046
-0.0029086613
-0.0042051193
-0.0058323336
-0.007021965
-0.008290627
-0.007596438
-0.007344217
-0.0052102464
0.0014474517
0.0089334855
0.013176625
0.011030188
0.0072455397
0.005856176
0.004215027
0.003424299
0.0029744245
0.0027090143
0.0048292247
0.0075209057
0.008622274
0.0054417336
8.2718633E-4
4.156425E-5
-4.6707128E-4
-0.0019190997
-0.004125186
-0.007585761
-0.006251113
-0.002518225
-0.0022855534
-0.0022219657
-0.0034705
-0.0060176086
-0.005233302
-0.0044786804
-0.0049714544
-0.0030532572
3.2286003E-4
0.004059554
0.0081681395
0.010621157
0.00856823
0.004801876
0.0049901046
0.004863334
0.0026126355
0.004751373
0.006423701
0.0024578797
-0.002233778
-0.0075231143
-0.011171331
-0.008504588
-0.004931035
-0.0055617583
-0.008368609
-0.0070419433
-1.5092122E-4
0.0014847266
-0.0028596434
-0.00421675
-0.0062907347
-0.0083426135
-0.0059568207
-0.0042879838
-0.0013402218
0.003835806
0.007218132
0.009729483
0.009134508
0.008647196
0.009891877
0.0065459325
0.0053313333
0.008635408
0.008981536
0.009827156
0.009436778
0.0033162455
4.2488053E-4
-6.473404E-5
-0.008914291
-0.017306633
-0.015010832
-0.010350797
-0.004958458
0.0015187452
0.0024689066
0.0026411295
0.004973433
0.0062025264
0.00404568
-0.006101018
-0.013968957
-0.010739851
-0.008694765
-0.009790271
-0.003675493
0.007666361
0.012176037
0.006732148
0.0010701609
-8.7917264E-4
-6.7145505E-4
-1.4995149E-4
-0.0059154574
-0.014701087
-0.014031229
-0.0030994702
0.0068744747
0.009775674
0.010251016
0.009336351
0.0060448684
0.0046018064
0.0043516504
0.004882939
0.008697652
0.011668856
0.009967825
0.0065305955
0.0035415376
-0.0014669766
-0.0055254265
-0.004825023
-0.0053349067
-0.005881544
-0.003530347
-0.005361609
-0.008899689
-0.010544093
-0.014188659
-0.01695328
-0.01720098
-0.018137086
-0.019690527
-0.016214704
-0.0040214835
0.007412044
0.010013775
0.008744342
0.009327566
0.009894075
0.0074518784
0.007259819
0.008929125
0.00899065
0.012214676
0.009010025
-0.0016965463
-0.001526164
0.001743158
-6.322254E-4
-0.0016222061
-0.0033592049
-8.235788E-4
0.0016319748
-0.006069276
-0.009234121
-0.010245581
-0.021718245
-0.029559676
-0.027203953
-0.022222491
-0.019117218
-0.016627187
-0.0064379848
0.008074899
0.018993298
0.028743787
0.03778639
0.043593273
0.0428969
0.039896563
0.04129048
0.03794295
0.02896343
0.025072796
0.02113055
0.011649663
-2.3389744E-4
-0.0128123965
-0.023641406
-0.031937018
-0.035673007
-0.032238413
-0.02602954
-0.020352876
-0.009692679
0.009266397
0.030756004
0.05088375
0.06755099
0.075493306
0.07356187
0.06457367
0.052096307
0.03607282
0.012399916
-0.019863676
-0.059437357
-0.09692383
-0.1193339
-0.13151738
-0.14243576
-0.14485113
-0.13131003
-0.10536884
-0.08229382
-0.081176646
-0.09798465
-0.11640096
-0.12913485
-0.12384936
-0.10216947
-0.07324238
-0.020387208
0.05665268
0.15379943
0.27215606
0.35115725
0.35871905
0.34137422
0.31845814
0.30699778
0.30186796
0.23806484
0.12862436
0.034242477
-0.040096298
-0.08081488
-0.07411712
-0.04501398
-0.046684902
-0.12157858
-0.20924687
-0.23885088
-0.25254765
-0.2773244
-0.2864359
-0.2775834
-0.25433904
-0.21910124
-0.15476128
-0.06267769
0.007261311
0.05659723
0.088228665
0.10088506
0.16189095
0.2265097
0.19046004
0.102499746
0.0366019
0.013594838
0.026374362
0.03023266
0.018954527
0.017924327
0.02470691
0.020411883
-0.010321133
-0.07119471
-0.1359569
-0.15274675
-0.12235709
-0.07179297
-0.0076801865
0.034617215
0.06872648
0.123915285
0.16177559
0.1792966
0.17471895
0.15665123
0.17574216
0.19659169
0.16468042
0.08063305
0.0048061204
0.01022145
0.01279889
-0.05205149
-0.10698274
-0.1357764
-0.13041899
-0.10415958
-0.15218121
-0.24100432
-0.25730342
-0.20819259
-0.1532564
-0.11051306
-0.0868583
-0.079040185
-0.05853287
-0.032459836
-0.017632185
0.004702973
0.03653718
0.08522982
0.14767218
0.18974748
0.21564402
0.22818051
0.21543646
0.1673947
0.060975336
-0.049537994
-0.09036297
-0.08174939
-0.04918396
-0.010744033
3.3668442E-5
-0.0071153617
-0.015187146
-0.034533046
-0.058557414
-0.06443572
-0.052885387
-0.03918003
-0.022742568
5.753991E-4
0.025809387
0.044682797
0.05244133
0.052569162
0.04119114
0.010011866
-0.025700467
-0.037522905
-0.020702671
0.0016834025
0.01138348
0.012617345
0.0131014455
0.010289093
0.003322108
-0.0012685645
-0.0059158644
-0.01812472
-0.030201789
-0.03284626
-0.028889902
-0.022514336
-0.015599202
-0.008248411
0.0015680584
0.015422851
0.029042607
0.0350057
0.033926826
0.029595222
0.024446473
0.019112846
0.011112997
0.0037187084
-0.002265966
-0.009469749
-0.014965351
-0.020914607
-0.028139705
-0.033223394
-0.036127858
-0.034482572
-0.027985137
-0.01745789
-0.0021025443
0.01463604
0.027408417
0.03407583
0.036122426
0.032800794
0.027831273
0.024264842
0.015959641
0.008878678
0.006460238
0.0015379614
8.356816E-4
0.0014635095
-0.007991357
-0.019739885
-0.024587313
-0.023067046
-0.019893646
-0.015343769
-0.0070089907
-5.5754615E-4
0.0018253687
0.00201737
-9.0728793E-4
-0.0044598402
-0.0049504186
-0.003861331
-0.007112294
-0.0105099445
-0.0063274563
-0.0010124365
5.495712E-4
4.3522965E-4
0.0024472033
0.009954174
0.01801794
0.021336757
0.017651677
0.00913647
0.0019656674
-0.0011807602
5.0958944E-4
-3.6033744E-4
-0.007724698
-0.014099231
-0.013951766
-0.0028343876
0.0068751182
0.006817377
0.013033456
0.021532027
0.022860805
0.01942036
0.009496213
0.0017634651
-0.0060758092
-0.018816972
-0.02267363
-0.01877932
-0.013724064
-0.010373472
-0.010608846
-0.007445982
-0.004435367
-0.002245392
0.0014908717
-0.0012096891
-0.004954835
-0.007261885
-0.01065678
-0.0068480424
4.6371765E-4
0.0046733133
0.0059108823
0.005369076
0.00741784
0.008997307
0.010314281
0.012850372
0.011122257
0.009329208
0.008112035
0.0052816444
0.003963734
-7.3298346E-4
-0.005295383
-0.004828131
-0.0059614717
-0.0074016796
-0.006300233
-0.0023863441
0.0018535032
0.0013552698
-0.0016325271
-0.0076574683
-0.011588235
-0.008048113
-0.006268731
-0.0039866124
5.9240713E-4
0.0038655084
0.009077183
0.00574679
-0.0016632228
0.0021949976
0.005419214
0.0034402
0.0016025956
-7.125135E-4
-1.9591508E-4
9.987602E-4
0.0034506759
0.006372451
0.002430619
-0.0027680772
-0.0037870307
-0.003619218
-0.0029021858
-0.0014178318
3.99004E-4
0.0015930976
0.004135342
0.0069157644
0.005384592
0.0026841597
9.843964E-4
-0.0014104726
-0.0030933823
-0.0034383642
-0.0026531592
-0.0011517436
-1.4053186E-4
6.8061915E-4
9.263754E-4
-0.0024739066
-0.0068930294
-0.0064503443
-0.0053239344
-0.005721101
-0.004085251
-0.0020471618
0.0022105658
0.0075142123
0.007255018
0.003327657
-1.9017312E-4
-4.9507205E-4
1.0674932E-4
-0.002098575
-6.6938717E-4
0.004221024
0.0069864155
0.009308001
0.00874969
0.0028042714
-0.0033506681
-0.0046515656
-0.0037853306
-0.0038214526
-0.0010566165
6.450179E-4
-7.1849354E-4
0.0026386208
0.0044982154
7.563394E-5
-0.0021771372
-0.0037954543
-0.0061792424
-0.0045013214
-0.002608541
-0.0018904549
0.0024993534
0.0066180965
0.0055754767
0.0021425986
-0.0024339713
-0.0059684785
-0.0050336663
-0.0020119932
2.9103222E-4
0.0026964187
0.005993441
0.005974225
0.002336275
0.0017143948
7.4821425E-4
-0.0025907871
-0.0030490032
-0.0030406308
-0.0025408724
-0.0010923203
6.924185E-4
0.0051625785
0.004950511
-6.157324E-4
-0.0033550751
-0.005129562
-0.006143231
-0.0046979417
-0.0029621387
-0.0011363522
0.0018341481
0.0052696625
0.005221062
0.0020644735
-9.376421E-4
-0.0024679438
-0.0018525755
-0.0027665885
-0.003484525
-2.4843556E-4
0.0031835854
0.005956765
0.0058755195
0.0014914912
-0.002262922
-0.00403557
-0.0038972693
-0.0016862885
4.8005342E-4
5.2553427E-4
0.0021068852
0.0053696907
-2.465797E-4
-0.0057599596
5.1798613E-4
0.0023946252
-0.002753585
-0.00377624
-0.0023666827
7.099855E-4
0.004464922
0.006376581
0.0048808134
3.684403E-4
-0.0024822797
-0.004520049
-0.005380629
-0.00324445
-0.0013738349
0.0012487987
0.0038982502
0.004842416
0.0052954154
0.0028984332
-6.8984414E-4
-0.003196309
-0.0050152475
-0.0043578073
-0.004133741
-0.0044592787
-8.408756E-4
0.00282018
0.002675428
5.4374954E-4
-0.0031153578
-0.005280659
-0.0034619842
-0.001801703
-0.0011043681
9.093546E-4
0.0029154823
0.0055161226
0.007839088
0.006146826
0.0024226976
1.712996E-4
-0.0011672052
-0.0023290175
-0.0018142242
6.283171E-4
0.0037987346
0.0065864567
0.00564962
0.0018435329
-0.0017430332
-0.0054660467
-0.00559849
-0.0030923113
-0.0031444137
-0.002259416
2.4278919E-4
0.0014568918
0.0024451355
0.0014889705
-0.002208244
-0.0042987918
-0.0038377806
-0.0033589615
-0.0019780295
-7.588735E-5
0.0019818924
0.005013412
0.0035890636
-5.279407E-4
-0.0015236703
-0.0031893943
-0.0033993395
-0.0017342387
-0.0027876075
-0.0016705246
0.0019810423
0.005546117
0.007449064
0.0033383828
-7.6065253E-4
-5.141714E-4
-8.777795E-4
-0.0016528209
-8.9960796E-4
0.0013006193
0.0043663536
0.00693205
0.0067833317
0.0026518158
-0.0024485886
-0.004605542
-0.0035384938
-0.0032585566
-0.0039488156
-0.0025803028
-1.2684798E-4
0.0039490154
0.00527698
0.0023495567
4.6620608E-4
-0.00700092
-0.011545058
-0.0020191595
6.3265517E-4
-0.0035914301
0.0016895656
0.0063929874
0.0063352278
0.004596458
-0.003414028
-0.010534733
-0.0069814
-5.8182224E-4
-3.556167E-4
1.391158E-4
0.003805666
0.0058297035
0.0059097945
0.0029908167
-3.793021E-4
-0.0017341325
-0.003979176
-0.0042930953
-0.0024310376
-8.121805E-4
0.0024665373
0.005265083
0.005375494
0.0023884547
-0.0019373072
-0.0028113746
-0.0022507058
-0.0020732302
-6.5259275E-4
3.2421443E-4
0.0031846738
0.006798784
0.0049862675
0.0017025257
1.8241763E-4
-0.0015965638
-0.0024554
-0.003552097
-0.004028118
-0.0018404191
0.0012647838
0.0047667716
0.0043504597
3.0273688E-4
-0.0014175148
-0.003732332
-0.00577858
-0.00497188
-0.004633193
-0.0027669314
-7.490428E-5
0.00220683
0.0048043947
0.0029438208
-2.945324E-4
-9.117804E-4
-0.0022467172
-0.002674165
-0.0021817407
-0.0024086162
-4.7149795E-5
0.0042440156
0.0055838157
0.0035901961
3.649685E-4
-0.0032984808
-0.0034555
-6.519173E-4
-0.0012376461
-0.0012103944
0.0023912033
0.0032335257
0.0029620186
0.0040274886
0.0023368017
-0.0016800499
-0.0037240598
-0.0016980642
6.825052E-4
4.5854825E-4
0.0016429881
0.0038694064
0.0030247418
3.785748E-4
-0.002751722
-0.0047009233
-0.003604333
-0.002471667
-0.0024022374
-0.0020313244
-7.1742444E-4
0.0030298494
0.0055436674
0.0035266504
5.3832954E-4
-0.0012428373
-0.0014192368
-0.0020968432
-0.0038537602
-0.0022260337
3.361511E-5
7.5333734E-4
0.003056976
0.0030414644
-1.6041258E-5
-0.001544862
-0.0014841278
-0.0011588235
-0.0010992223
-2.0735283E-4
7.8959E-4
0.0011913524
0.0024736242
0.0017456408
-3.9354246E-4
-6.238863E-4
-0.0010605808
-0.0016660013
-0.0019160954
-0.0010928231
0.0021320719
0.004406984
0.004426555
0.0023911088
-8.5812283E-4
-0.00259882
-0.0033929688
-0.0032069944
-0.003041098
-0.0029844306
5.127866E-4
0.0036487351
0.0033499137
0.0027893437
0.0014609668
-8.352367E-4
-0.0025205929
-0.0032807542
-0.0026837932
-4.1886925E-4
0.0024357883
0.0037891662
0.0038468458
0.0020344902
-0.0018452145
-0.0035143443
-0.0033979397
-0.0041681733
-0.0036399427
-0.001013525
0.0027483348
0.005516981
0.004656358
0.0017327034
-3.2879857E-4
-0.0012847151
-0.0021882872
-0.0028606467
-0.0017474964
7.2556164E-4
0.0021664395
0.0035037631
0.004959117
0.0035094328
0.0018033261
6.678655E-4
-0.0020741872
-0.0023647526
-0.0016670304
-0.0010787959
0.0018364844
0.0037743975
0.005997649
0.00347436
-0.003827703
-0.0039934483
-0.0072112703
-0.011610125
-0.0035080523
9.590254E-5
-0.0013227415
0.0035944826
0.0051803254
0.0024628607
-0.0017923834
-0.00463483
-0.003451205
-0.0040443772
-0.0029909257
-9.502082E-5
9.210087E-4
0.0036428873
0.004521078
0.003934045
0.0041319528
0.0013876483
-4.761116E-4
-5.780225E-4
-0.0015774474
-0.0010101632
0.0016939824
0.004711835
0.005133216
0.0033257245
5.6119903E-4
-0.0038930147
-0.0056399535
-0.0031624427
-0.0015299781
-0.0022035013
-0.001778617
0.0016457458
0.004439353
0.0044687307
0.0026134355
-4.5408637E-4
-0.001511463
-0.001399968
-0.0019568475
-5.346921E-4
0.0012629582
0.0029971653
0.005048598
0.002753093
-0.0015595289
-0.003705617
-0.0047167186
-0.0030221147
-0.0016738093
-0.0028682058
6.134807E-4
0.005232373
0.0034986883
0.0010888071
-7.945616E-4
-0.0036203444
-0.004466488
-0.005909113
-0.0063470723
-0.002988236
6.089711E-4
0.0044032494
0.0054258755
0.0016302275
-6.4895785E-4
-5.310767E-4
-4.632992E-4
-7.5685146E-4
-0.001454139
-0.001141057
3.1722957E-4
0.0032996438
0.005749494
0.004838301
0.0029583042
5.9084065E-4
-8.536255E-4
-1.3381321E-4
-0.001269494
-0.0017891669
6.718179E-4
0.0023284936
0.002990262
0.0017977991
-0.00112857
-0.0027062267
-0.0027484428
-0.0018832176
-0.0021443686
-0.003173344
-0.0017048366
0.00114479
0.0030657942
0.0023245858
2.8340655E-4
-3.8159842E-4
-0.0025989055
-0.0046047065
-0.0024701294
-0.0012468302
-0.0015961598
0.0015085507
0.0054926947
0.0050094924
0.0010886096
-0.0015899724
-0.0016777485
-0.0014038953
-0.0011973218
5.8013713E-4
0.001693587
0.0010607423
0.0025171388
0.0029676554
6.3839956E-4
1.16364354E-4
-0.0012439482
-0.0025017692
-0.0015724519
-0.0017100814
7.6506025E-4
0.002909878
0.0023035384
0.004408616
2.0705942E-5
-0.009461571
-0.007102066
9.0118054E-5
-0.0024225628
-0.008452185
-0.0052311295
0.0040126326
0.0076014665
0.0065559205
0.0043899044
0.0010409965
-4.4764578E-4
-3.800594E-4
-1.2728259E-5
4.8760214E-4
0.0016527013
0.004151204
0.004403148
0.0029189158
0.0011677665
-0.0024539784
-0.003943311
-0.0032986212
-0.0035442784
-0.002519299
-3.7430172E-4
0.0021392517
0.0033380026
0.0017921453
8.6966855E-4
2.045654E-4
-0.0016303917
-0.0030210218
-0.0033585737
-0.0015434364
8.2044606E-4
0.0021574292
0.00338242
0.0022816157
-5.0479796E-4
-0.0017517585
-0.0024321086
-0.0028016805
-0.0016095713
-4.7210776E-4
-6.844338E-4
6.173566E-4
0.0026462758
0.0013576683
8.533202E-4
0.0020351845
-7.215475E-4
-0.0035059939
-0.002774037
-0.0018428009
-5.001517E-4
0.002026816
0.0035932849
0.0023078853
3.7668E-4
-2.5138436E-4
-0.0012967887
-0.0015420931
-8.9858554E-4
-5.6423363E-4
0.0012371213
0.0031868229
0.003567418
0.0019178733
-1.3226487E-4
1.0981951E-4
-4.7916637E-5
-8.73716E-4
-0.0022919786
-0.004793521
-0.002492202
0.002788124
0.0052711084
0.0043495386
3.6144862E-4
-0.0022245236
-0.0038419308
-0.0045550163
-0.001028068
-1.878396E-4
-0.0011466973
0.001439307
0.0024685815
0.0024975792
0.0012664945
-0.0020629854
-0.0022025332
-0.0015360323
-0.0015463128
-6.6268374E-4
-2.6033676E-4
0.0015448247
0.0032377215
0.0028421313
0.0018054142
-3.9003417E-4
-0.0021738438
-0.0030323123
-0.0032061755
-0.0019455854
-7.6283445E-4
0.0019336329
0.004953849
0.0046759523
0.0031317144
2.893221E-4
-0.002163948
-0.0016426886
-0.0019182785
-0.0024198743
-8.7502034E-4
0.0017453679
0.004380533
0.0036686233
4.512228E-4
-0.0024072332
-0.0038299062
-0.0019505008
-0.0010510097
-0.0025450587
-0.001086238
0.0013673761
0.002405096
0.0028938386
0.001210462
-0.0013007452
-0.0022384454
-0.00235364
-0.0023486966
-0.0019304599
-9.1350195E-4
0.0017098483
0.0052775955
0.0044815806
-2.53284E-5
-0.001780695
-0.0022727356
-0.0028142226
-7.9299835E-4
3.275731E-4
-7.6800765E-4
4.6483128E-4
0.0032342304
0.0031283537
7.232222E-4
-0.001378326
-0.002716426
-0.0028774599
-0.0021996466
-0.0018435634
-8.586941E-4
0.0017934167
0.003740122
0.003268359
0.0023404807
4.3482258E-4
-0.002579665
-0.0028160457
-0.0013492837
-8.27917E-4
6.061821E-5
0.0017769072
0.0034282785
0.0035028055
0.0023947028
5.1055866E-4
-0.0016105132
-0.0011637319
-5.1629514E-4
5.927409E-4
0.0032633527
0.002430028
0.0044015907
0.006527793
-0.004841309
-0.012054057
-0.004052563
-0.0020656914
-0.0056703836
-0.0029919224
-6.154466E-4
9.976302E-4
0.0034251749
0.002183889
0.0013639864
8.6100894E-4
-0.0010231432
-3.3132135E-5
-0.0011027029
-0.0019593092
0.0013114266
-0.001732341
-0.0034813099
0.003733315
0.005427407
0.0014982825
-6.083664E-4
-0.0017096272
-5.100561E-4
8.4377226E-4
6.7258906E-4
0.0012724564
0.0031549365
0.0045492915
0.002559929
-7.066787E-4
-0.001739333
-0.0018649321
-0.0023052325
-0.0021584588
-6.56963E-4
0.0017527308
0.0041954922