1.2865015E-4
6.807584E-5
-2.9856657E-5
-9.973309E-5
-3.7513528E-5
-1.13874354E-4
-1.229131E-4
-8.409304E-6
-6.52333E-5
1.9103392E-5
1.2571597E-4
1.621485E-4
2.1297767E-4
5.1770912E-5
2.819729E-4
4.0462364E-5
-0.0011633651
-7.689542E-4
4.80944E-4
4.968613E-4
4.6776334E-4
3.7500766E-4
1.1582491E-4
2.1136379E-4
1.1245705E-4
1.5108634E-4
1.9430362E-4
1.8829193E-4
3.172779E-4
2.084156E-4
5.568629E-4
8.535535E-5
-0.0012568092
-4.714376E-4
5.898756E-4
3.8451765E-4
6.0720457E-4
-4.5934564E-4
-0.0021068612
-0.0012873393
6.145278E-5
1.8179767E-4
1.09369226E-4
4.060798E-5
-7.882161E-6
1.2874848E-4
1.8018197E-4
1.5978534E-4
1.375361E-4
7.948926E-5
1.4004247E-4
2.0651003E-4
1.2913907E-4
9.399647E-5
1.0997023E-4
1.4445091E-4
2.4700718E-4
2.5783447E-4
1.3951056E-4
4.7297217E-5
-1.3476748E-6
-5.4889548E-5
-8.75227E-5
-1.2455907E-4
-1.8351438E-4
-1.5948842E-4
-6.9493886E-5
-1.0702118E-5
2.2568615E-6
-2.7045176E-5
-4.3414362E-5
-2.0811047E-5
-5.6659985E-7
-4.9166763E-5
-6.302199E-5
9.9882716E-5
2.2638461E-4
2.8304613E-4
3.4379054E-4
2.6052797E-4
2.093895E-4
2.6323015E-4
2.4133663E-4
1.6651819E-4
1.1038043E-4
9.5627576E-5
1.39241265E-5
1.7086775E-5
-5.596745E-6
-4.3130858E-4
-5.336165E-4
-2.3758605E-4
-1.9819997E-4
-1.1633616E-4
-2.7553827E-4
-5.150349E-4
-1.610138E-4
6.219358E-5
7.4644835E-5
2.2442051E-4
1.4199186E-4
1.349363E-6
-6.5160464E-5
-9.572894E-5
-8.360106E-5
-1.4122733E-4
-8.478771E-5
-1.7336927E-6
3.5010269E-6
3.553684E-5
-8.481081E-5
-1.6063364E-4
-1.3524699E-5
-3.506369E-5
-1.6530418E-4
-1.1147678E-4
-2.3356111E-5
8.6863845E-5
1.8480125E-4
1.8950782E-4
3.350393E-4
4.3086323E-4
3.4794433E-4
3.532449E-4
3.6643803E-4
3.895839E-4
3.5777225E-4
3.1473621E-4
3.943476E-4
3.715757E-4
4.2409927E-4
3.4721813E-4
2.4029556E-4
2.6590156E-4
-5.959904E-4
-9.2037854E-4
6.574853E-5
2.6545874E-4
4.8649756E-4
3.7712316E-4
-0.0011376258
-0.0010194049
-1.9032377E-4
-0.0015107173
-0.0024830864
-0.0014358212
7.000079E-6
5.2882574E-4
3.897109E-4
4.0751006E-4
3.7408326E-4
2.3844877E-4
2.446915E-4
2.1053247E-4
2.0468334E-4
2.1335384E-4
2.8022504E-4
4.0650537E-4
3.809893E-4
3.8037685E-4
3.9225008E-4
3.170577E-4
3.1596384E-4
2.6841415E-4
1.15030925E-4
2.4225346E-5
4.4259483E-5
6.0304304E-5
-6.9312796E-6
-4.8496706E-5
-6.6359295E-5
-6.4116764E-5
-4.7467356E-6
-8.695059E-5
-1.928036E-4
-7.133994E-5
2.8830164E-5
1.6822656E-5
3.0446578E-5
2.9411527E-5
5.530407E-5
1.1307794E-4
1.4055784E-4
1.0556619E-4
2.4743285E-5
2.8798919E-5
8.036756E-5
9.4598356E-5
1.6873017E-5
-8.5225365E-5
-6.1287086E-5
-1.4834462E-4
-1.4728865E-4
-1.6624083E-4
-8.8463054E-4
-0.0010901518
-2.651523E-4
8.819408E-5
1.1390456E-4
9.466096E-5
-2.5704448E-4
-1.458393E-4
2.875023E-4
3.0360837E-4
1.5028898E-4
1.2415834E-4
4.3677952E-5
-1.3456546E-4
-6.744829E-5
8.462394E-5
1.2252624E-4
2.1163534E-4
1.847666E-4
1.3863896E-4
1.6443848E-4
7.9346144E-5
2.2686938E-5
7.646104E-5
1.3240705E-4
1.50564E-4
2.311676E-4
2.1725333E-4
4.906374E-5
8.7212655E-5
1.00884696E-4
1.8049886E-5
1.0187675E-4
1.263489E-4
1.5373417E-4
1.8706542E-4
1.7215923E-4
1.839237E-4
1.6548476E-4
1.8108403E-4
1.0605214E-4
3.3161027E-4
9.8418706E-5
-0.0012995079
-0.0011210626
1.7807748E-4
1.0474774E-4
2.9169777E-4
-1.9829268E-4
-0.001859122
-0.0013252761
2.0739091E-5
1.4387797E-4
2.1838528E-4
1.9030311E-4
1.8262942E-4
5.172192E-5
-3.2758823E-4
1.6611571E-5
3.542526E-4
1.88282E-4
2.0903005E-4
2.8106276E-4
4.0593653E-4
4.902969E-4
4.35339E-4
4.5405346E-4
3.706218E-4
3.306324E-4
2.5331558E-4
5.3723477E-5
5.3516393E-5
-1.4420803E-5
1.2513813E-4
3.8122706E-4
2.2179815E-4
2.7426056E-4
-3.5896088E-4
-0.0016247683
-0.0010876276
1.3369295E-5
-2.7381097E-5
4.5587123E-5
2.0790794E-4
1.4930588E-4
8.617271E-5
-9.9899196E-5
-3.6095353E-5
1.374491E-6
-1.5772361E-4
-8.838897E-5
2.0055295E-5
6.90765E-5
8.4257335E-5
9.27378E-5
2.071289E-4
2.0684488E-4
8.418476E-5
6.108278E-5
6.676705E-5
-5.1017272E-5
-1.8047744E-4
-1.9683652E-4
-1.15450064E-4
6.0675287E-5
1.3632156E-4
9.71117E-5
7.6493794E-5
-3.9973478E-5
-1.4070468E-4
-1.5506211E-4
-1.4646088E-4
-6.284204E-5
1.684901E-6
4.316271E-5
7.526699E-5
1.0128576E-4
1.1802221E-4
1.4396758E-5
-9.3017414E-5
-1.699017E-4
-2.5188687E-4
-2.3117286E-4
-8.0658865E-5
1.4052227E-4
1.6803839E-4
2.5309222E-5
-5.0085117E-5
-9.673457E-5
-1.3204599E-4
-1.8227201E-4
-1.2068799E-4
8.648306E-5
2.872737E-4
4.779212E-4
5.414205E-4
5.3821085E-4
4.296637E-4
2.5688342E-4
1.4882446E-4
-1.2369573E-4
-1.1820593E-4
-6.943334E-5
-9.399613E-5
3.2091257E-4
-4.1564324E-4
-0.0012717276
-1.9379809E-4
2.915209E-4
-1.912828E-5
2.3544779E-4
3.376872E-4
4.2750355E-4
-4.3309174E-4
-0.001267288
-1.525487E-4
4.7017957E-4
1.3570739E-4
1.4731004E-4
-4.056373E-4
-8.098845E-4
-3.6912475E-4
-7.702606E-5
2.1060323E-5
2.6006953E-4
3.986077E-4
2.444742E-4
6.2904626E-5
7.3156305E-5
1.3737718E-4
2.820508E-4
4.796797E-4
6.1360624E-4
7.2526484E-4
7.214845E-4
5.3415424E-4
3.3823575E-4
1.4975788E-4
-1.9507474E-4
-5.9135875E-4
-8.9707633E-4
-0.0012111582
-0.001519558
-0.0015059481
-0.0011763888
-0.0011400783
-0.0013391433
-0.0012061947
-8.782575E-4
-4.0623883E-4
2.3666151E-4
8.8950404E-4
0.0015828544
0.002162759
0.0026001832
0.0026369954
0.002231781
0.0017588031
9.811205E-4
1.279995E-4
-9.370378E-4
-0.002097201
-0.0024668144
-0.0025112869
-4.0670717E-4
0.0026256274
-6.318011E-5
-0.0047153155
-0.004390547
-0.0020301156
5.6918536E-4
0.0029551864
0.0040522604
0.005320606
0.0057164887
0.005229833
0.0046292795
0.0027392798
9.981191E-4
-0.001297023
-0.004247059
-0.005759022
-0.007555539
-0.0063618063
-0.0020890457
-0.0034612098
-0.007123777
-0.006615081
-0.004752234
-0.0021920747
6.3923595E-4
0.0029714664
0.0054134247
0.0067777056
0.007328958
0.006952076
0.005157121
0.0028544138
-5.259275E-4
-0.004290144
-0.007648357
-0.011399028
-0.009814611
0.0037205808
0.018287275
0.019317998
0.012227243
0.003663002
-0.0071896627
-0.01290849
-0.009600548
-0.0035909573
9.906266E-4
0.0040869983
0.0061507435
0.005543691
0.0025894137
-1.9802738E-4
-0.003607932
-0.008492874
-0.012723441
-0.011477353
-0.0026449217
0.008666195
0.013696411
0.007170688
-0.0031556736
-0.008578412
-0.01246284
-0.014709198
-0.010607905
-0.0025915217
0.003514367
0.0069468156
0.009899182
0.010815775
0.009192697
0.0047682105
0.004325245
0.014798265
0.011373829
-0.013358531
-0.020523272
-0.004233707
0.00944588
0.011884595
0.0060602976
0.0018117916
-0.0018317552
-0.011128348
-0.014973248
-0.008644793
2.3305479E-4
0.0067073
0.009632407
0.010296541
0.007494651
0.0016511807
-0.005842007
-0.012632672
-0.0133013185
-0.011024973
-0.0060188724
0.0067592296
0.017025396
0.016645195
0.011392254
0.0053624567
-7.5727154E-4
-0.009403941
-0.018217716
-0.016687568
-0.0063131624
0.0022237862
0.006744486
0.007579384
0.0041644666
-0.0021188934
-0.00897344
-0.012995785
-0.014849968
-0.014120263
-0.0058911955
0.006420743
0.014801644
0.016771013
0.015985874
0.016409436
0.013969326
0.007081882
-0.0017976466
-0.011191308
-0.012044973
-0.0039812657
0.0022220134
0.0051540076
0.0060745208
0.005277123
0.0019368675
-0.0041646967
-0.00718937
-0.0075102355
-0.0018646086
0.013112734
0.018942153
0.009070417
-0.003537576
-0.013962181
-0.017161414
-0.016516088
-0.019700248
-0.016756497
-0.0044990205
0.0067560626
0.013228679
0.014707263
0.011119823
0.004222321
-0.0021626845
-0.0059821988
-0.0076426785
-0.005441581
-0.0011920691
0.004954957
0.014804937
0.017285537
0.007479896
-0.0018170911
-0.0055006035
-0.008978195
-0.013980614
-0.014625924
-0.0058456347
0.005000179
0.010373844
0.011742779
0.009425954
0.004913305
0.0014599904
-0.0018659574
-0.005793956
-0.010704847
-0.0134954285
-0.006427595
0.0048888894
0.0070421905
0.003919654
0.004514819
0.0040203994
-0.002246368
-0.009950615
-0.014295762
-0.010500219
6.30246E-4
0.008012711
0.008413981
0.006497423
0.0026812262
0.0010803372
0.0010780839
-0.0049591204
-0.011829426
-0.009336559
0.0010917209
0.00936063
0.014632235
0.023413006
0.02590978
0.015972259
0.0020506629
-0.013596261
-0.020010319
-0.009259851
0.0039433436
0.011617411
0.01441213
0.011728116
0.005846017
-0.0029830004
-0.014743497
-0.02949804
-0.041392032
-0.0394767
-0.024107216
-0.0053841313
0.0076443013
0.015225391
0.017617984
0.010436086
4.2209792E-4
-0.0064935787
-0.008638903
-0.0014560613
0.008515491
0.014748737
0.01672904
0.013711513
0.008789402
0.003833711
0.0024106603
0.002359191
-0.0013706979
-8.668248E-4
0.003875997
0.0060786004
0.006137499
0.003616513
0.00242072
0.003005747
-4.3997592E-5
-0.005779262
-0.011042856
-0.012890488
-0.010501396
-0.0037351898
0.0053007556
0.009828191
0.007371511
-4.4257566E-4
-0.007998888
-0.012056478
-0.0120750675
-0.0027394367
0.010517589
0.017469795
0.009119515
-0.01427712
-0.021718217
-0.006485833
5.0155295E-4
-0.004665334
-0.010227638
-0.00912157
0.0012116309
0.011015915
0.01573034
0.014519835
0.008858511
0.005330058
0.0017636018
-0.0046095327
-0.012017761
-0.015870376
-0.009949495
0.0014098206
0.008241896
0.008679032
0.008583807
0.008942209
0.005552051
-0.0011388354
-0.008976521
-0.010833855
-0.0017831235
0.010874211
0.019555707
0.01700727
0.0033672636
-0.006781349
-0.006756206
-0.004590769
-0.0051677674
-0.0034247646
0.0026355637
0.0067663365
0.004669265
-4.5106735E-4
-0.0013996297
0.0011994619
0.0011442939
-0.00948716
-0.032483086
-0.043586932
-0.03334333
-0.023311345
-0.012106185
0.0051667294
0.015426373
0.018815173
0.020875994
0.021972807
0.021355646
0.019239478
0.018972013
0.020860389
0.023190372
0.022849476
0.019060204
0.015092439
0.010842114
0.0040728324
-0.004564708
-0.0071863504
-0.0023226363
8.189599E-4
0.0016177925
8.022647E-4
-0.00419746
-0.0119865425
-0.020316597
-0.026856497
-0.030666728
-0.027625764
-0.021861289
-0.019416703
-0.01154925
-0.0074539827
-0.010972788
-0.0036824476
0.0014395793
-0.0056910706
-0.010460847
-0.011614312
-0.007254953
8.010671E-4
0.003021011
-2.1078269E-4
-0.0033960128
-0.0014335687
0.0017181956
0.0046708854
0.008606653
0.0092554595
0.017476039
0.032540478
0.03683332
0.034805357
0.03300382
0.02996176
0.025357544
0.014010766
-0.0010056592
-0.009245519
-0.0039120903
0.009825512
0.017266754
0.018598389
0.020685801
0.020453185
0.007752289
-0.029141963
-0.06304304
-0.047823213
-0.009417403
-7.170198E-4
-0.010729168
-0.01822181
-0.030920561
-0.044872534
-0.047200974
-0.03773633
-0.024952801
-0.013511662
-0.0025863943
0.0052214484
0.009779135
0.013066748
0.013818111
0.01359924
0.012422953
0.010072776
0.008152648
0.0055879955
0.0038388153
0.0029214618
0.0019596387
0.0027185518
0.0020898911
0.0063957106
0.03478473
0.07404572
0.073071525
0.027174167
-0.006344623
-0.008738473
-0.007094147
-0.0075899647
-0.007224186
-0.008351717
-0.009160037
-0.010393108
-0.011829765
-0.012621619
-0.013437472
-0.013470313
-0.01340089
-0.013046534
-0.011932429
-0.010642446
-0.008938703
-0.0073695397
-0.0058323145
-0.0041567027
-0.0026725656
-0.0011017945
1.251232E-4
0.0011506766
0.0017768706
0.001923893
0.002615031
0.0030774055
0.0030100625
0.0029370578
0.0024017012
0.0017440835
0.0012268117
9.0279634E-4
9.76486E-4
0.0010522164
0.001089467
0.0010973704
0.0013336552
0.0018169236
0.0019886214
0.002367811
0.0029011834
0.0032205654
0.0037332561
0.0036706296
0.0032094088
0.0031556292
0.0024864003
0.001609169
0.0010412789
-5.2978174E-4
-0.0017172808
-0.0013116612
-0.001401196
-0.001957607
-0.0019954063
-0.002109726
-0.0019354522
-0.001357101
-6.4937246E-4
1.5328819E-4
6.899193E-4
0.0010685679
0.001044439
8.0192403E-4
8.782213E-4
7.7512575E-4
6.8458135E-4
7.291008E-4
6.9594325E-4
8.672496E-4
7.6505955E-4
6.2021706E-4
2.7838792E-4
-9.658404E-4
-0.0012281066
-3.7170033E-4
-3.1755283E-4
-3.660709E-4
-3.0776582E-4
-4.739855E-4
-7.7129356E-5
2.1751833E-4
1.12007E-4
2.885385E-4
3.2431845E-4
1.6636938E-4
1.5284165E-4
1.5430355E-4
2.362924E-4
3.229163E-4
3.993199E-4
4.658733E-4
3.0353732E-4
2.2690985E-4
2.3692087E-4
5.443525E-5
3.4944838E-7
1.7870407E-5
6.756473E-5
2.1719614E-4
3.3776276E-4
6.616364E-4
2.496015E-4
-0.001493466
-0.002657252
-0.002695566
-0.0022770544
-0.0010885346
-3.4137495E-4
-4.6150284E-4
-4.2895128E-5
1.592344E-4
3.146526E-4
8.1891834E-4
8.303986E-4
0.0011334168
0.0012698958
0.0012301747
0.0016412676
0.001490698
0.0013288911
0.0010828128
5.6159485E-4
1.8551174E-4
-6.545737E-4
-0.0015302598
-0.0031554264
-0.0053433916
-0.007176875
-0.009217009
-0.010356097
-0.011077042
-0.011111725
-0.009557577
-0.0074042836
-0.003506945
9.093098E-4
0.005338475
0.010336463
0.01395693
0.017175011
0.018811837
0.018527461
0.017490447
0.014019287
0.009846534
0.004283896
-0.001316357
-0.005181203
-0.010102549
-0.012309196
-0.013530776
-0.014730492
-0.011198813
-0.005177397
0.0042137555
0.010836709
0.012785317
0.017320631
0.02007605
0.023239003
0.022934765
0.018891007
0.01730612
0.005449499
0.0093260305
0.03168103
0.014791663
-0.019730998
-0.032592583
-0.04427108
-0.05349308
-0.055654787
-0.05567979
-0.05041712
-0.044219147
-0.03642955
-0.027540827
-0.020151593
-0.013296394
-0.009160851
-0.0070553753
-0.0070252907
-0.010702562
-0.01636313
-0.022194184
-0.027786069
-0.0074472427
0.06405263
0.13417484
0.15500034
0.15227194
0.13885738
0.11955167
0.099641025
0.067340426
0.02892596
-0.02261642
-0.08038874
-0.10108949
-0.090594724
-0.0758127
-0.057029605
-0.039967857
-0.03275471
-0.03743158
-0.04609642
-0.049815267
-0.051796734
-0.052269123
-0.049965132
-0.046382714
-0.040732004
-0.03267422
-0.021663848
-0.008854803
0.0046516755
0.018347451
0.030452948
0.0408541
0.048311822
0.051914513
0.05215484
0.048619855
0.04227915
0.033402145
0.022844844
0.012267651
0.0017928381
-0.0066304356
-0.0128736
-0.017942503
-0.019081611
-0.01615801
-0.009795065
-2.3407463E-4
0.009084624
0.017872123
0.026540674
0.033628915
0.03896665
0.040696174
0.038993638
0.034943733
0.027420744
0.017444856
0.0057054837
-0.00665044
-0.018595023
-0.02983154
-0.03775412
-0.043276303
-0.04634474
-0.045211002
-0.043029353
-0.03935423
-0.03261721
-0.025405735
-0.019379852
-0.014967198
-0.012040583
-0.011558238
-0.013718706
-0.01734246
-0.01992777
-0.020873943
-0.025762841
-0.026146442
-0.0050311517
0.03372062
0.07037806
0.0828662
0.07281512
0.0592217
0.03904403
0.012481813
-0.007882248
-0.02208637
-0.027032834
-0.020956976
-0.012738548
-0.0065658316
-0.0017361728
0.0027036178
0.0082175275
0.014662034
0.016827006
0.014792935
0.013795988
0.014397122
0.022596171
0.03329989
0.03068905
0.020580625
0.013733631
0.010611268
7.265914E-4
-0.023105811
-0.031709895
-0.0022195044
0.029230366
0.0105352765
-0.04515249
-0.07334048
-0.06537786
-0.056615997
-0.050620597
-0.045413975
-0.043025143
-0.038178828
-0.03385251
-0.030082589
-0.023986557
-0.015642917
-0.004554854
0.006719543
0.01833979
0.03012444
0.040050764
0.04835918
0.053246554
0.0548566
0.05343332
0.04814421
0.040766507
0.031164184
0.020424463
0.010020444
2.046305E-4
-0.0070938966
-0.012225486
-0.014754653
-0.01431591
-0.011953831
-0.0064784875
6.328273E-4
0.008254186
0.015975218
0.021577552
0.025482502
0.026457744
0.02402712
0.019302042
0.011236891
0.001361616
-0.009944166
-0.022445718
-0.033777192
-0.04381246
-0.05098532
-0.0501965
-0.041057806
-0.03880653
-0.047825046
-0.049029715
-0.04190444
-0.034381848
-0.02591166
-0.021462522
-0.017217636
-0.0152863385
-0.017669465
-0.018859249
-0.02984791
-0.021224435
0.04386749
0.110522054
0.12775254
0.1252106
0.12663431
0.11778289
0.0990912
0.07801239
0.044943493
0.005029459
-0.037561513
-0.06815502
-0.046056148
-0.009539293
-0.019434279
-0.037349153
-0.0348058
-0.034063872
-0.03652842
-0.036669657
-0.03420138
-0.034600824
-0.043083157
-0.050363075
-0.051270023
-0.04628976
-0.037117455
-0.026770832
-0.007668992
0.01503504
0.02086725
0.011895451
-0.0050782687
-0.028991247
-0.03763209
-0.017897896
0.009329247
0.022307625
0.020588899
0.016754853
0.019736348
0.026772628
0.028760958
0.029166805
0.036325805
0.04215118
0.04330305
0.043591708
0.042751428
0.043072633
0.04018816
0.032214187
0.022310384
0.017567432
0.027890177
0.04114461
0.054348756
0.060723808
0.017923532
-0.05527183
-0.09361325
-0.097463235
-0.0916232
-0.07838069
-0.061883107
-0.04389556
-0.026749784
-0.020216374
-0.02024612
-0.015806604
-0.01200289
-0.019190453
-0.032778103
-0.036068812
-0.029960189
-0.023237826
-0.01342411
-0.0068754433
-8.674069E-4
0.006680574
0.010053469
0.018795488
0.024979562
0.030018859
0.040351808
0.05123325
0.08251169
0.099100515
0.07354629
0.044351712
0.010510937
-0.0044197007
-0.007721293
-0.036497463
3.5084295E-4
0.10324439
0.13448109
0.070972465
-0.012906809
-0.057754576
-0.076819584
-0.10002613
-0.11157079
-0.10665376
-0.094491184
-0.083439834
-0.06479068
-0.042656045
-0.025757235
0.025981516
0.062413346
0.017802598
-0.016120672
0.0067815552
0.031600475
0.04492001
0.06049095
0.07381807
0.069945835
0.061415084
0.050677214
0.027217735
0.01917073
0.03471748
0.052869104
0.042816103
-0.013226382
-0.0650718
-0.07999072
-0.082180806
-0.08313573
-0.09472725
-0.11418261
-0.09261934
-0.02149923
0.03269312
0.044124976
0.042365458
0.03350547
0.022532608
0.018686347
0.017594049
0.015979834
0.0106103765
0.01320562
0.027420124
0.03745966
0.04256304
0.042257987
0.03574708
0.026177118
0.010648328
-0.0064176163
-0.019374687
-0.023985272
-0.022424143
-0.023866922
-0.025639916
-0.02725458
-0.031377133
-0.03314347
-0.033133797
-0.03145993
-0.023635825
-0.008834997
0.010333504
0.027163012
0.037703905
0.04442894
0.048383713
0.049769662
0.04522144
0.030746728
0.016839586
0.0120506575
0.00980232
0.0052020433
-0.002442489
-0.009637372
-0.015951404
-0.022545576
-0.025551911
-0.028409315
-0.023648601
-0.007199783
0.00763862
0.026459929
0.032584667
-0.0023801017
-0.04853854
-0.07366485
-0.09042845
-0.11131906
-0.096330635
-0.020716626
0.044406675
0.059888758
0.059316285
0.050117053
0.038133144
0.029460266
0.016428394
0.005550867
-9.0755103E-4
-5.70085E-4
0.009223715
0.019040156
0.024549482
0.029895185
0.036296148
0.036264677
0.027035452
0.0066769607
-0.016748281
-0.015807955
0.0017750212
0.009135664
0.0054909075
-0.0039905044
-0.012352781
-0.021331135
-0.03055509
-0.03249921
-0.031064369
-0.021656383
-0.008354759
0.0019400087
0.010813805
0.011893332
0.020347333
0.0134490635
-0.042109117
-0.084707566
-0.08411081
-0.062623285
-0.012661248
0.03121838
0.039964523
0.03780608
0.031747572
0.023308298
0.013457224
0.0011189379
-0.0018420691
0.0058982675
0.021104515
0.03735816
0.041843913
0.029481368
0.00605846
0.0024868622
0.027033783
0.033581804
0.01671108
0.013647555
0.014903413
-0.0025211752
-0.023278851
-0.027043024
-0.018754268
-0.014527217
-0.023360955
-0.04037372
-0.04657795
-0.033872116
-0.009390154
0.011610826
0.0052851387
-0.011225135
-0.012978168
-0.022401156
-0.02581161
-0.0059552174
-7.188093E-4
-0.003835761
0.0070870905
0.014000126
0.014003234
0.011325342
0.009200824
0.013238426
0.014489327
0.010269691
0.006124581
0.0068286336
0.014319367
0.021151626
0.022609893
0.02179285
0.01948083
0.009733208
-0.002565084
-0.0057686493
-0.0049971715
4.407491E-5
0.011199432
0.017423058
0.018739795
0.013381592
-7.155894E-4
-0.012428129
-0.020206984
-0.027251879
-0.033398323
-0.035911236
-0.027447056
-0.012969767
-0.003995069
-3.4990118E-4
0.002956349
0.0046039987
3.8308196E-4
-0.008267049
-0.015029875
-0.011846927
6.466422E-4
0.011585011
0.016932677
0.017659128
0.013895333
0.008718908
0.0029508304
-0.004555498
-0.010303859
-0.008144525
0.0013009934
0.010922372
0.015144325
0.01247963
0.008859304
0.007526319
0.0026275348
-0.0064237807
-0.013877804
-0.013283281
-0.004071492
0.0046946607
0.0077723716
0.007124433
0.004848892
9.458872E-4
-0.004686897
-0.01003786
-0.014120737
-0.012478684
-0.0020595815
0.009164409
0.014906757
0.016387993
0.015915507
0.012653255
0.0054706736
-0.0020298304
-0.007847672
-0.008712968
-0.001580048
0.0073243696
0.012037877
0.010126745
0.00328826
-0.0011106092
-0.0033180667
-0.008928554
-0.013968651
-0.011341533
-0.006552311
-0.0074345917
-0.009967032
-0.010174674
-0.008922195
-0.008158683
-0.0106464345
-0.01613501
-0.021471
-0.019529874
-0.009331567
-2.5678304E-4
0.005358831
0.009760352
0.012022757
0.011998591
0.008997255
0.0033206723
-0.0015880814
3.0762847E-5
0.010308874
0.023053814
0.030643769
0.031794984
0.030727616
0.02793376
0.020841615
0.008659354
-0.006708364
-0.014103857
-0.008129324
-3.5474778E-4
0.0011999953
-8.9091156E-4
-0.003965189
-0.007830261
-0.010038477
-0.013960807
-0.025137465
-0.032579854
-0.029316675
-0.023082947
-0.022010494
-0.028199421
-0.025557281
-0.01085983
-0.0030834225
-7.0113584E-4
0.0041183936
0.011818168
0.02172082
0.026073545
0.024216525
0.018503338
0.011827254
0.009389245
0.0071380176
0.003606455
6.971217E-4
0.0018966619
0.01129246
0.019911662
0.020732868
0.015659008
0.008386021
0.003179869
-0.0025180075
-0.010763299
-0.017450806
-0.0149259195
-0.0029563182
0.006601985
0.010914893
0.012450449
0.009906027
0.004611792
-0.003054186
-0.010712915
-0.017220072
-0.019962212
-0.01455562
-0.0082737645
-0.006550632
-0.0095785465
-0.015789917
-0.01982599
-0.025870642
-0.032764632
-0.030799
-0.0199626
-0.0035068085
0.011244368
0.019056512
0.021189205
0.017527504
0.013731998
0.010916531
0.0037886903
-0.0038306578
-0.0081972955
-0.006851259
0.0029885094
0.01495928
0.023052389
0.028906101
0.032445304
0.030239219
0.021486731
0.010947567
0.004731822
2.6458944E-4
-0.0060766824
-0.010359834
-0.011753525
-0.005035512
0.014232897
0.02798123
0.024696931
0.013374876
-0.0019374563
-0.013552029
-0.012185302
-0.0085177375
-0.011855643
-0.01084607
-0.0033497247
-0.0068858075
-0.023476893
-0.038962178
-0.044004865
-0.033965807
-0.018997284
-0.012317543
-0.01155802
-0.017389044
-0.027465152
-0.029496744
-0.022811875
-0.011537613
1.945442E-4
0.00952927
0.02614301
0.044731162
0.046707034
0.040371936
0.037030324
0.030732365
0.022279806
0.0142233055
0.010112364
0.016577402
0.02459596
0.024004728
0.017588839
0.0071825725
-0.004722913
-0.014899244
-0.025646664
-0.036521144
-0.04080164
-0.033546466
-0.018022982
-0.004643802
-6.2637246E-4
-9.59563E-4
5.776083E-4
-6.892266E-4
-0.008337861
-0.016394125
-0.016760524
-0.0068146284
0.0069057127
0.016681163
0.02214974
0.024733795
0.021039026
0.010723234
0.0014769005
-0.004933188
-0.010535125
-0.010752872
-0.0062921834
-0.003373543
-0.003912061
-0.0061543887
-0.0071842973
-0.0075127496
-0.010592724
-0.017924095
-0.0198461
-0.0057224375
0.011623342
0.019701974
0.022526948
0.018780062
0.011671001
0.008419359
0.0042287544
-0.0032196904
-0.00934214
-0.008862653
-2.3480126E-4
0.008062553
0.0091097085
0.0057523004
0.001848196
-0.0024291119
-0.008979716
-0.017248789
-0.020978687
-0.015940867
-0.006227346
0.0034663423
0.010318946
0.011811301
0.009194958
0.0036020845
-0.0047677793
-0.010889973
-0.008430462
9.4698364E-4
0.009589441
0.01351243
0.012185662
0.010750629
0.013572552
0.011896542
0.002996795
-0.0051403223
-0.008382001
-0.0026049602
0.007013137
0.010388958
0.009681081
0.0071093
0.0016702166
-0.0052546137
-0.013413777
-0.020989621
-0.023012359
-0.017632248
-0.0086992495
-3.2133047E-4
0.0016706979
6.885897E-4
0.0066250917
0.0044681686
-0.01065358
-0.01600545
-0.013655498
-0.008765364
0.003992973
0.01227373
0.014274768
0.01448223
0.008568742
0.003138923
-0.0010116572
-0.008530269
-0.01151506
-0.0061260783
0.0035733716
0.012074472
0.01455893
0.013507335
0.010363605
0.0029650452
-0.006203345
-0.014319075
-0.01667562
-0.009713385
2.9172815E-4
0.009161969
0.01457822
0.012144965
0.0055729514
-0.0018787397
-0.009326208
-0.013459038
-0.014326659
-0.009096699
0.0029792706
0.013235294
0.016057033
0.013557868
0.009966122
0.0060929805
-9.286081E-4
-0.013558213
-0.022304386
-0.0112198545
0.009244446
0.01880255
0.019218355
0.014239315
0.0058866264
-3.1575383E-4
-0.0069518737
-0.017506238
-0.026026024
-0.021826629
-0.007458971
0.003059074
0.005102642
0.0018600933
-4.0590204E-4
1.0163798E-4
-0.0041349423
-0.01356292
-0.018902715
-0.013391721
-0.0021130182
0.0070475647
0.013659864
0.014187237
0.010639458
0.008041077
1.6744152E-5
-0.008621204
-0.007194312
9.689086E-4
0.011661793
0.019792726
0.019888425
0.014477548
0.008709084
0.005480824
0.001894124
-0.006544236
-0.0163759
-0.01881489
-0.009486623
0.0046768775
0.011071195
0.009132936
0.007853544
0.005348503
-0.0034205671
-0.015040364
-0.024707122
-0.022512978
-0.0055662976
0.009061271
0.010029366
0.0063197115
0.0074928515
0.005859727
-0.0050753923
-0.01481415
-0.018420033
-0.015430475
-0.0043724743
0.005544897
0.010455283
0.0122390315
0.009496396
0.006470926
0.0030636035
-0.0057876664
-0.014562802
-0.013451306
-0.003474053
0.0056423764
0.008654652
0.007946745
0.008044166
0.008198407
0.004421084
-0.002176581
-0.007754418
-0.006750267
0.0028369115
0.013197654
0.01671308
0.014195819
0.009541586
0.0022026089
-0.004968484
-0.008781009
-0.014282447
-0.015146333
-0.004888923
0.0044400403
0.0069970596
0.007150975
0.0062353415
5.207609E-4
-0.008758522
-0.012832162
-0.01274044
-0.0072902543
0.0046286127
0.01142433
0.014588763
0.015691102
0.008320298
-0.0011397749
-0.010376025
-0.01964285
-0.022761678
-0.017960979
-0.0070036277
0.002530532
0.0046043
0.0034580363
0.003287048
0.0025791016
-0.0018188062
-0.010148888
-0.01629234
-0.0106838755
0.0030685281
0.012850805
0.017033922
0.01575937
0.010852038
0.006885
0.0024034833
-0.0031853765
-0.010038439
-0.011026272
0.0013374455
0.0136935655
0.016793996
0.016639285
0.014521737
0.009594349
0.0022913476
-0.009173754
-0.020972785
-0.019372128
-0.005999766
0.0020003829
0.00540167
0.009740271
0.012085727
0.01175149
0.006481673
-0.0030652885
-0.010453568
-0.008857479
-2.4530626E-4
0.0064119925
0.009238401
0.007974361
0.004536002
7.779931E-4
-0.0072817416
-0.018374788
-0.027718728
-0.024922162
-0.010140533
-2.608153E-4
0.004525834
0.004429097
-0.004040619
-0.010796802
-0.015850568
-0.019553838
-0.017946187
-0.010247566