-5.5617067E-5
-3.8776817E-4
-0.0010427729
-0.0016883939
-0.0018036586
-0.0017436983
-0.0013407976
-9.1465004E-4
3.2599707E-4
0.0024793756
0.004186341
0.002789279
-0.0011558302
-0.0029220094
-0.0028700926
-0.0025620945
-6.5870624E-4
0.0016448591
0.0029590572
0.0025009662
0.001638711
0.002023978
9.125616E-4
-0.0011440023
-0.0015233888
-0.0014955078
-0.0014788259
-0.0010791656
-3.305836E-4
0.0012142158
0.0021223917
-1.20917015E-4
-0.0025835189
-0.0016745003
-0.0016416889
-0.002144732
4.88788E-4
0.0019016879
0.0023280887
0.004002642
0.0035914779
9.862533E-4
-0.0021220003
-0.002900159
-0.0011447906
-0.0010646528
-0.0015870004
-1.6460038E-4
0.0024014076
0.0030663197
0.0010141847
2.3160022E-4
-8.7101234E-4
-0.0032626525
-0.003375547
-0.0032818222
-0.0028848308
-0.0019984737
-0.0010695165
0.003087838
0.0043073213
0.0011410686
9.780472E-6
-0.0026650168
-0.0030360501
0.0019326818
0.0026375803
0.0025038326
0.0050102235
0.0052638445
0.0056263264
0.0032819924
-0.0023074045
-0.0039468165
-0.0047793337
-0.0062691094
-0.004736965
-0.0021357667
6.924529E-4
0.0023070474
0.0020423576
0.0018297291
3.1293114E-4
-0.0012738393
-0.0018800409
-0.0032881056
-0.0031259407
-7.6737837E-4
0.0012607367
0.0021726254
0.0023590976
0.0024538313
0.0014928798
2.0164919E-6
-9.4194955E-4
-0.0020292313
-0.0016442173
4.2840256E-4
0.002458183
0.0036157027
0.0028840099
0.0017915508
5.839601E-4
-0.0012628655
-0.0019714911
-0.0029632335
-0.003343244
-0.0012811674
2.1595992E-5
0.0010374055
0.0024826785
0.0021625
4.2304935E-4
-0.0024309952
-0.004550492
-0.0038668371
-9.916275E-4
0.0025662049
0.0035979056
0.0031632578
0.0040944666
0.0032570946
6.898474E-4
-3.3441564E-4
-0.0010890163
-0.0022198008
-0.0029521033
-0.0030409817
-6.454691E-4
0.0029512483
0.0037505263
0.0016263132
-0.0015983644
-0.0034607782
-0.0029465659
-0.0026224782
-0.0025832793
-0.002292486
-0.0012949778
0.0017299271
0.0023334494
6.8856694E-4
0.0011048517
-1.5081385E-4
-0.0015477649
-2.5137945E-4
-5.9794922E-5
0.0014174978
0.0042232084
0.0049301605
0.004492048
0.0014700219
-0.001593595
-0.0019384935
-0.002784571
-0.00218072
-5.3913693E-4
-5.605936E-4
0.001835143
0.003410365
7.08036E-4
6.8926625E-4
6.7770394E-4
-0.0032425416
-0.0035980137
-0.0025485584
-0.0031174447
-1.8658067E-4
6.260391E-4
-0.0010840783
0.0020250601
0.002750081
-6.0585194E-4
-0.0013646864
-0.001982464
-0.001933202
-0.0010060184
-0.0013127697
0.00132831
0.005240054
0.00658956
0.0049656658
9.163948E-5
-0.0022938887
-0.0020226298
-0.0033474541
-0.003726103
-0.0033678222
-0.0010214204
0.0033638328
0.004009264
0.0032230166
0.002198062
-5.113161E-4
-0.0014874919
-0.0029591501
-0.0046889638
-0.0030883115
-0.001150989
8.75281E-6
0.0014176975
0.0028071504
0.002510721
-5.6124415E-4
-0.0025611045
-0.0019510584
-8.2083227E-4
-5.296652E-5
0.0014444534
0.0044094515
0.0045605027
0.0016010681
-6.428684E-4
-0.0021903832
-0.0022434506
-0.0020595226
-0.002124874
-2.976541E-4
0.0012708219
0.0024709525
0.0033380247
0.0025312477
7.17726E-4
-0.002231808
-0.0028192282
-0.0012560524
-0.0014708505
-9.11569E-4
3.179812E-4
0.0018170375
0.0036150285
0.0018800197
-0.0010502271
-0.003484575
-0.0053981245
-0.0035803588
-0.0015690104
-0.0017392957
-0.0010518621
6.350256E-4
0.0023548317
0.002575422
0.0014123525
5.9842103E-5
-5.3400686E-4
7.1335083E-4
6.12288E-4
-1.5301487E-4
0.0021369113
0.0043296497
0.004458817
0.0022003013
-0.0013868203
-0.0022395886
-0.00122142
-2.6681306E-4
-7.137101E-4
-0.0017278494
6.0686394E-5
0.0014048249
0.002054462
0.0029203836
8.0865424E-4
-4.902872E-4
-0.0014571133
-0.0026932359
-0.0016052705
-0.0024835407
-8.343666E-4
5.4464507E-4
-0.0046608127
-0.0028575982
0.0015252959
-9.879488E-5
8.479898E-4
-0.0012271297
-0.004271704
-0.0012202344
7.03092E-4
0.002732191
0.00444006
0.003831349
0.0028170329
-0.0010118537
-0.0026604007
-0.0017834414
-0.0018481412
-1.3577096E-4
4.939661E-4
0.002340101
0.006056957
0.0052235527
0.0026163203
-2.468688E-4
-0.002289945
-0.0014836157
-0.0017790337
-0.001992589
1.28115325E-5
0.0026154113
0.0033772944
0.0010641018
-4.82612E-5
-9.805101E-4
-0.0038086479
-0.0043496224
-0.003371217
-0.0018393606
2.666675E-4
0.0015934033
0.00276599
0.0011721833
-0.0022887224
-0.003430191
-0.0036465148
-0.0032026484
-0.0015993027
-3.5447735E-4
6.932679E-4
0.002225534
0.0035880725
0.0033348019
0.0021447188
0.0014135692
0.0012059303
8.144569E-4
-3.7994827E-4
-3.3654986E-4
1.9807347E-4
2.0518045E-4
0.0028525593
0.0043895515
0.0010911032
-0.0025834546
-0.0035206878
-0.0015559979
-7.0735073E-4
-0.0016579306
0.0013373093
0.0046313815
0.0018927581
-0.0026200768
-0.004302126
-0.005414798
-0.005565081
-0.0013051195
0.001958017
0.0013514366
0.0026108613
0.0041561113
0.0036586428
0.0029976328
0.0010535454
-0.0017173508
-0.002575239
-8.7602146E-4
-1.5564088E-4
-0.0014166437
-7.773807E-4
0.0012132315
0.0026615541
0.0027348832
4.321759E-4
-0.0022994257
-0.0034119533
-0.002715282
-0.0026910107
-0.0019218082
0.0021965704
0.004311131
0.0038703487
0.0022052252
-0.00161654
-0.0036174865
-0.0054145814
-0.005790255
-0.001493387
9.925518E-4
0.0022429652
0.0043600164
0.0049326676
0.0048303427
0.002336513
-6.6375494E-4
-0.0013996408
-0.0014274479
-9.4520213E-4
-0.0010407601
2.4093332E-4
0.0022276568
0.001156214
4.7332802E-4
-1.4799119E-4
-0.0024536701
-0.0028323224
-0.0024314136
-0.002933892
-0.002281389
3.8598875E-5
0.0025824134
0.003935391
0.0035059508
0.0017077841
-5.0581794E-4
-0.0032452277
-0.0041658785
-0.0019628312
-7.590473E-4
1.7588072E-4
0.0027430768
0.0036534767
0.0026722485
9.629783E-4
-0.0013684011
-0.0026026422
-0.0017362202
-8.537288E-4
-9.434663E-4
0.001390664
0.004478582
0.0037620277
0.002177578
8.55942E-4
-0.002289553
-0.0046928343
-0.0045558256
-0.0030001672
-0.0014199938
-5.973415E-4
0.0015726356
0.0044845236
0.0035211751
9.4374985E-4
-4.7019334E-4
-0.003997022
-0.0064521744
-0.003606113
2.923191E-4
0.0020261332
0.0028094235
0.003520767
0.002726729
0.001119112
1.8963062E-4
-0.0015230312
-0.0018307612
4.988304E-5
0.0013282405
0.0023182572
0.0030926063
0.004416667
0.003898167
-3.108589E-4
-0.002742915
-0.0033729014
-0.0031401168
-0.0019198596
-0.003000795
-0.00277052
-9.4034633E-4
1.5323155E-4
0.0028487053
0.0032561289
7.829641E-4
-0.0012412353
-0.0029006829
-0.0026057083
-0.0022003339
-0.0017415088
0.0018409601
0.0052203597
0.0051772622
0.0021087031
-0.002314507
-0.00478049
-0.0034099822
-0.0015277746
-0.0015776042
-1.6879649E-6
0.0018672529
0.0017486601
0.0030836437
0.003961502
0.0016879942
-0.002431176
-0.0047833268
-0.0025668913
-0.0010242083
-6.4324285E-4
0.0025460583
0.005292039
0.0051369993
0.001310211
-0.002524046
-0.0027570243
-0.0035736412
-0.0031323885
-3.864842E-4
2.4133702E-4
0.0016763494
0.003727119
0.003031679
0.0015716461
8.3066494E-5
-0.0010750744
-0.0013384974
-0.0013571569
-6.2387745E-4
9.172879E-4
0.001784707
7.755588E-4
-2.6442023E-4
-4.6898206E-4
-0.0025385146
-0.0044667167
-0.002912006
-8.1384456E-4
1.3830498E-4
9.403681E-4
9.370972E-4
0.0018221904
0.004032902
0.0025352647
-0.002385267
-0.004505684
-0.0032199484
-0.0021080312
-0.0020650965
-7.718471E-4
0.0024090633
0.0040892097
0.0037838174
0.002811102
-2.4087327E-4
-0.0025041588
-0.0017018694
-0.0014900647
-4.3397068E-4
0.0027334008
0.0034237914
0.003435315
0.0050207246
0.0031459355
-0.0016792947
-0.0032154128
-0.0016652619
-0.001999675
-0.0034321717
-0.0018356433
0.0011574634
0.0030506724
0.0027505264
-7.880398E-4
-0.0031085613
-0.0026263995
-0.003718257
-0.0050647426
-0.0039083636
-8.098769E-4
0.0022994163
0.0029247552
0.0030432772
0.002614065
-8.1638247E-4
-0.0020357221
1.1959249E-4
-2.7484604E-4
-0.0016257537
1.710777E-4
0.0029094806
0.0036903832
0.00417734
0.0040158303
-8.76338E-5
-0.0031212869
-0.002055008
-0.001988422
-0.0011484659
0.0011442768
0.0014840805
0.001275912
6.267603E-4
2.6727936E-4
-0.0015874547
-0.005611565
-0.003787855
1.8220488E-5
-1.5223543E-4
0.0014316151
0.0025540157
0.002269185
0.0028324148
2.1820422E-4
-0.002488475
-0.0023484125
-0.0014040911
4.4950942E-4
6.057391E-4
-9.866764E-4
-7.1099953E-4
0.0014083361
0.0025942384
0.0016761175
4.9391435E-4
-9.406447E-4
-0.001910796
-9.668211E-4
-4.3767996E-4
-6.141909E-5
7.441395E-4
0.00156544
0.0037418264
0.0034736397
-0.0014575158
-0.005439276
-0.0053009186
-0.0034550403
-0.001919385
-3.0549298E-4
0.0013182802
0.003588066
0.005983896
0.0042229868
-5.8278604E-4
-0.002869663
-0.0021033348
-0.0011760406
-0.0019788663
-0.002469437
-2.4069817E-4
0.0026589932
0.0036845864
0.00251207
4.928209E-4
-0.0013579266
-0.00316794
-0.0036370547
-0.0019811527
4.306047E-4
0.0027658318
0.004246631
0.0034841138
0.001516043
-2.9651742E-4
-0.0031434954
-0.00485426
-0.0029615893
-0.0012565057
-0.0012950005
1.1555853E-4
0.0034844337
0.004211168
6.0829835E-4
-9.145158E-4
-3.756968E-5
-8.6294784E-4
-1.5833409E-4
2.485296E-4
-0.001397766
7.716952E-4
0.003646187
0.003351142
0.0033849266
0.0024151762
-1.3745927E-4
-0.0011708501
-0.0019749135
-0.0038817357
-0.0037012824
-4.4179487E-4
0.00206266
0.002351127
4.1149967E-4
-0.002999048
-0.003362376
-0.001967188
-0.0024636916
-0.002532009
-0.0018498293
-5.0594524E-4
0.0013954516
0.002134903
0.0020661855
1.0949468E-5
-0.0012120525
0.0016732344
0.0025555524
8.88606E-5
5.092108E-4
0.0050176266
0.0074848016
0.004354108
0.0010542045
-0.0018168091
-0.0061371136
-0.0074749705
-0.006674021
-0.004890467
-0.0013625256
9.786676E-4
0.0019545602
0.0017486325
0.0014087524
0.0012911056
-6.830325E-5
-1.8482034E-4
-2.4960266E-4
-1.2261393E-4
0.0021727066
0.002793878
0.003287185
0.0031509195
9.29872E-4
0.002001883
0.0029196194
0.0017327851
4.1656214E-4
-0.0035620248
-0.0035346302
0.0025665346
0.005215707
0.0017374969
-0.0034391049
-0.0050588357
-0.0044778115
-0.0048435302
-0.0043698116
-0.0036301715
-0.002516523
-0.0011673796
-3.7059668E-4
0.0015548047
0.0013906842
-7.588944E-4
-6.80604E-4
-2.927633E-4
3.3635396E-4
0.0014152542
0.0019408062
0.0038444076
0.0042466195
0.0018276095
0.0013282924
0.0019212416
3.8334713E-4
-0.0014510017
-9.731481E-4
2.3146695E-4
-9.2409615E-4
-0.0015698523
9.333544E-4
0.0019713533
0.0010154782
4.5180705E-4
-0.00149287
-0.002262353
-0.0013811102
-0.0024309112
-0.0018083781
3.653011E-4
0.00107175
0.0029392866
0.0034842994
0.0015589218
0.0010858701
7.867157E-4
-5.322861E-5
-4.5504852E-4
-4.853838E-4
6.696101E-4
0.0012794994
4.711683E-4
2.6640142E-5
-8.662133E-4
-0.0029031623
-0.0043707495
-0.0043769213
-0.0037741659
-0.0030107538
-7.4599474E-4
0.0017690165
0.0013904257
2.1933093E-4
-1.6641739E-4
-6.207831E-4
0.0022537478
0.0057208473
0.003738132
0.0019705228
0.0030221967
0.0014909215
-6.2830886E-4
-7.677535E-4
-0.002016675
-0.0032397306
-0.0020913004
-0.0019973093
-0.002743037
-0.0012583046
4.2387328E-5
0.0020868569
0.0044009574
0.00183081
-6.53569E-4
-4.1185794E-4
-0.002377264
-0.004543485
-0.0040687933
-0.0020645675
-0.0017799534
-0.0021577121
0.0015461325
0.0048757275
0.0053875013
0.005946999
0.004729831
0.0036184492
0.003983489
0.0043400987
0.005277157
0.003342788
-9.377817E-4
-0.0034017384
-0.0063061733
-0.0077853464
-0.0050382623
-0.004027719
-0.004978554
-0.0036045213
-0.0021301915
-1.8289415E-4
0.0019788302
5.5620755E-4
-0.0015753426
-0.0026488712
-0.0034008587
-0.0024233325
-0.0010578635
5.4632104E-4
0.0016873857
0.0016817353
0.0027413946
0.0029805189
0.002243184
0.002531416
0.003679013
0.0059844763
0.0072058365
0.006685197
0.004506983
0.0014574452
0.0015160367
0.0018265413
-7.7968836E-4
-0.0049869525
-0.007876998
-0.007869922
-0.011531206
-0.011744066
-6.169038E-4
0.0051889955
0.0039053152
0.0040142206
0.001252929
-2.5094696E-4
-4.8752342E-4
-0.0038032725
-0.0047477116
-0.0036431951
-0.0021509293
-1.0940691E-4
5.063869E-4
8.458259E-4
-4.1591967E-4
-0.003435265
-0.005049332
-0.005333306
-0.0048961584
-0.004743778
-0.003947967
-0.0019060688
-0.001630405
-0.0018774441
-0.0028041177
-0.0053495737
-0.0041998704
-0.0017677501
-0.004192993
-0.007556695
-0.006621713
-6.9754134E-4
0.0062419293
0.009781038
0.009925341
0.008175785
0.0065516643
0.0037788705
-7.802901E-4
-0.0038661575
-0.006525236
-0.007698752
-0.006774101
-0.0070614093
-0.0053554648
-0.0031929251
-0.0011757335
0.0066062184
0.013666832
0.017979912
0.02285595
0.023576474
0.024897357
0.026829323
0.02216468
0.015766265
0.0118301725
0.01101282
0.0116628865
0.011834768
0.012019254
0.009422016
0.0047378163
-0.004098104
-0.016369957
-0.021957485
-0.022252655
-0.020462945
-0.016520271
-0.01640091
-0.020244177
-0.021971792
-0.014917933
-0.0041772844
6.7667005E-4
0.0046003633
0.0067425924
7.076039E-4
-0.010381801
-0.019736633
-0.028062828
-0.04366752
-0.049298227
-0.034021083
-0.025233468
-0.023614973
-0.017529598
-0.012340459
0.0037450963
0.028345283
0.036819417
0.012836332
-0.043165702
-0.098590046
-0.114155054
-0.08031775
-0.020861011
0.04017899
0.10783319
0.1665415
0.18880156
0.19516672
0.19545637
0.16075845
0.094524145
0.033818368
-0.0024983739
-0.02026204
-0.036504295
-0.065640785
-0.07993608
-0.047306456
0.002043958
0.044523653
0.06580733
0.025039235
-0.04731062
-0.0952778
-0.13095897
-0.16882578
-0.19984458
-0.1986984
-0.17174639
-0.1661173
-0.15920372
-0.11195814
-0.02923333
0.08735053
0.1803035
0.19999431
0.16376708
0.06801577
-0.036294848
-0.092738315
-0.15515396
-0.20269825
-0.15817413
-0.052853536
0.0718926
0.19141951
0.2665128
0.26447052
0.17092122
0.0726478
0.037272137
0.015784888
0.02397761
0.08102197
0.11635757
0.0977832
0.03771672
-0.022145018
-0.046070393
-0.03270672
0.017557828
0.04299698
0.018731235
0.013960215
0.0057361037
-0.045329444
-0.075476676
-0.082543194
-0.1391925
-0.2113384
-0.20767365
-0.15572755
-0.10854993
-0.050979134
-0.005363046
-0.0032224294
-0.013149668
-0.001979442
0.019367816
0.03414763
0.052328393
0.066387795
0.06673218
0.06324618
0.04078505
0.0012184285
-0.030707786
-0.039871365
-0.008360767
0.037977584
0.04929757
0.027924223
6.2271603E-4
-0.023208966
-0.024495497
0.008447276
0.033137202
0.043704223
0.07830171
0.10129489
0.081467606
0.05339229
0.0404697
0.04001678
0.03793944
0.034111377
0.02588689
0.005480871
0.0017279168
0.017465018
0.01942435
0.0052078143
-0.0139450375
-0.03326692
-0.0508318
-0.057214625
-0.048499342
-0.042463917
-0.038834468
-0.031439114
-0.03084693
-0.03529166
-0.042147655
-0.050172415
-0.047152158
-0.033699654
-0.022311056
-0.014546409
-0.0055274107
9.178505E-4
-3.582623E-4
-0.0029348487
-0.0013106827
4.130247E-5
0.0026005618
0.006005129
0.004678685
0.011496552
0.02670689
0.031591907
0.03163753
0.028591651
0.02008831
0.024891857
0.041802287
0.052519407
0.053430986
0.055351544
0.066507414
0.07249529
0.066510834
0.054020572
0.030751629
0.006395078
-0.012774488
-0.029594554
-0.03787882
-0.052762996
-0.075423114
-0.07802984
-0.068931036
-0.058879863
-0.041583188
-0.040802095
-0.05950023
-0.05942675
-0.032163844
-0.0076112454
-0.005709826
1.6368215E-4
0.036226846
0.06581857
0.058558494
0.03560422
0.015701802
0.002161569
-0.01202081
-0.021910364
-0.0032340316
0.029355695
0.043849345
0.03847104
0.014210918
-0.011666227
-0.016870707
-0.020259192
-0.03360463
-0.041176416
-0.041929718
-0.036781777
-0.020951407
-0.0025829312
0.008662708
0.012155656
0.008789024
-8.8500924E-4
-0.008489049
-0.0032345147
0.012410578
0.02844363
0.03533321
0.026248584
0.009343563
2.278236E-5
-0.0010215907
-0.0023921845
-0.0051857317
-0.0056139873
-0.0034504323
-5.341089E-4
-0.0017122448
-0.0119409105
-0.023680741
-0.024283871
-0.017976647
-0.015821973
-0.013430017
-0.0050647543
0.0055142096
0.012951223
0.011155918
0.0052089496
0.0019235093
-0.0029981022
-0.0020505767
0.006941528
0.010440745
0.011595474
0.013125411
0.009672749
0.0070645064
0.0051665553
1.1224207E-4
-0.0032964905
-0.005142404
-0.009217777
-0.013237929
-0.012930224
-0.008780791
-0.005490265
-0.0053011617
-0.004627645
-0.0021131407
-0.003275132
-0.0067412634
-0.004159543
0.0022763298
0.0048987498
0.005209699
0.007754255
0.008862704
0.005875638
0.0039720437
0.0041129417
0.005538342
0.009473863
0.011870818
0.012976377
0.018416412
0.026144719
0.029282598
0.02359397
0.011495165
0.0013601186
-0.00399408
-0.008435577
-0.010352461
-0.00669053
-4.4932408E-4
0.0055438955
0.0075271344
7.024468E-4
-0.009764082
-0.01185759
-0.008099065
-0.011668566
-0.014070223
-0.0026412846
0.007703868
0.00788668
0.0068800338
0.0060030464
0.0028583729
-0.0019285019
-0.0036238993
-0.0013253381
-0.0013096761
0.0017714865
0.010079754
0.01286938
0.010616452
0.0077646486
0.0050972137
0.0048700185
0.005111363
0.0039339135
0.0019488556
0.0017240888
0.004719593
0.0058871927
9.760194E-4
-0.0075273234
-0.011206424
-0.010175803
-0.010703485
-0.0063994876
-0.001411229
-0.0031370902
0.0024092328
0.012298866
0.012694982
0.007396693
0.0011271238
-0.0014322563
-0.0033036892
-0.008912018
-0.009497687
-0.0047851778
0.0018183027
0.007834724
0.008032585
0.0059879036
0.0018144284
-0.0011530683
0.0014787186
-0.0014487935
-0.006863283
-0.003969315
9.725757E-4
0.0024144226
-5.283337E-4
-0.0047277734
-0.0062500583
-0.0074381516
-0.0076056984
-0.0054745525
-0.0031815364
-6.681935E-4
0.00259824
0.004915139
0.004348909
-1.4190457E-5
-0.0061583742
-0.007108816
-0.002944647
1.3566169E-5
0.0032026586
0.0058721746
0.007705764
0.011560548
0.010631512
0.00468402
0.001188945
-5.5318774E-4
-0.0021779116
-0.0027553865
-8.7571534E-4
0.0020660448
0.004824829
0.006840978
0.0031426086
-0.0039512836
-0.009432878
-0.012884712
-0.011119829
-0.00674208
-0.004030975
-0.0020984022
9.1712613E-4
0.005450781
0.0048453882
-3.3977773E-4
-0.0031692297
-0.005284087
-0.0051317005
-0.0021852523
-2.5786378E-4
0.0013936721
0.0027292143
0.0051293448
0.0067198183
0.003176765
-5.012398E-4
-0.0015578954
-0.0015260235
0.0010282875
0.0032425974
0.0024056565
0.002584129
0.0047293073
0.0036393707
-0.0012110947
-0.0047131744
-0.0042610588
-0.0028485341
-0.0037454313
-0.003614066
1.4863894E-4
0.004238203
0.00493795
0.0016014365
-0.0018731331
-0.0031484494
-0.0027450055
-0.0041345814
-0.008423402
-0.0052826223
0.0023288603
0.0045365086
0.007473545
0.004751719
-0.004455847
-0.004180426
-0.0017463136
-0.0032506376
-0.0026242277
-0.0019534447
0.0015247335
0.0069835857
0.009755766
0.008498814
9.904578E-4
-0.003921572
-0.0027693112
-0.004352721
-0.0067231897
-0.0060518393
-0.0027592415
0.0023094378
0.004368162
0.003773676
0.0021951378
-0.0023940771
-0.005003015
-0.0034739678
-0.0030845015
-0.0023726644
-1.8931116E-4
0.0018597732
0.0051714033
0.0049322145
3.1290232E-4
-0.0018741506
-0.0043283533
-0.0075566377
-0.005927828
-0.0021524855
0.0012773566
0.0044838293
0.0052797426
0.0045562875
0.0027244182
-1.0712593E-4
-5.235668E-4
-1.0340246E-4
-0.00149428
-0.0011782201
0.0010502781
0.0024956125
0.0022840812
2.8073477E-5
-0.0011724615
-0.0014737657
-0.0028167139
-0.0016579763
2.1611864E-4
0.001260522
0.0045541804
0.005576183
0.0029968522
0.001533925
5.5863906E-4
-9.242843E-4
-0.0032581526
-0.0060465867
-0.0072931345
-0.0074289152
-0.004723931
0.0012785613
0.004913515
0.0042895507
0.001117979
-0.0022565844
-0.0027582683
-0.0031997543
-0.00502963
-0.0044949716
-0.0020874147
8.343058E-4
0.0029715362
0.0028874928
0.0017807154
-6.470791E-4
-0.0016124075
-5.4339325E-4
-0.0012446358
8.1767247E-4
0.0044266563
0.0037484632
0.003689382
0.0033305972
-1.4204749E-4
-0.0016460873
-0.0012872207
-0.0010304393
-3.5767208E-4
5.733163E-4
0.0018228667
0.0032331261
0.004774071
0.005672019
0.00530173
0.0028587214
-9.5403875E-4
-0.00271101
-0.004086318
-0.0065016397
-0.0060771727
-0.0024748568
0.0017267964
0.0028546196
-2.3392888E-5
-0.0023768158
-0.0036941955
-0.005803472
-0.00654172
-0.0054745153
-0.0044012093
-0.0021024195
0.001354827
0.0026478185
0.0019818826
4.271262E-4
-9.009775E-4
2.0634811E-4
8.343728E-4
2.1757504E-4
0.0014496612
0.0038125396
0.0061319005
0.0060610925
0.0029346517
1.8093728E-4
-0.0010484488
-0.0013762634
-0.0011744194
-2.9527894E-4
-0.001164731
-0.0025259317
0.0019401431
0.005388244
0.002336061
9.5419724E-5
-0.0017364752
-0.0040598838
-0.0044889525
-0.0037901297
-0.0014780146
4.2384194E-4
0.002660053
0.0051271226
0.0035891254
7.9909014E-4
-0.0017249221
-0.0038047659
-0.0039270325
-0.0035291659
-9.56497E-4
0.0017142993
0.001996435
0.0023246123
0.0012353268
3.788253E-4
8.6112693E-4
-7.472163E-4
-0.0035282795
-0.004823124
-0.0023824212
6.421647E-4
0.001214989
0.0020774172
3.3528832E-4
-0.003241392
-0.0031826284
-0.0018903874
-7.2345603E-4
1.3685573E-4
2.3459531E-4
0.0014599304
0.0025816145
0.0035459087
0.0041754125
0.0019480922
-2.5541306E-4
6.516176E-4
0.0021959848
0.0018480582
3.6431872E-4
-1.5165683E-4
7.0805784E-4
0.0018985698
0.0010188097
-0.0031174736
-0.005699547
-0.004725532
-0.0044847177
-0.0035558322
-6.616091E-4
0.0012883258
0.00364081
0.004582996
0.002597475
0.0017704469
7.845874E-4
-0.001417729
-0.0029202334
-0.0035213993
-0.0024050034
-7.302972E-4
0.0015432866
0.0027726328
7.7497796E-4
9.546122E-4
0.0020902054
2.6424575E-4
-6.7181495E-4
-0.0017315238
-0.0028241966
-8.994328E-4
9.938644E-4
0.0012145411
6.2618544E-4
-0.0010129816
-0.0030457336
-0.0034098653
-0.00244883
-0.00209027
-2.2255172E-4
0.002850157
0.004412685
0.0044655534
0.002566692
4.317167E-4
-0.0017720318
-0.0034535066
-0.001813719
-8.7774306E-4
-3.912775E-4
0.0013327544
0.0017601906
0.0043797125
0.0045790905
0.0012106969
0.0032968929
0.00257495
-0.0037165412
-0.0058600404
-0.0050039026
-9.0236455E-4
0.0038523735
0.003641047
0.0011853916
-6.8372703E-4
0.0013365663
0.0015352359
-0.0056696963
-0.007185518
-9.3511044E-4
0.0018636762
0.0020123844
0.0029734988
0.0032267133
0.0016175804
-3.0793058E-4
-0.002316637
-0.00435448
-0.0030385237
-0.0017595198
-0.0029248022
-0.0011179
0.0015642851
0.001207635
-6.6201854E-4
-0.0029481528
-0.0041710534
-0.0039217933
-0.0028742568
-0.0020052225
-0.001004852
0.0014840412
0.0030915753
0.0032392233
0.0033282882
0.0025807756
0.0022945348
0.003587866
0.005454753
0.0051069623
0.002455748
0.002661231
0.0044807848
0.0033134643
4.5260036E-4
-8.3602156E-4
0.0011959734
0.0028206923
8.9504954E-4
-0.0029641748
-0.0067574
-0.005896446
-0.0014045803
-9.179074E-4
-0.0042873262
-0.0051195393
-0.0023317588
-0.001966978
-0.0037826214
-0.0029191624
-0.0021244653
-7.6686416E-4
0.0017818676
0.0012696977
5.187238E-4
-9.597984E-4
-0.0041330545
-0.002778296
2.3887056E-4
4.1163314E-4
0.0010011303
0.0036687038
0.006868779
0.007197461
0.0044915285
0.0010130682
-0.0017159892
-9.674671E-4
5.158142E-4
-2.5896053E-4
7.644272E-5
0.0017338953
0.0026461023
0.0018997851
-1.4031307E-4
-0.0016865976
-0.0026404203
-0.0022400406
-0.0020736738
-0.0031683128
-5.7955674E-4
0.0037014456
0.004199275
0.001588126
-0.0022042447
-0.0028998826
-0.0013041748
-0.0020612706
-0.0022715188
-0.0012144586
-3.879932E-4
0.001467023
0.003397268
0.004480134
0.002357975
-0.001407491
-0.0018338661
-0.0019066243
-0.0020658318
-5.227582E-4
5.806379E-5
0.0017619812
0.003537357
0.0021435427
9.013961E-4
-5.909487E-4
-0.0024250501
-0.002178205
-0.0028260092
-0.002446182
0.00206518
0.004115022
0.0030827257
0.0033134639
-2.325413E-4
-0.0061809807
-0.005753946
-0.0025383625
-0.0021407
-0.00201157
1.6250493E-5
0.0023123564
0.0015685391
1.8867628E-4
5.737541E-4
-0.0011479071
-0.0032160915
-0.0026995693
-0.0018576339
-0.001251095
-5.426024E-5
0.0034157054
0.006171511
0.004247027
0.002825669
0.0024803295
-4.460894E-4
-0.0010840994
0.0013866471
0.0019185526
6.1054237E-4
2.867027E-4
0.002093083
0.0036138084
0.003891473
0.0042824033
0.001839519
-0.0019834514
-0.0013890597
-5.11011E-4
-0.0035215104
-0.004654014
-0.0013926496
5.72801E-4
-0.002586189
-0.00683768
-0.007282395
-0.00594808
-0.005183181
-0.0030540836
2.1531215E-4
0.00276657
0.0035293472
0.0015830576
1.7576058E-4
3.2018856E-4
-0.0016239942
-0.0023656979
-3.5668953E-4
3.677083E-5
7.597576E-4
0.0036108391
0.006402264
0.006810823
0.003819623
6.17158E-4
-0.0010145146
-7.7656284E-4
2.068408E-4
1.566529E-4
0.001024778
0.0019759685
0.0036569685
0.004631833
0.0013547647
2.121297E-4
-0.0013932233
-0.0037007574
-4.867631E-5
-0.0032014097
-0.0075814733
0.0012276691
0.006377456
0.0025315315
-7.597393E-4
-0.004469469
-0.009637785
-0.010767216
-0.0031414947
0.002076027
0.0010718621
0.0029133493
0.0030973102
0.002168807
0.0017700935
-0.0019370621
-0.0027118942
-0.0016561295
-0.0010551315
5.7064055E-4
8.690582E-4
0.0042090863
0.0076281424
0.00537746
0.0012648283
-0.0030913604
-0.004057338
-0.0016972832
-0.0010954902
-7.8555977E-4
7.7497255E-4
0.0025928468
0.0027073123
0.0010979972
-2.7070177E-4
-0.0021215596
-0.0032118275
-0.0029623548
-0.003213078
-0.002926309
-7.991715E-4
0.0032854243
0.0065354286
0.0058540544
0.0027552193
-1.8920936E-4
-8.587162E-4
3.7024776E-4
3.537244E-4
-3.5694567E-4
8.8262226E-4
0.0021585878
4.251264E-4
-0.001782454
-0.0019156092
-0.0011093402
-6.9240155E-4
-0.002130164
-0.004640273
-0.005892764
-0.0035285011
0.0021991518
0.0047864076
0.00285412
6.0963066E-4
-0.0011863584
-0.0022829827
-0.0042851623
-0.004853089
-0.0010549758
5.7204964E-4
0.0015573925
0.005802431
0.0065334826
0.0041640904
0.0011443408
-0.002369656
-0.0021584092
-0.0012423879
-0.0021382873
-9.779058E-4
0.002096338
0.0053756484
0.0058467602
0.001823365
-0.0021893142
-0.0032152897
-0.002631945
-0.0021001566
-0.0019572359
-9.2774467E-4
0.002308009
0.0052123778
0.0038758733
8.3705806E-4
-2.113213E-4
-0.0012011796
-0.0032230518
-0.004205765
-0.004197464
-0.003130471
0.0019873155
0.006070231
0.0038131748
0.0019692543
-0.00241598
-0.009532136
-0.006039481
-0.0011346914
-0.0015608203
0.0011795694
-0.0014994754
-0.0037943488
0.00349109
0.0034706825
-0.0011465353
6.773717E-4
0.0011587224
3.7619044E-4
0.001575909
0.0023142565
0.0029766443
0.0045017977
0.005379818
0.0025054184
-0.0013471005
-0.0016411858
-7.4769557E-4
-0.0013447239
-0.0023095142
-6.1669236E-4
0.0026716352
0.003299165
0.0024440228
0.0011887702
-0.0014850635
-0.003613488
-0.003945865
-0.0036914784
-0.004263432
-0.0035725574
-5.333328E-4
0.001132444
0.0011781328
6.1677914E-4
-5.0485204E-4
-6.4135314E-4
-0.0011713234
-0.0019717123
-0.0017697499
-0.0013952838
8.8107656E-4
0.003660127
0.0033052904
0.0017718958
7.960091E-4
-3.5913853E-4
-7.419247E-4
-6.201704E-4
-0.0013121924
-8.488058E-4
9.0557645E-4
0.0024098326
0.0039344775
0.0024760712
-6.590389E-4
-0.001351127
-0.001514042
4.4824858E-4
0.0030622005
0.001629449
5.628086E-4
0.0014175914
0.002433248
0.0022796898
-3.3886466E-4
-0.00139535
-0.0012932387
-0.002314881
-0.0025993641
-0.0018864704
-5.1899516E-4
-2.2636873E-4
0.0016777836
0.0044810493
5.133953E-4
-0.0064496263
-0.011903716
-0.010599566