5.0610915E-4
9.152037E-5
-0.0012278233
-8.3707084E-5
5.04931E-4
-1.6720848E-4
-4.4766137E-5
7.2776464E-5
7.693602E-5
1.8324524E-4
1.12149995E-4
9.758949E-5
1.4364526E-4
2.3534917E-4
1.9465812E-4
2.0896386E-4
3.9085804E-4
3.5025377E-4
3.0494042E-4
2.8922263E-4
2.2695231E-4
2.0573937E-4
5.8619033E-5
3.2281307E-6
-1.3364446E-7
-1.0292407E-4
-1.3177349E-4
-1.8647205E-4
-1.9326349E-4
-1.7678086E-4
-2.3748282E-4
-1.710047E-4
-6.495767E-5
-3.1018542E-5
-5.9755905E-5
-8.18283E-5
2.2840477E-5
1.1864219E-4
1.5367904E-4
7.898491E-5
-1.6657938E-5
9.212548E-5
1.1457298E-4
3.197768E-5
8.5545784E-5
7.697812E-5
3.207471E-5
-3.4801666E-5
-1.165212E-4
-2.601448E-5
-2.1378047E-4
-5.669985E-4
-3.1809093E-4
6.6876986E-5
1.2914652E-4
1.814452E-4
1.5468016E-4
1.0072588E-4
1.1052737E-4
4.738939E-5
9.624782E-5
1.9581136E-4
1.2860041E-4
5.986195E-5
4.248313E-6
-1.0121782E-4
-1.0134431E-4
-3.3354292E-5
-1.7077587E-5
4.7594127E-5
6.011006E-5
-4.5881457E-5
-5.0944534E-5
-2.5268382E-5
-8.3907384E-5
-1.2232107E-4
-5.9695318E-5
1.2724184E-5
-4.2735428E-5
-9.3224466E-5
-1.3808657E-4
-1.1724052E-4
1.0124905E-4
2.5565986E-4
3.7461793E-4
3.534138E-4
1.4865481E-4
1.7267602E-4
1.718915E-4
1.19048316E-4
9.018811E-5
-1.0213038E-4
-9.618246E-5
-6.663676E-5
-1.3746425E-4
-1.4432913E-4
-9.544471E-5
-3.93084E-5
-5.0646986E-4
-4.8172814E-4
7.364951E-5
-4.312474E-4
-3.707136E-4
1.4475975E-4
-4.0073687E-4
-6.922749E-5
6.0686143E-4
4.1555168E-4
3.8792533E-4
2.1430997E-4
1.3730864E-4
2.5422586E-4
1.0508581E-4
1.6839898E-4
-8.532676E-6
-2.9286803E-4
5.1912833E-5
3.7812098E-4
3.2707257E-4
3.9190662E-4
5.4871413E-4
5.458332E-4
7.606511E-4
4.4106733E-4
-9.587036E-4
-0.0017488005
-0.001800507
-0.0015638478
-4.697288E-4
3.291877E-4
3.8997954E-4
4.3049757E-4
3.4972632E-4
2.6675223E-4
1.470685E-4
7.834549E-5
1.79066E-4
1.2605786E-4
9.854101E-5
1.372058E-4
1.4683911E-4
2.0357558E-4
2.399355E-4
2.9710238E-4
2.5715362E-4
1.1932915E-4
4.9194325E-5
8.7015615E-5
1.5736563E-4
3.0414874E-5
-5.808813E-5
-4.4365923E-5
-1.9868881E-4
-2.4911508E-4
-2.043728E-4
-2.5430587E-4
-2.2597382E-4
-1.4236453E-4
-7.449985E-5
-2.8291792E-5
-3.901266E-5
-4.8504935E-5
2.8890681E-5
1.256504E-4
9.906005E-5
8.327428E-5
2.0444933E-4
2.6774494E-4
1.6920723E-4
8.438432E-5
8.0021935E-5
7.932527E-5
4.1406667E-5
-2.1797478E-5
5.158191E-6
-8.491601E-5
-1.9010063E-4
3.1242267E-5
-2.2793948E-4
-7.330748E-4
-3.6322032E-4
-2.9926716E-6
-2.8969387E-5
1.3190815E-4
1.5287995E-4
1.1361606E-4
1.5040435E-4
1.6977395E-4
2.2670937E-4
1.5236498E-4
3.4746397E-5
3.688137E-5
9.280171E-5
1.11111425E-4
1.6273589E-4
1.611145E-4
3.2817807E-5
1.08604305E-4
1.0987924E-4
6.488118E-5
4.6164805E-5
-3.5318933E-4
-1.7607346E-4
1.1154837E-4
-8.966833E-5
3.670224E-4
-1.9337902E-4
-0.0014349389
-6.003191E-4
3.9557987E-4
3.00263E-4
3.2266747E-4
2.8909039E-4
2.4563557E-4
2.4748364E-4
1.8287211E-4
1.1883556E-4
8.3275074E-5
1.6003252E-4
6.5277477E-6
-1.8008848E-4
-1.25067E-4
-6.340305E-5
-6.9075526E-5
-1.2988136E-4
-8.994842E-5
-1.2381193E-4
1.0390968E-5
1.6414144E-5
-8.006884E-4
-7.456025E-4
1.408704E-4
1.5977478E-4
1.997571E-4
1.7020285E-4
-1.752271E-4
1.3829545E-4
4.4754837E-4
3.7979495E-4
2.9497314E-4
2.0885692E-4
2.1464551E-4
2.080372E-4
1.9615353E-4
1.9775872E-4
2.7978726E-4
3.5240935E-4
3.7392566E-4
5.1593705E-4
5.6146475E-4
7.655606E-4
4.7573724E-4
-9.6366694E-4
-0.0018544057
-0.0019535078
-0.0016424195
-4.156851E-4
3.0170928E-4
2.4495926E-4
3.9001965E-4
2.503449E-4
-2.0858313E-5
-3.2843822E-5
4.9427115E-5
1.5853082E-4
1.4278758E-4
1.6605871E-4
1.4873607E-4
-9.357171E-6
5.6902963E-6
1.5023157E-4
3.027623E-4
3.7466502E-4
3.455044E-4
3.241773E-4
1.6230934E-4
-5.077848E-5
-1.0479879E-4
-3.903087E-5
4.856839E-5
-8.853755E-5
-2.654108E-4
-1.990211E-4
-1.8841155E-4
-1.9239847E-4
-7.530104E-5
-5.5274388E-5
-9.337399E-5
-1.3086725E-4
-5.5937027E-5
1.3430101E-4
1.8490436E-4
2.4097627E-4
3.0931272E-4
2.488263E-4
2.3668022E-4
2.241534E-4
1.4611731E-4
7.955991E-5
8.560894E-5
6.6159664E-5
-2.9001083E-5
4.5015688E-5
-1.3459112E-4
-4.0897707E-4
-1.694457E-6
1.9020781E-4
1.6068289E-4
2.6199853E-4
-8.020604E-4
-0.0014896293
-3.166842E-4
2.9082518E-4
6.794064E-5
2.885432E-4
2.4694542E-4
1.8798643E-4
3.5565902E-4
-9.9486E-5
-5.5020966E-4
-2.693654E-4
4.6053723E-5
6.3959254E-5
1.4863597E-4
2.1587349E-4
-5.3782816E-5
-1.9121158E-4
1.8379232E-4
3.692893E-4
1.8600948E-4
1.5094226E-4
1.3758148E-4
8.6164735E-5
1.290166E-4
8.802733E-5
3.8443504E-6
-4.293646E-5
-7.749089E-5
-5.455448E-5
-4.4432704E-6
3.433098E-5
3.3194436E-5
6.8108E-5
1.243969E-4
5.4423002E-5
-1.976092E-5
-3.5216249E-6
7.3156705E-5
1.3598154E-4
7.383098E-5
1.3354849E-5
-4.723268E-5
-1.2300334E-4
-7.4460164E-5
-1.3233092E-5
-1.9788384E-5
-6.167217E-5
-3.77292E-5
4.5971512E-5
2.1477894E-5
5.614482E-5
9.316366E-5
1.3677017E-5
3.2236178E-5
-1.4547785E-5
-1.0019878E-4
-1.1614449E-4
-1.09412256E-4
-2.502526E-5
-1.1335191E-4
-1.11312365E-4
-6.975936E-7
-9.042867E-5
1.13777234E-4
1.9926495E-4
5.133492E-5
1.6520583E-4
1.1912532E-4
2.9809345E-4
-7.980439E-5
-0.0015083144
-0.0012820829
6.838766E-5
1.0161388E-4
-1.9321902E-5
2.0878534E-4
1.3614283E-4
1.281286E-4
1.3899626E-4
1.5735089E-4
2.2462494E-4
1.7264868E-4
1.9898188E-4
2.935537E-4
2.93591E-4
2.8348964E-4
3.3831835E-4
3.7637015E-4
3.2377208E-4
3.9536634E-4
5.0179305E-4
3.844919E-4
3.975965E-4
3.741507E-4
2.8776325E-4
3.5203638E-4
-6.6459883E-4
-0.0014611083
-2.6060114E-4
2.8756034E-4
2.5317475E-4
3.3742766E-4
-0.0013890979
-0.0017290046
1.912321E-5
1.1602685E-4
-9.512957E-5
-4.798265E-4
-0.0014555807
-6.4021087E-4
3.1034954E-4
1.7329234E-4
3.1360966E-4
3.2543152E-4
2.5131233E-4
2.9669123E-4
2.4743943E-4
2.6682948E-4
2.3232978E-4
2.8059154E-4
2.9641975E-4
1.9021524E-4
1.8636766E-4
1.5517391E-4
2.3397192E-4
3.2023995E-4
1.8089362E-4
8.6042375E-5
7.399774E-5
5.112641E-5
-1.7713215E-5
-4.269514E-5
5.743012E-7
-1.10538494E-4
-1.7203394E-4
-1.0026762E-4
-1.363264E-4
-9.530582E-5
-1.5336893E-5
-8.481447E-5
-5.8445436E-5
5.2275303E-5
4.9584796E-5
3.057822E-5
9.171604E-5
1.4012183E-4
6.7421446E-5
4.9302573E-5
3.110596E-5
-1.9658361E-4
-1.7115989E-4
1.4482561E-5
-3.3461005E-5
5.3488434E-6
-1.6858132E-4
-4.2350483E-4
-1.3811333E-4
9.160189E-5
1.0721996E-4
5.5584867E-5
-2.0533068E-4
-9.851073E-5
1.9118638E-4
1.07133055E-4
5.56383E-5
6.217929E-5
-1.1103536E-4
-2.1274183E-4
-1.3498231E-4
-9.369699E-5
-1.2718621E-4
-9.094191E-5
-5.174385E-5
-6.658813E-5
-5.2488947E-5
3.345687E-5
1.4449572E-4
2.1475468E-4
2.4272304E-4
2.2405526E-4
2.723855E-4
3.6858965E-4
3.3584455E-4
2.3189129E-4
9.396442E-5
4.6610137E-5
1.16793955E-4
8.3859566E-5
9.6071344E-5
1.6444297E-4
1.10458976E-4
8.024337E-5
1.19817014E-4
1.897995E-4
2.1332694E-4
2.0839294E-4
3.648362E-4
7.699946E-5
-0.0012617749
-0.002091257
-0.0011292426
-1.2281166E-4
3.041637E-4
7.6422124E-4
-6.621338E-5
-0.0010030884
-1.655462E-4
4.1858575E-4
2.5223292E-4
2.8423028E-4
1.4223007E-4
2.292491E-4
3.5307E-4
1.768131E-4
1.3902714E-4
1.0278017E-4
1.9504993E-4
2.925099E-4
2.0200666E-4
2.0576127E-4
1.13949696E-4
3.1983873E-5
3.858151E-5
-2.5762996E-5
-8.659358E-6
1.1011262E-5
5.108214E-5
1.0370146E-5
-1.6929414E-4
-2.209559E-4
-2.5626668E-4
-2.1915254E-4
-8.018496E-5
-2.4464476E-5
-5.9297654E-6
-4.574197E-5
3.633811E-5
1.4372525E-4
1.14346236E-4
2.1406547E-4
2.0151961E-4
5.7913825E-5
2.7122067E-5
-3.967651E-5
-4.813902E-5
-5.8891193E-5
-9.9241544E-5
-8.930736E-5
-7.6330405E-5
4.7896687E-5
-1.7437794E-4
-5.502566E-4
-2.5530256E-4
1.2500431E-5
-1.2811026E-4
-5.4817898E-5
4.974407E-5
-6.8556933E-6
1.2727874E-5
1.00424506E-4
1.11813264E-4
1.0753333E-4
1.7570052E-4
1.9459259E-4
1.9322505E-4
2.1015407E-4
2.1462896E-4
2.1658183E-4
1.3739722E-4
1.275481E-4
1.8222482E-4
1.0397585E-4
2.4389266E-5
-1.8691433E-5
-2.9124336E-5
-1.0563132E-4
-3.0587727E-4
-3.3639607E-4
-2.671864E-4
-2.1866427E-4
-1.445712E-4
-1.3772408E-4
-6.9239635E-5
7.248521E-5
1.5367121E-4
1.5872729E-4
1.5215305E-4
1.442058E-4
5.840575E-5
1.2966135E-4
1.9679124E-4
5.379884E-5
5.0693237E-5
2.237569E-5
2.6672456E-5
7.184515E-5
-1.02749065E-4
-5.99768E-5
-9.6746924E-5
-1.7915305E-4
-2.2633669E-4
-9.6425787E-4
-8.545943E-4
9.3489E-5
-4.144557E-5
1.5742787E-4
3.7471176E-4
-6.5505225E-4
-5.684842E-4
4.093725E-4
4.4095903E-4
3.301183E-4
3.088523E-4
2.5285655E-4
3.1888948E-4
2.59387E-4
3.6074957E-4
4.095337E-4
3.1697558E-4
4.760421E-4
4.5814028E-4
4.7825548E-4
6.405097E-4
5.3688E-4
7.465936E-4
3.9683052E-4
-0.0010770237
-0.0018785377
-0.0020512186
-0.0016641734
-1.1409758E-4
6.051025E-4
2.7910675E-4
3.0196522E-4
1.2939094E-4
7.018958E-5
5.2075946E-5
-5.3796114E-4
-5.0502276E-4
-6.526039E-5
-7.030353E-5
5.8386395E-5
1.10767825E-4
5.14623E-5
2.344776E-4
3.08185E-4
3.6450394E-4
4.0817683E-4
3.0081064E-4
2.9212685E-4
2.756986E-4
1.8919312E-4
6.106746E-5
-8.340469E-5
-7.3464296E-5
-9.102144E-5
-1.7379712E-4
-2.4414394E-4
-3.348207E-4
-2.599002E-4
-1.5812868E-4
-1.3173316E-4
-2.752361E-5
5.5883665E-5
1.1910091E-4
1.8232128E-4
2.4246454E-4
2.7947378E-4
2.7926295E-4
2.9026426E-4
4.477361E-5
-1.5594164E-4
5.7807847E-5
1.0318425E-4
-1.9285882E-5
-2.3388142E-5
-8.495455E-5
-1.567814E-4
-2.248226E-4
-2.501972E-4
-2.6322197E-4
-2.4725462E-4
-1.357262E-4
-9.625165E-5
1.0102789E-5
3.5401747E-5
4.88262E-5
1.0918275E-4
-4.7170752E-4
-5.8094517E-4
1.8543276E-4
2.348359E-4
1.7073756E-4
2.0232079E-4
-1.1988021E-4
1.41054E-4
3.333557E-4
1.7151925E-4
2.7477613E-4
2.852264E-4
3.7275476E-4
3.1482367E-4
2.9604844E-4
2.9019528E-4
-6.7759317E-4
-7.7200925E-4
2.5816768E-4
2.5569802E-4
4.1357274E-4
2.3334663E-4
-0.0013745525
-0.0013464539
9.652819E-5
3.4000492E-4
1.6489421E-4
1.9323053E-4
1.2974621E-4
1.2445606E-4
4.3899166E-5
-9.137738E-6
-5.6883586E-5
-1.1911993E-4
1.7546793E-6
7.101008E-5
3.8517002E-5
1.954573E-6
-4.234156E-5
-2.8943627E-5
-6.6196546E-5
-6.691551E-5
-8.372182E-6
-6.8403547E-6
8.516658E-5
1.6298745E-4
1.5539714E-4
1.3501682E-4
4.9945178E-5
-1.1436087E-5
-4.0949617E-5
-3.2898894E-5
-2.7059643E-5
-3.1280964E-5
5.1762803E-5
1.8394889E-5
1.8011253E-5
1.5534047E-4
2.2448621E-4
3.650677E-4
3.096453E-4
1.9870065E-4
2.345318E-4
1.1469301E-4
3.824035E-4
-3.109895E-5
-0.0015368399
-0.0012602126
9.263753E-5
7.6234246E-5
-8.539659E-5
4.75343E-5
-8.8331806E-5
-7.203682E-5
-2.825794E-5
-5.024846E-5
-3.603966E-5
1.3379194E-5
6.470199E-5
5.9274247E-5
1.6126742E-4
2.3044753E-4
1.6559675E-4
6.80288E-5
-1.56926E-5
8.052611E-5
1.5657773E-4
7.2172144E-5
-4.256764E-6
-4.768481E-5
-5.156128E-5
-1.04294515E-4
-1.2416048E-4
-1.05144136E-4
-1.8973959E-4
-1.7536683E-4
-5.3244294E-5
4.396206E-5
3.3356948E-5
-5.8471724E-5
1.698749E-5
9.689905E-5
9.23989E-5
1.6256345E-4
1.616675E-4
7.4248266E-5
7.166576E-5
1.9869709E-4
2.1300347E-4
1.0247394E-4
9.276014E-5
1.0249184E-4
1.6267184E-4
1.1135381E-4
2.498262E-5
7.592142E-5
1.5307718E-6
2.7649658E-4
-2.3688148E-5
-0.0012052484
-6.4700097E-4
4.1361107E-4
2.5190704E-4
4.4680003E-4
-4.8134496E-4
-0.0018535545
-7.143914E-4
5.0693547E-4
4.5801626E-4
3.0315356E-4
-1.2855559E-4
8.103777E-5
5.581025E-4
3.3873998E-4
4.6288743E-4
1.8334301E-4
-9.176057E-4
-7.8675733E-4
2.3334865E-4
3.3124414E-4
-3.349584E-5
-7.8024605E-6
1.3393734E-4
1.3818673E-4
7.898128E-5
6.0166112E-5
9.390094E-5
5.426163E-5
-9.986679E-6
2.1602252E-6
-9.359689E-6
-2.877363E-5
-4.0665996E-5
-7.207576E-5
-2.4989393E-5
5.2170737E-5
1.0992396E-4
1.2483825E-4
6.723578E-5
4.6229306E-5
-2.3654231E-5
-4.9058664E-5
6.0246817E-5
-1.6825485E-5
-5.9926046E-5
1.6617784E-6
-1.1566368E-4
-7.700867E-5
-1.635011E-5
-1.1787705E-4
-3.4775996E-5
4.6223275E-5
-2.196472E-5
-8.9561174E-5
-3.4973244E-5
1.4473424E-4
1.17927164E-4
-4.4114473E-5
-2.5286441E-5
3.406566E-5
-1.2339227E-5
9.209303E-6
6.749215E-5
-1.1803237E-5
5.3110456E-5
1.3319026E-4
5.731644E-5
3.8218797E-5
-5.8063597E-5
1.2439379E-4
4.1432386E-6
-5.5974955E-4
2.8087505E-5
-9.751473E-5
-0.001525431
-0.001110087
-2.2524204E-4
-2.0561945E-4
2.505816E-4
2.8064757E-4
7.2044815E-5
2.105187E-4
2.3392015E-4
3.6453552E-4
3.646978E-4
2.633839E-4
2.3459771E-4
2.1935896E-4
2.962685E-4
2.46552E-4
3.2374135E-4
4.3592797E-4
4.2442023E-4
4.200089E-4
2.3410124E-4
2.7184153E-4
2.797618E-4
-2.467288E-4
-0.0014466194
-0.0032508355
-0.004752284
-0.006756071
-0.008384695
-0.0075360253
-0.0068540187
-0.006589469
-0.005374917
-0.0055182246
-0.0050138934
-0.001992261
3.949102E-4
0.0017322486
0.002723047
0.002981755
0.002511651
8.299456E-4
-0.0012290757
-0.0034953225
-0.006784471
-0.0099763395
-0.012742854
-0.014949669
-0.015610313
-0.014815231
-0.012360175
-0.008373327
-0.0030739068
0.0035974004
0.010926681
0.01862628
0.025831724
0.03184635
0.03631918
0.038159724
0.037438013
0.033771023
0.027379524
0.019226076
0.009413913
-4.6459414E-4
-0.009774695
-0.017734276
-0.022903012
-0.025413044
-0.024213862
-0.01979118
-0.0130513
-0.0038930872
0.0051550004
0.0131578045
0.020549297
0.026051462
0.026980048
0.022014042
0.01361372
1.7640574E-4
-0.018566707
-0.038184978
-0.06195711
-0.07103908
-0.02573987
0.039565854
0.041953847
-0.010525676
-0.060813934
-0.0880851
-0.075059235
-0.04190245
-0.029547509
-0.02213533
-0.007199243
0.0078088003
0.021736886
0.015195365
-0.0039657373
-0.0073206467
0.0017850811
0.016677916
0.0353665
0.055766948
0.081460916
0.10124944
0.09748289
0.078404
0.0638873
0.05807916
0.062479787
0.059400544
0.028016042
0.0028893212
-0.0055195023
-0.03273576
-0.060739256
-0.07019502
-0.07627166
-0.07272412
-0.054782506
-0.024942134
0.008350106
0.024175622
0.028616747
0.031091947
0.016984932
-0.008505173
-0.024089195
-0.028025124
-0.027139703
-0.022178603
-0.013477163
-0.0034323456
0.0014471834
-0.0040687355
-0.019363748
-0.04280267
-0.06047453
-0.0578656
-0.044957247
-0.03299324
-0.020552346
-0.005925445
0.010251676
0.017883223
0.00514703
-0.019175965
-0.034766354
-0.03957018
-0.033445276
-0.0067364117
0.020897375
0.033190176
0.044526596
0.049815584
0.045786105
0.041913956
0.039224036
0.0516753
0.07452836
0.08709707
0.09105807
0.089134455
0.08827451
0.08833345
0.072969936
0.040406905
0.0013544044
-0.026436595
-0.03231363
-0.02030554
-0.008535276
-0.0034348518
0.02546814
0.022793595
-0.08326009
-0.1724287
-0.1601275
-0.13011011
-0.111527056
-0.092849985
-0.082979135
-0.07245278
-0.063624285
-0.05534727
-0.04359155
-0.032625787
-0.018296057
-0.0032209847
0.012069283
0.028513242
0.04265231
0.05642922
0.067226216
0.074512765
0.07904612
0.07873517
0.07563406
0.06872764
0.058899604
0.047839757
0.03496511
0.022846576
0.011292295
0.0012637764
-0.0060750563
-0.01174061
-0.014392271
-0.015194205
-0.014675812
-0.012563185
-0.0100637935
-0.006899557
-0.0041623446
-0.001940417
-1.8299418E-4
6.1766705E-6
-7.485831E-4
-0.0027954727
-0.0057966374
-0.009228908
-0.013205488
-0.016468486
-0.019124685
-0.02111448
-0.021834603
-0.0217501
-0.020635279
-0.018280342
-0.01589503
-0.013644745
-0.009432946
-0.004629025
-0.0011360308
0.0027320574
0.0051325713
0.0064874482
0.009780158
0.011495981
0.010812409
0.010239572
0.009249004
0.008429928
0.0073359082
0.0054067504
0.0050442764
0.0056819385
0.0052159326
0.0046403706
0.004393995
0.0038756118
0.003708321
0.002949104
0.0012159124
0.0012824049
0.0023833185
0.002092392
0.0017947861
0.001763219
0.0013819026
0.0012090976
0.0010103672
9.147212E-4
9.133303E-4
8.3001656E-4
8.5735106E-4
6.892954E-4
5.889326E-4
5.9009733E-4
4.3451085E-4
4.3495733E-4
4.6243574E-4
4.7541477E-4
4.3554857E-4
3.1655183E-4
2.840702E-4
1.6076646E-4
1.6256286E-4
1.7636511E-4
-2.7400509E-5
-1.2395039E-4
-1.8957982E-4
-1.8705952E-4
-2.0571385E-4
-2.519856E-4
-1.752006E-4
-2.3280956E-4
-5.337283E-6
-2.0059965E-4
-0.001204838
-9.992642E-4
-2.087271E-4
-2.0953102E-4
1.1276514E-5
1.5208147E-4
-3.486884E-5
-6.855247E-6
-5.003745E-5
-8.87897E-5
-6.784969E-5
-4.6563568E-5
-2.193696E-5
-1.0289076E-4
-8.136094E-5
-7.13778E-5
-1.0637568E-4
-8.552775E-5
-1.4750464E-4
-5.8447113E-5
6.8253816E-5
-4.0696057E-5
-1.5643539E-4
-1.9520128E-4
-1.9010372E-4
-1.6427369E-4
-1.2440767E-4
-9.7184355E-5
-1.2407085E-4
-1.5755476E-4
-2.1818586E-4
-1.6572731E-4
-2.1992595E-5
5.4228407E-5
6.858282E-5
7.778479E-6
9.487727E-5
-9.746767E-6
-3.4524294E-4
-1.7474718E-4
-6.730803E-5
-1.451462E-4
-1.3029885E-4
-4.79795E-4
-3.5222637E-4
-6.18283E-5
-2.0304884E-4
1.7518025E-4
-1.4455648E-4
-0.0011117976
-8.4172835E-4
-3.079059E-4
-6.499094E-5
1.8691663E-4
2.5508234E-5
-1.9838923E-5
8.4088606E-5
6.675032E-6
-7.548269E-5
-1.7511044E-4
-1.2801489E-4
-6.5311084E-5
-1.4721295E-4
-1.7487482E-4
-1.2623672E-4
-7.663082E-5
-1.6865367E-4
-1.2724806E-4
1.3624891E-4
1.2465175E-4
2.173911E-5
8.228696E-5
8.8289926E-5
1.7705544E-5
-6.8504356E-5
-6.9016074E-5
4.270686E-5
1.2000716E-4
5.028356E-5
1.4085291E-6
5.192871E-5
-6.488234E-5
-1.7665309E-4
-1.812961E-4
-2.2353094E-4
-1.1190551E-4
-4.3037388E-5
2.8747792E-5
1.9638646E-4
1.0414139E-4
1.9432107E-4
-5.932677E-5
-0.0014919572
-0.0022597404
-0.0013066628
-1.7144553E-4
2.409398E-4
2.4362141E-4
2.0029602E-4
1.5546652E-4
1.1786421E-4
1.3921283E-4
1.03110746E-4
8.8939065E-5
1.3355324E-4
7.530172E-5
6.163194E-5
2.1513754E-4
3.330207E-4
2.9221308E-4
2.4175983E-4
2.484422E-4
1.655731E-4
3.749043E-5
-1.2965661E-5
-6.428426E-5
-1.0128836E-4
-1.056904E-4
-1.5541172E-4
-1.6980169E-4
-1.6717864E-4
-2.8727978E-4
-3.6962196E-4
-2.5591796E-4
-1.6350087E-4
-2.3015708E-4
-2.6723754E-4
-1.8427371E-4
-1.3019197E-4
-1.3022612E-4
-5.1835672E-5
5.6900797E-5
1.14593735E-4
1.914788E-4
2.1928753E-4
1.3470712E-4
7.309178E-5
2.5771182E-5
-5.194226E-5
-9.142264E-5
-7.1122246E-5
-8.387403E-5
-3.7789784E-4
-5.378628E-4
-1.0016449E-4
-1.14022514E-4
-5.0230423E-4
-4.4404704E-5
1.7952462E-4
3.505018E-5
3.7138912E-4
-3.344328E-4
-0.0011334899
-2.167006E-4
3.4268282E-4
1.4249698E-4
2.136991E-4
-2.0604077E-7
-2.9948535E-6
2.0755593E-4
8.213354E-5
9.644398E-5
1.119676E-4
1.4423172E-4
2.928121E-4
2.2361008E-4
1.256493E-4
3.5671455E-5
-6.0595676E-6
1.2211272E-5
-9.086068E-5
-1.0034555E-4
-5.0626233E-5
-7.621043E-5
-1.3245929E-4
-1.6491946E-4
-1.2056489E-4
-1.3209645E-4
-5.887095E-5
2.1190233E-5
-2.865504E-5
3.7962196E-5
2.0444832E-5
1.6378184E-5
9.019996E-5
-5.3288553E-5
-1.6486036E-4
-2.5021934E-4
-1.936145E-4
-9.082619E-5
-2.07507E-4
-3.8062262E-5
-3.895771E-4
-0.0011445316
-5.6915486E-4
1.1676504E-4
3.8680205E-6
1.2109492E-4
-4.1750045E-5
-2.6481328E-4
1.5428076E-4
3.3413724E-4
2.389808E-4
3.4803082E-4
3.8500864E-4
3.4389558E-4
2.6276518E-4
1.7319928E-4
1.690089E-4
1.0253392E-4
1.330578E-4
2.0938237E-4
1.7023568E-4
2.7303857E-4
3.0925655E-4
3.6841712E-4
4.882468E-4
4.147194E-4
6.7124085E-4
2.600935E-4
-0.0013124523
-0.0021414831
-0.0023199776
-0.0018475567
-2.7392354E-4
3.5780953E-4
1.3690116E-4
2.819252E-4
1.9551156E-4
1.3516599E-4
1.7600798E-4
1.4592835E-4
2.0960577E-4
1.159736E-4
1.8680704E-4
2.9667874E-4
1.9147861E-4
1.9693853E-4
1.8229158E-4
2.728393E-4
3.6853977E-4
2.8824757E-4
3.1621417E-4
2.2326727E-4
1.16983785E-4
1.03418555E-4
-3.6469675E-5
-1.2978015E-4
-4.129406E-4
-4.6664395E-4
3.0329826E-5
7.823157E-5
1.3613998E-4
1.7903281E-4
-0.0010564191
-0.0014920897
-1.0822397E-4
3.4571727E-4
4.2183245E-5
2.1847419E-4
1.1855084E-4
1.2653526E-4
2.3335565E-4
7.959745E-5
1.6822747E-4
1.4006793E-4
7.675381E-5
6.946429E-5
-9.915554E-5
1.420881E-5
1.2623071E-5
9.482503E-5
1.6777964E-4
-7.0699793E-4
-8.7795884E-4
-7.5414965E-7
1.6364748E-4
8.4695836E-5
-9.096224E-5
-4.40445E-4
-1.4261466E-4
2.1994089E-4
2.5635763E-4
3.1778045E-4
2.2862952E-4
8.743805E-5
1.2926135E-4
4.5486846E-5
-3.3308115E-4
-3.322466E-4
1.2919087E-4
2.773079E-4
2.425714E-4
2.5107383E-4
1.9583889E-4
2.6352718E-4
2.4030395E-4
9.6196905E-5
1.00567144E-4
9.407472E-5
-2.4866975E-5
-1.6872463E-4
-2.2455712E-4
-1.8925952E-4
-1.4487669E-4
-1.1086603E-4
-1.6575813E-4
-1.5756198E-4
-3.420411E-5
-2.998703E-5
-9.1855305E-5
-1.5905725E-4
-1.8551952E-4
-1.2100118E-4
-1.3901693E-4
-1.6053059E-4
-1.2724318E-4
-1.3354215E-4
-5.2307976E-5
-3.9319343E-6
-9.091877E-5
-1.2909694E-4
-1.4772799E-4
-1.5311516E-4
-1.01742226E-4
-6.9667825E-5
-4.815134E-6
7.077533E-6
-4.0955245E-5
1.418676E-4
3.1904146E-4
2.3644835E-4
2.5455854E-4
2.7416824E-4
1.4716815E-4
2.7863192E-4
3.909611E-4
1.8978694E-4
1.7810891E-4
2.1042759E-4
8.696821E-5
1.8075989E-4
1.9389835E-4
1.9086465E-4
3.6083325E-4
2.3328757E-4
3.6171675E-4
8.401062E-5
-0.001257418
-7.8514806E-4
4.8788672E-4
-7.398841E-4
-0.0011400438
2.581967E-4
2.284295E-4
1.7310985E-4
9.072733E-5
-0.0013674067
-0.0013339228
1.6410344E-5
2.183335E-4
1.1195996E-4
1.7455916E-4
1.4169193E-4
2.3400446E-4
1.8520044E-4
1.38179E-4
1.9331055E-4
1.687835E-4
1.9128263E-4
2.2150509E-4
1.6923578E-4
1.08076274E-4
1.5792978E-4
2.2578311E-4
2.2802551E-4
2.5151114E-4
1.2207424E-4
-7.579029E-6
1.0530472E-5
-1.1721119E-4
-1.5979914E-4
-8.4407715E-5
-1.7491472E-4
-2.0160628E-4
-1.47282E-4
-1.0527843E-4
-3.415687E-5
-2.1552954E-5
-6.00225E-6
2.3277216E-5
2.2486349E-5
4.2408283E-5
5.384296E-5
3.467211E-5
3.0450772E-5
4.3741693E-5
-1.5473555E-5
-3.29412E-5
7.63898E-5
8.6135195E-5
6.010952E-5
2.8280218E-5
-5.3303498E-5
-3.4288046E-6
-4.201963E-5
-1.6616166E-4
-1.4946844E-4
-1.640174E-4
-8.730686E-5
-8.721026E-6
-1.04812345E-4
-6.0564395E-5
3.47519E-5
2.891241E-5
3.673052E-6
-2.3647784E-5
-5.911784E-6
-4.1046525E-5
-4.707793E-5
1.33988315E-5
1.0867121E-4
2.481095E-4
1.1169866E-4
-6.1896826E-5
-6.1575747E-6
-9.433783E-5
-1.6494446E-4
-1.1621906E-4
-1.2818888E-4
-9.110796E-5
-4.4580644E-5
1.1937533E-5
7.6201424E-5
1.01670106E-4
1.2362382E-4
7.315567E-5
5.411046E-6
2.3704019E-5
4.4429813E-5
-5.8498787E-5
-6.275344E-5
7.5215605E-5
1.644862E-5
7.866997E-6
4.6903428E-5
9.600143E-6
1.4895639E-4
1.2016896E-4
1.3354536E-4
2.4768588E-4
1.5135936E-4
2.9388035E-4
-1.4996255E-4
-8.186186E-4
-1.6689234E-4
3.4781342E-4
2.0547796E-4
2.5094356E-4
1.0034468E-4
1.7707907E-4
-9.0090725E-5
-9.2763786E-4
-5.33563E-4
2.8350708E-4
1.8943622E-4
1.10628025E-4
1.09372704E-4
4.988371E-5
9.624969E-5
-1.0078872E-4
-3.7443653E-5
1.4467108E-4
-3.4332792E-5
1.456492E-4
-2.1392104E-4
-0.0011777508
-5.9031235E-4
4.0105442E-4
2.6253483E-4
1.9913219E-4
2.4985906E-4
1.0816672E-4
8.3061204E-5
6.8394096E-5
5.2295265E-5
-8.921125E-6
3.9828003E-5
1.0681565E-4
3.4669785E-5
6.554503E-5
5.1022584E-5
3.316012E-5
5.4694377E-5
2.8511091E-5
7.1743954E-5
2.2487864E-5
4.804954E-5
-2.2618247E-5
-2.5101716E-4
4.8631064E-6
1.2741209E-4
-7.67734E-5
8.0564554E-5
1.5003288E-4
4.1954947E-5
1.8855666E-5
-6.29585E-5
-3.7587626E-5
2.4989373E-5
-5.3579195E-5
-7.690332E-5
6.233157E-5
8.3834E-5
-5.4875625E-5
-3.8333863E-5
2.7710701E-5
3.7450638E-5
1.4124318E-5
-5.1090014E-5
-1.367815E-5
-2.2495156E-5
-9.0611196E-5
-8.480616E-5
-1.250326E-4
-1.6397804E-4
-2.1829794E-4
-2.6964693E-4
-2.4195772E-4
-1.519715E-4
-2.229232E-5
-8.16319E-5
-1.5863813E-4
-4.8606245E-5
5.034659E-5
1.9826091E-4
2.960444E-4
2.6165624E-4
1.6572788E-4
7.575282E-5
2.2368248E-4
3.0007944E-4
2.3113971E-4
2.8743266E-4
1.9189599E-4
1.335227E-4
2.4395276E-4
2.5501056E-4
2.520221E-4
1.7474296E-4
5.2349813E-5
8.161678E-6
6.877803E-5
1.2591943E-4
1.6699973E-4
1.788618E-4
-7.590734E-4
-0.0015203737
-3.5176956E-4
2.4720363E-4
-1.4219608E-4
2.9129809E-4
-4.2267973E-4
-0.0013891478
-3.3765356E-4
3.3753665E-4
1.4033928E-4
2.445325E-4
1.559169E-4
1.7667828E-4
1.9324796E-4
-8.555111E-6
-9.512281E-7
-8.435454E-6
7.894769E-6
1.9030883E-6
-9.081442E-5
-5.5335724E-5
-9.913891E-5
-5.6771747E-5
8.2731596E-5
1.0513561E-4
1.8364294E-4
1.874432E-4
1.5034825E-4
1.6386156E-4
1.8744064E-4
2.3319937E-4
1.7577066E-4
2.3566514E-4
2.940433E-4
2.3255647E-4
2.609741E-4
1.3593012E-4
1.4056027E-4
1.7420543E-4
-4.4787557E-6
1.424031E-4
1.7153243E-4
1.8793874E-4
4.1914426E-4
3.3596635E-4
5.8398966E-4
3.6479422E-4
-0.0010122533
-0.00185642
-0.001893847
-0.0012451942
-1.2919634E-4
1.2104268E-4
-2.6115525E-4
-4.2690028E-4
-1.3650832E-4
2.962246E-4
2.040691E-4
6.821716E-5
1.7617803E-4
1.5909554E-4
1.5558756E-4
2.3175158E-4
3.5677274E-4
3.5753523E-4
2.4722374E-4
3.0695158E-4
4.1857484E-4
4.8227934E-4
4.1019695E-4
2.0826186E-4
1.431737E-4
1.5196805E-4
7.9526486E-5
-6.156911E-5
-1.5232738E-4
-2.3233962E-4
-3.7955132E-4
-3.6607304E-4
-3.1498313E-4
-3.2139046E-4
-2.0644977E-4
-1.3988341E-4
-9.539159E-5
-9.255691E-6
5.8225865E-5
2.371435E-4
3.603111E-4
2.927719E-4
2.0480393E-4
1.9245969E-4
2.0996545E-4
1.3466856E-4
4.891738E-5
9.054978E-5
1.194343E-4
3.382825E-5
1.3958148E-5
1.4239296E-5
-4.1366417E-5
9.289432E-5
-1.4158199E-5
-3.1135068E-4
-1.5261298E-4
-3.9951486E-4
-5.0484465E-4
3.5055995E-4
-2.6908E-4
-0.0016393773
-7.9607946E-4
3.5975705E-4
2.743491E-4
2.4858888E-4
2.537187E-4
1.3943E-4
1.8765627E-4
1.378368E-4
5.4596265E-5
4.858682E-5
6.709228E-5
1.2421224E-4
1.5123554E-4
1.4802668E-4
1.8744041E-4
2.617742E-4
2.4497014E-4
1.5751366E-4
1.4982426E-4
1.3985125E-4
7.668533E-5
2.5053728E-6
-6.941159E-5
-5.1087427E-6
6.201255E-5
-3.717064E-5
-8.1221915E-5
-1.0678566E-4
-1.8145236E-4
-1.0274652E-4
-3.0858555E-5
-9.789402E-5
-1.3029609E-4
-9.772501E-5
-7.810699E-5
-8.2201506E-5
-6.297308E-6
2.1267697E-5
-6.3209525E-5
1.9471105E-5
9.639393E-5
7.233242E-5
1.6033073E-4
1.5927452E-4
7.032271E-5
5.828048E-5
3.6962352E-5
1.8651785E-5
6.720593E-6
-3.321469E-5
-6.1727165E-5
-1.8375622E-5
-2.830809E-5
-9.352477E-5
-2.76937E-5
3.6337267E-5
1.1138688E-4
8.5860665E-5
-1.7836439E-5
1.2431883E-4
8.1059436E-5
4.223295E-6
5.7984627E-5
-3.0931034E-5
2.808982E-4
-1.5222603E-4
-0.0013306836
-7.722092E-4
3.0784303E-4
2.4324442E-4
1.543688E-4
1.2839423E-4
3.0223495E-5
8.22841E-5
1.2349966E-4
1.338839E-4
7.4957505E-5
5.9954265E-5
7.136121E-5
1.0839918E-4
1.6475812E-4
8.264586E-5
4.9060236E-6
-4.8501544E-5
-5.6423287E-5
-1.4890339E-5
3.4485474E-5
1.3248787E-4
1.499329E-4
1.9764304E-4
1.9676544E-4
2.3637757E-4
3.379331E-4
2.6554655E-4
4.9984414E-4
-1.694185E-4
-0.0015182629
-7.005695E-4
3.5236697E-4
2.3672395E-4
5.925098E-4
-4.2424342E-4
-0.0016312225
-3.7818446E-4
4.432814E-4
2.2693351E-4
5.870587E-4
5.175197E-4
3.7873583E-4
5.186648E-4
-3.2963068E-4
-0.0011467263
-6.3531444E-4
9.936438E-5
3.1783295E-4
3.5615134E-4
4.275528E-4
3.2065297E-4
-2.9604935E-5
1.9385401E-5
2.0408136E-4
8.8885245E-5
1.1935784E-4
-1.0412344E-4
-3.267902E-4
-5.0530234E-6
-3.9036227E-6
-1.8406464E-4
-8.314785E-5
-4.2735046E-5
-4.7450907E-5
-8.617492E-5
-6.161002E-5
-3.828695E-5
-9.200639E-5
-5.2191654E-6
-9.595226E-6
-4.302476E-5
7.9876896E-5
1.3422176E-4
1.2420803E-4
6.786706E-5
2.3258519E-5
3.3741442E-5
6.595078E-5
1.3080094E-4
1.2863487E-4
1.008685E-4
3.7866204E-5
-4.4150886E-5