0.0025347532
0.0013316121
0.0010332131
-1.8688971E-4
1.8601316E-4
-5.4518686E-4
-0.0010402148
9.349653E-4
0.0019293173
0.0033922007
0.004726971
0.003997185
0.0016775875
-4.3283557E-4
-0.0011554298
-0.0026117438
-0.002737697
-0.0025679087
-0.0030483534
-5.957164E-4
3.702835E-4
-4.9442874E-4
-0.0017356301
-0.003244352
-0.003287674
-0.008546305
-0.009518635
7.3273655E-4
0.003744444
0.0021421083
0.0041424637
0.0032534434
0.0022824341
0.0014207108
7.868753E-4
0.0014017908
-5.341634E-4
7.961209E-4
0.0056305216
0.006280388
0.0055136434
0.0056804684
0.0030565294
-8.7459566E-4
-0.0021038468
-0.0030621293
-0.0040356587
-0.0029662952
-0.003390065
-0.0028294802
6.862077E-4
8.209538E-4
-0.00161689
-0.003261134
-0.0037398767
-0.002674568
-0.0024033317
-0.0018313401
5.8956683E-4
0.00204849
0.0026681316
0.0025536644
9.580959E-5
-0.0031291093
-0.0045379424
-0.003128941
-6.137921E-4
8.4225915E-4
0.0019651856
0.0031026658
0.0039225295
0.0044096895
0.003112678
3.653896E-4
-0.0013787616
-5.7031185E-4
4.5291628E-4
-0.0011294023
-8.787304E-4
0.0013536522
3.5464737E-4
-1.8379418E-6
5.599287E-4
-0.0010013942
3.053015E-4
0.0032700156
0.0038101203
0.0026358047
8.7085886E-5
-2.805752E-4
0.001004807
5.276719E-4
6.404445E-4
-9.206657E-5
-0.0023734267
-0.0027606222
-0.0037853536
-0.005068621
-0.002835991
4.4732998E-4
0.002678073
0.002191288
-0.001667923
-0.0037760723
-0.0035279791
-0.00424498
-0.0044184206
-0.00299413
-3.6210098E-4
0.0024794557
0.0032867235
0.0025773216
0.0011132059
-7.902367E-4
-0.0013451589
-6.846952E-4
-4.1996158E-4
-5.301591E-4
0.0015659201
0.0050324732
0.005813873
0.0065233978
0.006506947
8.47277E-4
-0.0032027208
-0.0016536698
-6.044694E-4
4.569248E-4
0.0017118987
0.0011193528
5.5444654E-4
-6.711896E-4
-0.0018401815
-7.886346E-4
-3.7531735E-4
-0.0016149855
-0.0019988483
-0.0018114998
-0.0020386302
-7.180061E-4
0.0019699908
0.0026340045
9.274843E-4
-0.0014862755
-0.0040714093
-0.006942894
-0.0075336327
-0.0025323743
0.0025918186
0.0031553376
0.0034904976
0.0039603272
0.0027852466
9.6218195E-4
-7.8678486E-4
-0.0012913783
-0.002025783
-0.0028419346
-0.0014921719
0.0010695808
0.0035500487
0.0032699015
8.633068E-4
-5.636795E-4
-0.0022127328
-0.0028629692
-0.0017417431
-2.8379532E-4
0.0012762068
0.0019770805
0.0034870952
0.0040030316
0.0017245716
6.629543E-4
-6.9053145E-4
-0.0018119898
-3.30103E-4
-5.726463E-4
-0.0012669166
0.0010866544
0.0044038473
0.0045143547
3.6888706E-4
-0.0028491383
-0.0038076236
-0.0037470837
-0.00193164
-0.0012435956
-0.0013564056
-5.8105587E-5
0.001043063
0.0014642369
6.0138863E-4
-0.0015110244
-0.002996513
-0.003023377
-0.00200898
-0.0015314856
-0.0016809518
-2.8166833E-4
0.0023379498
0.002769232
0.0016433927
0.0014690395
2.917688E-4
-9.15253E-4
6.615526E-5
7.2377047E-4
3.5959095E-4
2.2221469E-4
0.0016890205
0.0037098126
0.0035718456
0.0020058646
-0.0011354005
-0.0028144622
-5.858764E-4
1.4363092E-4
7.0689886E-4
0.0031082907
0.0034537343
0.0029066743
0.0013025674
-0.0012538735
-0.0023019484
-0.0024613822
-0.002122459
-0.0031715718
-0.003413846
-2.717698E-4
0.0013341601
0.0013336069
2.302234E-4
-0.002924337
-0.0046091573
-0.005327011
-0.0041442984
-7.1516715E-4
3.6617703E-4
8.9108106E-4
0.0012269422
-1.5057693E-4
3.9049506E-4
8.564493E-4
-0.0011202825
-0.0020281821
-0.0015674245
-1.7713208E-4
0.002419603
0.0042078984
0.0057305116
0.007435601
0.0066766823
0.004467654
0.0019857748
-0.0027240773
-0.0060423748
-0.004197788
-0.0012874467
2.8322064E-4
0.0017212514
0.002061842
8.1747764E-4
-0.001458106
-0.0043991245
-0.005449072
-0.0037578463
-0.002660935
-0.0015786861
0.001769623
0.0036760871
0.003141479
0.0029120473
7.1222783E-4
-0.0024680104
-0.0014871951
4.6908736E-4
-3.6457997E-5
7.698219E-4
0.002824681
0.004135744
0.005787036
0.004793783
-3.9677016E-4
-0.0052974084
-0.0072646914
-0.0059747193
-0.0041279388
-0.0034304352
9.462718E-5
0.0037176406
0.0029375642
0.0018645277
4.731849E-4
-0.0019683028
-0.0021487533
-0.0024177693
-0.0031172575
-0.0012365254
0.001687159
0.003867693
0.004060329
0.0016835155
-0.0019643637
-0.0043917447
-0.0035966467
-0.0030914247
-0.0037747943
-8.8537904E-4
0.003398143
0.005958769
0.0071615377
0.005234382
0.0019576438
-9.182043E-4
-0.0028827528
-0.002098946
-0.0023086565
-0.0026057311
8.12083E-4
0.0031780784
0.004633369
0.005651562
0.003311304
0.0019487877
8.689987E-4
-0.0011686594
-8.808392E-6
0.0013737018
0.0014370896
5.005136E-4
-0.0017701341
-0.001870122
-0.00298795
-0.0060421936
-0.005492923
-0.0042713243
-0.004158497
-0.0019268182
0.0010931272
0.003127677
0.0038594713
0.0010369206
-0.005060633
-0.007995674
-0.00619446
-0.0043048835
-0.002158363
-3.4678547E-4
4.854062E-4
0.004094427
0.008246391
0.008471828
0.0057609356
0.0026611884
3.5987367E-4
-0.0010298092
-7.5994007E-4
-2.757695E-4
0.0011046733
0.005533411
0.0065352567
0.003422553
0.0023595637
6.2158715E-4
-0.0015208807
-0.0016878474
-0.0021520925
-0.0024541111
-0.0040594675
-0.0043696584
2.282064E-4
0.0012953124
-0.0022862116
-0.0035440568
-0.004465851
-0.0055678403
-0.0042222003
-0.0016935306
4.7066493E-4
0.0015703851
0.002207489
0.0025319292
0.0016961389
-3.563131E-4
-0.0026494928
-0.0026634454
-0.0014184872
-0.0011574836
0.0017183091
0.00760583
0.010597089
0.008394339
0.003334731
-0.0012436251
-0.0026592982
-0.0018245908
-0.0020079943
-0.002613867
-8.663405E-4
0.002637094
0.0055441456
0.0052630748
0.0012321966
-0.0036566646
-0.0066924123
-0.006756504
-0.0051282477
-0.0040178173
-0.0027426074
-2.3549402E-4
0.0014692175
9.779272E-4
6.041238E-4
4.659203E-5
-0.0017110514
-0.0010562347
0.0011992481
0.0015959173
0.0010232521
0.0016663177
0.004343729
0.003638111
-0.0018029
-0.004592448
-0.0049558003
-0.005019629
-0.0035438908
-0.0019162337
5.6310615E-4
0.003391097
0.0047890013
0.0051279035
0.0034361868
-3.2791455E-4
-0.0036244998
-0.0033953732
-0.0016091084
-0.0018056998
-0.0011649003
0.0020134049
0.0058731707
0.007186779
0.004292391
0.0020077513
0.0018308368
0.0022070166
0.0041995165
0.0046860375
0.0035048772
0.0049158987
0.0050476626
-0.0011599738
-0.008391745
-0.01006841
-0.008014675
-0.0066419
-0.0072033745
-0.0065733413
-0.0028822941
0.0011646852
0.004585281
0.0020787725
-0.0066884332
-0.008378753
-0.0049175867
-0.004996103
-0.0032657057
-2.976155E-4
0.0011768229
0.0038079347
0.006937151
0.008213829
0.0043885945
-2.0090057E-4
0.0010544856
0.0045050425
0.005881283
0.0043237056
0.0035990325
0.005825386
0.0063612377
0.0056992928
0.003280596
-0.0015176701
-0.0037304352
-0.0041350466
-0.002408107
-4.4100275E-4
-0.0029593622
-0.00358076
-0.0017156187
-0.0019090704
-0.0017295508
-0.0021458983
-0.0032394647
-0.0039296257
-0.004620161
-0.0041053887
-0.0026867401
0.0016395703
0.0058931606
0.0037804581
-0.0011008411
-0.0050346972
-0.005257982
-0.0011553459
0.0014647326
0.0023889686
0.003351899
0.0039114696
0.0044806125
0.0040967884
0.0030623914
5.673618E-4
-0.0018266009
-0.0011964076
-0.0021150636
-0.00529844
-0.004473687
0.0020643687
0.008172301
0.00809859
0.00425965
-0.0013935394
-0.0058834706
-0.005709551
-0.0050263912
-0.0032506648
3.177455E-4
0.0030863967
0.0075756162
0.009236276
0.0047491603
-0.0014244907
-0.00465709
-0.0021572101
-0.0051936354
-0.013652881
-0.009144661
0.001904537
0.0055569396
0.0035387522
-7.683262E-4
-0.00280523
-0.0040235706
-0.0046805246
-0.0016946022
-0.0015590414
-0.0017151632
0.0034562058
0.0075317225
0.009454505
0.008908884
0.005432795
0.0046023754
0.005539689
0.005656104
0.0039739064
4.9286937E-5
-0.0011285117
-8.9342604E-5
-0.001020109
-0.0030228633
-0.006351903
-0.009220248
-0.008594906
-0.007175221
-0.0064160363
-0.00440011
-0.0023183138
-0.0013180331
-4.7258506E-4
-0.0011433674
-0.0023540722
-0.0018388348
-0.0013962601
-3.3369826E-4
0.0012904395
0.0022722816
0.0058015436
0.00880956
0.008101795
0.007974258
0.0068477886
0.003293493
0.0011326268
0.0010260629
0.0033065926
0.005071761
7.980797E-4
-0.004944771
-0.0042971084
-0.0015275832
-0.003210679
-0.004869155
-0.0044012507
-0.0062057474
-0.0071058134
-0.0052378196
-0.004214804
-0.0017438234
5.886643E-4
-5.2691787E-4
-4.1376633E-4
-8.622325E-4
-0.0031355426
-4.958908E-4
0.004613705
0.0075298124
0.0087338835
0.008630944
0.007178551
0.0014212803
-0.0022370412
0.002103199
0.0031454386
1.3165906E-4
5.1699474E-4
7.595085E-4
0.0011270689
0.0026002617
0.0019904443
-5.7305134E-4
-0.003916843
-0.006250451
-0.0076934425
-0.008881137
-0.008511654
-0.0067730765
-0.0041600512
-0.001387333
-1.294882E-4
-0.0019702574
-0.004311521
-0.0032390414
-0.0010234778
9.2771015E-4
0.0022408462
0.003287375
0.007625792
0.010694176
0.010511519
0.010748444
0.005481647
-0.0036885173
-0.0063340473
-0.0026733158
0.002108358
0.004823033
0.005525019
0.007058726
0.009374058
0.007596829
7.5269476E-5
-0.0067077754
-0.0095317755
-0.010418483
-0.010777806
-0.00977803
-0.0043961825
-7.325351E-4
-0.0032457463
-0.003241548
-8.842241E-4
-0.0019188524
-0.003253244
-0.0021990307
-0.0016169978
-0.004222022
-0.004583281
-5.8259856E-4
0.0016270604
0.0019907241
0.0025419116
0.0046129553
0.0054156203
0.0010517265
0.0010260232
0.007798995
0.013549296
0.01709269
0.015306372
0.0103553925
0.0052068066
-0.0019393226
-0.004459099
-0.0049279314
-0.009276987
-0.0094651915
-0.004932573
-0.0025251976
-0.003231318
-0.0046533053
-0.00493337
-0.0040797093
-0.00205029
4.241529E-5
0.0029786713
0.006886458
0.008750783
0.009339983
0.008371364
0.004993809
-4.143396E-4
-0.0063750846
-0.008109245
-0.008962387
-0.011212896
-0.010478597
-0.008730538
-0.006485593
-0.0053539597
-0.007473574
-0.009504274
-0.0103424825
-0.009316238
-0.010607833
-0.013236456
-0.010455619
-0.007685789
-0.0040736045
5.9149944E-4
7.325161E-4
0.0035740852
0.007334224
0.010500661
0.018908285
0.027715797
0.039626375
0.051094566
0.05170807
0.050027598
0.047474
0.036689986
0.01884734
-0.0058251848
-0.03225312
-0.046688497
-0.045013856
-0.03736959
-0.02887592
-0.023257306
-0.025038391
-0.026457956
-0.02627592
-0.026126252
-0.022014732
-0.018472528
-0.014046389
-0.0075676367
-0.0017662493
0.006081946
0.009403235
0.008994116
0.012759131
0.017522654
0.020893693
0.021845473
0.024972297
0.030209696
0.028071066
0.020794367
0.011012701
5.948631E-5
-0.00812496
-0.014981679
-0.020188304
-0.024775162
-0.025475208
-0.020622399
-0.017043184
-0.012412861
-0.0077079
-0.0061502415
-0.0028527952
0.003074715
0.008998688
0.010756015
0.01412932
0.022243658
0.027340008
0.03216121
0.03167795
0.025114924
0.01770724
-0.0016331413
-0.015886342
-0.01323863
-0.018342797
-0.025470449
-0.019751228
-0.012660807
-0.0139234355
-0.018346753
-0.017911911
-0.01856235
-0.016140545
-0.0029499496
0.006291657
0.009077342
0.013233811
0.016025297
0.016983751
0.017502043
0.017190743
0.010961
-4.0216726E-4
-0.004331183
0.0046422714
0.019890953
0.03054522
0.033322006
0.031027835
0.025084682
0.01699701
7.689407E-4
-0.023283824
-0.039297532
-0.041496612
-0.04260066
-0.050290238
-0.048665874
-0.03460295
-0.029357238
-0.028152416
-0.018375847
-0.010450487
-0.010102569
-0.009504489
-7.806672E-4
0.006541672
0.0025093106
-7.4905023E-4
0.0022050631
0.010212262
0.029325653
0.05145699
0.062368307
0.06400726
0.060793012
0.049455497
0.038727127
0.03795778
0.034256365
0.020241901
0.005605304
8.103596E-4
0.003949459
-0.0028898853
-0.017414454
-0.026149977
-0.042842347
-0.070427865
-0.08970567
-0.09417555
-0.082504846
-0.05829285
-0.037053853
-0.024151197
-0.015075688
-0.008330524
0.0030770742
0.019350626
0.028853156
0.0347017
0.04021683
0.041040447
0.0493204
0.06827901
0.08179459
0.0846916
0.079249464
0.062035985
0.030749695
-0.0022367872
-0.02372291
-0.03957664
-0.051299054
-0.05709967
-0.067156404
-0.07014622
-0.049734943
-0.030537194
-0.033289727
-0.04007543
-0.03476126
-0.021811219
-0.014010843
-0.011270817
-7.806212E-5
0.014297452
0.021286951
0.023058018
0.017710024
0.014597572
0.026964612
0.042789217
0.048733525
0.04883698
0.045594648
0.037806943
0.032416806
0.026385885
0.010334699
-0.011320545
-0.044511702
-0.08503963
-0.104561284
-0.10023939
-0.0820003
-0.051526826
-0.01594746
0.012329405
0.026836157
0.04219459
0.06316003
0.08154744
0.096912995
0.09893282
0.09059949
0.077088796
0.055015977
0.03927602
0.027772378
0.016383504
0.006557585
-0.010587946
-0.0256564
-0.046695556
-0.06933683
-0.06960278
-0.07788778
-0.10074658
-0.110622555
-0.110660985
-0.09986999
-0.082352564
-0.0639375
-0.047639363
-0.04357881
-0.03738811
-0.018252604
0.009086452
0.04136573
0.06791536
0.085488565
0.10197921
0.120349266
0.12640083
0.11296277
0.078152485
0.01625578
-0.034887187
-0.056674175
-0.07156717
-0.07159055
-0.06860273
-0.06735089
-0.054248523
-0.051999208
-0.035384394
0.008839663
0.029738866
0.034310333
0.0366521
0.024632491
0.01744272
0.02134361
0.041572183
0.086672485
0.12369104
0.14617224
0.18524183
0.21741161
0.21127172
0.18051822
0.11530954
0.008065674
-0.10673413
-0.19941776
-0.24667518
-0.24865995
-0.24436559
-0.25487435
-0.25673807
-0.22320892
-0.16964982
-0.13134566
-0.12020443
-0.11411821
-0.09449219
-0.08540903
-0.0651479
0.017203795
0.102171406
0.13805997
0.17626327
0.23917715
0.28746414
0.27497602
0.21112844
0.16225232
0.12572351
0.051058132
-0.0046209916
0.041523073
0.13247527
0.17269251
0.14732929
0.07764039
-0.0073315226
-0.100342
-0.19161057
-0.23259754
-0.22490434
-0.20190318
-0.16688961
-0.1317996
-0.09521238
-0.053425208
-0.01491579
0.033900075
0.06961443
0.05437352
0.029357448
0.042020004
0.06390565
0.057658933
0.03785837
0.026731068
0.023825502
0.02482248
0.023638582
0.016011868
0.0024777849
-0.0067884703
-3.435135E-4
0.008829113
0.009962456
0.0075354376
0.0018865264
-0.0023438944
-0.005740036
-0.01127896
-0.015648648
-0.022165917
-0.026391482
-0.023493456
-0.021012584
-0.017870884
-0.004115775
0.022975106
0.049238708
0.06225019
0.065791175
0.06253329
0.055573277
0.04412042
0.02540561
0.009854379
-0.0034265835
-0.022830829
-0.044079103
-0.06448433
-0.08203517
-0.0948744
-0.10120919
-0.100796744
-0.0970126
-0.08194396
-0.056568805
-0.034053873
-0.0134078255
0.003668239
0.012798326
0.020284047
0.030458769
0.041724082
0.049412243
0.053726196
0.06022013
0.072998196
0.090647146
0.10484217
0.11487441
0.12424531
0.13405094
0.14758517
0.16252446
0.16652763
0.12024301
0.009836351
-0.097425625
-0.16094865
-0.19139345
-0.17810023
-0.13591203
-0.09972877
-0.084310345
-0.09167646
-0.09284762
-0.075635314
-0.0628039
-0.059940476
-0.066670656
-0.07706858
-0.07956095
-0.0733329
-0.05401625
-0.026342606
4.8090846E-4
0.028723354
0.054079544
0.07222628
0.08329474
0.08332789
0.07097754
0.05656306
0.05424894
0.054150496
0.04088203
0.01992493
-9.1650354E-4
-0.003701573
0.024140282
0.060201354
0.0775871
0.059259128
0.019238332
0.0020886268
0.003857845
-0.0034301165
-0.0042164885
0.0058647413
0.007426616
0.0030166276
-3.764267E-4
-0.0055051288
-0.010829652
-0.010955669
-0.006663734
-0.003145485
-0.0045290873
-0.021697944
-0.051509425
-0.06836848
-0.069046214
-0.065809
-0.058583442
-0.05011541
-0.038229275
-0.020062827
-0.0075300997
-0.0039770114
-0.0043057296
-0.0051613334
-0.0010902904
0.002914804
0.0033325653
0.0062155607
0.00956966
0.0164849
0.029981036
0.036118083
0.032024443
0.023454811
0.013041499
0.014683741
0.022739064
0.017971527
0.013778566
0.020905696
0.026633365
0.025818372
0.019932434
0.014416943
0.012815298
0.007713267
-0.0026275155
-0.008976124
-0.008068126
-0.0076112347
-0.0083976295
-0.007465968
-0.009633666
-0.011174504
-0.009945551
-0.011035254
-0.008249904
-0.002633221
-9.3530567E-4
0.0019279512
0.006073962
0.0064282278
0.002167602
-0.0024737527
-0.0014788752
8.6669094E-4
-0.0016277989
-0.0048022238
-0.004265959
-3.3899015E-4
0.0068196654
0.01354776
0.013071912
0.008023789
0.0057408777
0.0047984715
0.00203031
0.0010887622
0.0049657994
0.008552872
0.009428848
0.010578648
0.008611987
0.0037410085
0.0021299866
0.0017761033
3.9489986E-4
0.001065402
0.003931479
0.007528866
0.0129388375
0.014779424
0.0040970882
-0.01053382
-0.016710315
-0.01789753
-0.016998563
-0.013707181
-0.010297321
-0.0064945347
-0.00307334
-0.0026990115
-0.005548453
-0.008945281
-0.011823982
-0.011907178
-0.005485829
-4.294674E-4
-8.174166E-4
0.0017630395
0.0057162843
0.007118649
0.0061965743
0.0027604268
0.0025617594
0.003985679
0.003553754
0.0057226405
0.0075249444
0.008522524
0.010966019
0.00928801
0.0043560197
-5.2765635E-4
-0.0036860637
-0.0030112374
-0.00328597
-0.0033522325
2.1628648E-5
0.0011629604
0.0013063678
0.0011842356
-0.0025779505
-0.0057562105
-0.008762719
-0.011768992
-0.009514739
-0.0052426364
-9.719557E-4
0.0051115365
0.00902543
0.008725874
0.0064299665
0.0029846455
-0.0011944313
-0.0030321027
-0.0027792654
-0.0041892757
-0.0038293125
-2.5763872E-4
0.0011978213
7.5285067E-4
6.160281E-4
1.6786845E-4
-0.0023874585
-0.006336246
-0.0071805585
-0.005161183
-0.0020358535
0.0022518467
0.0059232377
0.007956474
0.005465587
-6.4205064E-4
-0.003562717
-0.0025917566
-3.7307435E-4
0.0014552899
0.002796405
0.005229221
0.0074151014
0.008342198
0.005960322
-0.0020389967
-0.009773632
-0.011363029
-0.008271137
-0.0037654715
-7.643138E-5
0.0022884305
0.0044744154
0.0056037595
0.0028736808
-0.001180589
-0.0031637126
-0.0046235444
-0.0044342363
-0.0028070174
-0.0024146233
-7.17814E-4
0.0030289968
0.0066264765
0.008018426
0.004963885
5.278816E-4
-0.0022717533
-0.0050181076
-0.006376594
-0.0029727956
0.003360272
0.0072910576
0.006880063
0.0017804169
-0.006130061
-0.009583067
-0.006726387
-0.0025912635
-2.0743103E-4
7.2378124E-4
0.004213297
0.009469077
0.009349641
0.004272235
-0.0014389922
-0.0067685144
-0.008178968
-0.0039830287
-9.975981E-5
7.535666E-4
0.0031775292
0.005892372
0.00403061
0.0012378466
3.7599736E-4
-9.363798E-4
-0.0017030783
-0.0014613238
-0.0020445646
-0.0030084252
-0.002360751
9.101889E-4
0.0022876628
-0.0011670609
-0.0036903496
-0.0036975832
-0.0039377497
-0.0025173915
2.8977172E-5
0.0012176185
0.0023034636
0.0034757438
0.003605332
0.00276836
1.008754E-4
-0.0030504183
-0.0028944614
-0.0023086919
-0.0038141042
-0.0031909253
-2.9701312E-4
0.0042236024
0.008130229
0.0049423343
-0.0013774263
-0.003687055
-0.0023877937
6.6377094E-4
0.0036942984
0.005284866
0.003444293
0.0023516796
0.0044017136
0.0015748783
-0.0032118154
-0.005372324
-0.0072526294
-0.0056395885
-0.0037160516
-0.0019080136
0.003049306
0.005777947
0.0047723665
-9.06762E-4
-0.005979267
-0.0045875297
-0.0045176945
-0.0049791043
-0.003273891
-0.0012139793
0.0031689561
0.006258493
0.007876458
0.007345598
0.003892207
0.0017343864
-0.0018370681
-0.0043299445
-0.0035513483
-0.0014251407
0.0024027715
0.0033534227
0.0053953296
0.0057161846
0.0010230684
0.0011898413
-0.0055859173
-0.015989073
-0.01320117
-0.009685809
-0.0032406067
0.006602462
0.008206421
0.008164025
9.42079E-4
-0.008611891
-0.0036565098
0.0019260452
-2.6743242E-4
-6.802327E-4
0.0014816013
0.0034011183
0.0068081473
0.009780497
0.0059615253
0.0029134827
0.0037170341
-0.0037825059
-0.011314446
-0.005839665
0.002203348
0.0030933495
0.0027845355
0.005359779
0.004061504
-0.0011635048
-0.004345798
-0.0062473384
-0.0073280456
-0.0065724337
-0.003057324
0.0023758265
0.0059592067
0.005486953
4.6617317E-4
-0.0037511194
-0.004724635
-0.006657156
-0.006121421
-0.0027001349
-0.0011948474
0.0016284565
0.007359896
0.010651033
0.0074386406
0.0015218242
-9.6281024E-4
-0.0015519086
-0.003916567
-0.0065276213
-0.0042598727
0.002411611
0.00661425
0.006067915
0.0021985103
-0.0021283582
-0.0041586636
-0.003713009
-1.8265417E-4
0.0030216202
0.0029802164
0.0025067888
0.0028114123
0.0032562616
3.486845E-4
-0.0051233224
-0.0057674344
-0.004079435
-0.0040007574
-0.002447622
-2.0089185E-4
0.0021294812
0.005629517
0.006913788
0.0024657012
-0.0029642975
-0.003301374
-0.0043314756
-0.008345255
-0.0073229545
-0.002181166
0.0028787127
0.006654885
0.005957395
0.0035936318
0.002316301
-6.736486E-5
-0.001657531
-0.0019112468
-0.0022358282
-6.132151E-4
0.0023614555
0.004636183
0.004858681
7.7859365E-4
-0.004000279
-0.0031123315
3.247897E-4
1.2314942E-4
-9.66143E-4
-2.5113812E-4
-7.360323E-5
0.0014215697
0.0031354667
1.9762691E-4
-0.004243739
-0.0065152054
-0.0055875275
-0.0020775513
-9.534277E-4
-7.2757615E-4
0.0024789213
0.005462089
0.005097554
8.998989E-4
-0.0030014124
-0.0026735053
-8.28381E-4
5.765132E-4
0.0012153048
0.001029303
0.0014010555
0.00297657
0.0054533044
0.005842621
0.0037374764
0.0010042642
-0.0050414
-0.00967611
-0.0047693173
0.0024323117
0.0048268978
0.0055177864
0.0029474758
-0.0026504523
-0.005002816
-0.005047641
-0.0052237716
-0.0043195398
-0.0028951336
-4.626834E-4
0.0019133611
0.0017269515
-2.678045E-4
-0.0032729465
-0.004888575
-0.0029357579
7.8917254E-4
0.0029915473
0.0010738124
-9.7305037E-4
0.0017109932
0.005986574
0.007528822
0.004031775
-0.0025220548
-0.005431007
-0.0036124375
-0.002243078
-0.001908521
0.0018759057
0.0069495356
0.0076963976
0.006578612
0.0055846344
0.0028385653
8.477885E-5
-0.0019673957
-0.0038812186
-0.004297712
-0.003670483
-0.001836735
0.0013867511
0.0016063824
-0.0014198361
-0.0033113554
-0.0045423573
-0.0044964678
-0.0024632418
-0.0018554423
-0.0011104529
9.4463705E-4
0.0015636891
0.0012075448
5.363513E-5
-9.0804865E-4
-7.2080456E-4
-0.0012478431
-0.0011492939
-2.7232827E-4
-5.74144E-4
4.9947994E-4
0.0036022733
0.0041308496
0.0011625284
-9.6750224E-4
-0.0013447937
-0.0012604928
5.970074E-4
0.0029290263
0.004100274
0.0044058566
0.0034428195
0.0024201956
4.193055E-4
-0.0020654732
-0.0011484151
1.0133331E-4
-2.5088777E-4
1.1705194E-4
-0.0011419668
-0.0026860032
-0.0013721836
-0.0010209631
-0.0037765978
-0.0063525946
-0.0065645874
-0.0057323044
-0.004234818
-0.0013994352
8.939309E-4
0.0033802849
0.0074308095
0.007642644
0.0019970352
-0.002480409
-0.0028560634
-0.0028273135
-0.0020310197
7.598393E-4
0.0028061094
0.006013758
0.011160229
0.010806702
0.0039888876
-0.0030356862
-0.006990299
-0.006075615
-0.002583012
-8.2146435E-4
-6.8710773E-4
-6.310398E-4
0.0016835376
0.004649835
0.0028265102
-0.0010803506
-0.0031522012
-0.003345402
-4.0950184E-4
4.1814087E-4
-0.0014110937
6.1478425E-4
3.0420048E-4
-0.0024616858
7.3639344E-4
0.0011363768
-0.005715989
-0.008239733
-0.0042342287
-0.001532009
-8.3548826E-4
0.0024632053
0.005384201
0.005417222
0.004831093
0.0010631016
-0.002943715
-0.0022140522
-0.0013666098
-0.0015456668
-4.8523996E-4
0.0014177499
0.0037929942
0.0048186625
0.0035992472
3.3861122E-4
-0.0024876844
-0.0017907883
-0.0014792942
-0.0043115867
-0.0053449734
-0.0020617743
0.0013867464
0.00232204
0.0020520082
-7.494099E-5
-0.0031255737
-0.004207345
-0.0046580923
-0.0042985734
-0.0010646499
0.0038393815
0.00878738
0.010927359
0.008366882
0.005052491
0.003585679
0.0010142296
-0.0020291887
-0.0017801026
-2.743833E-4
7.155992E-4
0.0027113305
0.0030994036
3.7471205E-4
-0.0024061801
-0.004205472
-0.0054004462
-0.005940963
-0.0065618693
-0.0065703276
-0.003874629
9.4496546E-4
0.0036037257
4.9615593E-4
-0.005085502
-0.006896086
-0.0054911696
-0.0035459052
-0.0019468357
-0.0012223851
0.0013251682
0.0053396127
0.007849398
0.007965325
0.00430877
0.0012974591
0.0010983635
-5.1799143E-4
-0.0011759697
-1.9019868E-4
0.0020494661
0.006139983
0.005880782
0.0028663955
0.0014613853
-8.9714775E-4
-0.0037257143
-0.0062307524
-0.005297063
-7.78778E-4
0.0022538477
0.0049735876
0.005445789
0.0025340742
-3.7936534E-4
-0.0039398437
-0.0047072517
-0.004234154
-0.0061776047
-0.0044927807
3.5225943E-4
0.0050815335
0.0071367426
0.0033197608
-3.1135514E-4
-0.0017485262
-0.0029429386
-0.0019208457
-0.001328184
-0.0016550331
-8.943554E-4
0.0015909127
0.0054112035
0.004229068
-0.0016148409
-0.0033711223
-9.424152E-4
4.0026451E-4
-7.368481E-4
-0.0026012496
-0.0030088336
-7.213778E-4
0.0030478006
0.003902333
3.698072E-4
-0.0031190172
-0.0041619437
-0.004793303
-0.003255491
0.0011358375
0.0024117872
0.0024666467
0.0050823647
0.0040015588
-2.3809157E-4
-0.0022491782
-0.002941225
-0.0025660025
-0.0016864196
-5.826728E-4
0.002751696
0.007567844
0.009753158
0.0049827984
-0.0026044042
-0.0047552
-0.0033416976
-0.0033263052
-0.003731715
-0.002671081
-9.298114E-4
0.0014453928
0.005914418
0.0076743066
0.0019328669
-0.0039793774
-0.004539079
-0.0028555277
-1.3450203E-4
0.0011989966
3.4264824E-4
0.0027745015
0.0066306656
0.003685098
-0.0042905984
-0.008366901
-0.0073030223
-0.005476199
-0.0032621862
-8.0915197E-4
0.0016356596
0.00461594
0.00583187
0.0049390686
0.00185803
-0.0024695355
-0.0041316315
-0.004815652
-0.0052160528
-0.0034697258
-5.0406397E-4
0.0039266553
0.0065115867
0.0054757814
0.0023880468
-0.002259052
-0.0033777596
-0.001635014
-8.0418703E-4
6.0162734E-4
0.001966037
0.005228456
0.008943104
0.008229224
0.003990578
-0.0014735938
-0.0037484092
-0.0050927624
-0.007737454
-0.0059645246
-0.0013922943
0.0042402297
0.0064654765
0.0033275161
0.0010727376
-0.008024261
-0.0153819155
-0.006703946
-0.001712763
-0.0022876645
0.002721748
0.0048179063
0.0055975798
0.0050400463
-6.573927E-4
-0.0031399478
-0.0022347348
-0.0014848829
0.0010082064
0.0027435382
0.004222101
0.009244715
0.01032454
0.0028848057
-0.0034188617
-0.0067129494
-0.007864515
-0.0039235717
-0.0018531205
-0.0022258884
8.133608E-4
0.004021488
0.0053688367
0.005105683
0.0017438792
-0.0028683369
-0.003799769
-0.0031359287
-0.00523272
-0.0039500277
-4.1394025E-5
0.0010768431
0.0032687583
0.0040772795
0.0019030676
-1.5094229E-4
-0.003203045
-0.005214432
-0.0058479263
-0.0040163253
8.6606777E-4
0.0028249098
0.003826809
0.005695047
0.0037157948
2.6330477E-4
-0.0010056827
-2.1345544E-4
0.0016396419
0.0025554271
0.0012608428
0.0015683367
0.0063652983
0.0069509116
0.0014079516
-0.0021940866
-0.0045577316
-0.005063536
-0.0034424567
-0.0035016888
-0.0019292047
0.0012462114
0.0029100133
0.002250399
-0.0025715537
-0.00697709
-0.0072033987
-0.006416089
-0.0063382126
-0.0054836655
-0.0013469178
0.0042733336
0.0071487734
0.0058354856
0.0018469675
-6.786869E-4
-1.9604513E-4
0.0025058123
0.0044334447
0.0036432645
0.006068244
0.010368029
0.00987949
0.0071877968
0.0015234359
-0.006086766
-0.008956685
-0.010106864
-0.010759009
-0.0070239296
-0.0015353444
0.0041384627
0.008380324
0.00582959
-6.6178245E-4
-0.004580802
-0.006306672
-0.005309726
-0.0033216118
-0.006432056
-0.008462287
-0.0021170275
0.004967013
0.006550013
0.004226452
0.0028690153
0.005403714