0.0019208058
-0.0031542631
-0.0064467466
-0.0074505704
-0.0057883416
-0.0048053497
-0.0032319026
0.0013293745
0.004936301
0.0064021866
0.004346292
7.99829E-4
4.7563476E-4
9.247785E-4
7.231866E-4
-0.0012034939
-0.003673509
-0.0011357161
0.003448248
0.005285486
0.0032548548
-0.0018036498
-0.0054632486
-0.0071595153
-0.0062776855
-0.003271523
-0.0022212672
4.6706485E-4
0.005864026
0.0077537824
0.0052425805
0.00207711
0.0015798962
0.0017902608
3.8055616E-4
-6.1799353E-4
-6.5854966E-4
4.8607567E-4
0.0018292099
0.0028628171
0.0032996775
-4.3495666E-4
-0.0037918063
-0.0025403406
-0.0021872297
-0.002122836
-5.8957573E-4
8.8482077E-4
0.002606221
0.0011126307
-0.0025757567
-0.0042909305
-0.006060147
-0.0064889006
-0.0045353696
-0.0037448278
-0.0021773558
0.0015981278
0.0042374106
0.005016792
0.0042481762
0.001050463
-0.0026121624
-0.003338012
-0.0023227897
-0.0010521467
0.002169528
0.005642942
0.007766268
0.009792417
0.009148694
0.0044087465
1.4934276E-4
-0.0022863562
-0.005845142
-0.0062676603
-0.0013711142
0.0010291012
0.002746612
0.005416482
0.0017555678
-0.0026650052
-0.004535523
-0.0083706025
-0.010080931
-0.008483225
-0.0039521167
0.0013902287
0.0019342783
0.0010078052
3.0788433E-4
-6.6470925E-4
-7.257643E-4
-0.0017455618
-2.1963218E-5
0.0032710491
0.004266351
0.0073302938
0.010053113
0.009668848
0.00765237
0.002807205
-0.002877312
-0.007375478
-0.00788941
-0.0041939435
-0.0016131132
-0.0010279415
-0.0017246255
-0.0014272504
5.1485875E-4
-7.9219835E-4
-0.002693324
-0.0020546266
-0.0019900252
-0.0022729437
-0.0023180612
-4.8811085E-4
0.0032581561
0.0043723607
0.0034936732
0.0015007776
-0.0022304363
-0.0034881055
-0.0021314647
-5.915681E-4
0.0017567491
0.003578862
0.005484626
0.0080033075
0.006755173
0.0017000667
-0.0023496458
-0.0029750783
-0.0025042803
-0.003764421
-0.0032087364
-1.9888557E-4
0.0015130301
0.0040219333
0.0043974076
-8.9679187E-4
-0.0036294016
-0.003178244
-0.0048062704
-0.0043602264
-0.0014237899
-7.0065284E-6
-7.917687E-5
-3.3265993E-4
0.001292801
0.0017383066
-0.001527676
-0.0029778024
-0.0031603666
-0.0042488705
-0.0027163958
-4.0528207E-4
0.0025619667
0.0064816047
0.005099001
2.3137378E-5
-0.0028467462
-0.0025096175
-3.602026E-4
2.6271585E-4
8.3203614E-4
0.0035127238
0.006392491
0.009150924
0.009809391
0.0072965906
0.0029707302
-0.002305399
-0.0060933484
-0.008361144
-0.007719403
-0.0024166002
0.002722483
0.005153324
0.004101049
-7.525631E-4
-0.0056270845
-0.008486787
-0.0068507236
-0.0026205454
-0.0010101355
0.0013413945
0.0044821096
0.0044080974
0.0025922216
4.5383607E-5
-0.0028566942
-0.005305853
-0.0046290364
-0.0016778635
-0.0014958039
1.3568137E-4
0.00456253
0.0055039306
0.003611055
5.9977756E-4
-0.0018083806
-0.002654683
-0.004072675
-0.004570248
-0.0034276226
-0.0010859303
0.0017663506
0.0045769084
0.0075566224
0.0048849136
-0.0016264875
-0.0018645951
0.0010671087
0.0010236888
0.0013271287
0.0043740207
0.0078882435
0.010228917
0.00748604
-0.0016590587
-0.007397385
-0.00803931
-0.008099725
-0.0050189327
-0.002432496
1.9844293E-4
0.004440976
0.005612229
0.006938167
0.0011382293
-0.010403863
-0.00835143
-0.0013494199
-0.002859469
-0.008474781
-0.009385572
0.0014017419
0.009655456
0.0071260734
0.002645155
-0.0028585694
-0.005096904
-0.005916299
-0.007100227
-0.0010170946
0.0038395273
0.003840456
0.005120476
0.005024354
0.004730572
0.003481061
8.1295264E-4
9.994707E-5
-0.0015828422
-0.002285766
5.352057E-4
0.0030886622
0.00481272
0.0049446695
0.0022500763
-4.768794E-4
-8.8710594E-4
-4.5115149E-4
-5.2195E-4
-8.6780475E-4
-0.0016717919
-9.079991E-4
0.0017032733
0.0018613393
-0.0023960422
-0.0069579217
-0.005790342
-0.0024127066
-0.004007829
-0.0061319605
-0.0031397447
0.002441766
0.0075021833
0.010159345
0.0072936392
2.7598115E-4
-0.0045271437
-0.0064697205
-0.0065339124
-0.004151332
-0.0021766552
8.6593226E-4
0.0058421623
0.008761614
0.008226554
0.0037645577
-4.6703834E-4
-0.0018043875
-0.0033219513
-0.0038168668
-0.0034679507
-0.0012421542
0.0036485852
0.0033755612
-9.926788E-4
-0.0031655142
-0.0043043112
-0.004371325
-0.0058794445
-0.0075032953
-0.0020004692
0.0044064797
0.0049328525
0.0053989734
0.005216821
0.0011954102
-2.2320887E-4
0.001298504
4.7097876E-4
-6.9151085E-4
-0.0012561998
1.17936426E-4
0.0046621403
0.0050176824
0.0015063743
4.5326303E-4
-0.0013308564
-0.0037248172
-0.002097028
4.2813277E-4
3.456718E-4
6.7575765E-4
0.002456573
0.003024592
0.00194827
-0.0014132913
-0.0037725957
-9.64194E-4
-2.3548891E-4
-0.003712221
-0.0031226128
0.0019173349
0.0066150194
0.0056154053
-0.0011178242
-0.005457005
-0.0061817495
-0.0066870474
-0.0070393477
-0.0056664604
-0.0012936005
0.0011335711
0.0017353211
0.0051835063
0.0039426982
-0.0019790116
-0.0025316672
-0.0013235841
-0.0020629526
-0.0015637784
-4.484377E-5
0.0035321228
0.008176245
0.010031524
0.008888954
0.0048918473
-4.6615442E-4
-0.003963194
-0.005513809
-0.0054447628
-0.0025994782
0.0019675593
0.0052305707
0.005218234
0.0015019461
-0.002163615
-0.0018959421
-0.002649968
-0.0055775414
-0.0042470465
-0.0011731825
0.0013475274
0.0043560206
0.0027736987
-0.0014699504
-0.0036965285
-0.0048876205
-0.0042140363
-0.0032259352
-0.0018428044
0.0016785065
0.005874613
0.010838517
0.010558191
0.0029263324
-0.0030150607
-0.0067658527
-0.008945537
-0.0067084227
-0.0038452959
-0.0013751651
0.0023295367
0.0059111305
0.0066851997
0.0037611357
1.3076469E-4
-0.0032096205
-0.005510551
-0.005733337
-0.006544152
-0.006441138
-2.645518E-4
0.008194336
0.009397583
0.005068459
0.0016054376
-0.0017640366
-0.0014563898
0.0016261864
1.1458348E-4
-8.02275E-4
5.029834E-4
4.6282474E-4
0.0029891783
0.0038095445
-7.848579E-4
-0.0038525574
-0.0031966283
-0.001457152
-2.9322255E-4
0.0012595549
0.0034991843
0.003235633
0.001418689
1.9819576E-4
-0.001331757
-0.002470918
-0.004099348
-0.006952897
-0.007262491
-0.0035488217
0.0020412612
0.006558141
0.007362903
0.005454939
0.0015586957
-0.0031021594
-0.0033977577
-0.0016244316
-0.0031986206
-0.003415063
4.9929484E-5
0.0028241798
0.00544447
0.0073926877
0.0039160354
-0.0021152233
-0.0037904845
-0.0024387548
-0.0029487743
-0.0032206215
0.0017323785
0.007633926
0.008765724
0.005482152
-0.0048056752
-0.01344044
-0.0099030025
-0.007331115
-0.007293208
-9.775563E-4
0.0024831237
0.004594422
0.00899287
0.0072033727
0.002054572
-0.0022575585
-0.0055417814
-0.005905417
-0.00411845
-1.6003554E-5
0.0053775366
0.010606607
0.011161615
0.0037041774
-0.0016308699
-0.0018167027
-0.005414337
-0.008448237
-0.004631028
7.257273E-5
0.0023574862
0.0056067263
0.0067180214
0.0027661219
-9.7539934E-4
-0.001138841
0.0014783783
0.0014265856
-0.0047326083
-0.008712047
-0.006228901
-0.0013405008
0.0037622934
0.0048309085
9.648416E-4
-0.0022599872
-0.0035662106
-0.0037528432
-0.002667542
-0.0017963704
7.4785965E-4
0.0045286925
0.005374381
0.006043921
0.0035470196
-0.005606088
-0.009095558
-0.0055858535
-0.0024949403
0.0023657181
0.004939017
0.0056018103
0.008111284
0.0044660196
-0.0017325726
-0.0032244327
-0.0053517595
-0.005580137
-0.0012828315
6.2220776E-4
8.5803604E-4
0.002968511
0.0044662403
0.003696652
3.9022803E-4
-0.0031523649
-0.002928805
-0.001161152
-0.0018865132
-0.0028492063
-1.6917262E-5
0.005255053
0.007928902
0.0054018674
-8.8147935E-4
-0.0048046806
-0.0042919097
-0.0055348207
-0.005955473
-6.129215E-4
0.0042105415
0.006484442
0.006718856
0.0014895549
-0.005145784
-0.00702207
-0.005536666
-0.0044993446
-0.0038063242
-0.0020539758
8.2157203E-4
0.0045991004
0.00600046
0.0034054809
-1.9035036E-4
-0.004356025
-0.008103467
-0.006730838
-0.0010490648
0.0025531098
0.004983272
0.009239996
0.011763022
0.011800656
0.00791216
0.0013693736
-0.0010518909
-0.0043453015
-0.008913809
-0.0066753617
-0.0018053369
0.0022922289
0.0046682553
0.004106054
0.0017096825
-0.004601732
-0.008459157
-0.0065679504
-0.0060494947
-0.005663123
-0.003861117
-7.1426085E-4
0.0037665344
0.0039073112
5.907561E-4
-0.0012184685
-0.0016858791
-0.002383087
-0.0029002088
-0.0010634494
0.0036063264
0.009246265
0.011018278
0.0073134596
0.0016914031
-0.003608559
-0.0057913596
-0.0068364865
-0.0072288373
-0.0028032046
2.685072E-4
0.0026280314
0.008762052
0.008764088
0.0023248626
-0.0021383965
-0.0028057995
-0.0023618818
-0.003817106
-0.0021702868
0.0014171206
0.0022583564
0.004793137
0.005352726
0.0020481248
-3.0958006E-4
-0.0035405804
-0.005545024
-0.0059514083
-0.0072715166
-0.005485821
-0.001064863
0.0022914053
0.002792893
6.3297985E-4
-7.760858E-5
5.940061E-4
-1.5177001E-4
-8.691027E-4
3.8878663E-4
0.0037533557
0.007758486
0.008316519
0.003471673
-0.0015488303
-0.0028976456
-0.001972886
-0.0010632345
-0.0021859077
-0.0019106523
0.0010207612
0.0031755103
0.0048314207
0.0034470654
0.0010442982
4.850628E-5
-0.0043283976
-0.005921809
-0.006606387
-0.012141761
-0.00844642
0.001574455
0.0053451527
0.0057016104
0.002251562
-0.0014642003
-0.0018301618
-0.0010799102
0.0020121355
0.0024409886
-2.0083255E-4
0.0017045251
0.0055543547
0.0040302407
-0.0019080833
-0.005211991
-0.0062124482
-0.0068638287
-0.00425153
-0.0010384421
0.0014455008
0.0042111487
0.007009266
0.008280754
0.004801166
0.0021802292
9.377307E-5
-0.0049151154
-0.003946483
-2.269794E-4
0.0020951184
0.00614466
0.006448242
0.005532611
0.0028353382
-0.00380384
-0.0028950216
0.0016125384
2.986929E-4
-0.002011718
-0.0017166822
0.0019876738
0.003966356
-7.3615887E-4
-0.007566094
-0.013047592
-0.014378271
-0.009676662
-0.003676437
-1.6226403E-4
0.0020994295
0.004352618
0.0060053733
0.00659019
0.0054604234
0.0022102632
-7.98833E-4
-8.568204E-4
5.746873E-4
7.2339206E-4
0.0010740882
0.0027734842
0.0036530034
0.002748916
2.274378E-5
-0.003517604
-0.006333574
-0.0069335247
-0.004895054
-0.004134364
-0.0036643879
0.0011512557
0.006639269
0.009469142
0.008508244
0.0026592314
-0.004267396
-0.009570804
-0.008145986
8.966378E-4
0.0073918556
0.012682782
0.017072134
0.011075667
0.0037197648
0.0016948173
-0.0016797642
-0.004957058
-0.009869042
-0.012634249
-0.00463472
0.0035312173
0.0046545863
0.0031851118
7.953622E-4
-0.0030202123
-0.0114706075
-0.01623194
-0.011098244
-0.007656739
-0.004897593
0.0023190074
0.00763625
0.010007332
0.0074051158
-2.8083753E-4
-0.005368301
-0.005022622
-8.7140314E-4
0.0026258377
0.0031335393
0.0033767675
0.0045280983
0.0068789157
0.006535874
0.003074357
0.004906027
0.006612391
1.9337093E-4
-0.0021485698
0.0027313475
0.002797857
-0.0021408002
-0.0076209214
-0.009988658
-0.0059687314
-0.0027385866
-0.0034299586
-0.002284509
0.0015886845
0.00554249
0.0063678976
0.0064280196
0.0071003265
0.002603144
-0.0028462368
-0.0050675874
-0.0073286667
-0.0060987263
-0.0027471634
-9.258781E-4
0.0026038932
0.0052645863
0.0028684312
-0.0029840206
-0.006556295
-0.005823957
-0.006252172
-0.005860031
-0.0020571407
6.089702E-4
0.003287456
0.0041744392
0.0018766726
0.0028928586
0.0037863425
0.0014524327
8.8251947E-4
-1.9996232E-4
-0.0016428947
-2.1101793E-4
0.0021529552
0.0052030515
0.0072891456
0.009735071
0.011856558
0.00527078
-0.0020377068
-0.004465047
-0.01070787
-0.00993363
0.0018093021
0.010133623
0.013579323
0.007920381
-0.0061426517
-0.013888506
-0.014896278
-0.012841369
-0.008018959
-0.0043180813
-0.0018088977
-9.976206E-5
9.3876634E-4
-0.0025084289
-0.010270065
-0.0095112305
-0.0038175385
-0.00564115
-0.0074548395
-0.0031926492
0.0029165847
0.009077177
0.0126030175
0.011518557
0.009229835
0.0080338605
0.0049590818
0.0014748838
0.0038532985
0.010505796
0.017789321
0.026389765
0.030490592
0.021054456
0.0010245299
-0.017166447
-0.023800803
-0.019263268
-0.014394452
-0.012810365
-0.0069194436
-0.0011956496
-0.0021812995
-0.0028316195
-0.0023685836
-0.0047185235
-0.008493729
-0.013020006
-0.01300242
-0.0071854223
-0.004510392
-0.00285594
0.0032055955
0.004971305
0.0013809461
0.0012901113
0.0012200648
-2.9633238E-4
0.0023611896
0.003955451
0.0035827484
0.005543409
0.0045537557
3.7745474E-4
-0.0057843537
-0.012383789
-0.009345427
-0.0011600176
0.0022467594
0.0033634002
0.0017191119
0.0013281186
0.007620072
0.012612976
0.010625222
0.0070613977
0.009200748
0.012575462
0.009130092
0.005678162
0.0058667595
0.002239668
-0.00519178
-0.008354005
-0.004125891
5.530627E-4
0.0019925905
-0.0022162283
-0.015063484
-0.023438374
-0.021509688
-0.018373325
-0.01630314
-0.019008197
-0.021534001
-0.018039752
-0.015873618
-0.009071531
0.0019746947
0.005664819
0.007960099
0.012337784
0.019438742
0.025859412
0.017286947
0.0038652655
5.868503E-4
-0.003891372
-0.013104272
-0.018577497
-0.021723207
-0.02212083
-0.014941119
-0.0051788576
0.0057064057
0.020416796
0.028471686
0.032340743
0.047010776
0.06434618
0.075694084
0.08562908
0.0866211
0.067954645
0.03415286
0.0016390246
-0.017179463
-0.029837789
-0.048781745
-0.0661055
-0.06846246
-0.061887342
-0.055106994
-0.04643141
-0.036522537
-0.022566294
-0.0031876827
0.010796966
0.015283063
0.015142321
0.01818882
0.026862765
0.022090655
-0.0042582364
-0.03181431
-0.04679051
-0.04805146
-0.037957024
-0.020175736
7.266124E-4
0.019118624
0.027699135
0.019766057
0.0126753645
0.008963971
-0.022672748
-0.0622102
-0.078271635
-0.08984649
-0.104147606
-0.114386104
-0.111807525
-0.0897254
-0.049565393
0.01123936
0.06421909
0.097256236
0.13995247
0.20395237
0.29229254
0.34907565
0.31722707
0.2583822
0.21401638
0.15103777
0.04958309
-0.07147364
-0.15910527
-0.2164825
-0.2518613
-0.2080317
-0.12290495
-0.08159728
-0.058936406
-0.028870365
-0.008896198
-0.0058770054
-0.065480635
-0.17744116
-0.21924673
-0.19841217
-0.20570925
-0.19769329
-0.16825555
-0.14318904
-0.05049046
0.09005374
0.19063634
0.226052
0.2064289
0.19668034
0.2033871
0.17015971
0.1264486
0.0955714
0.05199359
-0.004270175
-0.049036093
-0.050921895
-0.028224975
-0.0071949847
0.023506992
0.0480065
0.059108872
0.05820918
0.020751517
-0.036134083
-0.06114562
-0.034157377
-0.0029700664
-0.022405794
-0.05926678
-0.07004217
-0.05763981
-0.027215231
-5.922827E-4
0.0079786545
0.019752463
0.029814502
-7.6262084E-5
-0.053832058
-0.06891768
-0.042680882
-0.017811708
-0.0018772769
0.027896
0.061331782
0.058160324
0.03866531
0.029192034
3.1062623E-4
-0.033142775
-0.04660866
-0.05237502
-0.04686114
-0.040530268
-0.039394226
-0.029656997
-0.014886548
0.0014156624
0.011137513
0.011935274
0.013343888
0.010953349
0.004981334
-5.810294E-4
-0.0031587018
0.0028634176
0.013808139
0.024820918
0.030319491
0.029396787
0.028270591
0.02765056
0.027745796
0.024317633
0.016759297
0.01267736
0.010445698
0.0067241625
0.0035687576
0.0025162522
-0.001517406
-0.00948775
-0.012697925
-0.015551552
-0.019223828
-0.0162937
-0.013006798
-0.009417573
-0.004125521
-0.0023683992
4.8708724E-4
0.0037831797
0.0026478525
0.0011628623
0.003100446
0.0059183673
0.0063566756
0.0052729603
0.0019593118
0.0010697392
0.0057072337
0.0055065746
0.0011076006
-0.003537448
-0.011048632
-0.014862306
-0.01616825
-0.015854167
-0.0075394684
1.0115939E-4
0.0054668877
0.0135321785
0.01257392
0.0034425294
-6.0020975E-4
-0.002427099
-0.0058439705
-0.0059490795
-0.0028023245
0.0010534484
0.005865693
0.007783103
0.0033145633
-0.002474655
-0.0046601254
-0.004046575
-0.0028732596
-0.0011514943
0.002105841
0.004629433
0.007089051
0.0113660935
0.011228239
0.006339704
0.0050992747
0.0067503005
0.00624724
0.00384363
0.0021078319
0.0019523334
-0.003017716
-0.014533844
-0.021211928
-0.020249672
-0.016178492
-0.008274776
-0.0029631322
-0.0024755222
0.0027374148
0.010153666
0.011575065
0.007806128
9.972134E-4
-0.007895716
-0.0160617
-0.015538454
-0.007605372
-0.003963743
0.0025789717
0.018118974
0.02675245
0.025505919
0.019141085
0.005070355
-0.007993317
-0.011699946
-0.008687788
-0.004342894
-0.002202294
0.0013146853
0.005583409
0.0049496307
-7.0362E-4
-0.00917579
-0.014300722
-0.013381326
-0.009749721
-0.004435637
7.960318E-5
0.0038155736
0.005884306
0.0045554712
0.0032502646
-0.0014920108
-0.0075328085
-0.006587565
-0.0026165072
0.0011667758
0.0042442502
0.007970065
0.012416005
0.010945569
0.00702634
0.0025861005
-0.00387237
-0.006212337
-0.0076438547
-0.00776437
-0.0028229095
0.0014486358
0.0059305206
0.008451497
0.0048653837
-0.0014603209
-0.008236704
-0.0100634955
-0.007481657
-0.005818823
-0.0025152445
0.0028818478
0.007706256
0.008989721
0.0053284825
5.515572E-4
-0.002339478
-0.003252831
-0.0030451734
-0.0012929493
0.0012045982
0.0035209323
0.007985885
0.009784431
0.0046567256
-8.769094E-4
-0.004485
-0.0074935495
-0.0073372247
-0.004482508
-0.0021872828
4.0954605E-5
0.0042744204
0.0072274315
0.0040236884
-0.0016818966
-0.0033508583
-0.0032749344
-0.0039887894
-0.003617467
-0.0028858832
0.0012157628
0.0076499903
0.00818509
0.0041180113
-0.0025362964
-0.008302221
-0.0066872584
-0.003944904
-0.00288358
-5.5747427E-4
0.0012398864
0.004904914
0.009318794
0.0086052995
0.0019552235
-0.0028895058
-0.0030216665
-0.009343423
-0.014181287
-0.0055762962
0.0027205008
0.0077045173
0.01222954
0.008088444
-1.6199498E-4
-0.0046523805
-0.0053409976
-0.0047899764
-0.004265713
-0.0013791132
0.0024601885
0.0066156858
0.0094992835
0.0058025145
-5.372215E-4
-0.0030937423
-0.0027897537
-0.004085241
-0.006206649
-0.0036026535
0.0011256811
0.0047555417
0.007094475
0.0049555125
6.281969E-4
-0.0034724285
-0.0066758357
-0.005765273
-0.003683208
-0.0031092041
-4.6538922E-4
0.00551169
0.009869231
0.0069019594
1.1840224E-4
-0.0026967255
-0.0018226827
-0.0022610754
-0.003356702
-0.0020613791
6.791205E-4
0.005082099
0.0081215175
0.00538254
6.5945124E-4
-0.0038197113
-0.00644242
-0.0061079254
-0.0062018903
-0.003639026
5.4415554E-4
0.0020573784
0.00490397
0.006094048
0.0017910288
-0.0030233369
-0.00441982
-0.0030214824
-0.0032935208
-0.0035050567
5.4545654E-4
0.005868348
0.00885703
0.005850635
-6.764152E-4
-0.004162601
-0.006007019
-0.0057202913
-0.0025169111
-6.101564E-4
0.0014491252
0.004942599
0.0068896594
0.005869531
0.0014220865
-0.0027918357
-0.0032567857
-0.0026493995
-0.0023496875
-0.0018261737
8.389305E-5
0.0050319526
0.007288298
0.003495685
1.8431536E-4
-0.0013253994
-0.0045465496
-0.006810388
-0.003768408
1.7117415E-4
0.0015162705
0.005487164
0.0074923662
0.0026218828
-0.0021704938
-0.0046503865
-0.0038205925
-0.0029288162
-0.0045905304
-0.0017734503
0.001979537
0.0035527693
0.0035377091
6.529846E-4
9.68398E-8
-0.006144947
-0.011787152
-0.002864492
2.021925E-5
-0.0028714733
0.0035400137
0.006996873
0.0074050524
0.0069577503
0.0025995045
4.837017E-4
-0.001437699
-0.0025984428
-0.0010016111
-5.4665987E-4
4.6867758E-4
0.003880106
0.007976759
0.006784018
6.077118E-4
-0.0031353459
-0.0063123093
-0.007851168
-0.004711719
-0.0030436106
-0.0023826489
0.0011650934
0.0038950027
0.0035758824
0.0017495959
-0.0011085811
-0.003221982
-0.0031816498
-0.003933976
-0.0053890916
-0.0029402964
0.004020319
0.0091290595
0.00667923
0.0012356926
-0.001903531
-0.004153528
-0.004534469
-0.0023162125
-2.3689836E-4
0.0012934383
0.0032571945
0.0046881894
0.0040841415
0.001700525
-0.001220307
-0.0028261507
-0.0035123692
-0.0048261634
-0.0043640644
-7.657853E-4
0.004043702
0.0066909757
0.005161421
0.0025275282
3.2276148E-5
-0.0026153235
-0.003777862
-0.003777769
-0.0028556471
-7.251466E-4
0.0027682662
0.0053859013
0.0047767973
0.0024044118
-0.0013729379
-0.0032373948
-0.0019335495
-0.0026488728
-0.0035472224
-0.002454864
-5.4754084E-4
0.0023132612
0.0025272348
-3.4546913E-4
-0.003232557
-0.004530359
-0.0037708725
-0.0021333431
-2.542032E-4
3.9447795E-4
0.002057981
0.00587703
0.0065144417
0.0041428423
5.2956253E-4
-0.0018281974
-8.154993E-4
-0.0012504888
-0.0017749615
-4.425814E-4
0.0013793104
0.004202812
0.0039554713
0.0021794972
-2.71205E-4
-0.0047555394
-0.004935822
-0.004007317
-0.0038517113
-7.160941E-4
0.0012914793
0.0038910327
0.0051415893
0.0011576144
-0.0012236619
-0.002669431
-0.00426747
-0.0023123182
-1.353128E-4
0.0010668774
0.0027919458
0.0038642187
0.0032313373
8.607429E-4
-0.0012415481
-0.0017733973
-0.0018370596
-0.0021674384
-0.0026888286
-0.002634524
-7.7486725E-4
0.0020457946
0.0039249826
0.0033919832
-3.660598E-4
-0.0027338346
-0.0013340436
-9.448374E-4
-0.0012937803
-2.3144523E-5
0.0030319192
0.006301231
0.004365941
-4.000331E-4
-0.0023897684
-0.0034457482
-0.0040726108
-0.0028615138
-7.0162484E-4
-5.3516193E-5
3.6089623E-4
0.0032652183
0.00473859
0.0029517515
-8.132037E-4
-0.004134179
-0.0032543328
-0.0028627533
-0.0032345778
1.5052047E-4
0.002138074
0.002994349
0.0051871967
0.0034826258
-0.0013918738
-0.0040233363
-0.0038232862
-0.0029900325
-9.462986E-4
0.0010625756
0.0010506595
0.0033158935
0.005901541
0.003971278
0.0014684827
-3.3708985E-4
-0.001662371
-0.001147357
-0.001306823
-0.0024396512
-0.0010705363
0.002631502
0.0028682386
-4.918451E-4
-0.0014139984
-0.0020220422
-0.004865936
-0.005190836
-0.002297652
3.2801114E-4
0.0022312552
0.003964493
0.0041898345
0.0030547713
0.001568
-7.311008E-4
-0.0032816068
-0.005429597
-0.004760839
-3.5109176E-4
0.0033452967
0.0059991116
0.006734726
0.0028835721
-5.4580683E-4
-0.0019698085
-0.003416858
-0.00387233
-0.0038629668
-0.0019068272
0.0014494325
0.002720521
0.002440293
0.0012477777
4.3974182E-4
1.5122848E-4
-0.0012511924
-0.001644051
-0.0013073728
-0.0013168027
0.0012203832
0.0045519634
0.003970463
9.801177E-4
-0.0010064093
-0.002825974
-0.0042774472
-0.0029997677
-6.3953415E-4
8.3632313E-4
0.002031465
0.0025274048
0.0032856618
0.003659498
8.833502E-4
-0.001095846
-9.3237584E-4
-0.002377721
-0.0018544695
3.3886282E-4
2.1438127E-4
0.0013008761
0.0025345418
6.9809123E-4
-0.002472762
-0.0044414033
-0.0027344679
-9.996103E-4
-0.0012310183
-8.402205E-4
-6.7997066E-4
0.0013620018
0.003930496
0.0031261258
0.0015007089
-8.6519384E-4
-0.0030097514
-0.0029448445
-0.0017868823
4.0075107E-4
0.002359961
0.0038770607
0.0039141416
0.0018537918
-2.743918E-4
-0.0025412987
-0.002782428
-0.0020591777
-0.0018798185
7.534595E-5
9.935009E-4
0.0023202812
0.0034138854
0.00168489
0.00170407
4.8666206E-4
-1.439708E-4
-8.953012E-4
-0.008310977
-0.0071915337
0.0025325902
0.0050244723
0.004995098
0.003298115
-4.446974E-4
-0.0017170934
-0.002463326
-0.0013436043
-7.418821E-4
-0.0017078788
1.9518666E-4
0.0020285877
0.0021692174
0.0016917738
8.144638E-4
5.9958483E-4
-6.664121E-4
-0.0021184122
-6.8372156E-4
6.455898E-4
-0.0011318269
-6.503756E-4
0.0034425445
0.0032180005
-5.2630616E-4
-0.001533085
-0.0016470515
-0.0030823473
-0.0038729783
-0.0028151711
-6.568225E-4
0.001973643
0.0035970858
0.0031386293
0.0019901618
4.9458136E-4
-4.8093998E-4
-0.0013932006
-0.0034153662
-0.0026251706
7.548202E-4
0.0032517915
0.0046497337
0.0034699065
-3.245601E-4
-0.004770113
-0.0063376473
-0.0045049265
-0.0033358193
-5.607017E-4
0.0037621334
0.004867758
0.004723638
0.003702608
7.867066E-4
-0.001248272
-0.0016416233
-0.0019530243
-0.0017585306
5.89159E-4
0.0016615599
0.0018063458
0.0045882054
0.004072561
7.5425423E-4
-9.968365E-4
-0.0039994568
-0.0043717213
-0.0024648877
-0.001967339
0.0010777856
0.0033212246
0.003367705
0.0031301666
-5.978891E-4
-0.002934489
-0.002254972
-0.0023640392
-0.0018938449
-0.0026900582
-0.0025167088
0.0017204444
0.004034994
0.002006179
-0.0016477486
-0.0035069385
-0.0031428928
-0.0035456081
-0.003275932
-0.0015041423
9.234915E-4
0.004197719
0.00589401
0.0054092803
0.0027667314
-0.0012508344
-0.0022721852
-0.0012732954
-0.0015379335
-7.6874107E-4
0.002275344
0.0052832137
0.0062919245
0.0034967316
-0.0016937386
-0.00468583
-0.005543165
-0.004747789
-0.0021113472
-4.8531016E-4
0.002399439
0.004690315
5.955743E-4
-0.0018002549
0.001020721
5.2517786E-4
-0.0018504389
-8.787744E-4
1.8335262E-5
-2.906181E-4
0.0023287425
0.0043109255
0.002993192
0.003196474
0.0016290834
-0.0028538553
-0.0046070875
-0.004441409
-0.0028635098
-0.0015274435
-9.929396E-4
0.002094291
0.0031938858
0.001030234
-3.3329043E-4
-0.0021637296
-0.0039638276
-0.0044067022
-0.003364694
-0.0017671961
-2.5569924E-4
0.0036023145
0.0055758506
0.0023820542
4.1029567E-4
1.9555983E-4
-0.0012151409
-0.0016580541
-0.0013513213
-0.0011663001
8.883496E-4
0.004035508
0.0057144803
0.00463312
0.0014891849
-2.7392193E-4
-0.0010245701
-0.002690904
-0.003036348
-0.0021840108
-4.4382238E-4
0.0022499736
0.0034631428
0.0027604422
-3.5069135E-4
-0.002423979
-0.0013648617
-0.0034782174
-0.0055536204
-0.0028539363
-2.4239805E-4
0.003216602
0.006086666
0.0034284256
-9.207017E-6
-0.0012070196
-0.0031201483
-0.0048007704
-0.0042551337
-0.0028975017
4.566324E-4
0.0057213935
0.006380026
0.003014504
4.7469127E-4
-0.0026027549
-0.004332889
-0.0032482452
-0.0025587082
-9.0262934E-4
0.0017891153
0.0025507493
0.003602447
0.0045936955
0.0019010263
-6.764957E-4
-0.0014580191
-0.0033942224
-0.0034573772
-0.001002834
0.0012517335
0.003597606
0.0049480656
0.0039824685
-3.9184347E-4
-0.0049757296
-0.0048081963
-0.0037427633
-0.0033122136
-0.0012635168
7.512789E-4
0.0026807853
0.0037148017
0.0036299252
0.0023956934
-9.969971E-4
-0.0025015618
-0.0017581395
-0.001771108
-0.0019895893
-5.8539223E-4
0.0042181397
0.0066113807
0.0033189391
1.3509406E-4
-0.0027445036
-0.004512847
-0.0035728246
-0.003250108
-0.002393651
3.754952E-4
0.003332679
0.0045740595
0.0034493504
0.001430302
-0.0017192513
-0.0033654917
-0.0023057798
-0.003064244
-0.003917608
-0.0015700937
0.002656629
0.0062100273
0.0056335256
0.002415085
-7.634971E-4
-0.0039634365
-0.00573803
-0.0058317855
-0.0040079807
-3.1974426E-4
0.0030884175
0.005564393
0.0060080355
0.0034321165
3.2136584E-5
-0.0022367006
-0.003407413
-0.003673079
-0.0027857935
1.0304206E-4
0.0047130254
0.0074179205
0.0058206236
0.0015681147
-0.0024662497
-0.0035414463
-0.0033797608
-0.0040083756
-0.0024509993
1.1425501E-4
0.0015099435
0.0034106565
0.0036648633
8.292817E-4
-0.002318418
-0.0040890323
-0.004344347
-0.003974075
-0.0036421889
-0.0022990773
0.002008414
0.00666386
0.005800091
0.0012588009
-0.0017061922
-0.0029839966
-0.002980349
-0.0016820756
-9.1577385E-4
3.9128505E-4
0.0040786737
0.0055720108
0.0039495393
0.0027144765
-5.922905E-4
-0.0037627819
-0.0035883747
-0.0033767598
-0.002363032
-5.8655796E-4
0.0021114605
0.00609318
0.005827939
0.0021470662
-0.0014882738
-0.0042403694
-0.004774452
-0.0050410205
-0.0039837006
-0.0011630153
0.0024350705
0.006540027
0.0054810783
0.0016620588
2.6526488E-4
-0.0017389731
-0.003090889
-0.003419467
-0.0032803486
-3.9270194E-4
0.0031259262
0.0051001473
0.0044835513
0.0014449689
-0.0021622325
-0.003870557
-0.0035458389
-0.005271822
-0.00471557
5.723423E-4
0.0033465186
0.0051953285
0.0054091983
9.797832E-4
-0.0015015479
-0.0023419766
-0.004388969
-0.00459845