0.005717922
0.0021912004
-0.0054248516
-0.012890236
-0.017250748
-0.0163916
-0.015139913
-0.012874217
-0.009491832
-0.0041133882
0.0015044525
-7.068745E-4
-0.0028215908
-3.2002942E-4
-0.0011726817
-0.001594454
-5.5532226E-5
0.0019654583
0.005744694
0.008665484
0.01277338
0.015893208
0.014185537
0.011409362
0.007683253
0.003634681
8.6279586E-4
-0.0012235496
-0.0025180017
-0.0027623214
-3.227919E-5
2.4111262E-4
-0.005870227
-0.010603999
-0.011598425
-0.01029324
-0.007396794
-0.0050722496
-0.0030181103
-2.9939789E-4
0.004627126
0.006419648
0.0011261615
-0.004425535
-0.008665904
-0.009191168
-0.005335487
-0.0035066726
4.023575E-5
0.0049703564
0.0068035503
0.008819265
0.0080825
0.0047992
0.0039388016
0.0040089674
0.0042560063
0.0045779785
0.004939409
0.0055335658
0.007651482
0.010410417
0.005854991
-0.0024972132
-0.004841805
-0.005420161
-0.0066229654
-0.0050681746
-0.0017139375
0.0022138946
0.005382315
0.006487355
0.003587043
-0.0040495167
-0.009986114
-0.00998864
-0.009140884
-0.01038551
-0.009849422
-0.0053001335
0.0011345076
0.0041338834
-3.734184E-4
-0.0067963237
-0.008092862
-0.0067355568
-0.0059028897
-0.0036711637
6.876246E-4
0.0048993733
0.008661792
0.011397089
0.009470866
0.0046899817
0.0011875391
-3.8898014E-4
0.0012689533
0.0025860283
0.0011417327
0.0029516262
0.0077096005
0.010317178
0.00869963
0.0025669164
-0.0020096777
-0.0026275439
-0.0033113286
-0.0023102025
4.8435898E-4
0.0037582782
0.0072745965
0.004991356
-0.0017305649
-0.0064663
-0.009339504
-0.009117795
-0.008256988
-0.009602903
-0.008315795
-0.003242454
0.0035128614
0.0072701904
0.0044757267
4.9055106E-4
-0.0033194597
-0.0071454807
-0.0066812485
-0.004128607
-0.0018500554
0.0023274855
0.007008493
0.008335224
0.0058848825
0.0011303144
-0.004236967
-0.005368288
-0.0031488924
-0.002328609
2.559111E-4
0.0046726884
0.008041993
0.0105087
0.008853233
0.00290163
-0.0020949321
-0.0017585378
1.907404E-5
-0.0011579983
3.1546305E-4
1.819351E-4
-0.0032919156
0.0012803295
0.0044126743
-0.0017936032
-0.005639507
-0.006556066
-0.0067809327
-0.005228325
-0.0036387455
5.1975984E-4
0.005946704
0.0063397177
0.0012492043
-0.0028295687
-0.004262053
-0.0065384204
-0.005163411
-4.1588672E-4
2.3263403E-4
7.53026E-4
0.0058446266
0.010032546
0.008505474
0.004295267
0.0017645535
3.0382103E-4
8.7409324E-5
2.3854301E-4
-1.7762475E-4
0.0033031814
0.00814941
0.006992013
0.001018073
-0.0050235884
-0.0072177285
-0.005665863
-0.004726245
-0.0042482694
-0.0022915797
6.18282E-4
0.0049548526
0.0076394784
0.0042909323
-0.0022974946
-0.00744324
-0.00906797
-0.00793164
-0.006167276
-0.0035327186
-7.9523906E-4
0.0024496207
0.0061339433
0.0051021357
4.824622E-4
-0.003075036
-0.00501513
-0.0045742863
-0.003213377
-8.963867E-4
0.0028974118
0.005319569
0.0072052977
0.0075758793
0.0032408372
-0.0010158835
-2.779089E-4
8.786311E-4
-0.0010220248
-4.668273E-4
0.004326831
0.00933586
0.011605007
0.007589016
7.3479745E-4
-0.00303161
-0.0057951827
-0.008186572
-0.00831083
-0.0061358684
-0.0020486736
0.0026217562
0.005780101
0.0045916787
-8.4848504E-4
-0.006636711
-0.007981425
-0.0050995266
-0.004576001
-0.0048266407
-0.0011829531
0.00253735
0.004049907
0.0024125741
-0.0010382404
-0.0025700785
-0.003332142
-0.0022831708
7.942038E-4
0.0015856274
0.0010186955
0.0028388556
0.0062160646
0.0065714223
0.0035898574
6.112957E-4
-0.0014149199
-0.002247243
-0.0043612067
-0.0069774995
-0.004390312
0.0018492533
0.0066386005
0.0068020215
0.002679864
-0.0012807762
-0.0035432198
-0.003664189
-0.0022827347
-0.001372412
5.2922615E-4
0.0027293714
0.0032448724
0.0026614994
7.45842E-4
-0.0012263393
-8.1897987E-4
7.1337295E-4
-1.0830164E-4
-0.0020819432
-7.297E-4
0.0029863
0.005396041
0.005460148
0.0030960266
-5.0866E-5
-0.001501853
-0.0019360587
-0.0018785284
3.4923316E-5
0.0013972665
0.0020074947
0.0039021524
0.0021309282
-0.002657556
-0.0048945453
-0.0052972557
-0.0039727036
-0.0043922514
-0.0058883387
-0.001693896
0.0024577645
0.0036862197
0.0030936957
-0.0034801797
-0.00796733
-0.0070720464
-0.00699573
-0.004185688
-6.329724E-4
9.553734E-4
0.0047988966
0.0060534305
0.0045033814
0.006410091
0.006142084
0.0024196415
0.0039081625
0.007118891
0.0044689192
4.084168E-4
-0.0010887374
-0.002578868
-0.0040945727
-0.0035898285
-0.0020572087
-0.0017837983
-0.002455017
-0.0013788416
0.0015398007
0.0024258448
0.0029058543
0.0063930284
0.006010832
4.3869048E-4
-0.0013080837
6.642505E-4
0.0025303096
0.003632831
0.0018857379
-0.0010830958
-0.0018471177
-0.0016827649
-0.0037758998
-0.0065650395
-0.0073329154
-0.007615694
-0.006757763
-0.004975098
-0.0047815633
-0.0040454245
-0.0016506582
9.502713E-4
0.002062557
5.9758924E-4
-0.0014565907
-0.003148061
-0.0042935316
-0.0044984473
-0.0026563217
0.0021330582
0.0062276293
0.00916034
0.011456741
0.010236242
0.0075134076
0.004960352
0.0034108616
0.0033469382
0.0020114954
0.0031559377
0.0076691257
0.007995465
0.0042559467
0.001468151
-4.0899095E-4
-0.00439396
-0.0090346215
-0.009941627
-0.008697894
-0.0072200163
-0.0038337773
-3.1162825E-4
3.1360623E-4
-8.7632984E-4
-0.0024238206
-0.0036486904
-0.0023896801
-0.0010160524
-0.0019144214
-0.0010064505
0.0018272565
0.0034498058
0.0022255625
-0.0011979362
-0.0026249667
-0.0025895443
-0.0021851796
-0.0016728911
-0.004012635
-0.004193823
-3.3671598E-4
0.001043386
2.499046E-4
-0.00112642
-0.0027088895
-0.0028976088
-0.0019460445
-6.711373E-4
-4.9790076E-4
5.421184E-4
0.0031430216
0.0041671772
0.0050415685
0.004988914
0.0039688097
0.007205081
0.010801178
0.009672337
0.0077916277
0.007571775
0.008646478
0.009312711
0.0084477365
0.0073914924
0.003454339
-0.0036383295
-0.010400792
-0.016621118
-0.01644961
-0.010386079
-0.008905367
-0.00836971
-0.006510053
-0.007281236
-0.005142829
-0.0035117297
-0.0060316334
-0.0059886742
-0.0058171256
-0.006112074
-0.0016787968
0.0047358153
0.008294092
0.0073362896
0.0043071075
0.0029906484
0.0043041394
0.006063317
0.0059204223
0.005908403
0.0064897574
0.006524199
0.0060934434
0.002895628
1.7849967E-4
5.55495E-4
-8.507168E-4
-0.0029254598
-0.0031390293
-0.002626952
-9.261086E-4
0.0010755494
0.0023847336
0.0013841575
-0.0020811998
-0.0033587145
-0.0026497904
-0.0033120357
-0.0026675907
7.884926E-4
0.0034374709
0.0042145685
0.0037115773
0.0015188155
2.52603E-4
4.6445717E-4
-0.0010224932
-0.003822946
-0.0052770735
-0.0033988382
-4.4254062E-4
-7.157036E-5
-2.432945E-4
-0.0012158672
-0.0038816233
-0.004039359
-0.002257712
-0.0010610281
-5.8055035E-4
-9.0829324E-4
5.167928E-4
0.003206296
0.0038835884
0.0033303408
0.0022317811
0.0010486675
0.0012583788
0.0010065938
1.9678226E-4
0.0011113408
0.0010107205
5.040526E-4
0.0025968915
0.0023095189
-3.9027815E-4
-8.06773E-4
-7.732684E-4
-0.0012230352
-9.070453E-4
7.277548E-4
0.0011896214
-2.2484765E-4
0.001447509
0.0018613772
-0.0012557568
-0.0014505145
-0.0022196462
-0.0036164718
-0.002296927
-0.0011581745
-5.407686E-4
-0.003776425
-0.0066808965
-0.0024073946
9.598079E-4
0.0012178798
0.0017124007
0.0021426454
0.0018243357
-0.0018571847
-6.408881E-4
0.0055954666
0.0020749473
-0.003023259
4.294402E-4
0.0021887333
0.0011199034
0.0014889542
0.0022402657
0.0043679834
0.005498773
0.0045579355
0.0041707894
0.0025837426
0.0011617509
0.0021134147
0.0013259264
-0.002018947
-0.0054047937
-0.006889763
-0.0059776134
-0.004536373
-0.0023544135
-0.0012432771
-0.0020581395
-0.0017124083
-0.0019165855
-0.0022958138
-0.0018699208
-0.0029091393
-0.0018697735
9.572317E-4
0.0013594617
5.8879727E-4
-4.1400094E-4
-6.679847E-4
-2.4686795E-5
-1.4428153E-4
-2.476434E-4
0.0012794551
0.0034672932
0.004067502
0.0046574944
0.004697185
0.0021354312
0.0011357549
0.001441854
8.1426604E-4
4.5505905E-4
-9.19693E-4
-0.001010499
7.057044E-4
5.9101806E-4
-5.914658E-4
-0.0025095544
-0.004003102
-0.0028027077
-4.8357286E-4
2.9657385E-4
-8.9434686E-4
-0.001076084
2.0808967E-4
0.0011986775
0.0020259295
0.001295948
2.79648E-5
-1.9718576E-4
-0.0011954325
-0.0021361704
-0.0012444155
1.2331309E-4
-4.634226E-4
-0.0012856552
-5.4622954E-4
-8.291184E-4
-2.7533717E-4
0.0011861544
1.5970254E-4
9.1587077E-4
0.0031751783
0.0025990834
0.0022895243
0.0022222844
3.96219E-4
-6.146163E-4
7.1968716E-5
4.865245E-4
4.147637E-4
5.777696E-4
-7.815808E-4
-0.0014305777
0.0012820668
0.0017107935
-0.0012224567
-0.0030978003
-0.0035034716
-0.0028835451
-0.002639334
-0.0026991516
-0.0025581487
-0.0034111761
-0.0025778573
1.3952015E-4
0.0013159493
0.0013710392
6.667218E-4
-2.4915132E-4
0.0010258481
0.0027476985
0.0019328895
0.0019696401
0.004191356
0.0042744065
0.004106912
0.0038006557
-0.0015407922
-0.005918467
-0.0025668868
0.0029458138
0.004549865
0.00490295
0.0053618937
0.002514501
4.6640952E-4
4.0846312E-4
-0.0023153364
-0.0045413855
-0.0056317253
-0.0052223033
-0.0021007475
6.353552E-4
0.003346961
0.003699977
0.006255901
0.007612253
-0.008431534
-0.018158244
-0.0065173116
-0.0017876982
-0.0027248198
1.4806187E-4
7.659161E-5
0.0014456015
0.001171288
-0.001877524
-0.0014443308
-7.701169E-4
-0.001433227
-0.0028608846
-0.002864717
2.9085344E-4
0.0027029552
0.0040069656
0.0054326886
0.0056506535
0.005019872
0.0050072577
0.0036305576
0.0018144938
0.0047628414
0.0067062513
0.0039028907
0.0023461538
5.6465156E-4
-0.0012862638
-6.4604427E-4
-2.1702786E-4
-2.8799052E-4
-1.9450978E-4
-0.0010838357
-0.004213112
-0.005821755
-0.005428298
-0.009123026
-0.012026533
-0.010574669
-0.008190148
-0.0038408567
-5.5870827E-4
7.9868967E-4
0.0023867632
0.0045563756
0.0071978457
0.0051869215
0.0017630975
7.761629E-4
-2.4630385E-4
0.002225083
0.0026410532
1.0093051E-4
0.003186467
0.0048312647
0.0039086062
0.0051639625
0.0034471687
4.8350327E-4
4.5566127E-4
0.0021623417
0.0029243983
0.0013786494
-3.6268047E-4
-0.0016269338
-0.0029409293
-0.0042409734
-0.003934416
-0.0017571426
-4.4243524E-4
5.3768545E-5
-0.002348828
-0.0054321503
-0.0020009698
0.0038934827
0.007226748
0.003347636
-0.009045442
-0.014594699
-0.008888362
-0.0022369858
0.0038447813
0.008043686
0.0074779415
0.0055669
0.006524791
0.007974185
0.0068627056
0.006433475
0.0054365443
7.52883E-4
-0.003548261
-0.00564113
-0.0076433085
-0.008193105
-0.0055754296
-0.00566653
-0.011083126
-0.014509894
-0.012446418
-0.0027283917
0.010215931
0.014255693
0.012668287
0.008267633
-0.0028377897
-0.009990175
-0.008837857
-0.006273545
-0.0032224844
-9.7380124E-4
0.004437451
0.014480993
0.015294515
0.010695801
0.015698364
0.016071852
0.005451957
9.839446E-4
-0.0027562007
-0.0130374
-0.01666327
-0.010764536
-0.0050443457
-0.005822143
-0.0080829365
-0.007029747
-0.00983672
-0.016058316
-0.01607988
-0.009181164
-8.232142E-4
0.008406021
0.017867943
0.020883083
0.02032174
0.020316612
0.013877973
0.0043771314
-8.389824E-5
-0.003156456
-0.01111766
-0.017304026
-0.008671356
0.0040668235
0.00684542
0.00648774
0.0050658924
0.003461088
0.00373673
0.0016265373
-0.00124808
-0.0067766756
-0.016114162
-0.023169074
-0.026141012
-0.020982586
-0.011120984
-0.0076180585
-0.006429579
-0.001602924
0.0024038937
0.0052617025
0.013012177
0.022872893
0.024029268
0.017206924
0.010921601
0.0067697843
0.0034947596
0.0035260357
0.008872053
0.013511134
0.013002735
0.012760212
0.015228826
0.013148098
0.0011549515
-0.011163133
-0.015985817
-0.01705809
-0.010859637
-7.405655E-4
0.0020687517
-0.003986848
-0.019315168
-0.028466795
-0.021606958
-0.017963205
-0.018649483
-0.016139304
-0.014981333
-0.013782264
-0.016926013
-0.022842776
-0.021277571
-0.012094827
-8.068798E-4
0.0073942314
0.014510739
0.009612199
-0.006812068
5.486711E-4
0.020699468
0.023369394
0.023425747
0.024729049
0.024891065
0.023265883
0.009002724
-0.0037053504
-0.0040510893
-2.2650421E-4
0.0011018168
-0.005014769
-0.00538899
0.0048887036
0.009580336
0.005869533
-0.01079801
-0.04543649
-0.06524848
-0.04377667
-0.01898883
-0.018013312
-0.013252115
-5.2158756E-4
0.009170724
0.022248749
0.033017542
0.035575483
0.031067684
0.023863727
0.018302789
0.012248319
0.013613634
0.02183272
0.026211428
0.027710082
0.02397287
0.021408347
0.028017933
0.032944705
0.036759317
0.046286717
0.05382749
0.054671288
0.048412267
0.027439138
-3.534329E-4
-0.015163746
-0.03320256
-0.06701862
-0.086289085
-0.08555399
-0.09166987
-0.110183276
-0.11574934
-0.08646614
-0.047926128
-0.037447613
-0.05032287
-0.06431756
-0.07340588
-0.08316927
-0.09883462
-0.11912857
-0.117966354
-0.07693306
-0.021760203
0.027079862
0.07298424
0.11017574
0.12630533
0.13720465
0.15034653
0.13272321
0.13068737
0.20151888
0.25900993
0.2402039
0.18724312
0.16129532
0.17639507
0.15633589
0.09250023
0.027708488
-0.08238536
-0.18535152
-0.16672422
-0.07042915
0.028170247
0.089160055
0.04880334
-0.04137305
-0.1096524
-0.2448206
-0.3889142
-0.37030703
-0.2877603
-0.23376256
-0.13475798
-0.021085232
0.042102467
0.03253274
-0.035471004
-0.06941634
-0.015174531
0.075709134
0.11249134
0.073164485
-0.012886705
-0.10817836
-0.103227235
-0.019611787
-0.015303
-0.020505745
0.07579049
0.18171142
0.24538223
0.24108613
0.11998851
0.0060560773
-0.005567221
-0.033074155
-0.0925772
-0.06578674
0.052272994
0.1745479
0.2096129
0.18834895
0.24810018
0.349349
0.3332917
0.22224511
0.1468532
0.057274297
-0.16984063
-0.3686057
-0.33111972
-0.17204407
-0.04313164
-0.0023822745
-0.07069999
-0.13803342
-0.16856067
-0.22209826
-0.26534748
-0.2918333
-0.28941622
-0.227772
-0.14695331
-0.064091824
-0.07074323
-0.1636611
-0.10997623
0.04177767
0.106834926
0.17081125
0.25559035
0.28684083
0.26482117
0.22745682
0.22878188
0.18823089
0.07406308
0.019082554
0.003461892
-0.013382513
0.015951514
0.03264635
0.020020604
0.01829777
-0.0071175126
-0.04508254
-0.04370803
-0.015471579
-0.010552629
-0.04181577
-0.06466844
-0.06166286
-0.05595533
-0.043834787
-0.022521757
-0.0029387923
0.013445505
0.018160561
0.014175903
0.009123649
0.0023787913
0.0057050977
0.012007604
0.0057242974
-0.006804757
-0.020144219
-0.027966922
-0.03744104
-0.0533941
-0.053138517
-0.041400366
-0.035936125
-0.030446706
-0.021705264
-0.0071439515
0.012762854
0.030684082
0.042409524
0.044195775
0.040430788
0.03424686
0.027582068
0.02181803
0.0104073975
0.0059115975
0.010531581
0.0032281943
-0.0029460676
0.002304365
-3.3186906E-4
-0.010127542
-0.015241422
-0.013726131
-0.011382126
-0.010328685
-0.005389425
-8.33147E-4
0.0045779697
0.011386273
0.008606836
0.0038495946
0.0050383084
0.0032993455
-9.0544764E-4
-0.0020110568
-0.0010483396
9.564371E-4
0.0034898166
0.003975396
0.0028971322
0.0040309764
0.006679537
0.008567317
0.009398398
0.009162813
0.008810573
0.0077545014
0.006356003
0.0059588347
0.0036753917
-1.8877531E-6
-2.9822864E-4
0.0016902285
0.0035342881
0.0064843046
0.010299496
0.011330089
0.008559757
0.0063682445
-9.374913E-5
-0.015414781
-0.026314007
-0.029904328
-0.029369816
-0.0181216
-0.0061845556
-0.0022929208
-0.002567798
-0.006628339
-0.01031418
-0.016536122
-0.019117858
-0.0051826155
0.0060946536
0.0034257611
4.718228E-4
0.002914385
0.007791035
0.006273153
0.0028206464
0.00378398
0.0010447558
0.0016478891
0.009067029
0.013772227
0.01727882
0.01841797
0.015126685
0.010103785
0.0059941355
0.006170496
0.0055158995
0.0033667807
0.005071103
0.0059778886
0.00576227
0.0064324355
0.002833979
-0.0026658054
-0.007253067
-0.014937359
-0.020349793
-0.016832938
-0.011060776
-0.008205451
-0.0054981657
-0.0030313875
-0.0039235633
-0.0069421073
-0.008038155
-0.008618027
-0.009719203
-0.008165261
-0.0061316635
-0.00524102
-0.0018582651
0.0031295263
0.0048810025
0.003241314
0.0034253844
0.0060324417
0.0069830334
0.0077079027
0.010833557
0.013948498
0.015329128
0.015249165
0.012655164
0.008545833
0.0052439673
0.0025017364
0.0014887123
9.1861206E-4
-0.0013368241
-7.769338E-4
0.0027507627
0.005819744
0.0056859325
-0.0013806064
-0.009074157
-0.012116466
-0.013350137
-0.013598492
-0.014175457
-0.011993814
-0.005719486
-9.5238397E-4
0.001423871
7.0590957E-4
-0.0013756995
-0.0014386628
-0.0016816299
-3.3529088E-4
0.0019563108
0.0018851161
0.0033155852
0.006053696
0.0072775767
0.0075174477
0.006744066
0.0062199603
0.005526809
0.0031309272
7.445098E-4
-2.16356E-4
6.094332E-4
0.003475025
0.005073645
0.002307947
-4.867106E-4
-5.502487E-4
-0.0013946177
-0.0030826218
-0.003942397
-0.0030831126
-3.109326E-4
0.0016533104
0.0010432942
-0.0028131418
-0.006329482
-0.0053310404
-0.004010688
-0.0034386192
-0.0019819718
-0.001567405
-3.7698247E-4
0.001596642
0.0023958036
0.0013139026
-0.0014957262
-0.0014995635
7.935272E-5
-5.7060963E-5
7.1705534E-4
0.0017652734
0.0033484835
0.005489868
0.005375075
0.003443848
-4.4643966E-4
-0.0032351164
-0.0026786667
-0.0017435836
4.7440684E-4
0.0017379909
0.0015511281
0.00434082
0.004958097
7.550083E-4
-0.0036006195
-0.005177878
-0.0037163903
-0.004118325
-0.004806436
-0.002148008
-5.7032914E-4
7.4507913E-4
0.0015032938
-3.8039158E-4
-0.0010380311
-0.0016877886
-0.0021631753
1.211021E-4
0.001805779
0.0031074577
0.005411618
0.0068333093
0.0064710793
0.0031622543
-0.0014278172
-0.0035231402
-0.0034783934
-0.003515487
-0.0030609297
-0.0017513912
-2.3031756E-4
0.0022619036
0.0031192165
9.4184803E-4
-4.2331463E-5
-3.800694E-4
-0.0019172349
-0.0016557274
1.8067783E-4
0.001062742
0.002351715
0.004313576
0.0036729346
7.189767E-4
-0.0020016052
-0.0027895574
-0.0012501967
-0.0012215025
-0.0021776094
-2.6920324E-4
0.0027068162
0.0047590015
0.0040463046
0.0010640016
-0.0014636741
-0.004227301
-0.0052205315
-0.0024965338
-5.31501E-6
-0.0017123747
-0.0034788705
1.7702896E-5
0.0021916789
0.0010605685
3.2781257E-4
-0.0029790807
-0.004544758
-0.0029565725
-0.0024016395
-6.2630797E-4
6.7740836E-4
0.002452697
0.0042895447
0.0015511847
-7.1379106E-4
-9.989903E-4
-0.0014693391
-0.0015991487
-0.0010485854
0.0016113068
0.0026268892
0.0034068138
0.0050035254
0.001880811
2.425659E-4
0.0011580016
-8.61032E-4
-0.0016522147
-4.7530455E-4
0.0018659263
0.0045182738
0.005464674
0.0051495726
0.0018514133
-0.0017343755
-0.0033083719
-0.005133924
-0.0049891034
-0.0022234966
1.7354693E-4
4.991296E-4
0.0011216219
0.0033894076
0.0025190806
-8.825728E-4
-0.0025314656
-0.0021649988
-7.810568E-4
-5.5490114E-4
-3.9587292E-4
0.001311673
0.00340068
0.0035274436
-7.488244E-4
-0.0044528088
-0.0049477816
-0.0054545617
-0.0029860241
9.756623E-4
0.0016528189
0.0016810152
0.0021376738
0.0015376806
1.3149466E-4
-9.629372E-4
-0.0014368179
-0.0018934997
-0.0019003679
-0.0015224103
7.0415765E-5
0.0019230345
0.0017700184
0.0023116774
0.0019911684
-0.00137304
-0.0021155076
-5.2247365E-4
5.246023E-4
0.0024940309
0.0040000463
0.00459093
0.005045399
0.0049922834
0.003662378
4.679236E-4
-7.481985E-4
4.3069824E-5
-0.0014942668
-0.002318088
-6.3517725E-4
7.107612E-4
0.0022660994
0.0034857136
0.001476955
-0.003241336
-0.006154224
-0.005624199
-0.004066151
-0.0023045675
-0.0022362797
-0.0031180002
-0.0014378963
-0.0011012
-0.0028812578
-0.0026085738
-0.0022668522
-0.0017876213
-5.722274E-4
9.859751E-5
0.002293509
0.0039070537
0.0039368416
0.0044191787
0.0023829374
3.680171E-4
0.0013424441
9.517509E-4
8.8446843E-4
0.0024136954
0.00243169
0.002984575
0.0039779055
0.0029319113
8.626589E-4
-0.0013666151
-0.0027557747
-0.0024399713
-0.0014427563
-9.684277E-4
-9.760537E-4
-4.9148477E-4
3.1669112E-4
3.062136E-4
-0.0011446667
-0.0034692094
-0.004630614
-0.0035785893
-0.002178196
-0.0013000668
4.495476E-4
0.0011505749
8.024447E-4
0.0023050006
0.0016862034
-6.641181E-4
-1.7466262E-4
-6.450095E-4
-0.0012302607
4.7093525E-4
9.909762E-4
0.0016441857
0.0030039565
0.0036122852
0.0028411583
5.65732E-5
-9.607852E-4
-2.8001302E-4
-5.066537E-4
-1.0940324E-4
4.5599334E-4
0.0014401958
0.0028800122
0.0030506873
0.0020745976
-6.97457E-4
-0.0030179108
-0.0021620158
-0.0015307972
-0.0033728157
-0.0041770656
-0.001773318
3.8959342E-4
5.7005073E-4
-8.382741E-4
-0.0037311795
-0.0038995212
-0.002904975
-0.004118851
-0.002142489
8.037494E-4
0.001067015
0.004083134
0.0068817725
0.004700118
0.002380055
0.0018221844
6.665224E-5
-0.0015207547
-3.154056E-4
9.982389E-4
0.0021041224
0.0048092473
0.0049852207
0.0018183186
-6.041528E-4
-0.001366521
-0.0013921505
-0.0018398013
-0.0021464329
-0.001985219
-0.0015020323
5.362663E-4
0.0017780436
7.1647635E-4
-0.0016578276
-0.004936658
-0.003989598
1.9038889E-4
7.2040106E-4
4.6061966E-4
9.1125414E-4
0.0010351047
0.003088397
0.0027304355
-5.772545E-4
-8.43541E-4
-3.966269E-5
-0.0015278553
-0.0018648034
5.37974E-4
8.9280884E-4
1.4595239E-4
0.0025735586
0.0022283895
-0.0019903553
-0.0032528779
-0.0022672445
-0.0011335068
-0.0010465062
-0.0019177714
-3.6915156E-4
0.001623443
0.0021560898
0.0028437003
0.001484628
-0.0016784116
-0.0019286117
-2.1508496E-4
2.4310475E-4
0.0013878556
0.002867158
0.0032487866
0.0036464322
0.0020984754
-3.6979298E-4
-0.001385332
-0.0019668287
-0.0021524618
-0.0025077949
-2.3258264E-4
0.0034410243
0.0030459468
0.001543913
-0.0012858058
-0.0034350755
-0.0027174414
-0.00690175
-0.008231058
-0.0015404308
0.0010936193
0.0018511171
0.0061918315
0.0085825855
0.0050419015
0.0012150593
0.0012836083
2.6627988E-5
7.4779365E-4
6.577951E-4
-0.0038178605
0.0014080505
0.0075996234
0.005523712
0.003921105
-0.004873191
-0.010645337
-0.002994691
-0.0020620967
-0.006095423
-0.0041015623
-7.465297E-4
0.0021879487
0.0020512994
2.2808216E-4
-5.893923E-4
-0.0021026195
-0.0020188384
-0.0011362974
-7.3303113E-4
7.9711876E-4
0.0013958127
0.0023108514
0.0043353518
0.0026094608
-5.230194E-4
-2.1201288E-4
-4.5960437E-4
-0.0021503274
-0.0012541128
3.9368778E-4
7.557593E-4
0.001346551
0.0023672245
0.0018191488
-0.0012600488
-0.0033917457
-0.0036700885
-0.004585114
-0.0038483662
-0.0010348671
7.4445887E-4
0.0027189204
0.004760029
0.003695597
0.00235261
0.0041826796
0.005666097
0.005862162
0.006060633
0.0037094094
4.0224602E-4
-0.0012820462
-0.0029627448
-0.0044343695
-0.0046526543
-0.0029448355
-5.782421E-4
-9.5014623E-4
-0.0025154662
-0.002406504
-0.0011876168
2.7485954E-4
1.2172348E-4
-0.0021931175
-0.0040939595
-0.0038322597
-0.002861965
-0.0039651864
-0.004863786
-0.0019626399
0.00213871
0.004468246
0.004857098
0.004015533
0.002843805
9.1530295E-4
-2.6981407E-4
8.2703284E-4
0.0015282766
0.0010236336
0.0015164532
0.0025746217
0.0022717975
6.978709E-4
-0.0013321458
-0.0030580985
-0.003349356
-0.0029800353
-0.0021335934
1.08859786E-4
0.0019694765
0.0026841376
0.0026030587
0.00216592
0.0024303456
0.0015722741
-1.3616766E-4
-0.0012614084
-0.002467758
-0.0017819126
1.9468284E-4
0.0018665431
0.003673305
0.0027299284
3.0395418E-4
-3.6451116E-4
-7.3188735E-4
-0.0012176562
-0.0018904681
-0.0022646873
-0.0012038567
-1.6852572E-4
-2.8777935E-5
-6.711564E-5
-5.515355E-4
-0.0017807508
-0.0021640433
-0.0015752924
-0.0016026046
-0.0016371248
-4.37362E-4
0.0024303196
0.0046148603
0.004184385
0.0029077926
0.0011392303
7.9866307E-4
0.0014323334
-4.24496E-5
1.8480107E-4
0.0010590083
1.0136769E-4
0.0013393428
0.0020794813
-9.167668E-4
-0.0052331407
-0.0065593426
-0.0036086624
-0.0024236578
-0.0035772808
-0.0032195481
-0.0015533635
0.0016019297
0.0037988618
0.0015689993
-0.0017571633
-0.0016372942
-0.0022320498
-0.001469064
0.0037453896
-0.001655601
-0.006449232
0.006913323
0.01278942
0.010531319
0.014217955
0.008887241
0.0018190194
7.68192E-4
-0.0010081982
0.0010156627
6.2872993E-4
-0.00342056
-0.005487825
-0.0079026865
-0.0065453066
-0.0049293633
-0.005482662
-0.0027747876
-0.0020594439
-0.0036792948
-0.0038937703
-0.0028577405
2.236773E-4
4.8336896E-4
-0.0015500303
-6.15993E-4
-2.3193708E-4
-0.0015022696
-0.0010647093
7.45773E-4
0.0029839184
0.0045590275
0.004616138
0.0046553514
0.0037488802
0.0010018637
2.501519E-4
0.0012659379
0.0015855588
0.001617998
0.0010105175
0.0010588717
0.001990425
8.050988E-4
-0.0027316052
-0.0038600615
-0.0018091159
-0.002526102
-0.0025518497
0.0011840307
0.0019094277
0.0018544408
0.0019029483
-8.4289367E-4
-0.0020827795
-0.0023747226
-0.0020130961
-0.0010484873
-0.002050858
-5.58324E-4
0.0025546346
0.0023804754
7.914517E-4
-9.906325E-4
-0.0022235962
-0.0012466054
1.00045945E-4
-0.0010368808
-0.0020384807
-4.558722E-5
0.002589045
0.004907075
0.005108301
0.0025395772
1.4002727E-4
-0.0010326386
-2.4271173E-4
-3.1511314E-4
-0.0019418851
-0.0015297155
-1.1851408E-4
0.0022961705
0.0031675925
0.0010265545
-4.2753432E-5
-0.0010872913
-0.0018004067
-0.0032712056
-0.0029452778
0.0026036953
7.942239E-4
-0.0032927692
-0.0011950743
-0.00528148
-0.005280794
0.0027626366
0.0027129643
8.361114E-4
9.142659E-4
2.2436203E-5
0.0016516758
0.0020806757
0.0012024171
8.9600554E-4
-5.360149E-5
-7.329907E-4
-9.577981E-4
-5.789498E-5
2.6724041E-5
2.3034768E-4
0.0036150392
0.0054627317
0.0041585285
0.0019136647
-0.0014107489
-0.0033666468
-0.002498694
-6.9570186E-4
9.5293646E-5
-5.5937393E-4
-0.0013271116
-1.2399358E-4
0.0020466729
7.6536404E-4
-0.0015710052
-0.0015686803
-0.0037345216
-0.0060953624
-0.004042764
-0.0018108921
-6.4665085E-4
0.0019233702
0.0039061636
0.0034163685
0.0026965055
0.002434525
2.2872369E-4
-0.0018191136
-0.0027421117
-0.0038937416
-1.3581941E-5
0.0053971685
0.005132023
0.005691063
0.0057031517
0.002245411
0.0035472324
0.005103679
8.6740556E-4
-0.0033914233
-0.003769331
-4.216883E-4
0.001210141
-9.963275E-4
-0.0034585407
-0.005181754
-0.0043660225
-0.0032004092
-0.0022355583
2.3754615E-4
1.4529358E-4
9.504943E-4
0.0028856415
4.29808E-4
-0.0014121996
-0.0023968352
-0.0029623508
-7.2804186E-4
-0.001016762
-0.001693962
0.001138103
0.0035715348
0.002901152
2.0881385E-5
-0.0010240126
-9.81538E-4
-0.0019643013
-0.0017908065
-8.283221E-4
5.514607E-4
0.0019039956
0.00346881
0.0049118446
0.00294167
6.047593E-4
8.065877E-6
-4.757277E-4
7.2604243E-4
0.0015154341
0.0015489911
0.0021786063
0.002295918
0.003488603
0.0020261141
-0.0032114629
-0.004686099
-0.003611742
-0.0034733578
-0.0024917417
-0.001001498
9.95294E-4
0.0023418022
0.0029053537
0.0036443782
0.0026434346
0.0027820347
-0.0016766243
-0.014140659
-0.011397958
0.0027131557
0.0037060059
0.0037045684
0.0057497225
0.002158347
0.0010064067
-0.0024641585
-0.0031503001
7.7291625E-4
-5.4010533E-4
0.0036053488
0.0010611735
-0.008562964
0.0011660507
0.0016885162
-0.011799272
-0.0014355462
0.0072176694
-0.006064725
-0.00963633
0.0014297243
0.007924836
0.0075458325
0.0071345204
0.005974291
0.0036759486
0.0030343593
0.0017385022
6.197291E-4
8.1604783E-4
1.7158751E-4
2.324999E-4
6.0753356E-4
5.5191154E-4
-3.841641E-5
-0.0019973228
-0.0026207464
-0.0020717368
-0.0015277846