-0.004727864
-0.005409255
-0.002962104
-0.0019978147
-4.882953E-4
0.003738965
0.006218936
0.0046766982
8.386323E-4
-0.0028497681
-0.0045385747
-0.00475527
-0.003945287
-0.0030838703
-0.0016631486
0.0045809182
0.010087187
0.006933633
0.0023289023
1.9367109E-4
-0.0027814864
-0.0036888525
-0.0023052061
-0.0012211438
1.8457386E-4
0.0026007553
0.005929288
0.006797592
0.002454149
-0.0025504369
-0.0041899127
-0.0052413223
-0.0059671323
-0.0038858738
-6.380642E-4
0.0038669284
0.007805003
0.0067847967
0.0035568227
-5.803414E-4
-0.0048227212
-0.0046354025
-0.0020273137
-1.8337267E-4
8.620696E-4
0.0019752702
0.004797517
0.0062354635
0.002680545
-0.002940037
-0.0055223196
-0.0057306266
-0.0064974697
-0.005918598
-0.0036042386
-4.4882906E-4
0.003448485
0.0039585913
-9.6544885E-4
-0.0057207337
-0.00526083
-0.0036684966
-0.002543171
-5.6919776E-4
-0.002269639
-0.0016234061
6.4973463E-4
-0.003865031
0.0016513705
0.0147520425
0.013683127
0.009121267
0.0071427715
0.0020908436
5.1033654E-4
0.0023338604
0.0046539903
0.004944922
0.0011362871
-0.0028173428
-0.0057132314
-0.0061395275
-0.0047052703
-0.004663365
-0.003947625
-7.6443364E-4
0.003310385
0.0035790305
-7.258153E-4
-0.0045588515
-0.005932342
-0.0051389122
-0.0052946894
-0.0051248902
-0.0010403309
0.0017766602
0.0038694043
0.005904266
0.002305942
-0.0018897775
-0.0028554734
-0.0025943131
-9.181565E-4
5.380111E-4
0.0022038906
0.0034862438
0.004236254
0.0058067995
0.004207264
2.689771E-4
-0.0025830965
-0.0043554334
-0.0042670723
-0.0039081313
-0.0023586047
1.2247797E-4
0.0014718536
0.0042941603
0.004183738
3.6917536E-5
-0.0014027994
-0.0028670698
-0.003916627
-0.0013705812
5.0305837E-4
0.0020658895
0.004003843
0.004805439
0.0049080793
0.0024298066
-0.0012708965
-0.0030487778
-0.0037445512
-0.003902075
-0.0027958737
-3.8464618E-4
0.0017066638
0.0029584477
0.002235397
-0.0019691973
-0.0034007712
-0.0011454476
-0.002171104
-0.0027408325
-0.0012047854
-0.0014196075
7.9543286E-5
0.0021036013
0.0024713785
0.0020333761
-0.0014565593
-0.0031726023
-0.0018676599
-0.0015386082
0.0014086432
0.0045898855
0.00541812
0.0061491244
0.0040138303
8.4108504E-4
-0.0021239324
-0.005208514
-0.004463252
-0.0026760711
-0.0013200039
0.0016765672
0.003972972
0.0041610994
0.0015039428
-9.043767E-4
-0.0012213058
-0.0031444079
-0.004494954
-0.0032467202
-0.0017363855
1.3905519E-4
0.0022217324
0.0027819348
7.2799856E-4
-0.0018006482
-0.0025998724
-0.0021705395
-0.0014321087
-0.0011873551
-4.0927972E-4
6.374656E-4
0.002284724
0.0045068334
0.003231163
0.0019584144
0.0020956942
-0.0010467481
-0.002911191
-0.0026925174
-0.0024768845
1.016301E-5
0.002768807
0.0051977066
0.004906675
6.6804653E-4
-0.002841036
-0.004780959
-0.003506676
-8.54517E-4
-0.0010448805
-2.7999247E-4
0.0024076714
0.004565307
0.0041737463
8.814119E-4
-0.0015771074
-0.002943335
-0.0029443533
-0.0016203745
-0.0018816087
-0.0013161175
9.786446E-4
0.0020340644
0.0017286041
-1.233333E-4
-0.003129422
-0.004173999
-0.0024451495
-0.0011165915
-4.4201274E-4
6.714892E-5
-2.67114E-4
0.0014960513
0.0033033998
0.0020350453
0.0012514184
0.0013667735
0.0015934745
8.569552E-4
-0.0010228797
3.701928E-4
0.0031064376
0.0033393817
0.002076146
-6.084534E-4
-0.002883398
-0.0031949596
-0.0029885012
-0.0031491586
-0.0024538236
-1.6368456E-4
0.0011196574
0.0013484554
0.0017444604
4.4562455E-4
-0.0013788008
-0.0015808347
-8.6038484E-4
-2.4630068E-4
-3.5181106E-4
-4.6173678E-4
9.7106677E-4
0.002875553
0.0023284839
9.1759954E-4
-2.6075367E-4
-0.0019292184
-4.3836975E-4
5.178043E-4
-0.0015636408
7.783336E-4
0.0042059785
0.005007224
0.004854366
8.9309487E-4
-0.001888606
-0.002423161
-0.004618983
-0.0035961156
-0.0014636875
-0.001162147
4.030881E-4
0.001785066
0.0021238604
1.3430431E-4
-0.0030640005
-0.0038405384
-0.0041136313
-0.003405111
-0.001461231
-1.4688227E-4
0.002589686
0.004940976
0.004672747
0.0033197722
0.0013023305
4.8528556E-4
0.0010316803
2.9349804E-4
-0.0011677479
-1.8708022E-4
0.0025990808
0.0026736727
0.0011238582
-1.238356E-5
-0.003125451
-0.005316005
-0.0033091453
-6.767765E-5
9.761706E-4
1.752592E-4
9.32422E-4
0.0023846768
0.0026500626
0.0020952406
-1.7475762E-4
-9.415219E-4
-3.5149907E-4
-0.0025226716
-0.0043400265
-0.003267359
1.417815E-4
0.0027488729
0.0018604049
8.8637695E-4
-0.0013750608
-0.004072199
-0.00281159
-0.002369407
-0.0030722008
-0.0020199956
-5.403736E-4
0.0022836032
0.004138263
0.0035919964
0.0021060002
6.734518E-4
0.0012585017
7.1856094E-4
-0.0014275241
-8.69581E-4
0.0019238784
0.004597965
0.0041538575
0.0021299978
0.0020596196
0.0017379359
9.026138E-4
6.044029E-4
2.375742E-4
-0.0015641712
-0.003940238
-0.002033142
2.1511679E-4
-0.0018905244
-0.003297995
-0.003383974
-0.003657282
-0.003540127
-0.0027419694
-1.7161247E-4
0.0022500802
0.0035096225
0.0031121676
4.8289087E-4
-0.0017232453
-0.0027012064
-0.0025258109
-0.0023312732
-0.0023506202
-0.0016549716
-0.0012482471
0.0028794638
0.0067755105
0.0031733862
7.752972E-4
-1.0643708E-4
-0.002363631
3.7920615E-4
0.0020350353
8.7946915E-4
0.002623688
0.003059309
0.0021241645
0.0011105818
-0.0018041352
-0.0044029243
-0.0046514864
-0.0022606351
-9.349596E-5
0.001114554
0.003168529
0.0035577016
0.0030454714
0.002625582
-5.4672617E-4
-0.0039114743
-0.0035073417
-8.762254E-4
-4.9956347E-4
-0.0016041675
4.0029248E-4
0.0028909314
0.0026340745
4.431925E-4
-0.0027067035
-0.0035920572
-0.003187086
-0.003583899
-0.0021294854
4.3669075E-4
0.0026768816
0.004232172
0.0043528453
0.0030818926
-0.0010802005
-0.004170532
-0.0034882782
-0.003984872
-0.0027414502
0.0016771144
0.0035569167
0.005149473
0.006675869
0.0037845185
-0.0010132282
-0.0041107433
-0.0046275575
-0.0034592443
-0.00211957
-1.4252881E-5
0.0024810992
0.0041374047
0.004461076
0.0018471426
-0.0018567495
-0.0026616456
-0.0025547657
-0.0028584553
-0.0015756476
8.4303574E-5
0.0024083832
0.005199629
0.004756799
9.220367E-4
-0.0036464166
-0.004737389
-0.003244074
-0.0038814319
-0.0028859184
-1.072374E-4
0.0016227284
0.0048536863
0.005222294
0.0024252406
0.0012542049
-4.9850345E-4
-0.0018687175
-0.0029936987
-0.0037212865
-4.2047897E-5
0.0042762663
0.006488724
0.0066160215
0.003043854
-0.0010663603
-0.0029716766
-0.002771742
-0.0023101552
-0.00253754
-0.0010612602
0.0010119849
0.0014632602
3.4260712E-4
-0.0019249074
-0.0035678488
-0.0033330256
-0.0015829165
-0.0016009781
-0.0034335004
-0.0014753365
0.0035101129
0.0066627325
0.00606045
0.0016171234
-0.0037601248
-0.00654823
-0.0056340736
-0.002740859
6.947965E-4
0.0038547025
0.0051919734
0.0062226136
0.0070829852
0.0049900874
1.4601697E-4
-0.0048324647
-0.0071745347
-0.007585995
-0.0064112297
-0.0026943996
0.0015021366
0.006291173
0.008275556
0.0041744243
-3.062825E-4
-0.003162183
-0.0028487765
5.6678645E-4
9.5734454E-4
0.002070383
0.005799346
0.0067799278
0.006707978
0.0035671794
-0.0040298053
-0.0083386805
-0.007889947
-0.0056204223
-0.0027319514
-0.0013958953
5.248444E-4
0.00402811
0.003668992
5.3535006E-4
-0.0010519666
-0.003779979
-0.0059943805
-0.00446319
-0.0029105728
-0.0011248039
0.0020150756
0.0041170954
0.005986298
0.0049851625
-0.001075257
-0.004251742
-0.0015629225
-4.94741E-5
-8.0297544E-4
-1.16239215E-4
0.002441454
0.00590499
0.0072487816
0.004749208
4.1116873E-4
-0.0031873828
-0.003328982
-0.0025285217
-0.0031592308
-0.0013670042
8.5494167E-4
0.001492117
0.0036026437
0.0034233101
-3.2709344E-4
-0.002338689
-0.0020997028
-0.0016238115
-0.001668276
-0.0010908733
3.4193957E-4
9.807227E-4
0.0019243257
0.0012953375
-0.0012748062
-0.0011068312
-0.0021047222
-0.0031925938
-7.4186997E-4
-0.0049180975
-0.0071633887
0.0034968941
0.008425399
0.0042693024
0.0012795269
-0.0017903461
-0.0011092303
0.0012221123
2.5371698E-4
-2.1790307E-4
3.161878E-4
0.0023279812
0.004297695
0.0040750294
0.0015197167
-0.00317823
-0.0041018925
-0.0030864167
-0.0026394376
6.7944283E-4
0.0011251945
9.3824515E-4
0.002798971
1.744111E-4
-0.001858848
-0.0025290037
-0.0043565794
-0.002732977
-0.0016931711
-0.0023578613
-7.084761E-5
0.003223488
0.004254299
0.0026699062
2.9621428E-4
-0.0017038077
-0.002153426
-0.0017006334
-0.0013197933
6.6076865E-4
0.00169182
0.0024461187
0.0049128938
0.004667393
0.0028766387
2.7133472E-4
-0.0030420895
-0.0029575918
-0.002192635
-0.001120855
0.0010117067
0.0016030661
0.0030200072
0.0028051422
-7.619286E-4
-0.0019491023
-0.0017166102
-0.003608496
-0.005565665
-0.0050513344
-0.0031507025
-0.0013169736
8.4860757E-4
0.002030843
0.0014373334
0.0012173309
0.0021140932
0.002594027
0.0037979917
0.0062640193
0.0049272925
0.0024069268
0.0031199618
0.0013002133
-3.2090867E-4
8.944402E-4
-6.379915E-4
-6.35463E-4
9.5041783E-4
-0.0011699469
-0.0030517715
-0.0028575098
-0.001731375
-0.0016093923
-0.004303122
-0.006692392
-0.0075878226
-0.0061128405
-0.0022651788
-0.0010185519
-4.4209513E-4
0.003170597
0.004197601
0.0015126131
4.9011946E-5
-1.3662655E-4
0.0010231294
0.0026200505
0.0016449743
0.001630546
0.0047399714
0.0072265486
0.0070113763
0.0042917747
0.0033993016
0.0043392703
5.733366E-4
-0.004084091
-0.003731648
-0.00250203
-0.0031626911
-0.0043296693
-0.0052565983
-0.006473173
-0.007837628
-0.006769786
-0.0036278344
-0.0016732845
-9.517375E-5
0.0022101642
0.004234729
0.007952514
0.010366318
0.0062976126
0.0031684742
0.004904238
0.00457569
0.0013416174
-0.0017686839
-0.0020809397
-4.1260227E-4
-8.890698E-4
-0.0018683382
-0.002560329
-0.003655802
-0.004219084
-0.004647245
-0.0017210941
0.0012386022
-8.296106E-4
-8.092322E-5
0.0017997592
-0.0025388403
-0.0044744783
-0.001352671
-0.0012633997
-0.0029309553
-0.002632881
-0.0015694657
-2.582425E-4
0.0012587669
0.0032931664
0.0045776027
0.0043641673
0.0049764803
0.0032831987
8.1244034E-5
0.0014652263
0.0014031715
-0.0015508481
-0.002302616
-0.0034163725
-0.0014294976
0.0018651525
-2.901021E-4
-0.0010789074
9.070271E-4
0.0027450086
0.005561823
0.006162812
0.00595158
0.00579631
0.0049650786
0.0067129787
0.0065187
0.0011400972
-0.0052002706
-0.009120768
-0.0090217
-0.008038664
-0.0065638525
-0.0041517187
-0.0053955168
-0.0083210915
-0.009838152
-0.010009723
-0.007970757
-0.0060451007
-0.0038111438
7.9956977E-4
0.0065913023
0.011124936
0.011423846
0.010076279
0.009482052
0.006726388
0.0015297682
-0.0030123452
-0.003597782
-0.0028278534
-0.0020716437
0.0018865974
0.003933345
0.0044277376
0.0070624673
0.0055259424
0.0034677698
0.00416242
0.0022219734
-2.799732E-4
-0.0057174955
-0.012693676
-0.012169239
-0.009893656
-0.010166912
-0.007868264
-0.005964893
-0.006709037
-0.003575151
0.0033126625
0.005243812
0.0064154146
0.013535623
0.016736412
0.015605922
0.017563133
0.016041774
0.011249917
0.010196469
0.0091468785
0.0056500053
0.0027249858
-3.1736714E-4
-0.0059747207
-0.010838598
-0.011305254
-0.012181738
-0.014484301
-0.015035028
-0.01656121
-0.01882591
-0.020838127
-0.02329463
-0.022018407
-0.01870385
-0.017165083
-0.016321763
-0.017052231
-0.013749032
-0.0037686022
0.004775279
0.01301703
0.021223499
0.024689795
0.028273355
0.030668907
0.028931003
0.030512536
0.03430147
0.035944242
0.037570097
0.03480553
0.02470477
0.014391153
0.00746182
0.0017034513
-0.0057732454
-0.018191867
-0.031797964
-0.039115593
-0.043293167
-0.048238624
-0.044085786
-0.028477734
-0.015597052
-0.008192649
-0.0015707695
5.6752226E-5
-3.8849108E-4
0.0032740836
0.0074148383
0.009586575
0.011730145
0.014760815
0.015666747
0.007927421
-0.0046701184
-0.0056200204
0.003981447
0.005898604
0.0032211335
0.003794895
8.019837E-5
-0.0073490944
-0.014648115
-0.020201946
-0.02194999
-0.020409439
-0.0132908095
-0.0046912394
0.004656162
0.01652649
0.022083769
0.026155038
0.033069346
0.03531714
0.032642644
0.024934009
0.019720444
0.018126937
0.012472825
0.009958543
0.0064889323
-0.0034567008
-0.012346382
-0.021958865
-0.030002816
-0.031877577
-0.032954592
-0.04018509
-0.04559039
-0.040089652
-0.036845356
-0.025573507
-8.831581E-4
0.005787897
0.0099565135
0.028390713
0.037712395
0.042184714
0.043232463
0.038950913
0.04213423
0.044100784
0.038187794
0.02775269
0.015624068
0.003477404
-0.016271548
-0.04022762
-0.058663372
-0.06838004
-0.072472595
-0.08007652
-0.08554656
-0.0825749
-0.07439556
-0.054517675
-0.026850363
-0.0073730517
0.004997358
0.017601063
0.028390272
0.04006575
0.055749353
0.06894471
0.07817292
0.08486174
0.08980637
0.092344075
0.08726753
0.082207724
0.0795305
0.062852256
0.0353288
0.016482562
0.0024515484
-0.022671362
-0.04674241
-0.057304595
-0.06692205
-0.078182206
-0.091750346
-0.103705555
-0.10363942
-0.102576606
-0.10005249
-0.09644493
-0.096228
-0.07130491
-0.023032181
0.019626018
0.053134244
0.07874623
0.09785379
0.10834476
0.10799425
0.100909114
0.08603972
0.061374493
0.029731054
0.0067176186
-0.0056439852
-0.021072656
-0.033820715
-0.043391667
-0.05480524
-0.066801675
-0.07407539
-0.06043791
-0.03402379
-0.010787079
0.005092577
0.0060530864
-0.001300824
-0.0093780905
-0.005402525
0.013604387
0.025855443
0.018731263
-0.013255712
-0.034219828
-0.024817353
-0.01798941
0.009084066
0.057215504
0.09912738
0.13852781
0.14223063
0.12211907
0.090442166
0.023522269
-0.03827232
-0.09810772
-0.15127951
-0.1446426
-0.11564742
-0.11360343
-0.128859
-0.09386837
0.016868548
0.11040527
0.1583521
0.1848398
0.17981142
0.15031692
0.08349375
-0.022380589
-0.14127392
-0.22600156
-0.22732167
-0.19565825
-0.17905813
-0.13816325
-0.05304371
0.047886584
0.12763226
0.17318243
0.16825703
0.11014265
0.0504355
0.015675073
-0.016826257
-0.06289688
-0.08919015
-0.065824725
-0.019808142
0.04504675
0.108976595
0.1309694
0.13886477
0.14038435
0.1269264
0.10354731
0.036944486
-0.068371005
-0.17233802
-0.22966059
-0.1904795
-0.10028098
-0.049484592
-0.032964263
-0.02042823
-0.042348202
-0.080525614
-0.064699695
-0.0113813365
0.015541891
9.941035E-4
-0.0011983268
0.060986668
0.13653895
0.15676904
0.12010541
0.075359136
0.07053557
0.06338123
0.017773837
-0.021764861
-0.046462048
-0.06485737
-0.046129473
-0.0029316593
-0.007109891
-0.055051748
-0.07712933
-0.08231038
-0.088618755
-0.068575956
-0.035393283
-0.010523107
0.0099055255
0.03265125
0.05024555
0.04844381
0.03848819
0.022040874
0.0021463146
0.009081422
0.032721054
0.04355829
0.047534656
0.049193177
0.042711858
0.029369026
0.0077077774
-0.014642513
-0.029523455
-0.044871975
-0.05340168
-0.053644255
-0.05262183
-0.043110125
-0.03532414
-0.023865277
-0.012467084
-0.019837826
-0.025303047
-0.047753066
-0.056929935
0.008112122
0.05585679
0.061232027
0.07523006
0.057406485
0.036406018
0.039061677
0.029034032
0.022401508
0.016503679
0.0069075255
0.005958069
0.0041326582
0.010285169
0.020259425
0.022263452
0.0204407
0.015897173
0.013886584
0.009535003
0.0042916546
0.006355291
0.011605706
0.016538741
0.009527941
-0.007941818
-0.022453513
-0.034384206
-0.038353443
-0.03465565
-0.033724677
-0.037126426
-0.040434808
-0.04028151
-0.041520193
-0.046068214
-0.04963201
-0.046032842
-0.034136616
-0.026322588
-0.019380417
-0.00485492
0.008513497
0.019716153
0.0252111
0.021361744
0.017892512
0.016305022
0.0177358
0.024809483
0.033269953
0.042711567
0.05249042
0.06313672
0.07231023
0.07412309
0.07732636
0.076223366
0.045711454
0.00306927
-0.017965615
-0.025501382
-0.028969822
-0.02427261
-0.021580374
-0.027444057
-0.03580401
-0.039738096
-0.036237087
-0.029590188
-0.023324687
-0.01891916
-0.018221688
-0.016810508
-0.015192487
-0.020857338
-0.02862093
-0.029500674
-0.026651654
-0.02312588
-0.015511916
-0.0045515513
0.004361361
0.01189412
0.018248193
0.015790898
0.008521221
0.0070343474
0.0075904485
0.008841472
0.013220144
0.015652774
0.016646609
0.01643806
0.012090585
0.007460861
0.0038855104
0.0010908276
0.0010041409
0.0021290644
0.00278221
0.0044521196
0.011335926
0.020535316
0.022758983
0.017352536
0.008833298
0.0026049137
3.6828735E-4
-0.004288364
-0.011480816
-0.015208856
-0.013283077
-0.008317948
-0.0060893865
-0.008090202
-0.012250742
-0.01441271
-0.012498818
-0.010773662
-0.0087089995
-0.006115461
-0.0053018085
-0.00298886
-0.0029583632
-0.008366966
-0.012869384
-0.014856005
-0.014495047
-0.012655394
-0.009830101
-0.003015286
0.0039374563
0.008849568
0.013698425
0.013435543
0.009268304
0.00841456
0.008432295
0.006394607
0.006625663
0.010377014
0.01282973
0.013827906
0.016307581
0.014760559
0.0072498927
0.0023904126
0.0011922519
-3.967415E-6
3.063164E-4
0.002341235
0.0055961967
0.007914362
0.0071376637
0.0054756515
0.0019644958
-0.0034112937
-0.006634983
-0.008842701
-0.010804214
-0.009638406
-0.005686362
-0.0017697884
-3.513324E-4
-0.0021833226
-0.005816577
-0.007982699
-0.0072962064
-0.0057038157
-0.0026741007
0.0019839734
0.005277797
0.007067234
0.008206333
0.007984574
0.005928624
0.0034381638
0.0035841952
0.0052802525
0.006297871
0.007899591
0.009777874
0.012063061
0.013224514
0.009420426
0.004633203
0.0014940861
-0.001485793
-3.0957354E-4
0.002196237
0.0024282078
0.0055450187
0.008161788
0.007595891
0.0076291547
0.0044188616
2.3345965E-4
8.6962E-4
-1.1970165E-4
-0.003993889
-0.002514396
0.0026778115
0.0019798654
-0.0031623468
-0.0026493936
8.61858E-4
-7.8848656E-4
-0.0023796281
-6.802075E-4
-0.0022677782
-0.0062674545
-0.0075768437
-0.005045983
7.7864586E-4
0.0038663188
0.0013271164
-0.0010485365
-0.0016991461
-0.0023657081
-0.0016028121
0.0018567872
0.005364555
0.0062789554
0.007246194
0.007079425
0.0031985845
-1.05244246E-4
-0.0025908463
-0.0039082197
-8.280867E-4
0.0026934498
0.0042522303
0.005023827
0.004991908
0.0043357406
0.0019951584
2.3952352E-4
3.0383913E-4
-7.7605544E-4
-0.0012782388
-5.1002426E-4
5.609712E-4
0.0043989513
0.0070114275
0.004206268
0.0011226186
-6.7269773E-4
-0.002044095
-3.4981317E-4
0.0017457441
0.001930886
0.0025607178
0.0035783302
0.005327454
0.005434111
0.0010419277
-0.0022018836
-0.002958058
-0.0045131426
-0.0041390923
-0.0026263436
-0.0019347664
7.0251815E-5
0.0016337556
0.001192235
-0.0013117378
-0.00516947
-0.005345093
-0.0025745176
-0.0012171883
-2.9654376E-4
-6.181052E-4
-9.339986E-4
8.7292184E-4
-1.13729926E-4
-0.0023477634
-0.0013039185
-0.0012704734
-0.002203032
-7.382807E-4
0.0011553038
0.0031804855
0.005836145
0.007282459
0.0066548
0.0042745452
0.0017726115
6.039379E-4
1.715738E-4
4.8949354E-4
0.0016957306
0.0030082103
0.0051273084
0.0069924816
0.00560731
0.0025642049
3.789249E-4
-0.0011393649
-0.0010876823
-5.403885E-4
-0.0020528464
-0.0038226866
-0.0036159125
-0.0027473818
-0.0037706895
-0.0071486253
-0.009685901
-0.008827361
-0.0059035816
-0.0038296878
-0.0037476397
-0.0035867498
-0.0010548114
0.0031001414
0.0047538006
0.0014374042
-0.0012095087
7.811524E-4
0.0020063391
9.16912E-4
0.001053512
0.0012887745
0.0018585472
0.0044817226
0.0038248594
-0.0016100126
-0.0042939377
-0.0041952357
-0.004714377
-0.0032886704
-0.0012215802
0.0014546728
0.005244112
0.0051671364
0.004700321
0.0053092195
0.002567714
0.002155333
0.0037624806
0.0024376113
0.0014710083
0.0016246261
0.0046207653
0.0092869075
0.008831901
0.0055810953
0.0033178153
0.0010041769
-9.791985E-4
-0.0020643184
-0.0021239996
-0.0028713124
-0.004754356
-0.0043985504
-0.0029625946
-0.0053003263
-0.008431138
-0.00813775
-0.0081580505
-0.0073245885
-0.004796594
-0.0053060497
-0.0037516623
-3.3951706E-6
-8.9482585E-4
-0.002790352
-0.004742919
-0.0061408607
-0.0018847088
0.004370558
0.006704268
0.0061030276
0.007268085
0.009123284
0.0068959193
0.0033070974
0.0015076216
9.066994E-4
5.3917844E-4
-8.77271E-4
-0.0016561747
-2.5196673E-4
0.0024454868
0.0037678522
0.002096628
0.0010361727
6.1638834E-4
-0.0013807922
-0.0019474678
-0.0012432688
-3.5394452E-5
0.0023520738
0.0026713852
0.0030443263
0.00454983
0.0026736702
0.001919064
0.001162699
-0.003989894
-0.0038174589
-6.435229E-4
-8.257133E-4
0.001670699
0.0029230292
0.0017591433
7.9035846E-4
-0.0023989626
-0.0030045274
-0.0043952875
-0.0062546823
-0.0024997047
-0.0036996363
-0.0063337637
-0.0032252735
-0.0036142408
-0.0040128124
-0.0026958524
-0.0027358606
-1.3082102E-5
0.0015271885
8.22229E-4
0.001105078
0.0021817992
0.004577141
0.0041905283
0.0012046194
-6.939089E-4
-0.0025291776
-0.0022278144
-5.8643136E-4
1.7269197E-4
0.0022376159
0.0038977978
0.004620388
0.0045202677
0.0011109231
-0.0015685677
-0.0021902528
-0.0030290037
-0.0011117267
2.5157072E-4
-0.001010223
4.1155866E-4
0.0026054045
0.0028473898
0.0013333557
-6.885812E-4
-9.985884E-4
-0.0024409648
-0.0024718517
6.4241624E-4
6.092247E-4
-1.8385457E-5
0.0014794563
0.0029336186
0.0028294912
-9.611356E-4
-0.002990185
-0.0015169607
-0.0012014488
-0.0016837408
-0.0019494458
1.0025693E-4
0.0021181896
0.0017222739
8.638903E-4
-0.0029318917
-0.005199604
-0.0034503718
-0.002964966
-0.0017727617
-0.0011452489
-0.0013673224
3.791468E-4
8.2034664E-4
6.188747E-4
1.5774873E-4
-7.1044423E-4
-0.0010876167
-0.0018774032
-0.0016123931
-0.0022917625
-8.380246E-4
0.003717053
0.001931474
1.4160412E-4
0.0019368335
-0.001535069
-0.0032875482
-2.797728E-4
-1.6311352E-4
-6.335286E-4
0.0019642555
0.0048541497
0.004742315
0.003413775
0.00223648
-4.9104623E-4
-0.001964371
-0.0012343337
-0.0012192212
-0.0010551423
7.6750974E-4
0.0033395004
0.0044894866
0.0029324018
3.5298496E-4
-6.3870096E-4
-0.0014522168
-0.0038570662
-0.004017113
-0.0030526156
-0.004231574
-0.0020759224
0.0027662513
0.0039166184
0.0018079213
-8.2312577E-4
-0.0010081914
-5.966287E-4
-0.0017834277
-6.636779E-4
9.4912096E-4
0.0019225936
0.0033939022
-5.6512095E-4
-0.005625468
-0.004002531
-0.0016831992
1.6485473E-4
0.002628235
8.9036237E-4
-3.2240644E-4
0.001909007
0.0021828027
0.0023015821
0.0030107752
0.0019951358
0.0011499514
-3.3590084E-4
-0.0010530164
2.7532087E-4
-3.9029718E-4
-1.8831463E-4
0.0018191786
9.400541E-4
-4.084135E-4
-0.0015654609
-0.0030792682
-0.0021194946
-8.3670666E-4
-4.933622E-4
-1.8144128E-4
-3.2228619E-4
8.026233E-4
0.001682343
-3.997052E-4
-0.002180764
-0.001789179
-0.0013740069
-8.534935E-4
-4.6398715E-4
-2.5674608E-4
0.0023185213
0.0041922415
0.0020901258
-6.87473E-4
-0.00289024
-0.002791361
-3.8733412E-4
-1.613492E-4
-3.5673528E-4
8.693491E-4
0.0019153494
0.0033898617
0.003395194
0.0011517911
-3.6207426E-4
-6.0474366E-4
-0.0015927366
-0.0027426602
-8.3467545E-4
0.0017062968
0.0022348538
0.0029342086
0.0017458885
-0.001493321
-0.0034269206
-0.004312352
-0.0034182658
-0.001392425
-6.3907873E-4
4.7984417E-5
0.0021045166
0.0036408827
0.0024138105
5.03484E-4
-7.2733284E-4
-0.0017437441
-8.6487114E-4
-7.2774146E-4
-0.0013676968
0.0014776662
0.003330553
0.0025402966
0.0023364902
7.1264667E-6
-0.002838288
-0.003453501
-0.003432882
-0.0016183013
-8.0138346E-4
-0.0025607597
-4.8214302E-4
0.0038703177
0.004035486
0.0020461965
6.158988E-4
-0.0011609537
-0.002617856
-0.002723609
-0.0023079643
-5.185656E-4
0.0032512737
0.0042678653
0.0015319616
4.904382E-6
-9.4742706E-4
-0.003182729
-0.004110655
-0.0031592203
-0.0018306152
2.7039987E-5
0.0028072104
0.0049179015
0.004912528
0.0022599187
-0.0014276184
-0.0016139254
-5.572608E-4
-0.002062231
-0.002158675
-8.0515107E-4
0.0014659688
0.0050972286
0.003350532
-0.0018920394
-0.0029689479
-0.0023867912
-0.002443771
-0.00205199
-7.91883E-4
0.0012651073
0.00232146
0.0037139987
0.004508721
-2.4141668E-4
-0.0054217526
-0.0043443358
-0.0020362718
-0.002100754
-0.0015111435
7.231157E-5
0.0025170657
0.0055176523
0.005086153
0.0014415996
-0.0017395245
-0.0036358328
-0.0036462743
-0.0028841982
-0.002012188
7.3133793E-4
0.0033137356
0.0040449896
0.0037124145
0.0013701236
-0.0014251438
-0.0023678092
-0.003093797
-0.004042494
-0.0029571282
-1.2279759E-4
0.0024939794
0.0046180324
0.00486765
0.002030461
-0.0017796254
-0.004474723
-0.0050154165
-0.0031951382
-1.1026878E-4
0.0024240685
0.004207856
0.0069367266
0.0069203414
0.0015856851
-0.0019705032
-0.0019529188
-0.002944361
-0.003549337
-0.0017782868
0.001111877
0.004137007
0.0058700377
0.003912215
-8.6137035E-4
-0.0033976599
-0.0028603198
-0.0029998
-0.003787785
-0.0033498558
-0.0027626948
-0.0025619268
-0.0011286186
8.51931E-4
3.1467032E-4
-0.002482079
-0.0027251497
-8.782184E-4
-0.003482691
-0.0052901604
9.954997E-4
0.00634456
0.0069085467
0.0065650404
0.0032320658
-1.8841076E-4
-0.0019365347
-0.0033596433
-9.897145E-4
0.0015511613
0.0018881671
0.003950958
0.0055406713
0.0059119207
0.003944279
-0.0012795477
-0.002888966
-0.002472894
-0.0046767965
-0.0046638297
-0.0018193199
0.0017364993
0.0048870775
0.0033943325
-0.001469764
-0.0040964605
-0.004971499
-0.0059337383
-0.0040488
-4.6756025E-4
0.0012450663
0.0032854958
0.0044500628
0.0031503714
0.002285542
2.770161E-4
-0.0021311895
-0.0029450648
-0.0037031458
-0.0025713618
-2.8558707E-4
0.0024590995
0.0059776455
0.005485493
0.0015518885
-0.0023044238
-0.004673369
-0.0050711557
-0.0055992226
-0.003220089
9.154087E-4
0.002144486
0.005301769
0.0066665616
0.0018404814
-6.3343754E-4
-0.0013673606
-0.0034926208
-0.0033944729
-0.0017384883
0.00107428
0.0044951206
0.0059763743
0.0049750423
0.0011993148
-0.0028195737
-0.00374645
-0.0030831913
-0.0026958783
-0.0020687198
-4.3880905E-4
0.0024018895
0.0046106065
0.0042324
0.0022602582
-4.3526108E-4
-0.0028865924
-0.0034840296
-0.003866021
-0.0038269868
-0.0012472153
0.0021333937
0.0052367225
0.005706802
0.002417046
-1.4869319E-4
-0.0033133472
-0.0066816094
-0.004730903
-0.0019665197
-3.7445352E-4
0.0030299625
0.004433476
0.0038101114
0.0015167814
-0.0029861676
-0.003587452
-0.0030647432
-0.0063898996
-0.0050635096
0.0021065178
0.0059895213
0.0066762064
0.00700522
0.0044504646
-3.8337227E-4
-0.0032712873
-0.0033221946
-0.002482545
-9.571299E-4
9.859843E-4
0.0018044858
0.003317529
0.0050253742
0.0017310343
-0.0030806419
-0.003335147
-0.0025041916
-0.002383846
-0.0012604014
-5.6128943E-4
5.4550666E-4
0.003761057
0.0058636577
0.002752922
-0.0033703388
-0.006120825
-0.005081838
-0.0037741782
-0.0019334808
6.371892E-4
0.002620171
0.0048198667
0.0071475524
0.0058719967
9.491662E-4
-0.0015996158
-0.0017921556
-0.003300927
-0.0036174676
-0.0019250357
7.951038E-4
0.004235885
0.0046906965
0.0020325733
-0.0024475297
-0.0072666053
-0.006526387
-0.002413777
-0.0015557867
-0.0017946297
9.624601E-4
0.004642542
0.005060605
0.0047568763
0.0035862613
-0.0018727302
-0.0059467084
-0.007373758
-0.006272556
1.7505586E-4
0.005177367
0.0071202833
0.007076203
0.003398027
8.9030707E-4
-0.0012088108
-0.002562131
-0.0013795045
-0.0018591234
-0.0016391596
-2.8446774E-4
0.001868745
0.0050292416
0.0026773165
-0.0018004952
-0.003013797
-0.0031046614
-0.0032396843
-0.0037643935
-0.0014728102