-0.014728869
-0.0122543685
-0.0056253704
0.0013848268
0.0059618168
0.006736178
0.00710971
0.006884787
0.005896899
0.006332098
0.0085311495
0.013225214
0.01821012
0.020340994
0.017660458
0.012166583
0.008121572
0.0012303654
-0.0074709225
-0.012456916
-0.018599747
-0.022716159
-0.017940953
-0.009606348
-0.0045173024
-0.004868232
-0.003461351
0.0043311454
0.009134364
0.009280594
0.010232313
0.01027454
0.011877752
0.0149507085
0.011170297
0.0048998916
0.0019358505
-0.0034282745
-0.009818872
-0.013853735
-0.015586109
-0.012874515
-0.007766951
-0.0028521975
-0.0011803776
-0.0038655938
-0.007048061
-0.009384874
-0.008375343
-0.007377608
-0.009713766
-0.006077009
0.003673985
0.011511519
0.0135178305
0.01096393
0.010458666
0.009408391
0.0047721234
-0.0032400738
-0.011823605
-0.005471216
0.011581179
0.021914972
0.026960874
0.024952255
0.014817391
0.005505484
-0.0012125217
-0.009925592
-0.019818012
-0.021032445
-0.016398039
-0.015768537
-0.012829332
-0.006764428
-0.0032547656
-0.0017517398
-0.0034709114
-0.006023342
-0.0063015455
-0.0030200188
0.005385888
0.012019123
0.012116989
0.0114483945
0.010612246
0.006077976
0.0016788327
-0.0021715988
-0.0069278805
-0.006015408
-7.7097066E-4
0.0029158508
0.0058986605
0.006845374
0.0058624214
0.0036320142
-0.001212359
-0.006474132
-0.010371368
-0.011401765
-0.008571849
-0.0033690573
0.0011480765
0.002310757
0.0011855619
-7.1674405E-4
-0.0016840375
-0.0024622402
-0.0034393205
1.4231238E-4
0.0060722134
0.011452887
0.013787522
0.008384879
0.0045478954
0.004645419
0.0015666139
-0.0015622643
-0.0060253805
-0.007499026
-4.753276E-4
0.004514225
0.0066137277
0.009857159
0.007978107
0.0012445223
-0.003636075
-0.0070500504
-0.012056087
-0.013877525
-0.010179208
-0.0053937635
-0.0036701849
-0.007020179
-0.008041321
-0.0048161303
-0.0050277533
-0.007973706
-0.012720492
-0.012613259
-0.0018425523
0.005751885
0.0059327814
0.0068015964
0.007593585
0.0073983953
0.0060240524
0.0018570612
-0.0025467142
2.4005634E-4
0.011551399
0.021400848
0.025159419
0.024090683
0.019516872
0.015145799
0.009639642
0.0037896743
0.0012531838
-0.00319258
-0.010713157
-0.015478815
-0.017321428
-0.01733614
-0.014688231
-0.010976192
-0.0098143155
-0.012469955
-0.014835689
-0.013299272
-0.008559577
-0.0031118714
-9.5152165E-5
0.0015448501
0.0033526006
0.0037873925
0.0045177997
0.0024204338
-0.0030175773
-8.85885E-4
0.0063722986
0.010968931
0.014807423
0.015774379
0.014165229
0.009531183
0.0011879592
-0.0023932368
-0.0031869654
-0.0048978026
-0.00231621
0.0013833869
0.002647195
0.0024952053
0.0017068704
8.351636E-4
-0.0018155407
-0.00454952
-0.006200851
-0.006308515
-0.00324254
-3.4171337E-4
0.001752565
0.0018131961
-0.0023797455
-0.005082787
-0.0068541584
-0.010145572
-0.010569849
-0.0095346905
-0.005045774
0.0031110044
0.004160031
0.0028060114
0.0059561096
0.005318318
0.002494744
-0.002586613
-0.011102424
-0.009240445
0.0014107235
0.011595302
0.020344727
0.022166437
0.021020753
0.020496586
0.016681582
0.010814503
0.001159014
-0.009914036
-0.019068869
-0.022279337
-0.013197106
-0.0032273235
7.2812545E-4
0.0016144543
-0.001967493
-0.005218
-0.010181542
-0.013547756
-0.00856199
-0.0036138683
-5.439225E-4
-0.00410753
-0.008560402
-2.2233682E-4
0.00406288
0.0015517109
-2.4383272E-4
-0.0063472907
-0.0051533063
-0.0013609504
-1.4968765E-4
0.010337033
0.016310258
0.013516904
0.012203895
0.0063160844
-0.0017615099
-0.005253473
-0.0049465387
-0.0013276129
0.0030450774
0.0052694795
0.0055060065
0.004115781
9.795144E-4
0.0011807189
0.0035703806
0.0010335298
-1.8273349E-4
0.0013949036
1.11095884E-4
-1.6284814E-4
-0.0015182862
-0.0051919427
-0.0061133625
-0.00860207
-0.012674597
-0.009858514
-0.0017216823
0.0049151434
0.008838389
0.008647858
0.0054250085
0.003928559
0.0020635843
-0.0022577322
-0.0061602467
-0.0064553167
-0.0018804116
0.0026435934
0.006323282
0.0087218005
0.0049759257
0.0016794668
0.0012502396
-0.0028231083
-0.008456344
-0.010089256
-0.0056214645
-0.0018587424
4.5726763E-4
0.0027094064
-0.006128022
-0.0120572215
-0.004360572
-0.005396652
-0.01050324
-0.008454699
-0.0071312278
-0.0015858276
0.004483651
0.0048644273
0.0058023804
0.00603809
0.006014052
0.0057061305
0.0028915398
0.0027778733
0.008983388
0.020433933
0.02697791
0.024558377
0.02202558
0.015128951
0.0016247209
-0.00984937
-0.01695917
-0.015186526
-0.0062494464
6.6884495E-5
0.0012269549
-0.0020972518
-0.0053798254
-0.0069859927
-0.010905734
-0.015755609
-0.01927193
-0.018654132
-0.013604633
-0.008343784
-0.0038915724
-0.0029013483
-0.004295643
-0.0033331697
-0.0020801679
-0.0010452667
-9.1027934E-4
-0.0014040675
0.0023016334
0.0074754353
0.011934325
0.016514035
0.01758972
0.016777901
0.015280887
0.008961627
6.552887E-4
-0.0018003467
0.0021964696
0.0063617397
0.007347846
0.0052247685
0.0018290641
-8.701729E-5
-0.0020515334
-0.0052823685
-0.008858493
-0.011716316
-0.010247815
-0.0047462517
-1.1742192E-4
0.0012328046
8.489372E-4
0.0010991772
7.5525336E-4
-0.0028401806
-0.009710809
-0.013275187
-0.008488192
-0.0030633816
-1.0709292E-5
0.0049181883
0.006766378
0.003706131
0.0021963634
0.003072473
0.0019155357
-9.01461E-4
-1.4910329E-4
0.0040326123
0.00707214
0.0058635715
0.0015337943
-8.59636E-4
-0.0023169063
-0.0051055043
-0.0077135037
-0.0097556105
-0.0062734988
0.0013013268
0.0056191995
0.00820156
0.007482021
0.0032999914
8.7221985E-4
-0.0011033553
-0.003530229
-0.0073223175
-0.009053788
-0.0033253622
0.0017053849
0.0026275213
0.0035477052
0.0033488718
0.0032488066
0.0018212581
-6.755537E-4
-3.7967152E-4
0.0010078418
0.0044838493
0.008039764
0.0075822608
0.0058315136
0.0030094336
7.8296E-4
-0.001469286
-0.006633554
-0.008978758
-0.008333962
-0.005534509
0.001013943
0.0032693704
0.0016040198
0.0021245135
0.0014184115
-0.0019976697
-0.005783634
-0.0077906074
-0.006656661
-0.002202244
0.0025652756
0.0036009627
0.0035566206
0.0026730348
-1.2722233E-5
-0.0017631565
-0.0042650127
-0.006274094
-0.008481278
-0.008170935
0.003016842
0.008191418
-0.0014457748
-0.003416582
0.0033884468
0.0037753787
-0.0024374737
-0.0068429937
-0.0031878557
0.0040744212
0.009656972
0.013133137
0.012777609
0.009834338
0.0068269866
0.0030621022
-0.0021709555
-0.0050362344
-0.0031998511
5.9344055E-4
0.0046276455
0.0053540114
0.0037151647
0.003983629
0.0031203653
0.0016385035
-0.0014945302
-0.007834188
-0.0074329
-2.1142019E-4
0.004296185
0.004532459
0.002611575
9.1189577E-4
-0.0013355383
-0.005572041
-0.010725959
-0.015181249
-0.016484663
-0.015072405
-0.013006602
-0.012137124
-0.012015965
-0.010371447
-0.008173068
-0.0053110844
-0.004132318
-0.0048418953
3.2100957E-4
0.0097308215
0.017251074
0.02024421
0.017107679
0.012310619
0.008206301
0.006819699
0.008742131
0.009060735
0.011189935
0.017031852
0.022826362
0.02789321
0.028808631
0.025354892
0.018548243
0.0074581904
-0.0066992417
-0.025404412
-0.043576375
-0.051022075
-0.04426701
-0.027755974
-0.013603747
-0.0068745995
-0.0048023686
-0.006907144
-0.007973485
-0.0055128583
-0.0045273765
-0.0028980533
0.0036202276
0.008086992
0.0069009205
0.007789152
0.009846311
0.008053507
0.0047460725
8.4139453E-4
0.0019075196
0.010916147
0.017092142
0.016400287
0.014340406
0.011678866
0.0063712467
-0.001501588
-0.009806406
-0.015599779
-0.01613669
-0.010958116
-0.0035584215
4.948209E-4
6.631548E-4
9.127823E-4
9.780885E-4
0.00122085
0.0016918884
-4.4340407E-4
7.4102124E-4
0.008411161
0.014684953
0.01574359
0.012014861
0.0055745686
-3.2340566E-5
-0.0044814334
-0.008737686
-0.0116505595
-0.011415932
-0.008103912
-0.002864003
-8.698494E-4
-0.0039546713
-0.0047166855
-0.004886808
-0.008187386
-0.011084237
-0.014238344
-0.011704567
-0.0018963306
0.0043343822
0.00670429
0.0075865393
0.0065452517
0.0057181637
0.003962119
9.191188E-4
-0.0022400822
-0.0021172243
0.0027993626
0.009197149
0.013617913
0.010419395
0.005590088
0.006655411
0.004229553
-9.911271E-4
-0.003165059
-0.0055208374
-0.003686988
0.0023512074
0.0044622743
0.002971811
0.0014096604
-5.030225E-4
-0.0024243689
-0.0043324283
-0.007977099
-0.009280987
-0.006217701
-0.003090166
5.3830585E-4
0.0018669402
2.7838076E-4
0.0011380601
4.591049E-5
-0.0035873756
-0.0051734173
-0.0057338784
-0.0022179468
0.0043813647
0.0072560646
0.006701611
0.006143779
0.005913321
0.0032427332
-0.0029066743
-0.008771432
-0.009738217
-0.005131151
8.319806E-4
0.0034860827
0.002469651
0.0022317586
0.0029579669
0.0013182905
-0.0010866012
-0.003911155
-0.003066015
0.0042825304
0.008074836
0.007048962
0.0054143597
9.103405E-4
-0.0024520266
-0.0032289226
-0.003487612
-0.002249987
-6.1278505E-4
0.002598065
0.005286418
0.004008805
0.002540445
0.0018041931
0.001356301
5.889479E-4
-0.0066397726
-0.016499143
-0.016129429
-0.007604143
-5.872487E-4
0.0036100314
0.0045334557
0.004179632
0.0047754887
0.00154683
-0.003590428
-0.006663403
-0.010539232
-0.009455266
6.4952957E-4
0.0101519
0.014937757
0.017063739
0.016520292
0.01441833
0.005907547
-0.009691598
-0.018060604
-0.013780003
-0.003456027
0.006584343
0.010691012
0.011824175
0.009941487
4.230556E-4
-0.008616553
-0.012480813
-0.013508032
-0.009967147
-0.0034803
0.002439943
0.004096178
0.0022253138
0.0011951932
-0.0014959791
-0.005197171
-0.007219573
-0.009609757
-0.008578289
-0.0030498675
0.0017370558
0.007929753
0.014182645
0.012104929
0.007917852
0.0067198384
-0.0018009569
-0.011053555
-0.0095514115
-0.004806833
-5.1861635E-4
7.199588E-4
-0.0023139035
-0.0010643424
0.0023305803
0.0020686663
0.0010740232
0.0016661296
0.0036823768
0.005843693
0.007308108
0.006122441
0.0046726647
0.006763608
0.007144087
0.0032725453
-0.0032046656
-0.008471171
-0.006642534
-0.002201602
-3.617687E-4
-0.0011526741
-0.0032722314
-0.00337692
-0.0040399735
-0.0066760713
-0.010311049
-0.012722397
-0.007230113
0.0024961315
0.00989678
0.012024585
0.0066751926
2.9546843E-4
-0.004834503
-0.008856675
-0.010431014
-0.011137276
-0.0049034725
0.004603983
0.00708295
0.0074167238
0.009501422
0.011422473
0.009463489
0.0033085167
-0.002182305
-0.0062870295
-0.00496072
0.0014846359
0.004790548
0.0036627268
4.9771497E-4
-6.710788E-4
-4.481983E-4
-0.0023992176
-0.0048515447
-0.007221018
-0.006544574
-0.002686692
0.0022070024
0.008258874
0.0098492
0.0094448505
0.009502999
0.004704948
-2.850319E-4
-0.0046723797
-0.008945965
-0.006455339
2.1639981E-4
0.0048014508
0.005731643
0.004427306
-7.122308E-4
-0.008834386
-0.012135156
-0.010682175
-0.0043614646
0.0039044213
0.005342012
0.005349635
0.0040100003
-0.0025312384
-0.00833724
-0.014879049
-0.017612774
-0.010179514
7.5831165E-5
0.00832269
0.011837873
0.01038866
0.00860656
0.008594622
0.0097464
0.008613986
0.004590977
2.6629228E-4
-0.0018270913
6.378773E-4
0.0039378996
0.0032039057
-8.691929E-4
-0.004646275
-0.0035474317
6.148692E-4
-8.2796026E-4
-0.006627438
-0.0070708357
-0.0039586686
-0.0016626042
4.2556843E-4
-0.0014917561
-0.0041524093
-0.0025729688
-7.8051945E-4
7.814175E-4
8.1077265E-4
-0.0015668682
-7.5427344E-4
0.0031616692
0.0060799136
0.0067559564
0.004925659
-3.274285E-4
-0.006435089
-0.007392482
-0.005440204
-0.003081629
0.004654074
0.01264193
0.011685291
0.007040287
0.0017453178
-0.010581287
-0.0226764
-0.025453283
-0.024060482
-0.0148449745
0.0056942585
0.02190882
0.024364593
0.020126266
0.0136373695
0.0050628604
-0.0015989708
-0.0045792884
-0.0027891074
0.0018348319
0.0029467815
0.0064956085
0.0070185545
-0.0036115893
-0.0038828985
4.5477264E-4
-0.006585527
-0.007548364
-0.007557352
-0.011087328
-0.006352441
-0.0035060246
-0.0016363838
0.0037110175
0.006078452
0.007879195
0.0056076553
-3.4202932E-4
-0.002739143
-0.0022713759
-7.711478E-4
-0.002044677
-0.0064537777
-0.012076865
-0.020039357
-0.02795874
-0.033129387
-0.034235306
-0.030596174
-0.021200247
-0.009128611
-2.9501488E-4
0.009414
0.020734632
0.027697092
0.032745183
0.037959017
0.041243337
0.04017128
0.0369021
0.0370642
0.03647846
0.03198581
0.027294192
0.01968875
0.007830432
-0.0028292562
-0.011026018
-0.017402967
-0.01576656
-0.003113937
0.013427824
0.026407497
0.029653225
0.021200208
0.009204748
-7.727574E-4
-0.016139682
-0.03776766
-0.05161629
-0.059094746
-0.07173956
-0.08060924
-0.0755585
-0.06069134
-0.044572134
-0.033980288
-0.02179539
-9.0206816E-4
0.017389273
0.026608458
0.036761343
0.04955347
0.053477462
0.04530116
0.029813034
0.008999447
-0.010658367
-0.023691038
-0.03650011
-0.04671285
-0.03623955
-0.0013908357
0.042994943
0.078910075
0.088868
0.07304455
0.051611684
0.044215154
0.05039296
0.042861946
0.012816188
-0.015556736
-0.04248514
-0.08190508
-0.11347082
-0.11581831
-0.101403
-0.07560162
-0.022356406
0.044714227
0.09503824
0.12580568
0.14133239
0.138749
0.11799862
0.086231634
0.047314767
-0.0055964068
-0.05659712
-0.080753066
-0.09355046
-0.1224016
-0.16143134
-0.17245847
-0.13500015
-0.08030228
-0.037367564
-0.005471045
0.020278987
0.044327993
0.061526515
0.066876106
0.063732535
0.044768985
0.01296206
-0.013153749
-0.030256096
-0.041649416
-0.046529707
-0.039340176
-0.011003728
0.039465215
0.10801889
0.16481315
0.16822402
0.13209419
0.08768974
0.03854482
-0.001876455
-0.027880426
-0.0520641
-0.0750213
-0.09128457
-0.09550719
-0.09647994
-0.11146952
-0.12036398
-0.08784022
-0.028244792
0.020945715
0.05231286
0.066592306
0.07190339
0.08211234
0.078217156
0.047874052
0.0061601656
-0.028605072
-0.035388265
-0.021887751
-0.0022785114
0.02131166
0.032474086
0.028215531
0.0071165483
-0.017758831
-0.014615305
0.0044751773
0.031740855
0.059244093
0.051587667
0.017939562
-0.025978269
-0.061558478
-0.057414453
-0.040836096
-0.034994643
-0.034265265
-0.041774575
-0.044135693
-0.04697625
-0.05352722
-0.028942158
0.022739049
0.05542677
0.05295951
0.03282858
0.009600651
-0.00299223
-2.8689203E-4
-0.0032467332
-0.021187177
-0.04860368
-0.067858875
-0.051925346
-0.017770791
0.009863973
0.036930833
0.05882038
0.074337594
0.09235329
0.10514702
0.0975205
0.06565529
0.01134098
-0.05689562
-0.097345196
-0.08359884
-0.04445139
-0.0014559209
0.037917655
0.06430395
0.081776135
0.09174014
0.090250075
0.06980452
0.031824358
-0.0064431382
-0.04496419
-0.08759732
-0.11757532
-0.12209611
-0.1083793
-0.08863882
-0.062217455
-0.028895782
0.005241533
0.035460737
0.051129553
0.05176424
0.046647068
0.030873697
-0.0043246457
-0.052193083
-0.08434098
-0.080013156
-0.058865417
-0.04508424
-0.02925015
0.0030940033
0.04100077
0.06724306
0.07992368
0.08342975
0.081136435
0.07570368
0.06398884
0.038119137
5.312887E-6
-0.03025086
-0.034792896
-0.01794979
0.0027229285
0.013789003
0.015382118
0.0168642
0.022364791
0.027549952
0.03134456
0.036519766
0.03505922
0.0059552346
-0.05132413
-0.09278997
-0.09187706
-0.07924369
-0.07241031
-0.058348846
-0.03886499
-0.021050056
-0.0061363284
0.0033119966
0.009501451
0.019296026
0.03128349
0.031782825
0.019267075
0.0075460635
5.037692E-4
-0.002019942
0.006534546
0.024967471
0.035638876
0.025799388
0.0061169793
-0.008039663
-0.0130025
-0.014906055
-0.01809326
-0.01585012
-0.0072069233
0.0020308392
0.011070108
0.016093653
0.01269849
0.003171877
-0.0043690377
-0.004268087
0.003383056
0.019760506
0.036102176
0.03537885
0.016714688
0.0021105881
0.011001958
0.02406239
0.016030386
-0.0018151538
-0.01440201
-0.012397325
0.00588133
0.018697489
0.01717383
0.008612485
-0.009695379
-0.035510357
-0.060143914
-0.07427558
-0.069393784
-0.05127735
-0.03449106
-0.024526773
-0.013318592
0.0028483141
0.015089371
0.021498146
0.024853544
0.023155231
0.016545482
0.007435881
0.003831567
0.009135365
0.0132709285
0.012879649
0.012993631
0.015792303
0.019256365
0.019865671
0.02248834
0.031204568
0.04010158
0.042348888
0.035023853
0.024538994
0.012633499
-0.011251315
-0.04134367
-0.05692225
-0.05100919
-0.035176717
-0.021907795
-0.012837186
-0.0077673793
-0.0043618516
-6.5435906E-4
-9.816247E-4
-0.003990217
-0.009148522
-0.016038682
-0.014535665
-0.005655729
0.0021642789
0.009187299
0.015016478
0.020032866
0.024165945
0.022730539
0.016822055
0.012258574
0.010614005
0.008975606
0.005256908
0.0018734613
-0.0033871608
-0.018247977
-0.0344213
-0.037676606
-0.0346849
-0.030921673
-0.020115953
-0.0037409475
0.012931181
0.021404445
0.019051742
0.017914718
0.01917099
0.013002189
-0.0026468905
-0.017273335
-0.014891552
-0.002262386
0.0053918953
0.01447299
0.026169786
0.03361433
0.038804878
0.037332386
0.026897166
0.015276801
0.0026526686
-0.012176383
-0.02086943
-0.01881976
-0.016841527
-0.022590145
-0.027591042
-0.029125877
-0.027705906
-0.021824652
-0.01940641
-0.015423284
-0.004714947
-7.7085965E-4
0.0013120634
0.0076574017
0.0060242875
-7.630233E-4
-0.0050424063
-0.0066612484
-0.0028694747
0.0048105284
0.010771201
0.011689153
0.01231404
0.016924554
0.01937638
0.018153908
0.016832257
0.014372012
0.01273004
0.01626482
0.020737054
0.017950362
0.0069914544
-0.009065666
-0.021563584
-0.021965826
-0.01837096
-0.01746971
-0.01322204
-0.0065131495
-0.003967555
-0.0037370066
2.787437E-4
0.00440452
0.0031571528
-7.73301E-4
-0.005049822
-0.006155604
-0.004068679
-0.002795541
-0.0018255304
-0.002096202
-8.6596195E-4
9.414954E-4
-0.0023310129
-0.0047251205
-0.0077177677
-0.0123963775
-0.0069034253
0.005069147
0.012524068
0.012787378
0.008661754
0.004629029
9.805433E-4
4.5969846E-6
-0.002384166
-0.00810748
-0.006142145
0.0014499327
0.007530193
0.0107213585
0.009203088
0.008223734
0.007623322
0.0041589863
9.691341E-5
-0.0039148587
-0.0028249468
0.0026519776
0.0063227355
0.008670399
0.007699014
0.004175349
9.7573246E-4
-0.004222665
-0.011500342
-0.018718053
-0.018799424
-0.008139505
0.0012421664
0.001451188
7.9952175E-4
0.0037758022
0.0038984204
0.0011086612
-0.0017609511
-0.005924596
-0.00533121
3.7744438E-4
0.003339858
0.0042958544
0.0043653655
0.0032952682
0.0015499861
-0.0022803356
-0.0063609243
-0.009594351
-0.008562761
1.14847404E-4
0.007688705
0.0077343974
0.005749007
0.005915789
0.0062085125
0.00425708
-2.504445E-4
-0.005138271
-0.0045494684
0.0017933773
0.00704818
0.008514629
0.007044654
0.0049442207
0.00283064
-0.001048077
-0.0044252775
-0.006912967
-0.007879301
-0.0035785954
6.9779326E-4
1.3862058E-4
-7.390665E-5
9.805581E-4
-3.8312902E-4
-0.0030422132
-0.0060394867
-0.009710511
-0.008620465
-0.0010499654
0.005283271
0.0073729106
0.007096337
0.0046530166
0.0020073226
-2.8345274E-4
-0.004603448
-0.009506431
-0.009857335
-0.0038050024
0.003316778
0.0047652256
0.0034608655
0.0057120523
0.007026469
0.0031598997
-0.0016252144
-0.0050611733
-0.0058094678
-0.0018660433
0.0039754193
0.0069517256
0.0067548747
0.006746504
0.006852238
0.0055524264
0.0018834563
-0.0048526763
-0.008480402
-0.0040419037
0.004917967
0.010638322
0.00749995
0.0021835
-6.760851E-4
-0.005533947
-0.011615919
-0.017230416
-0.016096886
-0.0059587187
5.642887E-4
0.0021732918
0.0029351837
1.8684255E-4
-7.454844E-4
6.024433E-4
-0.0015326722
-0.004396623
-0.0038632816
1.6366919E-4
0.0044263783
0.0058461046
0.0059920154
0.0064896406
0.0042364495
-3.9845952E-4
-0.0027595775
-0.0054654595
-0.0059658997
0.0016455584
0.008086192
0.009417373
0.008449018
0.003842508
0.0014625537
-3.5549956E-4
-0.006022963
-0.009942921
-0.012855412
-0.0098639885
9.67751E-4
0.0030271139
-3.4931916E-4
0.0043644933
0.0074259164
0.0049633416
0.003106254
-5.9651077E-4
-0.0016504831
0.00315366
0.0051737074
0.00435063
0.004801865
0.004895278
0.0029724722
-0.0017202416
-0.005677063
-0.00701024
-0.006581236
-0.0029343963
-4.3661517E-4
-0.0019428073
-0.0035739574
-0.00335432
-0.0015726225
-0.001996074
-0.0050034425
-0.0070312317
-0.0075429208
-0.0046969806
1.66347E-4
0.003366657
0.003697812
0.001716778
0.0010433001
-4.1971277E-4
-0.003436334
-0.0028995713
-2.5688726E-4
0.0040616537
0.008439867
0.008227358
0.0065649515
0.006159973
0.006155587
0.003916008
-0.0017429029
-0.006746754
-0.007783191
-0.0030093188
0.002290802
0.003412008
0.004723423
0.004609883
0.001701198
-0.002734946
-0.0073716003
-0.005802756
-0.002700957
-2.7025532E-4
0.00787614
0.012778138
0.009209539
0.0044316924
0.0025180567
7.818396E-4
-0.007033963
-0.014216495
-0.013518087
-0.008719248
-9.6741796E-4
0.0038831802
0.004343913
0.0058053955
0.0038891158
7.6818775E-4
4.489616E-4
-0.0038822407
-0.0097968755
-0.00978672
-0.0061114677
-0.00430531
-0.003677739
2.6135918E-4
0.004275219
0.003937593
5.798992E-4
-0.005480316
-0.007931325
-4.0177978E-4
0.008885504
0.013170181
0.014505139
0.012370972
0.0064858873
-2.6094986E-5
-0.0031676523
-0.003946943
-0.0066638887
-0.005656861
0.0011997384
0.0043554
0.0041556153
0.0037112595
0.0011538081
2.998139E-4
5.5230455E-4
-0.0011085378
-0.0018438714
1.177703E-4
0.005908007
0.010272693
0.0073334333
0.004184171
0.0033794872
-9.457546E-4
-0.007971393
-0.0138606755
-0.01557789
-0.011972756
-0.005009469
0.0013575355
0.003143355
0.0027378085
0.0018881555
-0.0010782813
-0.003244765
-0.0065206434
-0.010922994
-0.007618132
-2.3511439E-4
0.003630098
0.005814081
0.004721794
3.6302258E-4
-0.0026039935
-0.0040309876
-0.005484709
-0.0051630405
-5.2081855E-6
0.0057856035
0.008092402
0.0118405
0.015291479
0.012770665
0.007126684
-5.125613E-4
-0.0092259105
-0.011686852
-0.0047442815
0.004211785
0.007829299
0.007598527
0.005854424
0.003247265
9.4852335E-4
-0.0026619963
-0.005915867
-0.0061214357
-0.003386276
0.0034402334
0.0075531784
0.0033882973
-0.0014772927
-0.003472821
-0.004285354
-0.0068117836
-0.0120637305
-0.011178554
-0.0049700416
-0.0018284428
0.0013477837
0.0040124273
0.0028832604
6.5964827E-4
-0.0015370294
-0.0042256336
-0.008786819
-0.010289931
-0.005684458
-0.0022394727
7.501272E-4
0.004299642
0.005082923
0.006519779
0.0068729506
0.0037834232
-1.625659E-4
-0.0017639373
0.0023747548
0.0067916797
0.009277152
0.01158202
0.009184079
0.005277949
0.00304878
3.8972078E-4
-0.0039730426
-0.008565531
-0.0042849826
0.0024211793
6.7208713E-4
3.5187617E-4
0.0010063421
-0.0020689536
-0.002683719
-0.004530634
-0.007998309
-0.006688911
-0.0045235474
-0.0047571165
-0.0032915338
-9.475151E-4
-5.307676E-4
0.0016545117
0.00318998
8.407608E-4
-4.623689E-4
-0.0026764364
-0.0037229464
0.0014062865
0.004480239
0.0047005517
0.006105374
0.004135704
2.3415533E-4
-0.0019788502
-0.004991153
-0.007973312
-0.00508375
0.0027465306
0.008120906
0.0088249855
0.0065007824
0.004444082
0.0030133312
-0.0027111978
-0.00828248
-0.0068003726
-0.0024683923
0.0015130593
0.004292354
0.0036911648
0.002654589
0.0031183516
0.0021753206
1.4638448E-4
-0.002029218
-0.004724834
-0.005223501
-0.0027191567
6.1394944E-4
0.0023110108
0.0012712822
4.8424516E-4
-4.3168874E-4
-0.0029174236
-0.0047886567
-0.006588457
-0.005713251
-0.0010093664
0.002001378
0.0033782993
0.0035689299
0.0020192154
0.002178085
0.0010548222
-0.004096035
-0.005725062
-5.8585935E-4
0.003840571
0.0055264155
0.00783421
0.0073153963
0.004152634
0.0022178658
-8.323348E-4
-0.0030469378
-0.003251691
-0.004669857
-0.0022697032
0.0027478382
0.0021379343
0.0013150558
0.0036921403
0.0035291722
0.0018948175
-0.0013120155
-0.006342873
-0.0064063906
-0.0013843357
0.0021485242
0.0016178029
0.0010808359
0.002053685
-9.006194E-4
-0.004380541
-0.004594803
-0.0073651
-0.008924828
-0.0040484974
0.001586604
0.003286725
0.0012851461
4.932095E-4
0.0028079313
0.0022640217
-0.0029917173
-0.00700331
-0.004734993
0.002781914
0.010391207
0.012920687
0.012136312
0.011401239
0.0071718865
0.0018691346
-0.0018775344
-0.006145782
-0.004584299
0.0015312139
0.006247365
0.0071698907
-0.0019218614
-0.006550756
0.001662785
-0.0014166394
-0.014905965
-0.017041868
-0.010096634
-0.0038761236
1.5764712E-5
0.0023858557
0.0033960866
0.002899537
4.916461E-4
-0.003866881
-0.008071063
-0.010340375
-0.008283278
-0.0018347603
0.00425443
0.0067462884
0.0062994887
0.007999504
0.0114383735
0.009265641
0.0030405032
-0.0012375658
-8.718211E-4
0.002931622
0.005306865
0.0058088535
0.005890203
0.0051925885
0.002808268
-0.00214729
-0.0068440977
-0.00833215
-0.0060922825
-0.0016189474
0.0027426537
0.004397161
0.002044514
0.0010444893
-2.950166E-4
-0.005553529
-0.0070409672
-0.008349905
-0.010507269
-0.004458816
0.0018713217
0.0034045689
0.0037740304
0.0022349658
9.777987E-4
-7.752246E-4
-0.0038305384
-0.006499699
-0.0071663987
-0.0031460382
0.0019778297
0.0055544735
0.0068182354
0.0049463147
0.003967915
0.002864989
3.8914938E-4
-8.449056E-4
1.9645809E-4
0.0041289874
0.00700203
0.007789815
0.007138167
0.0029877522
8.96958E-5
-7.4929086E-4
-0.0034814253
-0.0069871717
-0.0089397235
-0.0070773065
-0.0036637436
-0.0013323113
-1.8180069E-4
-0.0015643714
-0.0032545177
-0.003550078
-0.0033075395
-0.0049317726
-0.007886913
-0.004438132
0.0032698845
0.0074184816
0.0087559745
0.008719651
0.008988416
0.008616571
0.005259867
0.0012762145
-0.0015311273
-0.0010229131
0.0030406318
0.005911444
0.0042940844
0.0018057368
0.0016271987
-0.0015611073
-0.0079402095
-0.012640411
-0.013605464
-0.008720092
-0.003344739
-0.0011209088
1.12603695E-4
1.7449012E-4
8.6361624E-4
-4.3173664E-4
-0.0037715742
-0.005902915
-0.007725534
-0.0032486469
0.003466222
0.0038582708
0.004560945
0.0065492806
0.008912487
0.0108314175
0.006938015
0.0025772138
0.0011789895
-2.5830127E-4
-7.861544E-4
-6.947438E-5
6.43502E-4
3.7919419E-4
0.001444333
0.0021420761
-0.0011718097
-0.0036367553
-0.003923884
-0.0025717965
6.3337304E-4
0.0016148994
0.001847161
0.0023758647
0.001775066
-6.4672466E-4
-0.006734849
-0.009511589
-0.006823905
-0.0043850346
0.0012585599
0.0066015827
0.004975442
0.0020602318
9.709685E-5
-0.0024952118
-0.00565303
-0.008426328
-0.00686728
-0.0024808783
0.0019425456
0.0058503337
0.0055943076
0.00455186
0.00494086
0.0014303068
-0.0024501623
-0.0034179697
-0.00273297
0.001757413
0.00655214
0.009050219
0.0105476165
0.007949546
0.0028835663
-5.2551157E-4
-0.0030249588
-0.0056621027
-0.008209943
-0.0066366307
-0.0010249108
0.0012355177
4.6073538E-4
-5.730416E-4
-0.0020979387
-7.728047E-4
-5.6823005E-4
-0.0054640826
-0.00754893
-0.005217756
-0.0020226603
0.001767638
0.0030318398
0.002172426
0.0015839103
0.0015975743
0.001285995
-0.0025708817
-0.0052685016
-0.002714388
0.0011735329
0.0048695137
0.0049961326