0.0010907559
1.09489E-4
-0.0019719352
-0.002357051
-9.218514E-4
0.0010391071
2.3754618E-4
-4.8080445E-4
0.002337394
0.001631855
-6.1865477E-4
-4.994537E-4
-0.0011892918
-5.1592337E-4
-0.0012206257
-0.0030743282
-0.0019101298
-0.0021091609
-8.8106684E-4
0.0022277639
8.634873E-4
-8.254678E-4
-7.3855603E-4
-7.6241663E-4
4.4944263E-5
8.275816E-5
-6.280248E-4
-4.53652E-4
8.587757E-4
0.0016112516
9.618823E-4
0.0013597894
0.0013247887
1.779282E-4
8.639257E-4
8.6272106E-4
-5.053162E-4
-3.1755917E-4
-1.9117865E-4
-9.257871E-4
-5.303318E-4
0.0010843235
0.0016782873
1.7428731E-4
2.2446817E-4
0.0026942454
0.0021048223
-8.1183464E-4
-0.0011430933
-9.0142514E-4
-0.0011609101
1.748514E-4
8.351012E-4
-1.2440167E-4
-7.989543E-4
-5.1969104E-4
0.0014557975
0.001900333
-0.0012358923
-0.0024238003
-0.0013389639
-0.0011642509
-2.440675E-4
4.1407453E-5
-2.948551E-5
8.999846E-4
5.2747273E-5
0.001303299
0.0015921075
-0.006066466
-0.008522883
-0.0025616754
-1.12620626E-4
0.0013855213
0.0025489265
9.0265163E-4
0.0013055988
0.0022067295
0.0015448772
0.0012890999
0.0012862365
0.0017819159
0.0036690147
0.0062360307
0.0055246307
0.0021068505
7.081931E-4
-0.0010529547
-0.003334782
-0.0026461065
-0.0015784239
-8.648176E-4
5.090199E-4
5.478231E-4
-6.6119153E-4
-0.0019884736
-0.0026642347
-0.001998442
-9.742175E-4
-4.5477043E-4
-0.0010527057
-0.001966114
-0.0017474706
-0.0020685364
-0.001971785
-2.6686263E-4
-5.275963E-4
-0.0011203587
1.052087E-4
0.0011925873
0.00256572
0.0035136666
0.0043122172
0.0032406652
-4.1187418E-4
-1.4055382E-4
1.6008217E-4
-0.0016931075
2.737909E-4
3.815697E-4
-4.4020897E-4
1.9618848E-4
-0.0019472644
-3.5300892E-4
0.0017992129
1.21808094E-4
0.0010196929
7.5772044E-4
1.1378227E-4
8.879895E-4
7.0310773E-7
0.0019106502
0.0026157268
4.0812687E-5
-8.3945255E-4
-0.002128203
-0.0010849774
7.1818184E-4
-5.843496E-4
3.0792243E-4
2.3582728E-4
-0.001814889
-3.822296E-4
6.304641E-4
-5.473647E-4
-0.001070016
-6.331574E-4
-9.656151E-4
-0.0029088275
-0.0025564479
-8.7317295E-4
-9.3374215E-4
4.440742E-4
0.0012836193
-5.559659E-4
-7.5293344E-4
5.955246E-5
6.507851E-5
0.0014374176
0.0025679737
0.0016879949
0.002130272
0.0034169455
0.0026938212
0.0017794679
5.7145226E-4
-0.0010603599
-0.0014677577
-9.145269E-4
0.0011831893
0.0012693297
-0.0017152278
-0.0011890588
0.0012620442
0.0010696468
-0.0011477001
-0.0035956434
-0.0029719507
-0.0012131003
-0.001051346
-0.0012442431
-0.0014965725
1.6248714E-4
0.0015208082
-2.5744934E-4
-0.0016615421
-0.0021383138
-0.0013648961
5.4387155E-4
0.0014436761
0.0025701397
0.0030624354
0.0025288633
0.0021157395
8.2311966E-4
-2.0560403E-5
-1.1199544E-4
-1.2519048E-4
-1.0451817E-4
-8.236629E-4
-8.1429933E-4
8.982943E-5
0.0013598398
0.0020083073
-1.1389814E-4
-0.0011693954
4.639457E-4
4.76036E-4
-0.0010635506
-0.0020524038
-0.0014390744
-6.171246E-4
-6.778062E-4
6.033799E-4
9.6755044E-4
4.099207E-4
0.0013409796
-1.7393842E-4
-2.7081737E-4
0.002230298
-0.0019496115
-0.0053399485
-9.409204E-4
0.0011358053
-2.5961539E-5
3.3092214E-4
0.0017118792
0.0029498485
0.0021323636
5.1834976E-4
-6.8751845E-4
-0.0010886494
3.457747E-4
8.0118433E-4
-2.8264594E-5
3.3804786E-4
0.0013809672
0.0010055554
-9.5081073E-4
-0.0018536268
-0.002453359
-0.0023836026
5.9600105E-4
0.0019675975
9.84885E-4
8.156359E-4
2.356803E-4
-7.950595E-4
-0.0018294462
-0.0019820281
-0.0014734055
-0.0012918456
0.0010272829
0.002702198
9.029361E-4
-1.4924812E-4
-3.07275E-4
-6.941986E-4
3.0917322E-4
0.0017509356
0.0015713072
-2.0487166E-4
-4.0572474E-4
0.0016490588
0.0015593069
-8.150946E-4
-0.0011875072
2.733574E-4
0.0016859564
0.0027572068
0.0011282691
-0.0016344739
-8.430836E-4
-6.2122074E-4
-0.003448941
-0.002953271
-3.031189E-4
-3.596672E-4
-7.418007E-5
0.0013338279
0.0020570755
0.0031587938
0.0025917864
4.7402375E-4
1.0204611E-4
-2.5714544E-4
-0.0013165923
-0.0027598012
-0.004388101
-0.0032799994
-0.0017024648
-0.0018260321
-8.313543E-4
4.7986026E-4
0.001415795
0.0016583169
-5.721858E-4
-0.001589388
6.9829763E-4
0.002163959
0.0018488333
0.0018472826
0.0024768745
0.0020917705
-5.5391993E-5
-6.3765695E-4
0.001538576
0.0023919654
6.881942E-4
-6.2108197E-4
9.359116E-4
0.00344979
0.0034541497
0.0020961654
-9.769534E-4
-0.004594282
-0.0034839946
-0.0010470771
-1.04996034E-4
-4.1685306E-4
-0.005500943
-0.008066325
-0.0033348287
-1.3489861E-4
-1.4942948E-4
-9.5664465E-5
6.139075E-4
0.0017192839
0.0012569148
-2.4355252E-4
-4.3337137E-4
0.0011812719
0.002322179
0.0023801955
0.0028835835
0.0014306647
-7.2360627E-4
-1.6430453E-4
-1.7576554E-4
-0.0010224729
-4.9142103E-4
-5.332254E-4
-6.642127E-4
0.001394098
0.0028043103
8.562683E-4
-8.0219185E-4
-2.8403048E-4
2.1096718E-4
-3.8999302E-4
-0.0014837129
-6.7950867E-4
6.8960007E-4
6.884146E-4
0.0010176457
1.8233091E-4
-0.0011125187
-4.6964674E-4
3.2783847E-4
4.1416637E-4
-2.5152255E-4
4.2427337E-4
0.0028893815
0.003050739
6.066354E-4
-0.0022052135
-0.0033410846
-0.0030797664
-0.0029428853
-0.0022177154
-0.001936077
-7.580685E-4
6.4979505E-4
-5.347502E-4
3.3494274E-4
7.8323466E-4
-0.002287093
-0.0020255952
3.4131773E-4
0.00170404
0.0018427975
-2.8425771E-5
2.1664183E-4
0.0029103826
0.005439103
0.00527922
8.53769E-4
-0.0018929166
-0.0011461639
-3.3615678E-4
5.283717E-5
-7.904168E-4
-5.538099E-4
0.0015028587
0.0015649591
4.6055685E-4
5.13076E-4
-2.2146794E-4
-0.0033261685
-0.004813296
-0.0025804178
-0.0010301343
-2.531062E-4
0.0012569195
6.605614E-4
-8.0128777E-4
4.8124904E-5
6.254809E-4
-0.0011713335
-0.0011012288
0.0012895479
0.0013995873
0.0013871295
0.0024309452
0.001259288
4.1927816E-4
0.0012191581
4.213045E-4
-0.0015481873
-0.0014514616
0.0010827907
0.0027678392
0.0024708204
0.0013938536
-4.0996048E-4
-0.0017483361
-0.0020873756
-0.0023881032
-0.0021238602
-0.0023579162
-0.0034851432
-0.002082702
2.6434267E-4
1.4098285E-4
0.0010557276
0.0025446415
0.0013222068
7.1429915E-4
7.6359045E-4
5.611264E-4
0.001604811
-1.12495705E-4
-0.0029482532
-0.0015909917
1.8118536E-4
5.985477E-5
-9.5050415E-4
-0.0017315835
-8.689048E-5
0.0012322534
0.0014060877
0.00311367
0.0040457603
0.0017768866
-0.0012665285
-0.001188418
-6.390983E-4
-0.0030224454
-0.0034943859
-9.1800344E-4
0.0020399531
0.0036697653
0.0015768457
2.80425E-4
0.0016487968
0.0020174424
0.0014985857
-7.3148427E-4
-0.0014597931
-1.9408251E-5
-0.0011859839
-3.7471706E-4
8.054138E-4
-0.0022880412
-0.0020877237
-3.5275304E-4
-0.0015729476
-4.483165E-4
1.5642082E-6
-0.0031752868
-0.002556195
7.022467E-4
-0.0010234044
-0.0025152212
0.0010164885
0.0018706992
-5.2994996E-4
-3.2233007E-4
3.3999956E-4
-5.943802E-4
-6.814806E-4
4.4608812E-4
0.0010761494
0.001968418
0.0031775986
0.0012401737
-9.6556457E-4
6.831899E-4
0.0013045443
4.394868E-4
0.001966141
0.0028500666
0.001565332
7.531585E-4
0.0010942793
0.0012251374
1.4346473E-4
-1.3855076E-4
-9.37984E-5
-0.0014038085
-0.0011950114
-0.0013772182
-0.0031423208
-0.0016503542
-4.6695207E-4
-0.0022560968
-0.0027491504
-0.002494191
-0.0015015726
-3.2107977E-4
-0.0011984456
-0.0012907003
2.2983133E-4
7.030623E-4
-1.8815043E-4
1.759171E-4
0.0017290893
0.0016095034
0.002002139
0.0020024993
7.6470536E-4
0.0030262428
0.0032612404
-6.760996E-4
-0.001710681
-0.0017999578
-0.0020624895
-0.0012627714
-1.9710477E-4
0.0011778983
7.5633865E-4
0.0013519175
0.002427985
2.0747776E-4
-3.4460405E-4
-9.320416E-4
-0.0037423302
-0.0030164446
-8.0212066E-4
-4.9153663E-4
-8.855388E-4
-2.9192708E-4
0.001815092
0.0035827374
0.0046247435
0.002682539
-0.0012789234
-0.0013542704
-9.396665E-5
-3.2773806E-4
3.030009E-4
5.441436E-4
-6.3254574E-4
-0.0014370974
-3.9108255E-4
0.0010290472
0.0010869164
7.861365E-4
-5.251927E-4
-0.0028528424
-0.0031827514
-0.0010929123
1.4865096E-4
-5.0258345E-4
-3.822929E-4
-9.0697856E-4
-0.0021863936
-4.848379E-5
0.001073672
-6.9713837E-4
-5.902229E-4
-0.0014628649
-0.0017024421
0.0012400976
7.685068E-4
-0.0011273015
-6.8835536E-4
-3.42826E-4
8.638337E-4
0.001035823
8.6410384E-4
0.003095792
0.0036743802
0.0051035467
0.0070075216
0.0019044885
-0.00433128
-0.006370319
-0.006233057
-0.0033811533
-8.798614E-4
9.837322E-4
0.0032445183
0.0033790981
0.0026473338
-2.8035733E-5
-0.0030020096
-0.0015554018
-0.0010255541
-0.003197359
-0.0029437616
-9.91622E-4
2.3605827E-4
2.243535E-5
-0.0011618922
-0.0014394202
2.4721812E-4
0.0013884312
0.0010137475
0.0027943186
0.0040155463
0.0021543314
0.0020152042
0.002877795
0.002400661
6.916194E-4
-0.0017991511
-0.0023633458
-0.0014501897
1.21632256E-4
8.9156517E-4
-1.808783E-4
6.944027E-4
0.0010591865
-0.0012662031
-0.0024606057
-0.0042141955
-0.0058061173
-0.004233267
-0.002349813
-0.001583117
-0.0018539687
-0.002105971
-8.712845E-4
-8.870094E-4
-0.0023009533
-0.0018742058
-9.5097255E-4
-0.001968497
-0.0019515058
0.0013298558
0.0032938237
0.0037495159
0.006305582
0.006713936
0.0047392678
0.004045325
0.0030357311
0.0035066665
0.0038275735
0.0014302583
9.2537113E-4
0.001434739
0.0028260443
0.0047776927
0.0024160217
-1.5816322E-4
-1.02583064E-4
5.489336E-4
0.001336441
0.0015149564
0.0022352678
6.155154E-4
-0.0011792894
1.0801395E-4
-0.0018717931
-0.0030785787
-0.002290994
-0.005342523
-0.007574573
-0.008156588
-0.007255556
-0.006748794
-0.008835281
-0.0087623885
-0.010809753
-0.0119707985
-0.007328082
-0.004921511
-0.0031088188
-0.0043809465
-0.006938249
-2.9498886E-4
0.004136955
0.002615183
0.0028736542
0.0037610196
0.007159238
0.0104727
0.015128979
0.020757109
0.018272178
0.015615658
0.017007966
0.016789539
0.015973601
0.012459661
0.009682942
0.008255021
0.003246591
-0.0020380446
-0.009997671
-0.018157812
-0.018813537
-0.01672196
-0.014430179
-0.012590683
-0.011855021
-0.010638156
-0.012136665
-0.013382796
-0.00949928
-0.0029587215
0.001084726
-8.6852245E-4
-0.0026626145
-9.1341307E-4
6.431644E-4
0.0020560836
7.599269E-4
-0.0016716162
3.2280663E-5
0.0027434137
0.00391862
0.0043399087
0.003935958
0.0026196549
0.003205304
0.0065073725
0.0066791754
0.005711537
0.006331489
0.0052521653
0.0040251077
-0.0011582933
-0.006312993
-0.0026971498
-0.0016121628
-0.004231173
-0.0029484136
-0.001283649
0.0036421148
0.008906075
0.009230244
0.010576338
0.012759003
0.014013221
0.013860428
0.009726788
0.0034855942
-0.0028738445
-0.007207252
-0.0085858395
-0.010094305
-0.012962309
-0.015246717
-0.015550997
-0.016575515
-0.019385498
-0.019991506
-0.017417021
-0.014302573
-0.010338018
-0.0020717143
0.007889782
0.014247479
0.019752216
0.024982791
0.024469223
0.017894957
0.011444347
0.008915282
0.005904768
0.0010320235
-0.001695894
-0.0021445756
-5.1107514E-4
0.0013491922
0.0027565423
0.0052757156
0.0010816411
-0.011235824
-0.018677374
-0.02017741
-0.021877777
-0.018282712
-0.010825521
-0.012043177
-0.018990505
-0.019753104
-0.013824723
-0.0064325505
-0.0011213213
0.003006809
0.0075692255
0.013177081
0.021290764
0.028498245
0.036619585
0.050040074
0.06459028
0.07336893
0.054366447
0.011806154
-0.0056989947
-0.0118112685
-0.04888074
-0.07546554
-0.059093013
-0.034623995
-0.020552855
-0.01113346
-0.0074839685
-0.007686954
-0.0054086302
-0.0030640855
-0.005019664
-0.0060092066
-0.0061663277
-0.009392467
-0.008739171
-0.0017335153
0.004998259
0.009841572
0.014707844
0.01804162
0.018742627
0.018385824
0.016238363
0.0133985635
0.011478105
0.0073886495
0.0029492122
4.337481E-5
-0.0050950265
-0.010846703
-0.014689073
-0.017197473
-0.016836997
-0.014473759
-0.012840622
-0.010539145
-0.00664368
-0.0049487255
-0.0054473896
-0.003087112
0.002751492
0.009184339
0.01333844
0.013993386
0.012396925
0.0082526365
0.0041129016
0.004879983
0.007673865
0.007782055
0.005547944
0.0015621248
-0.002853187
-0.005053906
-0.0064934622
-0.010027155
-0.011048464
-0.005610953
-0.0015188112
-0.0042718677
-0.009950835
-0.015071747
-0.014346895
-0.0077872262
-0.0035233286
9.4908883E-4
0.0059483927
0.0033655907
2.8993934E-4
0.0014141469
-7.524508E-4
-0.0054351795
-0.010045228
-0.013453295
-0.014702803
-0.011445259
0.003365872
0.021246111
0.031755805
0.04123961
0.048602436
0.05089749
0.049300566
0.042217948
0.03443573
0.022775572
0.002789198
-0.017488291
-0.03487911
-0.051519267
-0.07135378
-0.089622185
-0.09676803
-0.09336055
-0.07655088
-0.049932003
-0.017653475
0.02463461
0.06560196
0.09736387
0.11862905
0.1259794
0.12128262
0.10561846
0.09191752
0.075250044
0.043297075
0.016295776
-0.008433918
-0.037358902
-0.05439914
-0.06730041
-0.08092178
-0.088904835
-0.0901969
-0.08177821
-0.06876145
-0.060498703
-0.055096727
-0.04532076
-0.045923654
-0.06625168
-0.09747166
-0.13580021
-0.13903329
-0.08626712
-0.020230202
0.049430475
0.118554115
0.17081264
0.22263482
0.27073586
0.2842503
0.27081993
0.241388
0.14755683
0.019374497
-0.049135346
-0.09283329
-0.1358122
-0.1508517
-0.18075898
-0.21755971
-0.21521458
-0.17074959
-0.109579876
-0.06542204
-0.022474146
0.020535102
0.04677938
0.073629335
0.095063165
0.0961015
0.07723656
0.0838966
0.13696812
0.14097898
0.06515602
-0.011028072
-0.039719228
-0.033957835
-0.040510595
-0.0556641
-0.07055513
-0.11876282
-0.17112035
-0.17979716
-0.1429773
-0.06633616
0.029178536
0.08183102
0.050864123
0.0013376144
-0.024725102
-0.07119805
-0.11983819
-0.12591429
-0.077935226
0.014130901
0.099537
0.17424883
0.2631253
0.33993438
0.37887642
0.3612522
0.2899006
0.19908358
0.10133122
-0.008388347
-0.1314287
-0.24355885
-0.32251608
-0.35847235
-0.31293294
-0.22525676
-0.17643382
-0.13000393
-0.051198542
0.023822736
0.040030647
-0.02183031
-0.08157636
-0.1061264
-0.110676974
-0.055586603
0.028894603
0.08689566
0.102490254
0.07241632
0.046032567
0.042158432
0.05437688
0.087171204
0.1157237
0.132242
0.13400723
0.14043073
0.1502032
0.11271736
0.07071114
0.043917205
-0.0120267235
-0.04589921
-0.038959794
-0.03901615
-0.04505984
-0.045397133
-0.05561408
-0.08122295
-0.088037595
-0.08076909
-0.0916113
-0.09312147
-0.064819135
-0.021925148
0.0070943856
0.00854548
0.005459148
-0.0014244627
-0.014418269
-0.028254444
-0.045182917
-0.03743534
-0.01091089
-2.692095E-4
0.0061240788
0.018284822
0.026954101
0.034751803
0.043497365
0.04056664
0.030526368
0.038726147
0.053489644
0.052710697
0.04497348
0.033663616
0.02115322
0.014739138
0.009266919
0.0047637504
0.0051248437
0.0032698817
-0.0014519055
-0.005018942
-0.010457065
-0.010558592
-0.0044183335
-0.0036822793
-0.005027992
-0.010846782
-0.024227291
-0.029533904
-0.026563708
-0.024947379
-0.023210092
-0.019496853
-0.013727025
-0.00850181
0.0010757328
0.015393715
0.014230205
0.0010504591
-0.0025637753
5.623543E-5
0.004308548
0.0092897955
0.010426842
0.008338044
0.01139339
0.03977979
0.07153019
0.07063074
0.060089763
0.032190215
-0.029377336
-0.06716279
-0.06290779
-0.04757291
-0.027685467
-0.011693585
-0.006562763
-0.008768194
-0.0179684
-0.03301152
-0.036517154
-0.020760506
-0.02091757
-0.033907823
-0.026150417
-0.018695867
-0.01348891
0.0029945225
0.013187106
0.024897236
0.03358361
0.028532293
0.030371167
0.020164255
-0.016675407
-0.03916414
-0.03159458
-0.016219841
-0.003570578
0.013416754
0.029173538
0.03118389
0.03201645
0.040047623
0.04891759
0.055339172
0.047733475
0.028722582
0.010295264
-0.008183056
-0.012539579
6.254579E-4
0.008907179
0.0073557575
-0.0017174459
-0.015916532
-0.024108313
-0.025398867
-0.021264272
-0.015103694
-0.015601947
-0.012041496
-8.8123814E-4
-0.0022533531
-0.009069222
-0.01251985
-0.03705018
-0.068560846
-0.06826837
-0.048088837
-0.028109169
-0.010190375
-7.903731E-4
0.0027884624
0.003969983
0.0031736877
0.0075477613
0.014614814
0.018253278
0.019032925
0.01660487
0.0132659245
0.013663766
0.016501639
0.016997296
0.013435974
0.007819303
0.0050866595
0.0040356414
0.0012654775
0.0056523345
0.015225405
0.018030861
0.02002834
0.02114727
0.015643675
0.011920383
0.010483426
0.007233562
0.003931591
8.094828E-5
-0.0019880584
-0.001486151
-0.004435978
-0.009343359
-0.0068969107
-0.0023528375
-0.0048784222
-0.005920988
-0.0037594165
-0.0028274457
0.0018077758
0.0047990005
0.005346447
0.01085587
0.009364396
-0.003457258
-0.014727406
-0.023153162
-0.026908698
-0.022780789
-0.019010777
-0.015341912
-0.00835834
-0.003221277
0.0015531023
0.0047096927
0.002660676
0.0016293259
0.002591928
0.003259917
0.004603252
0.0052738213
0.003945363
-7.1327033E-4
-0.005231022
-0.0052492535
-0.003670766
-0.002972367
-0.003668355
-0.004265461
-0.0037224512
-0.006289239
-0.013816133
-0.019267177
-0.01186772
0.004333943
0.013714553
0.014003791
0.013580984
0.015446831
0.012631451
0.0083641065
0.015883263
0.02661948
0.033140562
0.036950298
0.028445829
0.018624807
0.019870732
0.017815407
0.011019355
0.007617962
0.0036477693
-0.005013363
-0.018122194
-0.032087196
-0.039416503
-0.035484362
-0.02615534
-0.01798529
-0.01296334
-0.011878475
-0.01359946
-0.022401309
-0.034321424
-0.037766915
-0.032567363
-0.016731367
4.3910343E-4
0.005749744
0.012563022
0.023160629
0.02835008
0.031377733
0.027912851
0.017814897
0.0111891255
0.010702781
0.009427349
0.002152113
-0.0030944438
-0.0040058303
-0.0036501375
0.0013612693
0.0038155208
0.0020282648
0.0035474796
0.0015892029
-0.0043597952
-0.005173448
-0.0029975849
-0.0010854322
7.040317E-4
0.001470212
0.0022020547
0.0017241511
6.070013E-4
0.001965838
0.002857325
0.002326224
0.0021163118
0.0029069998
0.0064099296
0.006332621
0.0015694323
-2.1634842E-4
-0.0024153753
-0.0053857495
-0.00515457
-0.004622249
-0.004449058
-0.0064074188
-0.008522426
-0.005883666
-0.002126717
1.9022787E-5
1.4570917E-4
-6.8184204E-4
-5.7948416E-4
-0.0011123316
-0.0013598034
-0.0018954107
-0.0029067816
-0.0020703143
-0.0015930106
-0.0017043159
-0.002761508
-0.003970953
-0.0023821574
-0.0023305072
-0.002114983
0.0030701258
0.0069560665
0.007435352
0.008778152
0.009093492
0.006205141
0.005778137
0.0059038377
-2.9953496E-4
-0.002717278
0.0019649859
0.005398372
0.009406468
0.007792888
0.0017532269
0.0064250724
0.010060304
0.0017260753
-0.0025918668
3.3031584E-4
-0.0017484968
-0.009686751
-0.014939105
-0.013762261
-0.010408579
-0.009886194
-0.011083707
-0.009558056
-0.0069829463
-0.0071574175
-0.006024171
-0.0015438128
-2.5512578E-4
-0.0012047257
0.0017217714
0.0039375955
0.0039849696
0.0052599553
0.0034007498
0.0014826198
0.0039031436
0.004808991
0.0057386323
0.008889422
0.010455194
0.01112564
0.011316936
0.0109701855
0.009152824
0.0041128583
-3.6946952E-4
-0.003341746
-0.0073581287
-0.010862244
-0.011201643
-0.0068848515
-0.0018637413
-0.001548184
-0.0021703865
-7.5941015E-4
-0.0023430716
-0.005988909
-0.00417396
9.580324E-4
0.0018806758
0.0020682805
0.0048246584
0.005095823
0.005647163
0.0076729874
0.0053181928
0.0033116885
0.0028189921
-6.638285E-4
-0.0029480434
-0.004015777
-0.0048090634
-0.0048469333
-0.0068105287
-0.007359509
-0.0061908644
-0.0049342737
-0.0033674878
-0.00532932
-0.008709615
-0.011360033
-0.012291729
-0.010811025
-0.010669505
-0.0024489388
0.012586441
0.015896132
0.013627585
0.014611599
0.01371614
0.012067197
0.010432907
0.008814204
0.006935521
0.0050292546
0.004952294
0.0040769493
0.0032189765
0.002724707
-1.7471703E-4
-0.0035191514
-0.0053136866
-0.0053463266
-0.006271585
-0.0068666786
-0.004441157
-0.0035977024
-0.0025702296
-0.0016536401
-0.005530865
-0.0073118852
-0.006006974
-0.006386077
-0.0053591393
-0.001998779
3.236283E-4
-2.7974232E-4
-0.001445902
-0.002510108
-0.003881965
-0.0019218366
0.003104191
0.0076149087
0.008602891
0.009365327
0.012715125
0.008474803
-0.0017018536
-0.009384447
-0.015513804
-0.012115992
-0.0029884
8.5068814E-4
0.004892352
0.0080399625
0.011046158
0.015747344
0.013669025
0.008466378
0.0028836962
-0.001769958
0.0023136183
0.004883557
-0.0018363959
-0.007088334
-0.0071832696
-0.007740809
-0.011704718
-0.0139230825
-0.0106518995
-0.007047094
-0.0051017115
-0.0024330625
7.237106E-4
0.0024290413
0.002485667
0.0030085398
0.0040805
0.0034235928
7.0962677E-4
-6.445537E-4
2.5811163E-4
-3.3729893E-4
-0.00121727
-6.0464133E-4
-2.7511374E-4
0.00264541
0.006818563
0.0071337097
0.0069809146
0.0076265726
0.0067312354
0.0063544633
0.005668896
0.002575855
-0.0023299989
-0.007286358
-0.00851154
-0.0073451055
-0.00684187
-0.005295131
-0.004060907
-0.0026762055
7.61907E-4
0.0016329082
0.0010787774
0.0032318532
0.0039854436
0.0023200253
7.6851103E-4
-9.19011E-4
-9.426256E-4
-9.043261E-5
-0.0017138952
-0.0036283752
-0.0041188663
-0.0034823841
-8.6077343E-4
0.0011372559
6.653154E-4
-8.0790784E-4
-0.0020321843
-0.0011797098
-1.8679701E-4
-1.14089205E-4
0.002165557
0.0027049924
5.772436E-4
0.0015578086
0.0012533341
-0.0021150974
-0.002378826
-0.0014359928
1.150175E-4
0.003101815
0.0027291593
0.0020770137
0.0038013929
0.002756856
3.4828234E-4
-1.9961024E-4
-8.6231536E-5
-5.060165E-4
-8.942121E-4
-2.8910922E-4
-6.02131E-4
-1.106779E-4
0.0022855988
0.0018402812
-6.3051535E-5
-9.558431E-4
-0.0012805365
-8.354704E-4
-7.7445037E-4
5.986901E-4
0.0010310686
-9.896331E-4
-5.545785E-4
-0.0011159944
-0.003765213
-0.0041618734
-0.004535398
-0.004868298
-0.004063421
-0.0026250225
-5.2407984E-5
0.0030684236
0.006254434
0.008122376
0.0076652374
0.0052173054
0.0026974054
-0.00224686
-0.010224249
-0.008532227
-6.433163E-5
0.004776107
0.012392373
0.012440422
0.0017615029
-3.3352035E-4
-2.657077E-4
-0.004415747
-0.0032992146
8.4461085E-4
0.0060828226
0.008866904
0.003468881
-0.0056046764
-0.012754685
-0.013520746
-0.008180886
-0.003759361
-0.0024737467
-0.0024098416
-0.0017043587
8.976057E-4
0.0032754669
0.003198276
0.0015340279
-3.9307142E-4
-0.0018930567
-0.0012402622
0.001361757
0.0013515451
-8.1251585E-4
3.5704614E-4
0.0023838484
0.0013354922
-6.753754E-4
-0.001733334
2.498307E-4
0.003657625
0.0038807162
0.0027203555
0.0033357185
0.0047162585
0.004564335
0.0026805063
0.0010420808
0.0012225463
0.0026916824
0.0015350928
-0.0011380684
-0.0010789743
-8.90019E-4
-5.1597273E-4
4.247299E-4
-2.1990649E-4
-6.90784E-4
-0.0023741624
-0.0042391093
-0.004442975
-0.004566741
-0.0022415302
-3.056262E-4
-3.3694124E-4
-0.001204268
-0.0049756835
-0.005249764
-0.0030171718
-0.0027830242
-5.2200412E-5
-3.3971548E-4
-0.0019522593
0.0023861392
0.0036097025
0.0016275039
0.002319669
0.0011141987
1.2463561E-4
0.0022901397
0.0016006731
-7.730825E-5
0.002364313
0.003322803
0.0017985663
0.0011951514
1.249061E-4
6.220698E-4
6.9492235E-4
-0.0016227881
-0.0020662989
-0.0014146885
3.6223695E-4
0.0016851965
0.0015044052
0.0035186352
0.0037777082
0.003323786
0.004150938
0.0017838938
0.0016400066
0.0026032294
-8.2464423E-4
-0.0028734866
-0.0017328842
2.2516931E-4
1.7831392E-4
-8.915844E-4
-4.5402691E-4
-0.00226726
-0.0036973967
-0.004348701
-0.006410745
-0.0044839424
-0.0033454038
-0.0032410906
2.0482647E-4
-0.0022789265
-0.0065188594
-0.004492135
-0.0016251196
8.2043244E-4
0.0021055795
0.0042173876
0.0072578955
0.0060404306
0.004400481
0.0021264674
-0.0011938071
-7.316517E-4
-3.386914E-4
0.0022883299
0.0067515573
0.004710234
0.0031080483
0.0040374235
0.0013871598
-4.873397E-4
-0.0015058899
-0.003199456
-0.0041972506
-0.007059083
-0.0072209015
-0.0025417919
-4.0754816E-4
0.0010759806
0.0031203975
0.0016366683
0.0018707335
0.0028409907
6.749953E-4
9.2789304E-4
0.0020113655
0.0015859832
7.873328E-4
-1.5388493E-4
0.0020703
0.0027888592
5.2731927E-4
-2.7527742E-4
-0.0011523511
9.893907E-4
0.0028534571
0.0015573555
-4.008461E-4
-0.009177165
-0.012559559
-0.0048267827
-0.003460392
-0.0028327967
-4.2766798E-4
-0.002900287
-0.001748932
-0.0010209059
-0.0029286193
-7.264649E-4
4.783227E-4
-6.532141E-4
-5.660117E-4
0.0012626852
0.00231399
0.0016543042
0.003806225
0.0064403494
0.0079500945
0.010342609
0.009613418
0.0075411694
0.0064111515
0.0031385205
-1.3476019E-5
-9.554554E-4
-0.001204012
-0.0017711712
-0.0027017482
-0.0041609597
-0.0062255533
-0.006023195
-0.0036215428
-0.002744655
-0.002200194
-1.2098073E-4
0.0015962292
0.002673933
0.0038528491
0.0031737804
0.0013960631
0.0015737914
0.0013670422
-2.6188578E-5
-8.8083744E-4
-0.0037454984
-0.0059039565
-0.004097697
-0.0042216904
-0.0065457188
-0.007213647
-0.008103491
-0.008136615
-0.0058360514
-0.0038375424
-0.0031718682
-0.002609533
-6.858586E-4
5.708841E-4
5.148636E-4
0.0012205023
8.239008E-4
0.0010116217
0.003153261
0.0042216983
0.006804211
0.011482863
0.016786404
0.022622297
0.025653189
0.025800508
0.02190966
0.012150908
7.2099804E-4
-0.0077064657
-0.008406702
-0.004675593
-0.006305926
-0.013528676
-0.020299984
-0.021101281
-0.017788617
-0.016374065
-0.014649133
-0.011678268
-0.00873734
-0.0045078513
-0.002334519
-0.0017848156
2.536377E-4
5.451186E-4
-7.348126E-5
0.0011768461
0.0020188408
0.0031180305
0.0057865866
0.007857101
0.009424738
0.011684928
0.013045388
0.011530865
0.009023579
0.008332631
0.0074344007
0.0040828264
-5.377017E-4
-0.0042076847
-0.0054285536
-0.0059150313
-0.006332057
-0.00575306
-0.0055823135
-0.0045423163
-0.0021119262
-0.0010147829
-8.8960497E-4
-0.0013940939
-0.001320498
5.2096834E-4
0.0019092589
0.0028728205
0.0021544232
-5.4171204E-4
-6.535662E-4
7.371477E-5
-0.0011459447
-0.0020982444
-0.0023590801
-0.0012976002
9.3134976E-4
0.0017412158
3.9325017E-4
-2.4279316E-4
9.3716616E-4
-5.0202812E-5
-5.3246034E-4
0.0016167422
-2.947628E-4
-0.0017294431
0.0015269269
0.0030663032
0.0031306536
0.0014011238
-3.1925397E-4
1.773147E-4
-0.0014318265
8.048388E-4
0.004043025
5.593094E-4
-0.0011485434
-0.004720197
-0.007974453
-0.0010946592
0.002173776
2.228005E-4
-0.0011662055
-0.005470123
-0.003868986
8.367499E-4
0.0010203124
0.0021740533
0.0015828896
1.4642293E-4
0.0020586022
0.0017967873
5.5006156E-5
0.0014555167
0.0027176265
8.7051565E-4
4.005383E-4
6.691168E-4
-0.0018486213
-0.0011476383
0.0010248777
-7.6573505E-4
-0.0016964978
-0.0014210449
-4.2168662E-4
0.0020377296
0.0025668186
0.0018785984
0.0017024544
0.003009727
0.003134375
-0.0020711462
-0.0057700505
-0.0042814724
-0.0019295256
0.0020289128
0.004506361
0.0021228893
2.9002008E-4
-1.4925771E-4
-0.0016751209
-0.0017270882
-4.2134918E-5
0.0012036614
0.0011050267
3.5001725E-4
0.0010651131
3.7276687E-4
-0.003499969
-0.004843924
-0.0028883172
-4.7383635E-4
0.0029925918
0.005020074
0.0019569078
-0.0027575234
-0.0028021804
-0.0011032871
-0.002590056
-0.0021546711
0.0017657244
0.0031348583
0.0017668203
0.0026877166
0.0048155007
0.0015465829
-0.0027303365
-0.001743248
-0.002556342
-0.004587008
-0.0023704644
-9.786587E-4
-9.854356E-4
-8.503065E-4
-0.0012241327
8.5237087E-4
0.003116034
0.0032485013
0.0025250956
3.551699E-4
-9.1097155E-4