-6.2716904E-4
-0.0012659272
-0.0022371097
-0.0035074318
-0.003894248
-0.005811837
-0.00690462
-0.0021784962
0.0017868491
0.0023187129
0.003950553
0.0019148523
-0.0030047125
-0.0035061773
-0.0013840037
-1.3700724E-4
2.6587726E-5
5.324531E-4
0.0017599319
0.0024867055
0.0031259304
0.0025285229
3.964084E-4
-6.4656395E-4
-4.6616502E-4
-5.329299E-4
-8.504529E-4
2.3072229E-4
0.0025544756
0.0037269637
0.0029387316
-7.924536E-5
-0.0044405386
-0.006609458
-0.005174433
-0.003642412
-0.0029056445
-4.5748323E-4
0.0014601039
0.0029061309
0.0053875856
0.0045828093
0.0012394065
-5.7940924E-4
-2.8600675E-4
2.2278675E-4
-0.0014362466
-0.0013492731
0.0010325894
0.0023619337
0.0040791794
0.0034675214
7.819693E-4
-3.2453568E-4
-0.0010160632
-8.757389E-4
-0.0027996458
-0.0048731547
-9.2702237E-4
0.0012716284
-0.0017947165
-0.003676474
-0.0036948274
-0.0013739895
0.0021432696
0.002546823
0.0014317984
0.0022985481
0.003304784
0.0021060866
-6.9428876E-4
-0.0037383374
-0.0042940206
-0.0033810623
-0.0029485475
1.628038E-5
0.0020884462
0.001050448
0.0020271917
0.002670335
0.0022910503
0.0026103465
-4.2736813E-4
-0.0036894367
-0.0033212702
-0.002210027
-7.2239863E-4
-7.648858E-5
-8.6929504E-4
8.95934E-4
0.0034763985
0.0023014343
4.515741E-4
-7.218965E-4
-0.0024251365
-0.0013515352
3.0218164E-4
7.587192E-4
0.0029361483
0.0027004525
8.8515924E-4
0.0010648657
-1.4630205E-4
-4.695853E-5
0.0012171189
4.5477727E-4
0.0014576659
0.0010922803
-0.0017359192
-0.0011034255
-5.325149E-5
-4.505659E-4
2.2806112E-4
1.5271959E-5
-5.085163E-4
4.683374E-4
9.2744944E-4
5.3893623E-4
1.3816055E-4
-0.0010625627
-0.0021015506
-0.002708271
-0.0044943923
-0.0044221953
-9.089288E-4
5.8761303E-4
-4.2987056E-4
-4.2942195E-4
-7.499942E-5
0.0019657158
0.0044366233
0.0012967329
-0.0033827987
-0.0036498671
-0.0027981373
-0.0016368248
1.5727711E-4
0.0010712427
0.0026132588
0.003747296
0.002803797
4.8741273E-4
-0.0018937925
-0.0012131062
5.2804744E-4
-3.0279352E-4
-3.2516374E-4
0.0021282446
0.0039155935
0.003814881
0.0029700487
3.573099E-4
-0.0039948137
-0.005005484
-0.0028289875
-0.0014208012
8.608124E-4
0.003963731
0.005125968
0.004223566
0.0028520403
0.0023272485
6.2699796E-4
-0.0020206105
-0.002077987
-0.0022305856
-0.0047157677
-0.0049821944
-0.0016264069
0.0028020744
0.0054893726
0.0025252837
-0.0036449127
-0.0060952506
-0.005272501
-0.0035592783
-9.3700096E-4
8.427801E-4
0.0026270861
0.004823822
0.0035062886
-8.873543E-4
-0.003920479
-0.004448501
-0.0032801263
-0.0010737762
1.17148185E-4
5.9835817E-4
0.0027636327
0.0034331705
0.0017744616
0.0023912364
0.0024547945
-1.9931995E-6
-4.8245315E-4
2.3827067E-4
6.5206346E-4
0.0011804155
5.5281416E-4
2.6756752E-4
0.0011733606
0.0015651605
0.001557911
0.0010186306
-9.847216E-4
-0.0030441945
-0.0022975227
-4.8102322E-4
-0.0013731915
-0.0011209239
0.0014953461
-1.2277531E-4
-0.0038681566
-0.004865902
-0.0045664166
-0.0023608445
6.667096E-5
9.0542977E-4
0.0022313884
0.003257489
0.0052663656
0.007245549
0.0058061723
0.0048371702
0.0027973836
-0.0019909744
-0.0030646017
-0.0029057325
-0.0032691462
2.6244528E-4
0.0027787746
9.862398E-4
-0.0010970173
-0.0028722028
-0.003815419
-0.0033849608
-0.003220498
-0.0010317785
0.002188054
0.0011400107
2.1430576E-4
0.0015955365
-8.0036285E-4
-0.0038156009
-0.003615165
-0.003391417
-0.0031533546
-0.0016246645
0.0014129906
0.0037736376
0.0029176236
9.3267375E-4
-0.0011146012
-0.002470733
-0.001950682
-0.001610138
-7.293586E-4
0.0013577843
0.0023388308
0.0031674085
0.004112466
0.003928298
0.0026432117
-9.491159E-4
-0.004113976
-0.0026708061
3.5307498E-4
0.0025662219
0.0055667255
0.008646223
0.009196832
0.005996469
0.0016351403
-0.0016119973
-0.0027221404
-0.0013297101
-0.0018259343
-0.003676678
-0.003589291
-0.0042585293
-0.0040910784
-0.003326441
-0.0044663628
-0.004890018
-0.007261178
-0.0084209675
-0.0023728153
0.0019972709
0.0015451933
0.0020227563
0.002984102
0.0030442318
0.0013210906
-0.00113982
-0.0024180808
-0.0034155252
-0.002187214
0.0020383487
0.0049147326
0.0062425286
0.00797222
0.00692079
0.0021088298
-0.002176248
-0.0029299369
-8.221637E-4
3.4548336E-4
-7.906567E-5
4.3488832E-4
0.0019458104
0.004026418
0.0030468933
-0.0021719432
-0.005140186
-0.0041900114
-0.0022179422
-0.0018527084
-0.0031017358
-0.002774174
-0.0013737396
0.0019683798
0.0033328459
-0.0027841274
-0.0046987296
3.1787506E-4
0.0014619443
0.0011603049
0.0016022809
0.0021045846
0.0045121904
0.003755824
-0.0012409668
-0.0041599893
-0.0030399377
-5.032619E-4
6.867463E-4
-6.119334E-4
-0.0016380398
6.542819E-4
0.003169809
0.005060468
0.006843926
0.0037147426
-0.0010828247
-0.0021375204
-0.0015148512
-1.958875E-4
-6.800828E-4
-0.0022801075
-0.0019453557
-0.0026452916
-0.0036653976
-0.003853365
-0.005226843
-0.0056589018
-0.0040849214
-0.0016438743
5.529422E-4
0.0016628423
0.0030068061
0.005285382
0.0056744386
0.0012956843
-0.0021811528
-6.9716753E-4
5.542218E-5
7.305885E-4
0.0015233546
5.249754E-4
0.004701911
0.0099257
0.008343683
0.004313121
-0.0017372504
-0.0067158295
-0.004625153
-0.0011800494
-0.0013065356
-0.0013555998
6.3875096E-4
0.0018192164
0.0018516204
1.1240154E-4
-0.0051520295
-0.0067464514
-0.0031242059
-0.0020250394
-0.0024446065
-0.001649419
8.1724516E-4
0.0031333053
0.001367519
-0.0015033024
-0.0038796456
-0.0044428445
-0.0016609832
-2.5818482E-4
0.001675568
0.004693862
0.0065203966
0.009911098
0.0074763154
-0.0021836548
-0.0077584465
-0.0075723752
-0.004515443
-0.0015936648
6.67536E-4
0.0034918052
0.0038771552
0.0048545203
0.0067504523
0.0037836963
-6.577631E-4
-0.0038008105
-0.006120822
-0.0049660187
-0.001741232
0.0012083879
0.0042662523
0.006115766
0.006040797
0.004153483
-0.0017937365
-0.008635934
-0.0106178755
-0.009763827
-0.00591445
-8.444773E-5
0.002718154
0.006244924
0.007952407
0.0026801787
-8.7034557E-4
-3.023232E-4
-6.641258E-4
-0.0017972937
-0.0014020818
7.3778076E-4
0.0014686743
0.001512517
6.24833E-4
-0.0018538737
-0.0010872787
-9.2325924E-4
-0.0031330904
-0.0013272602
0.0017674527
0.0026849
0.001899411
0.0029073171
0.0063244444
0.0029151777
-0.004574771
-0.006744539
-0.005281319
-0.0021832623
9.6144114E-4
0.004670421
0.008689849
0.008506884
0.0054578464
9.4731955E-4
-0.0031753595
-0.0039852457
-0.00433628
-0.0051225508
-0.0060602105
-0.004542783
2.471071E-4
0.0019298517
0.0014574939
-1.5195746E-4
-0.0038511604
-0.004338446
-0.0032843933
-0.0022564968
2.5707766E-4
0.0010211293
0.0023360979
0.005758841
0.0066507156
0.003872341
6.454386E-4
5.4265646E-4
0.0025148974
0.003171144
0.0016348604
7.6252007E-4
0.002737474
0.0025250183
-0.0017654507
-0.0052187867
-0.0069818753
-0.007307451
-0.0053009624
-0.0026195934
-6.7161495E-4
0.0010642998
0.0032849004
0.0051569683
0.005247928
0.0032653643
-4.5058114E-4
-0.0040448983
-0.00496319
-0.004053272
-0.0018101763
0.0027258494
0.0064583663
0.00880117
0.008585487
0.0027485178
-0.0010370737
-0.0014010082
-0.0031198277
-0.0011423272
0.0010143996
1.5770482E-4
-0.003109192
-0.012825133
-0.013896074
-0.0033899564
-0.0020132852
-0.0040119016
-0.0011926311
-0.0011559118
-2.4637952E-4
0.0032780236
0.0067993775
0.009968809
0.007479847
6.586029E-4
-0.0026899502
-0.0020840284
-7.0996996E-4
2.2877796E-4
-5.735897E-4
-0.0011646207
0.0027762698
0.0077970903
0.009080362
0.007926706
0.0036756105
-0.0012961793
-0.0020749816
-0.0016782131
-0.001241604
-5.9663714E-4
-0.0017915145
6.04819E-4
0.0035676195
-0.0019928422
-0.00884085
-0.011290156
-0.009753769
-0.0033616757
5.1984034E-4
0.0011916336
0.0034916936
0.0036181554
0.0021617375
6.210788E-4
-0.003274281
-0.0058077965
-0.0040905615
-0.00216336
-0.0028528378
-0.0019552505
0.0016354858
0.003621451
0.0042138887
0.0022556528
-0.0031033356
-0.0053002485
-9.990318E-4
0.005030375
0.0072452324
0.0064297956
0.0054714875
0.003872262
0.0029253932
0.0038596746
0.0035348444
1.6232318E-5
-0.0022409887
-0.0011069222
-9.2247064E-4
-3.1173506E-4
0.0017086162
0.0025455889
0.0033932172
9.0593577E-4
-0.004595968
-0.0075917784
-0.0075657344
-0.002740559
0.0019419328
0.0013832657
6.048189E-4
-7.923228E-4
-0.0018348504
-0.0010094092
-0.0035235689
-0.0055996305
-0.0037631732
-0.0021865973
-0.0014090233
-7.145714E-4
0.0018471698
0.0058715343
0.0058893813
0.0022406136
-6.3774566E-4
-0.0023604543
-0.0030509809
-0.0017312631
4.966673E-4
0.002266314
0.003233892
0.0038002387
0.0045543164
0.00351296
9.392017E-4
-0.0014634968
-0.0040540136
-0.003248431
4.3089598E-4
0.0021475563
0.0028765255
0.0032514445
0.003746136
0.0024702023
-0.0016864425
-0.0029975097
-0.004050397
-0.005266322
-0.001442046
9.068321E-4
0.0016429711
0.0043626055
0.004859655
0.0035326334
-1.00941725E-5
-0.003145464
-0.002890211
-0.0039756643
-0.0046294495
-0.0035832934
-0.0018282303
0.0023393678
0.0033991272
5.4657477E-4
-0.0015077606
-0.0030443175
-0.0032027946
-0.0016675619
8.5385516E-4
0.0037154679
0.006130649
0.006523409
0.0018236177
-0.0023808165
-0.0021400256
-0.003116311
-0.003406388
-3.11764E-4
0.002392711
0.0028177763
0.0036158962
0.007802499
0.006682157
-0.0019206438
-0.0056849318
-0.0058756745
-0.005246325
-0.0014589751
2.9921497E-4
7.5320946E-4
6.827826E-4
5.027384E-4
0.0033586752
0.0018724377
-0.003175773
-0.0043753884
-0.0043370766
-0.0037262402
-0.0040771305
-0.0037153438
3.7848493E-4
0.0025085243
0.0032626675
0.0022059202
-0.0023887383
-0.0042797574
-0.0036973418
-8.3304424E-4
0.0026845203
0.0027173492
0.004290576
0.0053182207
0.002889004
0.0012461866
-0.0011879205
-0.0029605085
-0.0023406432
-0.0018297236
-0.002330451
-0.0034780041
-7.912606E-4
0.0037307378
0.0027964872
-0.0015272751
-0.004201587
-0.004025723
-0.0012151602
0.003979935
0.007391148
0.007555919
0.009804728
0.011712267
0.010717728
0.0075413045
-6.940704E-4
-0.0076233353
-0.007119249
-0.0042421194
-0.0042860205
-0.0042519663
-4.3022717E-4
9.908519E-4
0.0013408659
0.0012285638
-0.0032796278
-0.0023910191
-0.005597242
-0.014985145
-0.0052643274
0.008500783
0.009549579
0.012035398
0.01303107
0.009311747
0.002820231
-0.004608751
-0.005941849
-0.0059734597
-0.0060400106
-0.0033038766
-6.478772E-4
0.0034055861
0.004776871
-0.00195541
-0.012674492
-0.020409008
-0.021072017
-0.017333522
-0.0148986615
-0.016097678
-0.016862009
-0.013962518
-0.008613107
-0.0031815157
-0.0030656885
-0.0018228507
0.008420393
0.015697999
0.017535202
0.023845363
0.034053754
0.04363984
0.046925697
0.041351493
0.031699874
0.025042057
0.026969863
0.030323565
0.021980656
0.008798723
0.0028584837
-0.0070027458
-0.024346586
-0.033448003
-0.036922466
-0.042603377
-0.043904275
-0.036614023
-0.028787183
-0.030880306
-0.031989984
-0.028149536
-0.03009206
-0.02306231
-0.010842295
-0.012086622
-0.0122605525
-0.0066616843
0.0014928718
0.0109557165
0.013739613
0.020137642
0.026809055
0.024127586
0.02364879
0.022978455
0.022788564
0.028883649
0.033944026
0.039642572
0.04053539
0.023512375
-0.004253904
-0.023820212
-0.023976117
-0.009997904
3.0157098E-4
-0.0026604168
-0.0026767575
0.002931928
-0.0015125737
0.0032165486
0.021970632
0.02404033
0.010194199
-0.0018106445
-0.006584799
-0.011201002
-0.018546918
-0.021289691
-0.028619224
-0.03568962
-0.03399232
-0.04063299
-0.04571287
-0.031498827
-0.005354591
0.016251912
0.019362483
0.014912761
0.008184816
-0.006483896
-0.019792937
-0.024493022
-0.013795649
0.0038095315
0.01877683
0.039156824
0.057041954
0.06856324
0.066766895
0.046178825
0.032505006
0.01997758
-0.0034399643
-0.015713327
-0.021429311
-0.03509301
-0.04758874
-0.04002234
-0.010132016
0.015223067
0.023789102
0.016088227
-0.016052125
-0.049955085
-0.05716148
-0.057477016
-0.06580016
-0.064444125
-0.052023657
-0.033807583
-0.019106898
-0.023270477
-0.027351942
-0.015817242
-8.5759134E-4
0.0128315585
0.02460674
0.029176407
0.023373349
0.017513337
0.008016736
-0.012330611
-0.019985432
-0.02309021
-0.028819583
-0.020766297
-0.035146505
-0.07426853
-0.08522157
-0.062311
-0.023797031
0.029888786
0.08976513
0.116256975
0.10197211
0.067464404
0.013503385
-0.042833462
-0.10824582
-0.15412886
-0.11591007
-0.039510388
0.034560286
0.10161748
0.14937212
0.18020834
0.13809499
0.05792024
0.012479111
-0.03710353
-0.06161758
-0.057295814
-0.060818624
-0.043675628
-0.043341853
-0.049860083
-0.021186924
-0.009955339
-0.017221538
-0.011983807
-0.0020978493
-3.7067744E-4
-2.2228647E-4
0.003991463
-0.026764762
-0.071813725
-0.07745712
-0.060393475
0.0055326894
0.12289327
0.15284592
0.06002805
-0.030715058
-0.10553274
-0.16046149
-0.12933184
-0.0968556
-0.0959619
-0.060976386
-0.015557629
0.07020893
0.1749635
0.24400495
0.3130199
0.2952315
0.20570564
0.15255874
0.04013215
-0.08369419
-0.092666134
-0.040874552
0.081656255
0.20732322
0.19736783
0.17272376
0.20943363
0.16194749
0.041484766
-0.005098271
-0.007587425
-0.09410209
-0.20974141
-0.21042024
-0.17919637
-0.22884893
-0.22456776
-0.11489466
-0.035831064
0.006506373
0.0660044
0.063948676
-0.06301547
-0.20730773
-0.26724926
-0.2723013
-0.2153655
-0.1278657
-0.0890953
-0.0145986
0.06693867
0.015676344
-0.05395077
-0.08961635
-0.16935177
-0.18393736
-0.098854415
-0.020496592
0.06765714
0.18637142
0.28141257
0.3640824
0.40127373
0.2881149
0.18454526
0.2629961
0.33695817
0.3644585
0.43755853
0.44442144
0.39532742
0.32350606
0.19968088
0.12165345
0.040856022
-0.13630705
-0.3100638
-0.39495894
-0.39703372
-0.3404238
-0.22990054
-0.144649
-0.20103638
-0.34714875
-0.42682245
-0.3812278
-0.34910005
-0.39155757
-0.37366953
-0.3204762
-0.2645932
-0.1486669
-0.06434249
-0.03835
-0.002557722
0.053491615
0.10407233
0.13475357
0.19304013
0.24502036
0.2765615
0.3164209
0.2504331
0.16816725
0.23839605
0.31336853
0.30461606
0.24258544
0.10506907
-0.031358935
-0.09731432
-0.048743233
0.1597788
0.33588699
0.32206398
0.21114631
-0.030103903
-0.28027186
-0.22000016
-0.06612149
-0.12650652
-0.24139154
-0.25964153
-0.20136115
-0.17256966
-0.16425242
-0.08232892
-0.077800125
-0.15972249
-0.1803004
-0.1935163
-0.12711145
0.031177653
0.08678478
0.10413865
0.1606662
0.13186818
0.0136741055
-0.09212352
-0.10462236
-0.05074871
-0.03556762
-0.0015540523
0.07697109
0.04860166
-0.024093166
0.0038507234
0.057614867
0.07925103
0.050810564
-0.04579956
-0.13706726
-0.15031053
-0.04797044
0.082587324
0.08828467
0.04350864
0.0710729
0.08552261
0.040741444
0.040854838
0.0870346
0.08826996
0.058033247
0.035818126
0.022593752
0.03597467
0.08491743
0.114865094
0.063378274
0.0035154815
-0.01687706
-0.06829687
-0.1153524
-0.10501273
-0.041131888
0.027420493
0.02477241
0.065769926
0.12836093
0.016747184
-0.08790973
-0.04754995
-0.03155184
-0.04155129
-0.022291373
-2.7673226E-4
0.03992123
0.113708705
0.1812035
0.14950374
0.045492478
-0.023064477
-0.0736191
-0.097200535
-0.03973245
0.020257648
-7.9691796E-5
-0.042923637
-0.035819054
-0.013853223
-0.013373558
-0.010459062
-0.010935985
-0.028239015
-0.04745198
-0.06465462
-0.075853534
-0.065992266
-0.027952919
0.022297153
0.06292479
0.08764112
0.07675399
0.026952593
0.011602328
0.0785939
0.12857236
0.075914785
0.034010064
0.07354279
0.058760192
-0.031581372
-0.06653325
-0.037490997
-8.3171634E-4
0.019145124
0.018664896
0.010695065
-0.039016396
-0.10090841
-0.09058722
-0.06408239
-0.05778736
-0.028565647
-0.018101692
-0.03368673
-0.032044202
-0.026985174
-0.017786127
0.0064867577
0.029134283
0.03444327
0.029781613
0.037124556
0.045847565
0.04517977
0.033710573
0.0031778957
-0.0059278808
0.016386952
0.020357056
0.012044256
0.010837441
0.004077394
-0.011926631
-0.030717293
-0.030747544
-0.010902991
5.159026E-4
0.01178622
0.03407087
0.020867914
-0.025541037
-0.02909492
-0.009910601
-0.021917226
-0.022462448
-0.006466838
-0.002343762
0.0076244273
0.00709247
-0.013888321
-0.025120217
-0.031805158
-0.044979982
-0.046137985
-0.032243792
-0.014846521
0.017244803
0.05073958
0.041240904
0.005446445
-0.01596304
-0.022487143
-0.018683676
-0.015277274
-0.014898783
-0.004117712
0.010946885
0.022780918
0.03107031
0.02484003
0.0048789866
-0.011769032
-0.022243
-0.02644948
-0.017243637
-0.008165619
-0.008392516
-0.006900682
-0.0020846291
0.004349112
0.009031462
0.008117297
0.0050155744
2.3023646E-4
-0.0025135044
0.0015051496
0.010162086
0.020998487
0.03189622
0.037671547
0.030649178
0.014108977
2.73663E-4
-0.0066273427
-0.01014181
-0.014159132
-0.015803715
-0.013256964
-0.009925155
-0.010377982
-0.020610873
-0.032209683
-0.033987712
-0.032184258
-0.032870606
-0.03317328
-0.027338533
-0.016732914
-0.0059032715
0.003644709
0.0065562124
0.0056977337
0.0015527966
-0.008543611
-0.009960033
-0.002149199
0.0038468137
0.009261722
0.016675137
0.030315021
0.038904376
0.031719577
0.02251376
0.015232666
0.009289207
0.009013968
0.008146495
0.0042681303
8.982265E-4
0.0011144122
0.004492083
0.0037489189
-0.005475016
-0.01596101
-0.016569912
-0.01216165
-0.009078892
-0.0018927568
0.007688948
0.015723422
0.014959999
0.0032207628
-0.0059326733
-0.011505028
-0.014655244
-0.011159938
-0.006022704
0.0015547732
0.008061058
0.006521847
-4.4236865E-4
-0.010934004
-0.017397698
-0.017184567
-0.01825496
-0.02174178
-0.023100488
-0.015703615
-0.0038922022
0.0017367441
0.0021662042
-0.0015162303
-0.0059364564
-0.003078339
0.0063927495
0.015737653
0.02181959
0.027733227
0.033111393
0.03521847
0.033464085
0.026498208
0.021109423
0.022938922
0.025753697
0.026041625
0.027319906
0.030646235
0.03152951
0.02950295
0.021473613
-0.0012131672
-0.026999937
-0.04032217
-0.04563901
-0.047084615
-0.046898607
-0.04804194
-0.045439143
-0.037864
-0.034903914
-0.041284185
-0.046752915
-0.04382945
-0.037024874
-0.027225614
-0.011552657
0.007736095
0.026537955
0.040199038
0.044072155
0.043741405
0.04575916
0.043622386
0.039673373
0.041867487
0.043803576
0.043692075
0.044055607
0.043846082
0.042878404
0.03705561
0.027546594
0.0127249705
-0.0069454308
-0.018764274
-0.03589892
-0.065451354
-0.07702535
-0.072304785
-0.07391489
-0.07576158
-0.07292147
-0.06782481
-0.059564188
-0.049218062
-0.0357695
-0.022613177
-0.011457083
0.0041543785
0.021724602
0.035036273
0.04581207
0.055264127
0.059919797
0.057483498
0.05304307
0.047943614
0.03945824
0.034800395
0.03193975
0.026346529
0.025128052
0.02146322
0.012821514
0.0068419557
5.810586E-4
-0.001531171
-0.002047291
-0.012185295
-0.025877966
-0.036494523
-0.040667452
-0.04038634
-0.044944026
-0.050949495
-0.05149077
-0.045498263
-0.035951514
-0.029810676
-0.025485877
-0.016876688
-0.005904751
0.0012482764
0.0041121193
0.007966745
0.014011153
0.020329736
0.026802257
0.03480864
0.042089824
0.041221917
0.03254805
0.024775
0.021008734
0.018561877
0.02111258
0.030241998
0.034244217
0.031080386
0.026393825
0.018971436
0.010647061
0.0011857382
-0.0073586367
-0.014348028
-0.02112569
-0.019751403
-0.018207664
-0.022266898
-0.028188182
-0.04465813
-0.054994013
-0.04975389
-0.047468312
-0.040434532
-0.02419725
-0.006022277
0.011567609
0.017616784
0.016202224
0.013332063
0.008104786
0.0069403383
0.0063832547
0.0048926175
0.006620686
0.011776353
0.020392932
0.026344514
0.027998608
0.02721757
0.022626968
0.017701447
0.016276995
0.018560413
0.01816163
0.018856341
0.028853875
0.023373794
-0.0070884638
-0.02757227
-0.030219134
-0.03170393
-0.029452354
-0.022150055
-0.013563493
-0.0039430945
0.002981424
0.009425162
0.012319812
0.0016956859
-0.010501375
-0.013505165
-0.014264041
-0.012341441
-0.007210161
2.8381275E-4
0.010187105
0.014341888
0.012568397
0.010022588
0.008136784
0.009435941
0.009035463
0.005650295
0.006996549
0.010968271
0.011351165
0.010330123
0.011949325
0.011993162
0.0034925537
-0.008283977
-0.0125936465
-0.009945736
-0.007191223
-0.004622308
-5.9634354E-4
0.0021731602
0.002329519
0.0012653314
-4.684591E-4
-7.093551E-4
0.0037117
0.009524256
0.011505974
0.011732859
0.011883943
0.010356367
0.0076288814
0.0028036202
-0.0016423278
-9.5209404E-4
9.1365376E-4
9.92156E-4
6.396979E-4
-7.2829466E-4
3.2282888E-4
0.0037712785
0.0036414487
-1.4123191E-4
-0.0043129325
-0.0055682478
-0.005974441
-0.008827291
-0.0075797215
-0.0030623078
-0.0022407414
-0.0021913517
-0.0040540523
-0.00902745
-0.009802449
-0.005379211
-3.043547E-4
0.0022946368
0.0025593329
0.0038806028
0.005538628
0.0034714078
-0.0012838002
-0.003463979
-0.003491559
-0.0035146903
-0.001314402
-8.632109E-5
-4.091943E-4
0.0035728794
0.0077332086
0.0076147015
0.00642423
0.0049121985
0.0042918087
0.0051554795
0.0047354125
0.004491219
0.0061244373
0.007147493
0.008181938
0.008183172
0.002877549
-0.0030141408
-0.004731709
-0.0058269263
-0.0063393074
-0.004937468
-0.0032265382
-4.2633057E-4
0.003466236
0.004980459
0.0032656884
0.0019357004
0.002476157
0.004410044
0.006846683
0.0067884903
0.0058585666
0.0069597606
0.007856644
0.0069997488
0.0040260437
7.0216274E-4
-0.0018578464
-0.004636687
-0.0045940056
-0.0020343359
-4.3665434E-5
4.055912E-4
-0.0031210482
-0.007560383
-0.009932459
-0.011922807
-0.011805619
-0.009611839
-0.006962346
-0.0052186763
-0.0037961507
8.284362E-4
0.004577208
0.004267684
0.0027737257
3.4019694E-4
-5.129362E-4
9.036473E-4
0.0022872847
0.0036597222
0.0047019473
0.0066726273
0.008358441
0.008241374
0.007408417
0.003680468
6.969708E-5
9.647279E-4
0.0020121138
8.593477E-4
8.377146E-4
0.002546685
0.0034762153
0.0037975223
0.0020127685
-0.0024134351
-0.0035824135
-0.0030162986
-0.0033152145
-8.6781353E-4
0.0016769533
0.002087566
0.0023867642
0.003710484
0.0024882301
-0.00235574
-0.0042049224
-0.006803675
-0.0073258583
-0.003797533
-0.012009215
-0.012127497
0.0025732757
-0.004651254
-0.0151145635
-0.005707315
-8.1620674E-4
-3.8376497E-4
0.0012770639
1.5187168E-5
2.7973967E-4
2.6552033E-4
0.002111889
0.0053319526
0.0050887214
0.004630197
0.0042456724
0.005195164
0.006235533
0.0044400794
0.0048507494
0.0061904322
0.0058489945
0.004830498
9.026737E-4
-0.0020442705
-0.0011563321
-7.130565E-4
-9.832344E-4
-7.8813056E-4
-0.0010409905
-6.94623E-4
2.8759017E-4
-9.961333E-4
-0.00443788
-0.00774406
-0.00925813
-0.006883068
-0.0034514638
-0.0022865136
-4.053169E-4
0.0025601266
0.0041819816
0.00397791
0.0014590732
-0.0019400506
-0.003598882
-0.003007752
-0.0025228658
-0.003298822
-0.0024028134
-3.5096347E-4
0.0016195804
0.004507904
0.002849403
-0.00249927
-0.0032811249
-0.0028130203
-0.0024146754
5.5585103E-4
0.0012941228
0.0027508799
0.0062919715
0.005111953
0.0024327964
-1.12722344E-4
-0.0040610516
-0.0037980245
-3.4802913E-4
0.0013025525
0.0016805106
0.0026155803
0.004798467
0.0060183937
0.0043385345
8.1230357E-4
-0.002041349
-0.0023491662
-0.0025344926
-0.004863818
-0.0070140543
-0.0060193622
-0.0011389893
0.0027805679
-1.2624927E-4
-0.004595909
-0.0032685415
-8.5756026E-4
-0.0010665564
-2.1978607E-4
0.0015222721
0.0035590637
0.005997304
0.005802649
0.0026098492
-0.0015920537
-0.0033979728
-0.0017556145
-0.0011262045
-0.0019487926
-0.002396603
-6.480242E-4
0.0047097313
0.0064803394
0.0020577745
-0.0025555727
-0.0051756217
-0.004844838
-0.0043214667
-0.0043668854
-0.0019039734
-6.135327E-4
1.6995165E-5
9.2924986E-4
-4.958397E-4
-1.4754676E-4
2.738876E-4
-4.6411506E-4
0.0013850195
0.0014479621
0.0011040542
0.0033652552
0.0046219598
0.0051933867
0.0026971693
-0.0017273254
-0.0020850552
-0.0021950337
-0.0035622353
-0.0016966568
9.4929314E-4
0.0013823097
0.0021103222
0.0031194165
0.0019960096
-7.3680305E-4
-0.0038616443
-0.004724404
-0.0029257364
-0.002237275
-0.0014295903
9.6973375E-4
0.0035809667
0.004963875
0.0015995884
-0.0030289546
-0.003556786
-0.0026270458
-0.0024419606
-0.0029341357
-0.0025990857
-0.0019448382
-0.0011689127
0.002139294
0.0017525608
-0.0026630454
-0.0031912264
-0.0029374184
-0.0024932758
3.09146E-5
0.0021959196
0.0053572315
0.0063744597
0.003763724
0.0011254516
-0.0021115374
-0.0037576393
-0.0026801412
-7.361697E-4
0.0017202749
0.0027101117
0.0043095066
0.007309833
0.0075857677
0.005524359
0.0011738115
-0.0030686003
-0.0023927542
-0.0026325558
-0.0062828776
-0.006299962
-0.0038297728
-0.0019868826
-1.0995675E-4
-8.573631E-4
-0.003078568
-0.002275046
5.8286864E-4
0.0019552668
0.0014266183
0.0012853619
0.002199547
0.0028770359
0.0014289235
-9.1101235E-4
-0.0015364188
-0.003877556
-0.0049451063
-4.5225973E-4
5.9309107E-4
4.3368556E-5
0.0033549536
0.0034176442
0.0021106333
0.002267781
0.001421224
-0.0034764064
-0.013807744
-0.013050936
6.326959E-5
0.0038657084
0.002457079
0.005009207
0.005298099
0.003977494
0.0019576321
-0.0012804288
-0.0027434952
-0.0014485744
8.2292804E-4
9.766759E-4
8.1847055E-4
0.003042309
0.0044172434
0.002727568
-4.942671E-4
-0.0028699182
-0.0036671779
-0.004010258
-0.0033941471
-0.0011468139
3.9769063E-4
0.001125308
0.0031919763
0.002931583
-0.0010224215
-0.003707921
-0.004390179
-0.003110266
-8.684393E-4
-8.252617E-5
0.0012260319
0.0025171726
0.0026494253
8.0549926E-4
-0.004163486
-0.005797908
-0.0028810522
-3.2809554E-4
0.0019000069
0.0021233445
0.0021667778
0.00469189
0.0056571257
0.00449131
0.0019206513
-0.0011368366
-0.001983841
-0.0013572456
-7.551675E-4
-0.0020464344
-0.0026135242
0.0021276167
0.0062997895
0.0044493494
-3.834933E-4
-0.0032602502
-0.0019380737
-4.8321913E-4
-8.4647466E-4
-0.0019789457
-0.004890223
-0.0067081843
-0.0071733193
-0.007233968
-0.0038339985
-0.0011945488
-7.7905226E-4
0.0016351063
0.0029127884
0.0024260057
0.0026820237
0.0044478085
0.0066893357
0.0038732856
-8.322699E-4
-0.0016213687
-0.0018280734
-0.002007528
-6.7467423E-4
0.0031560403
0.006929253
0.0060142195
0.0050459374
0.0040736813
3.7430966E-4
-4.6293932E-4
-0.0010197667
-0.0039397487
-0.0046463045
-0.0035116624
-0.0012920224
3.6737885E-4
3.6238728E-4
-2.2112667E-4
-0.003791628
-0.0064994614
-0.003733893
-0.001547111
-0.0017420531
-7.4788765E-4
5.869594E-4
0.0016751307
0.0023519536
0.0021997003
0.0013812229
-0.001092408
-0.0024399522
-0.0015303864
-0.0021911792
-0.0018075662
8.2674326E-4
0.0026012931
0.0042562676
0.0033355067
4.4366534E-4
-7.327016E-4
-0.0017358365
-0.0011064457
1.3454567E-4
4.2153144E-4
0.0015674068
5.89485E-4
5.20342E-4
0.0026609031
8.957585E-4
-0.0015441272
-0.0021119406
-0.0017291462
-3.9038155E-4
-7.6402666E-4
-3.4486785E-4
0.0015122076
0.0023924795
0.0023230491
-5.651163E-4
-0.0025971795
-0.002018772
-0.0027791713
-0.0026075484
-0.001332076