-0.11713963
-0.08960169
-0.06410439
-0.033666447
-0.035374183
-0.059372947
-0.05487947
-0.030329613
0.0076186396
0.052389987
0.063607775
0.028649867
-0.005916649
-0.0034091535
0.019477531
0.045659523
0.062264893
0.06440905
0.06419002
0.054587383
0.04457435
0.038461
0.02585498
0.024794027
0.01648998
-0.0052417815
-9.3891774E-4
0.015289635
0.019997472
0.018297851
0.015041455
-0.0021013657
-0.03559204
-0.04160426
-0.032531112
-0.040076256
-0.039839983
-0.03989162
-0.03275953
-0.019718694
-0.029778128
-0.023972271
-0.0043409644
0.003522521
0.014356302
0.008032921
-0.011690815
-0.027698543
-0.034795042
-0.020832662
-0.00388362
-0.0057315785
-0.040883083
-0.06253764
-0.031167919
-0.0056594242
0.028920026
0.08169539
0.09006963
0.088011466
0.08341432
0.054188002
0.043951664
0.05365514
0.046859793
0.008327442
-0.014763093
-0.01086743
-0.044403665
-0.060986113
-0.014456487
0.026713284
0.048689045
0.04391639
0.010816971
-0.020068876
-0.053360905
-0.07510921
-0.08175435
-0.08112348
-0.06291106
-0.05935075
-0.06777047
-0.060497407
-0.05511375
-0.03385388
0.01342233
0.048504077
0.058963135
0.053727895
0.045884002
0.051042706
0.07766613
0.09165892
0.03974132
-0.027799243
-0.03632132
-0.006218708
0.0418386
0.08251256
0.07225302
0.03192987
-0.004530394
-0.010031195
0.03328884
0.059607234
0.021367675
-0.025639188
-0.05154801
-0.06923613
-0.06177791
-0.043801203
-0.04349828
-0.03947241
-0.0330351
-0.019773029
0.020419573
0.028393952
-0.005422885
-0.011620718
-0.014960043
-0.040530376
-0.034017403
-0.0060006324
-0.010800163
-0.023138113
0.0015552272
0.035843354
0.04010842
0.014173787
-0.007413444
0.012635323
0.031773247
0.010513323
-0.0045700246
-0.010918563
-0.02339489
-0.012497879
-0.0034893358
-0.007826298
0.01764348
0.04282288
0.022714378
7.266526E-4
0.009739423
0.010788266
-0.016513815
-0.039114427
-0.02712744
0.0017585191
0.007145589
0.0015558713
0.0070983525
0.015736658
0.053906076
0.09819362
0.08703247
0.054874707
0.02232013
-0.01797817
-0.026236875
-0.009373438
-0.002920646
-0.019292222
-0.04700998
-0.057296768
-0.05599386
-0.045609746
-0.034430854
-0.038329143
-0.032403097
-0.03075614
-0.032701097
-0.0012377924
0.025706425
0.018767918
-0.009265135
-0.034535825
-0.035145696
-0.03339601
-0.030148694
-0.027940199
-0.018380744
0.046138067
0.09282056
0.058290754
0.005125528
-0.0266534
0.010912331
0.07320371
0.04944127
0.007262478
-0.012577414
-0.023967518
0.03590153
0.07246229
0.012175433
-0.035766076
-0.056233406
-0.043995894
0.018361986
0.049520507
0.050167955
0.06050877
0.0621053
0.030809619
-0.0232119
-0.019372124
0.025077326
0.025179885
-0.0045480235
-0.04455388
-0.046701543
-0.01202448
-0.02113875
-0.03675235
-0.03866447
-0.04194375
-0.027213255
-0.044451553
-0.06537586
-0.045723815
-0.03752402
-0.019221589
0.017867584
0.024985831
0.021391332
0.031157892
0.016811527
-0.026073856
-0.03238835
-0.017780263
-0.015015205
0.020316923
0.034197636
-0.021597894
-0.053343438
-0.006105957
0.06377414
0.07887681
0.049671732
0.039380785
0.055857792
0.065524235
0.052184653
0.043477092
0.03347294
0.0048864554
-0.005678656
2.3842057E-4
0.012374389
0.024915665
0.018427633
0.0150383795
0.01581216
0.021331988
0.01829328
-0.03146797
-0.08201432
-0.0989603
-0.07400276
-0.018769756
-0.019228425
-0.060439635
-0.0794538
-0.08992096
-0.09808079
-0.1076263
-0.09596503
-0.06011812
-0.034275986
4.9906486E-4
0.041609008
0.06820994
0.089970514
0.11069506
0.124205336
0.10783859
0.07739895
0.06522675
0.06275631
0.06109285
0.05506317
0.05496601
0.06503951
0.07797348
0.07706881
0.015644034
-0.04901516
-0.04434713
-0.04658611
-0.07270627
-0.07206814
-0.06981064
-0.07999635
-0.093376584
-0.09838119
-0.07968035
-0.062158152
-0.05537334
-0.039862838
-0.030479614
-0.015455212
0.02813569
0.032543935
-0.022260847
-0.05790459
-0.053661525
-0.011981903
0.042108316
0.05766214
0.08042303
0.13455577
0.15477432
0.1166274
0.04918436
0.0027454
-0.018914152
-0.04255296
-0.046751797
-0.030363293
-0.015367938
-0.0038560657
0.008678228
0.03440453
0.05458945
0.048988998
0.037804216
0.02582533
-0.0071196514
-0.054610636
-0.07720395
-0.07766573
-0.073184535
-0.04574338
-0.022039382
-0.0034138695
0.027444528
0.012334053
-0.022685481
-0.022521257
-0.019346375
-7.5127545E-4
0.022449307
0.0066097346
-0.012422872
-0.0188355
-0.0360621
-0.04078488
0.0011328675
0.0580246
0.07053472
0.039081033
0.0014180117
-0.007539459
0.014725
0.032425337
0.022885248
-0.0050896127
-0.021670673
-0.034533177
-0.04071614
0.0036578316
0.03021955
0.002364368
0.0018661247
0.01337364
0.016301893
0.024648206
0.012685861
-0.0034306692
-0.00964326
-4.4119617E-4
-0.0010356816
-0.026070358
0.0024499123
0.03761708
0.012359538
-0.0037157063
-0.0049674595
0.029664364
0.072725944
0.021235837
-0.028303701
-0.009745038
0.007318405
0.02231994
0.01588021
-0.012859129
-0.03443523
-0.05438022
-0.052099153
-0.038488537
-0.018451931
0.0022954673
-0.02576684
-0.059993383
-0.070792004
-0.067752235
-0.0072843875
0.046295226
0.028336143
-0.009948001
-0.04279133
-0.035619114
0.01042863
0.032572776
0.04090281
0.060788684
0.0626887
0.02442852
-4.900903E-4
0.027509341
0.032730684
0.008222311
0.023172721
0.059452277
0.09389888
0.10146261
0.05607123
0.0070214043
-0.01775695
-0.028341837
-0.026999835
-0.030611956
-0.04474063
-0.062397134
-0.07500365
-0.06950844
-0.04870331
-0.030137483
-0.026727697
-0.03239618
-0.034295708
-0.029637948
-0.015245359
0.005000698
0.004606574
-0.0161994
-0.023901956
-0.033005778
-0.02765861
0.047437873
0.09657311
0.042905014
-0.012281402
-0.033641826
-0.034981787
0.014104961
0.07075963
0.1006843
0.11942847
0.1040481
0.06381895
0.045297977
0.038696244
0.015861532
-0.017464975
-0.05110231
-0.068188995
-0.050268307
-0.023589384
-0.016054817
-0.010027098
0.0031022786
0.016069924
0.024615968
0.0023562957
-0.04210837
-0.063148245
-0.076631166
-0.097793184
-0.09771667
-0.0840232
-0.07272878
-0.0708341
-0.0761934
-0.054808877
-0.012552222
0.026370114
0.059486497
0.06389463
0.05567744
0.07020337
0.09145075
0.09893574
0.086379774
0.07898097
0.09178953
0.08080789
0.05347363
0.045987446
0.03277406
0.018899081
0.020026408
0.0069001787
-0.006364429
-0.022243034
-0.06307884
-0.057191484
-0.008259814
-0.022334479
-0.06873776
-0.06345838
-0.030620828
-0.02395203
-0.036679704
-0.032811318
-0.02699664
-0.038119614
-0.04533588
-0.041870054
-0.04404468
-0.059647888
-0.033383176
0.056685656
0.10504835
0.08145699
0.05305159
0.0064224526
-0.065088
-0.098597765
-0.09466446
-0.09188604
-0.05856958
-0.008434187
-0.006644679
0.002943771
0.054342538
0.077100486
0.08316548
0.10198964
0.1072078
0.097519234
0.07598793
0.060539607
0.07224131
0.074618325
0.050249957
0.0349059
0.02691731
0.010877633
0.009877103
0.013662817
-0.00982264
-0.03329725
-0.014286662
0.002748994
-0.07416437
-0.18111002
-0.18473391
-0.1457843
-0.12195253
-0.07122006
-0.05884775
-0.077448644
-0.025366873
0.037334677
0.03800653
0.01636592
0.015045172
0.029654749
0.041805126
0.07954969
0.10754644
0.06298995
0.011141568
-0.018592278
-0.03950401
-0.021285854
-2.9482914E-4
0.005979508
0.032548886
0.058183048
0.049517684
0.022131145
0.0034996632
-0.03143821
-0.06491446
-0.024645861
0.04480273
0.07498412
0.0782965
0.06479257
0.05015383
0.046726115
0.01830114
-0.04773477
-0.06899663
-0.025088718
-0.011707542
-0.028897747
-0.03196937
-0.019745322
-5.854943E-4
-0.023996158
-0.039684072
0.0011275727
0.004084775
-0.02260959
-0.03359423
-0.045762736
-0.036394205
-0.037107106
-0.059244305
-0.04725254
-0.01433144
0.006308222
0.008810923
5.590665E-4
-0.0034261998
0.019200465
0.07246825
0.08821052
0.04532622
0.008949633
-0.0028770482
-1.2160131E-4
0.018279599
0.042840626
0.040065583
-0.008021358
-0.03833896
-0.019239018
0.01515695
0.060345918
0.07807596
0.051666718
0.0442574
0.05312587
0.044354822
0.022821087
-0.0051284656
-0.030166889
-0.059586212
-0.066592425
-0.04630933
-0.055613782
-0.05736319
-0.048893318
-0.07814902
-0.07666553
-0.05212854
-0.043813415
-0.021752322
-0.024467167
-0.024326557
0.021277139
0.041076373
0.018573988
8.67121E-5
0.026236663
0.073402144
0.0758546
0.05449319
0.034283776
0.0035642565
-0.014302502
1.4203344E-4
0.02066667
0.010538148
0.0049789636
0.034631684
0.054498557
0.0489628
0.025754599
-0.007334389
-0.023705035
-0.016653707
-0.011351579
-0.02656147
-0.027559055
-0.014667135
-0.03209849
-0.04805261
-0.030368425
0.006025674
0.03137177
0.0168478
-0.009092371
-0.033847794
-0.05037539
-0.013321295
0.03665876
0.046121106
0.034279477
-7.563916E-4
-0.042910315
-0.051729683
-0.052836377
-0.064638644
-0.04388833
0.0026732327
0.024444621
0.030825514
0.044489656
0.04489335
0.027076116
0.02094578
0.018680695
-0.008010139
-0.014613238
0.02249557
0.044841394
0.043670136
0.04234829
0.032446384
0.01637487
0.0019014359
-0.00577389
-0.009320557
-0.015151481
-0.015853198
-0.011695152
-0.0036646223
0.0023938348
-0.007843465
-0.025186626
-0.038347717
-0.047217935
-0.052760966
-0.051125534
-0.032529272
-0.01130516
0.004071228
0.0122520095
0.0014177382
0.008187157
0.028280742
0.015883144
0.014973562
0.021351065
0.01546
0.0501316
0.055280816
0.0102957785
0.004103564
-0.00619303
-0.010192639
0.014210093
-0.0046393448
-0.010909446
-0.0015164834
-0.02017763
-0.005243147
-0.0071715103
-0.040242687
-0.034333132
-0.04094364
-0.05729142
-0.017981274
0.045912545
0.062078934
0.03968341
0.047471777
0.051440366
0.03061575
0.03383665
0.01589211
-0.023466283
-0.019257655
-0.0025715113
-0.015360943
-0.03658513
-0.030600205
-0.015477692
-0.026990013
-0.043162722
-0.046888176
-0.046210576
-0.04853203
-0.057144187
-0.054914992
-0.029828882
0.014321368
0.05064725
0.04977505
0.033591136
0.04008895
0.06791161
0.08774768
0.08834743
0.06993494
0.037878238
0.020512525
0.0085491035
-0.0043211034
0.011004043
0.024856193
0.02184176
0.029637022
0.031112509
-0.008648117
-0.09012718
-0.13535286
-0.108138256
-0.09049128
-0.0923216
-0.0847013
-0.093329705
-0.08906045
-0.031594798
0.05330616
0.11036426
0.11614846
0.10490488
0.0811105
0.026935732
-0.012545743
-2.566525E-4
0.027162066
0.032179683
0.034740046
0.047404654
0.035158433
3.9074E-4
-0.010897998
-0.0050181737
-0.015407522
-0.0346755
-0.05222583
-0.055905595
-0.037299294
-0.027276099
-0.025011355
-0.016078439
-0.021535672
-0.025788365
-0.015472346
-0.008728603
-0.008158492
-0.00868817
0.007287618
0.032268412
0.031784564
0.0041376394
-0.0134473955
0.022665765
0.08052955
0.09333014
0.05913104
0.011701182
-0.012588486
-0.019998021
-0.025356764
-0.00815361
0.011207282
0.00534612
-0.014785308
-0.026999556
-0.025897758
-0.020498516
0.006127421
0.026748646
0.021368481
0.031311046
0.026131822
-0.0100589
-0.03581648
-0.04296257
-0.035742458
-0.035313647
-0.02369898
0.009802266
0.020765923
-0.0010193235
-0.040173896
-0.03557607
-0.009223764
-0.03788152
-0.024287567
0.0463565
0.07490101
0.06298339
0.026747832
0.008702632
-0.008736401
-0.0413496
-0.026236445
-0.024094885
-0.024998805
0.02502677
0.043630883
0.03117516
3.0372737E-4
-0.029257728
-0.008673582
5.693473E-4
-0.013827952
-0.03452386
-0.048124254
-0.0112295365
0.019249797
0.02476595
0.03985284
0.04038842
0.036359876
0.05341464
0.07903779
0.057936423
0.0029706617
-0.00980681
-0.008931936
-0.009244327
-0.0025977488
-0.01393385
5.8530644E-4
0.02491
0.006476856
-0.026201092
-0.051480755
-0.053227708
-0.038470343
-0.03170829
-0.039196406
-0.062157854
-0.06826683
-0.05856005
-0.045210678
-0.008760149
0.028114688
0.051355068
0.04756543
0.03038116
0.059206523
0.078529805
0.046720184
0.024985606
0.0022325173
-0.031668454
-0.045665517
-0.047676783
-0.03841489
-0.014989506
0.012976985
0.034396704
0.04510702
0.049435984
0.032292597
-0.0018708861
-0.033401504
-0.057686146
-0.05319246
-0.033148076
-0.02910645
-0.01661559
0.011228018
0.031183355
0.044339042
0.0463935
0.03774328
0.040445562
0.043665957
0.02864872
0.0076996177
-0.020592405
-0.04610896
-0.055253822
-0.07376047
-0.084753014
-0.05862217
-0.015671853
0.03324021
0.06468558
0.064962454
0.05982308
0.046590574
0.036808193
0.04619726
0.037484396
0.018247906
0.022449981
0.025016755
0.01686436
0.00656391
-0.0073051667
0.0017553269
0.00206021
-0.049943693
-0.086941995
-0.08559346
-0.092312865
-0.09599636
-0.08208359
-0.05983719
-0.037209265
-0.026480272
-0.041653674
-0.066124916
-0.05899242
-0.04691631
-0.04270977
-0.0072587943
0.018782945
0.028127061
0.055747595
0.064727634
0.09297244
0.17420754
0.2054361
0.16442578
0.13077828
0.115064844
0.0986069
0.07995741
0.04025257
-0.017333591
-0.059470866
-0.07952098
-0.09177539
-0.0862638
-0.0483625
-0.020757344
-0.033066068
-0.051981144
-0.0712993
-0.076339416
-0.05199076
-0.035404205
-0.028336106
-0.025836783
-0.032739922
-0.042690642
-0.058820523
-0.054337308
-0.04310606
-0.020003287
0.048149396
0.0697158
0.045342527
0.037414495
0.006303961
0.018391248
0.072925255
0.061900508
0.014625238
-0.039042074
-0.062180758
-0.039094344
-0.04320769
-0.047697753
-0.030606503
-0.010217948
0.021429641
0.01552677
0.020070758
0.07615667
0.10244717
0.112109825
0.086353555
0.023059158
0.045558613
0.08554389
0.046532296
-0.007844786
-0.060997706
-0.06362403
-0.009333716
1.2530659E-5
-0.007654344
0.012444487
0.01807318
-0.012846828
-0.05676813
-0.044752
-0.008046672
-0.023019223
-0.048120424
-0.0707532
-0.10360601
-0.111903265
-0.09068611
-0.0541579
-0.008683661
0.043680027
0.058118712
0.024252212
0.02171072
0.031713367
0.01905189
0.029926062
0.03524695
0.026161868
0.04009158
0.05196699
0.04867429
0.024045086
-0.01588878
-0.02471762
-0.0058132303
0.009316757
0.029970542
0.05137435
0.038875725
0.01877762
0.026623413
0.031447787
0.0372559
0.021029841
-0.06844276
-0.12838839
-0.092874646
-0.054798316
-0.04457821
-0.03487381
-0.011915648
0.020819906
0.018152205
-0.011390372
-0.026710588
-0.036061447
-0.027234768
0.004972653
0.024862727
0.033190507
0.04398696
0.053985737
0.052223068
0.026164996
0.017629404
0.037149526
0.020060888
-0.0034355533
0.019199735
0.033765074
0.012648574
0.0023441394
0.03359396
0.0461924
-0.007187638
-0.04318777
-0.02249034
-0.0029730145
-0.01144913
-0.03236913
-0.049666774
-0.077612
-0.07809769
-0.03462693
-0.037347626
-0.0629919
-0.05461348
-0.046596393
-0.027784836
-0.0036722268
0.017054135
0.04348973
0.057141703
0.07462262
0.0724788
0.03901019
0.010581155
-0.022727229
-0.03119707
-0.01061084
0.016841186
0.06924166
0.089640886
0.077276625
0.08366511
0.07083339
0.04132599
0.012825051
-0.020918513
-0.039865717
-0.048326243
-0.05234315
-0.059568293
-0.07358247
-0.072862975
-0.06215956
-0.055581488
-0.05706667
-0.05749175
-0.043295942
-0.0334964
-0.03407128
-0.0091502
0.04685461
0.07653715
0.053857062
0.01673902
-0.0028250806
0.02003545
0.056809198
0.056098238
0.05616966
0.07063532
0.07495837
0.09288826
0.084948465
0.017811144
-0.024672126
-0.023577606
-0.04411039
-0.06282747
-0.034482386
0.0024030844
-0.0059164395
-0.05570669
-0.076983795
-0.057146154
-0.055159412
-0.054712202
-0.054748442
-0.070455804
-0.05283286
-0.040196456
-0.052634805
-0.026248818
-0.007668974
-0.03308165
-0.037167806
0.009752484
0.06866516
0.084758855
0.08315097
0.11089691
0.13651277
0.13066345
0.081011534
0.010823254
-0.002539074
0.025512712
0.030790923
0.03295464
0.04482574
0.052625608
0.04876391
0.014917571
-0.027495392
-0.056472752
-0.06978537
-0.052406438
-0.029357783
-0.021817358
-0.03653787
-0.08384973
-0.10809174
-0.091484755
-0.09449233
-0.11279673
-0.097258195
-0.05408976
-0.009488317
0.041678432
0.067363046
0.051276665
0.04914835
0.047870267
0.029098842
0.02192283
0.015074827
0.01781496
0.023154303
0.021555664
0.043202717
0.060151808
0.049796995
0.026987888
0.026199184
0.04964031
0.017060991
-0.02883875
-0.012083097
0.007573063
0.011242239
0.0014845284
-0.001741462
0.03217021
0.027769318
-0.02074025
-0.037520792
-0.025114981
-0.00853628
-0.0095481705
-0.035964783
-0.05949668
-0.059668772
-0.050326064
-0.04856537
-0.035078228
0.0069334977
0.05479403
0.0641364
0.034044348
0.016236357
0.007394422
-0.015649471
-0.031791646
-0.039699487
-0.040224604
-0.022388732
0.0029282256
0.022752829
0.042644266
0.053593133
0.034324113
0.01809109
0.01699773
-0.0034293656
-0.013091832
-0.0040088254
-0.013370619
-0.018884096
-0.005366392
0.003262026
0.0013356011
0.004000918
0.01189308
0.0052854232
-0.010925927
-0.016330337
-0.012381698
-0.005423119
0.010294584
0.012571307
-0.02821616
-0.061130386
-0.04799358
-0.025913265
-0.0053438116
0.011445471
0.029961709
0.062108867
0.07087585
0.048784602
0.023631066
0.01305044
0.016760813
-0.00664821
-0.03911425
-0.022673491
0.0119197965
0.02776895
0.0342061
0.033633653
0.02830782
0.023599092
0.025157105
0.025054948
-0.0045450195
-0.050320018
-0.07262891
-0.077728845
-0.077415064
-0.07424519
-0.07405324
-0.06280036
-0.05588346
-0.047857568
0.006448279
0.048463754
0.027459828
0.012826463
0.02830056
0.025219677
-6.921308E-4
0.016258884
0.07341562
0.061775345
0.007758647
0.020079687
0.057452347
0.06835409
0.066589065
0.044098284
0.01712576
0.0111834975
0.0106627885
-0.0047216993
-0.031116296
-0.051581938
-0.05577546
-0.034738228
-0.0054767495
-0.004257929
-0.01604276
-0.015968299
-0.021785295
-0.042085346
-0.061778948
-0.063448265
-0.040207297
-0.006231089
0.013567295
0.013719908
0.012352743
0.01370375
0.017035658
0.022336174
0.016911332
0.0106066065
0.010615282
0.016375802
0.036975864
0.043887418
0.030370625
0.016903875
-0.0059433538
-0.018128015
-0.00854359
-0.0063678855
-0.019270454
-0.023497766
0.0070139887
0.034795325
0.022340259
-0.001894903
-0.011571792
0.0033793978
0.0069825416
-0.0048719686
0.017574398
0.020582814
-0.018964974
-0.031865325
-0.014777601
0.006851444
0.013555709
0.005758576
-0.02257988
-0.07468873
-0.07339591
-0.02295254
-0.005043819
-0.007536182
0.005347476
0.028179534
0.018061714
-0.02153063
-0.037957568
-0.04002374
-0.025065487
0.011286043
0.031403825
0.033591256
0.034601673
0.04523687
0.04804905
0.04282487
0.06285246
0.078932546
0.06837935
0.04469327
0.024492957
0.022213286
0.01035567
0.010288663
0.022344677
-0.015329626
-0.057553217
-0.07312366
-0.082341835
-0.059683412
-0.027216936
-0.023798732
-0.056737185
-0.09195518
-0.08585995
-0.07039331
-0.059543747
-0.047772057
-0.040521976
-0.012996252
0.009008028
0.027041556
0.06595535
0.06670603
0.05236614
0.07348348
0.07956165
0.07002326
0.074227564
0.07893005
0.06948331
0.044085365
0.033726655
0.03844
0.027685918
0.014521156
0.0029688475
-0.013963776
-0.030852748
-0.052865624
-0.06424649
-0.05483
-0.052872024
-0.06728414
-0.07594196
-0.07799841
-0.0877666
-0.08417576
-0.048359692
-0.0066703917
0.017128224
0.019306788
0.007728428
-0.0038425347
-0.008475951
0.0043441076
0.025916694
0.033658717
0.034993958
0.03922512
0.040082943
0.042914998
0.061738465
0.08884837
0.09683513
0.079217136
0.04104052
-0.007477352
-0.037185337
-0.044804994
-0.03797284
-0.010544836
0.008649822
0.0061593386
0.010046829
0.005696492
-0.014373583
-0.017427178
-0.016787646
-0.019746728
-0.002607399
0.015522519
0.021041676
0.01956107
-0.008933364
-0.060479645
-0.083189145
-0.062058683
-0.049090482
-0.03950317
-0.001972068
0.0048358734
-0.022344748
-0.025151178
-0.025220959
-0.033952948
-0.024547733
9.679315E-4
0.013164177
-0.009158281
-0.032934528
-0.04377975
-0.05381245
-0.030714754
0.026347341
0.071178705
0.08086793
0.07120571
0.06392029
0.051613886
0.04444944
0.060606696
0.07987627
0.08885256
0.103678435
0.13140734
0.12078762
0.0533136
0.0073293014
-0.006080136
-0.026390912
-0.045894578
-0.07121397
-0.08408533
-0.07936408
-0.0900646
-0.08663145
-0.075987086
-0.09283164
-0.10704995
-0.11290025
-0.104815096
-0.08261794
-0.06740616
-0.03392962
-0.004185176
-0.016236505
-0.037212055
-0.036518283
-0.0013207435
0.036668036
0.053394172
0.065558426
0.059488934
0.07835153
0.14739853
0.19030882
0.18935731
0.15404008
0.099930875
0.06796131
0.03419819
-0.011381082
-0.035582528
-0.037184816
-0.038420558
-0.051361423
-0.05736511
-0.04802971
-0.028051915
-0.013676818
-0.029565388
-0.05704365
-0.07679146
-0.084182136
-0.08139141
-0.07882663
-0.07766773
-0.092267334
-0.09011554
-0.055355433
-0.019940706
0.046615284
0.09211169
0.062173028
0.040020503
0.033154722
0.023299955
0.032820668
0.056467853
0.08511299
0.08743909
0.08053147
0.069071636
0.02785764
0.010811329
0.012285366
7.185528E-4
-0.006756901
-0.008009448
0.022646595
0.03549314
-0.02850524
-0.07624425
-0.042926386
-0.0057172086
-0.0142140845
-0.007842452
-0.0018527715
-0.0341614
-0.027848283
-0.008069212
-0.026752163
-0.04331335
-0.054135565
-0.032434423
-0.0074037174
-0.038798194
-0.06631178
-0.05749524
-0.020904923
0.017968921
0.022283407
0.024711272
0.028603626
0.019785626
0.012075709
0.0017608939
0.008480997
0.032154642
0.04880096
0.05545812
0.05054007
0.048946276
0.055120047
0.060398206
0.070018455
0.07581549
0.055910032
0.012857806
-0.013816502
-0.016777063
-0.026566412
-0.048881214
-0.075759895
-0.08977832
-0.08087935
-0.057059
-0.034162574
-0.03860491
-0.047364924
-0.028809678
-0.017588852
-0.028968919
-0.035913043
-0.026457604
-0.0063766725
0.013486179
0.029822553
0.052193522
0.074625224
0.060940783
0.028314628
0.033599656
0.050190173
0.04302329
0.032056138
0.016835555
-0.003692039
-0.011496786
0.0011035295
0.011797729
-0.0060464195
-0.021141445
-0.008595995
-0.0013254043
-0.018429423
-0.046215735
-0.056051996
-0.03938519
-0.014140683
0.011427385
0.018965282
0.015754817
0.021416347
0.003297392
-0.019530231
-0.015549843
-0.024537629
-0.029580986
-0.0074979817
0.006727119
0.014886277
0.026326766
0.027706636
0.006193107
-0.0185899
-0.01594185
-0.02357582
-0.046148047
-0.036920555
-0.024289874
-0.027191121
-0.01865124
0.0014814016
0.02392052
0.03457262
0.03578919
0.04696306
0.059901368
0.055139605
0.035293527
0.024698036
0.019449573
-0.00581295
-0.02775284
-0.017231442
0.004385501
0.015923463
0.030116955
0.03954128
0.021138731
0.0035808622
-0.003070574
-0.01706499
-0.011966233
0.0013482658
-0.003710787
-0.008822542
-0.007205163
0.0058992147
0.0030983924
-0.034321416
-0.066766754
-0.090406045
-0.08395797
-0.037226528
-0.014767391
-0.0062285867
0.019911304
0.040270146
0.039929904
0.006791309
-0.012014907
0.007991167
-0.009886384
-0.066003956
-0.091230884
-0.07904203
-0.057219107
-0.039753087
-0.017215777
0.028874943
0.08909239
0.11285241
0.09049244
0.0658382
0.045174465
0.042729773
0.06815037
0.068448134
0.03523061
0.018344808
0.03146182
0.018516453
-0.030767782
-0.027528478
0.012718244
0.027916692
0.040987495
0.027259609
-0.004249058
-0.017969506
-0.048296362
-0.06071865
-0.041531567
-0.040528
-0.04667356
-0.060101103
-0.07341844
-0.062739514
-0.043533508
-0.024098113
-0.013718461
-0.0011715319
0.02430585
0.033119842
0.02509344
0.011280873
3.8345187E-4
-0.005415162
-0.012833931
-0.0016396494
0.0025962426
-0.006885328
-0.0031718828
-0.027466603
-0.025926022
0.040207043
0.05161908
0.019507822
0.013490975
0.014477138
0.0300553
0.029722631
0.017475393
0.04011107
0.0410652
0.018356116
0.019627351
0.0182387
0.021451266
0.030881016
0.009957435
-0.0122571755
0.0016057942
0.023090996
0.021439258
0.0014209367
-0.040388413
-0.0922364
-0.10248978
-0.067984216
-0.03587572
-0.018345213
0.0016357341
0.017044714
0.014499513
0.018456416
0.03132442
0.027318625
0.021320427
0.016451098
-0.0017566055
-0.01728594
-0.0253777
-0.029428061
-0.025410376
-0.021861108
-0.014627015
0.0068183527
0.012045791
-0.01723377
-0.030672403
-0.01183285
0.0015308934
0.0026013353
-0.010377049
-0.0165849
0.0069356845
0.021436568
0.034330606
0.06568139
0.070383266
0.062019475
0.07390672
0.07743818
0.045433443
-0.014079391
-0.050855435
-0.05145601
-0.04837247
-0.028542573
-0.003139201
-0.009848578
-0.031707473
-0.041808724
-0.02616436
-0.00702234
-0.0047868784
0.014135799
0.024578983
-0.006272279
-0.031978864
-0.051976178
-0.06607438
-0.040718
-0.0066671344
0.023703653
0.058549453
0.06002414
0.024542222
-0.0047238073
-9.7121793E-4
0.009847184
0.0022286512
-0.001726774
-0.0034747836
-0.011206958
-0.0127156
-0.013968301
-0.020411452
-0.040074483
-0.046920367
-0.010324381
0.022209862
0.038163193
0.05025264
0.028027097
0.015386172
0.045674648
0.07181194
0.0936603
0.10250388
0.080562614
0.06462188
0.03402063
-0.03296883
-0.08176054
-0.100946754
-0.10739419
-0.098542206
-0.076853536
-0.047973596
-0.03635256
-0.026726339
-7.0224534E-4
-0.020434096
-0.07506737
-0.07609361
-0.01984233
0.029011888
0.018392479
-0.01418222
-0.01451942
-0.002877696
0.015349377
0.022231314
0.006719262
0.02501664
0.05392127
0.06199964
0.0914312
0.09944086
0.0634597
0.05401346
0.062293448
0.054680984
0.040647894
0.0055272775
-0.037521444
-0.051448368
-0.04943039
-0.053473525
-0.062058005
-0.06555139
-0.04913192
-0.019102914
-0.0059951153
-0.011884288
-0.0068842103
0.010350197
0.018485822
0.016349047
0.0020818475
-0.02650359
-0.036429435
-0.007276109
0.028282791
0.052979987
0.064547166
0.044056527
0.007946458
-0.022470508
-0.034033626