0.032678347
0.040640138
0.060231864
0.0681313
0.05980393
0.050083555
0.042950608
0.03373378
0.022360317
0.011747337
0.008387388
0.009304984
-0.001715549
-0.011824883
-0.0029614496
0.006103101
0.0055156723
-0.0018804139
-0.017440356
-0.032569718
-0.036354437
-0.029536756
-0.030633956
-0.031583656
-0.011892777
0.0015435034
-0.0025585974
-0.0019087505
0.009126763
0.015234559
-3.3187552E-4
-0.013116953
-0.015842283
-0.031323824
-0.02727691
0.003353159
0.021757185
0.02326875
0.0066528646
-0.013960573
-0.016402625
-0.013318147
-0.010095335
-0.005956032
-0.0038935186
0.0014669565
2.2723274E-4
-0.009707658
-0.011673842
-0.006619938
-7.897033E-4
0.007701183
0.015092994
0.016721452
0.010698754
0.0037243983
0.007197376
0.013204741
0.008549541
-0.0029507866
-0.01017369
-0.008794901
-0.004535483
0.009903062
0.03555635
0.04587279
0.03865267
0.020205704
-0.007518009
-0.0077743256
0.021071317
0.04460418
0.06423404
0.06471184
0.02808866
-0.005935282
-0.01063138
-0.013486008
-0.034156546
-0.05418465
-0.061866865
-0.06375641
-0.05575117
-0.04501506
-0.042299643
-0.03545717
-0.03188271
-0.047393877
-0.06283636
-0.063446395
-0.059127346
-0.054488614
-0.04252006
-0.0186172
0.0050655496
0.020760227
0.04164073
0.06412519
0.0755614
0.082443155
0.0892643
0.096794516
0.096337214
0.083108135
0.076662414
0.06563657
0.03599479
0.019758945
0.017690646
0.011943625
0.01598249
0.025689468
0.016882641
-0.022361118
-0.07185614
-0.09308426
-0.08890057
-0.086913556
-0.08390398
-0.06581368
-0.04526661
-0.041710258
-0.044506416
-0.035905536
-0.02085975
-0.010815874
-0.007423389
-0.0017812556
0.0076579596
0.011992247
0.014358608
0.022172246
0.028475992
0.028598754
0.0266584
0.0069881384
-0.026504025
-0.024915941
0.0052711237
0.019676017
0.023157401
0.023294449
0.028163385
0.04591048
0.055322025
0.05732955
0.05122618
0.027378604
0.007430658
-0.016634516
-0.045050945
-0.03490825
7.725157E-4
0.023108266
0.029557565
0.02441657
0.020990549
0.028716326
0.034503732
0.025104897
2.7914418E-4
-0.025526881
-0.03629104
-0.038038198
-0.048211493
-0.062243417
-0.06500506
-0.06015218
-0.055095516
-0.049895115
-0.04385775
-0.03144652
-0.013912633
-0.0017269813
0.0073743635
0.016510218
0.019935612
0.021991352
0.018518059
0.0080241
0.00797663
0.012196455
0.019366628
0.034978967
0.038546454
0.038131118
0.038829714
0.02699688
0.01581052
0.006539631
0.0046387687
0.009067922
-9.119284E-4
-0.009346287
-0.012545632
-0.013322128
0.0027199215
0.01569465
0.01245579
-8.5109734E-4
-0.018784521
-0.036908884
-0.049281545
-0.032420386
-0.006878541
-0.0022990978
0.010273124
0.037521664
0.056760322
0.061139356
0.06718822
0.07656286
0.060962535
0.03871813
0.023622556
0.003134421
-5.3098815E-4
-0.008443252
-0.052306812
-0.10143508
-0.13231629
-0.13491224
-0.09264874
-0.035227947
-0.015442461
2.0321294E-4
0.026370674
-0.012162103
-0.06590842
-0.052885927
-0.033808503
-0.037967335
-0.040781457
-0.034704287
-0.0027614194
0.03985868
0.05638384
0.048514374
0.0518763
0.06909741
0.07462476
0.077526964
0.0809331
0.07940702
0.0759467
0.055800494
0.028486788
0.0104696145
-0.0048650173
-0.015601828
-0.015115681
0.004722171
0.02049358
-0.0019689677
-0.027964903
-0.026939334
-0.024632059
-0.02548717
-0.022822928
-0.025829675
-0.026821623
-0.02510242
-0.034511667
-0.046345297
-0.038946755
-0.008273712
0.014984756
0.008177974
-0.015832469
-0.048293766
-0.063001424
-0.040465824
-0.010194225
0.0018025044
-0.01589284
-0.020159135
0.027579058
0.047062848
0.013830177
-8.384787E-4
-3.5373293E-4
-0.0047235047
-0.0031304588
0.0016850973
0.008252988
0.016241968
0.025318509
0.027722692
0.024366807
0.03377295
0.04934946
0.057200547
0.05564304
0.03755998
0.010013624
-0.010482388
-0.022525588
-0.02584145
-0.010841719
0.0108622005
0.0054685776
-0.01628363
-0.026070248
-0.043588184
-0.05194962
-0.01652458
0.002319725
-0.02878029
-0.046671085
-0.027085071
6.01627E-6
0.016613124
0.023410218
0.02565681
0.025375182
0.024000637
0.01863732
0.013955942
0.013364773
0.007516157
0.00824281
0.024847295
0.037342615
0.031716216
0.013216575
8.758561E-4
0.0030243725
0.008733397
-0.0029683406
-0.044585247
-0.07108515
-0.049937427
-0.029834356
-0.03144915
-0.025392827
-0.016482664
-0.020546615
-0.023226805
-0.015852025
-0.011624452
-0.012345813
-0.008736997
-0.0028525405
-0.003963614
-0.005226909
0.008658788
0.021958342
0.021498209
0.02168318
0.022868065
0.026782583
0.038010657
0.04160622
0.030801771
0.01932457
0.02573891
0.040713854
0.037250713
0.018857306
0.009134965
0.021321012
0.035319764
0.029342394
0.023989256
0.02138311
0.0048241112
-0.01542407
-0.036198623
-0.046456143
-0.046899468
-0.06448625
-0.06978245
-0.044666775
-0.02798514
-0.024597136
-0.028154725
-0.01728813
0.014306444
0.0049307505
-0.01952925
-0.004094978
-0.0033738203
-0.018488552
-0.021673908
-0.03180158
-0.019061081
0.015055346
0.02723305
0.025957441
0.02821206
0.029904015
0.01757357
0.0014422556
-0.010303122
-0.03604231
-0.042739954
-0.015867999
0.0039264546
0.021449668
0.03948068
0.052114755
0.06794592
0.064359225
0.04597103
0.038287133
0.028424347
0.008205679
-0.0022432934
0.011672636
0.021939814
0.010786439
0.009757531
0.022479864
0.029678363
0.03103316
0.029320048
0.018683158
-0.022314275
-0.07315696
-0.08732075
-0.07933309
-0.07732566
-0.09637527
-0.13217814
-0.1356687
-0.097303405
-0.04424655
0.009138107
0.033060707
0.03244528
0.02982086
0.015985312
0.0145058725
0.03696991
0.04569514
0.040002048
0.03895485
0.04428332
0.05280876
0.0502963
0.04535017
0.050765887
0.050490785
0.051232558
0.05109826
0.030435547
0.019450173
0.022837145
0.009118918
-1.875177E-4
0.0032621007
-0.0013656054
-0.005992487
-0.022199018
-0.06254556
-0.08107298
-0.05826839
-0.039672304
-0.033799905
-0.027849033
-0.038529277
-0.04133715
-0.019646369
-0.0021369327
0.01850371
0.031546477
0.015260727
-0.0017064491
-0.00706508
-0.00998497
-0.026480608
-0.04594392
-0.031015022
-0.0040944163
0.021301428
0.047249872
0.046326607
0.045070298
0.044562235
0.01862135
0.010587442
0.027747301
0.035174206
0.01835014
-0.012559469
-0.01657801
3.2029077E-4
0.003350283
-0.006018591
-0.013858386
-0.003147374
0.0035208655
-0.016741803
-0.02519083
-0.01533274
-0.020328868
-0.03646292
-0.038454693
-0.026763188
-0.023970854
-0.019458134
-0.005306831
-0.0017495287
0.009318106
0.028969394
0.032412093
0.030604094
0.018002817
0.004872944
0.0127010215
0.016259499
0.015884213
0.010336398
0.0077318093
0.042562433
0.06454565
0.0636248
0.07759085
0.05363816
0.004363196
-0.024872761
-0.05838514
-0.073717415
-0.059498087
-0.047849923
-0.038951464
-0.019786056
0.004524401
0.007891735
-0.01523796
-0.05378925
-0.06707323
-0.021458818
0.0117106605
0.0053189923
0.0042535877
7.158732E-4
0.005249725
0.011343842
-0.0014726268
-0.010849098
-0.022004582
-0.026176043
-0.018075606
-0.005284131
0.026242696
0.04053824
0.039881546
0.053115766
0.044191938
0.022869226
0.0076763704
-0.013139267
-0.019983746
-0.009415633
0.0059099533
0.015794227
0.023459334
0.043588385
0.050569646
0.028524972
0.014241577
0.03187413
0.058353707
0.05918879
0.027567782
-0.017123975
-0.041870296
-0.038540684
-0.03720655
-0.04581567
-0.051815435
-0.070319615
-0.103614695
-0.10151684
-0.061251074
-0.051120747
-0.058977984
-0.03471999
-0.007753905
0.0028869128
0.014395087
0.022151725
0.0019075793
-0.038566098
-0.033668306
0.014600276
0.03811744
0.0477893
0.065905765
0.08449149
0.11219978
0.13199504
0.1449795
0.14300658
0.07153076
-0.0059070573
-0.002374725
0.010210381
-0.031350724
-0.088154964
-0.095664516
-0.044884622
-0.013451921
-0.023145327
-0.024786005
-0.010133582
0.0048136725
-0.0061153406
-0.040467054
-0.07787009
-0.12622151
-0.14442563
-0.09682381
-0.030885613
0.012760045
0.026435914
0.020943874
0.018623713
0.024599733
0.02902302
0.030109892
0.036844507
0.038349867
0.028794987
0.020384075
0.014882721
0.022070996
0.028597958
0.01831252
0.015205375
0.018483477
0.026293952
0.039234698
0.03226504
0.017946308
0.011409083
0.008730684
0.011193133
0.0033320182
-0.01196591
-0.020026445
-0.021660514
-0.021212088
-0.020989953
-0.011742718
-0.0054242783
-0.011486921
-0.016821396
-0.02822339
-0.0349672
-0.027502578
-0.020231344
-0.007005603
0.0062499177
0.010563652
0.014871681
0.020466007
0.022983044
0.015163001
0.005290129
-0.0036627306
-0.01265886
-0.009891644
-0.013066138
-0.017483208
-0.0068486896
-0.005253661
-0.0069280863
-0.008072426
-0.014549085
-0.0062058563
0.010348886
0.024317434
0.03284744
0.03476201
0.032411747
0.021361982
0.017103802
0.009674533
-0.009392849
-0.014634113
-0.021339698
-0.026010964
-0.015623918
-0.0036229552
0.023413423
0.038640015
0.027895363
0.022771984
0.005992047
-0.015426098
-0.02019382
-0.021965807
-0.019916961
-0.020755552
-0.028126972
-0.037005663
-0.03858166
-0.026037753
-0.026015192
-0.035743367
-0.033604454
-0.019674184
0.009163977
0.028939664
0.03586171
0.043530665
0.037765194
0.04295822
0.064484
0.06340764
0.03762976
0.003766378
-0.008434736
0.016091296
0.05145029
0.06696597
0.046624526
0.017738124
-0.004174284
-0.030878037
-0.036091857
-0.021110903
-0.007635243
0.0131063815
0.02835255
0.03152817
0.020060128
-0.032579295
-0.107216224
-0.14804356
-0.14148033
-0.1167681
-0.091912985
-0.06436898
-0.03335498
1.1602585E-4
0.021085147
0.027553786
0.037245456
0.029108921
0.0017630201
0.0029534802
0.021846797
0.02113183
0.022656413
0.04746182
0.07583534
0.08005326
0.054931153
0.03271917
0.029054355
0.024770323
0.02997832
0.044801924
0.03657012
0.01740308
0.0075305863
-0.009760787
-0.034796163
-0.039483976
-0.021001907
-0.016647313
-0.023681642
-0.019665303
-0.029171703
-0.038448494
-0.030759465
-0.048289843
-0.075205386
-0.07131939
-0.045173895
0.0040863007
0.059436634
0.087288946
0.096161336
0.09403893
0.06814567
0.026832862
-0.003482936
-0.007057571
0.0034507245
0.0042919307
-0.0030553048
-0.009771819
-0.018126726
-0.023067929
-0.022958763
-0.022108873
-0.013046757
-0.003895851
-0.029579611
-0.07942728
-0.097076945
-0.087064944
-0.080952585
-0.061912928
-0.03009215
-0.013702089
-0.016791513
-0.01708016
0.0020080835
0.024519714
0.036201738
0.04305667
0.054679893
0.07502767
0.08929172
0.09008607
0.08500515
0.076434426
0.052190606
0.008947248
-0.001962276
0.035918746
0.06353298
0.061094444
0.039328665
0.0031773222
-0.043470755
-0.095345646
-0.10834561
-0.07188041
-0.03407716
-0.012327967
1.03327744E-4
0.013377432
0.019132085
-9.940373E-4
-0.014667694
9.4396883E-4
0.017182395
0.019270925
0.016437339
0.0025145074
-0.031620547
-0.046026107
-0.012964026
0.01414616
0.0026939397
-0.016984921
-0.020832723
-0.006215165
0.0030780104
-0.010347398
-0.03179372
-0.06598054
-0.10290486
-0.09434403
-0.04212387
0.0011613378
-0.0019992718
-0.019666834
0.013876531
0.07026602
0.0860127
0.06623909
0.03735096
0.033062365
0.046906035
0.038813394
0.03956736
0.063909404
0.069074176
0.061118174
0.0601986
0.06301433
0.041304883
-0.039576497
-0.10563274
-0.077149175
-0.022882262
0.0062659145
0.012874078
-0.030937491
-0.06473038
-0.0373164
-0.022766324
-0.032415804
-0.038286626
-0.055858903
-0.05981363
-0.055132944
-0.06869422
-0.060191516
-0.016928898
0.018940235
0.022003436
0.01566328
0.036366224
0.063360535
0.06835797
0.057718325
0.03914187
0.024274493
0.01706709
0.015798585
-0.0023161322
-0.042002726
-0.035093337
0.0061422717
0.02001951
0.037710454
0.059209924
0.075572275
0.079701565
0.0221947
-0.027561631
-0.031841747
-0.06414388
-0.07954261
-0.039850622
-0.004067739
-0.017632715
-0.066288054
-0.06080005
-0.008888192
0.008788146
0.008149341
0.0039694775
-0.0032851244
-0.012075205
-0.034615126
-0.038851995
-0.020791326
-0.0019931998
0.017950667
0.034104258
0.05880116
0.07408445
0.06595449
0.0736833
0.078118525
0.05737062
0.045420185
0.030581372
0.0018967898
-0.017727774
-0.03661315
-0.05314518
-0.06105395
-0.077197716
-0.08451679
-0.08231856
-0.08657882
-0.06349799
-0.029027676
-0.017013019
0.002218861
0.024022369
0.035279155
0.045846745
0.046690583
0.0407035
0.030824453
0.028290357
0.035973903
0.036640216
0.039800834
0.02048536
-0.020590924
-0.026732303
-0.021049669
2.5050956E-4
0.06912255
0.1242348
0.14899275
0.15267864
0.10892813
0.04958864
-0.02051457
-0.12680665
-0.1966194
-0.1809143
-0.14896517
-0.1331714
-0.11463692
-0.10250453
-0.07116882
-0.015704859
0.011494738
0.0114427
-0.002028805
-0.015016867
0.0015960826
0.024127087
0.040371977
0.0527196
0.03713134
-0.0045960234
-0.064794965
-0.110360384
-0.09122705
-0.01763346
0.078484654
0.1641411
0.2190786
0.26450038
0.29654744
0.2836731
0.224947
0.13553326
0.04082263
-0.029153746
-0.07514239
-0.1005042
-0.11536186
-0.15184343
-0.18060668
-0.17535692
-0.17152023
-0.15940936
-0.12690398
-0.07747239
-0.031279977
-0.044167694
-0.060820676
-0.039338917
-0.03793039
-0.035086088
-0.036214076
-0.05589579
-0.046273157
-0.03244707
-0.015423599
0.018035501
0.058913767
0.13528895
0.16704856
0.11490276
0.08639569
0.08565965
0.06876966
0.050018117
0.03768881
0.021321539
-0.008422819
-0.01302092
0.011477545
0.013848623
0.0010463111
-0.007989878
-0.013486546
-0.006769741
-0.0014248572
-0.017697634
-0.035744645
-0.022453088
-0.003107973
0.010472025
0.05135666
0.08837477
0.10730531
0.1303536
0.10957646
0.030437168
-0.058840636
-0.12918742
-0.16229874
-0.16142407
-0.15186794
-0.1561464
-0.16430472
-0.15222245
-0.12947732
-0.092761345
-0.04152747
-0.003931351
0.024617407
0.045906726
0.0498189
0.05001948
0.054945335
0.06320173
0.05786898
0.044726174
0.060627215
0.10249934
0.14846306
0.17709213
0.18911295
0.2092175
0.20796646
0.1782615
0.15502737
0.107900046
0.023043165
-0.05559249
-0.10122041
-0.108343735
-0.09257145
-0.080354646
-0.08258984
-0.08891811
-0.09553656
-0.10665049
-0.101671524
-0.079684615
-0.07166845
-0.09218656
-0.12817338
-0.13952203
-0.118202664
-0.08930183
-0.040302202
0.021457784
0.04090525
0.007965573
-0.030111833
-0.049266197
-0.06364315
-0.068081595
-0.04949017
-0.01591864
0.02425709
0.059458856
0.08107129
0.09448188
0.10756922
0.117432855
0.10878368
0.094065234
0.0999486
0.11789967
0.13435167
0.14722209
0.15801476
0.16434014
0.15685126
0.14340982
0.112098716
0.049806133
0.0027311575
-0.0107285455
-0.026953556
-0.057442952
-0.092690445
-0.13276489
-0.17427
-0.20126793
-0.22181375
-0.23475343
-0.20193471
-0.15742218
-0.15166338
-0.14682998
-0.13055627
-0.11911406
-0.085982814
-0.031326957
-0.009724914
-0.026029175
0.0018206161
0.0750077
0.11155116
0.1183823
0.12145259
0.113647655
0.10357308
0.087778404
0.08216953
0.09723539
0.10418879
0.092437625
0.07122351
0.06223335
0.0590053
0.03227526
0.008940601
-0.0029489172
-0.034493957
-0.056019884
-0.029340222
0.027192138
0.059820373
0.02590206
-0.03188645
-0.051504984
-0.05212853
-0.04065402
-0.004127463
0.015767679
0.011544506
0.005351724
-2.9564378E-4
0.0099013215
0.010311524
-0.019512303
-0.049355805
-0.070017464
-0.070488736
-0.062944464
-0.056537267
-0.0076528834
0.03601867
0.0025616237
-0.044619545
-0.045849334
-0.03345313
-0.02607285
-0.010212148
-0.011102261
-0.027152712
-0.014618205
9.154764E-5
0.0037083072
0.019047117
0.020494923
0.015613394
0.017857881
0.011188085
0.010551843
0.018699387
0.030747158
0.032109145
0.0073824325
-0.0033469151
0.01651711
0.034237266
0.021358235
-0.0064283446
0.0045617926
0.027009452
0.020072734
0.023299852
0.034009594
0.038067583
0.046907105
0.033456232
8.334215E-4
-0.024871942
-0.044875406
-0.045375086
-0.015220458
0.02037249
0.028584074
0.01191951
8.9440634E-4
0.008931898
0.019160785
0.009789485
-0.016787544
-0.039884623
-0.04139467
-0.03884121
-0.053341556
-0.052584246
-0.045715455
-0.054145794
-0.027039377
0.030759778
0.07794335
0.0898235
0.056405794
0.040447626
0.04504536
0.028576987
0.02344375
0.029827528
0.028327866
0.014443445
-0.006336278
-0.0024422014
0.008613353
0.011540637
0.020447303
0.021033619
0.014433795
0.011844973
3.3335917E-4
-0.044021163
-0.09577653
-0.11336682
-0.12318857
-0.1298601
-0.12700468
-0.12083879
-0.078056015
-0.0325958
-0.025737917
-0.026950672
-0.017271569
0.014003051
0.04453266
0.06559609
0.097986355
0.11870331
0.12497963
0.11580642
0.10390732
0.120405495
0.1091702
0.06353898
0.05166411
0.060162295
0.049804676
0.019483078
-0.007246691
-0.0264276
-0.052042045
-0.07233419
-0.080755085
-0.069988094
-0.052641574
-0.051943667
-0.0460571
-0.04104326
-0.046087302
-0.03831267
-0.03471376
-0.047153085
-0.058341473
-0.05594953
-0.044517238
-0.03321425
-0.004205138
0.03199747
0.045361023
0.041949544
0.027232464
0.014904418
0.008021271
-0.011051185
-0.024637938
-0.024047907
-0.021468787
-0.013896144
-0.012499333
-0.03251075
-0.057792876
-0.04691211
-0.0013154154
0.026438214
0.04961259
0.092953295
0.089827
0.045704454
0.051646102
0.082059056
0.07595984
0.051967002
0.0131417345
-0.027876507
-0.030686028
-0.017974429
-0.018823767
-0.013645633
1.1089567E-4
-0.0019165984
-0.015458152
-0.015351552
-0.023274925
-0.056642033
-0.065421455
-0.033919267
0.0023909875
0.033981126
0.046254635
0.028930718
0.016482385
0.014498552
-0.0045261
-0.021768251
-0.017970037
-0.0023799343
0.021030031
0.018753253
-0.0105956085
-0.012626878
-2.3496483E-4
-0.006365888
-0.022974228
-0.04132136
-0.040325176
-0.031971518
-0.03794429
-0.031004714
-0.012349429
-0.007155642
-0.009878116
-0.006931614
0.0034199643
0.014744432
0.02569068
0.034024622
0.04507191
0.06536888
0.07558105
0.0666448
0.047766127
0.026549118
0.012333934
0.0076312753
0.0077664535
-3.0557788E-4
-0.005425972
0.003864395
-0.0022026785
-0.01695845
-0.044006694
-0.10251225
-0.11644159
-0.07089976
-0.037582587
-0.014522604
1.2306338E-4
3.500649E-4
0.004407342
0.0013303701
-0.003441163
-0.0022210614
-0.0021590083
0.009413491
0.02609931
0.03642773
0.04611047
0.05212734
0.055566374
0.065667175
0.07354499
0.0626555
0.0509143
0.052526936
0.049107105
0.034213275
0.004834391
-0.023418626
-0.028005369
-0.024577575
-0.0162297
-0.017687347
-0.056986988
-0.090470225
-0.07451636
-0.049796537
-0.068338074
-0.09299267
-0.06004046
0.006011056
0.047625955
0.044702902
0.021457218
-0.015364167
-0.079278015
-0.09278285
-0.044603538
-0.033704
-0.021031315
0.040843807
0.08147863
0.07486987
0.051377267
0.023559725
-0.027107382
-0.047512688
0.015159254
0.05646751
0.0400664
0.016164882
-0.02151832
-0.015631106
0.015754657
-0.017054092
-0.049846653
-0.037193168
9.907397E-4
0.06292403
0.104802825
0.115541644
0.09029997
0.029892199
0.013706628
0.04062831
0.045862492
0.030095901
0.004930224
-0.0055396426
0.00691416
0.01836996
0.02092177
-0.011044303
-0.07152213
-0.108754836
-0.11031333
-0.09659639
-0.090580836
-0.075320534
-0.048514795
-0.06081483
-0.08008759
-0.0703889
-0.07144951
-0.05103777
1.708778E-4
-0.0028777607
-0.04150198
-0.024166197
0.030604616
0.05769662
0.062188566
0.06518395
0.06714383
0.071054004
0.0796921
0.10021336
0.118323006
0.11441969
0.102123715
0.094725944
0.09106551
0.072659336
0.045847144
0.03863671
0.023389988
-0.0025347779
-0.010239629
-0.015338165
-0.007961565
0.009301995
-0.0031612087
-0.03273881
-0.04756233
-0.04608361
-0.055939022
-0.081405886
-0.08676965
-0.08609164
-0.10231286
-0.111909024
-0.113256924
-0.11538948
-0.11663778
-0.119858675
-0.11043188
-0.071521044
-0.019584423
0.011843081
0.021518141
0.032250464
0.037120845
0.028209738
0.027024891
0.036964744
0.044729285
0.051687706
0.065748036
0.08605148
0.0959014
0.09757211
0.113260165
0.1361273
0.15258867
0.15805474
0.14225513
0.10475752
0.05278308
0.0041137235
-0.023843754
-0.034038633
-0.03628291
-0.036518354
-0.0287083
-0.022731226
-0.04962765
-0.0954459
-0.10206553
-0.04400757
0.025506994
0.038331177
-0.006155581
-0.06609724
-0.103069656
-0.122128546
-0.13722622
-0.123403534
-0.09232559
-0.06384246
-0.035499766
-0.031146428
-0.032946397
-0.016355189
0.016966509
0.08521036
0.12894258
0.081004314
0.0014131294
-0.033204075
-0.00722397
0.0481038
0.08289328
0.063244686
0.0021184592
-0.019409826
0.026823638
0.06375705
0.06165766
0.045172285
0.008206698
-0.03012147
-0.02846337
-0.005013914
0.0028872194
-0.0028500005
-0.009797122
-0.018848376
-0.0175926
0.005750797
0.0028069022
-0.035270933
-0.034738388
-0.008912826
0.001912837
0.030149333
0.065877184
0.068423875
0.038505543
0.0262154
0.053280257
0.06952872
0.08191072
0.09925065
0.060640015
-0.023829529
-0.08921808
-0.11512909
-0.1268081
-0.11799953
-0.068608575
-0.039929044
-0.04840794
-0.05273196
-0.054708328
-0.037628964
-0.013745433
-0.005110662
-0.010003591
-0.047424328
-0.056904085
-0.009562705
0.025372982
0.055165224
0.09264078
0.10569849
0.0876945
0.042633712
-0.011358129
-0.048522905
-0.04776228
-0.02698654
-0.0064711827
0.023264134
0.03412029
0.044039786
0.069342434
0.03905585
-0.022011606
-0.06134853
-0.091095924
-0.07351474
-0.013317444
0.024172248
0.029744841
0.03297618
0.048897758
0.06422613
0.074062236
0.07415133
0.055877794
0.04054149
0.02595232
-0.0015968018
-0.012743302
-0.0026834172
-0.0044128136
-0.015716158
-0.016669773
-0.012740021
-0.0024744007
0.013090125
0.022649318
0.023177005
-0.0063525154
-0.05027546
-0.08855961
-0.13947612
-0.1452512
-0.10076502
-0.07761431
-0.03241248
0.03874861
0.07465524
0.09041343
0.079154775
0.039006654
0.0048728073
-0.03589237
-0.0698718
-0.05171972
-0.023245875
-0.032433033
-0.037789725
-0.034082245
-0.025975632
0.027343186
0.079171784
0.10076239
0.13976401
0.17536075
0.18282795
0.1570337
0.084754705
0.002901226
-0.05470339
-0.09019941
-0.10401423
-0.093170345
-0.07035356
-0.060666703
-0.08075024
-0.11035099
-0.08327469
-0.031253055
-0.048612893
-0.06563907
-0.03181626
-0.028571075
-0.047296632
-0.03601902
0.002199417
0.027136715
0.0022238276
-0.025262373
-0.03074877
-0.0310513
0.010227154
0.07445277
0.117305815
0.15067181
0.163844
0.16426186
0.16138358
0.10813768
0.031178938
2.5868212E-4
-0.013920237
-0.05421064
-0.09868684
-0.11310568
-0.0713407
0.013428097
0.059009373
0.030860387
-0.013029856
-0.058350846
-0.09287474
-0.063159615
0.005021268
0.05211143
0.049501523
0.015290542
-0.015245829
-0.06762755
-0.09407836
-0.045200218
-0.017542727
-0.026409598
-0.03390667
-0.04380512
-0.021158317
-0.0039974223
-0.035617482
-0.084669836
-0.11834078
-0.08844064
-0.023603572
0.01711985
0.040298857
0.041146442
0.03595076
0.044166703
0.063438915
0.08898583
0.089684814
0.07884277
0.054655638
-0.004600856
-0.03411175
-0.026351742
-0.019773483
0.016337356
0.06892127
0.09773818
0.120869875
0.14240012
0.11733739
0.060771327
0.051624715
0.07648002
0.069643654
0.030558636
-0.0233201
-0.07957896
-0.12634577
-0.15643877
-0.15020283
-0.1158799
-0.09000999
-0.072493225
-0.06070843
-0.06581309
-0.06279565
-0.05845661
-0.07332131
-0.07285693
-0.08029781
-0.10441382
-0.07862581
-0.04467703
-0.035630804
0.009560126
0.060521167
0.0703733
0.054581832
0.03807033
0.056878407
0.094413586
0.1200215
0.13631262
0.12846565
0.121926256
0.14018206
0.13942309
0.11191202
0.07315089
0.03034361
0.01959677
0.011006628
-0.060954846
-0.12070824
-0.09204752
-0.071863905
-0.09093728
-0.052431297
0.014407278
0.047085263
0.07518626
0.07456215
0.025950886
-0.008378621
-0.006476998
-0.009127157
-0.05884076
-0.13508263
-0.18210131
-0.20474459
-0.19597094
-0.124326795
-0.035660785
0.023056276
0.05773853
0.06739058
0.044519648
0.008113175
0.003946021
0.025572559
0.007790756
-0.040786806
-0.04543474
-0.0011687058
0.031494338
0.028665992
0.01517201
0.017976979
0.03188311
0.024807878
0.0050077224
0.004564842
0.021809924
0.058264915
0.10570905
0.12786622
0.11737393
0.10332906
0.0970986
0.07070983
0.026233234
-0.012063233
-0.056900598
-0.07449409
-0.007190868
0.0936509
0.13707185
0.12174443
0.09479037
0.0645162
0.027124159
-0.012656543
-0.06380393
-0.12496341
-0.17500359
-0.19701159
-0.21602158
-0.24213935
-0.23614964
-0.22189556
-0.21537475
-0.18691894
-0.16291317
-0.115692094
-0.026319148
0.023596002
0.034512036
0.0451435
0.057860065
0.09706878
0.15149985
0.19655047
0.22891812
0.24116692
0.23878771
0.21153495
0.17173253
0.15577208
0.12127292
0.0634991
0.04957136
0.042683043
0.0029206248
-0.033748053
-0.05600903
-0.07165704
-0.120366
-0.16863044
-0.1312704
-0.08570546
-0.09322771
-0.11535307
-0.13976422
-0.117608525
-0.061650865
-0.025710158
0.017858325
0.06982444
0.110467285
0.13193597
0.14218745
0.14093776
0.08496556
1.3448103E-4
-0.06683254
-0.09081841
-0.0634977
-0.057810746
-0.07697318
-0.09227112
-0.1161306
-0.11210611
-0.12332475
-0.15331766
-0.10801307
-0.032726362
0.023180602
0.07184483
0.08990899
0.09696113
0.11397246
0.12731577
0.13058148
0.12169554
0.115554206
0.12241236
0.12598066
0.10963929
0.07741483
0.058488857
0.07713094
0.073382795
-0.012528154
-0.09786113
-0.1402718
-0.19243371
-0.21203986
-0.16326901
-0.113031805
-0.108728655
-0.1093398
-0.07006013
-0.027798831
-0.0013031798
0.016310252
0.020599797
0.039315525
0.06479916
0.08747054
0.10667548
0.10580288
0.11908733
0.13332075
0.115461096