6.265214E-4
0.0014644335
0.0016620435
-7.0258323E-4
-0.0025807475
-6.1253563E-4
0.0018700256
0.0014988531
0.0019921558
0.0018192256
-6.1584223E-4
-0.0010207458
-3.9992714E-4
-8.749502E-4
-6.469466E-4
2.201318E-4
5.324081E-4
9.4934256E-4
8.840372E-4
5.144494E-4
0.001709118
0.0012887054
-0.0013208862
-0.0011037203
1.2353448E-6
-7.766976E-4
-5.154975E-4
-9.971245E-5
-0.0016013593
-0.0015289952
7.215995E-4
0.0011601746
3.6737084E-4
1.8167957E-4
2.2074969E-4
2.1825457E-4
-5.6716165E-4
-0.001092395
-0.001115346
-9.763572E-4
6.791878E-5
-4.13349E-5
-7.0117426E-4
-0.0013222921
-0.0031264352
-0.001739643
9.034175E-4
-3.7305694E-4
-6.3235324E-4
0.0017677372
0.0033726052
0.0033704299
0.0013218871
-1.1746848E-4
5.589365E-4
0.0010093969
0.0016794899
0.0023256638
0.0016060963
9.0204977E-4
3.932847E-4
-1.5870159E-4
-6.659944E-4
-6.2919967E-4
2.2689038E-4
-5.672904E-4
-6.655954E-5
0.0019888186
-4.322255E-4
-0.0013002909
-5.2398164E-4
-0.0019330287
0.0017541283
-0.0020248706
-0.01428698
-0.009775392
0.0011770831
0.0026585981
0.00396571
0.0039233
0.0018663423
0.0010041093
2.0412095E-4
0.0017161653
0.002244635
4.4628463E-4
-4.513968E-4
-5.558113E-4
0.0011481049
0.0021304344
0.0013610603
0.0010585916
2.6348975E-4
4.012168E-4
-5.620499E-5
-0.001597695
-3.6256853E-5
0.0011499505
4.9672375E-4
5.0462794E-4
-1.682477E-4
-7.12443E-4
-0.00159148
-0.0024131727
-0.0011459149
-2.1326156E-4
2.0615528E-4
7.1256066E-4
7.062132E-4
0.0010069488
6.8206526E-4
-1.02525824E-4
-8.5854455E-4
-7.892421E-4
2.6689406E-4
-0.0010004607
-0.0019182411
-2.9689656E-4
0.0011651526
0.0027778898
0.0015378805
-8.232716E-4
-2.6837326E-4
-4.236942E-4
4.5149258E-4
-2.5122312E-5
-0.00401732
-0.0024765343
4.2231206E-4
-8.615435E-4
3.9548668E-5
0.0024607049
0.002853259
4.0422793E-4
-0.0014229413
5.227414E-4
0.0014856759
0.0012871166
7.032803E-4
-0.0010820323
5.1941774E-5
0.0012617046
2.3389094E-4
9.860729E-5
-0.001345375
-0.0017831441
5.7010225E-4
-4.6995856E-4
-0.0025764916
-6.098728E-4
0.0013715067
8.820624E-4
2.1542031E-4
-2.0710129E-4
-0.0011456908
-0.001275592
6.311273E-4
0.0020345235
0.0010875203
3.9796208E-4
8.329887E-4
6.9079426E-4
-4.2754094E-4
-0.0021279189
-0.001830713
6.076199E-4
9.07734E-4
-2.3397737E-5
-3.0048424E-4
-4.0322435E-4
0.0014538092
0.0020566355
4.876418E-5
-1.279229E-4
-2.510779E-4
-1.4067428E-4
0.0012850674
2.3532352E-4
-6.5313483E-4
3.1984446E-4
4.8049178E-4
-1.2773885E-4
-8.8589964E-4
-6.3375905E-5
9.131934E-5
-0.001152518
-3.0435916E-4
-6.1020895E-4
-0.0011362735
9.858306E-4
0.0015120824
7.3913776E-4
-8.311004E-4
-0.0024641855
-9.90701E-4
-3.5798005E-4
-0.0023662401
-0.0024038285
7.589799E-4
0.00330705
0.002473844
6.5683183E-4
-1.9697234E-4
1.7591668E-4
0.0010330431
3.5487197E-4
-7.0220485E-5
0.001021176
0.0016433989
0.0013834205
3.4810693E-4
-5.954531E-4
-1.0690777E-4
1.2718547E-4
-0.0011499572
-6.50219E-4
8.007071E-4
-9.349609E-4
-0.0014274705
7.959793E-4
4.3424979E-4
-8.1485725E-4
-8.7460456E-4
-0.0013985476
-0.0016738222
-2.3336394E-4
0.0012476783
7.062765E-4
7.801817E-4
0.0010733933
-1.2330466E-4
1.9298084E-5
-1.6482247E-4
-0.001043943
-2.816543E-4
6.9291046E-4
0.001450164
4.3537287E-4
-7.9978525E-4
2.9930583E-4
9.766566E-4
0.0014110912
9.416174E-4
-0.0010303349
-0.002535157
-0.002944364
4.521981E-6
0.0020824063
5.807158E-4
-2.1659286E-4
-0.0013443689
-1.9578823E-4
0.0019437912
-3.945108E-4
-0.0012268457
-8.7069237E-4
-0.0017934409
1.2249923E-4
0.0020572504
0.0024452314
0.0019364691
9.85666E-4
7.145627E-4
-0.0012494873
-0.0020475865
-0.0010364706
-0.0010587905
9.166964E-4
0.0012856107
-6.423083E-4
9.000827E-4
0.0018072046
5.252379E-4
-6.250457E-4
-0.0017434045
-3.0616942E-4
8.5807854E-4
-2.0167704E-4
6.406671E-4
0.002008298
7.6256745E-4
-0.0019247506
-0.0015875825
0.001394756
3.58712E-4
-0.0014429204
1.4850985E-4
-6.290763E-5
-5.301251E-4
3.6574365E-4
-0.0010193543
-0.0018400779
-0.0014269109
-0.0020699142
-0.0012842478
-2.3115611E-4
-9.305535E-4
-2.3478348E-4
0.0016002732
0.0019169752
0.0016746225
0.001637452
0.0014349939
7.294553E-4
-5.0523726E-4
-3.3038316E-4
9.3231676E-4
7.9069927E-4
1.66527E-4
0.0012231538
0.0027905577
0.0014451318
-6.4344687E-4
-6.9743546E-5
-6.88778E-4
-0.0019494309
-0.0010694077
-7.320082E-4
2.6866703E-4
0.0011318164
-4.7917035E-4
-7.457843E-4
-1.0853713E-4
-0.0013861503
-0.0029467838
-0.0016415359
0.0017302528
9.842222E-4
-0.0020175297
-0.0012529447
4.2161313E-4
0.0015383062
0.00214224
1.4694361E-4
-0.0012954763
-3.702768E-4
1.21290446E-4
4.996144E-4
0.0014747687
0.0012017058
-8.87481E-5
-0.0010477181
-7.380571E-4
5.072254E-4
-8.197587E-4
-0.0024514978
-7.995251E-4
-6.066833E-4
-4.2671573E-4
0.0015054303
4.7168927E-4
8.745301E-4
0.0020157548
-8.0589193E-4
-4.4172967E-4
0.0012073099
-5.111507E-4
2.0038318E-4
0.0013969379
8.575903E-4
0.0018546036
0.0020670476
8.932659E-4
-1.4501896E-4
-0.001223206
-3.0430738E-4
7.7862386E-4
-0.001116706
-0.0017439965
3.0690548E-4
0.0012432807
0.001397791
3.9840784E-4
-0.0015168663
-0.0012755623
-0.0015508384
-0.0023390981
-7.53157E-5
7.71669E-4
-0.0010698622
-7.188963E-4
0.0011051429
0.0014205498
1.01287085E-4
-0.0010700212
-9.6279464E-4
-2.5056145E-4
3.5866234E-4
0.0012012046
0.0029785216
0.002848748
-7.0287136E-4
-0.0025822867
-0.0010766012
-6.84095E-5
-0.0011165068
-0.0021443379
-0.0015873417
-0.001197287
-9.4469707E-4
7.093765E-4
0.0015202931
8.3567767E-4
9.2619134E-4
0.0014327458
4.314353E-4
-4.256534E-4
0.0010258758
9.570394E-4
-0.0011245903
-4.1549955E-4
0.0012610542
0.0014802772
9.401906E-4
-5.6938233E-4
-4.6994913E-4
0.0015877591
0.0021137386
0.0013157111
0.0014531835
0.0021024505
0.0016266106
-5.094769E-5
-0.002501849
-0.0039783516
-0.0033946433
-0.002665342
-0.0017987958
-0.0015427743
-0.0021481102
-0.0014221413
-0.001168661
-6.7007664E-4
3.6557126E-4
-8.494435E-4
-6.2093075E-4
0.0011063657
0.0015215987
0.0019412673
0.0022733833
0.003198405
0.0032267347
0.001870383
7.7513914E-4
-8.624516E-4
-9.0183323E-4
-5.102908E-4
-8.461279E-6
0.0016694916
6.687744E-4
0.0011247714
0.0021810478
3.3641286E-4
0.0012606098
0.002324742
0.0024953792
-0.0037128406
-0.013286558
-0.0033952142
0.0041248235
-0.008264778
-0.0057003633
0.0057469155
0.004317524
0.002576654
0.0011137184
-0.0011327653
-6.172479E-4
-7.0279936E-4
-1.725503E-4
8.021317E-4
0.0017708244
9.488397E-4
-0.0011261528
-5.8050425E-4
-0.0012623838
-6.896757E-4
0.0019579893
7.0657936E-4
8.242734E-4
0.0017414091
6.278101E-4
0.0011925919
-1.9338471E-5
-0.0012602861
-8.732112E-4
-0.0018890264
-8.4479875E-4
-1.7507502E-5
-5.234766E-4
0.0014604387
0.0026572342
0.0026801482
0.0024310318
2.3041182E-4
-0.0010416902
5.3264835E-4
0.002130439
0.0012353983
6.5916814E-5
-2.8753743E-4
-0.0010952695
-9.31697E-4
-0.0021114524
-0.004062517
-0.002558638
-0.0014955599
-0.0016345865
-0.001007272
-0.0014343043
-0.0012502958
-1.4471458E-4
3.7597262E-4
-4.2136926E-5
-6.0863077E-4
-3.8647678E-4
-0.0022575238
-0.0027645985
0.0014646093
0.002739981
9.618373E-4
0.0016294197
0.0025549778
0.0013655423
7.134533E-4
0.0026676839
0.0024874685
-1.9477784E-4
8.6891676E-5
0.0014405571
0.0019043792
0.0016192868
6.5668597E-4
-8.813577E-5
-0.002619343
-0.0037412557
-0.0015164618
2.532006E-4
0.0019864056
0.0013662251
-4.227899E-4
9.1713376E-4
2.4957527E-4
-0.0028356432
-0.0036681201
-0.0022541282
-3.6594784E-4
9.120216E-4
0.0026147687
0.0026517408
0.00157193
5.6735455E-4
-0.0035955347
-0.0042375135
-0.001027493
-0.0013448439
3.1160107E-5
0.0016598388
4.336799E-4
9.1793324E-4
0.0011010166
0.0017472684
0.0025509263
-1.8905787E-6
-0.0025853042
-0.0032702736
-0.002037403
-4.6611577E-4
-9.988011E-5
9.725751E-4
0.0025940419
0.0036098093
8.291354E-4
-0.0036417157
-0.002967898
-3.9137018E-4
0.0017716816
0.0037316736
0.0035679091
0.0038162281
0.002412231
-9.216626E-4
-0.001675972
-0.0021490972
-0.0023777124
-0.0017013544
-0.002251381
-0.0011816195
9.273919E-4
-6.33766E-4
-0.0029369306
-0.0016118654
-8.145427E-4
-0.0020184258
-0.0011739231
-4.8001294E-4
-0.0013995413
-0.0019676718
-0.0014740927
0.0016616179
0.003133242
6.4903585E-4
-1.0213189E-4
6.570037E-4
0.0010361875
0.0019382692
0.002996605
0.0039726966
0.002516331
7.409237E-4
0.00387717
0.0058891713
6.719267E-4
-0.0041413656
-0.003557241
-0.0025623974
-0.0012075623
0.001880622
0.0021634307
4.111553E-4
-1.6019458E-4
-0.0013557526
-0.003418464
-0.0045693596
-0.0034949125
-9.245052E-4
-6.371984E-5
-0.0016552139
-0.0030610848
-0.0019572547
-4.1401005E-4
-5.7791406E-4
-4.9991923E-4
-0.0010642316
-0.0012596222
0.0019071393
0.0031873367
0.0017854888
0.0024039585
0.002169295
0.0010189792
0.0015368179
0.0016454645
0.0015019862
5.590024E-4
-6.32762E-4
7.360788E-4
8.1913953E-4
-0.0013044536
-0.0015095725
-2.6867894E-4
0.0015014283
0.0014236333
-6.4758625E-4
-8.437727E-4
-0.0015305788
-0.0022198684
-1.7151852E-4
5.6548964E-5
-3.9181457E-4
5.810522E-4
3.657098E-4
0.0010622141
0.0017884889
0.0011894609
7.4565597E-4
-0.0012618763
-0.001520808
4.5910507E-4
-8.7814766E-4
-0.0022731894
-0.0010744365
-1.0137864E-4
2.1006879E-4
-8.076264E-4
-0.0023436723
-0.0023652494
-0.0010145891
7.091119E-4
0.0014882204
0.0012872637
8.0155366E-4
4.3642108E-4
5.8106135E-4
5.319342E-4
3.369438E-4
6.4496294E-4
8.499424E-4
0.0010616372
0.0018202937
0.0022041844
0.0015435223
5.479603E-4
1.3173086E-4
-3.6954868E-4
-0.0019743098
-0.002581429
-0.0014977594
-5.978041E-4
0.0011100632
0.0017600427
-2.4561063E-4
-1.453402E-4
4.1674712E-4
-0.0016019362
-7.92331E-4
0.0012507589
-0.001887211
-0.0053369724
-0.0041229883
-0.0021639985
-7.427287E-5
0.0024844503
0.0027623232
0.0024620946
0.0013630624
-4.07313E-4
8.468499E-4
0.0010114757
-0.0011171356
-0.0016897032
-0.0030048476
-0.0041503306
-0.0038738172
-0.0032503125
-5.5012584E-4
0.0027546557
0.005057004
0.0053550173
0.0049860226
0.007962456
0.0089907255
0.0046794433
1.224898E-4
-0.004416617
-0.009051324
-0.010454557
-0.0073228283
-0.004332645
-0.004352104
-0.0013906165
0.0029695637
0.0043328037
0.006493392
0.006755234
0.0040977583
0.002436518
2.2762925E-4
-5.374408E-4
1.0873827E-4
-5.488211E-4
3.0866734E-4
4.38643E-4
-0.0020599891
-0.002666341
-7.668479E-4
5.533043E-4
1.7282463E-4
0.0013906573
0.004223298
0.004587403
0.00465418
0.0062019527
0.005204635
6.904331E-4
-9.5168833E-4
-0.0021997916
-0.014657988
-0.024865614
-0.02048206
-0.018315617
-0.014889385
-0.0028160142
0.0011740167
0.0011413449
0.0052853688
0.0038929726
0.0026004964
0.009497658
0.01392277
0.010955992
0.010456945
0.012423693
0.0090708975
0.0048953914
0.0020765946
-0.0019659959
-0.0012900612
0.004211593
0.009021953
0.011830406
0.010797248
0.008367959
0.008491592
0.00879999
0.006647236
-1.5331212E-4
-0.010785723
-0.019338377
-0.024952887
-0.02584022
-0.01895986
-0.013117261
-0.011487045
-0.008856356
-0.007965269
-0.0074583106
-0.0041678874
-3.893959E-4
0.00354013
0.0068221553
0.010415693
0.011273434
0.0069353716
0.0057858904
0.004674614
-0.0015465602
-0.0041587893
-0.0035709534
1.771667E-4
0.009925136
0.0146763865
0.0130534
0.013073997
0.011811507
0.009920642
0.009102183
0.004745841
4.4859032E-4
-0.003930888
-0.013365011
-0.016736196
-0.008775978
-0.0018005683
-3.55072E-5
-0.0017750248
-0.0065361094
-0.007831066
-0.0037995032
-0.0017476269
-0.0036309827
-0.006478376
-0.008861042
-0.008436353
-0.0058327923
-0.004192719
-0.0027630401
-2.3586917E-4
0.0028461907
0.005386876
0.007759377
0.011473488
0.01406742
0.0124707995
0.009663906
0.010834014
0.01445319
0.014708699
0.0077580884
-0.0077658226
-0.020456774
-0.020577934
-0.021958029
-0.026439527
-0.019472165
-0.007791597
-0.0012111431
8.585669E-4
-0.0025573883
-0.00473319
6.9413445E-4
0.0060414416
0.0061623086
0.007956765
0.011580318
0.010351955
0.008041311
0.010740529
0.020150028
0.028812135
0.026461868
0.022183778
0.020167641
0.014939231
0.012773746
0.007722265
-0.008329079
-0.026210936
-0.035535816
-0.032525912
-0.027763978
-0.027114857
-0.02478599
-0.023507265
-0.02265048
-0.020635592
-0.018031703
-0.012946443
-0.011362315
-0.011756553
-0.007857272
-0.001440739
0.0048893304
0.012245066
0.024534224
0.033942804
0.043526366
0.056929596
0.049081393
0.032238778
0.024775399
0.0069217654
-0.010398895
-0.020385122
-0.028966023
-0.026962856
-0.029976608
-0.0353443
-0.023932993
-0.0036570479
0.015087737
0.02285049
0.0316542
0.04634853
0.029345017
-0.022320783
-0.060432903
-0.05684933
-0.036563285
-0.028880548
-0.021236528
0.003281118
0.033509575
0.03675064
0.016698947
0.020019963
0.03783681
0.037073247
0.030812576
0.029499145
0.025795195
0.021210121
0.022682909
0.0043736855
-0.05162828
-0.08651332
-0.0746742
-0.053575058
-0.02105341
0.008942714
0.004714623
-0.010039512
-0.03362293
-0.07487669
-0.09048798
-0.09526408
-0.12479211
-0.10480624
-0.0031710453
0.0988287
0.16590258
0.20179018
0.18884914
0.1482785
0.116714865
0.06335804
-0.0087619955
-0.026586376
-0.036058232
-0.07067525
-0.0380436
5.929666E-5
-0.028362494
-0.035325054
-0.024549399
-0.030135274
-0.058470204
-0.1157524
-0.13699275
-0.16850927
-0.23241362
-0.21443209
-0.17629772
-0.1552013
-0.06450816
0.046551157
0.14751253
0.22804251
0.23533478
0.18823734
0.09974048
0.022197438
0.0090041915
0.007850198
0.008762728
0.036343332
0.09837263
0.19028711
0.267276
0.28928813
0.19349764
-0.01566055
-0.21731302
-0.32842618
-0.31307864
-0.21526173
-0.11500296
-0.03916258
-0.023555769
-0.017337289
0.024931075
0.060010325
0.12891372
0.1899056
0.16506478
0.09687897
-0.065197706
-0.2933173
-0.4101939
-0.35776302
-0.18066981
-0.022600671
0.035317615
0.0817928
0.104124695
0.07518291
0.059054136
0.035119478
-0.020613328
-0.07319408
-0.08404244
-0.037689183
2.3001448E-4
-0.013535783
-0.02382621
0.013885152
0.092236504
0.1740031
0.21620345
0.21117203
0.19993666
0.20634541
0.16711639
0.06486338
0.006103949
0.0068576685
-0.01347288
-0.04334912
-0.058337383
-0.07235729
-0.068548664
-0.05633248
-0.049232256
-0.028733507
-0.008579707
0.0042890985
0.019113187
-0.001464116
-0.080292955
-0.16704825
-0.20680805
-0.19171266
-0.13979182
-0.09362749
-0.08297495
-0.074922495
-0.04482478
-6.978333E-4
0.051025134
0.07493165
0.055068407
0.03955209
0.058452964
0.076166436
0.05714459
0.019328633
-0.011727479
-0.010290492
0.03983224
0.10594319
0.1663042
0.1895787
0.15065303
0.12197932
0.13563088
0.13455558
0.08096346
-0.0227402
-0.11586184
-0.16938329
-0.19626807
-0.16464505
-0.09987395
-0.05946032
-0.036771335
-0.023034016
-0.013665031
-0.0081461035
-0.007574682
-0.002529519
-6.878547E-4
9.2889986E-4
0.007939437
0.013792383
0.022209344
0.025606913
0.023303863
0.028568253
0.035163373
0.0346209
0.0298705
0.023869716
0.014978112
0.005245406
-0.0017843107
-0.011066672
-0.021789823
-0.030021148
-0.035391215
-0.035718247
-0.035045177
-0.034921855
-0.031801622
-0.026899284
-0.021005865
-0.014978477
-0.0093535045
-0.0056488873
-0.0045706644
-4.6171105E-4
0.0046902276
0.0062655574
0.00850319
0.010389942
0.007641426
0.0016000223
-0.005585452
-0.012880841
-0.018688137
-0.02166716
-0.022898795
-0.021219214
-0.015130165
-0.008710767
-0.0040041893
-0.0012298991
-0.0010348884
4.1104737E-5
0.003948109
0.008884225
0.013931611
0.020289559
0.02946888
0.039526083
0.04958839
0.059245348
0.06574834
0.071559906
0.077703476
0.08163683
0.084699936
0.08322976
0.074989885
0.06517369
0.052193347
0.03347321
0.013122346
-0.004847915
-0.019292489
-0.030350018
-0.037001308
-0.039697208
-0.03831617
-0.033825193
-0.032696914
-0.03293852
-0.02935362
-0.026480347
-0.025389189
-0.027201718
-0.0371321
-0.05149697
-0.06699479
-0.08485057
-0.099281736
-0.10939954
-0.121305555
-0.12938252
-0.1296126
-0.12718171
-0.11951481
-0.104975946
-0.08483264
-0.057764713
-0.027531033
0.0011906676
0.02594112
0.052517623
0.0830051
0.10789836
0.1309158
0.15122253
0.16481677
0.18234445
0.19879621
0.21193914
0.22755186
0.24692899
0.27206823
0.273732
0.25530353
0.26141992
0.2620314
0.20190825
0.06810898
-0.10514638
-0.23337606
-0.28927812
-0.30788434
-0.30497503
-0.29439917
-0.27873328
-0.25563392
-0.23655817
-0.21822023
-0.19831307
-0.17850304
-0.15426381
-0.12909831
-0.10198117
-0.06781735
-0.032496836
-0.0052825655
0.01597483
0.03958193
0.06502325
0.09223269
0.12063746
0.14214762
0.1558964
0.16531132
0.16722177
0.15800355
0.14251815
0.12667675
0.10705184
0.08393733
0.06250253
0.044291385
0.031299286
0.020500757
0.008146714
-0.003496456
-0.012506346
-0.016297279
-0.015018575
-0.0116443625
-0.006443847
-0.0018687549
-0.0018155336
-0.005801794
-0.010495264
-0.015814688
-0.024999293
-0.037222598
-0.048403747
-0.05712284
-0.06384991
-0.06687565
-0.06532324
-0.062084302
-0.055821437
-0.04351616
-0.029569605
-0.017602978
-0.0059416355
0.0036955087
0.009699064
0.016509777
0.022657976
0.023022395
0.021739574
0.020367147
0.017190158
0.01555918
0.013526944
0.009631499
0.0069081048
0.003985079
0.0014302447
3.1265325E-4
2.3594924E-4
0.0023243106
0.004351078
0.005892811
0.006986664
0.005562194
0.0050136857
0.006337144
0.005987717
0.0049856594
0.004502661
0.0041674497
0.004814206
0.004667881
0.003642764
0.0051662982
0.007524146
0.009829817
0.014014864
0.016517604
0.016979925
0.017922536
0.0183069
0.019214435
0.019328093
0.01680757
0.015442816
0.016350646
0.015785893
0.013863358
0.013793325
0.0135780955
0.012732833
0.012274219
0.009885564
0.008300059
0.0064086034
0.0034511979
0.004793703
0.005331109
0.004092659
0.004480291
0.0031064737
0.0028919494
0.0032451309
0.0016974242
0.0014960271
0.0024653315
0.0037187394
0.0043266895
0.0056784605
0.00624814
0.005437939
0.0076521616
0.008068332
0.008343599
0.0076981485
0.002808138
0.0058196555
0.0023807234
-0.010884064
-0.0047850735
0.008163034
0.009828366
0.0057682963
-6.6813175E-4
-0.0013834331
-0.0016432605
-0.003793451
-0.0013391863
-3.9587624E-4
-0.0017395527
-0.0027121713
-3.9910173E-4
0.0015756652
7.0402597E-4
0.0019866857
-0.0077211154
-0.014642024
2.1831026E-4
0.0065149474
0.0029212334
0.0040276237
0.0013910172
0.0017322917
0.002369435
0.0010258689
0.0030815445
9.048923E-4
-1.9065422E-4
0.0018131353
0.0022612456
0.0033977504
0.0013426014
5.4387343E-5
0.0010221166
-5.3764833E-4
-7.698068E-4
-0.0012169754
-0.00224179
-0.0014239012
-0.00129337
-0.0017367583
-0.0027228917
-0.0030820225
-0.0030887697
-0.004183167
-0.0034278873
-0.002229879
-0.0021437905
-0.0012083547
-6.9942215E-4
-0.0010715126
-7.6419016E-4
-9.700541E-5
-0.0011041682
-0.002666724
-0.002697119
-0.0036942782
-0.0047462923
-0.0023474095
3.405623E-4
5.942891E-4
3.661306E-4
-4.0916278E-4
-0.0016162773
-8.5911585E-4
5.7384383E-4
2.4045509E-4
-9.854558E-4
-0.0020599558
-0.001714472
-2.8365184E-4
-5.098437E-4
-0.001542081
-0.0012665187
-3.853232E-4
3.0583193E-4
4.4791723E-4
-3.013001E-5
-9.846006E-5
1.5927234E-4
-7.7340833E-4
-0.0015419937
-0.0014718721
-0.0027151133
-0.0031470782
-0.0016256304
-0.001481724
-8.319829E-4
0.0017221258
0.0018319103
1.8652216E-4
-4.1387504E-4
-0.0018827387
-0.0032258905
-0.0021201337
-0.0013605166
-0.0017070087
-5.683021E-4
4.7499995E-4
-3.451368E-4
-2.5101288E-4
3.346853E-4
-0.0015142288
-0.0029795042
-0.0028125304
-0.0028059958
-0.0018165075
-0.0024693636
-0.0038165743
-0.001152344
1.4725458E-4
2.0355935E-4
0.0027534936
0.0019532403
-2.2590246E-4
1.8550172E-4
1.1830902E-4
-1.1706303E-5
-2.6574032E-4
-7.481533E-4
-9.1214804E-4
-9.881961E-4
-5.9132534E-4
-0.002577923
-0.004641007
-0.0032789037
-0.002176832
-6.18546E-4
4.950155E-4
-0.0010650537
-1.16071424E-4
0.001253056
-0.0013185622
-0.0034608848
-0.0035995247
-0.003226244
-0.0020583582
6.393566E-5
0.0017514783
8.272533E-4
-7.336717E-4
-3.6010362E-4
-2.1733635E-4
-0.0012028766
-0.0012518464
-2.3128133E-4
1.8679025E-4
4.4215124E-4
0.0011015662
4.2747223E-4
-1.06853215E-4
3.459005E-4
-0.0012979988
-0.0029347853
-0.0026208512
-0.002585094
-0.0020064965
-0.0013468915
-0.0013831441
-6.589882E-4
-4.0961197E-4
-7.179858E-4
-8.347884E-4
-0.0014323592
-0.0013862085
-3.0320988E-4
7.0916285E-4
2.3049902E-4
-0.0017098142
-0.002020753
-2.4184486E-4
5.0108717E-4
-0.0014874013
-0.0033874274
-0.0015101638
0.0010739316
7.6532754E-4
-5.755121E-4
-6.5774244E-4
0.0012300357
0.0017086872
-4.3371256E-4
-0.0010424495
-9.634191E-4
-0.0016433416
-0.0014073448
-0.0012455744
-9.956378E-4
-2.0791427E-4
-4.489992E-5
6.888682E-4
0.0018629779
0.0010137339
-9.982487E-4
-0.001938087
-0.0016078685
-5.709446E-4
-7.817685E-4
-0.0016367828
-9.829112E-4
-0.0011149845
-0.0013581639
-9.026783E-4
-0.0023482852
-0.0032274115
-0.0028264984
-0.0014931922
7.257313E-4
4.255373E-4
1.863131E-4
4.7637455E-4
-4.2345893E-4
-2.2583752E-4
-0.0010244958
-0.001578066
-0.0014022299
-0.0016874515
3.928227E-4
4.310769E-4
-0.0012365942
-9.1479096E-4
-0.0010754092
-0.001058907
-0.0019988217
-0.0015996023
-1.1958617E-4
-9.317538E-4
0.0017258128
0.004245177
0.00430014
0.0038618376
8.060212E-4
0.0013794918
-0.003916549
-0.01406475
-0.0077116215
9.900144E-4
0.0016831496
0.0037689344
0.0037271804
0.0048275925
0.0060408753
0.003733249
0.0017641935
-0.0023603512
-0.0044827806
-0.0028236408
-0.0018601712
-0.0012048053
-0.0023498547
-0.0035677955
-0.004088202
-0.0037217222
-0.0016549728
-0.0012325447
-2.8631085E-4
-7.307224E-5
-0.0017638409
-0.0011949051
-8.609728E-4
1.1798792E-4
4.743201E-4
-0.0022872423
-0.0032691306
-0.0032600588
-0.0011092733
0.001929046
0.0017020517
0.002826369
0.0030432465
0.0017735575
0.0027300627
0.0025663995
0.0020177998
6.597714E-4
-5.737911E-4
2.1549563E-4
-0.001196952
-0.0014628542
-0.0012241272
-0.0028500655
-4.5588549E-4
1.7838462E-4
-0.0025998908
-0.0018712425
-0.0017625554
-0.00246184
-0.0015544726
-0.0011088452
4.8143064E-4
0.0013587122
3.5957227E-4
5.133202E-4
-6.1263156E-4
-0.0026413577
-0.001315785
-2.0898288E-4
-6.826291E-4
0.0017650399
0.0038089906
0.0018502299
-4.7799994E-4
-0.0019507485
-0.0022557778
-0.0016342775
-0.0015300991
-3.5897185E-4
4.7236955E-4
-2.444034E-4
5.5899663E-4
0.0022002899
0.0015836562
-8.1112375E-4
-0.0014408579
-0.0011936091
-0.0022183757
-0.0018095287
-0.0016255981
-0.0012588733
0.0016914626
0.0016922368
-6.627232E-6
-2.6842294E-4
-0.0011278195
-0.0014135046
-0.002519697
-0.0012545133
0.002351447
3.4977496E-4
-2.8907385E-4
0.0026311798
0.0012583829
-6.129085E-4
-0.0021249598
-0.002905201
7.600338E-5
0.0016057296
6.2782783E-4
-1.5890523E-4
-0.0010363639
-0.001871355
-0.0016789043
1.9948183E-4
2.471653E-4
-8.316512E-4
9.56361E-4
0.0015692866
4.1910527E-5
-5.179162E-5
6.772569E-4
9.1928535E-4
-1.0674964E-4
-8.2704594E-4
-3.6329546E-4
-7.838502E-4
-0.0011722044
-7.2698726E-4
-4.2734484E-4
-5.439141E-5
6.3504063E-4
0.0014029369
4.1359436E-4
-0.0022202071
-0.0025619762
-0.0010832512
-0.0011141981
-7.3677266E-4
5.3456187E-4
-1.679943E-4
-6.4242136E-4
1.0964498E-4
-1.3972918E-4
-1.8772458E-4
-7.693114E-4
-0.0019341249
-4.935618E-4
0.0020422863
0.0022407055
-1.2584032E-4
-0.0010310978
0.0010733868
0.001315657
-1.14925104E-4
-8.0975686E-4
-0.0016329214
-2.789832E-4
0.002374662
0.002685365
0.0016035737
-2.1832084E-4
-0.0017724285
-0.0012031867
-6.636852E-4
-0.001479556
-0.0015571866
-0.0010908395
-0.0012970663
-7.840793E-4
6.357649E-4
0.0010048572
3.6425533E-4
-7.4348244E-4
-0.0021049292
-0.0021670507
-0.001986674
-0.0023567132
-0.0012222093
-1.7498712E-4
3.1777032E-4
0.001414844
0.0011161822
9.688691E-4
0.0016295308
6.409783E-4
-6.340449E-4
-4.877952E-4
7.39798E-4
2.2865678E-4
-9.232289E-4
9.7533106E-4
0.0019822626
0.0015969655
0.0012482939
-6.521573E-4
-8.3207124E-4
-7.161004E-4
-4.096012E-4
0.0023808903
0.0020755206
7.807893E-4
8.4974867E-4
-0.0014288696
-0.0025872348
-0.0025822457
-0.0029726948
-0.0017838168
-0.0014180576
-0.0016267925
-2.144296E-4
5.558563E-4
5.615367E-4
0.0016524367
0.0013605028
-3.9848324E-4
-0.001279935
-0.0026401454
-0.0011905363
0.0018877456
6.2772946E-4
8.8581734E-4
0.002661886
0.0013646845
7.462314E-4
3.148817E-4
-2.7777595E-4
-0.0010725314
-0.0017923346
-1.1829011E-4
1.6115185E-4
5.735523E-5
4.7139268E-4
-0.001323318
-0.0017369186
-0.002356825
-0.0029544376
-6.27874E-4
5.620811E-4
0.0014256111
0.0021396182
0.001234898
5.1531865E-4
-4.6158332E-4
-2.8068796E-4
3.910593E-4
-1.9973218E-4
-9.38939E-4
-0.0010424183
6.114655E-4
3.660484E-4
-0.0011408299
2.348504E-4
1.5362214E-4
9.465881E-5
0.0016867662
-1.2572035E-4
-0.0023464295
-0.0017772913
-8.626656E-5
0.001505513
0.00194964
3.829553E-4
-0.0021166052
-0.0011013834
6.44896E-4
-5.4505945E-4
1.8172924E-4
0.0010289755
6.097471E-4
0.0013884519
0.0010668123
0.0015221608
0.0014327375
-6.702681E-4
-5.48839E-4
-0.0011141219
-0.0012090983
2.590244E-4
-0.0014523257
-0.0017142643
-9.6692494E-4
-0.0010713898
0.0013146157
-0.0012572785
-0.0055511803
-0.0021767844
9.810819E-4
0.0010444266
9.37627E-4
5.674685E-4
0.0017578257
0.001753035
7.849924E-4
0.001000781
-2.2778955E-4
-0.0014037376
-0.0016960894
-0.0011610902
9.119826E-4
0.0013323752
0.0010686856
0.0015308618
0.0011589366
2.2543634E-4
-0.0028855104
-0.004675948
-0.0019076676
-7.11231E-4
-3.3802158E-4
0.0016406407
5.3759414E-4
-7.5503165E-4
0.0012447792
0.0020064784
9.6397835E-4
7.969172E-4
8.140907E-4
6.181357E-4
1.62527E-4
-7.475564E-4
1.8538341E-4
0.0015021592
0.0011516401
0.0020588224
0.0017174534
-5.9632317E-4
-9.3349104E-4
-9.904786E-4
-3.1735763E-4
-0.0016351803
-0.0033643292
0.0019862016
-0.0014540094
-0.013835552
-0.009197569
0.0014709475
0.0023979098
0.0035565235
0.0031052555
9.253178E-4
0.0023955728
0.0018222247
8.202257E-4
0.0027110544
0.0021053469
4.2417852E-4
8.139733E-4
4.507688E-4
3.994161E-4
0.0011034234
7.4147317E-4
0.0013069946
7.5409876E-4
-7.4858486E-4
1.3420465E-4
-0.0013261683
-0.0037850165
-0.0024802934
-0.0010889489
3.299787E-4
0.0018076156
4.2701047E-4
-0.0013342298
-0.0011593327
-0.0011811316
-0.0019211345
-3.1174874E-4
0.0017152122
0.0011924058
0.0015158395
0.0019713012
5.8958237E-4
-3.6014517E-5
2.1274891E-4
7.461233E-4
0.0010184539
2.0841956E-4
-5.599831E-4
-0.0012827911
-0.0018773692
-8.7437534E-4
1.7928502E-4
-3.8607902E-4
-6.887224E-4
-0.002413382
-0.005080604
-0.0023939882
9.2992705E-4
2.2796869E-4
9.16377E-4
0.0021197898
0.002683876
0.0025402461
9.048511E-5
-6.7437976E-4
-6.23428E-4
-0.0014929197
-5.121218E-4
8.1678166E-4
0.0015732623
0.0017666268
0.0017473609
0.0021835235
0.0013860023
7.827568E-4
-6.432276E-5
-0.002678298
-0.0028997213
-5.078148E-4
7.588096E-4
2.8332527E-4
-2.6776055E-5
7.4917055E-4
-6.433732E-4
-0.0033974047
-0.002152184
0.0010514358
0.0019112834