0.0057846066
0.0032799398
-0.002530964
-0.0045086215
-0.004463948
-0.0016540388
0.0013281333
6.6003983E-4
0.0021411208
0.003067775
4.125345E-4
-0.0010122462
-0.00414841
-0.006648008
-0.0037413249
1.2552565E-4
0.003943476
0.0070112525
0.006895205
0.0031798822
-0.0011378677
-0.0011562106
-0.0022378606
-0.0068642544
-0.007353453
-0.0035421718
0.0010414417
0.0040670293
0.0062986477
0.008601926
0.0066096764
0.004204872
0.00259752
-0.0036598267
-0.0076189903
-0.0058753015
-0.0032707448
-0.0011295899
1.1969431E-4
0.002307148
0.002813028
-4.4721822E-4
-0.0033321532
-0.0061404826
-0.006565243
-0.0027945577
9.4403926E-4
0.00586006
0.00946406
0.005839756
8.7080227E-4
1.7694374E-4
-0.0017051186
-0.0054087755
-0.003653527
-3.7114296E-5
-1.3089005E-4
0.0014293104
0.004739094
0.00628211
0.0052683875
3.606673E-5
-0.0054870183
-0.007307073
-0.005732286
-0.001643111
0.002411963
0.005225879
0.005000696
0.0026042487
0.00206499
7.017612E-4
-0.0028902797
-0.0063653924
-0.0077920486
-0.004594108
-7.8024E-4
0.0020830103
0.005619346
0.005020017
0.0030474116
0.0026047013
-4.938326E-4
-0.003527599
-0.005978775
-0.0070465663
-0.0028490361
6.806678E-4
0.0020785436
0.003614723
0.0022035101
0.0013122017
4.2846697E-4
-0.00446681
-0.006096023
-0.001789633
0.0024914728
0.005470547
0.007649972
0.0085840905
0.010802556
0.015215329
0.013510512
-3.7049054E-4
-0.01610103
-0.01969434
-0.011402272
-0.001456514
0.0035475537
0.0037380136
0.0023640918
3.8409917E-4
-0.0029734953
-0.00448503
-0.004671914
-0.004937255
-7.736594E-4
0.003908715
0.005960819
0.007470194
0.0021848776
-0.0059767566
-0.007692723
-0.006592538
-0.0045439666
-0.002257009
-4.7927702E-4
0.0032620158
0.006613691
0.008183101
0.006937934
0.0025646456
-6.537482E-4
-0.0036443474
-0.0060680457
-0.0048595746
-0.0033105242
-9.455066E-4
0.0034257541
0.0051346584
0.0060201213
0.008601733
0.006210735
-0.001432127
-0.0049527297
-0.0025662277
4.858056E-4
0.0022634426
0.0024759625
0.0010529745
7.703307E-4
0.0020742551
1.09805915E-4
-0.004927368
-0.00766113
-0.0064456607
-0.0014996213
0.0037592044
0.005239788
0.0041727214
0.0019002812
6.523776E-5
-8.1874465E-4
-0.0031002278
-0.005216501
-0.004762985
-0.0019486794
6.048869E-4
8.0429966E-4
0.0027198575
0.0056120506
0.002306479
-0.0038411855
-0.005746148
-0.005469295
-0.0037450737
9.974237E-4
0.0031804678
0.0014780309
0.001949776
0.0036382242
0.0026989717
-0.0011448633
-0.0049347924
-0.003948784
3.2704847E-4
0.0040674596
0.0055588535
0.0028078738
-7.1840524E-4
0.0015270336
0.0068541574
0.005590436
-1.4439588E-4
-0.0010087165
-1.3890042E-4
3.789952E-4
0.0043555126
0.0044985106
-0.0035098966
-0.0071213315
-0.0011634005
3.5816673E-4
-0.0044234395
-0.0038843101
-0.0027539623
-0.004741347
-0.0026738846
0.0011954319
0.0019574303
-2.159447E-4
-0.0014501492
-0.0011051215
-0.0038127797
-0.0046674516
-1.8643365E-4
0.002664128
0.0025869953
0.0036066428
0.0070339846
0.008817874
0.006233496
0.0017014644
-0.0027911307
-0.0029763817
9.187227E-4
0.00311845
0.0026719868
2.228636E-4
-0.0015943674
-0.002361457
-0.0039596097
-0.0041190726
-0.005670687
-0.007989321
-0.005477905
-0.002311624
1.4408295E-4
0.0028960318
0.0028081902
0.0024525456
0.002761799
0.0011063287
-0.002103615
-0.005204623
-0.0054523055
-0.0020791744
0.0023543276
0.0040156636
0.0031624394
0.003313651
0.003505287
0.004674419
0.006184648
0.0022008847
-0.0010593038
0.003815642
0.009384668
0.010180328
0.006623337
-0.002284994
-0.008490353
-0.004526452
-0.004749869
-0.014067319
-0.014501199
-0.00687652
1.5906933E-4
0.0078727035
0.011238167
0.010259797
0.003298191
-0.007812647
-0.007844768
-0.004880611
-0.0074567315
-0.0042238543
8.2745537E-4
0.0032577068
0.004279864
0.0023128886
9.892065E-4
-7.0337724E-4
-0.001869866
-0.0025071132
-0.0038458256
7.52093E-5
0.0032690167
0.002964447
0.0046215234
0.0037497613
0.0019050238
-6.229815E-4
-0.0056546554
-0.0059485273
-0.0021404221
0.0010187948
0.0019100945
0.0026681004
0.005679499
0.005284217
0.0036227473
0.004502171
0.0027266168
5.7990215E-4
0.0010916286
6.904366E-4
-0.0017877627
-0.0023327656
5.922823E-4
4.153134E-4
-0.0036082417
-0.0052628713
-0.0037374522
-0.0018234246
-0.0024839207
-0.004226095
-0.0023762975
0.0012334579
0.0013886056
0.0017859074
0.0061121243
0.0054588644
-0.0013415202
-0.004702131
-0.0026859562
6.376728E-4
1.8623134E-4
4.6168602E-4
0.004215061
0.0015312249
-0.0037397314
-0.0050682584
-0.005882154
-0.005257674
-0.0052010617
-0.0034156933
0.0023588864
0.005215339
0.006069163
0.006405939
0.005088612
0.0031657342
-4.4128092E-4
-0.004061946
-0.0060719447
-0.0037661814
0.0015186906
0.0035649713
0.0048804344
0.005453384
0.0035057347
0.0012969377
-0.001713707
-0.0021846574
-4.5457124E-4
0.0019649006
0.0058257678
0.0057694013
0.003765149
2.4067989E-4
-0.0053346525
-0.0046197902
-0.0037771966
-0.006628069
-0.0058438294
-0.0043678014
-0.002115825
0.0012339756
0.0022098569
0.0015058162
-6.6000625E-4
-8.872197E-4
-0.0020338497
-0.006280993
-0.0025538686
0.00671557
0.009286226
0.005895945
0.0013760688
-0.0014164309
-9.351206E-4
-0.001255942
-0.006184551
-0.009018594
-0.0058123847
-0.002521561
8.434054E-4
0.0046733455
0.0069523407
0.008712814
0.009194095
0.010727243
0.0070736147
-0.007854632
-0.015585229
-0.009048971
-0.0023019537
0.0016265161
0.005282274
0.008737392
0.007415276
2.0516354E-4
-0.0030954033
-0.0031535586
-0.0036000884
-3.8539854E-4
9.853826E-4
-0.0019709829
-0.0023056564
-3.3661324E-4
4.3271724E-4
-4.938956E-4
-0.0030143068
-0.005712083
-0.0055981763
-0.001860361
0.0020079091
0.0046061818
0.0075902413
0.008058843
0.0039263032
5.55351E-4
-9.3998696E-4
-0.0048116995
-0.0068155443
-0.0034103077
-0.0014124992
-0.0021974328
-0.0012604229
8.6691737E-4
0.0027088802
0.0014914522
-0.0034299875
-0.0055251988
-0.004809234
-0.0040114233
2.0514359E-4
0.0036961546
0.0033294251
0.004423426
0.00563355
0.004832808
0.0044354945
0.0034819178
0.0012983147
0.0012359379
0.0026300407
-0.0010706013
-0.0037583045
0.0045040636
0.011984324
0.009022643
-4.1518204E-5
-0.0106795635
-0.012123113
-0.004537005
-0.0014996568
-0.002207904
-0.0019633737
-0.0015212493
-5.361432E-4
-0.0015989438
-0.004334589
-0.0060413186
-0.0052108625
-7.484768E-4
0.0018581771
0.0014681212
0.0030499499
0.004125005
0.004119107
0.0039256737
7.9722225E-4
-0.0017730301
-0.0025421798
-0.0033042138
-5.333167E-4
0.0033996392
0.0037553068
0.0029918035
0.002902153
0.001595164
-0.0027753706
-0.0065222257
-0.0051693944
-0.0029312756
-0.0022271364
4.1595227E-4
0.003227057
0.0033259117
0.002693886
0.0017893537
-8.363539E-4
-0.0033335488
-0.0018769675
0.002246208
0.004868889
0.009518217
0.014789633
0.010035012
0.0018510689
-6.3496496E-4
-0.0035299885
-0.0045373105
-0.0029018752
-0.0050576804
-0.007824618
-0.009642889
-0.00835242
-0.0021903212
0.0015568935
0.0019977358
2.1780592E-5
-0.0057739816
-0.009422847
-0.0064099603
-9.6135795E-5
0.003173658
0.0039463555
0.0053342255
0.0051540523
0.004382842
0.0021473172
-0.0022327837
-0.0032678014
-0.0011014793
0.003094645
0.007918876
0.00890704
0.007994822
0.007409528
0.0039127143
-0.0029975614
-0.0074504786
-0.008873922
-0.008815512
-0.0026203508
0.0022658722
0.002282867
0.0035686374
2.6218226E-4
-6.282517E-4
0.0020208454
-0.0050980053
-0.008254256
-0.003598254
-0.0016817449
0.0022583783
0.0048541343
0.0059325593
0.00842947
0.0058217556
-0.0012254756
-0.007777731
-0.008325295
-0.005052235
-0.0015849209
0.0052666822
0.008873337
0.008374775
0.007881456
0.0029427484
-0.004979651
-0.0117756305
-0.010769801
-0.004162868
-0.0022857161
4.9919443E-4
0.0037689433
0.0021004041
6.2438904E-4
4.8401525E-5
3.7748597E-4
-0.0017254781
-0.00438945
-3.204972E-4
0.003147634
0.0043981867
0.0066552265
0.006739041
0.0050931596
2.8581051E-5
-0.0045506842
-0.0047409963
-0.0029612514
9.280382E-4
3.9363993E-4
-0.0032557396
-0.002148784
-2.2895208E-4
0.0020957699
0.004100858
0.0018746908
-0.0027625735
-0.006352493
-0.0035033976
0.0017216274
0.0014977548
0.0012183442
0.0043094265
0.0043784925
-5.1377347E-4
-0.0027307863
-0.0013666208
-0.002705025
-0.0020228582
0.002651592
0.0043092943
0.0015580605
-0.0021025
-0.0011029554
0.0014664046
6.917517E-4
0.0013733506
5.1082843E-5
-0.0037180618
-0.0017778456
-3.677697E-4
-0.0025444722
-0.0020250902
-8.922972E-5
0.0031965906
0.0056933896
0.0029770464
-8.5546286E-4
-0.0035202587
-0.0038538836
-0.0014838428
-0.0013650645
1.7230114E-4
0.003974287
0.0018587057
-0.0027991913
-0.0054416847
-0.0052400287
-1.2989003E-4
0.004853472
0.00804014
0.008614817
0.0025667131
-0.0020852108
9.4735774E-4
0.0029646128
-0.0019057282
-0.00514275
2.2481248E-4
0.0064269993
0.0077682813
0.0051479037
-0.0011355651
-0.00536592
-0.0047321385
-0.0044427793
-0.008074214
-0.010916714
-0.006376603
-0.0011759156
3.4830015E-4
0.0036548947
0.0042346274
0.0014039492
0.0012402487
1.4864969E-4
-0.0039068223
-0.007902605
-0.007406732
-0.0011458426
0.0027582413
0.0027703815
0.004583156
0.006877884
0.008096853
0.007786681
0.0056006135
0.0049250145
0.0042506247
2.4436993E-4
-0.0036190122
-0.0025289704
0.004288268
0.007289261
0.0018759896
4.800079E-4
-7.748249E-4
-0.011124179
-0.014070612
-0.006618585
-0.002329854
0.0012297685
0.004658379
0.0032743048
4.4337893E-4
-0.0016318106
-0.0050582243
-0.008722935
-0.0073065436
-0.0014081914
0.0033958175
0.0051458995
0.005559396
0.008037981
0.0076519763
-3.1389197E-4
-0.005871982
-0.0047873724
-0.0035462102
-0.0026213322
5.1676953E-4
0.00415645
0.005545424
0.0060139266
0.004728374
9.3861025E-5
-0.0029160036
-0.004326411
-0.0055180173
-0.002856485
-3.1427764E-5
7.461134E-4
0.0031996574
0.0042683193
0.0011230643
-0.0025639764
-0.0047745076
-0.005247437
-0.0018619604
0.0032332258
0.0058375066
0.0077262833
0.0075272983
0.0019989458
-0.0030507094
-0.0038906273
-0.004338281
-0.0064964797
-0.0070181703
-0.002080457
0.003497621
0.005604706
0.008057938
0.009207748
0.00751601
0.004380276
-0.0025275855
-0.0059134946
-0.003876113
-0.008153009
-0.012523427
-0.008539586
-0.0025920295
0.0032767053
0.0037292559
-0.001556662
-0.001594303
5.7674242E-5
-0.0011318079
8.459609E-4
0.0034874603
0.0024021922
0.0015768203
0.0038787553
0.003942533
-6.106642E-4
-0.0035287421
-0.003351705
-3.2524287E-4
0.0047555226
0.005427335
0.0028530315
0.0020402153
0.004015181
0.0071870903
0.0048822123
-8.182963E-4
-0.0038059694
-0.006562654
-0.006501124
-0.0018063465
0.0017509665
0.0011332565
-0.0017955137
-0.0022393805
-0.0037584333
-0.008036629
-0.0052881115
2.475654E-4
0.0026486912
0.005193099
0.001886218
-0.0019692183
0.0023644313
0.0050945934
0.0030120334
-0.0017515906
-0.00734392
-0.0061587547
-0.0014518525
5.3024694E-4
0.0029021662
0.006095428
0.007408781
0.007837336
0.006796901
5.65749E-4
-0.0041329814
-0.0017880019
-0.0012305978
-0.0013763453
0.0014914378
-0.0014524821
-0.007404745
-0.006427355
-0.0032343806
-0.0052737677
-0.007111683
-0.0026767107
0.0029477074
0.0047737435
0.0045903292
0.0063972706
0.00655708
2.7827962E-5
-0.004429845
-0.004107657
-0.004495147
-0.004031591
-0.0038126018
-5.750048E-4
0.0056235297
0.0065137357
0.006882062
0.007890686
0.0046979184
-7.055686E-5
-0.0045112493
-0.0042296723
-0.0019527574
-0.0034285372
-0.0037737223
-0.002909118
-0.002166726
-0.0022576365
-0.0059585385
-0.008979967
-0.0098093
-0.00722788
7.376611E-4
0.007965262
0.013494147
0.018083442
0.01881046
0.018049771
0.013879962
0.00349324
-0.007599872
-0.015519797
-0.016849883
-0.012304539
-0.009908
-0.008238325
-0.0036341709
6.5295596E-4
0.003966196
0.003209297
2.0209518E-4
0.0036726764
0.010419467
0.014361831
0.015166258
0.013154412
0.011191284
0.011484271
0.011642948
0.005363453
-0.0026580244
-0.0046549337
-0.009552979
-0.014235185
-0.010550601
-0.008026555
-0.004777645
0.001790697
0.0056271795
0.00802524
0.004739146
-0.008098316
-0.026218664
-0.03789578
-0.036215425
-0.03320318
-0.03127731
-0.0279479
-0.025761029
-0.022093123
-0.024953146
-0.02184931
0.0028806948
0.022376882
0.031127613
0.04420259
0.054089483
0.058064356
0.05404671
0.04353006
0.037986577
0.03454806
0.028955176
0.018597296
-0.009196965
-0.04586116
-0.05883568
-0.045857348
-0.028199645
-0.0035790638
0.02923512
0.051186793
0.05399264
0.04804724
0.0338137
-0.0017699974
-0.0422337
-0.065234855
-0.07809571
-0.076530136
-0.05755173
-0.03194693
-0.0015462405
0.021075068
0.030387755
0.03486194
0.034815956
0.031323165
0.019281946
9.134683E-4
-0.0089919465
-0.011763764
-0.014136482
-0.0104063805
-9.467969E-4
-0.002891722
-0.0076111495
0.004277448
0.012804567
0.015350564
0.021210916
0.01597361
0.011245232
0.01574733
0.015622904
0.0048412983
-0.014213378
-0.028739039
-0.039244067
-0.03428573
-0.0042237667
0.0085840095
-6.159564E-4
-0.005558357
-0.017360738
-0.028409595
-0.023115227
-0.010756507
-0.006983604
-0.01860667
-0.033251062
-0.0399522
-0.028919823
-2.450744E-4
0.03187152
0.066053614
0.09680708
0.119302884
0.12083832
0.07927161
0.028133051
0.009910873
0.008036567
-0.0046763043
-0.02325252
-0.03329398
-0.051549803
-0.08004176
-0.07462123
-0.019594923
0.033008873
0.020983748
-0.01799247
-6.311766E-4
0.04043038
0.030237956
-0.026500782
-0.08905317
-0.14421822
-0.18122612
-0.14471154
-0.038583685
0.04730024
0.09879996
0.14421909
0.14164132
0.08838747
0.08091329
0.10483883
0.019939698
-0.11201993
-0.12287671
-0.06228959
-0.02349113
0.0012569041
0.0158072
0.020977434
0.0130804
6.8041487E-7
8.1666996E-4
7.8720466E-4
-0.0036712126
-0.003324551
3.511823E-4
0.007501167
0.0111817205
0.013969814
0.017651467
0.016931629
0.016073273
0.012080415
0.010250612
0.015555993
0.016730817
0.017335746
0.018464793
0.0143971685
0.0099588465
0.0044202786
-0.005366312
-0.01942822
-0.02969109
-0.027193844
-0.021576587
-0.021439174
-0.024238322
-0.025104279
-0.020768035
-0.018448023
-0.02018264
-0.017015748
-0.010164558
-0.005296955
2.566083E-4
0.007584225
0.013604003
0.01713554
0.015540774
0.010130404
0.004027684
-0.005313526
-0.0108238915
-0.008089027
-0.0040548434
0.0018076219
0.0071041407
0.008903236
0.00842821
0.0081069935
0.015720064
0.017739095
0.0065232036
0.0036909203
0.0052343067
-2.0712656E-4
-0.0033658387
-0.002965912
-0.0015931875
-0.0025417656
-0.006661739
-0.007858279
-0.0011846871
0.009632231
0.009009415
9.4521756E-4
0.0021204452
0.0073860227
0.009004738
0.0021813528
-0.0084334845
-0.008436243
-0.004553431
-0.0036466008
-0.0017154812
-0.0018038718
-5.279185E-4
0.003243969
0.0032836313
0.0022958415
9.6574915E-4
-0.0035473811
-0.007176844
-0.007857685
-0.0069408654
-0.004182413
-0.002085177
-0.0037349926
-0.006625149
-0.005310776
-0.0013045035
0.0019187169
0.008270794
0.011578957
0.006500779
0.004633524
0.005901041
0.007614204
0.010345641
0.00665486
0.004041637
0.0052150623
0.0048370957
0.008055494
0.005897166
-0.0054451125
-0.0141365845
-0.01447684
-0.008144308
-0.006817141
-0.010417202
-0.01235597
-0.011623071
-0.00393371
-0.0013060705
-0.002093866
0.0052473494
0.0034801501
-0.0032205419
-0.0017200976
-0.002628956
-0.0039808317
-0.0016445365
0.0032092128
0.008939209
0.010985013
0.013697258
0.015808918
0.016438842
0.01837183
0.010440457
-0.005105656
-0.012912688
-0.012092434
-0.0048078494
0.004641181
0.007324262
0.002702546
-0.005470362
-0.011152037
-0.008170525
-0.0032090575
-0.0020450477
-0.0010837091
-0.0024417078
-0.0040534637
-0.0016446797
-6.0251204E-4
-2.980738E-4
7.769385E-4
-3.3628842E-4
-0.0025363294
-0.0056552733
-0.00468671
0.0010595226
0.0014179365
-9.295061E-4
4.5636264E-4
0.0019783762
0.0023925689
8.4481784E-4
-0.0017267718
-0.0024475441
-0.0040757544
-0.0037839378
0.0013873172
0.0038173746
0.0042458335
0.0066377064
0.006655149
0.005911134
0.003907151
1.0931175E-4
0.003009143
0.0060697747
0.002048966
0.0014743357
0.004419217
0.0055885725
0.0055074026
0.0013156038
-0.004614963
-0.00868493
-0.008153759
-0.0011178143
4.398667E-4
-0.005148972
-0.004743642
-0.001304938
-6.6728295E-5
-8.7062264E-4
-0.0047504567
-0.0055498825
-0.0038103112
-0.0025839296
0.0014741254
0.0048054
0.0065873335
0.005904523
-3.8967436E-4
-0.0051135155
-0.0080766445
-0.010411545
-0.005412944
0.0018607336
0.005927453
0.008743757
0.010059711
0.007120902
-0.0027387603
-0.010378118
-0.008984333
-0.005702053
-0.0017733258
0.0014868968
0.0012166938
0.0020750433
0.004144544
0.00563043
0.006443066
0.004180938
-0.0010671408
-0.0052396446
-0.003299817
0.0013588778
0.002955903
0.0041639237
0.0047839
0.0045271763
0.0064673056
0.008943979
0.009809905
0.0060444367
-0.0024994693
-0.011987344
-0.018641787
-0.015161906
-0.005246765
0.0025043604
0.009583438
0.008314916
-0.005343084
-0.017052848
-0.01748622
-0.009357583
-0.0010719945
0.0058419965
0.012160811
0.010962176
0.0072454717
0.004243465
-0.0057953624
-0.013087548
-0.009949154
-0.0045382744
0.0017527547
0.00715301
0.0077957027
0.00639074
0.0043760287
0.0025035124
0.0012467604
-0.0012831622
-0.0024128763
9.0880186E-4
0.0052227844
0.009297271
0.014432872
0.015082099
0.008160222
-3.8541376E-4
-0.008579169
-0.01540062
-0.01521355
-0.009522839
-0.0038888638
-0.001848685
-0.0020572005
0.0031651305
0.0071578925
9.264717E-4
-0.004959806
-0.007967438
-0.009113678
-0.0029999875
0.0014407099
0.0022908056
0.0042751627
0.0020975007
7.454075E-5
-5.52378E-4
-0.004214665
-0.005924202
-0.0037591192
0.003147154
0.008817326
0.0066421814
0.0043735397
0.0028134622
0.00495851
0.010663912
0.004169175
-0.0035447618
-0.002005063
-0.0039740563
-0.0026825035
0.0026443342
0.0029989698
0.0035486708
1.6384736E-4
-0.0057562864
-0.0065342844
-0.0078021935
-0.007386472
-0.002467054
0.0019412978
0.0068435096
0.011134409
0.010446009
0.0067567113
0.0031729685
-0.0039378377
-0.0132542215
-0.015260924
-0.009406405
-3.9821686E-4
0.00558776
0.004890857
0.0046983534
0.0042382493
-5.522449E-4
-0.0037550193
-0.004007245
-0.0021181342
7.718858E-4
0.0023548375
0.003961434
0.0057152864
0.006390955
0.0026742325
-0.0025070019
-0.004402275
-0.0071098628
-0.005996958
-0.0029252078
-0.00644773
-0.004208555
0.003354357
0.005861224
0.008446528
0.007074845
0.0019098155
7.4488315E-4
0.0011109493
0.002136843
-6.877625E-4
-0.006510439
-0.0048199254
0.0013430994
0.005131757
0.0049816323
0.0013781831
-0.00379029
-0.008880189
-0.0060816607
0.0026306233
0.0049804584
0.003332192
0.0055831247
0.011094032
0.010783485
0.001184327
-0.008290724
-0.014360104
-0.013298421
-0.0032385788
0.0021451854
4.975828E-4
4.496776E-4
0.0022761272
0.0025301042
-3.5922643E-4
-0.002146826
-0.0015496282
7.298458E-4
0.0035217528
0.0034910988
0.0065595396
0.007917947
1.5121617E-4
-0.00518721
-0.007166636
-0.0077389753
-0.0053718532
-0.0025968852
0.0045256014
0.0036147675
-0.007264588
-0.0051087537
0.0026672403
0.0012630573
-0.0025792199
-0.0034981826
-3.6292427E-4
0.0030977912
0.0051813545
0.0075536943
0.0096156215
0.010596427
0.008672072
0.0063622165
4.901576E-4
-0.010742312
-0.012140264
-0.0029142194
0.002645887
0.0032583794
0.0030274843
0.0016621583
-3.331234E-4
4.6913084E-4
-0.0012830046
-0.009984494
-0.013212595
-0.006648739
2.5716439E-4
0.0028295827
0.0023228794
0.0017837815
3.1930828E-4
-0.0013866873
-0.0012909548
-0.0016898549
-0.001646976
-0.001442122
-9.5287577E-4
0.002808071
0.005788641
0.006864438
0.00848216
0.007932819
0.004921837
2.3049762E-4
-0.0037909674
-0.003509981
-0.002521585
-0.0013361471
0.0017900687
2.2984832E-4
-0.0032547377
-0.002199043
-0.0037621234
-0.0067856205
-0.005507412
-0.0034714337
5.1888777E-4
0.0036555405
0.0027214915
0.0042802207
0.0061669587
0.0043698754
-5.9688493E-4
-0.007970933
-0.009253276
-0.0030707433
0.0021215011
0.005264611
0.008229838
0.007123661
1.6818762E-4
-0.002005109
0.0034199113
0.002840891
-0.0020781376
-0.0011655178
0.0014967034
0.0010344707
-0.0030923542
-0.0069759046
-0.004525071
-0.0022687193
-0.0054348498
-0.0053043924
-0.0019417998
-5.0456106E-4
0.0024619387
0.0043441462
0.0029817463
0.0034040022
0.0051441886
0.0068736626
0.00749244
0.003711615
-0.0048655397
-0.010200371
-0.0026409046
0.006037023
0.004654312
0.0025487265
9.3255704E-4
0.0010940222
0.0045843488
1.12488175E-4
-0.007905677
-0.0073901294
-0.0010580109
0.003143866
0.0020442628
9.556568E-4
3.4016086E-4
-0.0021282819
-0.0039603966
-0.0071798973
-0.008927667
-0.0042856457
0.0018546793
0.0039029974
0.0024150757
0.0016039544
0.0010624443
4.385557E-4
6.0016682E-5
-0.00299053
-0.0047005774
-0.0039781947
-0.002697228
7.4567326E-4
0.0030750073
0.006714923
0.010154464
0.0073076445
0.0045646643
0.0014615195
-0.004182093
-0.0059779338
-0.0030421647
0.0022353535
0.0060143233
0.008715524
0.009706733
0.006944224
0.005449826
-5.315995E-5
-0.008646061
-0.009177206
-0.007358413
-0.004227959
0.0019627612
0.0042650825
0.0056709344
0.006752177
0.0017299781
-0.0077268197
-0.013907779
-0.013170808
-0.0091626495
-0.0022740879
0.0027663999
0.0013707705
4.4498546E-4
-1.4636818E-4
-0.0021481963
-0.0036763556
-0.005733848
-0.003575138
0.001250803
0.003470146
0.0056308964
0.006923116
0.006655953
0.0047444263
4.6107318E-5
-0.0035580108
-0.0028432382
5.709599E-4
0.0025651364
0.0034720858
0.0038735066
0.0028696742
0.0053792116
0.007390414
0.0043196213
0.0020055089
6.4780135E-5
0.002558561
0.006366257
-7.289727E-4
-0.005175096
-0.0018204201
-0.003059145
-0.0023208244
-0.0015182496
-0.008195537
-0.010970085
-0.0067689703
-0.002662641
1.1781112E-4
0.001997845
0.0023687256
0.0014145548
0.0017347754
0.0016056097
-0.002842739
-0.0072575905
-0.00715785
-0.002697898
0.004137825
0.0085210735
0.008516443
0.006243779
0.0029007937
-0.0010041591
-0.0034640273
-0.0030342166
-0.0013923318
6.2626466E-4
0.0029064598
0.004310449
0.004607627
0.003219454
0.0011036987
-0.0021994556
-0.007165484
-0.0070139593
-0.0021030006
2.5895567E-4
0.001921031
0.003514402
0.0028668903
0.0016942838
-2.3286538E-4
-0.0021230958
-0.003952331
-0.00635737
-0.0049701794
-8.372259E-4
0.0014610193
0.0025889592
0.0030280245
0.004175175
0.0042057456
-0.0014725722
-0.006239328
-0.004663924
-0.0015632636
0.0018137116
0.0058768312
0.009429502
0.010164064
0.0084365215
0.009588212
0.0041128392
-0.012023018
-0.015960477
-0.00712749
-0.0015785886
0.0018985629
-0.0018220873
-0.006903008
4.2678017E-4
0.0058872453
0.00423372
9.0594497E-4
-0.009152837
-0.013082202
-0.0040891743
9.5018017E-4
4.8473047E-4
0.003009791
0.0046741264
0.0031023861
0.00430469
0.00694961
0.0077835782
0.011195955
0.008690464
-0.0052199406
-0.0119362045
-0.0067624967
-0.0015198063
0.0013887249
-3.3807452E-4
-0.0053009866
-0.006091247
-0.0028941913
9.137748E-4
0.0035843966
0.004699061
0.0040457915
0.0013949893
-2.4858846E-5
-0.001527373
-0.00586529
-0.0070258575
-0.003904999
-9.489297E-4
0.00227319
0.004616283
0.005584577
0.006769997
0.006196723
0.0034957023
7.98692E-4
-0.0011742907
-0.0024623978
-0.001723392
8.141821E-4
6.22017E-4
-0.0012923403
-0.0018893053
-0.0033180017
-0.004066856
-0.005046545
-0.006693261
-0.0021887303
0.0051780595
0.0077310684
0.0054890546
0.001072351
-3.524586E-4
0.0010007718
-0.0012876006
-0.008029919
-0.009876533
-0.0016176531
0.004665261
0.0046734936
0.0071786977
0.009878798
0.009173862
0.0067768814
0.004507872
2.2680908E-4
-0.011514204
-0.017248537
-0.008115358
-0.0026341216
-0.0039940225
-0.0014849287
0.0026435656
0.0039624316
8.296926E-4
-0.0033421896
-0.004318795
-0.0035144698
-8.300076E-4
0.0035310723
0.005574515
0.0036392773
0.0014275127
9.40256E-4
0.0017380447
0.0039953967
0.0034638995
0.0024550247
0.0052331
0.0045715864
0.0017436737
6.6040404E-4
-5.4537726E-4
0.0013855258
9.863612E-4
-0.0039556553
-0.006101148
-0.0067616124
-0.0039598946
0.0013213228
0.0021065634
0.0014861714
6.433093E-4
-0.0011517877
-0.0030498002
-0.006090046
-0.0066001094
-0.0039547333
-3.9349857E-4
0.00260308
0.0019804982
0.0014947656
0.0036689502
0.0034905304
5.082058E-7
-0.0031924646
-0.0044418676
-0.004338083
-0.0011691619
0.004382382
0.0075896624
0.0073620784
0.0045158197
0.0017458674
-6.140355E-4
-0.0043872497
-0.0055864416
-0.0039982703
-2.7574282E-4
0.0058179246
0.0071090003
0.0032127951
-5.7258346E-4
-0.0011021291
0.0021047662
0.0024579663
2.6344194E-4
-5.1439024E-4
-8.844818E-4
-2.4896758E-4
-0.0012643856
-0.0011653084
0.0019779555
7.0051436E-4
-0.003322191
-0.008383608
-0.011524193
-0.0064368127
-8.433292E-4
0.004575293
0.011287657
0.008744849
6.105559E-4
-0.0033117293
-0.0031470256
-0.0038336026
-0.006408862
-0.0032456205
0.0022622084
0.0026554212
0.00319726
0.00428669
0.0032554325
0.0017831069
5.368241E-4
-7.093233E-5
-0.002799997
-0.005851525
-0.0033401155
4.1963218E-4
7.839698E-4
1.16768824E-4
-7.410889E-4
-0.001577959
-0.0027447224
-0.0049039875
-0.005088436
-0.0024572443
0.0012097865
0.007131899
0.014709299
0.019719023
0.015576478
0.0010558477
-0.009309815
-0.006659777
-0.0016779142
-0.0015062945
-0.002921901
-0.0019558957
7.543261E-4
0.0013840443
0.0013908806
0.0017732995
-5.911729E-4
-0.0034692204
-0.003402667
-0.004234358
-0.0072773886
-0.00452586
0.0020286615
0.0030056275
0.0020949945
0.0014053779
-0.0010942358
-0.0027050886
-0.0043730205
-0.0046871942
-0.0026137265
-4.6361692E-4
0.0013912711
1.2866296E-4
-3.9031042E-4
0.00152149
-7.8220875E-4
-0.003221845
-0.0033044037
-0.002925091
2.185705E-4
0.0027761895
0.004407457
0.006918622
0.0073416233
0.0052557276
0.0011674586
-0.0030877574
-0.005069367
-0.004130513
-0.0017794005
0.0010987602
0.008075386
0.015015838
0.014393336
0.008380404
0.0026625432
0.0027100458
0.002195095
-0.007670717
-0.015108689
-0.012025948
-0.0069235708
-0.003226261
8.757012E-4
0.0034883816
0.0017973622
-0.00283668
-0.006359134
-0.006047198
-0.003574177
-0.0023855688
-0.001220686
-1.6601747E-4
-6.036303E-4
2.448005E-4
0.0013748605
5.3429947E-4
3.6203023E-4
0.0014290204
0.0019359647
0.0044871247
0.007918877
0.0061311265
0.0046793562
0.005446104
0.0011876853
-0.0024446081
-0.004206471
-0.007785586
-0.0077478453
-0.005595728
-0.0037396408
-0.0019304669
-6.38683E-4
0.0012238859
-3.6098942E-4
-0.0033719777
-0.0042279274
-0.0037355206
3.9944972E-4
0.004372575
0.007993894
0.010115707
0.0057174824
0.003587395
0.003387919
-0.0011051925
-0.004508302
-0.0034600494
0.0043855556
0.01431714
0.02051016
0.017475631
9.011927E-4
-0.009128072
-0.008205027
-0.0113714645
-0.010958347
-0.008390293
-0.007559912
-0.005638223
-0.009785977
-0.0076932977
0.0010597985
6.909525E-4
0.0016075892
8.898868E-4
-0.006760436
-0.0057276553
-8.660465E-4
4.1611577E-4
0.0021024437
0.0029739765
0.004742405
0.0059675775
0.0048645036
0.0031682178
-1.5638949E-4
-0.0017134204
1.7486144E-4