-0.01175724
-2.8662762E-4
0.00384414
0.0024153586
0.009167859
0.014365386
0.002318235
-0.011074604
-0.015317383
-0.014837635
-0.007360733
0.0014292408
0.0055208574
0.008033342
0.01198565
0.012791049
0.004146598
-0.003599657
-0.0042717536
-0.002647176
0.0058314777
0.013851292
0.009412278
0.0028628772
0.0037473377
0.0055103144
7.699949E-4
-0.0085482905
-0.015963638
-0.015910521
-0.007262474
0.0024373834
0.0068709827
0.009032067
0.010752037
0.00781048
0.0015358938
-0.004115231
-0.011152947
-0.013993493
-0.008113085
-0.0012967997
0.00316799
0.004587679
0.004854768
0.0061479267
0.002481072
-0.0057959855
-0.013400403
-0.014006215
-0.00562825
0.0036649036
0.0121403895
0.015898192
0.014236548
0.015277991
0.011822013
-3.9571535E-4
-0.016157854
-0.025252186
-0.016058201
-0.0027923824
0.005626676
0.011973751
0.010140597
0.010410796
0.0096908705
-0.004143294
-0.015116864
-0.01687083
-0.011951699
-9.860252E-4
0.00682616
0.010639868
0.010795339
0.0084911175
0.0055139316
-0.003413084
-0.011328231
-0.012800473
-0.011720262
-0.0047850264
0.0035288744
0.0075136116
0.011108211
0.010401876
0.0032617343
-0.002756784
-0.007420972
-0.011736773
-0.009959341
-0.002646337
0.0063551585
0.013924813
0.014694965
0.011690246
0.007475889
-0.0021921557
-0.011956879
-0.015286896
-0.010854212
-1.5182023E-4
0.0055769137
0.00457315
0.0056534423
0.0054861414
0.0012814503
-0.004954881
-0.012478447
-0.013607301
-0.006538623
0.0016300009
0.008847658
0.013188783
0.011719431
0.007323009
0.0036277676
-0.00178516
-0.008628145
-0.010581811
-0.007976128
-0.0038394635
3.69125E-4
0.0017498856
0.0027168249
0.004015619
0.0026562284
-0.0022016307
-0.009056054
-0.010715755
-0.006682549
-7.4264803E-4
0.0072749252
0.010914174
0.009889554
0.007965743
0.002281487
-0.0043348907
-0.008740165
-0.0073452513
-1.9727887E-4
0.004424386
0.008210336
0.011614346
0.011376989
0.010738392
0.004673552
-0.007984125
-0.016914047
-0.016128972
-0.0073419814
9.037962E-4
0.005649292
0.009197763
0.009830521
0.008599725
0.003634587
-0.0061269477
-0.0120632015
-0.011302177
-0.0067851036
-0.0011589908
-1.160471E-4
-0.0019448308
-9.572092E-4
4.1876562E-4
-6.924152E-5
-0.0034463867
-0.009972214
-0.012836641
-0.008876567
-0.0015914601
0.0056869537
0.009306974
0.010986731
0.01240722
0.008710503
1.6682659E-4
-0.0077567543
-0.010254273
-0.0041579963
0.0054391264
0.010696577
0.01232378
0.013105452
0.013422487
0.011926409
0.0028484687
-0.0101140775
-0.014623935
-0.01051631
-0.002934922
0.0030772754
0.004204953
0.005066264
0.0030614561
-0.0043400787
-0.010142499
-0.013633693
-0.014586968
-0.010410166
-0.00220967
0.0062739006
0.008656822
0.006891713
0.0067947838
0.004760578
-0.0023796845
-0.00975002
-0.012209584
-0.008601638
0.0016218978
0.0121725295
0.01506523
0.014579517
0.013053631
0.0079060765
-5.392123E-4
-0.010556922
-0.014118073
-0.009910577
-0.003969727
0.0014781076
0.0027457117
0.0036775598
0.0060108956
0.0018269385
-0.0065912344
-0.014727553
-0.01980458
-0.016528293
-0.006923846
0.0033035886
0.0095764585
0.012209562
0.014153852
0.012138137
0.0045988774
-0.0032333115
-0.0070498874
-0.0065451595
-0.0010819713
0.00689066
0.010263997
0.009022021
0.005810312
0.001628868
-0.0024122938
-0.008320495
-0.0077334857
0.004402966
0.014699976
0.017683208
0.013762546
0.0047090356
-0.0018468937
-0.0093780495
-0.01795365
-0.020410284
-0.021024771
-0.018365825
-0.006297013
0.007885967
0.014929902
0.014254516
0.010391646
0.0055677495
-0.002402149
-0.012896326
-0.019224323
-0.01619599
-0.0073304637
0.0015203013
0.0089453105
0.013035044
0.011593419
0.007651004
0.0027518931
-0.0057150293
-0.0124803735
-0.009662718
-0.0013008354
0.0055953613
0.009784417
0.0114625655
0.012011242
0.010854444
0.0043454054
-0.005384444
-0.0117343115
-0.011208527
-0.0040356023
0.0039539146
0.008042142
0.010552185
0.010809512
0.0070584407
6.404241E-4
-0.0076823058
-0.013623093
-0.014319087
-0.009269398
-2.609386E-4
0.0038909041
0.0037507203
0.0047299834
0.0035835658
-0.0010460524
-0.009574728
-0.0151279075
-0.010688895
-0.0044295737
0.0024167267
0.0111527415
0.015673077
0.016039016
0.010180293
-2.4959582E-4
-0.00894968
-0.01566827
-0.017183658
-0.01277234
-0.0042093433
0.004723546
0.006912614
0.007678901
0.009452545
0.0054364754
-0.0023029896
-0.0090063745
-0.009771202
-0.0038599013
0.004811066
0.014811442
0.020657018
0.02005901
0.014590944
0.0039296784
-0.0062169805
-0.011620993
-0.011779519
-0.0060862456
0.001240625
0.0065108226
0.008343854
0.0061176405
0.0011853167
-0.0067071556
-0.017152127
-0.023627093
-0.019434405
-0.008918562
1.18221156E-4
0.008488351
0.015546731
0.014324923
0.0039959312
-0.007393063
-0.013871345
-0.015257689
-0.012783406
-0.00762917
-6.977455E-5
0.006994634
0.009866656
0.009150922
0.006070169
0.0031600874
-0.0015493459
-0.010933613
-0.01598931
-0.010381685
0.005883271
0.023761969
0.024808763
0.014992698
0.011198215
0.010367625
0.0069977352
9.620201E-4
-0.0042488812
-0.0040943567
5.6643435E-4
0.0063368543
0.010153384
0.012236776
0.010408379
0.002087494
-0.008889748
-0.019592118
-0.024278235
-0.020252505
-0.01413916
-0.0074008526
-0.0016687805
-8.500981E-4
-0.0014927767
-0.0027480922
-0.009024281
-0.015819654
-0.013225446
-0.0039592236
0.003593467
0.0071855173
0.0077609173
0.009710098
0.009625285
0.0019793818
-0.005035551
-0.0051494623
0.0020571495
0.015006432
0.029293474
0.03857402
0.027383372
-0.0025648922
-0.025327822
-0.032700665
-0.032261066
-0.028825397
-0.025396118
-0.018517049
-0.0050870175
0.008728798
0.01258559
0.010805135
0.017234428
0.02211392
0.0088953795
-0.012712957
-0.017718004
0.0017500971
0.022184528
0.033166155
0.044788845
0.04849864
0.045587722
0.041039526
0.02079562
-0.0026473464
-0.016648864
-0.027119456
-0.0227737
-0.016662965
-0.030533986
-0.041810684
-0.036446515
-0.02859025
-0.025682135
-0.02564946
-0.022074927
-0.011009822
0.0033620875
0.011201316
0.01065191
0.0068098963
3.9922263E-4
-4.182292E-4
0.0034675475
-1.3268663E-4
7.0377265E-4
0.007602491
-0.001508726
-0.012891121
-0.0025629974
0.006220058
-0.0053719855
-0.015690358
-0.019047737
-0.01914442
-0.00593627
0.0080769835
0.022973416
0.04052208
0.021344494
-0.014909696
-0.014565945
-0.0011878621
2.616317E-4
0.0012140697
0.00855039
0.026321175
0.042967897
0.054981377
0.07100406
0.08246568
0.08969692
0.08571016
0.043262586
-0.024823442
-0.07381439
-0.08888216
-0.0881494
-0.08906776
-0.08647317
-0.06556064
-0.035368875
-0.017629871
-0.013721355
-0.015700227
-0.016611308
-0.011200731
-8.369913E-4
0.013584848
0.019110883
0.009432237
0.004611116
0.00818976
0.014517324
0.024175543
0.03098011
0.037477706
0.03670828
0.023633061
0.014731035
0.0112966085
0.010642533
0.009608476
-8.585411E-5
-0.013519221
-0.029433234
-0.035270378
-0.022577433
-0.014501479
-0.011679253
-9.859331E-4
0.011188605
0.020113088
0.021249808
0.011440262
2.3863315E-4
0.002044629
0.0077306344
4.9083534E-5
-0.004855097
0.004588354
0.017742282
0.022167781
0.005016746
-0.02012325
-0.032927837
-0.029049523
-0.011987375
-0.0051744347
-0.011712171
-0.016881803
-0.025932122
-0.029322937
-0.021871984
-0.019091122
-0.011657363
0.014842539
0.048655543
0.075105645
0.08890653
0.07763715
0.04611899
0.026899565
0.016904138
-0.002077186
-0.013031396
-0.01207028
-0.01763763
-0.034069028
-0.047948446
-0.049954154
-0.047100578
-0.0402011
-0.034130428
-0.037955664
-0.040099956
-0.034596875
-0.024711072
-0.012026844
0.0012515729
0.014996864
0.020899206
0.021512179
0.022050405
0.019220553
0.020951245
0.01565967
0.004499512
0.01369758
0.02548444
0.031490393
0.04267631
0.03795312
0.022009132
0.012275676
-5.634171E-4
-0.011905919
-0.010123869
-0.0054658307
-0.009485136
-0.0113638975
-0.00688453
-0.0056576394
-0.0028223838
-0.0026168341
-0.0100569995
-0.008338511
0.0015041147
0.0035060304
0.0016352052
0.008528156
0.014883643
0.008531653
-1.2869932E-4
-0.011099854
-0.02330328
-0.023702264
-0.019642653
-0.013651061
-0.0050382833
-0.002708519
-0.002554752
-0.0031326131
-0.004845489
-0.005411079
-0.0045672436
2.9868004E-4
0.0021237072
0.0043434384
0.011927652
0.0116977785
0.0072799986
0.006089372
0.0015106928
-0.010653988
-0.02061422
-0.0132571235
-0.0023965961
0.005052228
0.019416464
0.020519217
0.0071359864
0.001669572
3.65982E-4
-0.002357278
-0.0065528527
-0.008727083
-0.00710827
-0.0078029116
-0.0028942316
0.0063427365
0.0059716417
8.642374E-4
-5.108788E-4
0.0012671003
0.0018622358
0.004230774
0.01136085
0.013054401
0.014471114
0.02287953
0.022745296
0.0134624345
0.0066702208
7.461624E-5
-0.012369524
-0.028564135
-0.031008463
-0.018315049
-0.011975342
-0.0060698073
0.010043422
0.01976047
0.016487936
0.0087044425
0.0031741438
0.0036356098
0.010930581
0.021627719
0.012376428
-0.021860452
-0.03377066
-0.017700959
-0.020570854
-0.034108367
-0.029575806
-0.016209366
-0.010149305
-0.014926167
0.0016979909
0.04322347
0.04816371
0.015205718
-0.0103488015
-0.018096177
-0.00881552
-0.0011013267
0.0023428183
0.013255812
0.014341028
0.009987777
0.0074082003
3.8183737E-4
-0.0029840777
-0.0104148425
-0.01577889
-0.008334583
6.1690115E-4
0.016151536
0.024367975
0.011803082
0.0065925843
0.01582656
0.018441206
0.0022482038
-0.016481852
-0.015509393
-0.00572196
0.0016452344
0.007934945
0.010215861
0.0016795206
-0.018327495
-0.021553898
0.005241935
0.034037057
0.042500287
0.028590454
0.015947165
0.018755263
0.011887508
-0.0041689654
-0.008119583
-0.016522339
-0.04288823
-0.07090844
-0.086444706
-0.07636253
-0.046205282
-0.022638189
-0.0021589417
0.019689512
0.025208654
0.019647371
0.014597756
0.0060589802
-0.014004957
-0.030238567
-0.01766077
-0.0064213583
-0.010701407
0.007718176
0.037618965
0.054901745
0.06387099
0.060630538
0.05471461
0.049542096
0.02830985
0.002141618
0.0020824417
0.018622603
0.020763744
0.024553832
0.039102368
0.03200163
-0.00107547
-0.040265907
-0.06349551
-0.06487261
-0.058669742
-0.033457883
-0.0031594443
-0.0066415886
-0.020864455
-0.02241994
-0.022009911
-0.023027023
-0.033153355
-0.036092307
-0.01629032
-0.0016934661
0.005972652
0.014428858
0.0075299186
0.005283028
0.01351172
0.004073555
-0.005657973
0.0018823681
0.011676643
0.022057543
0.027578145
0.021267889
0.014610214
0.013227235
0.01571621
0.019250436
0.018240474
0.012767942
-3.9257572E-4
-0.017569048
-0.020037785
-0.009276573
-0.0031114526
-0.004592619
-0.0052459887
0.002116228
0.0073363762
1.3188584E-4
-0.006500274
-0.005595468
-0.0057551074
-0.013717371
-0.01858742
-0.0034808638
0.01141273
0.008956493
0.0073198555
0.0112393135
0.018973503
0.026515117
0.022094507
0.009900357
-0.0031697766
-0.0112156635
-0.016214043
-0.019173272
-0.0070229946
0.0036366163
0.0011213828
0.0013530483
-0.003295276
-0.012291276
-0.015112705
-0.013528968
-0.00862555
-0.012332507
-0.0170822
-0.011999267
-0.011754109
-0.0095795235
3.2965274E-4
0.009703699
0.016927196
0.01165314
0.0022436038
0.0013062559
-0.0011599658
0.0021890916
0.016232539
0.022309776
0.016849637
0.008558583
-2.2137871E-4
-0.0049039815
-0.003086194
-7.445013E-4
0.0020428705
0.007250796
0.008536202
0.005791284
0.0038954963
0.0022554446
-1.15827796E-4
-0.0042199134
-0.007855641
-0.008620912
-0.007873705
-0.003511164
-0.0016357519
-0.007615472
-0.0060904124
0.0034916957
0.0038178596
-0.0014600728
-0.0016826503
0.0056092273
0.013652626
0.009421625
3.160316E-4
-0.003591889
-0.006884252
-0.0072969287
-0.0063555436
-0.006964781
-0.008215535
-0.011088673
-0.0029093833
0.010890011
0.0080011925
4.520178E-4
4.842581E-4
4.4684633E-4
8.794856E-4
-0.0016194709
-0.008004517
-0.006999751
8.9039776E-4
0.005978802
0.0058277203
0.0011191291
-0.0033549655
-0.0015239845
9.0645615E-4
4.7074415E-4
4.2573176E-4
-0.0015039108
-0.0012392997
0.0011352283
-0.0015255598
-0.0024487653
-2.2509012E-5
7.03198E-4
0.0025858844
0.0020996265
-0.0041587497
-0.008579617
-0.0056117144
0.001691453
0.011335709
0.017551333
0.011221263
0.0028890306
6.069302E-4
-0.0033936983
-0.007743345
-0.008462477
-8.219083E-4
0.0058915536
-9.6748385E-4
-0.0019906003
0.007452753
0.017163875
0.022656478
0.006500713
-0.013130431
-0.017015295
-0.019469982
-0.0112422025
0.0014508606
5.79145E-4
-0.0026019106
-0.005467913
-0.0061384137
-0.0055936403
-0.010611036
-0.011591222
-0.007001069
1.7643558E-4
0.0075251306
0.010434235
0.014618016
0.016686222
0.013868638
0.01053175
0.003945254
-8.169058E-6
9.446076E-4
0.0026166271
0.004094547
-0.0010344429
-0.0051970705
-0.0020379152
-0.0052724476
-0.013898467
-0.018048521
-0.015844308
-0.0051090936
0.010144789
0.023834718
0.03039737
0.027583588
0.024259599
0.019283004
0.008430685
0.002084859
-3.5059082E-4
-0.0021307026
-8.257729E-4
-0.0053811045
-0.013184607
-0.018474946
-0.026404668
-0.029546311
-0.0318258
-0.043070395
-0.043003246
-0.023020158
-0.010832986
-0.021035919
-0.029610733
-0.021998055
-0.019177405
-0.023810051
-0.013492566
0.008667909
0.020210495
0.019370293
0.026095273
0.0438091
0.05849922
0.07311297
0.09080421
0.09507473
0.08169123
0.065374196
0.047757894
0.024973448
0.0060860845
-0.011586684
-0.037596636
-0.060428374
-0.06610669
-0.058254838
-0.04894521
-0.042649146
-0.039078824
-0.038821433
-0.034918286
-0.0262136
-0.01634859
-0.004709377
0.0026079607
0.006140361
0.0016461294
-0.018879035
-0.030674115
-0.019173678
-0.003556457
0.0077920742
0.0142328385
0.014350205
0.013600289
0.01369615
0.00944471
0.0017077939
-0.0018606599
-0.0012238773
0.0016187172
0.0034393328
0.0010829531
0.0024826156
0.0052342177
0.0047693527
0.005337137
0.0011117216
0.0021615934
0.014159974
0.017512849
0.022611842
0.039054535
0.046298884
0.043328557
0.037867177
0.030361064
0.022721004
0.013606569
0.007837469
0.004194906
-0.0053552045
-0.01883562
-0.032596394
-0.035683423
-0.02997338
-0.03658154
-0.0461892
-0.04657078
-0.043398514
-0.027817553
-0.0139593305
-0.019666042
-0.021422297
-0.011364071
-0.0031120523
-8.96496E-4
-0.006218664
-0.008278912
-7.076771E-4
0.0061735986
0.012402996
0.021224925
0.02409724
0.022310501
0.023219528
0.017599382
0.0073682386
0.007812649
0.014102971
0.019397119
0.018692534
0.0097287055
0.0058180634
0.0048441268
8.5034105E-4
-0.0021637664
-0.009908009
-0.013976935
-0.0045551187
0.00676683
0.0129783135
0.013953779
0.012457178
0.011350093
0.0042292424
-0.011380909
-0.022732746
-0.020803211
-0.013564062
-0.0043868553
0.003842789
0.0035579174
0.0036367797
0.0035473423
-0.0037223417
-0.00800211
-0.012131338
-0.017020784
-0.012311247
-0.0049998537
1.8872348E-4
0.005197655
0.0059538037
0.0028457385
1.6035039E-4
-0.002013928
-0.006293159
-0.0066926233
-1.6666114E-4
0.004541612
0.0073661203
0.010423496
0.011754295
0.011515761
0.0065071983
-1.7995086E-4
-0.004727778
-0.010192194
-0.010857987
-0.002739051
0.00555558
0.009207933
0.010873076
0.01044019
0.0059080813
-4.746724E-4
-0.006350648
-0.0106592765
-0.009807385
-0.0032334765
0.004040947
0.007937465
0.008016162
0.0058485135
0.0030608776
-0.0019529713
-0.009626305
-0.01361763
-0.010014515
-0.0031575104
7.114199E-4
0.0017062916
0.00460985
0.0068581933
0.004367602
-0.0012355264
-0.009151373
-0.01401
-0.009680313
-8.4253756E-4
0.0051655513
0.008524436
0.012693484
0.013974723
0.009583449
0.0034373146
-0.004244188
-0.010115266
-0.010216581
-0.007275286
6.0792605E-4
0.009249409
0.009005655
0.0078092855
0.009321654
0.0010902025
-0.00946245
-0.010404737
-0.009785522
-0.0036437386
0.0063167242
0.0021087248
-0.0043947767
-0.0024042686
-0.0029559205
-0.005080053
-0.00905033
-0.011400772
-0.004772463
0.0020889002
0.008163861
0.014923631
0.015852794
0.013587218
0.0092167165
3.6937583E-4
-0.010201028
-0.016052006
-0.01202359
-0.0038972409
0.0024173465
0.00804375
0.010714075
0.009210501
0.007071275
0.0028614234
-0.0069742166
-0.01588351
-0.01774916
-0.013350427
-0.0018186476
0.007973572
0.008078392
0.00872186
0.011007152
0.004989968
-0.0049741264
-0.008663228
-0.0051150573
0.0019782428
0.009761893
0.012547261
0.008037303
0.0034942343
9.5803116E-4
-0.0056722807
-0.014670814
-0.016991405
-0.011771558
-0.0033014873
0.0073253503
0.012449138
0.008211092
0.0043187705
0.0018550246
-0.001966349
-0.006520339
-0.014399559
-0.017046815
-0.0102198515
-0.0037018885
0.0020998055
0.008575131
0.013131694
0.013222909
0.008382239
0.0049596387
2.4730657E-4
-0.005773925
-0.0025361744
0.004126564
0.0068186824
0.007976071
0.007864575
0.0061548823
-0.0017559959
-0.013829179
-0.019323234
-0.013487616
-0.002592394
1.09411034E-4
5.0593505E-4
0.008145071
0.010203243
0.005876724
0.0023338597
-0.0058948514
-0.014576853
-0.013435289
-0.0046238666
0.003798196
0.010340395
0.013951989
0.012564729
0.009240641
0.0017410544
-0.007481345
-0.008749746
-0.004233586
5.092577E-4
0.0028457798
0.0038227679
0.005752022
0.007734872
0.0067721144
-0.0069560045
-0.02126096
-0.017092928
-0.011626771
-0.008438357
0.0016588406
0.007894502
0.011143613
0.011195317
0.0066594663
0.002911911
-0.0047886637
-0.009508825
-0.007454093
-0.004167304
0.003035998
0.0062457803
0.006370529
0.008919425
0.006607973
0.003826509
-0.0013372821
-0.010184953
-0.009263939
-0.0037354538
-5.2179716E-4
0.0045731007
0.008189492
0.0075445683
0.0038878524
8.277401E-4
-0.0018674841
-0.008139574
-0.010863416
-0.0052862884
1.9182372E-4
0.0018684552
0.0033891313
0.0051938323
0.006385578
0.0054886076
-0.0015389476
-0.009087675
-0.007178474
-6.630675E-5
0.0057923454
0.011642072
0.014796433
0.009019788
5.683837E-4
-0.002704559
-0.011476911
-0.023213338
-0.021732671
-0.01329783
-0.0042212326
0.0025233093
0.0028178222
0.007307814
0.01152432
0.0065088267
5.201509E-4
-0.006963579
-0.011590483
-0.005436934
0.0038122835
0.011655519
0.015788462
0.013312652
0.008565525
0.0058257035
0.0030092513
-0.002881788
-0.005060709
-4.801606E-4
0.002572283
0.0020259945
0.0012918157
0.0017487709
9.5385755E-4
-0.003811446
-0.011411292
-0.01888386
-0.018442651
-0.009789214
-0.0023757808
0.0027092197
0.0067408155
0.008803597
0.0076091704
0.0027045882
-0.0016645341
-0.006006508
-0.008007451
-0.0013868371
0.0067434777
0.009711297
0.009935906
0.008452429
0.005040267
2.2715538E-4
-0.0049565528
-0.010120159
-0.01075671
-0.0037778157
0.003293261
0.006038837
0.006801293
0.0071389317
0.006117419
3.9607863E-4
-0.006770087
-0.01042824
-0.011404318
-0.007831468
-1.1612982E-4
0.004994427
0.006113941
0.0073586823
0.007413112
0.0027351386
-0.0044029313
-0.010275865
-0.011061012
-0.005239908
0.0028576253
0.0094408
0.010969639
0.008049329
0.0069711152
0.0047370642
-0.003498831
-0.010742364
-0.011422993
-0.0076142307
-0.0011485784
0.004301415
0.004283705
0.004403717
0.008603274
0.0063540605
-0.0048485436
-0.012607045
-0.011231648
-0.004469647
0.0021605978
0.0039895778
0.0023985163
0.003151714
0.004031857
-0.0011876229
-0.0071439836
-0.00877212
-0.010062347
-0.008438117
-0.0018942194
0.0033448471
0.008287202
0.014719796
0.016069379
0.009960481
9.215187E-4
-0.0036459565
-0.0014115145
0.0014721804
0.0031379513
0.0036269913
0.003116351
0.005207658
0.0062683406
0.0030237467
-0.0033517447
-0.010681762
-0.011239772
-0.007833249
-0.007469249
-0.00570181
-0.0020990972
0.0012976546
0.0038089305
0.0023082406
-0.0036636293
-0.011053674
-0.012665451
-0.006884384
3.9541163E-4
0.005740992
0.007969822
0.008340016
0.0067348257
0.0064773434
0.008933323
0.0041672536
-0.0024506964
-0.0018179922
-0.0019326016
-0.0024929452
-0.0011630214
-4.312817E-4
5.9870747E-4
-2.267546E-4
-0.0025220353
-0.006668154
-0.009859102
-0.0051261196
0.0023534007
0.009775344
0.016495232
0.015073531
0.008910027
0.0034176474
-0.002904309
-0.008448113
-0.01164893
-0.011301171
-0.0060450025
-2.0637769E-4
0.001967956
0.004144188
0.007299352
0.006436887
0.0019791392
-0.0049656522
-0.011840948
-0.010945559
-0.004586046
1.5419243E-4
0.0036098405
0.0051955595
0.005240734
0.004681295
-3.103346E-4
-0.00784015
-0.010575965
-0.00774142
-0.0032490913
0.0010802437
0.00429533
0.005743002
0.008306413
0.0121078575
0.010361245
0.0016129671
-0.0062099188
-0.0069988705
-0.0027063414
9.7334775E-4
0.0027907938
0.005568383
0.0076130084
0.0045672515
-0.0015659818
-0.00703516
-0.011434477
-0.012268998
-0.0082094055
-0.001462814
0.0037508502
0.003300666
0.0021317813
0.003464474
0.0019020938
-0.0026938661
-0.0069408636
-0.005684359
0.0017280052
0.0077185915
0.009338187
0.006495241
0.004214795
0.0057026288
0.0036184206
-0.002035131
-0.006250542
-0.0047734804
-0.0011328455
-0.001395652
0.0033707842
0.007450119
0.005904784
0.005642466
-0.007093884
-0.019645976
-0.016779365
-0.015509741
-0.004976374
0.011449404
0.0124488175
0.011101547
0.009835727
0.00472459
7.190752E-4
-0.0037338086
-0.005257356
-0.0065633007
-0.007276583
-0.0023322885
0.0015484779
0.0018789371
-6.5553584E-5
-0.0012921497
2.4470594E-4
-0.0024919356
-0.008224572
-0.007328698
-1.2087263E-4
0.00432908
0.0051864493
0.006959402
0.0070032766
0.0059366766
0.0030862354
-0.0044918912
-0.009733104
-0.00660079
0.0032616518
0.010947037
0.014658631
0.020289442
0.017153565
0.0047079716
-0.0027811
-0.010665626
-0.019507825
-0.018225223
-0.009480771
-9.47933E-4
0.003975897
0.005088033
0.00415857
0.0020698323
-0.0023161804
-0.0077681337
-0.009903983
-0.009658057
-0.007570823
-0.0031795062
2.3854685E-4
0.004128634
0.0058420063
0.0024161926
8.642032E-4
-1.3369188E-4
-0.003078194
-0.0025095104
7.715694E-4
0.0054616635
0.00996303
0.009353269
0.006826383
0.006101024
0.0032424852
-0.0032356225
-0.008252457
-0.008501784
-0.006365576
-0.0029089944
0.001238932
0.003267835
0.004307767
0.006953955
0.0074028256
8.463362E-5
-0.008029746
-0.007336032
-0.002979727
0.0010351362
0.005285375
0.0072643985
0.008931108
0.007740256
0.0011553491
-0.004976243
-0.0097574135
-0.0103722345
-0.006466839
-0.005132719
-0.0020304762
0.0040491866
0.00657437
0.0077697923
0.0054395925
-0.0014063393
-0.004607813
-0.0054549007
-0.0062583247
-0.0029448716
0.0014790612
0.004458219
0.005898042
0.0013346152
-0.005237047
-0.0068586026
-0.0074154334
-0.008258936
-0.006019739
-0.002464329
7.247879E-5
0.0024469977
0.0044284426
0.0039404007
0.002031601
-9.3677954E-4
-0.0041499184
-0.0014339153
0.0037080138
0.00583978
0.010888386
0.016196983
0.015665544
0.011203722
0.004995743
0.0016048471
4.0996363E-4
-0.0021723718
-0.0024196815
-8.6670776E-4
-0.002656695
-0.0052370257
-0.0024981697
-0.001273097
-0.009241556
-0.015219367
-0.014700783
-0.01355672
-0.00910092
-0.003150485
0.002134624
0.006700295
0.005405523
0.0015436877
-0.001907946
-0.005686332
-0.005644903
-0.0036733453
-7.227511E-4
0.00482072
0.008401015
0.009777619
0.010635776
0.010783044
0.010184202
0.0040247664
-0.005114157
-0.006534636
-0.0021098012
0.0011503784
0.004331406
0.0055272114
0.0029517622
0.001215736
-7.650005E-4
-0.0048354478
-0.0073252944
-0.006943328
-0.003397319
6.765675E-4
0.0021473055
0.0035656076
0.004379511
0.002315467
-0.0019757233
-0.0071194083
-0.008530247
-0.0063160574
-0.004191539
-1.0869847E-4
0.0041564815
0.005677326
0.0068805492
0.0059143826
0.0016927535
-0.002269238
-0.0053294497
-0.007090559
-0.0058339466
-0.001729938
0.0013937098
0.002106691
0.004619894
0.0056253094
4.3890259E-4
-0.0045556556
-0.005894787
-0.005464648
-0.0031077669
0.0013538795
0.0059122667
0.0065853153
0.0046329196
0.0035745502
0.0034412497
0.0015437265
-0.005290681
-0.008171972
-0.0021191158
0.0023868824
0.004127899
0.0033819044
-0.0011403753
-0.0025522213
-0.001402578
-4.417174E-4
6.182869E-4
0.0035015617
0.0070952764
0.0014410381
-0.0045879344
7.7412155E-4
0.005220693
0.0070014284
0.0071677817
-0.0016468758
-0.011105038
-0.013182607
-0.0098216245
-0.004330496
-4.355835E-4
0.0026273648
0.004624587
0.0044395197
0.0029792709
-0.0015898226
-0.007556101
-0.0093093915
-0.006085393
-5.533027E-4
0.004435392
0.0067866296
0.007665235
0.0071871374
0.0035034588
-0.0010278509
-0.0048917965
-0.0067577907
-0.0031987003
0.0013098677
0.0023514333
0.0034208233
0.0056299055
0.005881257
0.0035364658
0.0014986185
-0.0015665365
-0.006694738
-0.007976147
-0.0042605675
4.497511E-4
0.003403128
0.005034737
0.0072395126
0.0061392756
6.526374E-4
-0.0049217385
-0.0077642305
-0.006330244
-0.0032930183
7.126864E-4
0.0043524737
0.0046823453
0.0053393478
0.0031333023
-0.0032816217
-0.0072821295
-0.0086196
-0.004199825
0.002568992
0.0036987914
0.004360782
0.005021691
0.0037577555
0.0027753874
-7.4793794E-4
-0.0055928724
-0.007818833
-0.0061780857
-0.0029959327
-6.85579E-4
0.002538937
0.0034834696
0.0015283102
4.5871307E-4
-0.0030714879
-0.0074177817
-0.0064281635
-0.0024849926
0.0012830319
0.008372047
0.01599318
0.012537794
0.0031832862
9.0948644E-4
3.0479548E-4
-0.0037815569
-0.007176636
-0.006512838
-4.728467E-4
0.004458698
0.0036318116
0.0017929623
4.0302164E-4
-0.0016327568
-0.0052839573
-0.010713941
-0.009819534
-0.002033011
0.0028042546
0.005741727
0.0072792973
0.0073178513
0.009495902
0.004435122
-0.0043893973
-0.0060765794
-0.007071545
-0.0035316763
-2.6347226E-4
-0.0057623363
-0.0019389794
0.0076442813
0.009769419
0.008982741
0.0014757493
-0.0060178963
-0.0070284065
-0.0057293107
0.0013767087
0.0027779106
-0.00539706
-0.0077644833
-0.0040366934
0.0029600807
0.00596662
-0.0014256774
-0.0061110733
-0.00378535
-8.3491344E-5
0.003461731
0.003722949
0.0032876052
0.005107459
0.0066185496
0.0039122785
-0.004499193
-0.009818804
-0.006309164
-7.0149207E-4
0.002849772
0.006114935
0.008960025
0.008556053
0.0060538296
0.003092801
-0.0033896423
-0.009788018
-0.010051413
-0.0062443796
-0.0018749197
-2.507273E-4
6.085928E-4
0.0050117453
0.006685438
0.0015317985
-0.0053776386
-0.00860553
-0.0052364073
3.1086276E-4
0.004807772
0.009035997
0.0093953265
0.006900663
0.0029774236
-0.0043659
-0.010022348
-0.01177339
-0.010595746
-0.0054796357
-0.0012108805
0.0013955985
0.005146069
0.008593706
0.010292949
0.0054898295
-0.0030065074
-0.0044789594
-0.0013304009
0.002196641
0.006940187
0.008506468
0.00728903
0.0061242688
0.0010249524
-0.0076611764
-0.014707551
-0.019432541
-0.018400118
-0.009241568
-0.0010776098
0.0043613403
0.010919335
0.011812616
0.008817281
0.006646173
2.5865926E-5
-0.006244877
-0.004862538
1.0656124E-4
0.0025673134
0.002939232
0.005519644