-0.0019752905
9.1693224E-4
0.0018920484
0.003807403
0.0047417977
0.002403486
-5.389757E-4
-0.0055451356
-0.010031714
-0.007970315
-0.0033394818
0.0019566058
0.007131817
0.007899299
0.007834612
0.00762434
0.0019203424
-0.007211197
-0.0128195705
-0.010677587
-0.0037731328
0.0016818026
0.0033286454
0.002955706
0.0034880433
0.0039426554
0.0019200387
-0.0031968327
-0.008420552
-0.0073664947
-9.524851E-4
0.006283418
0.012735888
0.014124279
0.009684374
0.0030507424
-0.0034250065
-0.008580788
-0.012123616
-0.010744106
-0.004710684
2.9768713E-4
0.0033272603
0.006097258
0.008336676
0.006679237
9.615097E-4
-0.00534058
-0.01052462
-0.008765371
-0.0024842208
0.0023435045
0.008664063
0.0050427164
-0.005841246
-0.0016136388
0.0031687361
-0.0042689187
-0.007048952
-0.0045962157
-7.491007E-4
0.004688771
0.0065473965
0.007652405
0.007798952
0.004758382
0.0012051489
-0.0047187177
-0.009783391
-0.008728841
-0.0033557634
0.0033700713
0.007166418
0.008104484
0.008306469
0.0062387753
0.0027690423
-0.00261827
-0.007966025
-0.0079765115
-0.0045528845
-5.47308E-4
0.0016219125
0.0013903045
0.0023168726
0.0017181812
-0.002345411
-0.007062414
-0.01079794
-0.01072557
-0.006152636
0.001313979
0.007031755
0.008189578
0.008604696
0.0071378313
0.0033305485
-0.0015775919
-0.007908822
-0.008079803
-0.0032620595
-1.01253194E-4
0.0040662647
0.006956848
0.0072857803
0.006909856
0.0051212357
0.0017108249
-0.0053964136
-0.008296544
-0.0022871976
0.0014362488
0.0024917803
0.00456076
0.0040049544
0.0029539317
0.002467226
-0.0012257008
-0.007644579
-0.010117244
-0.006296289
-0.002367751
-3.8357137E-4
0.0019467832
0.0037404087
0.0036980438
0.0017674521
-0.0029756129
-0.008119191
-0.0072270394
-0.0021107192
0.0022122501
0.0064584897
0.007934294
0.005942648
0.0040570083
0.0017089172
-0.00174701
-0.005723511
-0.007486379
-0.004409448
3.2001038E-4
0.0028485605
0.0036504285
0.00573945
0.0066798865
0.0020446528
-0.0044709197
-0.0084025245
-0.008003302
-0.0035617256
0.0014768356
0.005497279
0.0076547293
0.008168626
0.0070174425
0.0022787198
-0.0042263647
-0.009385017
-0.009353336
-0.0030598945
0.0020905097
0.002729516
0.0030545313
0.004781698
0.0050629238
9.3875197E-4
-0.0057730675
-0.0106234895
-0.009944283
-0.0043873494
0.0016266959
0.0062078782
0.008160423
0.007781537
0.006834936
0.0033800942
-0.0028541759
-0.0080794655
-0.009207137
-0.0064313803
-0.002046015
0.0020707047
0.0030898228
0.0025833552
0.0049177534
0.005698967
8.692711E-4
-0.0049559227
-0.0076086414
-0.005614928
7.76891E-4
0.0065482957
0.006724834
0.0039759935
0.0027444754
0.0016842877
-0.0017611396
-0.0062468695
-0.0074284645
-0.0035156596
0.0023331656
0.0058584614
0.0058278753
0.0050925976
0.0048846374
0.00259866
-0.00355542
-0.009498588
-0.00911298
-0.005659695
-0.0017223563
0.0045591705
0.0074161063
0.0072278897
0.0064922418
7.1403076E-4
-0.00503569
-0.00844139
-0.010701959
-0.006476311
-0.0010829362
0.0016132387
0.004353963
0.0042763744
0.00454524
0.0046171355
-0.0014751637
-0.00833118
-0.010262989
-0.0058635105
0.0019233944
0.006273301
0.009022915
0.011519232
0.010001944
0.0061552604
0.0016717213
-0.0033155447
-0.0077327588
-0.0091817165
-0.0049039056
2.3781674E-4
0.002493197
0.00492136
0.005812222
0.0032150666
-0.0021850332
-0.009020312
-0.010930845
-0.006358593
-6.914544E-4
0.003348772
0.005653081
0.007125548
0.006308012
0.002009436
-0.002051597
-0.0052336613
-0.008013852
-0.006202565
-4.6634933E-4
0.003956238
0.0060848123
0.0069877002
0.007484947
0.0045885886
-0.0036475637
-0.010085315
-0.011648952
-0.008758906
-8.7141985E-4
0.004318416
0.0058176075
0.0074527827
0.00630587
0.0040428094
-8.826079E-4
-0.0076388787
-0.0083177
-0.005788894
-0.0020468251
0.0021073974
0.0030527834
0.0047449274
0.0061603202
0.0046158037
-1.3862617E-4
-0.00746427
-0.007809096
-0.002572516
0.0013203247
0.007270871
0.01054234
0.008417921
0.006403762
0.0036425292
-9.773347E-4
-0.0074624997
-0.011553122
-0.007999326
-0.0032925713
-9.624024E-4
0.0018137628
0.0039044858
0.005868084
0.004252886
-0.0025793011
-0.0069791973
-0.008277417
-0.006027578
-9.4556174E-4
8.6571777E-4
0.0054035955
0.009235129
0.00607045
0.0052553928
-0.0018808309
-0.013114016
-0.010339272
-0.0054620784
-0.0019451928
0.00568386
0.008229507
0.009367454
0.009372929
0.0047205454
-4.4923692E-4
-0.007147517
-0.009742122
-0.006980667
-0.0034851185
0.0032593084
0.0081255
0.0087138
0.007383647
0.002513485
-0.0024814238
-0.0075337254
-0.011375897
-0.008650497
-0.00322949
0.001445453
0.004639838
0.005013325
0.005286923
0.004334107
-0.001056597
-0.0073952577
-0.009864658
-0.0073495796
-0.0010400035
0.0051515535
0.0072859046
0.007812978
0.008865985
0.0069839573
0.0022553734
-0.0030293064
-0.007098162
-0.005649711
3.344438E-5
0.0033152897
0.002503825
0.0010890361
0.0018601157
0.0021044349
-0.0016010599
-0.0069651576
-0.009475184
-0.0067942175
-0.0015129145
0.002613977
0.0054243812
0.006345632
0.005625542
0.004043182
-3.090366E-4
-0.005507495
-0.0082502235
-0.0076034465
-0.00415567
-0.0014673367
0.0016751649
0.00519225
0.005158002
0.00492762
0.0033449174
-0.0031867686
-0.008108603
-0.007368073
-0.0027717191
0.0032787973
0.008028794
0.009184998
0.0070727575
0.0057972446
0.004089514
-0.0012070215
-0.0077682384
-0.012432522
-0.009620054
-0.0016565534
0.0023705347
0.0040345076
0.0056521245
0.005417388
0.002194054
-0.0038210794
-0.0068099173
-0.005394807
-0.0020645517
0.0032775223
0.006955415
0.007552312
0.007220358
0.00590522
0.001666668
-0.005775873
-0.01015977
-0.009102342
-0.0061872704
-8.580326E-4
0.0047446773
0.006330525
0.0069635296
0.007120129
0.0010815603
-0.0052117766
-0.0076038004
-0.015073578
-0.015178645
7.228251E-4
0.009351021
0.008611114
0.009170762
0.005308544
6.1177934E-4
-0.0020003684
-0.0062096547
-0.0076530734
-0.0038077421
0.0012680256
0.0028492557
0.0037516246
0.0068171397
0.006236418
7.975491E-4
-0.0057462133
-0.008973299
-0.0063169603
-0.001710839
0.0029953737
0.006641424
0.0072096456
0.0062471884
0.003625991
3.8989534E-4
-0.0027650245
-0.0070396815
-0.007445791
-0.002474217
0.0018019505
0.0040450646
0.00595599
0.007521222
0.0074850437
0.003543141
-0.003218026
-0.0092821475
-0.011691942
-0.008216282
-0.0025003096
0.001586074
0.005238482
0.0066422066
0.004504014
8.119299E-4
-0.0034296883
-0.006736304
-0.0076329815
-0.004219414
6.1823375E-4
0.0029309997
0.0051988023
0.003690504
-8.785335E-4
-8.951745E-4
-0.0031229807
-0.0068371226
-0.003869626
-1.12273985E-4
0.0037991232
0.008320686
0.008855562
0.008900168
0.008106111
0.0028920635
-0.0042196205
-0.0100174965
-0.010666705
-0.006621482
-0.0021984102
0.0023194079
0.005365895
0.005326408
0.00516896
0.0031005645
-0.00368001
-0.008646799
-0.007858934
-0.0041748723
0.0010756293
0.0053450484
0.0077282856
0.008857522
0.0063704257
0.0014195365
-0.003953601
-0.008183538
-0.0080044065
-0.004794808
-0.0011558135
6.0486415E-4
5.613654E-4
0.0034437447
0.006266858
0.0044401865
-1.1112217E-4
-0.006294293
-0.009332396
-0.005371617
0.0011673545
0.0056732683
0.00710878
0.006891577
0.0053683394
0.0019284778
-0.002902263
-0.007418352
-0.007389568
-0.00369175
-2.503976E-4
0.0027741692
0.003234002
0.0033953316
0.005230844
0.0028922665
-0.0025914293
-0.007967716
-0.010456302
-0.0054424587
8.274979E-4
0.0042913943
0.007062869
0.005976475
0.0038430672
0.0031041706
-8.365911E-4
-0.0063241404
-0.008211552
-0.0047602174
9.06746E-4
0.0042422567
0.005093821
0.0049885283
0.005098369
0.0033518975
-0.002170785
-0.005924201
-0.0052095987
-0.0027583372
0.0011879855
0.004509654
0.0055121672
0.005905812
0.0045997323
0.0010335854
-0.0025567457
-0.0054632365
-0.007265809
-0.006623524
-0.003432461
-2.144323E-4
0.0012803159
0.0026521047
0.0047152787
0.00420138
-0.0019879076
-0.008761751
-0.009548251
-0.0052537154
8.230306E-5
0.0030331537
0.0053694714
0.007918098
0.0060713324
0.002347944
-2.3906023E-4
-0.0031495397
-0.0040594186
-0.0031472782
-0.0015400826
0.0010243033
0.0020665359
0.0021435802
0.0033760152
0.002989004
-0.0010681672
-0.0052725663
-0.007592457
-0.0056933635
0.0014032888
0.0054289512
0.006450516
0.007944184
0.0057069887
0.0035048875
-1.2284603E-4
-0.006352343
-0.0066802856
-0.0043852804
-0.0010338381
0.0031275456
0.0043712948
0.0061186426
0.0046437616
0.0015859072
8.549673E-4
-0.0032165032
-0.0054776035
-0.003262929
8.520126E-4
0.0022218984
-0.0052728215
-0.0062429607
0.0042011696
0.007385863
7.7129004E-4
-0.00442649
-0.003419221
-0.0045135748
-0.009192941
-0.007573827
-0.0041211685
-0.003495765
0.0026486046
0.013034663
0.0076949503
-0.011498899
-0.011748835
0.0014963911
0.0044792257
0.0061238375
0.0076153027
0.0069065564
0.008487881
0.0063513536
0.0025594125
-0.0012435513
-0.0047135144
-0.0033443675
-0.0012969673
0.0013671092
0.0043165614
0.004045589
0.004050064
0.003909499
1.678343E-4
-0.006816899
-0.010796931
-0.008279494
-0.0044522802
1.9772982E-5
0.003746297
0.0045584636
0.0045577353
0.0021789426
-6.2524754E-4
-0.003889257
-0.008265708
-0.006645815
-0.0020571032
4.9737707E-4
0.0023403117
0.0021121802
0.0031042562
0.0042192074
9.3172326E-5
-0.005290651
-0.0068092304
-0.0035905158
1.1135865E-4
0.0029465756
0.008200313
0.009956845
0.0058914064
0.0019707694
-0.0013384694
-0.004092534
-0.0065422435
-0.0065812473
-0.0015333273
0.0011830301
9.7588083E-4
0.00359082
0.0047109546
0.003789387
0.0020236636
-0.0035275521
-0.007425103
-0.0052642566
-7.6252595E-4
0.0043165833
0.007273512
0.005687016
0.004115208
0.0027266461
-0.0021450955
-0.006264438
-0.0072531826
-0.0060872235
-0.0022057556
9.027157E-4
0.002535987
0.0039195186
0.0034097454
0.0026508993
-1.6508531E-5
-0.0061199674
-0.0089388685
-0.0066834684
-0.0023843944
0.003068486
0.0065220455
0.0068729254
0.006618294
0.005171744
0.0014315576
-0.0034100763
-0.007446769
-0.006827712
-0.0019450245
0.0011337234
0.0026754416
0.004998512
0.005151672
0.0028759043
-3.105064E-4
-0.004563543
-0.007818036
-0.006169205
-3.8785223E-4
0.004075346
0.006560162
0.006642602
0.0033381726
0.0019598177
7.952137E-4
-0.0036382128
-0.0067440895
-0.007580014
-0.0039836797
0.002404648
0.0043902714
0.006137009
0.007927913
0.004400274
-0.0010616957
-0.0074219634
-0.011490248
-0.008291836
-0.0027557008
0.001679651
0.005026639
0.0061936937
0.0060886135
0.004466174
0.0011886094
-0.002586337
-0.0065235053
-0.008399088
-0.0059338165
-0.0016026641
0.0014413738
0.0048012882
0.00831721
0.0075466665
0.0027688541
-0.0028896888
-0.0079636695
-0.008658369
-0.003354119
0.0032146797
0.0067489534
0.007421218
0.006938343
0.004534766
7.471052E-6
-0.0037152793
-0.0063183573
-0.007087357
-0.0032784562
0.0010915373
0.0020405576
0.0022900277
0.0033896803
0.0038807087
0.0011513574
-0.0043979934
-0.008115398
-0.007172633
-0.0018800101
0.00382946
0.0061729606
0.0064008296
0.0059352485
0.003901199
-5.851753E-4
-0.005097927
-0.007037076
-0.0067487
-0.0028235123
0.0013963595
0.0013352408
0.0017718197
0.0044295103
0.0055711856
0.00197993
-0.004689051
-0.0063183066
-0.005072771
-0.00470288
1.0052968E-4
0.005424683
0.006772481
0.006105882
0.0029361108
-7.1576063E-4
-0.0031597458
-0.005178367
-0.006944449
-0.0067988927
-0.00289727
6.3538115E-4
0.0018666986
0.0029641814
0.0037756516
0.0033980943
-0.0016711582
-0.007495058
-0.005937375
-7.413246E-4
0.0042181136
0.008198571
0.009727103
0.010283632
0.008706074
0.005409265
0.0013524246
-0.0044145472
-0.005924692
-0.0026299665
-0.0023651074
-0.0038625794
-0.0021231924
0.0010685141
0.0027453967
0.0016717275
-0.0035837106
-0.009041094
-0.008227529
-0.0029649925
0.0025098259
0.006865662
0.009213039
0.008841731
0.0051760282
5.6901417E-4
-0.004666332
-0.01023105
-0.010558004
-0.007079457
-0.004256637
-0.0011842969
0.0022083912
0.004329674
0.0033645846
4.1736354E-4
-0.0052468865
-0.011515217
-0.008935639
-0.0016212191
0.004018986
0.009834208
0.009173792
0.002522851
-0.0021162168
-0.0056857974
-0.008919203
-0.011625563
-0.012674129
-0.0063318904
0.00941897
0.025190009
0.029328234
0.023341293
0.015871989
0.009840161
-4.9860275E-4
-0.01491821
-0.020521943
-0.015750917
-0.005645047
0.0068432214
0.010010097
0.004529358
4.32667E-4
-9.396384E-4
0.0050192396
0.013917556
0.011954227
0.0011051232
-0.010842989
-0.022386244
-0.028866801
-0.022937406
-0.00573773
0.010380546
0.017013831
0.016553622
0.009686831
0.0015977676
-5.2889116E-4
-0.0061117527
-0.014128378
-0.011646812
-0.0025957634
0.006141371
0.0034741503
-0.005080033
-0.0011421972
-0.00582485
-0.016158486
-0.009454527
-0.010095567
-0.008768207
0.0071547795
0.009822546
0.013698011
0.01736809
0.0045345845
0.00704945
0.016350014
0.012709515
0.01404325
0.008448587
-0.0022170641
0.004521193
0.010451073
0.0013361977
-0.0052064946
0.007003853
0.014485546
-0.013541347
-0.037228715
-0.02563313
-0.013260162
-0.0048337793
0.0032632768
-0.008188126
-0.018817225
-0.004507207
0.012865781
0.008392241
-4.2723873E-4
0.003401147
-0.007855033
-0.027673258
-0.018538617
-7.6578505E-4
0.012849637
0.040142577
0.05109926
0.029401906
0.017828634
0.023209045
0.014373308
-0.0010562311
-0.006677554
-0.018878447
-0.043235824
-0.05399137
-0.0425063
-0.030428192
-0.017698852
0.004579213
0.022807686
0.04027236
0.052041896
0.031969763
-0.00655894
-0.033959355
-0.03565326
-0.01726106
-0.006014576
-3.8737775E-4
0.011185608
0.014760183
0.008091777
0.001703562
0.002970691
0.011406106
0.018795399
0.022319963
0.021947574
0.019298187
0.007473592
-0.017394593
-0.029221047
-0.022495441
-0.025442947
-0.03117893
-0.017555023
-0.0022137077
6.294272E-4
0.004637585
0.006943343
0.0026985512
2.1283883E-4
-0.0014535639
0.0052738455
0.013634074
0.0075236424
0.011040306
0.025646798
0.02441123
0.011829284
-0.00513687
-0.016701672
-0.016734168
-0.016559336
-0.009505346
0.006970392
0.019071978
0.016903521
0.004153021
0.0016492252
0.0039098873
-0.00465908
-0.0114453
-0.013316163
-0.01580269
-0.015106602
-0.008592592
-0.0019381839
-0.0021786853
-0.0027505981
-0.002398796
-0.003094237
-0.002820751
-0.004512697
0.0016877048
0.010646523
0.011265851
0.014772531
0.0115201045
0.00615441
0.011544461
-1.2087585E-4
-0.019744944
-0.018814638
-0.010481579
-0.0015342009
0.0075269416
0.011572628
0.012987373
0.010832135
0.005324317
-0.0021400366
-0.009402775
-0.011889414
-0.009181982
-0.0031182973
0.0013333384
0.002020509
0.0045023565
0.008217663
0.0065280246
3.9407593E-4
-0.0049945684
-0.0043783956
0.0032171106
0.006406425
0.0056516803
0.010673
0.010209875
0.0018407523
-0.0033866272
-0.007375555
-0.009834926
-0.009936496
-0.0059260144
0.0043945727
0.010777579
0.009576108
0.003307089
-0.004173202
-0.0057058097
-0.00773989
-0.014017311
-0.016227424
-0.011855015
-0.003746409
0.0043524886
0.01220809
0.016435629
0.011341563
0.0022788788
-0.0064241807
-0.012344479
-0.010364398
-0.0048534744
-0.0017516334
-0.0010486604
-2.456462E-4
0.0042648963
0.008314384
0.005321249
-0.0011658942
-0.0071153957
-0.008532186
-1.3686089E-5
0.008421701
0.010155543
0.013248323
0.015062724
0.013333475
0.007258262
-0.00479588
-0.0096893115
-0.00939997
-0.010370312
-0.0038859358
-4.9826373E-5
-0.003437877
-0.004478665
-0.004512931
-7.639754E-4
7.4773404E-4
-0.0065888795
-0.009904314
-0.0058658523
-4.279483E-4
0.0035161087
0.0059347395
0.007840643
0.0062835854
0.0056524468
0.0050007133
-0.0033381185
-0.01036253
-0.009759729
-0.006008262
-0.0021779737
-6.467982E-4
0.0013821037
0.0055822376
0.010191183
0.011805624
0.006164644
1.5855176E-4
0.0022246486
0.008896296
0.012877345
0.01350197
0.013551736
0.009862426
0.0037804486
-0.0010614538
-0.008355732
-0.014539456
-0.014836142
-0.011993393
-0.008121329
-0.0054407627
-0.0041574365
-0.004130299
-0.0050371424
-0.0062775863
-0.009618089
-0.010518396
-0.0061569232
-9.441247E-4
0.0034519637
0.0051668314
0.005620405
0.0076070186
0.007440037
0.004137724
6.0862774E-4
-0.0022871245
-0.0034556866
2.7348017E-4
0.007362884
0.0113890935
0.011063358
0.008367493
0.0061435425
0.0018127025
-0.010928205
-0.024006736
-0.029494194
-0.02802886
-0.019047061
-0.0084576635
0.0022295134
0.012400355
0.0148812495
0.013025965
0.0081978915
0.0016596139
0.0048415186
0.017038092
0.0291542
0.035241194
0.032051187
0.023612514
0.01442445
0.0044364445
-0.0070259883
-0.015177639
-0.0152707305
-0.012503456
-0.012551023
-0.015262127
-0.015861508
-0.010639096
-0.0057714037
-0.007204431
-0.013071142
-0.01840183
-0.01949128
-0.016280875
-0.010417355
-0.005452267
-7.006964E-4
0.0053005205
0.0050680498
-1.11630914E-4
-0.0017875303
-0.0020989927
3.2223767E-4
0.008837103
0.01609956
0.017348751
0.014806895
0.011921549
0.010550817
0.0063497685
-0.0021488261
-0.007620244
-0.007675452
-0.0070366217
-0.006348836
-0.0031530568
0.0013570387
0.0047939024
0.006703581
0.0056660804
0.0014405575
-0.0025479163
-0.002968276
0.0014213736
0.007710924
0.011573944
0.01264519
0.012642961
0.011019225
0.0042638807
-0.0048378143
-0.010215221
-0.012927147
-0.011866602
-0.007857384
-0.0053699543
-0.0023867588
-8.9601753E-4
-0.0014929642
-0.0023831874
-0.007080737
-0.009135096
-0.0068193567
-0.004526801
0.0026629253
0.0038757182
-0.0047853654
-0.0017128772
0.0074442322
0.0041285623
-0.001122193
-0.0044694263
-0.014627245
-0.015565406
-9.77139E-5
0.007814107
0.0067295963
0.009402437
0.009042572
0.006198385
0.0038741895
-0.0021567948
-0.005253284
-0.0012191595
0.004684553
0.00784474
0.007985941
0.00794852
0.006820782
0.0042106584
1.124909E-4
-0.005817539
-0.0076384447
-0.004228184
-5.3507386E-4
0.0024995808
0.004389432
0.005566995
0.0071229986
0.0052010207
-0.0022178767
-0.008026757
-0.008270977
-0.0065833717
-0.0024086852
0.0022609485
0.0024962525
8.3467003E-4
-0.0019774453
-0.006094513
-0.009757245
-0.013331784
-0.012033467
-0.005142286
3.6366322E-4
0.0034193501
0.0054447833
0.0073363055
0.008488028
0.005242201
-0.0016405705
-0.007469966
-0.0074714557
-0.0020150612
0.0034453326
0.00967075
0.016586505
0.01849069
0.016974239
0.01498275
0.011092687
0.0061078756
-8.573033E-4
-0.008079307
-0.010314371
-0.010083191
-0.0086796
-0.0044363034
-0.0025493961
-0.0051719896
-0.009885048
-0.013952177
-0.013542355
-0.009918413
-0.0042294296
0.0012117416
0.0022064943
0.004761399
0.008060726
0.003910078
-0.0021888206
-0.007473552
-0.011777711
-0.008371087
-8.809995E-4
0.0058639892
0.012201084
0.014534705
0.014232253
0.011132047
0.0024916064
-0.0038553216
-0.0053047277
-0.005398277
-0.0011101955
0.0042994074
0.0059145503
0.0066694077
0.008486411
0.009220782
0.0032216988
-0.006033432
-0.008488947
-0.007373788
-0.0058192876
-0.0026705945
-0.0015938964
-0.0021684526
-0.0036575987
-0.0040017064
-0.0030557388
-0.007078831
-0.011289838
-0.010012556
-0.0057785725
-4.151394E-4
0.0029513862
0.006201636
0.007839517
0.0046282327
0.0020737255
-0.0015273198
-0.00399724
-2.892959E-4
0.0026067412
0.005143323
0.0073651318
0.0070714564
0.009578715
0.011787313
0.00927242
0.0019812726
-0.005743535
-0.0063814465
-0.002706468
0.0030966492
0.009306261
0.0095170755
0.005281785
-5.227234E-4
-0.006732952
-0.012480646
-0.016409734
-0.014341212
-0.009180693
-0.0057875756
-0.0037809103
-0.001151087
0.0018706068
0.0024883407
0.0016794411
-0.0032775768
-0.008939751
-0.006225514
-0.006950972
-0.008678484
0.0050084163
0.014869032
0.010513257
0.00992439
0.009425224
0.0018253413
-0.0018297298
-0.0010653312
-0.0010034089
0.001754454
0.004809335
0.0050877635
0.00489794
0.0052365586
0.0052323267
0.0010149658
-0.0018131546
2.2876171E-4
-0.0015910632
-0.0016675675
0.0021313778
0.0028602455
0.0013786303
-0.007121938
-0.012661342
-0.0069310227
-0.005916667
-0.006149198
-2.6094652E-4
0.0039616753
0.0052244104
0.0029751128
0.001398535
0.0026620878
9.185026E-4
-0.0041496614
-0.008940147
-0.007427116
-0.0011987095
0.004121659
0.008299004
0.008074327
0.006429612
0.0054737492
3.3754695E-4
-0.005801142
-0.00888967
-0.0071681277
-0.003453868
-0.0019160652
4.2171552E-4
0.0019768937
0.0024965866
0.0034285241
9.261566E-4
-0.0028325447
-0.004928093
-0.0037618263
-4.247031E-4
0.0016634886
0.0062237843
0.009339248
0.006622688
0.0046769166
0.0021846995
-0.0033831557
-0.007817059
-0.007870298
-0.0034077524
0.0016796214
0.0051596565
0.005695425
0.0052278726
0.0061748163
0.0015554869
-0.006849949
-0.009847175
-0.008588765
-0.0040809135
9.946058E-4
0.0023738416
0.004292622
0.0070901313
0.0057866964
0.0017817288
-0.0017518057
-0.0051764897
-0.006354557
-0.003027554
9.951281E-5
0.0011060778
0.0025482425
0.0029624025
0.0017524837
-0.0014599053
-0.0059449608
-0.007269942
-0.0048678815
-1.8276653E-4
0.0029003993
0.0027678143
0.0052582147
0.007858596
0.00607986
0.0028426172
-0.0025967655
-0.008369956
-0.008476026
-0.0025277706
0.0027832366
0.0026246386
0.0028425339
0.0050770743
0.0047591208
0.003356937
6.997329E-5
-0.004693402
-0.0059257927
-0.003686724
4.928638E-4
0.0042937994
0.004923915
0.0044036936
0.0047153453
0.002738112
-0.003669729
-0.009411922
-0.010116537
-0.005921322
2.469134E-4
0.0017550734
6.2856666E-4
0.0019083214
0.001497934
-3.5959172E-5
-0.0025113674
-0.008317238
-0.009909
-0.0048922882
0.001967497
0.009125384
0.012541366
0.011041305
0.0071388115
0.0019570235
-0.0021093844
-0.005165111
-0.005276919
6.94363E-4
0.005885454
0.006474099
0.006080919
0.0038840182
0.0016676948
-2.2247936E-4
-0.006591256
-0.012138091
-0.011663409
-0.007999993
-0.0014226174
0.0042194678
0.0054087956
0.0048443875
0.0025599375
-7.2108005E-4
-0.0041854135
-0.008287493
-0.00930851
-0.0063070343
-0.0022286137
0.0013467974
0.0040800995
0.006896056
0.008343328
0.0055351364
-4.036715E-4
-0.004676256
-0.004240737
-7.8801403E-4
0.0035790824
0.0069973185
0.008594862
0.0095356675
0.007464038
0.002223281
-0.0021057283
-0.006245746
-0.008962196
-0.006150859
-0.0014583286
6.813725E-4
0.0019739182
0.0036823316
0.0045655905
0.0032517433
-9.5609616E-4
-0.007070654
-0.01085173
-0.0072955354
9.533178E-5
0.004450883
0.006906719
0.0066435314
0.0025222576
-2.9098222E-4
-0.0039544497
-0.00954373
-0.009148708
-0.0037989842
5.8869417E-5
0.0020145893
0.003053777
0.0036397919
0.0044372645
0.0034086145
-0.0023924152
-0.008215885
-0.008098322
-0.0041934988
9.987871E-4
0.004693435
0.005104968
0.006135874
0.0077829086
0.0060995095
0.0014407467
-0.0021090063
-0.0027898846
-0.0025922474
-0.0020252743
-0.0011598199
0.0015065061
0.005491504
0.0047338377
0.001650801
9.6238335E-5
-0.0024057077
-0.0022817932
7.121477E-4
0.002151374
0.002486316
0.0020912034
0.0018698749
0.0015592289
-3.573296E-4
-0.0033517352
-0.0069250893
-0.0093312515
-0.008363222
-0.0032745616
0.001501056
0.0024114517
0.0042699957
0.006153428
0.0033950424
-0.0019997095
-0.007752299
-0.009429609
-0.0046025524
0.0010395411
0.003951769
0.0072559994
0.010878423
0.0084655415
0.0016427021
-0.004042842
-0.008128154
-0.0072185392
-0.0037212207
-0.002058605
4.969785E-4
0.0019148357
0.0030316964
0.006140197
0.0051601124
-4.9318216E-4
-0.0061641936
-0.008550335
-0.005634633
-1.3574635E-4
0.0049183313
0.008725355
0.009368599
0.006047131
0.0019460793
-0.0013336963
-0.004335329
-0.003925001
2.659923E-4
0.003932522
0.004048927
4.717562E-4
-0.0019772085
-8.665376E-5
0.0026024778
3.9515324E-4
-0.006734717
-0.010575246
-0.008792555
-0.005155427
2.499001E-4
0.004541084
0.005375323
0.0052729226
0.004648424
0.001262494
-0.0040785694
-0.0057882657
-0.0030005216
2.665791E-4
0.0019053866
0.0016120169
0.0028903242
0.005109308
0.003131533
-0.0022312116
-0.0076653417
-0.008411979
-0.0035441017
0.002459248
0.007970884
0.008610275
0.003815499
5.329381E-4
-0.0010000695
-0.003064421
-0.0058237794
-0.007506338
-0.005224321
-0.0013813205
0.0018898431
0.0042974395
0.004996253
0.0053469446
0.004193724
-8.12845E-4
-0.0062899143
-0.0067386334
-0.0023495725
0.0032347513
0.0075569646
0.008468092
0.008224625
0.00849136
0.005232204
-2.0522695E-8
-0.004568038
-0.009841069
-0.0113555575
-0.0069683613
-0.0027325875
-3.757657E-5
0.0033826556
0.004869578
0.0031032988
-0.0010707097
-0.008126489
-0.011856649
-0.0079236
-0.0026223632
0.0019481474
0.006312113
0.0072174002
0.0060151187
0.00466561
0.0013821386
-0.0035447082
-0.0069582188
-0.0053577027
5.1553355E-4
0.0046217795
0.005770742
0.008294942
0.010266751
0.007877917
0.0021926241
-0.0048959693
-0.008850958
-0.007834448
-0.004363054
8.1545237E-4
0.003519411
0.0033259243
0.004119978
0.0030922864
-3.8395534E-4
-0.005781543
-0.011011481
-0.008923635
-0.0027033342
0.0012815191
0.002658806
0.002682639
0.0054482133
0.006745266
5.193567E-4
-0.0075451215
-0.010267136
-0.0065344027
-0.0010380878
0.005068504
0.0100349635
0.008195982
0.005390727
0.0038683717
3.841768E-4
-0.0017272884
-0.0051244423
-0.006335045
-0.002595716
-0.0013215317
0.0013054041
0.0035528142
0.0015868603
0.0025544257
0.0023006862
-0.0025917117
-0.006754599
-0.0053159893
0.001258605
0.0037147177
0.0045130705
0.0077392785
0.008256581
0.008294689
0.0041865027
-0.0044914973
-0.008342646
-0.009433713
-0.008838882
-0.0051373984
-0.0010347005
0.0028578874
0.0039280257
0.002233201
-9.924533E-4
-0.0055045336
-0.008479535
-0.008683469
-0.0041352785
0.0025561776
0.005710151
0.007009216
0.007830397
0.005709587
-8.853752E-5
-0.0046133352
-0.004783522
-0.0039271004
-0.0010088986
0.0034509068
0.006745426
0.009249001
0.008654833
0.006806671
0.0028379967
-0.0049719186
-0.008223877
-0.0069126147
-0.0038520454
0.0012470846
0.0031718656
0.004129737
0.00505872
0.002511232
-0.0010119112
-0.005922923
-0.009621336
-0.007680753
-0.003017742
8.4788224E-4
0.00204732
0.003256513
0.0052937046
0.004065635
5.5091263E-4
-0.004679547
-0.009716036
-0.009377145
-0.0048972378
0.0012276614
0.0060818586
0.007045912
0.00751765
0.0076935617
0.004398906
-7.721291E-4
-0.0048560286
-0.006237183
-0.00418162
-5.021671E-4
0.001588483
0.0022367362
0.0038428516
0.006057292
0.0045150276
-0.003480801
-0.010008397
-0.00804669
-0.0024374288
0.002691581
0.0064008683
0.007983919
0.007297654
0.0038583744
8.9065917E-4
-0.002723001
-0.00906441
-0.010428603
-0.005570812
-8.458413E-4
0.0020624346
0.004593544
0.007337264
0.005831937
5.945785E-4
-0.003159181
-0.006135186
-0.005891478
-0.0016165772
0.001983985
0.0056397347
0.008311524
0.0061443015
0.0014034286
-0.0028847097
-0.0079187
-0.012235153
-0.011384969
-0.0059974296
0.0014776931
0.0066027828
0.006299628
0.0065334807
0.0066346386
0.0011364124
-0.005790298
-0.0092820665
-0.0075261765
-0.0019311211
0.004739679
0.01017042
0.011482944
0.010830187