-0.004890869
-0.007728324
-0.0070018633
-0.0059256842
-0.0036881778
-6.72135E-4
-3.0348368E-4
-0.0019121752
-0.0029246444
-0.003946357
-0.0036935061
-0.0017643452
-0.0013995245
-0.0019004344
-5.693244E-4
0.001125474
8.41098E-4
1.8857345E-4
4.341213E-4
6.777558E-4
0.0015938224
0.0023666096
0.003039061
0.0033009553
4.0588176E-4
-0.0013875646
-4.4394968E-4
9.9704564E-5
0.0023732875
0.0022617588
-6.9984415E-4
5.004308E-4
3.9799273E-4
-0.0027924485
-0.002561645
-9.2996575E-4
3.217122E-4
0.0010546971
5.3833844E-4
0.0011677451
0.0016375394
6.916396E-4
0.0011585568
0.001772308
9.194454E-4
0.0014089284
0.0032919645
0.0038726355
0.0020883174
-0.0012732296
-0.0035575351
-0.0033922836
-0.0021940586
-0.0017157577
-0.001910456
-0.0012214544
-6.0511136E-4
-0.0011376454
-0.0012774025
-0.0012812916
-0.0016344365
-0.0014419688
-0.0011290207
-9.068022E-4
3.5685336E-4
9.1736217E-4
-0.0016471631
-0.0018013277
0.0025213826
0.0035565905
0.002119059
0.0021774147
0.0010137572
-2.1834635E-4
9.916442E-5
8.701469E-4
0.0010676854
-1.6265841E-4
1.435573E-4
0.0017997902
8.486585E-4
-7.155742E-4
-8.736831E-4
-6.555592E-4
9.882698E-4
0.0017979315
-2.9849526E-4
2.3583582E-4
0.0015796364
-8.3170267E-4
2.0217258E-4
0.0018802879
-0.0019154926
-0.0032577924
-0.0017985633
-1.7345735E-4
0.0017449032
1.4314892E-4
-8.2745816E-4
-2.5583928E-5
-8.6943334E-4
-0.0010461326
-0.0017252726
-0.0019674185
-8.5440645E-4
-9.2630193E-4
-7.4737816E-4
-0.001280277
-0.0011816432
0.0013625353
0.0018197923
3.8261994E-4
-6.6309626E-4
-2.0865678E-4
0.0019687365
0.002198361
5.764719E-4
-1.8766023E-5
9.5393765E-4
0.0020406381
0.002270389
0.0025821284
9.434476E-4
-0.0013745591
-8.6835196E-4
-6.3436595E-4
-4.708673E-4
6.5216824E-4
-2.6025885E-4
-8.517294E-4
4.2558374E-4
2.9481816E-4
-9.954926E-4
-7.633374E-4
-0.001068048
-0.0035186196
-0.002274915
0.0018319789
0.0015292293
1.4428954E-4
0.0010461251
9.940314E-4
1.4064187E-4
-0.0010342915
-0.0022202355
-0.0016816685
-7.151448E-4
-3.8822042E-4
-1.9131295E-4
-5.3865736E-4
3.4168066E-4
0.0019147457
3.4143325E-4
-0.0010628905
5.1332434E-4
8.2005135E-4
-7.384023E-4
-0.0017683392
2.8114847E-4
0.0033356294
0.0014210534
-9.1762264E-4
-4.7932088E-4
-0.0010271952
7.389301E-5
0.001814572
0.0021146976
0.002393371
6.390121E-4
7.216219E-5
4.5680275E-4
-9.0798095E-4
6.3731027E-4
7.341632E-4
-0.0017998011
-4.4255843E-4
-1.9832591E-4
-0.0019056856
-0.0020605265
-0.0032907478
-0.0036162965
-0.0016718744
9.1081776E-4
0.0025438147
0.0011406168
1.7096548E-4
9.5539493E-4
9.3309546E-4
0.0016047391
0.0015143058
-5.2351283E-4
-7.163943E-4
-2.6612674E-4
-8.9651556E-4
9.706328E-5
0.001002233
-2.5882776E-4
-1.6297142E-4
0.0015946069
0.0011759273
-2.8361892E-4
-3.4943896E-5
-8.252727E-4
-0.0031629736
-0.0029793307
-6.854478E-4
9.7411644E-4
6.231604E-4
-0.0011525791
-3.5611348E-4
0.0016560118
6.8521977E-4
1.5483152E-4
0.0015074137
0.0011313069
-1.0302706E-4
5.0390612E-5
6.03392E-4
7.871493E-4
0.0010644923
7.876442E-4
-1.353754E-4
-7.5051846E-4
-9.0534345E-4
-2.179583E-4
2.894169E-4
3.147393E-5
6.6802354E-4
9.0907083E-4
-1.00128345E-4
-0.0010557019
-0.002423877
-0.002703005
-5.9379335E-4
0.0013767014
0.0013879593
2.5024955E-4
-8.761501E-5
3.8703896E-5
-7.4102957E-4
-0.0010178544
1.3042436E-5
0.0011921212
0.0011779378
-1.5049739E-4
-5.509746E-4
-2.5742454E-4
-0.0010088321
-9.4050786E-4
-2.6609068E-4
-2.2044053E-4
0.001141516
0.0020232378
3.3296415E-4
-0.0015932544
-0.0022503145
-7.202386E-4
0.0012281839
0.0015721038
0.0021272171
0.0019211494
9.962883E-4
1.2341885E-4
-0.0019204793
-6.218486E-4
0.0018866039
1.1501349E-4
6.0024677E-4
0.001540337
-0.0014854152
-0.0011946431
-2.655541E-4
-0.0023375119
-0.002449071
-0.0021295883
-0.0014579426
1.13821516E-4
9.087466E-5
6.9735904E-4
9.221105E-4
2.2306372E-4
9.295784E-4
7.084041E-4
8.028378E-4
0.0013515026
-6.777197E-4
-0.0014946152
2.3051628E-4
0.0010788089
3.659254E-4
-2.2006285E-4
0.0015054031
0.0032008626
0.0013354584
-0.0018811018
-0.0023203264
-1.9582967E-5
9.89094E-4
-1.0735032E-5
-3.8590175E-4
3.191197E-4
4.353503E-4
-8.935138E-4
-0.0012348687
-0.0013987779
-0.0023983414
-7.8896666E-4
3.6047053E-4
2.9000874E-5
9.885433E-4
7.637323E-4
0.0019395615
0.0021214425
-0.0022708839
-0.0019886298
-2.6447882E-4
-0.00279671
-0.0015275122
6.6408445E-4
1.836818E-4
0.0015159409
0.0013374819
-7.890143E-4
-6.73274E-4
-4.8334102E-4
-0.0011347124
-4.9484265E-4
5.0836126E-4
0.0013903426
0.0029998368
0.0032627985
0.0021961865
0.0029212537
0.0031830901
5.3231616E-4
-0.0015209152
-0.0022066406
-0.0024874879
-2.3988572E-4
0.002033248
7.1333087E-4
-0.0011742717
-0.0016019003
-0.0013286219
-8.1487506E-4
-9.574538E-4
-9.298982E-4
-0.0010404426
-0.0015479759
-5.16052E-4
-6.253359E-4
-0.0021100836
-7.1713293E-4
-7.3708296E-5
-0.0021215219
-0.0019467012
-6.538636E-4
-4.5100326E-4
4.631209E-4
0.0014095902
0.0015979107
0.0019652834
0.0014522037
-1.7040991E-4
-9.11902E-5
0.0015369526
0.0022307874
0.00210049
0.0013751552
8.693373E-4
0.001393813
0.0013514733
5.8883196E-4
-7.0390815E-4
-0.0012221076
9.0226036E-4
0.0018538919
5.95089E-4
5.932799E-4
8.081956E-4
-7.21406E-5
-0.0016493517
-0.002499666
-0.0024012404
-0.0033719353
-0.0027753906
-5.0881336E-4
-7.349863E-5
6.092552E-4
9.5431675E-4
-3.6286656E-4
-6.724214E-4
-7.418729E-4
-0.0011901645
-0.0016853935
-0.0014322577
8.737431E-4
0.0014535483
-2.3954951E-4
-6.194112E-4
-4.9258803E-4
4.5282577E-6
7.495938E-4
0.0010413844
0.001469444
0.0010242285
0.001646247
0.0027392653
2.0067686E-4
-0.0012225856
5.938472E-4
-2.9865888E-4
-0.0025041623
-0.0015439668
2.2684003E-4
-7.8102436E-5
8.72016E-5
0.00144965
0.0016903302
0.0025183007
0.003498784
0.0030422166
0.0023817243
-1.9822833E-4
-0.0024381282
-0.0015615968
-6.809594E-4
9.4258203E-4
0.0020034185
-4.920836E-6
-4.869352E-4
2.041015E-4
-0.0016130145
-0.0029118222
-0.0016689168
-9.1253663E-4
-0.0016954597
-0.0023464228
-0.002346976
-5.189326E-4
9.793348E-4
-9.911981E-4
-0.0023374977
-0.002928161
-0.0037966394
-8.9791085E-4
0.0014081657
3.815085E-4
-7.617402E-5
-2.9275133E-4
9.1275666E-4
0.002693153
0.00273207
0.002879499
0.0020510962
0.0012869854
0.0019577302
0.0013050479
0.0010096349
0.0017015032
0.0020113
0.0028274353
0.001710791
-0.0013728334
-0.0023229828
-0.002042955
-0.0022291762
-4.990247E-4
0.0019255836
0.0017859661
6.2837184E-4
-6.048022E-4
-0.0014614376
-0.0010765737
-0.0017315669
-0.0023219672
-0.0011450797
-2.2261178E-4
4.7374496E-4
9.289519E-4
8.1231835E-4
9.875949E-5
-5.719861E-4
-3.1823386E-4
-8.908898E-4
-3.9317983E-4
9.39503E-4
-2.5113233E-4
1.5349984E-4
0.00131397
4.6895398E-4
6.235458E-4
-1.9641125E-4
-0.0017371199
-0.0025148762
-0.0032186736
-0.0018999039
-5.2798184E-4
-5.7030213E-4
-0.001584111
-0.0010657667
0.002772676
0.0024922884
-7.287881E-4
-4.7467556E-4
5.2983087E-4
0.0020377869
0.0018976562
4.7736938E-4
0.0018752365
0.0017245788
6.4535596E-4
0.0015153642
0.0017342808
8.812818E-4
2.5096082E-4
0.0024937328
0.0035170664
1.3155393E-4
-0.0011285942
-1.8851836E-4
7.356785E-4
3.514266E-4
-0.0033422424
-0.004628192
-0.0022902717
-9.141793E-4
-6.476443E-4
-8.277112E-4
-0.0012110318
-0.0017216544
-0.0014004516
-0.0010138479
-0.0014016717
-2.1113963E-4
-1.2739895E-4
-0.0020695024
-0.0010796853
0.0014768643
0.0016133807
8.106391E-5
-1.7507515E-5
0.0011318118
9.5587625E-4
3.3906224E-4
-2.667172E-4
-4.50558E-4
0.001681341
0.003513772
0.002270312
6.575599E-4
7.752647E-4
9.529968E-4
0.0015530328
0.0023875923
4.244139E-4
-0.0016239975
-0.0016851696
-0.001772571
-6.858631E-5
0.001224219
-5.4980634E-4
-0.0013269674
-7.280417E-4
-5.3166066E-5
9.453115E-4
0.0013949614
6.977301E-4
-0.0017230968
-0.0023013726
1.7625638E-4
5.4996282E-5
-0.0015483144
-0.0014204978
-0.0015959396
-0.0010231631
4.1368138E-4
3.1180846E-4
-1.3086032E-4
2.2468455E-4
-8.935349E-5
-0.0015945261
-0.0019014432
-6.7254197E-4
-9.692948E-5
7.3008134E-4
0.0011189557
1.3780464E-4
0.0010571481
0.0023551343
7.1871746E-4
-0.0010781714
-5.3334987E-4
7.985767E-4
2.1766105E-5
-0.0010154209
0.001506939
0.004172135
0.004748707
0.0047609713
0.0023301265
8.975173E-5
0.001069043
6.5656764E-5
-0.0034559327
-0.004560934
-0.0035725164
-0.0022117752
-2.7780843E-4
2.944529E-4
-0.0012581374
-1.915816E-4
0.0023332257
2.1246463E-4
-0.0015085185
-3.5104904E-4
-0.0019627002
-0.002214887
4.590537E-4
4.32807E-4
9.399812E-5
7.7234645E-4
-7.748921E-5
-3.9235633E-4
0.0012047025
0.00268255
0.0024891526
0.0011187615
-3.366139E-4
-0.0013696942
-0.0019920256
-0.0023725033
-0.0027097107
-0.003654097
-0.0038709436
-0.002429103
-0.0010422099
2.2987481E-4
8.0720213E-4
0.001040835
0.0020125203
7.725178E-4
-8.614687E-4
3.5070465E-4
0.0019525075
0.003999792
0.0045493506
0.0018578701
0.0016353489
0.004057262
0.0053646015
0.00598126
0.0046275645
0.00234592
0.0012948049
-0.0010704538
-0.0034127724
-0.0038172947
-0.004503712
-0.004755513
-0.0055369763
-0.0063904175
-0.00337864
-0.0010072537
-0.0016669761
-9.907662E-4
-2.645298E-4
-0.0012410571
-0.0028067592
-0.0028306798
-8.014257E-4
8.6897264E-5
-1.7939083E-4
3.797258E-4
0.0026743216
0.003869547
0.002538471
0.00421462
0.0050736153
0.0025932807
0.00255806
8.7924115E-4
-4.79475E-4
4.7716426E-4
-0.002081214
-0.002023942
1.1811897E-4
-1.9023854E-4
9.563049E-4
2.6785294E-4
-0.0011934638
-1.15752126E-4
3.0919103E-4
6.0604967E-4
-4.4211478E-4
-0.0024939463
-0.001990289
-0.0017547157
-0.0044697435
-0.00557097
-0.0019295827
9.7158126E-4
0.001099563
5.987386E-4
-6.483819E-4
4.674655E-5
2.3181387E-4
-0.0013743585
-0.0012127955
-0.0017290727
-2.8047495E-4
0.0021034162
1.9974801E-4
1.9059758E-4
9.475662E-4
-4.2898767E-4
-4.118055E-4
-3.075366E-4
0.0024075892
0.005136811
0.0036344596
0.00441528
0.0060238065
0.005188739
0.0044352594
0.0023652534
5.785963E-4
5.2653183E-4
3.541548E-4
0.0011954035
9.358007E-4
-0.002817626
-0.0041075163
-0.0017802671
-0.0028361042
-0.0049387584
-0.0035701026
-0.0017297143
-3.8896865E-4
-0.0010976486
-0.0025613105
-6.28526E-4
-9.815808E-6
-8.968803E-4
0.0017800027
0.005373217
0.0083947275
0.009557083
0.0064300946
0.0024021666
-7.3266134E-4
-0.0036877512
-0.0047043273
-0.0050205914
-0.0073229326
-0.0071259765
-0.0028213311
-0.0034982697
-0.0073672854
-0.0032845396
0.0038964392
0.0049750884
0.001016744
-0.0059151235
-0.013570341
-0.01858073
-0.019861376
-0.019257607
-0.019652763
-0.01868597
-0.010778941
0.0015270201
0.010212689
0.015209872
0.01970565
0.022316474
0.025573703
0.031778995
0.034101326
0.025811661
0.01296151
0.0117906425
0.02048758
0.022193993
0.019743796
0.017087352
0.00914124
0.0041039633
0.0039382405
0.003296497
0.0017449833
-0.008727397
-0.027226342
-0.042084277
-0.049470242
-0.049268004
-0.044711348
-0.037427694
-0.028631335
-0.02194592
-0.013389244
-0.0047603366
-0.0019055925
-2.2040337E-4
0.0020183804
0.0067907977
0.017637685
0.027868541
0.030655134
0.026769208
0.024271986
0.026372671
0.02375306
0.0173557
0.013408409
0.0066270316
-0.002887809
-0.015727267
-0.034953013
-0.0434561
-0.03222203
-0.020139799
-0.01689416
-0.016408622
-0.013934559
-0.0063537755
0.004222617
0.011204929
0.010076211
0.0061759236
0.011101593
0.02467345
0.039432652
0.05102363
0.056056492
0.054358833
0.047883507
0.03754428
0.021725323
0.006479359
-0.0012996926
-0.012605929
-0.024914652
-0.025959793
-0.025102641
-0.023197059
-0.021772096
-0.029586846
-0.033263102
-0.029313026
-0.026964642
-0.028359737
-0.03643384
-0.041053444
-0.036058143
-0.029547827
-0.024044823
-0.020458778
-0.014806355
-0.0059248735
0.0025330787
0.013344868
0.022503171
0.027250744
0.029719442
0.028960364
0.028191302
0.025559364
0.020557445
0.016148476
0.006803604
-0.005177996
-0.009938684
-0.003100695
0.010497361
0.022285748
0.032832768
0.04025523
0.041992303
0.043901704
0.043098398
0.0321538
0.012427377
-0.009970957
-0.032857347
-0.051561
-0.05051038
-0.036713082
-0.03468665
-0.03664581
-0.028613036
-0.019934189
-0.014910316
-0.009604398
-0.003011889
0.0058743223
0.014174112
0.016079571
0.01433446
0.01685673
0.01844278
0.013354039
0.013219633
0.018021567
0.013872928
0.0040842523
-0.004151542
-0.010168867
-0.014114558
-0.021483917
-0.031169193
-0.036466606
-0.036163136
-0.033157706
-0.03205558
-0.029322179
-0.02171168
-0.013601449
-0.0046777525
0.0047859177
0.013364957
0.02164106
0.027780756
0.033530246
0.042745534
0.053510323
0.060022727
0.062399715
0.06325941
0.061394237
0.056891616
0.045400903
0.026423324
0.0027229523
-0.02676235
-0.04768063
-0.05665867
-0.06221824
-0.05676202
-0.051158715
-0.052120324
-0.047629658
-0.046443135
-0.04623684
-0.037058815
-0.027536716
-0.021528596
-0.018176368
-0.0129296705
-0.0049462877
-5.6273787E-4
-0.0019166169
-0.008472313
-0.009200146
0.0011695208
0.012572933
0.017074678
0.01567058
0.023747012
0.033385813
0.027192714
0.034387305
0.06297239
0.073782384
0.05790519
0.039990224
0.03581719
0.040228702
0.050799705
0.07022954
0.08542337
0.09071618
0.089245476
0.0733655
0.044123586
0.008444556
-0.038270313
-0.093717285
-0.14032117
-0.16569057
-0.16464815
-0.13642447
-0.09533956
-0.0625565
-0.050540984
-0.052088395
-0.053976346
-0.05898412
-0.06732879
-0.0743284
-0.08148498
-0.08504332
-0.07470183
-0.046187058
-0.013424362
0.028323589
0.092437625
0.14849825
0.18273817
0.18841444
0.1470472
0.09924297
0.05899508
0.013820372
-0.0069767293
-0.02462688
-0.052120395
-0.052918863
-0.02630146
0.0129905
0.040986568
0.0688336
0.1137365
0.120205015
0.08815039
0.05481083
0.013666396
-0.005550642
1.9374199E-4
-0.025403723
-0.08815746
-0.12325862
-0.103101276
-0.09184534
-0.11012608
-0.12233383
-0.11233081
-0.04916138
0.0368282
0.07891392
0.079479404
0.032852095
-0.049617734
-0.10009683
-0.103987835
-0.09827361
-0.07404315
0.003191581
0.10429328
0.17596294
0.18639308
0.11870623
0.030089406
-0.016488004
-0.037853993
-0.041959092
-0.020533053
-0.012119845
-0.048868716
-0.08396099
-0.07526089
-0.06927628
-0.08712453
-0.084981054
-0.04373988
0.016546968
0.055240467
0.061496314
0.059186276
0.054557618
0.05443351
0.06561085
0.07731756
0.08317393
0.088539936
0.09700669
0.08951661
0.06397927
0.06360793
0.09076366
0.07262872
-0.01408823
-0.08216276
-0.09930762
-0.122417204
-0.1346621
-0.11765232
-0.1124924
-0.11207201
-0.10624942
-0.0908472
-0.05417185
-0.021049555
0.009661512
0.02973883
0.034193188
0.07587859
0.12365706
0.13544971
0.14871545
0.15000165
0.11884837
0.056738973
-0.012124925
-0.04087064
-0.07307873
-0.10899091
-0.07935862
-0.035317264
-0.020358177
-0.008203756
0.004059593
0.015765639
0.0047284323
-0.030698184
-0.06634417
-0.09940399
-0.098974824
-0.064949036
-0.050762836
-0.05849528
-0.055613417
-0.043430965
-0.041191198
-0.033299975
-0.0029259485
0.030156644
0.060339767
0.08314927
0.08791074
0.0844618
0.074735925
0.06681284
0.067167774
0.059899606
0.043248244
0.02253445
0.012037666
0.026898542
0.049220353
0.06652075
0.07814062
0.08432053
0.09526461
0.10147624
0.10708871
0.11362871
0.06239686
-0.036751334
-0.10131913
-0.13577342
-0.15873906
-0.1528461
-0.14497763
-0.14340188
-0.12768057
-0.11090076
-0.09954182
-0.08972216
-0.08362451
-0.06960507
-0.04173096
-0.010837481
0.016411547
0.03942742
0.05471582
0.065362364
0.07589523
0.07903654
0.077419646
0.07288022
0.0549824
0.038862664
0.039673474
0.042822268
0.044046283
0.046244986
0.039750226
0.02400893
0.0085531445
-0.003701434
-0.013088767
-0.019148698
-0.025167191
-0.031955276
-0.03494545
-0.03213461
-0.023083469
-0.009968781
0.0026678417
0.014611492
0.025015164
0.031300813
0.03413806
0.03282467
0.026474113
0.019028215
0.012876133
0.0062325737
4.0689812E-4
-0.0034371202
-0.0097385645
-0.02045923
-0.032856695
-0.042142984
-0.041159596
-0.031205045
-0.021574313
-0.012340686
-5.778749E-4
0.008090699
0.011481618
0.012911297
0.00926665
-0.004107133
-0.021711772
-0.034214593
-0.03825201
-0.034127798
-0.024480412
-0.01533977
-0.007319453
0.0026343593
0.0045370287
-0.010081168
-0.028765973
-0.043367594
-0.0549958
-0.054528
-0.039103087
-0.0167402
0.0066797924
0.024828464
0.037922103
0.04891382
0.058476243
0.06938813
0.073118925
0.06744335
0.06778169
0.07549357
0.08623959
0.09960684
0.110022806
0.10906907
0.074290924
0.009454231
-0.038891826
-0.059898887
-0.07151402
-0.07130582
-0.06371497
-0.058339942
-0.055550937
-0.058966924
-0.065912284
-0.0679054
-0.063657835
-0.059019353
-0.059545897
-0.0598381
-0.053401813
-0.043746617
-0.03503884
-0.027621225
-0.017161347
-0.0028503146
0.009317087
0.02271334
0.0385825
0.048046682
0.052770708
0.054675188
0.05143848
0.049199436
0.04589804
0.03530616
0.025702937
0.0232599
0.02121105
0.017298624
0.017045721
0.016782295
0.012826627
0.011543041
0.011327892
0.008778372
0.007863855
0.008145887
0.0077947397
0.005498597
4.168469E-4
-0.004205812
-0.007925627
-0.013427353
-0.020131137
-0.02436873
-0.025805745
-0.027439425
-0.028781788
-0.029318687
-0.028532626
-0.023953814
-0.018097933
-0.014111459
-0.010189088
-0.00564292
-0.002005756
0.0012031164
0.0040438757
0.005005832
0.0064646006
0.008242517
0.007044208
0.005818799
0.005884658
0.0067153852
0.009190911
0.010485731
0.01089049
0.010608472
0.008773197
0.0093701035
0.010661019
0.010521868
0.011116596
0.009977772
0.00794661
0.007487201
0.0073107723
0.0079293735
0.008458808
0.008363633
0.0080262525
0.0066499477
0.005654017
0.004032282
0.0016575699
0.0010241019
7.336319E-4
0.0012004689
0.0012522034
-0.0010861282
-0.0017106351
-0.001944021
-0.002526226
-4.375562E-4
-2.8070222E-4
-0.0013430826
-2.2132092E-6
-1.3652437E-5
-0.0013200742
-0.0014418503
-1.5548458E-5
4.9114716E-4
-0.0013347242
-6.023078E-4
0.0015191564
0.0015384791
0.0019523986
0.0023234328
0.0026834707
0.0027225695
0.0012618906
0.0011895197
0.0013506331
3.2787328E-4
4.745988E-4
0.0011248504
1.5644182E-4
-0.002478246
-0.0030466407
-0.0014806421
-0.0015380726
-0.0021226131
-0.0034939474
-0.0040643923
-0.0012476095
-9.304168E-5
-4.426864E-4
3.0401323E-4
2.1034207E-4
3.1696932E-4
-7.596725E-4
-0.0022793603
-0.0010529403
-8.4462744E-4
-9.938201E-4
7.0007594E-4
4.6828753E-4
-1.7103E-4
6.8973354E-4
-6.014119E-4
-0.0033747342
-0.0034830675
-0.0026003104
-0.002375756
3.481203E-4
0.0025343897
0.0012508812
0.0012740862
0.0019879662
6.214541E-4
-0.0018424536
-0.0036137924
-0.0016913897
4.414655E-4
-1.9764947E-4
5.273828E-4
0.0011859093
5.272787E-4
9.184623E-4
3.4521095E-4
-0.0015560241
-0.0028314802
-0.0024577822
-7.7973056E-4
-1.6345175E-5
-7.021175E-5
-3.6114964E-4
-6.1559037E-4
3.967688E-4
2.2805523E-4
-0.002725231
-0.0045712185
-0.0036177055
-0.0029076946
-0.003027093
-0.0018481497
-3.4409558E-4
6.948555E-4
0.0019487576
0.0014413442
-2.8424352E-4
5.769132E-6
0.0012150948
0.0010427022
4.076279E-4
8.9517364E-4
0.0018531055
0.0019034473
0.0013753163
3.2338875E-4
-6.870643E-4
1.9327851E-4
0.0012466611
0.0010545647
0.001655757
0.0022592186
0.0020221786
0.00153327
-1.1178909E-4
-0.0012985636
-0.0021750254
-0.0046106745
-0.0056679514
-0.005124847
-0.004885235
-0.004127453
-0.0034185254
-0.0025723327
-0.0013654405
-6.1019795E-4
-4.2656984E-4
-5.7431794E-4
7.464157E-4
0.0014743451
-3.4075213E-4
-5.246188E-4
-1.4756882E-4
-0.0017645486
-0.002032331
-6.099778E-4
4.916279E-4
0.0011735834
0.0017901654
0.0023279605
0.002393344
0.0018593093
6.054923E-4
2.7675714E-4
0.0018735534
0.0023826926
6.844924E-4
-5.8183743E-4
-2.0860677E-4
1.2813897E-4
1.3688125E-5
6.52984E-4
3.4614964E-4
-4.0718992E-4
7.9028535E-4
8.6299214E-4
-0.0010742629
-0.0019918534
-0.0015344892
-6.5633294E-4
-8.8384544E-4
-0.0013103614
-4.9431017E-4
-9.4527216E-4
-0.0024777537
-0.0024610632
-0.0017079661
-0.0018323867
-0.0021954027
-0.002039497
-0.0023093764
-0.0016746782
-2.311279E-4
-0.0014739513
-0.0021380885
-5.889729E-5
7.151217E-4
7.480224E-4
4.0325386E-4
-3.190966E-4
1.7571152E-4
5.846181E-5
3.6946454E-4
0.0016624745
0.0021325124
0.0028708857
0.0021038558
3.6987072E-4
2.5949164E-4
-7.797432E-4
-0.0016405324
4.3045369E-4
0.002694096
0.0020974542
0.0010803606
0.0015365536
-7.6181936E-4
-0.0028877624
-0.0014094999
-0.0018072195
-0.0016643121
-5.3751486E-4
-0.0018705708
-2.157134E-4
0.0016998774
5.472404E-4
7.727651E-4
-4.360207E-4
-0.0024798654
-0.0022813482
-0.0028910434
-0.003117342
-0.0019332711
-9.1138686E-4
1.089362E-4
3.3364262E-4
8.849261E-4
0.0020960937
8.749319E-4
-9.4884896E-4
4.3661066E-4
0.0014833221
2.9154624E-5
6.192107E-4
0.0028593342
0.0036029087
0.0031495427
0.0016862539
0.0014844678
0.0019045249
-1.3555365E-4
-5.4361497E-4
0.0014787896
0.0017536465
0.0012810178
7.152798E-4
-6.498788E-4
-0.0021611971
-0.0031300427
-0.002547898
-7.991536E-4
6.6409877E-4
8.396771E-4
5.125122E-4
6.108609E-5
-2.2978816E-4
0.0014259028
6.725727E-4
-0.002877674
-0.0023882114
-0.0021996535
-0.0033165547
-6.741131E-4
1.6175207E-5
-0.0019881674
-0.0028844222
-0.0038555001
-0.0057508526
-0.008987742
-0.007824137
-0.0019950308
-7.706178E-4
-0.0019689268
-9.422668E-4
3.2952658E-4
0.0020828976
0.0037034154
0.0039826836
0.0031598713
0.0023157347
0.0030535283
0.0047548367
0.0057577756
0.0053993254
0.0047868225
0.0053134426
0.0070692953
0.0087829195
0.008783093
0.009385096
0.011022432
0.0074342685
-6.2941754E-4
-0.00542505
-0.00762434
-0.0105550075
-0.010419573
-0.008088424
-0.008461189
-0.008579502
-0.0072427467
-0.006482212
-0.0052922354
-0.004251066
-0.0028200564
-0.0024462983
-0.0039059098
-0.0028819765
-0.0025838898
-0.0036477316
-0.00247582
-0.0035582718
-0.0030015253
0.0014191516
0.001666888
0.002682031
0.0063146744
0.005103868
0.0029740522
0.0025642796
0.001958906
0.0026434157
0.0028569475
0.0022562682
0.0024145679
0.0023903744
0.0034571814
0.0049038334
0.003240726
7.358E-4
7.188994E-4
0.0014778584
0.00224041
0.0033307283
0.003234966
0.0029202946
0.0028348023
0.0015312146
6.3236925E-4
-1.15063405E-4
-0.0015893256
-0.0023127974
-0.0028552038
-0.0025921501
-0.0030431615
-0.005555987
-0.0056397384
-0.0048737708
-0.005773599
-0.0068342537
-0.0076653645
-0.004579225
-0.0014035294
-0.0024003137
-0.0013083227
2.1238063E-4
2.5626892E-5
8.0964697E-4
8.830165E-4
0.0012246489
8.428858E-4
-1.8434714E-4
9.361931E-4
0.0019445623
0.004059426
0.0058483104
0.0046594734
0.004508943
0.0027889996
-0.0016081154
-0.0030040282
-0.0013933026
3.9646946E-4
0.0017672186
0.0032001445
0.0027537728
0.0018909877
0.0031333487
8.947582E-4
-0.002876602
-0.0029235615
-0.00263814
-0.0016939963
-3.9172734E-4
3.2528696E-5
7.8491244E-4
8.580325E-4
0.0019246618
8.88256E-4
-0.0037546859
-0.0035169416
6.918678E-5
6.467086E-4
5.4137345E-4
0.0018500718
0.0017406987
-0.001201181
-0.0016067569
2.7540173E-5
-0.0014875904
-0.0023314108
-0.0015127666
-0.0016295123
-6.619657E-4
9.6483115E-4
0.0015306426
0.0014417309
0.0010102615
-1.4797585E-4
-0.0017155565
-0.0030605134
-0.0028062707
0.0010048583
0.0036244672
0.0024286131
0.0025911753
0.0028851863
0.0018912619
0.0012896106
1.781943E-5
-1.8729878E-4
-2.0431865E-4
-8.5959013E-4
-6.985863E-5
1.3512693E-4
2.1194994E-4
9.7589026E-4
9.422133E-4
-2.8794972E-4
-0.0037381577
-0.0051123784
-0.002536536
-0.0017461202
-0.0019767936
-6.6027005E-4
3.145184E-4
0.0013638511
0.0029634247
0.0027748325
1.5931079E-4
-0.0012535306
-3.7210135E-5
3.6842018E-4
-1.8952553E-4
5.247974E-4
0.0014751934
0.002382581
0.0029825077
4.796148E-4
-0.0029106252
-0.002848271
-0.0016163714
-0.0016942335
-0.0019198143
-8.406822E-4
0.001546818
0.0032382035
0.0031562338
3.354986E-4
-0.004036539
-0.0054308046
-0.004194538
-0.002131198
4.9381587E-4
0.0014089412
0.001746808
0.0035126111
0.0048411298
0.002842185
-0.0013471663
-0.001984012
-0.001018353
-0.0022976159
-0.0013587889
4.3548318E-4
5.424686E-4
0.0019122297
0.0022324894
1.6743643E-4
-0.0019192436
-0.0033075835
-0.0037282894
-0.00357791
-0.0023991414
-0.0017125759
-0.0016054566
0.0016222303
0.004004957
0.0021139001
-4.3015697E-4
-0.0026333465
-0.002722604
-0.0010930938
-0.0010074305
-7.506701E-4
0.0012889865
0.004481151
0.005472469
0.002924064
8.659365E-4
-0.0011731779
-0.0019725654
9.257801E-5
4.7262023E-5
-1.329396E-5
0.0021110459
0.0027089207
0.002606709
0.0016747137
-0.0010568855
-0.003582395
-0.003832836
-0.0021687718
-0.0012950711
-6.999928E-4
-1.745424E-4
6.635146E-4
0.002578513
0.0013864373
-8.7779434E-4
-9.566941E-4
-0.0015190921
-0.0020197856
-0.0033875848
-0.004170007
-0.0017492371
0.0013281578
0.0043224297
0.0026823026
-0.0029778117
-0.0048329863
-0.005141868
-0.0040745637
-8.415279E-4
-1.6090172E-4
4.5998182E-4
0.0021135113
0.0024574182
0.0016351574
-2.8038386E-4
-0.0012036721
-9.3852537E-4
6.279651E-4
0.0027540063
0.0025779074
0.0044791847
0.008753221
0.009446244
0.008019276
0.0048196996
-3.274131E-4
-0.001821703
8.6411246E-4
0.002356611
0.0012404254
8.6755294E-4
0.0013902669
2.151317E-4
-0.0018951761
-0.0043235268
-0.0064635463
-0.0060685826
-0.0050649927
-0.0049832
-0.0026834027
7.7099586E-4
0.002935573
0.0055802357
0.0062586586
0.0027431897
-8.262477E-5
1.2042999E-4
9.689567E-4
1.9744052E-4
-0.0012267143
-0.0015229515
-0.0035935433
-0.008511942
-0.013641223
-0.015615618
-0.011507908
-0.0071533076
-0.008710091
-0.011045506
-0.007844169
-0.0020333047
-8.9862995E-4
-0.002755764
-0.0042062113
-0.005151839
-0.0013466582
0.0034533434
0.007112022
0.01587039
0.024115909
0.027809735
0.029587902
0.029274214
0.027347198
0.019520264
0.009986987
0.006293779
0.0044427663
0.008238122
0.014905311
0.010009562
-6.1829627E-4
-0.006877119
-0.016117958
-0.03252026
-0.042508103
-0.037048873
-0.027588243
-0.021809524
-0.017201308
-0.014050707
-0.01062783
-0.006489489
-0.0051826998
-0.006365672
-0.006293656
-0.0035858697
-9.451624E-4
0.0016944127
0.0064236564
0.011547279
0.015854973
0.018008934
0.016763547
0.013870717
0.010466639
0.0085926885
0.008410612
0.0068979743
0.005941552
0.006002295
0.0044265734
0.0033664817
0.0023185574
-7.029966E-4
-0.002796901
-0.0025069555
-2.0834642E-4
0.0015545937
1.9577339E-4
-4.1010854E-4
0.0021450003
0.004157663
0.0022574412
-0.002116557
-0.005218767
-0.008320398
-0.010373544
-0.0075664185
-0.0054924404
-0.0060217623
-0.003842368
-0.0021171898
-0.0036784713
-0.004959952
-0.005132082
-0.0042854254
-0.0019994553
-4.0984037E-4
1.3835386E-4
9.796416E-4
0.0014741607
0.003904685
0.007258354
0.0056548244
0.0031200114
0.002740436
9.441335E-4
3.9849465E-4
0.0012028613
0.0026576766
0.0068423105
0.008763044
0.006960113
0.004350008
5.595942E-4
-0.0030071188
-0.006727489