0.0038320725
0.0031969394
8.065515E-4
-0.0033794306
-0.0022480853
-2.0608309E-4
6.3513394E-4
0.0030403826
0.0023628436
0.0028970223
0.0028034088
5.197328E-4
8.663398E-4
-6.701631E-5
6.41247E-4
-0.006420163
-0.019138068
-0.010448718
0.0025609909
0.0028186156
0.0037998885
0.001680822
-6.0417585E-4
-4.793067E-4
-0.0026691905
-0.0010305268
8.069174E-4
0.001369346
0.0021355897
8.9110446E-4
0.0018909645
0.0018049122
1.2981393E-5
1.4039772E-4
-7.6780556E-4
-7.666394E-4
5.1075152E-5
-2.0777847E-4
5.6866807E-4
0.0021190934
0.002734055
9.042819E-4
-0.0010643716
-0.0016423415
-0.0017817572
-6.788175E-4
4.2444302E-5
0.0010355908
0.0024203775
0.00161502
0.0018643549
0.0031749466
0.0015006849
-0.0010902617
-0.0011456123
-2.568517E-4
-0.0012001428
-0.0015220974
2.2956946E-4
8.677082E-4
2.0998184E-4
-1.0607506E-4
-5.613566E-4
-0.0013668723
-0.0016605781
-0.0010367503
-5.159377E-5
-0.001131421
-0.0026684355
6.958067E-4
0.0031933293
7.018338E-4
-4.8240193E-4
-0.002574741
-0.0041269423
-6.622567E-4
7.2550465E-4
2.7752857E-4
0.0013548462
0.001955426
0.002386132
0.0011502486
-7.4316305E-4
-0.0016720435
-0.002854151
-0.002990952
-0.0017710979
2.422535E-4
0.001095228
0.0012131667
0.0034734798
0.0040787407
0.002071235
-3.580895E-4
-0.00226374
-4.8101624E-4
7.969444E-4
-6.379463E-5
0.0016206946
0.0026177038
0.0026020587
0.0032332516
0.0013609868
-0.0017173339
-0.0038104772
-0.0047883326
-0.0048260684
-0.0031030911
5.20815E-4
0.0011924196
1.4327817E-4
0.0015440043
0.0010645603
-0.0011037957
-0.0019911178
-0.0026616435
-0.0011371471
5.913766E-4
4.1334357E-4
0.0020664434
0.003511049
0.0030633246
0.0024790114
0.0011575962
0.0013547504
0.0019506902
0.0010097958
0.0016661463
0.0019657004
0.0012655996
4.8182128E-4
-0.0025235882
-0.0037397926
-0.003402421
-0.004692593
-0.0036564707
-0.0025493256
-0.0023108837
3.622692E-4
0.0010754318
6.758123E-4
8.345359E-4
-0.0020226277
-0.003756571
-0.004140568
-0.0050531034
-0.0011831248
0.002762622
0.00265141
0.0043224175
0.0051607005
0.0037008377
0.003704156
0.0022856083
1.8895628E-4
6.2248256E-4
0.0016206428
0.0015105398
4.1403458E-4
3.7448193E-4
3.4046956E-4
-0.0017548389
-0.002724059
-0.0029362235
-0.0035442691
-0.0024058837
-0.0014048378
-7.032646E-4
0.0014138964
0.0023623046
0.0015984435
0.0011822591
1.4844426E-4
-0.0013915297
-8.548395E-4
-7.794994E-4
-0.0021521917
-5.024657E-4
0.0013242707
0.0013655709
0.0028383152
0.0023692786
-1.4974938E-4
-5.90974E-4
-9.027504E-5
4.482821E-4
0.0014767299
0.0029625755
0.002703288
1.0480866E-4
-8.86597E-4
-0.001200198
-0.0023477732
-0.0030866486
-0.00401187
-0.0032041739
-0.0027029072
-0.004146447
-0.0015541387
0.001708729
0.001218244
0.002018781
0.0016309653
-0.0011313127
-5.1678E-4
6.45395E-5
-0.0011391445
4.317243E-4
0.0021759602
0.0023405529
0.0028271202
0.002553915
0.00217586
0.0015511361
-1.9351527E-4
-7.711922E-4
-1.3040098E-4
6.4339716E-4
7.780578E-4
9.4339426E-5
1.6915525E-4
2.94374E-4
8.2495366E-4
8.977841E-4
-0.0019683593
-0.0028299005
-9.5640594E-4
-9.137505E-4
6.1128076E-6
0.0017247559
0.0012186565
5.570159E-4
5.8488306E-5
-0.001537134
-0.0019854805
-5.579758E-4
-9.015396E-4
-0.0018424332
-7.1107165E-4
-0.0011981826
-0.0014793559
4.6166888E-4
-9.984069E-4
-0.0035754838
-0.0033466313
-0.003219808
-0.002117537
0.0010280504
0.0031028802
0.0035633626
0.0034878796
0.0029120955
0.0020645722
9.452085E-5
-0.0024347834
-0.002122524
-5.9987325E-4
6.408801E-4
0.0035763711
0.004850946
0.0040225848
0.0044014975
0.0035153828
4.9383583E-4
-0.0015969898
-0.0022995367
-0.0029063632
-0.0023686558
-7.6411944E-4
-6.575166E-4
-1.9767541E-4
-3.613269E-5
-0.0032781498
-0.0041322173
-0.0015045264
-9.194372E-4
-4.4292904E-4
2.9227538E-5
-0.0013470679
-0.0011032476
-7.058218E-5
-8.739014E-5
5.963964E-4
-1.5944809E-4
-0.0015673623
-5.7471765E-4
1.0523923E-5
8.1596954E-4
0.0030715435
0.003541526
0.002874139
0.0023451406
0.0012049361
-3.626471E-4
-8.972946E-4
-4.1255425E-4
-0.0012389364
-0.0014793972
-7.406294E-4
-4.529204E-4
0.0015621727
0.0028703916
0.0024051203
0.0010605915
-6.555971E-4
0.0011110284
0.002987523
0.0033030137
0.0023216452
2.3006386E-4
0.0036813284
-0.0017922788
-0.017014077
-0.011748505
4.365923E-4
-0.0014843892
-0.0016485166
-9.83174E-4
-0.003496885
-0.0028587603
-0.0018642019
0.0018478341
0.0050849374
0.0023528636
0.0020891007
0.0034342024
1.7743763E-4
-0.001608027
5.9243274E-4
0.0024317133
0.003395963
0.003998629
0.0045291944
0.0054292358
0.0044156956
0.0027908592
0.004837545
0.0056187054
8.734175E-4
-0.0024266609
-0.004319595
-0.009109516
-0.0105582625
-0.008639929
-0.007953773
-0.0050534457
-0.0019636257
-0.0019908904
-0.0014743306
4.7696492E-4
0.0028923936
0.0044792374
0.00322453
7.560663E-4
-1.2327259E-4
3.6492155E-4
0.0016358406
0.0042321905
0.0054539903
0.004350244
0.004300947
0.0044053867
0.003408217
8.2413806E-4
-0.0037696871
-0.0060477536
-0.0050494927
-0.002705626
-2.3067225E-4
6.4834545E-5
-7.796098E-4
-1.676847E-4
0.0017262432
0.0013526572
-6.0123636E-4
-0.0018571456
-0.0047473237
-0.003922337
1.4236059E-4
6.179318E-4
0.0013755524
-1.4681723E-4
-0.0021907894
9.6888584E-4
8.444081E-4
-8.926565E-6
0.0033545347
0.0047117383
0.0042282157
0.0036872812
0.0028917522
5.484532E-4
-0.002065743
-0.002534906
-0.0034032296
-0.003276846
-0.0029481486
-0.0039452617
-0.0018129977
0.0023213255
0.004286814
0.003250525
0.0024408922
3.1896244E-4
-0.0037909455
-0.0031208168
-0.0031291146
-0.0031830592
5.0923385E-4
1.339124E-4
0.0013482978
0.0013569626
6.6563074E-4
0.0026866195
-0.010698242
-0.014241046
0.004420395
0.008010404
0.0060000964
0.0017086221
-0.009581616
-1.5750539E-4
0.011977264
0.009617391
0.008695571
0.00502235
-9.428079E-4
-0.0038548547
-0.0030318885
3.9674135E-4
-3.9061526E-4
-7.6317234E-4
0.0012441322
0.0012939672
-2.7147162E-4
-0.002530404
-0.0024228687
-0.0038005183
-0.0059383153
-0.0042085904
-0.004585836
-0.004483904
-0.002666344
-0.0038430127
-0.0034808116
-0.0030120509
-0.0032631685
4.802013E-4
0.004343352
0.0053290934
0.004973616
0.004681661
0.004869825
0.0037684415
0.002509459
0.0019205153
6.315217E-4
0.0017888723
0.0046073017
0.003277595
0.0016716152
0.0022609283
-1.0782787E-4
-0.0012500125
1.7271344E-4
-0.0023435757
-0.0034735235
4.7951782E-4
0.0024549537
0.0024154247
0.0031845416
8.390805E-4
-0.0038739273
-0.0038307316
-0.0016816913
-0.003439569
-0.0035606162
-0.0011581837
-0.0026163647
-0.0035787602
-0.0011455879
-0.0015607674
-0.0039643142
-0.0059525534
-0.0075146635
-0.004119859
-4.27722E-5
-9.14344E-4
-1.16039024E-4
0.001945422
0.0013087621
0.0021761963
0.0033980925
0.0032858541
0.0035513875
7.507326E-4
-0.0023053016
0.0015755564
0.007865808
0.010385194
0.010102164
0.008659036
0.008762571
0.008572589
0.0026760008
-0.003763157
-0.0061875167
-0.007323732
-0.005762308
-0.003145785
-7.958431E-4
0.002643955
0.0017109019
-0.0012175353
-0.0030091007
-0.008570451
-0.010599665
-0.0071100253
-0.0069028833
-0.0058843596
-0.001992054
4.326017E-4
0.0010404863
-0.0011835094
-0.0030320995
-0.00348755
-0.0050302455
-0.002328852
0.0039373823
0.0069536064
0.0080480315
0.007830399
0.0058910404
0.0039686845
3.841528E-4
-0.0019280089
4.955132E-5
0.002087969
0.0034803192
0.003363885
0.001944453
0.0043513738
0.0074071665
0.0062800427
0.002570245
-2.213363E-4
6.0462434E-4
0.0014159669
0.0013314413
0.0020923556
2.718303E-4
-0.0028912446
-0.0056341137
-0.008434048
-0.010344047
-0.011360889
-0.009133949
-0.0059513985
-0.0038550834
-3.9992793E-4
8.2192407E-4
7.780885E-4
5.9487444E-4
-0.0025408834
-0.003624145
-0.0027084171
-0.0015419325
0.0015932636
0.0036102305
0.004945485
0.004588856
0.002471722
0.0042619864
0.006316999
0.0048201936
0.0028999324
0.0016026135
0.0031533367
0.0070512164
0.0075596864
0.0054192496
0.004882664
0.002324363
-0.0028034442
-0.004599994
-0.0054474315
-0.008238496
-0.009619365
-0.0072784936
-0.0018459639
0.0020948465
0.0028724074
4.2612394E-4
-0.004262487
-0.0040796134
-0.0014816287
-0.0022705551
-0.0026326496
-0.0023440465
-0.0011326397
0.0024010646
0.0052263904
0.006915956
0.0072219246
0.00451797
-6.495116E-4
-0.003287702
-7.0554734E-4
5.885428E-4
-2.7645845E-4
4.2892763E-4
7.9856726E-4
0.0023050138
0.00552674
0.006156296
0.0027713391
-0.0030106946
-0.007950935
-0.009630145
-0.008334436
-0.006424621
-0.0048017893
-0.0033019348
-0.0034369943
-0.0025363625
-0.0010452134
-0.003544391
-0.003826474
0.0017062104
0.006382689
0.0070645767
0.0060634934
0.008172627
0.011548313
0.010500032
0.006987346
0.0043201544
0.0034457762
0.0015091384
-0.0033226234
-0.004709605
-0.002437014
-0.001426153
7.354937E-5
0.00195969
0.0023329956
0.0017324145
-6.128809E-4
-0.004196866
-0.0066099754
-0.0064969943
-0.0034579018
3.7939532E-4
4.2413594E-5
-0.0051293513
-0.008815821
-0.008740843
-0.008467628
-0.0062963935
-8.2039833E-4
0.0023432723
0.0031996188
0.005293059
0.0066631287
0.0066353898
0.003587992
-0.0025889527
-0.005053411
-0.0027928967
8.046739E-5
0.0015383991
0.0016900331
0.0025129863
0.0017777281
9.158895E-5
0.0018892847
0.0053431555
0.007074929
0.005131764
0.0030061726
0.0037462742
0.0026217098
3.0144057E-4
-7.985868E-4
-9.2368113E-4
-7.5316214E-4
-0.001659374
7.210586E-5
-0.0012437837
-0.0071920436
-0.0029665027
0.004371699
0.0029257694
-0.0011152119
-0.006894449
-0.010513821
-0.007457909
-0.0029764213
-9.6689456E-4
-0.0017882824
-4.2125332E-4
0.0022416748
7.073923E-4
-6.730096E-5
0.0012884921
0.0013293142
8.610509E-4
-7.782899E-6
2.3902614E-4
0.0021443637
0.0031573267
0.0027931207
0.0033304752
0.004997204
0.004264214
0.0023977633
9.416866E-4
-0.003468362
-0.005706397
-0.0016537665
-8.7756845E-5
-0.0019368868
3.9700692E-4
0.0032997066
0.0013798977
-7.3104183E-4
4.715902E-4
0.0027507788
0.003385361
0.002194517
0.001041623
-2.0442228E-4
-0.001498679
-0.0014408963
-0.001954274
-0.0039074086
-0.004350015
-0.002949952
-0.0017296978
-7.594012E-4
6.304468E-4
0.0012783254
-2.336463E-4
-0.0012524133
-2.3029317E-4
-0.0018588966
-0.0044896514
-0.0021360859
0.0010484847
0.0016619932
0.0010269611
-5.3265487E-4
6.0531026E-4
0.0027227835
0.0013153576
-9.1961026E-4
-0.002206087
-0.001261614
0.0015176141
0.0030701042
0.00492309
0.0062525133
0.004379934
-5.6230445E-5
-0.0053744796
-0.0071137557
-0.0052338503
-0.0022897827
0.0015380769
0.0021236532
0.0010275344
0.0025412769
0.0028254834
0.0022549902
0.0028447632
0.0020228426
5.1778124E-4
0.0011621764
0.0044709267
0.005337514
0.0018348888
2.3920044E-5
-9.519702E-4
-0.0023979726
-0.0019049757
-0.0042135403
-0.0069857026
-0.0035035652
8.2003657E-4
8.2617113E-4
-0.0028525707
-0.0067682955
-0.005731942
-0.0026498889
-0.0028660025
-0.0033446238
-0.001941082
-2.1304924E-4
0.003278517
0.0054751663
0.0030677768
0.0031308264
0.004431082
7.272058E-4
-0.001054588
-4.8049877E-4
-0.0017453601
-8.663502E-4
4.6093453E-4
0.0016610891
0.004943569
0.0057106586
0.005067181
0.0067548747
0.0061127725
8.480686E-4
-0.00315146
-0.0031361538
-0.0028551249
-0.0025068368
-0.001685594
-0.0018748366
-1.8101638E-4
0.001953768
3.1875534E-4
-0.0024207598
-0.0038476947
-0.0033457961
-0.0020282592
-0.0037779561
-0.006150978
-0.00486481
-0.0030861907
-0.0022148413
-5.45759E-4
-0.0014493057
-0.0048680464
-0.0058391397
-0.005051145
-0.002416032
0.0025414983
0.0055634147
0.008803349
0.011920336
0.0079948595
0.004792384
0.007856292
0.007370787
0.006505374
0.010120549
0.0100904135
0.008054621
0.006478675
0.002519657
-9.166025E-4
-0.0068205185
-0.013848157
-0.0130309425
-0.009631356
-0.009788747
-0.010089472
-0.008036221
-0.0036693022
-3.9966716E-4
7.3588226E-4
2.395983E-4
-0.0026088823
-0.003973096
-0.0021247738
5.8928563E-5
-5.2732637E-4
-0.0025981162
-3.458102E-4
0.0022170173
-1.1068105E-4
-0.0014227452
4.1199947E-4
0.0028134831
0.004348923
0.0033727216
5.702372E-4
-0.0010876596
1.4107118E-4
5.0658564E-4
-0.0022425072
-0.0048656375
-0.0061167516
-0.005500764
-0.0030797631
0.0010819667
0.0052912226
0.006027535
0.006851687
0.008102874
0.0077480124
0.0096985195
0.010114593
0.0077103633
0.0045479704
-0.0043501155
-0.012523782
-0.011780443
-0.005884703
-5.868188E-4
-4.6595692E-4
-0.0026258791
-0.004529287
-0.005506124
6.662077E-4
0.009223736
0.009772097
0.0040068137
-0.0020042057
-0.0057231453
-0.008203564
-0.011058168
-0.01305904
-0.012018506
-0.01058684
-0.010712855
-0.008606205
-0.005132816
-0.0021998931
2.7796408E-4
0.0023028415
0.0065603936
0.00824347
0.007876723
0.013286844
0.017841078
0.018673846
0.01978784
0.020861687
0.02307532
0.021534279
0.016294448
0.012781215
0.007986897
0.001269326
-0.0040915874
-0.004331302
-0.0071608345
-0.022129655
-0.034783714
-0.037283555
-0.034204926
-0.023450455
-0.013381986
-0.010549442
-0.018175088
-0.04162529
-0.061986946
-0.060397245
-0.048609454
-0.033910897
-0.008065535
0.019530194
0.039868698
0.06048214
0.07661524
0.08685102
0.09662834
0.10031696
0.09538741
0.07850376
0.059000034
0.045256402
0.022669237
0.0042496175
0.0046223244
0.0035800138
-0.007593855
-0.018530304
-0.026438689
-0.057838187
-0.113089725
-0.14359568
-0.13648947
-0.10718745
-0.081819326
-0.07246539
-0.052860234
-0.047384955
-0.060183097
-0.034008443
0.010596086
0.037681013
0.056914605
0.062035546
0.047517467
0.028258296
0.01794086
-0.0073750885
-0.045778327
-0.046028458
-0.011153663
0.04892287
0.13602377
0.19838019
0.20829177
0.1850225
0.115051
-0.0270627
-0.17695637
-0.26423383
-0.3053244
-0.26470643
-0.14489217
-0.056664906
0.008932185
0.08701027
0.122558035
0.10498834
0.06183047
0.029791215
0.01418761
-0.0046109436
-0.0022422054
0.0077391653
0.0024148358
0.014120415
0.043275584
0.08191672
0.14027353
0.19495696
0.19891715
0.114511564
-0.021419303
-0.097352505
-0.07817922
-0.037665546
-0.006545186
0.018305365
-0.009117557
-0.07028539
-0.0945456
-0.11433014
-0.16774788
-0.19459607
-0.1674198
-0.13039427
-0.10240788
-0.080323204
-0.06640677
-0.05663476
-0.056851868
-0.052714575
-0.015845971
0.01569189
0.01750242
0.06022249
0.1446599
0.16869284
0.13386725
0.10530675
0.08012374
0.06985466
0.072744004
0.05235352
0.035521235
0.04369731
0.061303988
0.07065655
0.056580637
0.05216479
0.059963744
0.04696734
0.02082293
-0.021249164
-0.052781355
-0.05518508
-0.07929699
-0.094480984
-0.042320084
0.020297058
0.031790935
0.00505479
-0.035254244
-0.07374676
-0.07959425
-0.059302
-0.04574021
-0.021433316
0.0105548585
0.018776653
0.0069659087
-0.013299987
-0.027087513
-0.03856647
-0.045649637
-0.026948277
-0.018757414
-0.031396393
-0.024229242
-0.011880794
-0.013973616
-0.022355653
-0.026638439
-0.016254222
4.3720385E-4
0.01961544
0.03827722
0.044540796
0.043853987
0.045896403
0.0514574
0.049702164
0.038957316
0.035610385
0.03854232
0.039307404
0.03539981
0.029873053
0.03134481
0.0307634
0.02393492
0.021683097
0.023333265
0.024404267
0.022077905
0.018658128
0.013205759
0.0010957321
-0.0062729088
-0.006754018
-0.00962392
-0.014126818
-0.019410716
-0.021634713
-0.017838346
-0.010533787
-0.0023187234
0.0033152243
0.010926996
0.022259997
0.028344903
0.026639963
0.020318337
0.0106580965
-0.0031678772
-0.021883976
-0.042806797
-0.058397427
-0.060614478
-0.053839732
-0.048224803
-0.04163793
-0.028632713
-0.01544601
-0.0101686865
-0.008755177
-0.0057158954
-0.0029865908
-0.0073209363
-0.023312554
-0.038914204
-0.046752848
-0.059675626
-0.074084654
-0.06658948
-0.031554796
0.0067211366
0.02942891
0.04639751
0.059629206
0.065126814
0.06967401
0.06407481
0.04500298
0.027197057
0.019443935
0.028180104
0.04126894
0.03954921
0.029674849
0.025346655
0.030129125
0.037664574
0.048769843
0.06435262
0.067956194
0.065115616
0.06720905
0.06372219
0.04650425
1.516633E-4
-0.051864576
-0.06307643
-0.06541285
-0.089661874
-0.10700875
-0.10477376
-0.09710544
-0.102286085
-0.10495445
-0.086713955
-0.074982986
-0.06694332
-0.047402255
-0.036002956
-0.030800456
-0.032745637
-0.04322601
-0.036516033
-0.016082501
0.001779863
0.017428603
0.030549036
0.046703357
0.06726031
0.08656416
0.095772184
0.089418836
0.0844224
0.08685445
0.08025148
0.06678509
0.05570778
0.045034267
0.034930874
0.021548254
0.005057225
-0.0025807717
-0.0029225016
-0.0017819457
0.0010033589
-0.0055354754
-0.019992404
-0.02918076
-0.034507703
-0.03437323
-0.029236311
-0.026968133
-0.024656741
-0.022851275
-0.024574082
-0.027639981
-0.033451565
-0.03518293
-0.0280593
-0.022555763
-0.02079836
-0.016405035
-0.010039956
-0.006028689
-0.006525067
-0.007950181
-0.008405653
-0.008962172
-0.0043629203
0.004624838
0.011387168
0.018685298
0.028434305
0.0376188
0.041920032
0.037470542
0.02862843
0.020158809
0.014771825
0.014930797
0.016058324
0.014940108
0.012650577
0.009593284
0.0054413173
-4.0469487E-5
-0.0044879178
-0.007625816
-0.009641659
-0.01066513
-0.012013821
-0.010357559
-0.008740702
-0.009411939
-0.006452871
-0.0049088206
-0.0064452277
-0.004904934
-0.0021470308
6.48869E-4
0.0022269876
0.0033776597
0.0063562794
0.007811493
0.009799194
0.013324841
0.014953902
0.016106693
0.01688503
0.017512552
0.018378006
0.01759802
0.015465515
0.01235813
0.008786347
0.005661741
0.0032610095
7.525729E-4
-0.0010112557
0.0015988859
0.0044496115
0.0038878985
0.0039557423
0.0022024035
-0.0018627605
-0.0036957671
-0.004848281
-0.005371563
-0.0050737825
-0.0051004626
-0.003485344
-0.0022802202
-0.0020410472
6.822035E-4
0.0017569342
-0.0013045429
-0.0033234574
-0.005272311
-0.008404268
-0.007397686
-0.002855784
0.0015875308
0.005078803
0.006076635
0.0048887003
0.0023915963
0.0010451518
0.0025883627
0.0042196508
0.0065430077
0.008566878
0.008172645
0.008550234
0.007984656
0.0057889107
0.0029737672
-0.0020859921
-0.0033628603
-9.3940843E-4
-0.0010259191
-9.2498795E-4
-7.8374826E-5
7.420921E-4
0.0011697867
-5.3247565E-4
-0.0015906458
-0.002508899
-0.003012573
-0.0014626856
-0.0013832195
2.6557082E-4
0.0036777242
0.0028294376
0.0021239663
0.003108256
6.0626975E-4
-0.002294453
-9.95927E-4
0.0024858601
0.004836628
0.006712445
0.008878967
0.009529751
0.00886392
0.0071695093
0.0039480343
8.9972996E-4
-5.694134E-4
-0.0010440378
-0.0017686991
-0.0020114677
-6.4947025E-4
-3.1354502E-6
-0.0011901382
-0.0019787697
-0.0013737165
-3.8211266E-4
-5.231217E-4
-0.0012777491
-0.0012041522
-4.7335954E-4
-9.9003366E-5
-0.0011093358
-5.4611696E-4
0.0016760854
-7.580386E-4
-0.004451506
-0.004451994
-0.0049682935
-0.0055714147
-0.00524274
-0.005150171
-0.0028254546
9.768221E-4
0.0035856937
0.004536895
0.004966676
0.0050789653
0.0039958293
0.0041325106
0.005491801
0.0060129305
0.006254156
0.006307211
0.0061388253
0.003374006
-8.875367E-4
-0.0021265224
-0.0020372453
-7.571552E-4
0.0011321283
0.0015516438
0.0024947615
0.0015759818
-4.0671183E-4
0.001045822
0.0021355571
-0.0011360445
-0.006519136
-0.011055492
-0.017322768
-0.023130449
-0.020357044
-0.010827112
0.0017604532
0.010963719
0.009975115
0.0066756047
0.0043784333
0.0028550131
0.0052571124
0.0055000223
0.003947941
0.0036221032
0.0015643177
8.46996E-4
8.6533354E-4
1.5915988E-4
0.0013515148
0.0017491229
0.0012667651
0.0021646982
0.0024155173
0.0013233419
-2.7031646E-4
-0.002819451
-0.0042988993
-0.0027170728
-0.0021044123
-0.0028403103
-0.0019515782
-0.0018870166
-0.0020381247
-0.0018007642
-0.0027285528
-0.0027811986
-0.0035049943
-0.004561777
-0.0030594005
-0.0010472516
6.5183314E-4
0.0014476065
0.0024773213
0.0041317274
0.0019427268
-9.779981E-4
-0.0013179118
-0.0019336937
-0.0014465826
2.9751543E-6
0.0012804627
0.0029767852
0.0028849342
0.0011183058
7.8205514E-5
6.980662E-4
8.4451993E-4
2.9584387E-4
0.001636276
2.5404725E-6
-0.0031819947
2.5958702E-4
0.0030436444
0.0012364128
9.519646E-4
-3.6892877E-4
-0.0029716897
-0.0029670743
-0.0019866372
-0.0019920475
-0.001918268
-4.3055127E-4
-3.042447E-4
-0.001949585
-0.0020956304
-0.002473156
-0.0031589118
-0.0020512736
-2.740046E-4
0.0010585376
0.0015570554
0.0016864066
0.0011166112
3.3891966E-4
0.0011603149
0.0012704654
-4.9229985E-4
-8.7818195E-4
1.9026316E-4
-7.5203675E-4
-0.0020616367
7.0531806E-4
0.0034995177
0.0020761597
3.8268665E-4
-1.9565909E-4
-0.002324235
-0.004722023
-0.003942247
-0.0024717457
-0.0033828807
-0.0027267784
-3.971676E-5
9.075055E-4
4.4361982E-4
-8.733762E-4
-0.0023790426
-0.002064035
-6.589194E-4
0.0010898677
0.00392752
0.005553064
0.004731147
0.0037666352
0.0032892239
0.003515389
0.0027689256
7.6488726E-4
0.001156604
0.0015273133
5.818672E-4
-1.3196353E-4
-0.0010881522
-2.802377E-4
-0.002699635
-0.006944353
-0.0042842035
-0.0016424728
-0.0022399554
-0.0031873514
-0.0017446826
0.0022119998
-0.0066207624
-0.01568525
-0.0036998733
0.004177244
-5.629079E-4
-4.0458722E-4
4.6459422E-4
9.091598E-4
0.0032107783
0.0030598468
0.0030979211
0.0033764164
0.0013748526
-3.2667816E-4
-2.1301929E-4
3.6370792E-4
0.0013235266
0.0023878685
0.0024843293
0.0032480808
0.0040934905
0.0034594466
0.0026827098
7.850137E-4
-0.0026302107
-0.0054286756
-0.0050371992
-0.0021860527
-0.0010363219
-8.438681E-5
5.095622E-4
-0.001634613
-0.0019550612
-3.507377E-4
-5.6522465E-5
-0.0011054158
-0.001814448
3.9947618E-4
0.0014732761
0.0011797417
0.0028753474
7.9623744E-4
-0.0027663014
-0.0018885322
-7.616176E-4
-3.420648E-4
6.242744E-5
1.7341378E-4
3.868084E-4
-8.2021253E-4
-1.7892223E-4
0.0021754026
-5.630619E-4
-0.0045173084
-0.0031578245
-0.0017112563
-0.0024640649
-4.8300132E-4
0.0023873067
0.00233892
7.519413E-4
-5.714193E-4
5.343123E-5
5.240011E-4
-0.0013057691
-0.0014840624
-6.1610044E-4
-7.701005E-4
0.0017147544
0.0045415466
0.003491246
9.932922E-4
-3.9805585E-4
-3.8142392E-4
-6.4746465E-4
-0.0019608086
-0.0018888708
2.4281986E-4
0.0019210463
0.0018660272
0.0019280002
0.0017478275
-1.6255603E-4
-0.0015774674
-0.0022931874
-0.0030653602
-0.002592673
-0.0015374294
-5.0097605E-4
1.2889512E-4
3.7581942E-4
0.0010806826
4.0604782E-4
-0.001902419
-0.0027308385
-9.028345E-4
8.412757E-4
4.3766835E-4
4.6663766E-4
0.0013850714
0.0013212068
0.0010718482
8.6851744E-4
6.332287E-4
-8.591149E-4
-0.0028862464
-0.001299089
2.0803354E-4
-0.0010044076
5.2373164E-4
0.0025082284
0.0014490932
3.546955E-4
-0.0013572011
-0.003908001
-0.004381214
-0.0026184453
-2.3933695E-5
0.0018551261
0.001694034
0.0013504087
0.0023236491
0.0012655281
-9.3888794E-4
-5.4504245E-4
-7.0860144E-4
-4.3449883E-4
0.0026333306
0.002900513
0.0010340143
5.5654725E-4
3.9905935E-4
-5.3651915E-5
-0.0024998696
-0.0038412868
-0.0018001713
-6.30435E-4
3.1084294E-4
0.0011401699
2.3442136E-4
-2.6664307E-4
-3.5514706E-4
-3.5521848E-4
-0.0010122614
-0.0019283
-9.003465E-4
-6.8689557E-4
-0.0010740326
7.5738336E-4
0.0021896118
0.0029747223
0.0026609723
5.1992854E-5
-0.0018724885
-0.0032016775
-0.00356992
-0.0016838096
-3.3926498E-4
0.0010896582
0.0029445258
0.0033865902
0.0037481163
0.0012456096
-0.004496034
-0.005592694
-0.0019573756
1.9608975E-4
3.2103198E-4
2.9604344E-4
8.02167E-4
2.2542755E-4
-0.0012316426
-1.7853588E-4
9.301268E-5
-0.0022902978
-0.0019469435
-0.0010114373
-0.0011894061
0.0013535306
0.004057829
0.0044570807
0.0025234222
4.7479416E-4
6.5699784E-4
-0.0012187024
-0.0025649036
1.4771872E-4
0.0016241969
0.0021915187
0.0016703425
-1.1599369E-4
5.441313E-4
0.0010424434
2.3046404E-4
-7.8958913E-4
-0.0011025226
6.597921E-5
0.0013131277
0.0041956953
0.004294325
0.0019301173
0.0030290987
-0.0034941172
-0.015974384
-0.01893663
-0.013020125
-0.0017374936
0.005664941
0.0048376224
0.0053457576
0.004891054
0.0025430152
0.0017813799
-0.0010088299
-0.0028185782
-0.0030620673
-0.0028452761
8.4499124E-4
0.003230745
0.003094159
0.003898641
0.0039761737
0.0032059972
0.0019305883
4.5261683E-4
-3.251162E-4
-0.0010501147
-5.693024E-4
7.175379E-4
0.0010325811
6.814706E-4
-2.2421977E-4
-3.8055773E-4
-8.530202E-4
-0.0029877068
-0.0028242376
-0.0011175417
-3.1652098E-4
0.0013065352
0.0019505107
0.0014103577
0.0012687871
0.0010534952
0.0011010269
-8.430244E-5
-7.182049E-4
2.761305E-4
-7.238025E-4
-6.304827E-4
0.0017398554
0.0023342732
0.0015561366
-6.8916864E-4
-0.003807666
-0.004645248
-0.0037156683
-0.0046209996
-0.0050051357
-7.35263E-4
0.0017111087
0.0010852141
0.0018037009
5.604386E-4
6.7791255E-4
0.0015379477
-0.002731737
-0.0037662552
8.9293426E-5
0.0017151581
0.0010648492
5.019956E-4
0.0014884574
0.0014044874
6.5583515E-4
8.1138324E-4
-3.3885392E-4
4.3969473E-4
0.0020986611
0.0013215534
0.0016756657
0.003068218
0.0033765459
0.0015156827
5.352752E-5
7.474496E-4
-0.0012900764
-0.0029775784
-0.0017533875
-0.0015146661
-5.8041087E-6
0.001345631
9.062948E-4
0.0010854428
2.2495727E-4
-0.0013012064
-0.002698678
-0.0030669784
-0.0019572622
-0.0016959814
-5.273556E-4
6.0848007E-4
-1.6627528E-4
-1.2361283E-4
-6.2476663E-4
-0.002010929
-0.0026097402
-0.002587621
-0.0013580514
-3.5091073E-4
5.0468347E-4
0.0020379266
0.0023159492
0.0016104752
0.0010038519
5.2635478E-5
-7.79872E-4
-7.9072684E-5
0.0011706365
0.0016820991
0.0027606776
0.0029843552
0.0017569705
0.0014685697
0.0010423169
-3.5619337E-4
-0.0018596624
-0.002151948
-7.7412627E-4
-3.954139E-4
-8.548927E-4
-5.804498E-4
-1.9074198E-4
1.2863561E-4
-2.6734575E-4
-0.0012980169
-0.0027545972
-0.0040246006
-0.0029985548
-8.2232076E-4
3.9030063E-5
-7.951707E-5
3.12796E-4
8.7982276E-4
5.498173E-4
3.5918588E-4
-4.2742895E-4
-0.001856196
-0.0011163285
7.218338E-5
1.31342E-4
7.884755E-4
0.0018442494
0.0029533566
0.0029437745
0.0014828447
7.1676687E-4
2.6884725E-4
6.0537946E-4
0.0023887644
0.002632019
0.0024725415
0.0026620142
-5.4093583E-5
-0.0016737649
-1.8760223E-4
5.056536E-4
0.0016651112
7.1132835E-4
-0.0035378502
-0.004357265
-0.0031235649
-0.0022683386
-7.990066E-4
-9.916307E-4
-0.0010765619
-0.0012301259
-0.0027715345
-0.0022210733
-0.0012660528
-8.257346E-4
4.958279E-4
4.4727031E-4
7.6202315E-4
0.0016037519
3.670362E-4
-0.0010206086
-0.0019014395
-0.0016688451
-1.4717119E-4
1.5751211E-4
4.4954772E-4
0.0013199019
0.0016904736
0.0019824014
0.0014227796
0.0011070467
0.0011143875
7.388423E-4
0.0016080411
0.0018893227
0.002164803
0.0031704057
0.0013478578
-2.1408424E-4
-4.0289928E-5
-0.0010067418
-0.0021113246
-0.0034838743
-0.0034198174
-0.0012084702
6.375512E-4
0.0023488156
0.0025243599
0.001237189
-7.9664134E-4
-0.0033089966
-0.002715836
-0.0013500788
-0.0011930437
-4.3359285E-4
-4.441927E-4
5.516283E-4
0.0017869829
0.001332604
0.0015438207
1.6731807E-4
-0.002028998
-0.001517898
-5.666687E-4
5.35177E-4
0.0018601842
0.0017840122
0.0011139316
-2.9243517E-4
-0.002147144
-0.0025738827
-0.0027717084
-0.0031979347
-0.0020914131
-9.7295875E-4
4.8469828E-4
0.0033666135
0.0035434084
9.996943E-4
-5.05249E-4
-6.141949E-4
2.801307E-5