-0.07490882
-0.054971065
-0.038928818
-0.020772306
-0.0035608567
0.012720087
0.025860097
0.03214883
0.04055686
0.04822262
0.049410522
0.04869849
0.052661087
0.0635177
0.07323232
0.076913275
0.06969995
0.054137904
0.040014185
0.0225919
0.005823758
-0.0082681505
-0.022158002
-0.021191297
-0.01552198
-0.016587585
-0.013829481
-0.0119621875
-0.007111551
0.0022364703
0.0045058927
0.004295551
0.00282912
0.0026521753
0.0088493675
0.017622998
0.025143854
0.022986239
0.018913316
0.016814094
0.008611648
0.0064802375
-1.01021884E-4
-0.012638666
-0.016135562
-0.046792716
-0.09233689
-0.10379871
-0.10261991
-0.09435894
-0.071965046
-0.060054597
-0.053449687
-0.042421576
-0.031314723
-0.018751714
-0.009007578
-0.0025865545
5.7870126E-4
0.0018044268
0.005785191
0.0098490855
0.014237612
0.019802043
0.026336616
0.034234397
0.039152823
0.040959176
0.041955315
0.043689765
0.04382852
0.03711457
0.031635396
0.034438193
0.03871562
0.041603997
0.046014138
0.050861284
0.05334755
0.054781165
0.055462983
0.054229572
0.050665166
0.043171063
0.037130564
0.034435168
0.028424446
0.020425133
0.0109607205
-0.0028403609
-0.020186303
-0.039434705
-0.056152582
-0.06944296
-0.079809934
-0.08551482
-0.08637812
-0.0855726
-0.093198165
-0.1045869
-0.10648307
-0.10598499
-0.10832753
-0.108280875
-0.095871404
-0.06288029
-0.025578424
0.003329677
0.029453095
0.050109204
0.062275387
0.06836335
0.072980136
0.08032298
0.08631996
0.0899206
0.09428928
0.09750771
0.09478602
0.083658814
0.0673423
0.049375754
0.032422826
0.019340638
0.012577166
0.00955852
-7.152751E-4
-0.013481005
-0.01896075
-0.030216785
-0.04804076
-0.06013998
-0.06851383
-0.07002863
-0.06298917
-0.054944273
-0.043482453
-0.030993795
-0.025686236
-0.020967828
-0.016598584
-0.020941611
-0.023786958
-0.01851858
-0.012712824
-0.00635037
-0.001320909
8.371114E-4
0.0048690084
0.008889213
0.010238575
0.007918556
0.0036404366
0.0021527281
0.0058338935
0.017168297
0.031711362
0.04411038
0.051156413
0.04871568
0.044504866
0.038474403
0.02609766
0.018105088
0.013630693
0.008587173
0.005000023
-8.09641E-4
-0.0049134935
-0.008742583
-0.01699398
-0.025372336
-0.0347426
-0.03760507
-0.02865497
-0.0197191
-0.011325239
-0.002422435
-1.0010581E-4
1.8656078E-4
0.002982078
0.0070751393
0.012422732
0.016169045
0.022018498
0.03339503
0.04204826
0.048650965
0.057480395
0.06320537
0.06392132
0.053357724
0.028181957
-0.0028472086
-0.03702935
-0.06052521
-0.060936093
-0.05870228
-0.06240905
-0.06327195
-0.06880416
-0.078899145
-0.08277782
-0.07945728
-0.07211348
-0.06219056
-0.049618684
-0.037308656
-0.02399566
-0.004159243
0.014203865
0.025503745
0.037203908
0.050109085
0.06261056
0.073902026
0.08062277
0.08470776
0.08531374
0.08014851
0.07207416
0.059185214
0.0429724
0.031222621
0.023875745
0.016168829
0.0052940347
-0.00835056
-0.023894813
-0.040405013
-0.056014437
-0.073096514
-0.08659845
-0.08812196
-0.082741834
-0.07127699
-0.052425157
-0.034395516
-0.020855904
-0.011539547
-0.0034757506
0.0041183378
0.008130748
0.01304082
0.020293621
0.028144386
0.035375644
0.037997015
0.038325388
0.03409427
0.02558574
0.021505048
0.016678654
0.012581191
0.015690867
0.02126561
0.029917933
0.028841011
0.011126235
-0.0041384194
-0.015834866
-0.02933674
-0.043139376
-0.050504494
-0.0314375
0.0022314088
0.025069052
0.04062723
0.047604505
0.044383693
0.037490766
0.02462668
0.007698393
-0.005347094
-0.010256967
-0.01175144
-0.01201477
-0.006543745
-7.4438093E-4
0.0034846596
0.0059047854
0.001752755
-5.659358E-4
0.0027710735
0.008114347
0.0136742955
0.011649535
0.0040711425
-0.001424537
-0.003921293
-0.0035288718
-0.005128343
-0.006685229
-5.774369E-4
8.820318E-4
-0.014302382
-0.030162398
-0.036939148
-0.038746484
-0.033273403
-0.0337402
-0.037145544
-0.033637222
-0.0653079
-0.118956104
-0.12623598
-0.10423865
-0.084411815
-0.060715318
-0.04092675
-0.022202546
-0.0027418255
0.012426159
0.030267742
0.050944306
0.07209175
0.08938096
0.09845748
0.10027529
0.095047615
0.08955682
0.08495834
0.07737327
0.06778504
0.055332195
0.045810357
0.03796093
0.02403325
0.009986799
-0.0020308995
-0.014745585
-0.030282905
-0.049734704
-0.06037526
-0.055480257
-0.04563161
-0.03745914
-0.03098826
-0.02614395
-0.020216303
-0.01296779
-0.009894257
-0.006911587
0.0033038177
0.012564845
0.0153197935
0.016338402
0.015541285
0.0127497725
0.010926669
0.0070377053
-0.0026090841
-0.01293162
-0.018127684
-0.016255412
-0.010616813
-0.008929008
-0.007623986
-0.004026063
-0.007114625
-0.015283706
-0.021983683
-0.026343746
-0.029472021
-0.030590063
-0.01701284
0.0131146535
0.038885426
0.0503533
0.05352684
0.047981292
0.032124512
0.017952595
0.013121535
0.010275852
0.00919436
0.012858091
0.015859403
0.016930131
0.017992444
0.01807435
0.016477607
0.013701851
0.012564995
0.017570723
0.027218206
0.03202738
0.029859474
0.028657831
0.028910307
0.025345303
0.019658174
0.013110371
0.0051814867
0.0069686137
0.02248413
0.034091778
0.028255017
0.0029363367
-0.02823866
-0.046766713
-0.06327744
-0.08401158
-0.092562504
-0.090330124
-0.08499207
-0.07522113
-0.06314191
-0.05372234
-0.048588898
-0.041627653
-0.03228066
-0.024763951
-0.014409564
0.0061030993
0.03453867
0.053954132
0.063516535
0.07541972
0.0788702
0.073522024
0.070485145
0.061435964
0.04905248
0.044357136
0.04259735
0.038545903
0.03385671
0.029752944
0.02424016
0.016380075
0.0044892016
-0.014250464
-0.031823307
-0.039279316
-0.04464875
-0.053948652
-0.05949182
-0.060923185
-0.0618716
-0.06215294
-0.066212565
-0.07353855
-0.07868191
-0.07646029
-0.064996526
-0.051073704
-0.035830136
-0.021495553
-0.012540395
-0.0026444197
0.0054802396
0.0058542225
0.0024725697
0.0025475312
0.011625622
0.024512926
0.03749748
0.047871996
0.05352447
0.058360327
0.057279818
0.05395688
0.05360814
0.050648585
0.046692412
0.038823526
0.02977571
0.018527979
0.0055255536
-0.005412664
-0.056669556
-0.13316724
-0.16309816
-0.16636278
-0.16648427
-0.1587457
-0.15290192
-0.122218914
-0.07235616
-0.033254907
-1.6510618E-4
0.02253367
0.03827939
0.052139893
0.06019217
0.06474211
0.05794383
0.048845906
0.050376445
0.05653906
0.06406866
0.06774025
0.07156365
0.08109829
0.09058493
0.0973977
0.09898263
0.0983247
0.08673826
0.048348073
-0.0023527388
-0.047312904
-0.0815012
-0.098874494
-0.093024105
-0.062256522
-0.025098795
0.0030375137
0.029034613
0.05295453
0.06563958
0.066835105
0.068091564
0.07529854
0.08067268
0.08205806
0.08035469
0.072217725
0.05648383
0.03644073
0.018698703
-3.1025984E-4
-0.021126106
-0.033708904
-0.044755682
-0.057634905
-0.06535242
-0.07491853
-0.0868605
-0.10055008
-0.11983629
-0.13366799
-0.13839775
-0.13328299
-0.11583403
-0.10146947
-0.089623064
-0.06842523
-0.04602875
-0.024944263
8.7056553E-4
0.027002573
0.042163458
0.048286073
0.06152829
0.0819185
0.10303492
0.12447451
0.13850118
0.14515138
0.1442681
0.13079625
0.11801894
0.11380732
0.110028885
0.10395449
0.094293326
0.07995284
0.063670315
0.04688903
0.030118966
0.014337654
1.8105177E-4
-0.008881967
-0.010830843
-0.017554948
-0.03245846
-0.039651733
-0.03952693
-0.041807506
-0.04792524
-0.05769776
-0.063387044
-0.06523842
-0.071125396
-0.077208385
-0.08057033
-0.08383286
-0.08775601
-0.09009382
-0.09085696
-0.093031816
-0.093065254
-0.08734678
-0.07442376
-0.055048306
-0.03456608
-0.0130041735
0.0075161024
0.022552902
0.031855006
0.036588144
0.043356754
0.055155948
0.07196301
0.09019685
0.102484494
0.11242985
0.11925153
0.121584035
0.11861064
0.09706293
0.06096223
0.024991043
0.0023059086
-0.0046005794
-0.013765572
-0.019519717
-0.032820508
-0.08184172
-0.119010545
-0.10850463
-0.09920221
-0.11995467
-0.12723313
-0.09100134
-0.06942264
-0.089845225
-0.08931437
-0.060204107
-0.040358003
-0.02512651
-0.010928172
0.0024454514
0.022608642
0.034880966
0.036654286
0.041864067
0.047367055
0.057528496
0.053058617
0.0050448338
-0.032689054
-0.026289534
-0.015247551
-0.0018604316
0.010153681
0.0048170984
8.350704E-4
1.1904128E-4
-0.004088149
-0.010930926
-0.020740673
-0.021818481
-0.015907476
-0.011550286
-0.006100815
-0.0012220716
0.0015155331
0.0045486153
0.0061155264
0.0013070613
-0.003997383
-0.005719235
-0.0099750785
-0.012927186
-0.017970024
-0.028080912
-0.034577727
-0.04498544
-0.05534418
-0.053775765
-0.04975736
-0.043088477
-0.029038925
-0.010001651
0.012921302
0.03466677
0.057121385
0.07866706
0.091688454
0.10044008
0.10627567
0.10934078
0.11488849
0.11826763
0.11460725
0.10466465
0.08863935
0.06903366
0.04832942
0.02792194
0.011495889
0.0047584795
0.004843239
0.0022613856
0.0011648508
-6.996427E-4
-0.014800175
-0.02861691
-0.038621817
-0.056603175
-0.07601196
-0.09102227
-0.08922999
-0.0631908
-0.032217186
-0.0028408335
0.020817403
0.033983674
0.047346104
0.05569496
0.059371557
0.061691012
0.045362845
0.0155357
-0.011696888
-0.03329635
-0.04964622
-0.06367829
-0.061514676
-0.037655246
-0.011714403
0.008860619
0.02456209
0.035694774
0.04266213
0.040079474
0.030465247
0.021564536
0.015008662
0.005613939
-0.0045001237
-0.005637151
-0.0045001577
-0.0048967465
-0.002434443
-0.003563087
-0.004019192
-0.0039076493
-0.016453363
-0.03380859
-0.044525106
-0.048394483
-0.045292787
-0.041304663
-0.039300565
-0.036693364
-0.03656368
-0.038012926
-0.03690904
-0.03461676
-0.028166378
-0.013277159
0.0076825637
0.032144003
0.052823294
0.06341317
0.07054961
0.078327596
0.08113389
0.075117126
0.06493794
0.055211157
0.042476457
0.030601092
0.024825208
0.017980957
0.008377491
-0.0017468804
-0.015552243
-0.031789232
-0.042644285
-0.044738907
-0.0463166
-0.047870237
-0.043256972
-0.03827909
-0.03165036
-0.020934476
-0.017316734
-0.021135481
-0.02336243
-0.020205714
-0.012496499
-0.0043713995
0.0035914686
0.009205349
0.007752541
0.0028581924
-0.0034879535
-0.013375676
-0.019422175
-0.015300795
-0.006383111
0.0018724564
0.011364628
0.026201462
0.041225746
0.05048298
0.058397613
0.05889255
0.048224777
0.043487538
0.043632686
0.037085973
0.033619612
0.033918045
0.027010921
0.017530326
0.01071267
0.0038368157
-0.002221798
-0.010370619
-0.019378982
-0.01774219
-0.017632173
-0.038825847
-0.067678414
-0.09076832
-0.116014436
-0.14445224
-0.16345046
-0.16701438
-0.16126536
-0.1404085
-0.09792211
-0.049656287
-0.007997489
0.0236952
0.043881796
0.059048314
0.06913036
0.07499945
0.0871011
0.102260135
0.110627435
0.11479438
0.12041516
0.12673226
0.12792471
0.12095779
0.11102376
0.10212791
0.09202412
0.07982264
0.06474859
0.04101174
0.010459016
-0.0120234825
-0.026400154
-0.046838015
-0.06854393
-0.08137087
-0.087331414
-0.08831021
-0.08574723
-0.07835359
-0.068182744
-0.061542578
-0.05605057
-0.05252733
-0.049888685
-0.04002661
-0.025690418
-0.012880681
-0.0056381878
-0.005342524
-0.009314138
-0.014646746
-0.016196853
-0.020458065
-0.030467119
-0.031020327
-0.02184261
-0.011474355
-0.002650405
0.0020659405
0.0099138245
0.023600206
0.036748648
0.046059936
0.048203148
0.048364107
0.053127684
0.058452185
0.061847817
0.06381816
0.060541797
0.05030045
0.03932103
0.029871088
0.016981702
0.006355222
0.0060787112
0.00925637
0.008984611
0.006152559
0.0041285064
0.0052691954
0.003131751
-0.004986724
-0.01097181
-0.0132264905
-0.014404835
-0.014266319
-0.013981156
-0.018718759
-0.032890685
-0.048806615
-0.05965577
-0.06753882
-0.071110584
-0.06683637
-0.04948741
-0.024120368
-3.7349173E-4
0.023342732
0.03605392
0.02794343
0.008598607
-0.011936183
-0.025944017
-0.03591589
-0.036906537
-0.016087102
0.016585438
0.051122088
0.08388899
0.109204605
0.124351576
0.13043168
0.1258899
0.079726726
0.0019715603
-0.037292186
-0.032892726
-0.014781662
0.014376191
0.034628443
0.016226735
-0.04094814
-0.093035065
-0.12702118
-0.159262
-0.15122764
-0.10625505
-0.073088296
-0.04598762
-0.02610801
-0.020121045
-0.014574938
-0.007857999
0.0044224216
0.018680857
0.028968576
0.03532529
0.03849952
0.0508347
0.06405629
0.06456102
0.059406355
0.051718164
0.051329732
0.061497863
0.06872001
0.069521576
0.063743815
0.051778562
0.03670204
0.018402549
-0.0014536461
-0.017344173
-0.022016486
-0.014019314
-0.0010793855
0.0050302944
0.004876404
0.009613511
0.013986717
0.011630313
0.0058859135
-0.00634479
-0.020543313
-0.029931933
-0.037631724
-0.0454389
-0.053873107
-0.063827895
-0.07818752
-0.093772635
-0.1038097
-0.11287467
-0.12061223
-0.12439399
-0.12761486
-0.12478048
-0.11333906
-0.097397685
-0.08302308
-0.07240509
-0.047447264
-0.0015708262
0.048648912
0.096855186
0.13765593
0.16310713
0.17662801
0.17992239
0.17203888
0.15852009
0.14567474
0.1330572
0.12328802
0.1208735
0.11415893
0.096861914
0.07883879
0.06005871
0.040875867
0.027695017
0.00820584
-0.035033617
-0.087852105
-0.12472639
-0.15119717
-0.17365296
-0.17506249
-0.15327235
-0.12343735
-0.09639302
-0.076897815
-0.06117776
-0.04477737
-0.02827298
-0.013374425
-0.0012881615
0.008924682
0.019268429
0.031164058
0.039969184
0.04049849
0.037572376
0.036453195
0.039275073
0.044079594
0.04364395
0.038219307
0.030172292
0.019435024
0.010768542
0.0031761047
-0.0065375115
-0.009398075
0.0010531975
0.01529405
0.023002556
0.023351671
0.018512152
0.0122973565
0.005398383
-0.0028303612
-0.0038910513
0.0029500849
0.0068988465
0.010322358
0.018789636
0.023316128
0.018161733
0.011918408
0.0102550965
0.008070725
0.0017271908
-0.0076406416
-0.016242728
-0.020280732
-0.020983769
-0.019748665
-0.018447189
-0.01880986
-0.01996824
-0.024445696
-0.027106306
-0.019791618
-0.007909581
0.0056531345
0.018693643
0.024449123
0.024807457
0.016997373
6.21604E-4
-0.011151988
-0.018880688
-0.026773576
-0.0290618
-0.032666754
-0.040430576
-0.042941134
-0.044683106
-0.04734328
-0.043928873
-0.040368896
-0.0397448
-0.034451287
-0.019536775
7.495755E-5
0.013363755
0.023361154
0.03355388
0.03848629
0.043509584
0.044501718
0.03589477
0.03236432
0.03627792
0.040984046
0.04493202
0.044906743
0.045581058
0.048785295
0.047679983
0.03954472
0.032385778
0.032366388
0.020642465
-0.012405567
-0.046563677
-0.073022015
-0.09684569
-0.120855175
-0.1345724
-0.12008784
-0.08907499
-0.06137057
-0.036645696
-0.01699824
-0.0025368037
0.0106573105
0.019136868
0.025586592
0.034932666
0.042189386
0.04547161
0.04868222
0.053360645
0.06247696
0.07296158
0.07855052
0.08459192
0.088684455
0.08340935
0.07375922
0.05780238
0.037228473
0.023129374
0.011156669
-0.0029642887
-0.0153071545
-0.025808148
-0.035335276
-0.047325738
-0.060849816
-0.07255225
-0.081660435
-0.08025529
-0.07045712
-0.06198806
-0.05134183
-0.040523652
-0.03341879
-0.026585305
-0.022579115
-0.019803662
-0.017574226
-0.01520329
-0.0032682535
0.008500957
0.009261742
0.010283674
0.015017728
0.021515043
0.02879769
0.033605188
0.040505644
0.049265698
0.055802666
0.06099062
0.063253775
0.06375604
0.06460862
0.06360794
0.058904506
0.048904397
0.033312596
0.016944127
0.0038072607
-0.01220402
-0.031165868
-0.043093987
-0.05152046
-0.06343333
-0.076982565
-0.08844209
-0.09400766
-0.09560787
-0.09010821
-0.07329887
-0.056546483
-0.045130797
-0.035330787
-0.029802736
-0.027958238
-0.024806537
-0.017706687
-0.004599586
0.014117505
0.03034374
0.04033822
0.048835155
0.05242799
0.0502649
0.04812849
0.04644364
0.047336094
0.05053464
0.055567656
0.058047656
0.042369325
0.009746202
-0.025324637
-0.057555433
-0.08653127
-0.10593034
-0.101846635
-0.081704624
-0.062434502
-0.04284657
-0.027868602
-0.01753201
-0.0057212636
8.277579E-4
0.0017098197
-0.0032176257
-0.009088734
-0.00813741
-0.008320359
-0.0048527606
0.004359585
0.007447986
0.010962121
0.016979868
0.020129103
0.021067856
0.017395012
0.018278703
0.028283728
0.035006132
0.03661011
0.039414693
0.043838404
0.044508837
0.039577626
0.035827138
0.032976497
0.028059598
0.026560126
0.030465687
0.03373804
0.03029489
0.025101066
0.025702048
0.024143023
0.016736198
0.012139699
0.0065666675
-0.003753348
-0.011040294
-0.015912514
-0.020540273
-0.022160534
-0.024446644
-0.031844337
-0.04351644
-0.05397007
-0.05876754
-0.057693414
-0.05115525
-0.045224193
-0.042567633
-0.04020464
-0.042542946
-0.0468443
-0.04623301
-0.044676587
-0.041650306
-0.031734485
-0.015054996
0.0039774682
0.023528364
0.043746114
0.06014703
0.07289073
0.079377525
0.07688292
0.07920319
0.08806696
0.094880216
0.09908371
0.09941672
0.100404084
0.09631778
0.085211456
0.07974507
0.0746464
0.07612166
0.0819936
0.065589994
0.030652767
-0.031111594
-0.1104646
-0.14466798
-0.138928
-0.13288142
-0.120167665
-0.10311866
-0.08688338
-0.06813757
-0.04889521
-0.030506054
-0.020155437
-0.015151696
-0.011585471
-0.011384846
-0.0067842156
-5.6662457E-4
0.002969073
0.007646493
0.011683148
0.018165208
0.02434577
0.022898598
0.01514684
0.0031056788
-0.0038882147
-0.002038867
0.0025079902
0.010671815
0.018583719
0.021892734
0.026137527
0.034516398
0.039913863
0.036668915
0.03495625
0.034659617
0.029476851
0.032284755
0.038235497
0.034667384
0.030127803
0.025422039
0.017284894
0.004349344
-0.013583976
-0.025026603
-0.030320767
-0.039816745
-0.05344465
-0.068664156
-0.08332262
-0.09834454
-0.11566279
-0.12623036
-0.1216888
-0.11569739
-0.11719181
-0.10421325
-0.06711593
-0.02315032
0.013479613
0.03776323
0.0539863
0.057772633
0.04502105
0.036512047
0.04055585
0.04645168
0.04947377
0.048669014
0.04733925
0.04599272
0.045101117
0.04194103
0.03208974
0.028959814
0.035331927
0.038131237
0.035937823
0.02978275
0.023557313
0.018088002
0.008073289
-0.0058232183
-0.02395504
-0.038668294
-0.043187674
-0.04641462
-0.046584472
-0.04138483
-0.041494284
-0.043278296
-0.040379472
-0.04059379
-0.043726366
-0.0428083
-0.038074836
-0.02997175
-0.022421962
-0.019469263
-0.012930084
2.195339E-4
0.010395755
0.014274903
0.018036889
0.025630744
0.035339218
0.048040442
0.063134484
0.074747995
0.08464239
0.095196776
0.09988075
0.08957379
0.057942145
0.017202917
-0.013085651
-0.035229344
-0.05212583
-0.051078584
-0.030591771
-0.0063195345
0.0060974834
0.0039642076
-0.0021503137
-0.00478062
-0.0030870445
0.0028128368
0.0073618423
0.0066955057
0.0052998345
0.00847117
0.016557956
0.02308258
0.023456419
0.022225672
0.023551743
0.025595414
0.024200356
0.019127257
0.015051577
0.012623169
0.0072180256
-0.0029347495
-0.011930942
-0.0135371685
-0.012970721
-0.015416061
-0.0150438445
-0.013226078
-0.016345184
-0.019187037
-0.020236958
-0.023030926
-0.02455698
-0.022035578
-0.011289682
0.0030830316
0.008657233
0.012292844
0.019945882
0.021341192
0.016189115
0.008069227
-0.0039446834
-0.013670641
-0.016997548
-0.017894909
-0.016455485
-0.013846104
-0.015716016
-0.015768882
-0.0108206365
-0.01186229
-0.015116501
-0.013117
-0.012302632
-0.0123282615
-0.009594369
-0.005355863
-0.0020645263
-0.003830931
-0.008050759
-0.01293799
-0.02128645
-0.026408438
-0.025431054
-0.024225703
-0.021176258
-0.018490206
-0.020603145
-0.01991013
-0.015231885
-0.011773775
-0.007966704
-0.002267044
0.008148456
0.020464506
0.030366542
0.043700285
0.056690067
0.061582264
0.06014761
0.05246721
0.04269147
0.036758885
0.035529237
0.036303744
0.033727217
0.029095044
0.02478645
0.022099165
0.021395417
0.017547956
0.016102033
0.01534345
-0.003974813
-0.03470151
-0.056717005
-0.073638774
-0.088251576
-0.086638376
-0.06305066
-0.034707397
-0.016981851
-0.0026541937
0.0154493805
0.02907511
0.03347337
0.03385232
0.034329396
0.03578684
0.034734026
0.02782709
0.017483233
0.00877801
0.0076568373
0.009213124
0.005038776
-4.0938228E-4
-0.0058331774
-0.009988283
-0.013083566
-0.024332752
-0.03286176
-0.027920928
-0.022922225
-0.022412244
-0.0193273
-0.010418508
-0.0017383533
0.0016304346
0.0060412455
0.010282216
0.0119241765
0.016151275
0.023554044
0.03088634
0.032005705
0.032535203
0.037553146
0.03695695
0.035361383
0.034146983
0.024615703
0.01617375
0.012470843
0.009154139
0.0067697624
0.0016583599
-0.0077057225
-0.022467442
-0.040803246
-0.056529578
-0.06791452
-0.06891366
-0.057805292
-0.046368662
-0.038570236
-0.027712429
-0.017899126
-0.018211767
-0.021166896
-0.021497743
-0.02595686
-0.028556714
-0.023396956
-0.017611962
-0.013398011
-0.0103783645
-0.008565391
-0.006492072
-0.0058025215
-0.005756679
-0.004797228
-0.0017457093
0.0075989296
0.02092269
0.032356806
0.03952367
0.04099946
0.044385843
0.052130233
0.051799633
0.04731746
0.04874499
0.050619856
0.05244164
0.052399702
0.044740576
0.036438834
0.032008983
0.027771598
0.024235122
0.02279002
0.021673353
0.023417085
0.026110966
0.013919718
-0.011831777
-0.033426296
-0.05338197
-0.07724038
-0.09734207
-0.111010216
-0.12010232
-0.11560311
-0.087855004
-0.052559502
-0.02540762
-0.0026102187
0.0138952285
0.021939145
0.018088628
0.005974153
0.006553942
0.018156612
0.028447507
0.036457468
0.041683238
0.04941458
0.05488246
0.055971522
0.057177313
0.051574327
0.046779595
0.04668976
0.04318994
0.037965443
0.027138807
0.013356261
-0.002905334
-0.028415905
-0.051468942
-0.070036635
-0.08877606
-0.09798286
-0.09763833
-0.093638755
-0.08567163
-0.073502816
-0.057106968
-0.040556427
-0.03472976
-0.034633625
-0.022775006
-0.005356589
0.009729332
0.02591632
0.03816649
0.04503852
0.046885304
0.049409967
0.053204432
0.051805094
0.05744029
0.0650872
0.0696522
0.08143834
0.090643115
0.102264315
0.09665124
0.05618848
0.024694704
-0.020256704
-0.09361493
-0.12017524
-0.10415698
-0.08991184
-0.07565224
-0.065401696
-0.05311415
-0.03813358
-0.029738974
-0.018661106
-0.007149376
-1.878332E-4
0.012086792
0.024063215
0.023137301
0.022559732
0.031143164
0.033966593
0.031816665
0.032397397
0.033531237
0.03806939
0.045484338
0.05291493
0.057019047
0.05340101
0.043586887
0.030626325
0.018735847
0.0070877653
-0.0033841922
-0.008196595
-0.01336537
-0.016599331
-0.015405163
-0.019285262
-0.024062833
-0.025980212
-0.02923306
-0.029711694
-0.028064532
-0.03072625
-0.03401995
-0.030429464
-0.026067605
-0.02738967
-0.029981427
-0.036839224
-0.048879024
-0.059241578
-0.06517993
-0.06211192
-0.05497846
-0.0501991
-0.0348046
-0.0033577927
0.030242074
0.05500837
0.07163886
0.08376919
0.091281585
0.09727429
0.10325373
0.10243295
0.0942045
0.08491917
0.07539395
0.063852355
0.046712972
0.02359789
0.0047952607
-0.0060699917
-0.014624748
-0.023649918
-0.038443442
-0.055323604
-0.06380223
-0.0697011
-0.08108371
-0.09574202
-0.10484473
-0.09976017
-0.0881488
-0.07740391
-0.06573267
-0.05699909
-0.049716543
-0.040291607
-0.027972287
-0.012280167
1.2272755E-4
0.015326145
0.035849255
0.044834543
0.04973858
0.059200414
0.060465652
0.059180524
0.05986177
0.052406747
0.04212542
0.03960288
0.041838598
0.041491825
0.03951844
0.035562996
0.026199618
0.019793713
0.01991202
0.013955935
-0.0025738168
-0.01720619
-0.022985138
-0.027181001
-0.031151071
-0.033520475
-0.03831926
-0.042563487
-0.04759289
-0.058007743
-0.06297966
-0.052496716
-0.031143337
-0.0066456506
0.016186384
0.033687424
0.04542088
0.05124072
0.049389645
0.04516821
0.04239768
0.037767302
0.03186821
0.029113142
0.03521993
0.046781078
0.05628269
0.0634413
0.05701184
0.029018657
-0.004506021
-0.025658326
-0.036851384
-0.049957123
-0.05427066
-0.058527563
-0.09448587
-0.12359018
-0.11193677
-0.10293526
-0.10329269
-0.08832148
-0.0686797
-0.05254836
-0.037496556
-0.022318454
-0.0058113625
0.004959608
0.0075522754
0.013325289
0.029730493
0.04816289
0.059901077
0.06843818
0.07796402
0.08456106
0.08340693
0.078947194
0.07295985
0.05874269
0.04407582
0.041288164
0.0403779
0.029952452
0.016836911
0.0032442675
-0.017932933
-0.03701926
-0.04059619
-0.037586696
-0.03721928
-0.036945987
-0.035520665
-0.029509803
-0.01590188
0.0029039287
0.02088826
0.029574916
0.031170506
0.033469185
0.034838375
0.035554938
0.038705353
0.04226458
0.043157768
0.038359575
0.02905806
0.016679566
-0.0016969644
-0.02052655
-0.029231982
-0.027241936
-0.02499149
-0.026513427
-0.02545821
-0.03007323
-0.045927927
-0.059304085
-0.06887823
-0.080824554
-0.09283714
-0.094378054
-0.07454076
-0.04455293
-0.022656342
-0.014302224
-0.013938128
-0.018983554
-0.036936793
-0.05358097
-0.058029715
-0.06315273
-0.06023978
-0.044934668
-0.029646525
-0.015030768
-6.3563266E-4
0.014982282
0.024447028
0.024705747
0.03160537
0.04709732
0.062196523
0.07347515
0.08458203
0.0930411
0.094711125
0.10025754
0.102553725
0.102660656
0.110572755
0.10360869
0.084079675
0.061081063
0.039260264
0.03411735
0.019498436
-4.030258E-4
-0.026465693
-0.09219823
-0.13609038
-0.14992702
-0.18833789
-0.20121002
-0.17757301
-0.15399592
-0.12829612
-0.11210184
-0.09780662
-0.08351069
-0.07778827
-0.058099322
-0.02900641
-0.004614764
0.018642789
0.037589014
0.05198939
0.062450595
0.075344376
0.093931206
0.11072122
0.12489052
0.1347172
0.13966735
0.14036822
0.1341359
0.12302067
0.106242284
0.082761094
0.053176094
0.02308926
0.006985536
0.0055877874
0.0041864756
-2.0661953E-4
0.005527268
0.019235797
0.024070794
0.021685764
0.020068252
0.01994726
0.019998105
0.01963881
0.016486052
9.557738E-4
-0.015111551
-0.020039193
-0.03159323
-0.0529713
-0.086994044
-0.12795958
-0.14747886
-0.16062805
-0.17218539
-0.15297027