-4.0101077E-5
-1.12403366E-4
-8.751887E-5
6.7845E-5
1.23647E-4
7.288923E-5
1.7717943E-4
1.3502571E-4
3.5204913E-4
-1.4671347E-4
-0.0014322367
-7.9530315E-4
1.1941451E-4
-6.393045E-6
4.7668198E-4
-4.25317E-4
-0.0016027235
-4.7562266E-4
2.0957852E-4
-3.379365E-5
2.4756046E-5
-3.869067E-5
1.02206155E-4
1.6045941E-4
1.2897259E-4
3.2220123E-4
3.1020163E-4
2.255733E-4
1.619588E-4
1.607586E-4
1.398208E-4
-1.6022159E-5
-1.5505775E-6
2.1647478E-5
8.462221E-5
1.661301E-4
8.9436166E-5
1.6519059E-4
1.4398959E-4
9.475266E-6
-1.9149184E-5
-1.1571533E-4
-7.0885675E-5
7.940449E-6
3.367106E-5
9.9318626E-5
9.865494E-5
1.4010143E-4
5.3590582E-5
-6.035936E-5
-7.72523E-5
-1.5935162E-4
-1.0954266E-4
-5.4442247E-5
9.071199E-5
2.6816528E-4
2.0583557E-4
2.585033E-4
1.4795567E-4
-3.025261E-6
-6.4270944E-6
-1.8045533E-4
8.7544104E-5
-2.9158406E-4
-0.0013647994
-6.598504E-4
3.6054457E-4
1.3572462E-4
1.3553162E-4
1.4164078E-4
-3.710961E-5
3.283878E-5
2.5652722E-5
2.5375362E-5
6.742343E-5
1.7383165E-4
1.5402166E-4
2.610833E-5
1.8796472E-4
1.4860654E-4
-3.054437E-5
2.4021307E-5
-4.2418644E-5
-1.3428545E-5
9.1021786E-5
2.6448131E-5
-1.9787232E-5
-7.000369E-5
-7.171613E-5
-1.5076832E-4
-3.4440844E-4
-3.817301E-4
-3.5777182E-4
-3.493077E-4
-2.9430198E-4
-1.0877282E-4
2.7142938E-5
-8.4579944E-5
-1.0576513E-4
-2.8543425E-5
5.7855726E-5
1.8594132E-4
2.351015E-4
3.8162203E-4
5.0704693E-4
6.157482E-4
7.27657E-4
5.807913E-4
5.952934E-4
5.263231E-4
3.956076E-4
4.709021E-4
-5.608818E-4
-0.0012670947
2.2837734E-5
7.598356E-4
7.3519273E-4
7.3774136E-4
-6.279628E-4
-0.0013551487
-2.4182224E-4
-3.1039765E-4
-0.0012733596
-8.4329426E-4
-1.7262074E-4
-4.176059E-4
-6.252363E-4
-3.31787E-4
-5.7382993E-5
-1.1167472E-4
-2.2715387E-4
-1.4275171E-4
-1.8647556E-6
1.1501345E-4
2.536851E-4
4.1049352E-4
4.9949944E-4
3.9342386E-4
2.9138822E-4
2.3780482E-4
6.350582E-5
3.716234E-5
1.6079022E-4
2.2607154E-4
3.1282706E-4
2.495808E-4
1.07302294E-4
1.05055566E-4
3.966909E-5
-1.9595438E-5
-5.16845E-5
-1.8138345E-4
-1.7071496E-4
-6.9806534E-5
7.4377813E-6
8.324931E-5
2.0514864E-5
3.585799E-5
1.5872884E-4
1.1444749E-4
2.7144028E-5
-2.4666184E-5
-3.4709836E-5
-3.1976502E-5
-4.894563E-5
1.3427923E-5
2.7774657E-5
8.643074E-6
3.0199853E-6
-2.3024046E-5
-1.2227372E-5
-1.14341536E-4
-1.0626699E-4
-5.3098527E-5
-1.4003886E-4
1.3797174E-4
1.468132E-4
-3.8450153E-4
-4.3486047E-4
-2.706969E-4
-2.7474665E-4
-2.6913223E-4
-1.901333E-4
-9.4140145E-5
-2.064265E-4
-2.5467349E-5
2.5415633E-4
2.6020827E-4
3.1605948E-4
8.814131E-5
1.521502E-4
-2.1665636E-4
-0.0016880577
-0.0012595026
3.7721283E-4
5.3765875E-4
5.470822E-4
6.465733E-4
4.8643784E-4
4.6312663E-4
2.565791E-4
2.391805E-4
2.3987523E-4
2.0682884E-4
3.5487555E-4
2.985033E-4
3.639234E-4
3.0928475E-4
1.2989987E-4
1.7663868E-4
3.0785257E-5
1.0529055E-6
7.2583234E-6
1.7338172E-4
7.2097035E-5
-0.0011809109
-0.0010259525
3.3892214E-4
2.5122467E-4
3.0133824E-4
-2.4172563E-4
-0.0019010608
-0.001274699
1.8153456E-4
1.777515E-4
1.4652776E-4
2.1568281E-4
2.124982E-4
2.6527877E-4
1.471696E-4
1.4000807E-4
3.4332614E-5
-1.1661907E-4
4.5774774E-5
1.8393074E-4
1.9307791E-4
2.3738768E-4
2.5635987E-4
1.603508E-4
3.298761E-5
-2.124925E-5
-8.765336E-5
-1.2387367E-4
-6.796004E-5
6.3526936E-6
9.11759E-5
1.0770803E-4
1.3076073E-5
-5.2460382E-5
-6.045586E-5
-1.292539E-4
-1.4816519E-4
-6.529394E-5
-6.9124835E-5
3.9618015E-5
2.5782525E-4
2.1712793E-4
1.8231441E-4
2.572346E-4
1.3860597E-4
-3.4919256E-5
-1.0437122E-4
-8.0128964E-5
-3.8386464E-5
-4.210453E-5
-2.0970225E-5
-5.112256E-5
-5.062585E-5
-1.5467194E-5
-1.07184496E-4
-1.6588146E-4
-2.4150945E-4
-2.8159117E-4
-1.3170244E-4
-4.6299057E-5
1.2757501E-4
3.225383E-4
1.8903129E-4
9.170898E-5
1.5021753E-6
-1.5257826E-4
-8.457111E-5
-3.366145E-5
7.3551564E-5
2.453555E-4
1.9884184E-4
1.439464E-4
2.1731645E-5
-1.3213213E-4
-1.8737164E-4
-3.094861E-4
-2.8752102E-4
-2.3322075E-4
-2.854508E-4
-2.04709E-4
-1.1924385E-4
-3.6777947E-5
1.2354158E-5
-3.5405334E-5
-2.9259854E-5
-8.4522704E-5
-1.4147712E-4
-6.1602E-5
5.6940746E-5
1.3453553E-4
1.393347E-4
1.7105005E-4
2.5500476E-4
3.5792726E-4
3.6855353E-4
3.2690202E-4
3.509212E-4
3.020357E-4
3.8811617E-4
4.167117E-4
4.6039314E-4
7.1478327E-4
1.2555927E-6
-5.0903676E-4
-1.6777018E-4
-9.796942E-4
-7.0346874E-4
5.5770297E-4
-7.5999903E-4
-0.001520407
-4.5897395E-5
7.066142E-4
7.002459E-4
4.2198805E-4
1.3908295E-5
-7.278066E-4
-0.0017079738
-0.0011622923
-1.0075807E-4
1.0621145E-5
1.8544165E-4
3.0917293E-4
2.4168524E-4
3.304803E-4
2.727555E-4
1.6266797E-4
1.0828466E-4
9.061066E-5
1.0338833E-4
1.9638229E-4
3.565063E-4
3.5352644E-4
3.122079E-4
1.5831545E-4
-3.701336E-5
4.3132677E-5
8.722142E-6
-7.264906E-5
-3.6898148E-6
-4.3109172E-5
1.850974E-5
7.7304634E-5
-1.5152019E-5
-3.297149E-5
-4.249044E-5
-3.1497937E-5
-4.520097E-5
-8.625049E-5
-5.8658676E-5
-6.278484E-5
6.9054164E-5
2.3801447E-4
1.7270718E-4
5.4261014E-5
-7.879808E-5
-1.8633093E-4
-2.4943735E-4
-3.2522134E-4
-2.6994053E-4
-1.8065481E-4
-5.7856083E-5
6.80138E-5
6.263137E-5
8.8116074E-5
1.5824313E-5
7.685344E-6
-5.384305E-5
-5.622577E-4
-4.4763653E-4
1.16381554E-4
1.2545731E-4
3.029569E-4
2.5173285E-4
-2.6261876E-4
-1.1095781E-4
1.6852374E-4
3.3038694E-5
-5.818432E-5
-3.0983916E-5
2.6376043E-5
5.29092E-5
1.6901217E-4
1.5747591E-4
2.3985938E-5
8.045987E-5
1.2819882E-5
-7.935831E-5
-4.877937E-5
-4.2599026E-5
9.375451E-5
2.170007E-4
2.4268492E-4
2.4372475E-4
2.6453446E-4
2.2425436E-4
7.921142E-5
1.8861787E-5
-1.8468559E-4
-2.374397E-4
-4.145687E-5
5.1982497E-6
2.8574144E-4
2.5035802E-4
2.0131787E-4
3.5007962E-4
-8.60369E-4
-0.0012877876
-6.7402005E-5
1.5877704E-4
3.5130943E-4
1.426145E-4
-0.0011968174
-8.573084E-4
2.5696843E-4
2.6623448E-4
1.9120374E-4
8.847381E-5
-1.8866058E-5
6.698297E-5
8.4444386E-5
2.6686557E-4
3.5350956E-4
1.0523105E-4
3.757049E-5
1.0892727E-4
4.612959E-5
5.4875447E-5
2.815554E-5
1.1197907E-4
3.7014688E-4
4.2555822E-4
7.3064683E-4
2.8529207E-4
-0.0013829251
-0.0012780768
1.3758933E-4
1.4806379E-4
-1.0563796E-4
-1.2703684E-5
-1.0538128E-4
-1.8273922E-5
1.25005545E-5
8.852383E-5
1.6828983E-4
-6.958388E-6
6.1933765E-6
1.8273075E-5
-3.262918E-5
1.1950013E-4
1.27689955E-5
-1.5370855E-4
1.1758437E-4
3.2280877E-4
2.972495E-4
3.1154373E-4
1.9399104E-4
-1.4804262E-6
-1.1532934E-4
-1.6039838E-4
-5.4977405E-5
2.9295112E-5
1.5921065E-5
-5.58284E-7
-8.572695E-5
-1.5464383E-4
-2.1138763E-4
-2.8362015E-4
-2.0332423E-4
-6.8142035E-5
-5.7118177E-6
6.508927E-5
1.00060905E-4
9.884735E-5
1.6350579E-4
1.18106334E-4
-3.8498798E-5
-6.039943E-5
-1.2698611E-4
-2.3390565E-4
-1.7457434E-4
-7.180332E-5
2.483875E-5
-4.0430918E-5
-2.3847175E-4
-2.7373302E-4
-2.4331339E-4
-2.5407353E-4
-2.6940418E-4
-1.7292092E-4
-1.8056897E-6
7.611014E-5
2.312665E-4
3.102209E-4
2.295217E-4
2.7658392E-4
2.5964685E-4
1.6088807E-4
1.4351311E-4
2.1219997E-4
3.5547544E-4
4.607767E-4
5.8418675E-4
5.4462714E-4
4.5446403E-4
4.8793285E-4
3.4020573E-4
4.071752E-4
-9.153554E-5
-0.0013806638
-8.873584E-4
4.3969502E-4
4.378913E-4
6.3581945E-4
7.309585E-5
-0.001798684
-0.0013903345
1.3793149E-4
-6.6018826E-4
-0.0016173272
-9.626643E-4
-2.2332507E-4
1.5300041E-4
3.0767123E-4
2.8122833E-4
2.7824528E-4
9.9620345E-5
-4.6552605E-6
8.411053E-5
1.3131405E-4
2.5833264E-4
3.7490728E-4
4.5266034E-4
4.434427E-4
3.3624234E-4
3.4274952E-4
2.48943E-4
1.1347308E-4
9.34777E-5
8.819601E-5
1.5845377E-4
1.6082072E-4
2.1790212E-4
2.8059274E-4
9.6864525E-5
-4.939073E-5
-2.1692946E-4
-3.857922E-4
-4.125137E-4
-3.4933552E-4
-1.05966894E-4
2.5227126E-5
1.4263751E-4
2.680617E-4
1.5863379E-4
1.7500418E-4
1.5116273E-4
1.8652089E-4
1.6961008E-4
-1.18732896E-4
1.9855973E-4
-1.4572649E-4
-0.0014602179
-0.0010454804
1.9237406E-4
1.9769874E-4
-3.7052647E-5
-2.2961214E-5
-1.8229213E-4
-1.2569671E-4
4.84888E-5
-4.063718E-4
-4.906446E-4
2.537511E-4
2.8393292E-4
5.657748E-5
2.436733E-4
1.9807278E-4
7.760788E-5
-2.4874395E-4
-3.211556E-4
1.8921899E-4
3.1481794E-4
2.7266715E-4
2.950355E-4
1.153532E-4
3.6960955E-5
-4.4594657E-5
-1.138904E-4
-1.324077E-4
-1.6374419E-4
5.3980966E-5
2.3801641E-4
1.7257164E-4
1.6375615E-4
1.1595326E-4
-1.8424845E-6
7.435581E-5
5.311978E-5
-8.5440224E-5
1.149167E-6
2.0387186E-5
1.3419194E-4
3.167655E-4
1.434945E-4
6.894447E-5
2.1038984E-5
-1.29124155E-5
1.7403197E-5
-2.5863123E-5
2.945529E-4
-3.73575E-4
-0.0013098114
-2.385265E-4
4.167302E-4
2.5889557E-4
2.5493538E-4
-0.001235629
-0.0017002934
-2.2419979E-4
1.4947228E-4
1.1216667E-4
3.3899376E-4
2.0812472E-4
1.7465281E-4
1.648344E-4
1.414441E-4
1.7240069E-5
-6.267262E-5
1.387697E-4
2.5941883E-4
4.0796472E-4
4.608324E-4
3.8017123E-4
4.1816663E-4
2.6692887E-4
1.4376841E-4
1.3091983E-4
-5.8108493E-5
-1.5138382E-4
-1.3375246E-4
-5.3779775E-5
7.549502E-5
6.087809E-5
-2.389646E-5
-1.2675005E-4
-1.8668972E-4
-2.1789248E-4
-3.3422757E-4
-3.55314E-4
-2.341219E-4
-5.955309E-5
8.951545E-5
6.0607774E-5
9.922172E-6
4.129262E-5
1.1003445E-5
-5.243585E-5
-1.0855138E-4
-1.1185819E-4
-9.147128E-5
-1.0293884E-4
3.9787887E-5
1.7473295E-4
1.0159803E-4
1.0973089E-4
2.0039522E-4
1.1385599E-4
-1.1308449E-4
-8.922369E-5
8.0862825E-5
-1.654895E-4
-1.9007303E-4
2.8180145E-4
2.825945E-4
9.959427E-5
9.230223E-5
-1.2847614E-5
-1.8296494E-5
-9.9038654E-5
-1.1640118E-4
3.2641292E-5
1.0143971E-4
2.7600848E-4
1.631775E-4
3.881169E-5
1.3585838E-4
-9.9180375E-5
2.1856971E-5
-3.847093E-4
-0.001526114
-8.6016324E-4
2.538129E-4
1.1725719E-4
2.2416376E-4
1.9403161E-4
-1.2896598E-4
-1.3190164E-4
-2.14004E-4
-3.2651464E-5
1.608129E-4
1.10571265E-4
2.7760095E-4
3.003226E-4
2.3564501E-4
2.2634552E-4
5.9325743E-5
6.757719E-5
1.8907424E-4
2.595426E-4
4.0074857E-4
5.086282E-4
7.246492E-4
5.473274E-4
-6.529897E-4
-9.753341E-4
2.748101E-4
5.632952E-4
4.2191285E-4
4.927615E-4
-0.0011217627
-0.0017767523
-1.443054E-4
4.5227617E-4
2.1540378E-4
-4.922231E-4
-0.0015414912
-8.111695E-4
7.974303E-5
-1.2752168E-4
1.6665257E-6
8.388699E-5
1.3162152E-4
3.0925125E-4
2.3206284E-4
2.7698412E-4
1.9603632E-4
7.3150927E-6
-4.2062853E-5
-1.25779E-4
-5.180733E-5
7.740544E-5
2.3245388E-4
4.041383E-4
3.767555E-4
3.027248E-4
1.8359948E-4
7.04755E-5
-2.6794267E-5
-1.3619725E-4
-9.072754E-5
-3.847376E-5
5.7029745E-5
1.1610312E-4
2.639042E-5
6.849824E-5
2.803345E-5
-7.161293E-5
-1.4410629E-4
-3.1444224E-4
-2.0019067E-4
3.0533953E-5
1.8827838E-4
3.173185E-4
2.542242E-4
2.300811E-4
7.244429E-5
-1.8060805E-4
-2.1229155E-4
-2.873085E-4
-2.8497874E-4
-2.2500803E-4
-9.002103E-5
1.1419772E-4
2.6954125E-5
9.4597664E-5
-5.13898E-5
-4.5237422E-4
-1.2438743E-4
-6.4278014E-5
-3.2243383E-4
-2.0274138E-5
1.04744184E-4
2.4563374E-4
2.0379019E-4
-3.1447338E-4
-1.975832E-4
1.4471376E-5
-1.9403125E-4
-2.0792507E-4
-2.2633688E-4
-1.7368009E-4
-3.4875724E-5
6.699534E-6
1.06039224E-4
1.2322416E-4
1.2255344E-4
1.1163629E-4
5.343185E-6
1.9378924E-5
1.3478403E-4
3.092135E-4
4.4619315E-4
4.1776683E-4
3.5729067E-4
3.187747E-4
2.4779292E-4
1.0547774E-4
2.3512799E-5
1.1855277E-4
2.1604421E-4
1.988756E-4
2.397378E-4
4.438746E-4
5.5984606E-4
6.5208384E-4
3.0332123E-4
-0.0011856346
-0.0019965102
-9.686267E-4
1.6639115E-4
6.26601E-4
-2.6993794E-4
-0.0018939007
-0.0013353245
2.4119747E-4
3.499377E-4
1.0496057E-4
7.5402335E-5
-4.5748562E-5
-8.3720755E-5
-6.1824634E-5
1.5306837E-4
2.423511E-4
1.8918929E-4
2.532674E-4
1.6477272E-4
1.7084472E-4
2.20438E-4
3.6010755E-5
5.4797994E-5
2.4384753E-4
3.730578E-4
4.5729877E-4
4.0553228E-4
2.5979654E-4
5.2628766E-5
-1.17586715E-4
-1.9416351E-4
-2.30804E-4
-1.9449978E-4
-1.0078294E-4
2.3915964E-5
1.6537346E-5
-2.2717535E-5
1.10116234E-4
1.6223863E-4
1.4652002E-4
3.812787E-5
-1.7458352E-4
-1.3985072E-4
-3.2921922E-5
7.2149465E-5
1.8651337E-4
1.4486304E-4
1.5666745E-4
4.883633E-6
-2.6993567E-4
-3.6268838E-4
-4.3030182E-4
-2.9682068E-4
-1.5779946E-4
-3.3596778E-5
7.467516E-5
-3.6677008E-4
-4.0845564E-4
1.14695285E-4
1.0730522E-4
4.3833013E-5
4.9926442E-5
-3.0937994E-5
-8.202258E-6
-2.0334093E-4
-1.16982366E-4
2.7170032E-4
2.2766239E-4
2.985704E-5
-6.354802E-5
-1.1263842E-4
-8.6830856E-5
-5.7894813E-6
8.2335355E-5
9.292126E-5
1.3226336E-4
1.5619943E-4
1.294042E-4
9.828475E-5
-4.5872635E-5
-1.9609004E-4
-4.7396155E-4
-9.929993E-4
-0.0014896312
-0.002022685
-0.002685602
-0.0032970065
-0.0036448578
-0.0034446472
-0.002683979
-0.001636577
-5.0032506E-4
7.628454E-4
0.0020599847
0.0034501983
0.004631627
0.0052865734
0.0057445876
0.0054502133
0.0041901446
0.002175215
-0.0015181918
-0.0050935475
-0.006940187
-0.00938553
-0.011702544
-0.012783366
-0.013197119
-0.010343769
-0.005297289
-6.172153E-4
0.0047522727
0.010169549
0.015073319
0.018981857
0.0208299
0.020866027
0.01871771
0.014861632
0.0095802555
0.0030068362
-0.0039032055
-0.0110868
-0.017123578
-0.021394258
-0.023659743
-0.023234999
-0.021765402
-0.018064504
-0.010474616
-0.0015085706
0.006727457
0.014465817
0.021391315
0.025326882
0.026553899
0.024807792
0.018516334
0.009827073
-0.0018847826
-0.015414215
-0.028437704
-0.042617008
-0.042726852
-0.0205846
-0.0022583455
0.0074944547
0.020885695
0.019419387
0.002714402
-0.010919003
-0.022989862
-0.021990687
-0.0025275492
0.019986412
0.02731724
0.0020102079
-0.024747083
-0.031880476
-0.047942616
-0.0554246
-0.034183897
0.0041579492
0.043344773
0.051326502
0.0549211
0.08367494
0.09492444
0.06795849
0.008598066
-0.056997444
-0.09261065
-0.08536556
-0.031089965
0.016407594
0.020614257
0.02011599
0.022394108
0.03945631
0.06171397
0.027911117
-0.03184182
-0.053201854
-0.035771772
-0.0028234147
0.008604524
-0.0018981273
-0.0046498124
-0.0072214077
-0.01712679
-0.023769286
-0.02529693
-0.01749285
-0.0036803253
0.0033973155
0.0036965273
-4.247992E-4
-5.9300853E-4
0.002212647
-0.010046605
-0.012789035
0.0077170837
0.01338035
0.009746209
0.013975788
0.014841462
0.017904555
0.022961197
0.026277652
0.023000738
0.0056158435
-0.011638663
-0.022714932
-0.025420956
-0.01605395
-0.006729187
0.0056237346
0.020099742
0.021668391
0.0128341075
-1.3295302E-4
-0.008115632
-0.0040435474
0.004827102
0.015126489
0.022615837
0.01990153
0.013223875
0.010765731
0.007505133
-0.0025888728
-0.015583485
-0.020678615
-0.011865184
0.0010644532
0.007401984
0.008760304
0.006702239
0.0011998456
-0.004952745
-0.011727705
-0.022207733
-0.031345855
-0.02625622
-0.009823772
0.0026104013
0.007963415
0.01060437
0.01094056
0.006592532
-0.003988559
-0.016414743
-0.019947262
-0.008819742
0.008447042
0.01863765
0.019204939
0.016796444
0.013013137
0.0052431654
-0.0041285693
-0.010698171
-0.009030471
-4.655134E-4
0.0049131163
0.0059903436
0.006660215
0.007592627
0.009545876
0.007418312
-0.0041500055
-0.021243567
-0.031990815
-0.026124574
-0.011522442
-0.0036305792
-0.002107609
-0.0032242262
-0.009312657
-0.01406783
-0.013549419
-0.012506465
-0.004788259
0.014074658
0.033760656
0.04529161
0.048093624
0.04844553
0.048052788
0.04004128
0.020007795
-0.008694829
-0.030775657
-0.03512835
-0.02704132
-0.017315153
-0.014981825
-0.015706806
-0.01422741
-0.0119739
-0.0044072205
-0.0012128177
-0.009745577
-0.0097897155
0.006474933
0.01773173
0.0059014834
-0.01705672
-0.037704624
-0.057063505
-0.055261794
-0.02911944
-0.0067014857
0.010146877
0.024651192
0.030512717
0.03181982
0.028672276
0.021942737
0.014134271
0.0047220592
-0.0035827118
-0.010621838
-0.015359571
-0.01682751
-0.016067257
-0.012075243
-0.0063505745
6.134064E-4
0.008462467
0.015334206
0.02137031
0.025292084
0.027201392
0.02673903
0.02273529
0.017958252
0.012139293
0.0046557896
-0.002472769
-0.009590012
-0.0156626
-0.019651124
-0.02210452
-0.022561783
-0.021273078
-0.018479843
-0.014422628
-0.0097852675
-0.0049825474
-6.276757E-4
0.0029666638
0.005600499
0.007153844
0.007515104
0.006552998
0.0048716376
0.002914626
9.002966E-4
-8.161781E-4
-0.002244384
-0.0031503686
-0.0033151442
-0.0028237856
-0.0017970931
-5.233418E-4
8.912704E-4
0.0024715974
0.0039678016
0.005216563
0.006095477
0.0063792192
0.006255866
0.0057829814
0.005211158
0.0048468225
0.004468443
0.0041739093
0.0037258957
0.003221121
0.002972623
0.0025218553
0.0023637845
0.0016304225
-8.857085E-5
1.3822623E-4
0.0014178562
0.0013427065
0.0012398578
0.00124117
9.995395E-4
9.2648296E-4
8.127019E-4
8.3617005E-4
7.6273957E-4
6.4857217E-4
6.303555E-4
4.746008E-4
4.662107E-4
3.4735163E-4
2.5358106E-4
2.9416475E-4
1.5476516E-4
2.135675E-4
2.877198E-4
3.9058935E-4
3.4349735E-4
2.6003903E-4
4.1337116E-4
-8.4662E-4
-0.0015624962
-5.514011E-5
3.220671E-4
3.2141447E-4
3.5454414E-4
-0.0013940712
-0.0018702887
-5.710872E-4
7.559861E-5
-4.4344275E-4
-0.0015843043
-0.001106346
7.421912E-5
8.9859095E-5
2.5787237E-4
2.3113396E-5
-5.738081E-4
-3.2488036E-4
-1.4322822E-4
-1.0937703E-4
-7.488794E-5
-2.0467908E-4
-1.426605E-4
-1.3724541E-4
-4.983166E-5
8.871882E-5
-1.8043414E-5
-1.3249606E-5
-5.857281E-6
-4.5227676E-5
-1.4133861E-5
-1.19820936E-4
-1.8328312E-4
-1.6020266E-4
-1.787534E-4
-1.6375945E-4
-2.0619134E-4
-2.8453404E-4
-2.9269117E-4
-2.8305507E-4
-2.7985047E-4
-2.7233578E-4
-2.4341214E-4
-2.1119995E-4
-2.2400454E-4
-2.451487E-4
-2.2491004E-4
-1.943972E-4
-1.4935395E-4
-1.2731418E-4
-2.1433401E-4
-2.5004902E-4
-2.3285163E-4
-2.9113452E-4
-2.606104E-4
-2.7387912E-4
-3.6275998E-4
-3.0531955E-4
-3.2211188E-4
-3.2906272E-4
-2.4444924E-4
-2.715603E-4
-2.0801852E-4
-1.8674458E-4
-2.1474293E-4
-8.309306E-5
-7.136078E-5
4.855309E-6
4.526523E-5
-8.457978E-5
-4.3857926E-7
-3.4774793E-4
-7.744228E-4
-3.2775363E-4
-7.809757E-5
-2.0433796E-4
-2.4193725E-4
-5.768609E-4
-5.449093E-4
-1.7242358E-4
-1.9023281E-4
-1.1498609E-4
7.5022617E-6
-9.1011745E-5
-4.676058E-6
1.6097455E-4
1.9194101E-4
1.7384534E-4
1.2647579E-4
4.8783717E-5
-3.9562732E-5
1.4078942E-6
9.6620715E-5
6.9278554E-5
1.2406398E-4
2.5137115E-4
2.4545583E-4
2.6202836E-4
3.1945278E-4
3.2388975E-4
4.3684244E-4
1.1617566E-4
-0.0013903813
-0.0023678234
-0.0010929367
3.295461E-4
5.767882E-4
4.229038E-4
-9.446192E-4
-0.0021672589
-0.0010700716
9.3583476E-5
2.9555207E-5
-4.551208E-6
-2.5366346E-5
1.526152E-5
1.5612916E-4
9.520799E-5
1.20436795E-4
1.2607545E-4
7.049351E-5
1.2238762E-4
9.780324E-5
1.1953405E-4
2.2293464E-4
2.0939302E-4
1.9297478E-4
1.966073E-4
9.1723436E-5
-2.490865E-5
-9.125884E-5
-2.1955521E-4
-3.4059677E-4
-3.7053108E-4
-3.2757234E-4
-1.7207387E-4
-1.2708783E-4
-2.817695E-4
-2.8519644E-4
-1.3427595E-4
-1.0992602E-4
-1.5586255E-4
-8.822965E-5
3.528809E-6
3.551565E-5
1.3694167E-4
1.814638E-4
1.0241605E-4
1.0544782E-4
9.688178E-5
7.837489E-5
5.7234272E-5
-6.3572115E-5
-4.1255695E-5
-1.9169627E-5
-1.1113474E-4
-6.832048E-5
-8.5368745E-5
-1.0304231E-4
-2.4357569E-4
-6.607439E-4
-4.7637333E-4
5.483588E-6
-7.1930306E-5
-9.740902E-5
-1.4374152E-4
-3.725203E-4
-1.1469762E-4
1.1993346E-4
1.4438526E-5
1.1653644E-5
-4.9451974E-5
-7.208841E-5
-7.387843E-5
-1.606393E-4
-9.178443E-5
-1.4304413E-4
-1.3896619E-4
2.2956292E-5
-7.625614E-5
-9.6113115E-5
-8.064354E-5
-1.0457329E-4
2.6458863E-5
2.4525189E-5
6.146378E-5
2.6818065E-5
-1.9350218E-5
1.2799905E-4
-2.865051E-6
-3.697311E-5
-5.166957E-5
-1.6158306E-4
3.6048605E-5
-3.7297454E-5
1.1898957E-5
1.7169058E-4
3.862323E-5
1.8902564E-4
1.5922451E-4
2.380641E-4
2.794339E-4
7.020856E-5
3.4214207E-4
-5.4705306E-4
-0.0013242045
-1.6939154E-4
3.4994437E-4
2.5018243E-4
2.006535E-4
2.1592373E-4
2.8076713E-4
-9.904417E-4
-0.0011783192
3.4930574E-4
5.7149545E-4
1.20406134E-4
4.4418997E-5
1.0535224E-4
-6.095138E-4
-0.0013942941
-4.474768E-4
1.4015353E-4
2.7171738E-5
2.1581452E-4
-7.55438E-5
1.5253146E-4
4.2822288E-4
4.180071E-4
8.2683095E-5
-0.0012474091
-9.052009E-4
3.6285116E-4
2.0608424E-4
2.567395E-4
3.1083717E-4
1.7225448E-4
3.0247704E-4
1.3414994E-4
1.3286302E-4
1.13990114E-4
2.0800459E-5
-1.805265E-6
-1.1652338E-4
-4.2169668E-5
-1.4045126E-4
-1.2208942E-4
3.5788256E-5
-8.535195E-5
1.7584354E-5
-9.717481E-6
-1.4868173E-4
-2.6511838E-5
4.3723616E-5
1.1481808E-4
-8.351519E-6
-9.803551E-5
2.5628773E-5
7.957382E-6
4.6256686E-5
5.251195E-5
-3.2179444E-6
-3.6631885E-5
-9.8152894E-5
-4.241039E-5
-2.0811149E-5
3.1702664E-6
1.8295093E-5
8.470873E-5
1.3822514E-4
-5.648711E-6
2.1031778E-4
-1.5102889E-4
-0.0011621262
-6.918001E-4
7.885977E-5
-7.0183094E-5
1.7562392E-5
-2.2222709E-4
-5.44166E-4
-1.3759253E-4
-2.2856624E-5
-1.7636432E-4
-6.745694E-5
-3.7518734E-5
-2.6229056E-5
1.608709E-5
5.171183E-6
1.03642014E-4
2.2271003E-4
2.4914413E-4
2.4322483E-4
2.2634538E-4
2.6712051E-4
2.932058E-4
2.723198E-4
2.904476E-4
2.5302704E-4
1.6276306E-4
8.600834E-5
1.0154928E-4
1.21304474E-4
7.149216E-5
1.9504277E-4
1.840353E-4
2.5457275E-4
2.621384E-4
-8.597396E-4
-0.0010630027
2.4766134E-4
3.8671985E-4
3.7558097E-4
1.1430985E-4
-0.0016879987
-0.0017163231
-4.8748076E-5
3.0982355E-4
1.5639442E-4
1.4066456E-4
4.9376788E-5
6.46081E-5
-2.1078597E-5
-4.2986026E-6
-2.3001916E-5
-1.5162947E-4
-4.139372E-5
9.2414644E-5
1.2325519E-4
4.8600952E-5
-4.835358E-5
5.491974E-5
6.990794E-5
-5.2889056E-5
-1.1904611E-5
6.0376096E-5
1.07288826E-4
1.3186526E-4
2.1935854E-5
-2.6710142E-5
4.3081312E-5
5.0170132E-5
-6.1793E-5
-1.2274325E-4
-9.945024E-6
1.8743642E-5
5.0468516E-5
1.3675167E-4
1.1645061E-4
3.0839903E-4
3.4705974E-4
1.7007808E-4
2.583781E-4
1.4754628E-4
1.5817287E-4
2.782569E-4
1.527834E-4
4.337346E-4
-9.527516E-5
-0.0012561781
-6.6436833E-4
3.277425E-4
1.6756373E-4
1.3442339E-4
2.8124574E-4
-3.1568346E-4
-8.9912786E-4
-4.304224E-4
-1.2323506E-5
-1.6545427E-4
-1.994581E-5
-2.0966318E-4
-5.410139E-4
-1.0186916E-4
1.259724E-4
-3.2760625E-5
6.0206938E-5
1.05939485E-4
1.1701806E-4
1.8639555E-4
1.5069742E-4
1.5179132E-4
1.3106033E-4
-3.9992025E-5
-1.2837573E-4
-1.1982946E-4
-1.5022475E-4
-9.917192E-5
2.4646739E-5
7.2966395E-5
1.5302914E-5
-3.74443E-5
5.51856E-6
3.3172837E-5
2.3877224E-6
1.0160203E-6
8.647523E-5
1.709562E-4
2.0571965E-4
2.4508708E-4
1.9607994E-4
2.0097071E-4
2.573107E-4
2.2050775E-4
2.6371397E-4
2.2846818E-4
2.773765E-4
3.3538803E-4
2.0454315E-4
4.661916E-4
-1.039044E-4
-0.001250449
-4.6515148E-4
4.291588E-4
2.6540202E-4
6.2242773E-4
-1.3533159E-4
-0.00158103
-8.4797275E-4
2.2916803E-4
-7.0339546E-4
-0.0015858109
-7.008667E-4
1.9127928E-4
1.1625322E-4
6.721932E-5
1.4713946E-4
2.1290954E-4
2.671264E-4
2.1960364E-4
2.6130132E-4
2.4403309E-4
1.9180194E-4
2.2097692E-4
2.1005487E-4
2.2381317E-4
2.2591605E-4
2.5509993E-4
2.5181446E-4
1.5950947E-4
1.2310469E-4
1.2391263E-4
1.9107413E-4
5.294879E-5
-1.6484204E-4
-1.2802135E-4
-3.5024178E-4
-4.5681492E-4
-1.06245076E-4
-1.7741575E-5
-3.1356398E-5
3.4105604E-5
1.3301435E-5
3.1522995E-5
2.1357928E-5
-3.9397855E-6
8.641837E-6
1.5006991E-4
2.2682636E-4
9.211522E-5
1.0543183E-4
1.3041933E-4
1.3103518E-4
1.8246984E-4
1.06885665E-4
1.0091822E-4
2.04323E-5
-8.867727E-7
1.1674309E-4
2.5197607E-5
9.181468E-5
-1.2716724E-4
-6.497189E-4
-4.4213043E-4
-8.685044E-5
-2.2427077E-5
-8.244628E-5
-4.269149E-4
-4.5012913E-4
-2.530711E-5
1.9076193E-4
2.3810147E-5
9.705411E-6
1.4833575E-4
6.4932756E-5
3.371037E-4
-2.388092E-5
-0.0014120182
-0.0010837199
2.6817372E-4
3.0057746E-4
2.5047205E-4
4.230906E-4
1.6952852E-4
1.08752814E-4
1.7296191E-4
1.642308E-4
1.6854229E-4
1.7174035E-4
2.491635E-4
2.1404988E-4
2.2114691E-4
3.0095153E-4
1.5021068E-4
1.2143645E-4
1.7131765E-4
1.6042504E-4
2.9369033E-4
2.3749782E-4
2.801591E-4
3.650442E-4
3.1832242E-4
4.561505E-4
-6.248015E-4
-0.0015156494
-1.4950268E-4
3.7784452E-4
1.8627582E-4
4.0229879E-4
-0.001174602
-0.0018026842
-1.0022789E-4
5.938304E-4
4.869837E-4
5.7233096E-4
3.436852E-4
-6.399465E-4
-0.0016122853
-8.635615E-4
2.3187845E-4
2.817906E-4
2.209195E-4
1.373486E-4
1.433293E-4
1.6978635E-4
2.9978908E-5
1.2433322E-4
2.1100794E-4
1.9815822E-4
1.14158225E-4
1.1219589E-5
1.0848365E-4
1.3303381E-4
9.286243E-5
2.6301826E-5
-1.5895937E-5
1.3524422E-4
1.7424225E-4
1.6294351E-4
1.8661206E-4
9.638766E-5
2.9136767E-5
2.4967607E-5
8.729868E-5
7.867971E-5
1.400663E-5
5.2774263E-5
6.94294E-5
1.1583283E-4
1.3818633E-4
1.33266E-4
1.8750281E-4
6.3057996E-5
-5.4296284E-5
-6.970383E-5
-2.0333813E-4
-2.396034E-4
-1.4494431E-4
-9.6695214E-5
-1.6201314E-4
-2.6238078E-4
-1.9016663E-4
-1.3488521E-4
-1.6470863E-4
-1.1699916E-4
-8.937482E-5
9.164123E-5
7.82418E-5
-4.536521E-4
-3.4054296E-4
2.0144359E-4
8.2551815E-5
6.8147434E-5
-8.57803E-5
-6.0220226E-4
-2.5826774E-4
1.3402193E-4
1.5906237E-5
1.5622872E-4
1.4034529E-4
6.173119E-5
1.2397143E-4
4.3587595E-5
9.437262E-5
1.4090147E-4
6.8726695E-5
8.570525E-5
2.3830892E-4
3.5926208E-4
2.6667808E-4
2.7799045E-4
2.810712E-4
1.7671766E-4
2.4141333E-4
1.7502869E-4
1.0424657E-4
1.7648499E-4
2.306305E-4
2.8565945E-4
1.39697E-4
1.5259563E-4
2.7671573E-4
1.9416878E-4
3.3328202E-4
2.1492739E-5
-0.0012382348
-0.0020695208
-0.0011847835
2.6804607E-4
5.2272715E-4
6.075424E-4
2.0667413E-4
-0.0016484875
-0.0017576576
-8.472111E-5
2.9665147E-4
1.8772134E-4
2.7302036E-4
2.3369203E-4
3.6451672E-4
2.8397536E-4
2.1812295E-4
2.5313935E-4
2.2312824E-4
3.2684146E-4
2.8166236E-4
2.6336842E-4
3.6656213E-4
2.9305374E-4
1.6114122E-4
7.465394E-5
1.7892999E-4
2.0089549E-4
1.3435285E-6
-2.3620645E-5
-4.5037872E-5
-1.09841334E-4
-1.4527455E-4
-2.1138815E-4
-1.5406347E-4
-1.6834623E-4
-1.4603797E-4
-1.32735595E-5
-7.384189E-5
-1.086663E-4
-8.0413454E-5
-3.1980635E-5
5.409278E-5
6.603194E-5
2.1975777E-4
2.999518E-4
2.1629232E-4
2.278464E-4
1.16080955E-4
1.0835E-5
-1.8250914E-5
-8.6331456E-5
-1.1795298E-4
-1.8690914E-4
-1.2118439E-4
-8.314765E-5
-1.0729247E-4
1.0288414E-6
-2.6910868E-4
-4.6697314E-4
-1.4598314E-4
1.0449315E-5
6.757242E-5
1.455261E-4
5.545372E-5
-1.7311152E-4
-2.7741826E-4
9.9615754E-5
2.4666134E-4
3.0447016E-5
1.450172E-4
1.4873566E-4
3.4719793E-5
1.10320616E-4
1.2398712E-4
1.5469671E-4
1.1135027E-4
2.3793988E-5
9.236733E-6
-6.077504E-5
-8.55061E-5
-1.2794114E-4
-1.4867654E-4
-1.0417775E-4
-1.513608E-4
-1.701447E-4
-1.3720607E-4
-7.583084E-5
-5.9449107E-5
-9.575704E-5
-5.4509997E-5
-7.4876414E-5
1.2895699E-5
1.5626421E-4
1.1355537E-4
1.9597197E-4
2.6125403E-4
2.452574E-4
3.2376984E-4
3.6162452E-4
3.3933957E-4
3.1935118E-4
5.285794E-4
-3.007049E-5
-0.0010016916
-8.466263E-5
6.359105E-4
2.5494376E-4
7.5311423E-4
-2.0535405E-4
-0.0012838806
-1.08887696E-4
-3.0258202E-6
-2.370077E-5
5.593567E-4
-7.1526636E-5
-7.426947E-5
-5.9157255E-4
-0.0017341494
-8.1382884E-4
6.47169E-5
5.6748326E-5
1.976528E-4
2.24403E-4
4.667258E-4
4.0875678E-4
4.989649E-4
2.7580743E-4
-0.0011377725
-9.7225857E-4
3.4529803E-4
4.0246875E-4
3.3055752E-4
3.316762E-4
2.0648702E-4
3.13294E-4
1.4975257E-4
1.8015005E-5
9.794028E-5
9.605092E-5
3.1880427E-5
-2.3258757E-5
2.4283956E-5
-3.1286934E-5