0.027747598
-0.031054497
-0.031309295
0.011333393
0.007496445
-0.03902616
-0.066061296
-0.06191774
-0.06760322
-0.023673924
0.11029082
0.1643818
0.082647085
0.004840592
-0.04931124
-0.09785255
-0.08579327
-0.022459598
0.01629358
-0.011141304
-0.05199564
-0.025590055
0.043371055
0.061644323
0.01175239
-0.041314326
-0.07077023
-0.09094885
-0.057247173
0.044345006
0.110693485
0.09678107
0.05370622
0.005864658
-0.006467984
0.009507388
-0.03308418
-0.060012355
0.045923185
0.14430812
0.082757354
-0.0070356447
0.04391884
0.12512276
0.077750936
-0.010718305
-0.066124156
-0.13194548
-0.13204326
-0.046024423
-0.022546075
-0.05574332
-0.027944319
0.015762532
0.0070987763
-0.022856139
-0.0596568
-0.083702184
-0.07383278
-0.06386843
-0.06436843
-0.06895601
-0.050230753
0.04806787
0.1561827
0.1518708
0.063158944
0.004400142
0.025234064
0.058644027
0.024328403
-0.032285154
-0.008529686
0.049697276
0.020414038
-0.008593235
0.08025102
0.15662073
0.10466253
-0.0020363408
-0.053025108
-0.030763086
-0.027089126
-0.080681294
-0.10583611
-0.042263005
0.048354335
0.07388338
0.04344449
-0.003040336
-0.051157083
-0.07398576
-0.08617891
-0.077867635
-0.00871878
0.041380994
0.0017529455
-0.06143913
-0.104240954
-0.12709574
-0.10978865
-0.08844456
-0.06738984
0.04473141
0.19302115
0.22755295
0.17569523
0.12504975
0.07336935
0.014674933
-0.019973703
-0.022525426
-0.035474665
-0.058027007
-0.022357386
0.061724916
0.10036951
0.073072165
0.022659551
-0.036141198
-0.06563177
-0.044524916
-0.042636454
-0.079964474
-0.09761854
-0.09360694
-0.09410645
-0.09074171
-0.076026425
-0.03942244
0.020540085
0.0404632
-0.0055819815
-0.0127642695
0.04466358
0.0402956
4.0654104E-5
0.07621954
0.19503519
0.20919992
0.1745548
0.13405418
0.05571615
-0.009896876
-0.04302513
-0.07552295
-0.08651379
-0.07167565
-0.06970062
-0.091049336
-0.079882436
0.005631743
0.07635503
0.040816247
-0.040519364
-0.09163712
-0.107877895
-0.084276184
-0.0659189
-0.08183686
-0.042063728
0.018612122
-0.01154795
-0.05022876
-0.045372885
-0.03694067
-0.023759149
-0.01927183
0.059826422
0.21344692
0.24520504
0.16903585
0.09525646
0.01653532
-0.0115980785
-0.0029578812
-0.044240966
-0.0729641
-0.027782263
0.0036203708
-0.023867086
-5.651785E-4
0.1049825
0.1580103
0.09580567
0.002785032
-0.047244396
-0.07899031
-0.10579654
-0.10050795
-0.077220514
-0.033406146
0.00867161
0.0015590243
-0.016435277
-0.03207899
-0.056904152
-0.07020576
-0.0825391
-0.06579433
0.005009533
0.05710066
0.038564056
0.0021923257
-0.01697191
-0.04406007
-0.02688354
0.03349704
0.03557628
0.018474398
0.02945836
0.018546887
-0.010097932
-6.293145E-4
0.07090413
0.11130248
0.07585553
0.030083168
-0.023205113
-0.0046500475
0.11432438
0.14477007
0.055994265
-0.013730922
-0.02907554
-0.02430091
-0.023466809
-0.04095897
-0.07641401
-0.09466308
-0.101470545
-0.086116396
0.015789153
0.09793998
0.055387236
-0.020298792
-0.07886334
-0.11243138
-0.11661495
-0.09710826
0.011375771
0.1529943
0.17280112
0.09225163
0.010436812
-0.03535818
-0.032000385
-0.009327678
-0.014476705
-0.055857655
-0.08029681
-0.008691412
0.085376464
0.058998056
-0.0270777
-0.070896775
-0.09279281
-0.10363351
-0.063794665
0.05604283
0.14943025
0.11021928
0.03665268
-0.01764903
-0.06944117
-0.036970876
0.063054554
0.09420212
0.032003995
0.014007868
0.11183405
0.17709422
0.12164718
0.039103907
-0.01917093
-0.0694754
-0.10999641
-0.10377914
-0.055931974
-0.041781493
-0.06268955
-0.0676433
-0.0600919
-0.06005361
-0.06502529
-0.056925315
-0.051512513
-0.06131871
-0.067254364
-0.068678215
-0.00802743
0.12469174
0.17969209
0.12486428
0.07366631
0.040833168
0.011611849
0.032612696
0.073210515
0.049061257
0.0033677004
0.0035413974
0.008668143
-0.0029343192
-0.018761147
-0.047075417
-0.07491929
-0.071618244
-0.027449926
0.0049028504
-0.016653955
-0.03593249
-0.030040536
-0.052492946
-0.07491434
-0.040053863
-0.001328039
0.007214037
0.012734115
0.0019859036
-0.0023951826
0.020553634
0.052920908
0.13367759
0.22016373
0.19486628
0.08901916
0.026776198
0.034852926
0.024870817
-0.03529663
-0.09176194
-0.11716145
-0.10206403
-0.076110825
-0.07305456
-0.07705917
-0.082165524
-0.08115304
-0.065306954
-0.03558705
-0.016819201
-0.029893246
-0.029530767
-0.014893139
0.008640818
0.052399952
0.035368424
0.006729889
0.05893079
0.06944058
0.004150381
0.007992739
0.11235922
0.1758345
0.13210264
0.08410915
0.040688515
-0.027184919
-0.06113851
-0.0841207
-0.0925425
-0.06361409
-0.07222093
-0.09744266
-0.08095654
-0.05729147
-0.04851704
-0.058338407
-0.08096314
-0.054751087
0.08521312
0.23600586
0.21906465
0.09026009
-0.01261878
-0.061474692
-0.010714439
0.09731615
0.13413572
0.09779001
0.045188885
7.5473066E-4
-0.023634337
-0.025038958
-0.0135996975
-0.021543091
-0.05512623
-0.07812608
-0.06341205
-0.04943506
-0.08143248
-0.10591421
-0.098744065
-0.10085384
-0.11423977
-0.1269769
-0.07272048
0.029058242
0.03898113
-5.7561025E-5
-0.008854281
-0.022294786
-0.014397423
0.03533146
0.11300875
0.18467015
0.19007854
0.15049776
0.099168636
0.034802876
-0.027840557
-0.08540284
-0.09059518
0.009966654
0.13179508
0.15020874
0.089624666
0.042907346
0.014433047
-0.020027017
-0.05084765
-0.069555245
-0.069693685
-0.04191635
-0.0050384947
-2.8437646E-5
-0.017413868
-0.043287586
-0.067982584
-0.013923135
0.067779824
0.037903775
-0.041216485
-0.088526234
-0.12923898
-0.1230208
-0.033097934
0.052851632
0.04144562
-0.009309533
-0.029565955
-0.054828368
-0.06807384
-0.054474674
-0.056948233
-0.059281986
-0.04164127
0.0027304385
0.052152943
0.051993903
0.03132627
0.005382204
-0.036142062
0.010369737
0.16609244
0.25476617
0.20172307
0.13290459
0.09274302
0.036927447
-0.007089066
-0.05464059
-0.074201085
0.031882867
0.121951774
0.063327774
-0.016453395
-0.055405106
-0.0806033
-0.07273342
-0.06347036
-0.087978385
-0.11435013
-0.13843983
-0.15694506
-0.08798998
0.029787818
0.035152644
-0.039202157
-0.0666304
-0.029863518
0.036587454
0.06981458
0.059722114
0.02951014
-0.009271609
0.0016704943
0.041856926
0.046253607
0.033699904
0.008094704
-0.029198593
-0.054431032
-0.06381708
-0.02766383
0.074610144
0.16645621
0.15141417
0.073518984
0.017413488
-0.019934693
-0.04372225
-0.07015906
-0.07951784
-0.04486453
-0.044456054
-0.034199536
0.06555888
0.121468976
0.07406918
0.009687165
-0.035920054
-0.057779443
-0.06561122
-0.05427224
-0.01393236
0.0027191115
-0.022419838
-0.03597215
-0.04477344
-0.054192096
0.0024894795
0.07911354
0.089852646
0.069719575
0.038441986
0.013962149
0.013191746
-0.0029462557
-0.018340575
-0.023205673
-0.04454721
-0.076560505
-0.06821224
0.03467021
0.115317166
0.08102778
0.029628161
-0.021351563
-0.06920059
-0.087492086
-0.10332365
-0.06858979
-0.0027812268
0.020196944
0.006520584
-0.027733572
-0.008456606
0.044980444
0.041137014
0.06158895
0.11536456
0.09732009
0.03782677
-0.008284174
-0.03829999
-0.05361915
-0.0760803
-0.079987556
-0.011244839
0.054060265
0.023647163
-0.028870154
-0.052095417
-0.056517657
0.022715602
0.14778692
0.17786214
0.120996684
0.06234031
0.0032819808
-0.054602735
-0.0681477
-0.05812851
-0.07895533
-0.11801177
-0.1060549
-0.0011649814
0.10406867
0.09887251
0.027864447
-0.03543507
-0.0804109
-0.09208886
-0.051799327
-0.0050135935
-0.03147307
-0.07441557
-0.057682715
-0.048744503
-0.025072832
0.05814753
0.085645705
0.036694963
-0.0155576235
-0.047025852
-0.0024689138
0.102522135
0.15838458
0.14438546
0.10955832
0.06903378
0.021176368
-0.022973973
-0.054849498
-0.05751873
-0.0332991
-0.018112397
0.013783062
0.065131165
0.050268997
-0.0095431525
-0.04673509
-0.074510664
-0.06298924
-0.0062951604
0.0055842656
-0.034923434
-0.04645821
-0.034461025
-0.053809892
-0.07139654
-0.050159793
-0.020177005
-0.0011530244
0.0073343827
-0.0013993955
-0.038792484
-0.050725102
0.025172565
0.08287673
0.040426847
-0.011711171
-0.009187702
0.065459944
0.14369571
0.112984896
0.044668227
0.0051755155
-0.032621108
-0.013980923
0.032707963
0.022854581
-0.012637401
-0.05747054
-0.090659805
-0.061911065
-0.0033337704
0.035184924
0.030781833
-0.007258487
-0.039070826
-0.05812706
-0.050876677
-0.020183317
-0.016191885
-0.034830127
-0.041901786
-2.5420115E-4
0.09144965
0.13836235
0.10495079
0.03479035
-0.023952289
-0.0013997318
0.054522738
0.03462336
-0.032429673
-0.062744744
-0.04767302
-0.046676897
-0.038937412
0.027156476
0.059621777
0.02078179
-0.028872767
-0.072199956
-0.07351988
-0.056197893
-0.06419209
-0.075089194
-0.090014905
-0.04333879
0.0873271
0.1556728
0.10557366
0.020061104
-0.020958062
-0.018431785
-0.013270829
0.027225643
0.083178304
0.06753377
0.009444224
-0.031599354
-0.06494876
-0.059421692
0.025064196
0.09162553
0.067486666
0.02887842
-1.7722949E-4
-0.025093764
-0.0387371
-0.057968106
-1.7634215E-4
0.09864198
0.07530818
0.0034232738
-0.021995932
-0.04259266
-0.053292572
-0.06720431
-0.08296198
-0.05132965
-7.512307E-4
0.014434197
-0.0040763183
-0.026165746
-0.038407635
-0.01981495
0.05108526
0.10359607
0.0732942
0.01191957
-0.03019016
-0.049993027
-0.04199155
-0.0154082775
2.2973631E-4
-0.0073433104
-0.018410005
-0.006060807
0.017237509
0.021342417
0.042843055
0.07996493
0.043773636
-0.013400047
4.6629758E-4
0.005637315
-0.03837327
-0.055110775
-0.019252278
-0.010859928
-0.06584617
-0.0511212
0.055258103
0.08588395
0.00964554
-0.0757596
-0.075488925
0.02161442
0.09306798
0.08853304
0.06547061
0.042478103
0.011466547
-0.013966273
-0.0057113753
0.0077737616
-0.0016682517
-0.009171931
-0.034270212
-0.05483433
-0.016445898
0.011753849
-0.020836331
-0.030845549
0.043034777
0.12143168
0.105026186
0.027626457
-0.039577596
-0.089251034
-0.12221906
-0.112321295
-0.053692475
-0.0046995007
-0.0023195217
-0.02804356
-0.07063798
-0.083751604
-0.033602312
0.0069320356
-0.0046592113
-0.027533963
-0.06085271
-0.055084877
0.07571296
0.20328574
0.18057415
0.10010684
0.047429636
0.0056793573
-0.024397027
-0.042674165
-0.048636686
-0.02476473
0.050828215
0.13944958
0.15397428
0.107754394
0.06001606
0.015681768
-0.016621051
-0.04659505
-0.07852449
-0.05651502
0.0028543556
-0.002738544
-0.06398293
-0.0957624
-0.10234656
-0.09583689
-0.07382836
-0.07941391
-0.08914488
-0.07283626
-0.067912176
-0.060203735
-0.060632028
-0.061350163
0.0454219
0.16617231
0.12590669
0.021865562
-0.031897098
-0.058430884
-0.057674002
-0.032432765
0.013951011
0.10077799
0.18686654
0.19891562
0.15287904
0.109865464
0.06550968
0.023862392
-0.008384563
-0.042266853
0.003965004
0.11104564
0.11021268
0.011377191
-0.07276337
-0.13231327
-0.17259918
-0.15642034
-0.06200757
0.027905151
0.03564118
0.012019596
-0.018079013
-0.063356616
-0.07403418
-0.04774402
-0.03274521
-0.038477916
-0.05396596
-0.06525611
-0.049569707
-0.015421595
-0.007171425
-0.024411464
-0.038954042
-0.055535927
-0.044663016
0.00824647
0.030658187
0.029892888
0.07391402
0.1129161
0.09536824
0.04924556
-3.424395E-5
-0.0044629085
0.057630103
0.104605384
0.08472895
0.047746092
0.028787382
0.020877453
0.009590845
0.0018182044
0.07514257
0.21542206
0.25406322
0.16453114
0.058613196
-0.024977257
-0.0810613
-0.12700652
-0.18148689
-0.2196743
-0.23398863
-0.20947222
-0.13279422
-0.046730783
0.0010497124
-5.3719466E-4
-0.023108292
-0.054177232
-0.100574955
-0.12986892
-0.12336571
-0.089541316
-0.05319453
-0.0353555
-0.014576381
-0.016954271
-0.01533557
0.08989801
0.18324392
0.15476483
0.108605675
0.07637507
0.0972127
0.21219377
0.26813504
0.22590153
0.17515819
0.095130205
0.040260393
0.07355689
0.0805384
0.015290618
-0.035697844
-0.082132325
-0.15347584
-0.14573807
-0.0534571
-0.02840897
-0.071216494
-0.08961858
-0.10098505
-0.13524431
-0.17875823
-0.20003533
-0.19530089
-0.18064831
-0.120624945
-0.041151546
-0.016351193
-0.0043637496
0.057535592
0.14536156
0.19186085
0.17546958
0.12849258
0.05163667
-0.008418262
0.010063021
0.020895114
-0.041985847
-0.099532045
-0.09858161
-0.07556215
-0.068945184
-0.06124953
0.0050942763
0.14820307
0.26688763
0.2598537
0.19473618
0.1424652
0.06557306
-0.0023920552
0.0022340664
0.026886152
0.015237958
0.007656584
0.054483887
0.12514529
0.13401224
0.052248728
-0.061293975
-0.15917203
-0.22975527
-0.2472312
-0.19303228
-0.116264604
-0.09829678
-0.11684009
-0.12963144
-0.17308354
-0.1831228
-0.112351984
-0.068143375
-0.0676598
-0.05614694
-0.031648226
-0.007178082
0.032089014
0.13860896
0.24759907
0.30096996
0.36251435
0.36588657
0.28140715
0.18960695
0.0648127
-0.06417282
-0.1458974
-0.1859497
-0.1786044
-0.17851008
-0.16257416
-0.119054705
-0.13928911
-0.10416451
0.059152864
0.13433045
0.06646717
0.0043979865
-0.024024902
-0.031524356
0.059891537
0.19487983
0.19258562
0.13761327
0.1799726
0.1394442
-0.07807019
-0.27417734
-0.37128553
-0.35411617
-0.16279842
0.047174223
0.091020785
0.030945044
0.015128156
0.08098927
0.119703874
0.093210176
0.08562591
0.07360041
0.039105806
0.017782839
-0.035430264
-0.11574188
-0.1749183
-0.1738255
-0.092776075
-0.027716413
-0.0014310813
0.048219275
0.07375128
0.094572015
0.15986113
0.18347542
0.14301859
0.091647595
0.035814248
-0.022273272
-0.082702674
-0.14281271
-0.18972595
-0.19426374
-0.1446748
-0.10576921
-0.08411899
-0.022909582
0.05902434
0.131727
0.1681155
0.18415448
0.24124068
0.26820138
0.20470768
0.105982356
-0.008247677
-0.094558455
-0.13554415
-0.1996041
-0.27971023
-0.29250628
-0.16892093
0.01676349
0.07699934
0.023177188
-0.00403683
-0.008571323
0.009444276
0.09887904
0.17312549
0.146728
0.052717965
-0.039214257
-0.057371873
-0.046539355
-0.06683762
-0.08034862
-0.11448429
-0.119812995
-0.023961386
0.04630802
0.046512354
0.042191338
0.08836913
0.20124513
0.23871928
0.16846767
0.08543462
-0.0090003135
-0.07602461
-0.09598729
-0.07625735
-0.03941282
-0.07431024
-0.123866536
-0.12803939
-0.13730702
-0.13398176
-0.11787155
-0.07641272
-0.01631603
-0.009660555
-0.0043079415
0.06617697
0.17667767
0.22520213
0.14741188
0.077050306
0.04275956
0.01909605
0.09980051
0.1400497
0.018030204
-0.13097896
-0.21909449
-0.17138022
-0.04075657
0.015736766
0.016744724
2.3813228E-4
-0.0063128793
0.03802691
0.059272073
-0.0044081155
-0.093826175
-0.1038147
-0.041181184
-0.015975213
-0.053165648
-0.0725522
-0.010674244
0.067561395
0.08378759
0.05943738
0.04637793
0.13316207
0.2756404
0.3100038
0.23897186
0.1272682
0.011455585
-0.08241842
-0.15244053
-0.15152557
-0.11064833
-0.117016025
-0.16802138
-0.20445815
-0.16909565
-0.11215288
-0.1028928
-0.11029801
-0.095012926
-0.070657015
-0.05526627
0.02099865
0.12770464
0.123554625
0.05019826
7.548629E-4
0.027625076
0.105181195
0.1006686
0.03753569
-0.014177531
-0.007989212
0.07868961
0.09979259
0.08124988
0.12952286
0.13818103
0.091973655
0.050791457
0.031506985
0.028347578
-0.013980628
-0.084251665
-0.1374695
-0.15199524
-0.13057467
-0.07239213
0.014866995
0.029897217
-0.011954016
-0.045795135
-0.08892337
-0.030548815
0.08031664
0.07258886
0.023469396
-0.02045596
-0.04924292
-0.022952978
-0.018799838
-0.032956168
-0.017698085
-0.0036577894
-0.021245746
-0.063248016
-0.05333166
-0.025856111
-0.053498458
-0.022364901
0.077532485
0.11567926
0.096031845
0.06480313
0.02052644
-0.024343848
-0.04679866
-0.05884397
-0.05476809
0.033967294
0.14832622
0.15620762
0.11415356
0.09277677
0.05129899
-0.0058701388
-0.03932502
-0.012684742
0.048509434
0.050973672
0.006643219
-0.02025733
-0.043902688
-0.08324332
-0.12773791
-0.14962234
-0.14071378
-0.11835183
-0.069943056
-0.015989112
-0.002368002
-0.01897592
-0.031395853
-4.5640348E-4
0.042912398
0.03030821
-0.0064465096
-0.018070975
0.042418264
0.15519914
0.16157714
0.0716911
0.020246992
-0.005481066
-0.030713078
-0.051887244
-0.014968922
0.10649494
0.14742856
0.07975131
0.027561156
-0.02861041
-0.08484723
-0.118707955
-0.1412274
-0.11435384
-0.08129328
-0.04581603
0.041480824
0.092494965
0.07853715
0.047578003
0.009068213
0.018796364
0.054794677
0.025100963
-0.040685177
-0.07571632
-0.09556238
-0.09481038
0.013540872
0.1597319
0.15695673
0.067614555
0.01385079
-0.028425641
-0.052413773
-0.07557428
-0.08761484
-0.034036897
-0.0099998815
-0.043885
-0.03219209
0.0053150025
0.013100501
-0.0059322007
-0.042725764
-0.074230224
-0.059840277
0.047805298
0.1737096
0.17146689
0.09151335
0.031193253
-0.03666947
-0.07959478
-0.08702927
-0.1002727
-0.03633159
0.083370484
0.109913
0.06166071
0.006662809
-0.03618744
-0.058450267
-0.0821571
-0.058619764
0.018147618
0.037525408
-0.011095252
-0.041101478
0.0028802427
0.06386108
0.052997142
0.017012762
-0.012482725
-0.04557707
-0.025553435
0.017891394
0.008321063
-0.040283
-0.040476218
0.059322458
0.12898798
0.09180532
0.04560705
-4.7719857E-4
-0.033442583
-0.007485794
-0.0063040205
-0.04586306
-0.04423437
-0.013026538
-0.008403579
-0.035592824
-0.051261477
-0.023640485
0.015106754
0.0020972714
-0.050061837
-0.049058437
0.0010011169
0.010515265
-0.023798546
-0.05094068
-0.029177135
0.020032788
0.009042879
-0.0052624983
0.06246779
0.07938539
0.009520005
-0.033264715
-0.065157756
-0.03430761
0.10570412
0.17298415
0.10976797
0.029815838
-0.030262344
-0.07160191
-0.07592766
-0.019890253
0.033315953
0.017974013
-0.019127168
-0.060517054
-0.077276506
-0.04040864
0.0069480566
0.055011287
0.065130375
0.027836332
-0.016227417
-0.06428098
-0.037538234
0.04853928
0.06471904
0.006086341
-0.07033525
-0.062656954
0.025130093
0.050818074
0.018762428
-0.016486805
-0.036260698
-0.016516536
0.0068622334
0.025516454
0.039129812
0.018547757
-0.013498669
-0.009176966
0.022680191
0.017415535
-0.019993147
-0.06421072
-0.10689471
-0.048363693
0.08635903
0.12905742
0.083203346
0.037635423
-0.0036568113
-0.039310902
-0.05726281
-0.06991804
-0.06741584
-0.062635586
-0.071852446
-0.017259957
0.06811198
0.06786151
0.03095205
-0.0060922797
-0.028224036
0.022164712
0.060274255
0.022165691
-0.024027226
-0.06305609
-0.09888588
-0.06473642
0.047249176
0.11886789
0.108155735
0.08153799
0.05625843
0.026127668
-0.0036338205
-0.019893195
-0.040916495
-0.071334735
-0.028053006
0.043047525
0.04583258
0.043726172
0.04033703
0.0059500304
-0.01845158
-0.025977131
-0.0023691687
0.030507049
0.018643798
-0.01947683
-0.041490227
-0.03128213
-0.024579277
-0.04399075
-0.06411305
-0.079139255
-0.067915924
-0.04863179
-0.052001707
-0.042628855
-0.06546225
-0.085089065
0.025273059
0.12594049
0.10107459
0.045662835
-0.013312129
-0.009501933
0.05326334
0.03340569
0.017336795
0.095376365
0.14057626
0.11210145
0.05392925
-0.0037949495
-0.03025898
-0.051143423
-0.07354029
-0.052454356
-0.02021446
-0.029657405
-0.01740608
0.04258063
0.067449406
0.034533832
-0.021741169
-0.057542864
-0.06780138
-0.0965337
-0.10100236
-0.052101668
-0.019459942
-0.022574158
-0.012715799
0.05869386
0.13847579
0.12590398
0.0558052
0.0061260113
-0.029612092
-0.07104701
-0.06309342
0.023984682
0.06907207
0.016228098
-0.035437193
-0.05978955
-0.06636953
-0.004644033
0.08787024
0.097440094
0.04176777
0.020869458
0.030795146
0.02805403
0.015318701
-0.0031456384
-0.03179596
-0.04710397
-0.022108171
-0.009581829
-0.043471176
-0.06976013
-0.07122255
-0.045440786
-0.0011016049
0.009317939
-0.018977366
-0.059263725
-0.06583321
-0.006982739
0.032991055
-0.005527222
-0.04952725
-0.06762367
-0.075176336
-0.015076208
0.076384805
0.10560692
0.14948079
0.20521899
0.15149546
0.050675247
-0.011912492
-0.058329526
-0.09279129
-0.06383377
0.057578508
0.13000436
0.065292045
-0.007058722
-0.046007156
-0.0792174
-0.038558677
0.063678026
0.09523843
0.030991225
-0.034167964
-0.07991435
-0.11096303
-0.12890628
-0.14015146
-0.05559837
0.07079328
0.0732429
0.009974579
-0.027506001
-0.041527003
-0.04192123
-0.0527193
-0.058140844
-0.045357216
0.007900363
0.09000217
0.09342414
0.031368814
-0.0023133543
-0.015412716
-0.037085824
-0.037975874
0.0028619005
7.8519894E-4
-0.024054026
0.06385204
0.15404229
0.12172739
0.06945118
0.030408762
-0.016161691
-0.010429082
0.03923649
0.035865866
-0.01687439
-0.0027206552
0.067032285
0.058720335
-0.022243999
-0.07957721
-0.12175878
-0.14231019
-0.08151265
-0.014011532
-0.02698767
-0.080664665
-0.107782744
-0.046660617
0.048024513
0.047497667
-0.006854456
0.0048505166
0.06809753
0.06995317
0.023755837
0.048483238
0.08464374
0.044321604
-0.01715887
-0.07685745
-0.08212808
0.03209514
0.15873232
0.17064855
0.10123515
0.04213961
-0.004762541
-0.064101756
-0.09510513
-0.091246486
-0.08770711
-0.078193955
-0.0735969
-0.054975882
0.061557293
0.17724307
0.11052273
-0.044137362
-0.13528492
-0.17896718
-0.1996338
-0.1925693
-0.10046647
0.09771838
0.25209254
0.25348368
0.16550782
0.08761438
0.04385394
-0.0025221426
-0.06323372
-0.119820766
-0.14696391
-0.15015462
-0.14948998
-0.10275879
0.01681501
0.16551358
0.2529929
0.2139559
0.12244829
0.06567334
0.034280516
-0.0014186082
-0.048591185
-0.08375695
-0.10414927
-0.1071783
-0.09544791
-0.08239411
0.0020283363
0.11834257
0.12754741
0.07673419
0.030254824
-0.026060551
-0.06931475
-0.09736291
-0.12068738
-0.11905389
-0.03656604
0.09577148
0.13408646
0.07235748
0.011187914
-0.018112719
-0.03526106
-0.05939347
-0.06843056
-0.064639255
-0.04336905
0.035875212
0.11177018
0.1178532
0.07474474
0.009641491
-0.044144053
-0.076501556
-0.094691046
-0.07591664
-0.006149405
0.054838944
0.034056492
-0.004843735
0.025711313
0.06240192
0.032780297
-0.01283579
-0.0136558525
0.01228505
0.017144816
-0.02008161
-0.018129129
0.06998515
0.09642186
0.029370872
-0.026421146
-0.05947501
-0.023175268
0.034256846
0.010916862
-0.03217511
-0.08674259
-0.10365471
-0.005816873
0.070808746
0.04781517
-0.0059069847
-0.024412554
-0.0030534377
-0.003432755
-0.023770874
-0.05206394
-0.0510843
0.035951175
0.09769802
0.06825562
0.019986236
-0.019860044
-0.014459339
0.030169277
0.0266389
-0.030813025
-0.04435776
0.013040098
0.03621203
-0.004594631
-0.050436046
-0.09011691
-0.10823364
-0.10923229
-0.08910877
0.008567679
0.119955905
0.13112764
0.077002816
0.028022036
-0.0077197254
-0.040814012
-0.0697106
-0.038327493
0.048424024
0.061596364
-0.003199208
-0.008809643
0.06557639
0.098592386
0.04020841
0.039448783
0.14867677
0.1786493
0.08246723
-0.017653637
-0.080517195
-0.119142294
-0.14510012
-0.12859982
-0.058691055
-0.009880526
-0.016584288
-0.04151768
-0.034794256
2.55963E-4
-0.0013132838
-0.037384227
-0.067803115
-0.08114698
-0.04622177
0.0059208744
-0.0019322523
-0.043920413
-0.07475592
-0.08197302
-0.0030088003
0.12523368
0.15674494
0.10398019
0.064869456
0.041470308
0.008667657
-0.0075071417
0.07013021
0.18533863
0.16879483
0.06703234
-0.0047855717
-0.06590281
-0.079731494
-0.03436062
-0.013294883
-0.030217841
-0.0656683
-0.10140439
-0.11690779
-0.10205814
-0.01715801
0.091181815
0.11249653
0.063107036
0.00609974
-0.040139835
-0.06218198
-0.066255845
-0.068517596
-0.07387225
-0.07662209
-0.07545349
-0.08268617
-0.068574324
0.03640887
0.19615667
0.25665307
0.18482873
0.08832306
0.011531061
-0.041904967
-0.074344896
-0.09741129
-0.09436469
-0.092618726
-0.06651151
0.033142593
0.08092526
0.0338696
-0.0053654914
-0.028451174
-0.0071200957
0.08003028
0.14257175
0.12975688
0.0533366
-0.03498586
-0.07420667
-0.081817865
-0.09040372
-0.09567651
-0.085933894
-0.059455685
-0.039718945
-0.014379445
0.043136537
0.0762486
0.047932327
0.013086542
0.025866725
0.08651862
0.116918854
0.06232168
-0.014895877
-0.06939762
-0.108272806
-0.108735114
-0.039814185
0.06617825
0.10725211
0.06410508
0.01820138
-0.0025490155
-0.0070909443
-0.010883964
-0.03573022
-0.06670922
-0.090859346
-0.09933396
-0.062987424
0.015239654
0.057992753
0.019814776
-0.027837953
-0.057097122
-0.05821495
0.034848765
0.13372803
0.13187037
0.089881144
0.04949346
0.014828492
-0.009860007
-0.012840631
0.026358567
0.050891865
0.028294727
-0.012349388
-0.034973666
-0.0055627353
0.0028591848
-0.044022813
-0.07624544
-0.0912755
-0.07339203
-0.042641148
-0.048055947
-0.020849267
0.02766118
0.031220634
0.0032635045
-0.036905356
-0.019297361
0.046638783
0.060868036
0.028958885
-0.010621989
0.004728673
0.09100063
0.118023776
0.057795722
9.0719695E-4
-0.038025282
-0.056774132
-0.045794826
-0.05289893
-0.06481357
0.0050356146
0.086390674
0.05445209
-0.019700851
-0.053059164
-0.0759362
-0.0825958
-0.029285537
0.03928802
0.03878492
0.00848436
-0.009620175
-0.029958067
0.010068431
0.07839714
0.07335808
0.026198322
-0.013550617
0.0014812446
0.055256132
0.049966086
0.007167188
-0.04430485
-0.08779743
-0.039610803
0.021134593
-0.009391121
-0.056371834
-0.089356795
-0.10753387
-0.05072507
0.032819938
0.057363246
0.049093094
0.021929758
-0.002979469
0.042592064
0.08887464
0.051089257
-0.010881941
-0.045484383
-0.00783024
0.10411298
0.1685835
0.13046382
0.053323593
-0.010170105
-0.05625969
-0.08741369
-0.07286797
-0.025890112
-0.009636963
-0.040909417
-0.083657764