-0.002446131
-5.607427E-4
-5.5143115E-4
-0.0027085203
-0.00330716
-0.0057615833
-0.007826307
-0.0055225086
-0.0028954248
-0.001730841
6.3238974E-4
0.0037249452
0.0036687423
0.0015917917
0.0012444892
0.0010559715
6.6687976E-4
0.0020345317
0.004835844
0.0065926053
0.0060605565
0.006278635
0.0055795223
0.0030064567
0.0042679342
0.006348917
0.0062307394
0.0063780053
0.005040973
0.005301201
0.008052508
0.008092821
0.0062369695
0.0028882476
-8.3870016E-4
-0.0021088058
-0.003091681
-0.003197216
-0.002579072
-0.0049361307
-0.0067145997
-0.005666162
-0.006291287
-0.007881789
-0.007931985
-0.007797649
-0.007919176
-0.008960091
-0.009649957
-0.008355156
-0.00797975
-0.0071667014
-0.005417213
-0.0066877706
-0.0066901003
-0.0040335013
-0.0032281796
-0.001709226
3.899934E-4
6.1719486E-4
0.0030712592
0.008585972
0.012065826
0.012065291
0.012633962
0.015531678
0.01769086
0.016445952
0.012071337
0.007953011
0.0060865316
0.003760263
5.8719335E-4
-6.2836125E-4
-0.0014018413
-0.003390732
-0.003466641
-0.0012462045
2.5428764E-5
-3.3590294E-4
-1.8372627E-4
6.773185E-4
-0.0012327965
-0.0044950857
-0.0050600697
-0.0046832664
-0.0039813393
-0.003086037
-0.002337087
8.150894E-4
0.0042043556
0.0053048856
0.0039040768
3.62574E-4
-7.490945E-4
-8.1685616E-4
-0.0034816728
-0.0064968048
-0.00988762
-0.011643655
-0.010934553
-0.011291008
-0.011205761
-0.010894855
-0.011612391
-0.011240174
-0.009863307
-0.0063729873
-6.013769E-4
0.005481041
0.010154818
0.0094203595
0.004716327
0.001617922
3.7550097E-4
3.71902E-4
0.0014281312
0.0020383322
0.0020748212
0.0021231899
0.0021176687
0.0013175831
1.6550592E-4
4.3225187E-5
-4.2208357E-4
-0.0020191967
-0.0013847748
0.0017818589
0.0046674535
0.008997241
0.01422995
0.016374554
0.017036745
0.016467052
0.013549706
0.011810249
0.011960919
0.013736308
0.016705444
0.019567851
0.025628492
0.032045864
0.030713985
0.020762099
0.004357115
-0.01312805
-0.025860626
-0.034770202
-0.043954607
-0.05347633
-0.053821012
-0.042759486
-0.03344097
-0.029840527
-0.027010342
-0.023439595
-0.018666217
-0.015387997
-0.013863836
-0.010246993
-0.0037218248
0.005078587
0.01291238
0.016320322
0.017768865
0.020272674
0.023409002
0.025638234
0.025663363
0.0254476
0.027959242
0.02999363
0.028160501
0.023674728
0.016215576
0.007383465
1.4177275E-4
-0.0045609903
-0.0059436024
-0.008706295
-0.011920893
-0.008103828
-0.003497189
-0.003272414
-0.002287087
-6.88415E-4
0.0017838429
0.006391708
0.008577082
0.0071888207
0.0067696287
0.007540614
0.00572768
0.002130701
-0.001467424
-0.0052963914
-0.008115905
-0.009876995
-0.011561061
-0.0132941855
-0.01295233
-0.010295001
-0.01055504
-0.014118219
-0.017312229
-0.017410167
-0.013852185
-0.01182857
-0.010866349
-0.007967159
-0.004148696
0.0025279731
0.006282076
0.0029664717
0.0010467481
0.0025952288
0.0037853897
0.0037486283
0.00516657
0.008838653
0.010781358
0.0129518295
0.014262459
0.00913191
0.0029726685
1.4025373E-4
-0.0021327697
-0.0034468106
-3.9472536E-4
0.005125114
0.0075967303
0.009595963
0.01039885
0.0058107963
0.0016080593
-7.2471396E-4
-0.0018765747
-9.517716E-4
-0.0027787006
-0.0050118184
-0.0036445474
-9.2222786E-4
3.1384578E-4
-0.0034080804
-0.008345744
-0.0097466
-0.009357718
-0.010076828
-0.014278508
-0.013964965
-0.0035936611
0.0060306676
0.00965027
0.008975395
0.005681152
0.005798502
0.00875841
0.0102144275
0.010962661
0.010929679
0.009645766
0.006177074
0.0012401567
2.6584612E-6
6.7176286E-4
-0.0011106525
-0.0016290765
-0.0015555468
-0.0031697177
-0.0029282672
-0.003083554
-0.00594523
-0.0108947065
-0.019872803
-0.027168343
-0.027756767
-0.02511395
-0.019638661
-0.013199072
-0.008501489
-0.0025362168
0.0044729346
0.009295858
0.010444459
0.007874153
0.006455726
0.008765579
0.009545617
0.008759447
0.010194109
0.010880634
0.010465071
0.011742436
0.012550845
0.012703805
0.013845738
0.012990178
0.008688626
0.0058534048
0.006308693
0.0060010185
0.0047005103
0.0028150706
-3.7562236E-4
-0.0029447419
-0.005467602
-0.0063137994
-0.004488735
-0.0032339178
-1.5927778E-4
0.004047022
0.0062324493
0.006465388
0.00210102
-0.0026515396
-0.0049905754
-0.007985503
-0.0082469685
-0.008081507
-0.009703987
-0.008889454
-0.009160169
-0.011861126
-0.014533345
-0.017732324
-0.019036435
-0.017495269
-0.013977997
-0.008498183
-0.0037226821
-4.257865E-4
0.0043575135
0.0093477955
0.010714329
0.010263859
0.009265242
0.00837326
0.01156713
0.01543179
0.015859345
0.015742756
0.01681411
0.020972831
0.025551723
0.02429805
0.018226817
0.010687786
0.004295796
2.1405437E-4
-0.0034519709
-0.0072381077
-0.01098208
-0.014143851
-0.0165653
-0.019544484
-0.021018453
-0.019378647
-0.017576784
-0.016119402
-0.013610856
-0.011234462
-0.008685854
-0.005042493
-0.0021375846
-2.1894455E-4
0.0022728005
0.0050919736
0.006734113
0.006965353
0.006663341
0.0058260174
0.006167516
0.0074361954
0.0058515947
0.0039448566
0.004750304
0.0070185494
0.010589348
0.011535519
0.009383115
0.008641419
0.0062397458
0.0017036628
-0.0014730294
-0.00586375
-0.00917108
-0.0071612094
-0.0053888867
-0.0064186133
-0.007016693
-0.0080227805
-0.008508059
-0.0071836305
-0.0071957484
-0.0076541826
-0.006807236
-0.0061659967
-0.005145984
-0.0038400346
-0.0031537227
-0.0022211869
-4.924102E-4
0.0017153897
0.0025157253
0.0020090719
0.0029734976
0.0036966149
0.0024774917
0.003080337
0.0053637573
0.0060280734
0.006914798
0.008188813
0.0069723874
0.005070256
0.0041103563
0.002878462
0.0016486469
-1.2782484E-4
-0.002153782
-0.0013526197
0.001141382
0.0016081937
1.5514874E-4
-0.0015343891
-0.0020179718
-0.0020569481
-0.0027298175
-0.001750006
-6.527573E-4
-0.0010308964
6.1998784E-4
0.0015064417
-0.0015084248
-0.0043344996
-0.0047747465
-0.0033458546
-0.0027006282
-0.004496501
-0.0048955907
-0.001971075
-0.001029837
-0.005846329
-0.008549022
-0.004770363
-0.0020170216
-8.720108E-4
9.993461E-4
0.0019192685
0.0032933312
0.004545442
0.0047880206
0.004405182
0.0024850224
-3.4860027E-4
-0.0025661583
-0.0020712137
-2.3588813E-4
9.6884597E-4
0.0024515756
0.0032403239
0.0042494144
0.005060299
0.0050427257
0.005720504
0.0044511114
0.0028704952
5.5329985E-4
-0.0036982582
-0.0029343497
-0.0021003857
-0.0038405
-0.0019784453
-0.0019881346
-0.003357857
-0.0027662427
-0.0012263233
0.0032309042
0.0032728221
-0.0012876302
-0.0017205885
-5.9458846E-4
-2.4339069E-4
-7.8479643E-4
-0.0014208828
-8.0601487E-4
-0.0013275974
-1.80109E-4
0.001230567
-0.0018783165
-0.0028103546
-4.565614E-5
3.1182452E-4
2.6899943E-4
0.0011708374
-2.6482402E-4
-0.0016122655
4.8709224E-4
0.0038469362
0.0058682435
0.0049575064
0.0027273996
0.0025618593
0.002516788
0.0020259176
0.002640606
0.0013402363
-0.0012658688
-0.0018253155
-0.0011260712
0.0010073913
0.0026345958
1.8017573E-4
-0.0017858301
-3.027248E-4
3.1414133E-5
-0.0016198143
-0.0035897528
-0.004166526
-0.0028560902
-0.0031022215
-0.003683612
-0.0030397
-0.0032077888
-0.0024261107
-0.0019194812
-0.0029348244
-0.0019265637
9.079939E-6
5.351332E-4
0.0010165991
0.0025741162
0.0028890679
0.0015317827
0.0017802735
8.389245E-4
-0.0012511141
2.3818103E-4
0.0014505334
0.00143768
0.0020735464
7.519114E-4
2.709084E-4
0.0022311346
0.0026120539
0.0011418796
7.624332E-4
0.0013119361
4.2867678E-4
3.2130114E-4
0.0023453685
0.003246607
0.0024309743
7.460794E-4
-7.7680236E-4
-0.0012181326
-8.5365423E-4
8.734602E-5
-3.1143308E-4
-0.0016195021
-0.0013924689
-5.799828E-4
-6.2319665E-4
-0.0018243495
-0.0024305286
-0.0021298795
-0.0036941296
-0.0049462393
-0.004098896
-0.0036163207
-0.0022005432
4.4691146E-4
0.0014733395
7.5176597E-4
-8.798175E-4
-0.0020935852
-0.002168781
-0.0015850938
9.6755096E-4
0.0035011396
0.0033259327
0.004099585
0.0057088155
0.004325518
0.0018988015
4.250625E-4
-6.769142E-4
-0.0013843887
-9.6053304E-4
-1.1217567E-4
-4.4233623E-4
0.0013246936
0.0042461143
0.0027473327
0.0010524367
5.362489E-4
-0.0019608813
-0.0019558084
-0.0010360692
-0.0029729814
-0.0023869702
5.005529E-4
3.9511506E-4
-7.08452E-4
-8.580432E-4
-0.002074424
-0.0024420694
-8.584493E-4
-3.0481804E-4
-0.0010483977
-0.0022333344
-0.0017730696
7.619193E-4
5.7984475E-4
-0.0014242609
-0.0019069685
-0.0027483588
-0.0028677166
-0.0010849733
-2.0638212E-4
3.8342923E-4
0.002351754
0.0027203453
0.0014762487
0.0024448808
0.0031182119
0.0017139149
0.00156876
7.398466E-4
-0.0015096479
-9.514993E-4
0.0012204928
0.0018474581
0.001613679
4.272911E-4
-0.0020453539
-0.0029802576
-0.0023470211
-0.002406791
-0.0021232816
-0.0020549765
-0.0015702094
8.0127636E-4
7.112067E-4
-0.0014672744
-0.0021636123
-0.0023944853
-9.92814E-4
4.3207363E-4
-5.067156E-4
3.2692995E-5
0.0011270788
9.405668E-4
0.0017848496
8.4413704E-4
-8.2280656E-4
9.717275E-4
7.046186E-4
-0.001471923
2.375898E-4
0.0013416613
9.810808E-4
0.0017635437
4.534913E-4
-0.001222136
-0.0012468775
-0.0011987063
-0.001569794
-0.0022343039
-3.653737E-4
0.0015584637
0.0012668525
0.003301537
0.003248861
-5.7863194E-4
-0.001048568
-3.5448838E-4
-4.6112403E-4
-3.7927995E-4
-0.0019798933
-0.0022012377
-1.6280817E-4
0.0013745335
0.002163763
0.0012854319
4.5812753E-4
0.0010852461
1.1883933E-4
-0.0017238967
-0.0020399385
-0.0019382709
-9.15021E-4
0.0015836863
0.0020037922
7.023581E-5
-7.2610495E-4
-0.0014792883
-0.0020194256
-7.6397846E-4
-0.0011301679
-0.0017507295
-5.73037E-4
-6.754229E-4
6.354959E-5
0.0014169094
7.3650584E-4
6.8705966E-4
-5.447423E-5
-0.0015739308
-0.0011622476
-4.4542574E-4
0.0010796675
0.0022865448
0.0010649908
-1.6045902E-5
-8.5426465E-4
-0.0020037263
-0.0019921449
-1.5597537E-4
0.0020996127
0.0022298673
0.0011391817
-1.4509214E-4
-9.45616E-4
-2.8142345E-4
-5.734936E-4
-0.0011375918
-7.068771E-5
3.5212334E-4
-7.3722505E-4
-0.0012461961
7.096879E-4
0.002721763
0.0029079579
0.0020222543
-2.4314913E-4
-5.3027252E-5
0.0019167813
7.745838E-4
4.7858706E-4
9.891095E-4
-4.808548E-4
5.3686137E-5
0.0016395878
5.7965826E-4
-0.0028767162
-0.005632821
-0.005331495
-0.004819772
-0.0045123855
-0.002300559
-7.0138974E-4
-6.61124E-4
-1.8808953E-4
-0.0011499431
-0.0038048567
-0.0029212788
-1.7612358E-4
6.029834E-4
0.0028004155
0.0041712737
0.0029416422
0.003568206
0.004021188
0.0031192454
0.0024852485
0.0014932789
0.001713959
0.002353762
0.0019037258
0.0017038039
0.0027100386
0.0039549377
0.0012639394
-0.0032488229
-0.0039603165
-0.0039480077
-0.004276971
-0.0031276694
-0.002592541
-0.0018828023
-0.0010578178
-0.001538427
-0.0014146256
-0.0012229047
-0.0018377266
-0.0021666102
-0.0019315883
-6.7034573E-4
-1.8579132E-4
1.5055491E-5
0.0029049919
0.0046799355
0.0032592937
0.0016625907
0.0010936785
0.0017292236
9.803395E-4
4.615721E-4
0.002523031
0.0015272911
8.428903E-6
0.0012597516
7.112057E-4
3.2506027E-4
-2.6347607E-4
-0.0021163449
-0.002634155
-0.003317345
-0.0021808178
-8.2412496E-4
-0.0012180889
5.550175E-4
6.978535E-4
9.467704E-5
8.3817187E-4
-0.0014350262
-0.0020201795
-6.9548754E-4
-1.4760751E-4
0.0010977386
-2.0837066E-4
-3.117601E-4
0.0014357702
0.0012454144
0.0018553324
-2.1096111E-4
-0.0020090113
-1.5886457E-4
-0.001087917
4.9208506E-5
0.0025925576
0.0017539792
0.0030480162
0.002394654
-7.6589873E-4
-0.0012306332
-0.0026779452
-0.0032905054
-0.0017716963
-0.0012645978
-0.0012095424
-0.0013672091
2.0954352E-4
0.0015428804
8.5061084E-4
0.0023748495
0.00281247
0.001090628
8.3207525E-4
-0.0011098693
-0.0017489057
9.5617335E-4
7.7973667E-4
-1.0642209E-4
-1.590125E-4
-0.0019667533
-0.001243043
0.0010160293
2.4931578E-4
-1.828143E-4
0.0011057515
0.0019395204
0.0014408316
-1.5555133E-4
-4.4783548E-4
-6.030269E-4
-0.001685997
-8.3336246E-4
-7.0603426E-5
-3.6295265E-4
-1.3699799E-4
-8.07885E-4
-0.0011452482
-0.0014896577
-0.002043854
-8.7473216E-4
-7.5575744E-4
-1.3976972E-4
0.0021737358
0.0016520219
6.1548944E-4
0.0010029124
0.0011604844
7.651122E-4
-0.0014680751
-0.0023731203
-8.867613E-4
-0.0013866273
-0.0022167354
2.1879317E-4
0.0039116438
0.0055911364
0.0076279766
0.011010533
0.010882059
0.010216166
0.012494066
0.013434308
0.012916957
0.010297852
0.00527951
0.0016144206
-0.0025912526
-0.007931568
-0.012670962
-0.017902628
-0.020543735
-0.019663192
-0.018065358
-0.014431909
-0.008213746
-0.002296616
0.0022323788
0.0075211027
0.01359724
0.017642293
0.018968193
0.01792177
0.0150394635
0.010501357
0.0037675016
-0.0041813706
-0.012058333
-0.019299239
-0.026082525
-0.030833425
-0.031599917
-0.029869925
-0.023397503
-0.011241197
0.0013995093
0.0149794435
0.029456146
0.03995484
0.046603482
0.050924055
0.046678364
0.027033957
0.0062257634
0.0018945084
0.0012126045
-0.011379625
-0.024263697
-0.02348808
-0.015663693
-0.010545754
-0.0076913936
-0.00596916
-0.0041082054
-0.005482128
-0.01706187
-0.034941796
-0.0499097
-0.057492774
-0.060280222
-0.061939046
-0.06534287
-0.07313689
-0.07951529
-0.08427469
-0.07497157
-0.019839939
0.056913693
0.101755805
0.1185895
0.12771562
0.12943716
0.12926906
0.1294124
0.12220471
0.10730516
0.08706042
0.06411571
0.047065794
0.03440786
0.021217806
0.0061908565
-0.015358018
-0.035464276
-0.05053245
-0.06865814
-0.08516869
-0.09209925
-0.08811079
-0.08023855
-0.071823984
-0.0649106
-0.06568802
-0.067201056
-0.076703
-0.09665567
-0.1205694
-0.15483621
-0.17141841
-0.18590644
-0.18103096
-0.029367391
0.17199571
0.229986
0.2119487
0.19023761
0.15261865
0.12372555
0.09685048
0.07188958
0.05654948
0.043680172
0.039899025
0.037491992
0.036778137
0.03975904
0.038425155
0.036587782
0.030808402
0.022020211
0.009575545
-0.0077260183
-0.020682154
-0.036103033
-0.051441137
-0.060756158
-0.071232915
-0.07619511
-0.07681417
-0.07619713
-0.06873607
-0.058936976
-0.04679855
-0.031669084
-0.01626327
-0.0017176968
0.0090915365
0.01736625
0.020006249
0.01686128
0.014321186
0.011414887
0.007557842
0.0020747164
-0.0037425666
-0.0061133434
-0.008217988
-0.009789716
-0.008448192
-0.004152298
0.0031020644
0.009934945
0.016773937
0.024034787
0.029422872
0.033903267
0.03610751
0.034911856
0.030412009
0.024188476
0.020030241
0.015184207
0.00840796
0.0029427346
-0.0016816936
-0.004456513
-0.0059615043
-0.0077636987
-0.007824289
-0.007417986
-0.007288041
-0.0071073836
-0.0076080756
-0.0073550814
-0.0070207114
-0.0066925213
-0.0045700865
-0.0024009517
-0.0027391254
-0.004831324
-0.005777746
-0.0051237517
-0.004369403
-0.0037231261
-0.0025107812
-0.0010691194
-0.0011110523
-8.6217787E-4
9.5020817E-4
0.0014672504
7.639735E-4
-0.001007626
-0.0026099745
-0.0019209607
-0.0026560614
-0.00404078
-0.0025793756
-0.0018781562
-0.0028989918
-0.0026973877
-0.0021004756
-0.002912975
-0.0028973098
-9.548953E-4
-4.321574E-4
-0.0011003593
-0.0013325735
-0.0014816342
-0.0011052785
-0.0019117629
-0.0033013078
-0.0028422708
-0.00196304
-0.001028915
2.2340432E-4
0.0010097948
0.0011686324
0.0022666012
0.004486875
0.0030890913
1.4414648E-4
3.7422878E-4
9.130435E-4
0.002241701
0.0027168163
0.0011624271
0.0033069889
0.0043826327
0.0017049536
7.6217804E-4
-1.5159372E-4
-1.11379595E-4
-4.1714316E-5
-0.002660134
-0.00342983
-0.0033325583
-0.0018060012
0.0016988511
7.5551745E-4
-0.0013086896
-0.002196416
-0.0034940413
-0.0025103316
-0.002598821
-0.0020851453
2.2179434E-4
-1.878504E-4
0.0018009994
0.0017733873
-0.0035818773
-0.0021396512
0.0015687442
7.8956503E-4
0.0011133769
0.0011841335
0.0010603653
0.002470887
0.0031823656
0.0028903512
0.001287112
-0.0011028736
-0.0033146644
-0.0033522253
-9.0855773E-4
-5.696689E-5
6.1490544E-4
0.002287069
0.0012130461
1.4137926E-4
0.0012423858
6.007406E-4
-0.0014886458
-0.0018737243
-9.5858914E-4
-2.069751E-4
6.0635427E-4
0.0023824275
0.004318173
0.0038005796
0.0015346663
-3.7953418E-4
-0.0018128875
-0.0014925384
-9.524157E-4
-0.001602204
-0.0011660967
-4.163921E-4
2.7946435E-4
0.0011903335
0.0012446977
1.7134321E-4
-0.0018562403
-0.0015307461
-4.0502433E-4
-8.663213E-4
7.551558E-4
0.0024729215
0.0035109392
0.003486711
0.0015573786
0.0018755824
-0.0021878285
-0.0075210147
-0.002130817
0.0019647342
4.366159E-4
0.0010780664
4.6009079E-4
2.534157E-4
0.0010512276
9.735927E-6
-8.366223E-4
-0.0018825806
-0.0021220907
-0.0016883843
-0.00170328
-1.5082605E-4
0.0010009055
1.715228E-4
-8.725849E-4
-8.386582E-4
2.7683965E-4
1.07345615E-4
-7.8731164E-4
1.564766E-4
0.0018603627
0.0032113125
0.003754265
0.0026823683
0.0015485205
5.961275E-4
-0.001381459
-0.0016472593
-9.64939E-4
-0.0023738518
-0.001805023
8.469032E-6
-5.6976534E-4
8.980852E-5
9.393458E-4
2.700561E-4
8.0387114E-4
7.861883E-4
7.8780885E-4
0.0019909914
0.001587735
8.428311E-4
3.665007E-4
-7.100028E-4
-0.0012685145
-0.0015394782
-5.064963E-4
2.3244937E-4
-0.0011370613
-8.4956386E-4
4.9186754E-4
0.0015552542
0.0018989603
-0.001188091
-0.0021840134
-0.0010136589
-0.0030305367
-0.0021626092
-4.725906E-4
-0.0027309358
-0.0019875423
7.2639296E-4
0.0012404171
9.437834E-4
7.196695E-4
6.351242E-4
-7.220461E-4
-0.0012753148
-2.595592E-4
1.3983868E-4
0.0013594184
0.0019953428
0.002246626
0.002961806
8.9569646E-4
-7.895187E-4
-0.0012467145
-0.0023266189
-3.218075E-4
0.0011096436
-2.5125488E-4
0.0014534135
0.0036906316
0.0022852512
7.8404935E-7
-3.684196E-4
6.6724914E-4
-3.3617084E-4
-0.002328243
-0.0011840516
3.100913E-4
-3.8739774E-4
-6.968916E-4
-3.8776762E-4
-5.189902E-4
-6.774494E-4
-5.6169567E-5
8.3205133E-4
1.0048578E-4
-4.243297E-4
4.0682938E-4
8.6271175E-5
2.250519E-4
0.0015470794
0.0014058906
-4.0179628E-4
-0.002413646
-0.0016550844
-9.270505E-5
-0.0013900327
-0.0011683508
0.0011783434
0.0012902085
2.251537E-4
7.970701E-5
2.7732403E-4
-1.9062121E-4
2.7999695E-4
8.217883E-4
-0.0017127184
-0.0030030457
-0.0010348621
5.55232E-4
0.0012561276
1.5845044E-4
-9.375119E-4
-8.854226E-4
-0.0020557127
-0.0013942559
0.0012079815
0.0024199295
0.0028514985
0.0026988955
0.0027690418
0.0017228534
-6.8756466E-4
-5.7325413E-4
-2.5402525E-4
-0.0013019494
-0.0011351147
-0.0010038072
-6.589819E-4
0.0014111209
0.003300184
0.00241247
4.000022E-4
4.957141E-4
4.1798438E-4
-6.754125E-4
-4.1580515E-5
0.00125281
0.0011601557
1.1523769E-4
-2.7141935E-4
-0.0013248085
-0.0037474858
-0.003681224
-0.0025039122
-0.0020447504
4.1264598E-4
0.0014531225
-4.8676232E-4
4.048204E-5
0.0016970937
-1.3341782E-4
-0.0015798785
-1.01562044E-4
-2.0990247E-4
-6.8648305E-4
9.427869E-4
0.0013539031
8.021381E-4
6.111961E-4
1.233063E-4
-1.6134743E-4
-4.5643587E-4
-5.759322E-5
0.0010417915
8.656646E-4
-0.0011085565
-0.0023062485
1.7127128E-4
0.0020786428
3.336419E-4
-5.192649E-4
-2.4459E-4
-4.820428E-4
-4.905316E-4
-4.1351403E-4
2.8802553E-4
6.645675E-4
0.0016426146
0.004501549
0.0043085814
8.293185E-4
-6.491511E-4
-8.430706E-4
-8.9368003E-4
5.359541E-4
6.377672E-4
-4.1996338E-4
0.0011536836
0.0017999203
3.6122292E-4
2.440489E-4
-8.006786E-4
-0.0017899275
-0.0018326528
-0.0031413983
-0.002509357
-0.0010685506
-6.330975E-4
3.7171852E-4
-1.7533918E-4
-1.6575611E-4
2.1389328E-4
-0.001605121
-0.0019473906
-0.0023174286
-0.0027032713
-2.8322352E-4
8.023639E-4
0.0010614769
0.0017469618
7.0716935E-4
-5.0427974E-4
-9.82334E-4
4.9221935E-4
0.0019760886
5.378665E-4
4.6528046E-4
0.0016241202
0.0013763572
0.002144541
0.0026685293
0.0016110981
0.0013110295
0.0016754147
0.0010601168
2.8433462E-4
9.5557305E-4
0.0019906424
0.002626623
0.0024179292
7.054888E-4
3.1789983E-4
8.060527E-4
-5.4581405E-4
-0.0012922916
-0.0015387118
-0.0026327944
-0.0023932226
-0.001676994
-0.0020361333
-0.003343528
-0.0049457597
-0.003994868
-0.0018657269
-0.0010605397
5.74603E-4
0.0012371901
0.0011898283
0.0043292353
0.0048569716
5.683963E-4
-0.0015887825
-0.0015494669
-9.80608E-4
6.0247356E-4
0.0013740406
0.001312241
0.0014853984
0.001906938
0.0019350981
0.0014998881
9.478918E-4
-6.337753E-4
-0.0017248415
-8.811803E-5
0.0015058039
1.0329086E-4
-0.0012127802
3.743656E-4
0.0011761172
-7.6075306E-4
-0.0028019033
-0.0021076086
9.614159E-4
8.7989087E-4
-5.7880086E-4
0.0010571962
0.0015595419
0.0016475702
0.0026418082
0.002697811
0.0014662497
-0.004113358
-0.00621285
-0.0010836422
1.3122884E-6
-4.7608014E-4
9.4707194E-4
6.236887E-4
0.0019669922
0.0025802373
7.8357727E-4
8.0134993E-4
2.3579692E-6
-0.0034227874
-0.004000653
2.3406865E-4
0.0016981608
-2.8635326E-4
0.0011887155
0.0024956733
4.883904E-4
-7.7299704E-4
-5.698678E-4
-4.9547455E-4
-6.223018E-4
9.099874E-5
3.4367203E-4
6.5144704E-4
0.001744843
1.4505604E-4
-0.0017095961
-0.0017997667
-0.0028452834
-0.002843495
-0.0011151754
3.370638E-4
0.0015683791
0.0030866393
0.0030332187
3.5693246E-4
-7.971707E-4
-0.0010898978
-0.0022032103
-7.5156137E-4
7.8485766E-4
7.70925E-4
6.37192E-4
5.096368E-4
0.0017718493
0.0018946268
8.376839E-4
6.4007344E-4
3.645023E-4
6.2176085E-4
-0.0014671945
-0.0032932183
8.868238E-5
0.0021231736
0.0018142522
0.0016140578
-2.3798134E-4
-0.0013081296
-0.0022465468
-0.0029371965
-0.0017613062
-0.0012479005
9.493384E-4
0.003777869
0.0027526221
0.001395249
7.658614E-5
-0.002610199
-0.0030458763
-0.0013162617
-1.7617938E-4
-3.7467084E-4
-3.9211963E-4
0.001106181
0.0021588139
0.0013506148
-4.0749658E-4
-0.0016370056
-0.0020746842
-0.0016386688
2.246418E-4
0.0010907488
0.0015761013
0.0036388924
0.004264957
0.0037192444
0.0010501035
-0.003980047
-0.0047332663
-0.002819798
-0.0015151161
7.5687334E-4
0.002042574
0.0029737419
0.0032705397
0.0020485986
0.0010386287
-7.547308E-4
-0.0024582627
-0.0034983095
-0.0036279538
-0.0036613415
-0.0049249367
-0.0017248726
0.0024041533
0.0010363747
-3.287961E-4
-8.3852554E-4
-1.14198316E-4
9.5093343E-4
-5.3966086E-4
2.9001868E-4
0.0014237481
0.0015609169
0.0033145624
0.0031988248
0.0025655983
4.9897673E-4
-0.0019552775
-1.4108304E-4
6.146443E-4
5.495374E-4
0.0013019405
0.0010694816
0.002978905
0.0030234808
0.0022328827
0.0052224025
0.003962447
-6.071362E-4
-5.9116515E-4
8.282762E-4
-1.00112105E-4
-0.0010700595
-5.9573405E-4
-0.0014051554
-0.0040508364
-0.0055660727
-0.0050018835
-0.0040554437
-0.003975103
-0.002975502
-0.0015004909
-8.680804E-4
-3.6171215E-5
-5.341886E-4
-0.0014412698
-0.0027227388
-0.0053392006
-0.0041040196
-0.0014861104
-6.746553E-4
0.0026212744
0.0052282
0.004829107
0.0033540297
0.0028061874
0.00587268
0.008260345
0.009434358
0.011284033
0.011334065
0.011944129
0.008399226
-0.0019215177
-0.009793304
-0.013133825
-0.009479581
-0.0024149178
-0.0017993486
-3.1485021E-4
0.0036501237
0.0038318066
0.0018734805
-0.005641918
-0.010855979
-0.0055047725
-0.00267097
-0.0040339213
-0.004339946
-0.0060861898
-0.0047882325
-0.0010311782
0.0020065086
0.004820555
0.0031462524
0.001038389
0.0017700993
-1.4224552E-4
-0.0013005818
-8.0162694E-4
-0.0019776684
-7.251574E-4
0.0012746186
0.0010931563
0.0021437013
0.0031645533
0.002347218
0.0015447633
0.0014825485
0.0014792345
1.411192E-4
-0.0015543789
-0.001323218
-4.6664858E-4
-0.0012720344
-0.0027247278
-0.0028528897
-0.0024646702
-0.0026601444
-0.0027760915
-0.0013615615
0.0026081975
0.0065945876
0.007829211
0.008575838
0.010826663
0.012880468
0.013786656
0.012876325
0.008022615
0.0011077769
-0.0031702472
-0.004338385
-0.008334727
-0.018184815
-0.018891541
-0.005035354
-0.0026362669
-0.019112734
-0.032523565
-0.030573573
-0.010877826
0.01738928
0.027002903
0.0050235786
-0.022534026
-0.035038944
-0.037823886
-0.024014946
9.849819E-4
0.025125358
0.052337766
0.05795003
0.048325118
0.053603113
0.038512602
-0.0043817973
-0.03691893
-0.041592687
-0.012233461
0.016996283
0.02646346
0.033943262
0.025052348
0.0064213523
0.0017385659
-0.0038337891
-0.024300385
-0.05222634
-0.054766838
-0.029577453
-0.03446194
-0.057813127
-0.026419677
0.03270897
0.044354387
0.02123317
0.010093715
0.01310046
0.007160457
-0.0077575915
-0.003505378
0.012602086
0.01570382
0.010258448
-0.0052321358
-0.0185398
-0.019201856
-0.021796493
-0.012105974
0.0044270954
0.009130272
0.01971894
0.02113652
0.008969921
0.011966881
0.0127400765
0.0015825945
-0.0043827137
-0.0063169994
-0.0037405228
-6.238187E-4
-0.004128915
-0.006571773
-0.002733672
0.0039481767
0.006317716
7.110461E-4
-0.0055552856
-0.008861043
-0.012400682
-0.010773904
-0.0026932177
0.00693428
0.012648361
-1.7646828E-4
-0.009994325
0.0072788876
0.013808533
0.014076591
0.03081904
0.023537247
-0.0022870242
-0.022823066
-0.029311163
0.0037819622
0.020615783
-0.004996078
-0.006998461
3.0056425E-4
0.0046714945
0.028627492
0.015538447
-0.045079246
-0.07350958
-0.05465187
-0.0496756
-0.055645462
-0.023064082
0.0055064266
-0.012230039
-0.019919896
0.023862131
0.07114533
0.048743296
-0.007326141
-0.012007041
0.015331735
0.03784187
0.049423944
0.038471807
0.021800224
0.0077877445
-0.0077735726
-0.013263709
-0.0038304878
0.013667765
0.016202044
0.010019257
0.024184832
0.026773445
8.265531E-4
-0.011620669
-0.020818438
-0.03698249
-0.023411414
-0.00575223
-0.0011113534
0.018543417
0.023463212
0.016243223
0.016141113
-0.01186596
-0.031635765
-0.019715667
-0.023281919
-0.0247758
-0.010787484
-0.009333232
-0.017264271
-0.022209797
-0.031862587
-0.062157415
-0.080380104
-0.055757392
-0.016147768
0.029201996
0.054909
0.03545183
0.011064225
-0.0025220155
0.004653428
0.028215984
0.015338232
0.0024439287
0.030198902
0.053340904
0.071411036
0.076031454
0.042897306
0.016581522
0.014855431
0.009018967
-0.009480731
-0.024593571
-0.019304331
-0.013051418
-0.016708504
-0.010900636
-0.005846104
-0.014828854
-0.02030024
-0.013179445
-0.011963014
-0.018441418
-0.004726396
0.0065070065
-0.03551628
-0.091217816
-0.07958027
-0.0075607705
0.054392982
0.06795293
0.039784815
0.0039437483
-0.01219157
-0.014678113
0.0014029904
0.024602907
0.018128898
0.0037836358
0.0020435038
-0.0031848026
-0.018887509
-0.049363106
-0.035611484
0.042372856
0.07232056
0.03460508
-0.0050802035
-0.02867873
0.0038116295
0.05472157
0.036755066
4.970791E-4
-0.012933437
-0.027006801
-0.02341545
-0.015206318
-0.023048943
-0.038002416
-0.043093912
1.0383029E-4
0.03260852
-0.008009801
-0.030297898
-0.0072070938
0.005657421
0.016167896
0.023508148
0.018521
0.0035467965
-0.0061546355
-8.635863E-4
-0.008890073
0.0020046616
0.034569755
0.024541274
0.010732826
0.005129334
-0.016037013
-0.006127459
0.0058903396
0.003035804
0.023485877
0.021930838
-0.015144176
-0.040901046
-0.03734105
-0.015924936
-0.012168336
-0.016195564
-0.0075119035
-0.0057028686
0.0072657643
0.016861288
-0.02264184
-0.049836252
-0.024386479
-4.5824068E-4
0.021376548
0.04744979
0.04828699
0.030095113
-0.001062615
-0.012261788
0.020386357
0.040518492
0.0330867
0.0106950505
-0.014383152
-0.008635343
-0.020132752
-0.06872235
-0.09259232
-0.060750384
0.023076707
0.070006594
0.044242654