-0.0024389806
-3.0380106E-4
0.0019617337
0.002960151
0.0026362801
9.098193E-4
1.3634209E-4
2.6286085E-4
-9.963625E-4
-7.699408E-4
3.097891E-4
-4.8399964E-4
5.6973216E-4
0.0023936268
0.0016317645
-1.8289112E-4
-0.0040015574
-0.0071690385
-0.005654792
-0.003302919
-0.0012591489
0.0015108637
0.002980786
0.0035542194
0.0031522547
0.0017137394
9.1771426E-4
6.6155E-5
-8.0534484E-4
-0.0011373018
-0.0013808425
-1.7257132E-4
0.0016099188
0.0015357081
9.2435145E-4
6.092886E-4
-9.7205985E-4
-0.0026859685
-0.0018649052
6.0704484E-4
0.0022138099
0.002468179
0.0019153554
0.0012706044
0.0018821734
0.0027331098
6.98769E-4
-0.0021533102
-0.0023381766
-0.0021983585
-0.0020180594
-4.751154E-4
3.308758E-4
7.257278E-4
9.565474E-4
6.0027424E-4
1.239527E-4
-0.0019891644
-0.0032919182
-0.0018233494
1.7967596E-4
0.0021968896
0.0016577238
-4.0826132E-4
-2.8342986E-4
-3.4087556E-4
-5.217111E-4
-3.2710118E-4
-6.3388806E-4
2.640962E-4
6.4060837E-4
7.3891314E-4
0.0023929651
0.0030578754
0.0016624928
-8.9082017E-4
-0.002790395
-0.003894911
-0.0040060985
-9.053937E-4
0.0011941817
6.0862117E-4
0.0018721691
0.002751487
0.0014148516
0.0011803908
0.002107372
0.0010303006
-0.0011787286
-0.0010517685
-0.0011686546
-0.001925209
2.2874841E-4
0.002891864
0.0041019707
0.0022543864
-0.0018023003
-8.6714723E-4
0.0016925702
-0.0012069686
-0.002939252
2.7948112E-4
0.002165671
0.0014586261
4.2803054E-5
-0.0033363502
-0.0053152298
-0.002904871
-0.0010143836
-0.0011149453
-7.593416E-4
-6.163137E-4
6.484452E-4
0.003643973
0.0044957097
0.0026233098
5.017016E-4
-0.0013970135
-0.002874648
-0.004633818
-0.005359316
-0.0020673375
0.0019579974
0.004348178
0.0057896054
0.0043031857
0.0012756127
-0.0016856551
-0.00259829
-5.342975E-4
-0.0013344794
-0.0019222441
0.0015482246
0.0029921462
0.003214689
0.0019841779
-9.7362575E-4
-4.0539235E-5
4.3899266E-4
-0.0014565721
-0.001205186
-0.0011020377
-4.7020204E-4
0.0020864173
0.0029000202
7.733641E-4
-0.002157078
-0.0026641176
-9.5386815E-4
3.5840567E-4
9.5408084E-4
0.0010552517
0.0013679002
0.0018690572
0.0010531268
-0.0014943818
-0.004110241
-0.00402076
-0.002383995
-0.001442393
-8.408824E-4
-0.0010076344
0.0010627719
0.004538584
0.0035794848
0.0022892365
-2.661086E-4
-0.0070437016
-0.0058179554
8.0841774E-4
6.531498E-4
-1.5165802E-4
0.0014152265
0.0017119942
0.0013226789
-2.798111E-4
-0.0021370982
-0.003588211
-0.0036057576
-4.8304666E-4
0.0032876832
0.0062844874
0.008859687
0.011626806
0.012232151
0.0044661253
-0.006861856
-0.010505073
-0.007890336
-0.0050627543
-0.0019048661
0.0010629623
0.0031190943
0.005591741
0.0046508126
-0.0016611918
-0.006558404
-0.0063787214
-0.0044183065
-0.0038842396
-0.0030876773
-6.021819E-4
0.0010109354
0.0023033447
0.003111524
0.0015029121
-8.748621E-4
-0.002601776
-0.0022887022
-0.0020237046
-0.0030016338
-2.6461825E-4
0.004396668
0.007541244
0.00871423
0.00629879
0.0032969413
-6.804943E-4
-0.005104195
-0.0049295533
-0.004189849
-0.0039665503
-7.678393E-4
0.0023255178
0.003875908
0.003387489
0.0013037485
4.8080878E-4
3.6582528E-4
8.9719746E-4
0.0010599376
-0.0022800441
-0.0034645917
0.0018439039
0.004182386
0.0010215143
-0.0013100958
-0.004420627
-0.0056541096
-0.002893653
-0.0021287187
-6.77537E-4
0.0011154546
-6.1465755E-5
0.0012128853
0.0023377745
6.436365E-4
-1.8363279E-4
-5.585012E-4
5.072324E-4
9.4930944E-4
-7.383667E-4
-0.001503727
-0.0015593466
0.0010794533
0.0037479396
0.0017776312
-0.001209222
-0.0035979382
-0.0028922926
1.240855E-4
0.0011327093
0.0037046885
0.0052046366
0.0031542976
0.0022778888
7.7966775E-4
-9.858749E-4
-0.0017794521
-0.0025909124
-0.0021210783
-0.0014269584
6.745747E-4
0.0027348094
0.00261982
0.0020827928
-0.0011089124
-0.0030997705
-0.002374221
-0.0027919775
-0.0013655312
-0.0014519977
-1.7698298E-4
0.004821255
-3.9424252E-5
-0.0058752103
-0.0019106772
-0.0014905661
-0.0032074878
-0.0013649323
-9.527887E-4
1.465092E-4
0.0026700934
0.0045257555
0.005659147
0.0029491724
-0.0010872826
-5.469953E-4
0.0015137391
0.0033491317
0.0053702523
0.0021455137
-0.002489421
-0.0019688068
-4.8734734E-4
9.60459E-4
9.972004E-4
-0.0020046015
-0.0029825545
-0.0030460102
-0.0035260115
-0.0012672925
0.0016306887
0.0027615244
0.00259809
0.0015271163
-0.0017086564
-0.004749601
-0.0034523911
-0.0026546328
-0.0030982485
-2.754101E-4
0.0017131346
0.0023479578
0.0037091344
0.0028253605
9.1534463E-4
-2.731253E-6
-3.8642014E-4
-5.9494074E-4
-8.846736E-4
-1.8319386E-4
3.1299205E-4
9.7063504E-4
0.0032073501
0.002332787
-8.126277E-4
-0.0018424545
-0.0040349085
-0.00504836
-0.0010679293
0.0010518692
4.477305E-4
0.0029735975
0.005943566
0.004791676
0.0012780969
-9.4900717E-4
-0.0015235933
-0.0020796438
-0.0019319318
-0.0015272389
-0.0019679691
-6.1131077E-4
0.001348036
-3.0750048E-4
-0.0027798284
-0.001958042
-9.183442E-5
-2.589936E-4
-0.001480805
-0.0016424411
3.410932E-4
0.0029785146
0.003476121
0.0027482721
0.0011294906
-9.768438E-4
-5.2232674E-4
-8.9187734E-4
-0.0025087057
-3.1781932E-5
0.0024334944
0.002739696
0.0035037168
0.0026425177
6.457655E-5
-0.0032807516
-0.0036304353
-6.097774E-4
-0.0013040705
-0.0023754272
-2.7349615E-4
8.8572275E-4
0.0013472638
5.283077E-4
-3.633127E-4
-3.4115603E-4
-0.0018532637
-0.0026164714
-0.0023562866
-0.0013304638
0.0011071716
0.002432446
0.0037826316
0.0037631928
2.663022E-4
-0.0013834195
-3.449199E-4
-0.0014929625
-0.0028115744
-2.368131E-4
6.7799224E-4
-3.1807655E-4
0.0026390846
0.0029302712
1.458333E-4
3.346674E-4
-5.2745495E-4
-0.001536157
-0.0016982723
-0.0026970382
-9.7582204E-4
0.0018866052
0.0029107362
0.002521538
0.0019194427
3.274046E-4
-0.0028179572
-0.0024497986
-4.5135405E-4
-7.532065E-4
-1.05065046E-4
9.93628E-4
0.002166288
0.002197202
5.129507E-4
5.5293646E-4
1.8937369E-4
-6.1852435E-5
1.8775232E-6
-0.002315677
-0.0011033127
0.0024782743
0.0017463572
-5.962972E-4
-0.0021655695
-0.002736436
-0.0020132244
-0.0017835815
-0.0020401066
-0.0010567285
-2.766094E-4
-2.709984E-4
0.0015918716
0.0030507143
0.0015131695
-0.0019068726
-0.004189036
-0.0017161395
5.201977E-4
3.1680023E-4
0.001239521
0.0012705098
0.0018797223
0.0016981541
-4.3594747E-4
-7.320939E-4
-0.0020377983
-6.051283E-4
0.0030178425
0.0027894077
0.0046793623
0.0050641783
0.0027647754
0.0029042256
7.70804E-5
-0.0026449966
-0.0040665143
-0.0035401115
0.0017553626
0.0015994943
7.140041E-5
0.0015311204
-8.948004E-4
-0.001331398
-0.0020457862
-0.00461666
-0.0031017766
-0.0021129125
-0.0021384957
-0.0025492592
-6.7212683E-4
0.0036233792
0.0033954966
0.00410479
4.7543983E-4
-0.008569199
-0.00444059
7.438724E-4
-0.0024633796
-3.4547067E-4
0.0015864149
0.0021882025
0.004406524
0.0025531244
0.0016929979
0.0012929328
-8.23609E-4
7.9764184E-5
3.8474238E-5
-0.0016549564
-0.0012524636
3.5158425E-4
0.0023178519
0.002960423
0.0024095587
9.152014E-4
-0.0015700713
-0.0013412159
-3.1965592E-5
-2.3613467E-4
0.0012923464
0.0027769362
0.0025843307
0.002377273
-7.379739E-5
-0.0026840998
-0.0035024327
-0.0054350765
-0.0048909285
-0.0010606813
5.04296E-4
1.0796658E-4
4.1138558E-4
0.0017565312
8.391166E-4
-0.002304828
-0.0015987587
-3.197647E-4
-0.002513241
-0.0032259661
-0.0018554998
5.6048605E-4
0.0039031308
0.0047623357
0.0022996848
-7.0338685E-4
-0.001309734
-2.5016075E-4
1.0294938E-4
4.5228915E-4
0.0020364833
0.004311187
0.0044125766
0.0025152972
0.0017279062
5.1343377E-4
-0.0010294596
-0.0016757161
-0.0031128712
-0.003476052
-0.0015864318
0.0010100614
0.0023156856
5.670408E-4
-0.001084216
-0.0013625392
-0.0021004248
-0.002917593
-0.0043127695
-0.0041528493
-0.0011101479
0.0014987373
0.0034474893
0.0040768473
0.0011154291
-0.002262598
-0.0021470997
-5.6589884E-4
8.1196216E-5
3.4575677E-4
9.378529E-5
0.0027574287
0.007727307
0.0064646974
0.0021502331
2.3279189E-4
-0.0024836047
-0.0041304063
-0.0041371994
-0.0032892718
-2.778673E-4
0.0014687786
0.0010887702
7.471118E-4
0.0016030988
0.0012202986
-0.0023364846
-0.0032768492
-0.0025148506
-0.002406712
3.379032E-5
0.0013293927
0.0018015504
0.0010637583
-5.368608E-4
0.0013502062
-0.0027884238
-0.008157463
-0.0019430433
0.0027824964
0.002422876
0.0043513384
0.0059772753
0.00557107
0.0022934906
0.0011494838
0.0019488389
-8.919104E-4
-0.0014337688
-5.6105555E-4
-0.0018983178
-8.253293E-4
9.861209E-4
9.0288144E-4
-1.8886745E-4
-9.538838E-4
-0.0014685472
-0.0023474868
-0.0017564534
-0.001265398
-0.0010678044
7.926412E-6
7.846823E-4
0.0015272524
-5.330819E-4
-0.0030521816
-0.0025196937
-0.002455593
-0.002715476
-0.0055410676
-0.007359636
-0.0022197682
2.4009492E-4
-6.359952E-4
-8.060593E-4
-0.0028198266
-0.001982131
-0.001308431
-0.0018242361
0.002596922
0.0060515013
0.007894641
0.010413419
0.010046218
0.009453269
0.008393696
0.0054245247
0.0022816586
-0.0019499356
-0.004056041
-0.001351795
0.002547826
0.00420336
0.0030197778
0.001065802
-8.0736575E-4
-0.0030199194
-0.003952591
-0.0031024262
-0.002707653
-0.003399623
-0.0040942407
-0.00546423
-0.006275583
-0.005636923
-0.0064007347
-0.0071160644
-0.0058384747
-0.0011771927
0.008200672
0.012010485
0.005454624
-0.0011046822
-0.0030169191
-0.0030973896
-0.0070279287
-0.012850727
-0.010378801
-0.0028513218
0.0022020072
0.0034858694
7.9412E-4
-0.0015022623
-0.00212787
-0.0016391069
-0.0018862606
-0.006761036
-0.008370537
-0.0017720341
0.0080640195
0.015946072
0.015515601
0.014489319
0.019871175
0.022041423
0.01635239
0.004409556
-9.595152E-4
0.00634722
0.004781597
-0.007446056
-0.011334211
-0.006330564
-0.0012733933
-0.0026426925
-0.005148097
-0.0024354937
-0.0018185665
-0.0049624057
-0.010352993
-0.0186135
-0.021756468
-0.01598742
-0.008915829
-0.0053570257
-0.0017025265
0.0016178224
0.0019777962
0.004298039
0.0078598885
0.008371072
0.007916345
0.0060509695
0.0019728628
-0.0021045492
-0.0043984875
-0.004178416
-0.0024345897
-6.6034606E-4
-2.7081833E-4
0.002016544
0.007502813
0.0096016005
0.00873057
0.0051837345
-0.0037988997
-0.008222956
-0.005303146
-0.0037087386
-0.0015498628
0.0032189945
0.0074290186
0.009050542
0.0074766153
0.0072161406
0.006919901
0.0031463464
0.0012108925
2.4011235E-4
-0.0016254976
-0.0020948122
-0.0029935641
-0.0018777251
0.0012699362
1.7124927E-4
-0.006784932
-0.013870351
-0.01321216
-0.008175839
-0.004059083
-0.0034332327
-0.007313606
-0.0025567308
0.006560777
0.005732065
0.0047362647
0.002715519
-0.0023273902
-0.0019541755
-0.0010689299
0.0010973088
0.004076636
0.006308813
0.01050012
0.007080512
2.1691378E-5
-0.005009733
-0.009595839
-0.0038751378
0.002182654
-2.5640288E-4
-0.0011476253
-0.0013414884
0.001504065
0.005494119
0.004974624
0.006224243
0.0053322106
0.0011001067
1.1739383E-4
-0.0022012962
-0.0054932665
-0.0032825624
8.4867695E-4
2.1720323E-4
-8.4907457E-4
0.0012118057
-0.0013290824
-0.006600865
-0.006428395
-0.0033185696
-7.3241413E-4
0.001551836
0.001507146
-0.0039653946
-0.009189854
-0.007457907
-0.0036218134
-6.370295E-4
0.002474936
0.006166271
0.009609506
0.0062775253
-2.5318455E-4
-0.0020241532
-0.0035212056
-0.0051544136
-0.0026323728
0.0024496424
0.008328855
0.012720015
0.01107277
0.005560998
0.0037009425
0.0027692583
-2.3523158E-4
-0.0022416462
-0.006034942
-0.008218502
-0.006422761
-0.005029316
-7.3734066E-4
0.0020305817
0.0013411746
0.0027717878
3.6861788E-5
-0.0031806163
-9.0740767E-4
-1.5223757E-4
-2.21562E-4
-5.4824306E-4
-0.0017963098
-8.4086583E-4
2.9322074E-4
-2.2876145E-4
-0.0012169901
-1.509597E-4
-0.0016801339
-0.007785817
-0.008048571
-0.006925086
-0.008185567
-9.953832E-4
0.0071113924
0.00713877
0.005255122
0.003764451
0.002782395
0.0026657293
0.0027870918
0.002138564
0.001135287
0.0020800189
0.0019146713
-9.5841265E-4
-0.0025781824
-0.0014893921
6.3549576E-4
0.0016071647
0.002112065
0.0016464095
-0.0028382733
-0.009062856
-0.010552672
-0.004779683
0.0013424488
0.003948853
0.0072765383
0.007902075
0.0036239468
2.9192425E-4
1.6422945E-4
0.0027805702
0.0037547736
0.0019930426
0.0027296918
0.0033658796
7.748812E-4
-0.00414855
-0.011183695
-0.01506298
-0.013573935
-0.0109297745
-0.009580338
-0.010395225
-0.011315562
-0.00893552
-0.0035196317
0.001907726
0.0065857028
0.012538296
0.018148923
0.021093957
0.022865374
0.02358881
0.022133503
0.018218663
0.012411009
0.0073944544
0.0045409254
9.5690705E-4
-0.005253458
-0.011877668
-0.016639192
-0.019293215
-0.022706928
-0.027043886
-0.029568614
-0.035123095
-0.040382545
-0.03507157
-0.026922245
-0.018326074
-0.0026183852
0.012106333
0.021396067
0.026448779
0.02710764
0.027799156
0.025981467
0.019810041
0.016306436
0.01868736
0.021436082
0.015399601
0.0048395614
-4.2156767E-4
-0.0036789298
-0.008239891
-0.013580435
-0.017769707
-0.018898236
-0.019159269
-0.013418363
-0.0026977556
2.0923435E-4
-0.0015630816
0.0024538548
0.014363465
0.029877463
0.038647097
0.03988624
0.03753872
0.027854385
0.0149742225
0.0062980284
0.002198361
9.3327784E-5
-0.0041755717
-0.006477799
-0.0043380256
-0.0038916497
-0.002891016
-0.0026224547
-0.009522526
-0.016287312
-0.015848959
-0.00980455
-0.0010603372
0.009060702
0.024229959
0.036366954
0.026530314
9.649513E-4
-0.020443853
-0.039476246
-0.058069
-0.06759442
-0.0704752
-0.06426237
-0.044425376
-0.032448307
-0.044267926
-0.06743998
-0.08736212
-0.08728101
-0.06339274
-0.046169546
-0.042942148
-0.026228752
0.017124085
0.08738692
0.14185005
0.14331949
0.1579554
0.21929875
0.26445705
0.26893383
0.24208687
0.19976741
0.14855579
0.060442585
-0.030975483
-0.05634217
-0.03065763
-0.035580505
-0.13176441
-0.25404695
-0.2919056
-0.26251376
-0.23369561
-0.22441436
-0.2225571
-0.20071244
-0.16459486
-0.13787453
-0.10875183
-0.056490257
0.013152946
0.07941962
0.15324128
0.22933006
0.2350645
0.17682992
0.15576634
0.18155691
0.19305685
0.17757207
0.15105636
0.12331582
0.09744422
0.066240646
0.020209624
-0.036791697
-0.081876576
-0.096777104
-0.10649832
-0.14986674
-0.21303047
-0.2602818
-0.27707282
-0.2500623
-0.17407788
-0.062382817
0.044409968
0.09907855
0.11356619
0.126294
0.14376004
0.15244977
0.13647753
0.1018345
0.075145796
0.07895136
0.08621943
0.054225408
0.025769217
0.010934998
-0.04509942
-0.08601744
-0.06182275
-0.032017224
-0.028363237
-0.04412069
-0.061621293
-0.06480158
-0.057056125
-0.03590013
-0.012352725
-0.0016165543
-0.0054510613
-0.01902429
-0.033214897
-0.05496634
-0.059467897
-0.016214728
0.04187291
0.09351129
0.122177295
0.10440698
0.077742815
0.067526944
0.051511236
0.019514631
-0.019258533
-0.041460663
-0.045314442
-0.048865207
-0.049802437
-0.049144864
-0.05308687
-0.05370106
-0.043358847
-0.021112412
0.0042574084
0.014835006
0.005485829
-0.0035432205
6.6023204E-4
0.005179558
0.0048142476
0.0072633005
0.012032501
0.014934151
0.018600319
0.024186578
0.024766276
0.0214255
0.016942356
0.01214228
0.015589787
0.021015516
0.02527487
0.034710035
0.035799734
0.030511355
0.027808813
0.021923421
0.017175771
0.009333937
-0.0015924994
-0.012420987
-0.031989325
-0.045437433
-0.047636397
-0.047108833
-0.039352298
-0.030136291
-0.014482612
-0.0010376915
-0.0067685326
-0.0064678728
0.002217122
-7.747309E-4
-0.010975331
-0.019613154
-0.017129516
-0.009849947
-0.005804688
-0.00526394
-0.011044498
-0.0064582657
0.0076493435
0.020655856
0.040598996
0.054982234
0.05743362
0.049818955
0.026114779
-0.0013721801
-0.021666836
-0.024049383
-0.012160399
-0.005912486
0.0025698997
0.012683375
0.015818834
0.01691957
0.0061980775
-0.0064349817
-0.0012999189
0.012179781
0.024614438
0.029496646
0.016392479
-0.01572235
-0.046718936
-0.055677485
-0.05012621
-0.033661
-0.008729345
0.0010569999
-0.0033532314
-0.004015117
-0.0038624315
-0.007615236
-0.014861885
-0.021497138
-0.017551078
-0.009558149
-0.010460477
-0.010814772
-0.0037251848
0.0040433705
0.012457925
0.017875306
0.020065319
0.025641942
0.027556952
0.026051011
0.0256419
0.019430483
0.014911596
0.018140143
0.020001851
0.019396555
0.014630109
0.004732274
-0.0016783858
-0.003509785
-0.005982814
-0.00987467
-0.013634925
-0.015971439
-0.016463608
-0.015632637
-0.0155081395
-0.01644205
-0.016126454
-0.01472307
-0.01431786
-0.013683741
-0.010222879
-0.0073800087
-0.007918953
-0.007313827
-0.00750711
-0.011430162
-0.010632386
-0.0059970417
-0.005409856
-0.0023781566
0.0037491114
0.00503537
0.0077245673
0.013467601
0.013679263
0.009681586
0.0043507763
0.0013403955
0.0042519243
0.0072651934
0.01008712
0.014850656
0.017500961
0.01798505
0.01593623
0.014131682
0.013703416
0.007471352
0.0018620847
9.407061E-4
-0.004183723
-0.0074095116
-0.0066217943
-0.009715143
-0.010917909
-0.008070904
-0.0069032223
-0.0072799968
-0.005671808
-3.920306E-4
0.0017580457
-2.9729985E-4
0.0018704305
0.002497069
-0.0031407222
-0.005578987
-0.0062885107
-0.009794812
-0.009301414
-0.004203244
-6.2979077E-4
8.014002E-4
0.0037067835
0.007676065
0.008434903
0.0077041946
0.006944744
0.004889496
0.003416881
-0.0014681963
-0.0077749733
-0.006165218
-0.0026885117
-0.00365899
-0.0062023825
-0.0072426386
-0.0033612992
8.890056E-4
0.003264835
0.0053904834
0.004144143
0.005296772
0.008521366
0.005955037
0.0038039158
0.0028382638
-0.0020149907
-0.005808368
-0.005289645
-0.0023876473
-8.223551E-4
-8.4350526E-4
0.0012447895
0.0025010973
3.6761176E-4
3.8136446E-4
0.0022792153
0.0012525895
0.0016419627
0.0036768627
0.00198356
0.0012690845
8.5143256E-4
-0.0036586174
-0.0057769464
-0.0042021675
-0.0016130664
0.0013349537
0.0026399295
0.003826839
0.00395249
0.0027907954
0.0019442276
-0.0019650368
-0.005749642
-0.005137401
-0.0037239222
-0.0032510026
-0.0039396915
-0.0049916604
-0.0042006234
-0.0023973004
-8.843131E-4
0.0027203362
0.008151431
0.00892327
0.006977907
0.008182062
0.0073664784
0.003290366
0.0012757753
0.0011437782
0.0018220713
0.0021094815
-0.0011599158
-0.0065355245
-0.009675054
-0.010912183
-0.009592504
-0.005933877
-0.0075088274
-0.0128681725
-0.015413745
-0.016992372
-0.016160574
-0.011051395
-0.0042234673
0.0010527695
0.0022131158
0.003271572
0.0041355803
0.0020362644
0.0033946557
0.008459573
0.012896753
0.019358682
0.026007652
0.027069066
0.023717178
0.019722823
0.014713198
0.0108644245
0.014748425
0.02098328
0.015487673
0.0033389102
-0.0033948983
-0.011949128
-0.023080379
-0.027775882
-0.030631468
-0.031157024
-0.025988508
-0.020844033
-0.0167034
-0.013112776
-0.008793892
-0.005983337
-0.0060789874
-0.0026234095
-0.0012550252
9.7281285E-5
0.007601501
0.007379649
0.0041811457
0.004664457
0.0022664326
0.006178125
0.010608991
0.008778201
0.010935278
0.011301902
0.008992162
0.008567377
0.0060304445
0.0037876884
4.076428E-4
-0.0036344049
-0.0038657004
-0.003309636
-0.0020344763
-5.4936146E-4
-6.590249E-4
-9.4810757E-4
-7.955389E-4
1.5612043E-4
5.852582E-4
0.0026888822
0.005322428
0.00307254
0.0016256876
0.0026358012
0.0026261385
0.0022208884
-0.0027088646
-0.0068010106
-0.004188373
-0.0037233767
-0.0055682478
-0.005341508
-0.0058525777
-0.006381533
-0.004809397
-0.0022446169
-8.348328E-5
6.2049E-4
-0.0017672308
-0.0044263094
-0.0036968
-0.0034526042
-0.0040444266
-7.896341E-4
0.0059818416
0.009966632
0.009111294
0.011328924
0.009285779
-0.0032534546
-0.006014991
-0.0012066475
-0.0038214275
-0.0052390615
-0.00457432
-0.003670229
-1.6280546E-4
9.978226E-4
0.0016541996
0.0036309594
0.0060188053
0.005765949
-0.0014087139
-0.006014526
-0.0030861446
8.6260407E-4
0.0032208958
0.0026105163
-1.7701042E-5
-0.002924765
-0.0031709385
-4.2261806E-4
-9.860329E-4
-0.002328615
-3.6700213E-4
0.0014014371
0.0022738043
0.0021810348
0.0011434302
-3.2994733E-4
-9.931605E-4
-2.5926114E-4
-0.0021102265
-0.0041447426
-0.0014205825
0.0022017644
0.003077592
0.0014144693
-7.0630864E-4
-0.0019083133
-0.003716021
-0.0051489742
-0.003270963
0.0020468754
0.006710066
0.006130942
0.0019285298
-0.0011620134
-0.0019631973
-0.0020121187
-0.0010528073
0.0023750523
0.005648498
0.005861729
0.0038984504
-5.297002E-4
-0.0040180148
-0.0020531297
-0.0017991362
-0.0043217535
-9.5421635E-4
0.0014026762
-0.0023657682
-0.002630323
1.2889982E-4
5.8330625E-4
6.572732E-4
-9.5743126E-5
-0.0019027878
-0.0016980391
-0.0010777903
-0.002825907
-0.0035475825
-0.0021287405
-8.846925E-4
0.0014346355
0.0025152753
-2.100133E-4
-0.00242824
-0.0026046438
-0.0022041262
-0.001570937
-0.001087324
6.2550267E-4
0.0027593852
0.002718494
0.0011288517
-6.168716E-4
-1.5342962E-4
0.0026197084
0.0033039271
0.0028889745
0.0038763403
0.0046496238
0.0056031784
0.0046905596
0.002095017
0.001667117
9.0425054E-4
0.0010940178
0.0024080595
3.2312577E-4
-7.2820747E-4
-1.6540656E-6
0.0022259513
0.006028241
6.963264E-5
-0.011010211
-0.011926118
-0.007962642
-0.007830455
-0.008371069
-0.006077496
-0.0046201674
-0.0040191896
-8.9256524E-4
3.5034528E-4
-9.3626307E-4
-0.002431815
-0.0029695847
2.170522E-4
0.001994094
0.002391347
0.0060448167
0.008219443
0.008328517
0.008974662
0.010020876
0.00734152
-0.0010844644
-0.0042128228
-5.5191095E-4
0.0012378567
0.0018274301
0.0017019315
0.0016417326
0.0025867359
0.0031246722
0.0017421669
-0.0033217801
-0.0049789725
-0.0034336273
-0.0056470116
-0.0047449805
-0.0037292643
-0.007010428
-0.004920965
-0.002131486
-0.0016534345
0.001492803
0.0016378433
0.0015040224
0.0019059201
-0.0027532168
-0.0017830229
0.004393481
0.0037670515
0.0016906752
3.3314104E-4
-0.0019937311
-0.0011194168
-0.0011773594
-0.0019663984
7.427997E-4
0.0028172736
0.0038371885
0.004052308
0.002161794
0.0013751765
0.0029018156
0.004946711
0.0040183743
8.3960313E-4
4.0554846E-4
0.0012213362
9.57178E-4
-5.912861E-4
-0.0030494698
-0.0031361403
-0.003050469
-0.005799654
-0.008724064
-0.010120548
-0.007899158
-0.00399129
-0.0031504517
-0.002949172
-0.0015529989
-3.663825E-4
4.0928065E-4
4.135984E-4
0.001002564
0.0022546838
0.002614597
0.002649241
0.0020789024
0.0016086567
0.0021937296
0.0020180321
0.004597359
0.013563858
0.021350335
0.024806669
0.026815668
0.018095292
-0.0017260781
-0.014700432
-0.017136633
-0.014880774
-0.010064708
-0.01048566
-0.0136428075
-0.0106597645
-0.00676885
-0.0024658334
0.0034062346
0.0010043615
-0.0051168776
-0.0055126636
-0.004851177
-0.0028782198
-8.2090055E-4
-0.0037883162
-0.0044721276
-0.0015803293
-6.195113E-4
0.001201935
0.0017748986
2.0750608E-4
0.0019252852
0.0033471887
0.0025703744
0.003217234
0.0037415945
0.004126219
0.0042975275
0.0025627716
0.0010379662
-4.5550743E-4
-0.001084405
5.30951E-4
6.0284307E-4
8.2698575E-4
0.0021879212
0.0033671183
0.008662243
0.011661001
0.010467077
0.013044922
0.010348329
0.0055614593
0.009052292
0.0041995617
-0.008375556
-0.009821891
-0.005117491
-0.006446083
-0.0138240885
-0.016917916
-0.012660024
-0.011001654
-0.011597534
-0.00879872
-0.004685149
-0.002397661
-0.0018102307
-5.604741E-4
-7.6005363E-4
-0.001451669
6.209859E-4
0.0013529119
0.0028119495
0.0066506444
0.0067200055
0.0054483074
0.0068090884
0.0078147845
0.0059381006
0.0029094145
0.0018852402
0.0015788224
0.0015925346
0.0018454518
-0.0012663342
-0.0046128957
-0.0035065284
-0.0019143384
-0.0028609682
-0.0033146124
-0.0022030924
-0.0016737225
-6.071856E-4
0.0027427836
0.0060988483
0.0071400884
0.008181863
0.010028478
0.0069067553
0.001852
0.0012428659
-0.0016352932
-0.0053358623
-0.0023688353
0.0027221977
0.006358644
0.006422966
0.0023397834
-0.0031655235
-0.009581984
-0.010827342
-0.0070786458
-0.00636313
-0.006090406
-0.004874698
-0.004027461
-0.002055652
-0.0022223995
-0.003410823
-0.0038548901
-0.0059473743
-0.005939225
-0.0035250748
-0.0023601511
-4.054805E-4
0.0016086395
0.0023118397
0.0030920352
0.0026377453
0.0031061429
0.0049922825
0.0047229202
0.0046664346
0.004392039
0.003281764
0.0035611233
0.0014815571
-3.5493524E-4
1.3204581E-4
1.3942532E-4
0.005221559
0.012414521
0.015036961
0.014135203
0.008819473
0.004851301
0.0030999957
-0.0012684719
-0.0013902767
-2.5784812E-4
-0.004576683
-0.0060728523
-0.0052441387
-0.008420044
-0.009687047
-0.007717816
-0.009317496
-0.011788233
-0.010985685
-0.009295813
-0.0073917382
-0.0069829393
-0.0072257156
-0.005431504
-0.0044597713
-0.0029970529
0.0010331974
0.003948859
0.005018001
0.005641102
0.0046607577
0.0024819558
0.0038245472
0.0059118075
0.004227332
0.0052032587
0.007939545
0.011400905
0.019321065
0.022240805
0.020090887
0.0150850145
-7.8486133E-4
-0.013737075
-0.013928071
-0.01214662
-0.008231936
-0.0033601543
-0.001575325
0.0017766654
0.0037132197
0.0010269727
-0.003545231
-0.010174459
-0.013505795
-0.009399518
-0.004719453
-0.0031017808
-0.0029643315
-0.004070528
-0.005534657
-0.006062483
-0.004677403
-0.0027813092
-0.0010181362
0.0015596064
0.0028368714
0.004710346
0.0069437246
0.0048175785
0.003994856
0.005782669
0.0047029904
0.004126466
0.0038397342
0.0016238663
0.001306397
0.0037645346
0.0061029634
0.005471261
0.0038474628
0.0033614119
0.0014023039
-0.0023093745
-0.004469928
-7.432815E-4
0.0028030411
-0.002830552
-0.00737624
-0.005547318
-0.005241988
-0.0037973947
-0.0015470965
-0.0028556138
-0.0035796075
-0.0022334715
2.523028E-4
0.0016424541
-3.0823174E-4
-0.0016605688
-0.0012249978
-0.0010435126
-9.6084445E-4
-2.824298E-4
0.0013697103
0.0015906406
0.002172638
0.0054387012
0.0052488353
0.0027184929
0.0014973808
-0.0010068162
-0.0010990168
-6.991561E-4
-0.0040448946
-0.003421563
3.400081E-4
8.572579E-4
-1.1696041E-4
-0.0025036503
-0.0036594542
-1.7599088E-4
0.004345001
0.0075480947
0.006025948
-7.867965E-4
-0.0041593174
-0.0023239017
8.170648E-4
0.00463547
0.0060908864
0.0041508824
-0.0015609598
-0.00855229
-0.0082046045
-0.0040102312
-0.002352673
-2.1988973E-4
-1.3120183E-4
-0.002597344
-0.0036416256
-0.003164545
-0.0012902792
-5.3289364E-4
8.771784E-4
0.003656991
0.0024021973
0.0012808964
0.0021045934
0.001643205
0.002808543
0.0050870944
0.008200228
0.009943452
0.007460885
0.004082938
-9.991636E-4
-0.002850699
-5.0076534E-4
-0.004420419
-0.007425823
-0.005164782
-0.004610694
-0.0010640204
0.0010424756
-0.0030263416
-0.003895811
-0.0024558827
-0.002403596
-0.0015876701
-0.0015906235
-0.0021638942
-6.153026E-4
9.4585563E-4
-8.9269684E-4
-0.0023915316
-9.219843E-4
-3.9880312E-4
-2.7855884E-4
5.8160693E-4
6.102851E-4
4.887566E-4
-3.6863866E-4
-8.6405757E-4
9.1605517E-4
0.002363645
0.0022183834
0.002310643
0.002860385
0.002153509
5.1710485E-6
-0.0019020279
-0.00272118
-0.0024947873
-0.0010660712
0.003072749
0.010436893
0.017014135
0.017392766
0.012821265
0.008469584
-2.9660843E-4
-0.013081527
-0.015066301
-0.009103273
-0.006117751
-0.0030414818
-0.0024059652
-0.0047883196
-0.004822538
-0.004515736
-0.004611863
-0.0053095487
-0.003994837
8.884802E-5
6.343339E-4
5.1902473E-4
3.1745437E-4
-0.0010504788