-8.094633E-4
-3.9374834E-4
-0.0012935926
3.523252E-4
0.0011601393
-8.589199E-4
6.002572E-4
0.0011984672
3.879754E-4
4.6973836E-4
-0.0013119099
-6.9714757E-4
0.0013472702
8.146353E-4
7.649265E-4
0.0013569309
0.0017315851
0.0014426342
8.3824614E-4
0.001036525
7.27518E-5
-9.2536444E-4
-5.7452585E-4
-6.491205E-4
-0.0011024819
-0.0013091894
5.129845E-5
0.001493468
4.7141156E-4
-1.3374211E-4
-6.96356E-4
-0.0027417582
-0.0019064352
-1.06724096E-4
-0.0013861755
-3.7238267E-4
0.0029964845
0.0024942472
6.650215E-4
-3.819853E-5
-8.207389E-4
-1.00221536E-4
4.603139E-5
-5.548254E-4
5.59979E-4
-4.7952496E-4
-0.0015581368
6.5119093E-4
2.7196322E-4
-6.201412E-4
2.3466162E-4
-0.0016568981
-0.0019587309
-5.502634E-4
-7.956325E-4
6.6189904E-4
6.799427E-4
9.097682E-5
0.0014180122
-5.259539E-4
-0.0022722757
-0.0025191018
-0.0021570902
0.0010562304
0.001554559
0.0027582769
0.0050723953
0.0017033482
0.0015941496
0.0035064344
9.76591E-4
-6.531217E-4
-0.002820797
-0.0026998403
0.0012011871
0.0016585686
3.4632883E-4
4.5723624E-5
0.0010869987
0.0014404319
-0.0016329548
-0.0037118609
-0.0035188163
-0.002278945
1.8190549E-4
9.801596E-4
2.3736265E-4
6.413596E-4
0.001216566
8.457836E-5
-3.1797556E-4
-5.1582832E-5
-0.0010646238
-3.0180984E-4
1.2882243E-4
-3.3072953E-4
0.0012842047
9.289312E-4
4.2177962E-5
-6.570825E-4
-0.0021935026
-3.6259214E-4
3.1535327E-4
-8.691112E-4
-4.2023478E-4
-9.2430564E-4
9.191848E-5
0.0011959096
6.440035E-4
7.763933E-4
-6.7068497E-4
-9.930354E-4
-9.999015E-5
-4.3486475E-4
9.2236995E-4
9.6031564E-4
-3.844572E-4
0.0010413587
0.0024820822
0.0017519394
-2.9716012E-4
-0.0015674414
-5.313952E-4
7.5885234E-4
7.008696E-4
0.0014000153
0.0025373898
3.8726887E-4
-0.0010881493
7.8870455E-4
2.7690205E-6
-0.0017085674
-5.365073E-4
-2.5195105E-4
-0.0019807385
-0.0024744382
-3.541462E-4
0.0015324736
0.0022486327
0.0024831446
4.5683258E-4
-0.0017810711
-0.0012201697
8.5767754E-4
0.0010026506
-0.0012573451
-9.924977E-4
6.554058E-4
-9.281025E-5
-2.2868419E-4
3.5904074E-4
1.0365944E-4
-7.0996553E-4
-0.0019274097
-0.0016529134
-8.324823E-4
-3.6099975E-4
5.8846764E-4
4.4331784E-5
-0.0014820861
-0.0020242142
-0.0012942324
-1.777542E-5
-4.511048E-4
-0.0013740695
-9.83366E-4
2.2186812E-4
0.0020484019
0.0018433694
0.0010427098
0.0025097455
0.0014446157
-5.4398587E-4
0.0010376875
0.0015530159
0.0014947709
0.0026998806
0.0020802675
0.0023242247
0.0027675522
1.951006E-5
-0.0020719212
-0.0021254502
-0.0012186192
1.11822934E-4
4.2537152E-4
9.313479E-4
0.0011463437
5.0228027E-5
-8.9142896E-4
-0.001512372
-0.0019201188
-0.0023024387
-0.0018501995
-0.0017969556
-0.0028933804
-3.620409E-4
0.0017622671
-8.383586E-4
-0.0015380667
-0.0011661304
-0.0011575387
2.06879E-4
-6.4445555E-4
-0.001226946
-1.2379354E-4
2.550561E-4
0.0016421699
0.0024234809
0.0016241531
8.6450425E-5
-8.6798845E-4
0.0012058057
0.0020642434
6.2102085E-4
0.0014286251
0.0031977606
0.003216834
0.0016156585
7.6149224E-4
-5.0904363E-4
-0.0033382815
-0.0031289354
-0.0019285734
-0.0014643895
3.4011915E-5
-9.478434E-4
-0.0012778111
0.0014752985
0.002019631
6.777659E-5
-0.0015134824
-0.0014841327
-0.0014029719
-8.5999107E-4
2.3722398E-4
-8.1382715E-4
2.9152635E-4
0.0020837744
4.423128E-4
3.9539102E-4
-6.54712E-4
-0.002749714
-0.0011992963
-9.6049924E-5
1.7103422E-4
5.9699966E-4
0.0012452534
0.002772313
0.0025599499
0.0018737776
0.0013476794
3.6953844E-4
-8.0122025E-4
-0.0024198524
-0.0012682793
8.790248E-4
0.0017563474
0.0024839572
0.0011581286
-9.4380186E-5
-0.0011926001
-0.0022312393
-3.6232962E-4
9.176354E-4
0.0019507386
0.0027584552
0.0015786003
0.0023404115
-9.924616E-4
-0.009387174
-0.00738347
0.0014150607
-8.9656573E-4
-0.0068902294
-0.002983666
-6.997614E-4
-0.0027334087
0.002458482
0.0064059743
0.0028969918
4.4795923E-4
1.8565645E-4
2.5082196E-4
7.850774E-4
0.0012459084
0.0010864773
9.169603E-4
0.0018733878
0.0018523568
7.1102584E-4
2.4657196E-4
4.1651848E-4
8.013842E-4
3.5338767E-4
7.975956E-4
0.002481374
0.003106626
0.0014599501
-0.0029802006
-0.004460101
-0.0024008376
-0.0029760117
-0.0027709317
-0.0014594117
-0.0021890083
-8.7732513E-4
0.002076672
0.0032721327
0.0025420615
4.338504E-4
-0.0016341221
-0.0018448629
-5.6044833E-4
-3.5101685E-4
-5.167998E-5
0.0014956547
0.0024647336
0.0026086518
7.6024205E-4
-9.313007E-4
-4.8401367E-4
-7.0997165E-4
-6.9940515E-4
-4.9608597E-4
4.2982044E-4
0.0029223505
0.0014514393
-0.0011635348
8.2880586E-5
-3.7988176E-4
-0.003094635
-0.003484728
-0.0021227237
-0.0010775626
-4.3146673E-4
-3.724439E-4
-2.6537254E-4
0.0012800201
0.0013186637
-9.779106E-4
-0.0019348696
-0.002081709
-0.0011545164
5.239734E-4
-6.546826E-4
-6.1236206E-4
0.0035439061
0.0054122945
0.0032380887
0.0012545949
0.0011224472
0.0012638443
-3.6515977E-4
-0.0022435822
-0.0011681423
9.2100847E-4
0.00202926
0.0035531654
0.0024981485
-4.1825583E-4
-3.0952547E-4
-0.0020219034
-0.0047821174
-0.0017924324
3.5338622E-4
-6.3503586E-4
1.10233115E-4
-6.0624356E-4
-0.0015611177
-2.8143637E-4
-3.549187E-5
-1.1521753E-4
-7.037057E-4
-0.0014601959
1.4601872E-4
0.0011281155
9.538813E-4
0.0010256905
4.0684122E-4
7.760878E-5
-0.0013695536
-0.0023658602
-3.016732E-4
2.215809E-4
-4.26527E-4
2.3774522E-4
5.056379E-4
0.0011613839
0.0010856219
-8.88155E-4
-0.0026140974
-0.0021373704
1.623631E-4
9.118168E-4
0.001682514
0.0032400563
0.0020859328
0.0010664733
2.0950394E-4
-0.0011904688
-2.2797442E-4
-0.0010121847
-0.0020794559
2.3991706E-4
9.601243E-4
0.0010214439
0.0019181455
0.0012993488
6.691427E-4
2.9967632E-4
-2.4702415E-4
-0.001270983
-0.0020379836
-5.9993676E-4
7.7225466E-4
8.5299334E-4
6.833295E-4
-1.8613779E-5
-0.0012464857
-0.00268938
-0.002020349
-5.129659E-4
-7.79867E-4
5.309323E-4
0.0017007038
7.8726E-4
0.0012835731
0.0012063775
0.0012753833
0.0026034876
1.0125353E-4
-0.0018745264
4.829512E-4
-1.339497E-4
-0.0027380046
-0.0010941359
0.0013884204
6.150854E-4
-0.0012800669
-0.0020216482
-0.0022297085
-0.0023483045
-5.916817E-4
0.0012134517
-7.841295E-4
-0.0019341453
3.0205576E-4
5.328702E-4
4.7968005E-4
0.0014708872
1.407855E-4
-4.1965998E-4
5.028866E-4
7.693438E-4
9.3727914E-4
6.4302684E-4
0.0017002665
0.0026078336
7.967402E-4
2.18513E-4
9.984345E-4
0.0015874029
0.0023502447
0.0014390716
2.4808125E-4
4.697786E-6
-4.1774252E-5
1.9708457E-5
-0.0013462935
-0.0029220537
-0.0038591302
-0.0043784506
-0.0020763294
2.4505518E-4
-1.0871136E-4
7.864574E-5
7.055665E-4
3.2675223E-4
3.7018603E-4
6.546363E-4
-4.2007046E-4
-0.0012603736
3.0413995E-4
0.0016858053
0.0011098098
0.0011954712
0.002187262
0.0014641291
-2.3696182E-4
-9.195052E-4
-0.0015673841
-0.0017385962
-5.919624E-4
3.4312E-4
9.1700704E-4
6.2689086E-4
3.926229E-4
0.0013869855
-9.1319605E-5
-0.0031965433
-0.002978727
-0.0010258151
-0.0010859785
-0.002065295
-0.0013623484
-3.4772085E-5
0.0011210099
0.0019299147
0.0012469487
0.00147009
0.0020059608
3.9146683E-4
1.6182801E-4
0.0012028697
9.76212E-5
-8.214523E-4
0.001193033
0.002681955
7.063845E-4
-6.71127E-4
8.5938744E-5
-6.132401E-5
-7.5881166E-4
-7.620216E-4
-0.001013835
-0.0012426816
9.011051E-4
0.0018919201
-5.1705516E-4
-3.81304E-4
-7.2788075E-4
-0.0023265553
3.7941496E-5
-6.999486E-4
-0.0018403849
0.0022827338
0.0032813188
0.0022583187
6.3427375E-4
-0.0025357015
-0.002123813
-0.0015866692
-0.0018313042
-5.177575E-4
-1.1929138E-4
0.0011887277
0.0017860066
7.717349E-4
0.0022369453
0.0026969865
-2.0207146E-4
-0.002231022
-0.0021442692
-0.0015057533
-8.1681117E-4
1.5015056E-5
7.330554E-4
0.0012390349
2.2301481E-4
-0.0024474005
-0.0037314512
-0.00244139
-5.549008E-5
0.0011681467
0.0011894868
0.0023105217
0.0026535443
8.050979E-4
-1.0837482E-5
-2.0621979E-4
-5.93061E-4
1.8217317E-4
-8.795661E-4
-0.0030102078
-0.0011141144
0.0016625865
0.0020194862
0.0028220667
0.0032837496
0.0015153732
1.444689E-4
-2.1229232E-4
-0.0020490622
-0.0032307543
-0.0012239728
7.330417E-4
0.0014937721
0.002089485
0.0013327401
-8.815607E-4
-0.0025948554
-0.0019176458
-9.211353E-4
-5.8344327E-4
0.001096649
0.001902773
0.0018574528
0.0018775458
3.6713065E-4
-6.519004E-4
-0.0014991326
-0.0017681087
-3.7193243E-4
-0.0010356704
-0.0015432661
2.9115725E-4
0.00117011
0.0013799871
0.0020240254
0.0017568613
-0.0012052465
-0.003031847
-0.0013656844
-0.0016907792
-0.0022509156
-5.728128E-4
3.9188052E-4
0.001393101
1.4855163E-4
-0.0023079496
-0.0018165654
-0.0017704734
-0.0011773462
0.0014960876
0.0013984831
-1.9415405E-4
4.4883057E-4
0.0018930527
0.0026090245
0.0020661624
-5.819063E-5
-0.0012583194
-2.7949363E-4
1.9996945E-4
6.4534764E-4
0.0024358437
0.0033503224
0.0026169762
0.0015399725
5.36313E-4
-8.259448E-4
-0.001233648
-1.21835365E-4
8.606927E-5
-1.243574E-4
4.8541976E-4
0.0011169428
5.639793E-4
-0.0016624528
-0.0017647231
-9.0555707E-4
-0.0024166745
-0.0012606889
6.202387E-4
-7.376072E-4
-6.3478533E-4
1.2448398E-4
-8.8559784E-4
-0.0022655723
-0.002531341
-0.0015333894
-0.0026166234
-0.0033646494
-0.0011210623
5.642227E-4
0.002461919
0.0028349417
0.0011697956
0.001658474
2.1245716E-5
-0.0031361752
-0.002427217
-6.6427415E-4
0.0015196321
0.0036166706
0.003949747
0.002927304
6.4595114E-4
0.0013260337
0.00275603
-5.9635953E-5
-7.7643286E-4
0.0014682951
0.0021599233
0.002212434
0.0011870736
5.9594214E-4
0.0021949988
0.002660774
6.846192E-4
-0.0012035128
-0.0024542797
-0.0037090036
-0.0028779816
-0.0019239046
-0.0029839056
-0.0019202539
-5.661849E-4
-0.001392023
-0.0019736595
-0.0029316118
-0.0034411966
-0.003064665
-0.0018240545
2.2449187E-4
6.6108315E-4
0.001999477
0.0036679415
0.002251133
2.733388E-4
-0.0013361647
-0.0014704816
-8.450797E-4
-8.5385394E-4
0.0019712106
0.005002181
0.00486509
0.0032059648
0.0021400487
0.00314179
0.0012260454
-0.0034019744
-0.0037658284
-0.0015936444
-5.950373E-4
-0.0013038213
-0.0019279239
-5.7877676E-4
7.771208E-4
0.0014418828
0.0012769895
7.437904E-4
7.5370166E-4
5.2832003E-4
1.9564207E-4
-8.518915E-4
-3.6124833E-4
0.0026089035
0.0031536648
7.885934E-4
-0.002600002
-0.003361463
3.0636686E-4
0.0027044402
0.002976377
8.346216E-4
-0.0038001041
-0.0045695235
-0.0027828699
-0.0022339043
-0.0023960785
-0.0032073
-0.0023482533
-6.933646E-4
-2.261596E-4
-4.9366117E-5
2.844078E-4
0.0015951977
0.0014863076
-4.995458E-4
-0.0012023558
-8.067282E-4
5.58787E-4
0.001244715
0.0013165397
0.0026834307
0.0024223023
0.0030428136
0.0046528657
0.0011872782
-6.0580374E-4
0.0018636753
7.044883E-4
-5.353237E-4
7.972944E-4
0.0011424418
0.002031907
0.0017153318
-0.0020934073
-0.0056035877
-0.0060573523
-0.004100722
-0.0023094409
-8.107384E-4
6.3929165E-4
-6.724409E-5
-1.08833614E-4
0.0012816864
8.4672164E-4
9.1677695E-4
6.748992E-4
-0.001845883
-0.002453889
-0.0010023912
3.938712E-5
2.1920215E-4
9.860748E-5
0.0011367603
0.0017478082
0.0010345505
6.516128E-4
4.918144E-4
6.060687E-4
0.0018524269
0.0030225818
0.001912938
8.60775E-4
0.0019362157
0.002364344
0.0014514924
-0.0011314867
-0.002686955
-1.3803183E-5
7.6343573E-4
-4.8420514E-4
0.0010173204
0.002197733
0.0021979453
0.0016113049
3.4073374E-4
-0.0010736695
-0.002175263
-0.0014152327
-0.0018674788
-0.0026066431
-6.464882E-4
-7.6684373E-4
-0.0021805987
-0.0034397296
-0.0060374294
-0.0074003143
-0.007849354
-0.006823544
-0.0041663973
-0.0011046054
0.0025156036
0.0042038066
0.005737767
0.0061970293
0.003065596
0.0021859508
0.002883568
0.0021800369
5.4807216E-4
-0.0020853505
5.5538164E-4
0.009718729
0.017040847
0.015276123
0.0048230696
-0.0065556015
-0.013205179
-0.009401886
6.4563093E-4
0.0018941525
-4.9952656E-4
0.0020694793
0.0011945721
-0.0019167023
-0.001739439
-0.0028055229
-0.005713798
-0.00911324
-0.01275076
-0.0118447505
-0.007200193
-0.0018835365
0.0070435647
0.014865812
0.016269835
0.015456756
0.012641331
0.0041927705
-0.009921081
-0.017622124
-0.00588093
0.008648089
0.0069933254
0.0014245206
0.0011055686
-3.4040032E-4
-4.7904943E-4
0.0018259075
-6.7457644E-4
-0.005190265
-0.00592897
-0.005081271
-0.0040729865
-0.0034256496
-0.0042793504
-0.0064346967
-0.007330215
-0.006290093
-0.0055528493
-0.0013899661
0.0031457755
0.0015871461
0.0018797104
0.0030898969
-4.5701573E-4
-0.0019599323
-3.894929E-5
0.0025678473
0.0025360386
-0.0012028682
-0.004111424
-0.0062709213
-0.0066665523
-0.005314755
-0.0027449345
0.0042039356
0.01101723
0.014593175
0.014335684
0.012159567
0.013279007
0.010402322
0.003730066
-5.9493235E-4
-0.008263399
-0.0169772
-0.023186278
-0.026130399
-0.023634762
-0.018252352
-0.009950315
-0.0046810806
-0.0029371688
0.005614992
0.016276298
0.024131984
0.030260975
0.03115671
0.02667263
0.015745007
0.0027724262
-0.0023530275
-0.002909587
-0.006069626
-0.00994007
-0.01594014
-0.02627727
-0.030311
-0.024668429
-0.01693492
-0.0063137063
0.0036687264
0.008589803
0.012681149
0.017220285
0.021929203
0.022361947
0.01898846
0.017778477
0.014638947
0.007930699
-0.002734203
-0.012831495
-0.014969136
-0.019371573
-0.019253809
-0.0015654068
0.01585132
0.0277424
0.040309463
0.053395756
0.07030962
0.0768004
0.06084802
0.026508193
-0.018619383
-0.057396054
-0.09334591
-0.13490613
-0.15370728
-0.13652427
-0.1056365
-0.07315865
-0.035431404
0.010553075
0.060994163
0.0984797
0.099304214
0.070918016
0.047658198
0.03886097
0.022615602
-0.025195155
-0.09056716
-0.12155151
-0.09741879
-0.03982394
0.034485027
0.109310284
0.14361787
0.12605485
0.12245533
0.17624365
0.22277877
0.1636519
0.0130491415
-0.1012238
-0.124490336
-0.09273399
-0.032113213
0.004344554
-0.010335515
-0.03060121
-0.04467387
-0.06821853
-0.08374298
-0.08744021
-0.09563216
-0.08709428
-0.061242167
-0.058647696
-0.059028745
-0.04120922
-0.024662798
-0.00975964
-0.009903754
-0.01184153
0.0025350717
-0.0059068566
-0.04033892
-0.070692286
-0.06913642
-0.022494234
0.033090718
0.09346699
0.1739997
0.22223909
0.21256381
0.19446933
0.14725418
0.02131325
-0.107702576
-0.17729011
-0.16779685
-0.053774066
0.07650534
0.16591527
0.20067501
0.1297072
0.01988606
-0.09339192
-0.17562725
-0.122654304
-0.045925833
-0.026515996
0.011608725
0.022844927
-0.010663857
-0.030146355
-0.013168914
0.009010002
-0.04465817
-0.13407667
-0.16484977
-0.13664095
-0.066885136
-4.185547E-4
0.03635343
0.06129244
0.06273847
0.051637076
0.041840613
0.014969063
-0.0087913675
-0.009535238
-0.008324718
-0.0054073073
0.0124085555
0.034637503
0.05841428
0.08102899
0.080087885
0.055307418
0.024177263
-0.007375711
-0.026531925
-0.021233346
-0.007530016
-8.690968E-4
0.005983385
0.01163973
0.005739461
-0.010352827
-0.02421753
-0.024301717
-0.019497303
-0.018780645
-0.015906543
-0.008741979
0.0022429456
0.007871958
0.0029638717
-0.0029359693
-0.010232987
-0.014736777
-0.008668222
-0.0027475054
-0.0013617941
0.0036906283
0.0073602446
0.00608967
0.011347348
0.010715309
-0.0039905333
-0.0056119016
9.3423564E-4
-0.0017467951
-0.004705344
-0.0047464133
-9.3589496E-4
-0.003068619
-0.008563902
-6.2902994E-4
0.0026203182
9.899692E-4
0.00854668
0.0075940816
0.0018647505
0.001910958
0.001554046
0.0022877287
0.0016611042
-3.6029887E-5
-0.0010272999
-0.00250847
-0.0018546239
-0.0040464695
-0.0063517136
-0.0016290244
0.0033205745
0.0059983977
0.008189978
0.0102937855
0.014147676
0.015750933
0.013267855
0.009171811
0.004465057
0.002443545
0.0028274509
0.0043070386
0.0056130365
-8.932687E-4
-0.008494103
-0.007619341
-0.011392618
-0.017923767
-0.012730802
-0.004921025
-0.0024347252
-0.0031876634
-0.0057511637
-0.0058464757
-0.006686134
-0.010336411
-0.010797319
-0.0083124
-0.004641565
1.013163E-4
0.0035067182
0.0055163093
0.006629878
0.0069770855
0.00885071
0.010336652
0.007488479
0.004295015
0.004659412
0.006902938
0.009209919
0.010980197
0.010846688
0.0010380283
-0.014271762
-0.014640708
-0.0029209408
0.0025445833
-0.001353682
-0.0074101156
-0.0060334257
8.995952E-4
0.0059128483
0.0068910695
0.0017792955
-9.334358E-4
9.575355E-4
-0.004224645
-0.012134706
-0.014608688
-0.012865571
-0.009266475
-0.0076770554
-0.0048210495
5.432003E-4
0.0015066415
-1.1228285E-4
-7.456351E-4
-0.0022136753
-0.0021713807
6.800054E-4
0.002453721
0.0023042262
0.0021434275
0.0037797536
0.0076531083
0.01093196
0.013738497
0.014537717
0.011419266
0.014339902
0.020277897
0.014155281
0.0032338835
-0.0037500476
-0.005339469
0.0025880984
0.00415171
-0.008965382
-0.015234645
-0.011504355
-0.011584487
-0.011984887
-0.009084833
-0.007264579
-0.005634244
-0.0046846676
-0.007115548
-0.010456231
-0.010392844
-0.006751325
-0.004688407
-0.0034621577
0.0016931471
0.0053852987
0.0054786
0.0063893674
0.005476745
0.003831099
0.0051432173
0.0057599777
0.005074568
0.005977939
0.007104208
0.0062843827
0.0046378155
0.0035107601
0.0022838248
7.6454127E-4
7.305711E-5
0.0010253009
0.0016011905
0.0015589754
0.003500588
0.0039003124
5.4307585E-4
-0.0021494222
-0.0033801387
-0.004322601
-0.0052331556
-0.004869148
-0.0019346753
-3.5505995E-4
-3.0241435E-4
9.868598E-4
8.165852E-4
-9.875031E-4
-0.0027926175
-0.0038487432
-0.0026755498
-0.0019361186
-0.0023750046
-0.0013223172
6.3182437E-4
0.002908897
0.0036382405
0.0013785484
-5.529177E-4
-6.763722E-4
-7.292717E-6
-1.9303226E-4
-0.0020289226
-0.0018811194
0.0010254706
0.0031253356
0.0030686215
3.316407E-4
-0.0037760173
-0.004794017
-0.0011760474
-6.851043E-4
-0.0062262765
-0.0038606236
0.0044697397
0.0021468909
-0.0015169055
0.0020090865
0.0022094585
6.1497657E-4
0.0014893721
0.0018816572
0.0021180448
0.0021971867
0.0030021316
0.004273576
0.003736933
0.0022353681
5.3488987E-4
-0.0011285727
-0.002652264
-0.0027860063
-0.0014908873
-0.0011533881
0.0011358008
0.004174468
0.0020243414
-0.0013793835
-0.0030109354
-0.004348265
-0.0039835316
-0.0030624825
-0.0025750315
-0.0015586686
2.8958702E-5
0.0024208832
0.00322727
5.327448E-4
-0.0019176652
-0.0015746296
-0.001338835
-0.0015477717
-3.495452E-4
5.591199E-4
0.0012168194
0.0022484649
0.0019694192
0.0010056125
-5.6338E-5
-0.0010975683
-0.0010379786
9.931861E-5
0.001189267
0.0016600989
0.0034834323
0.0052516223
0.0037542374
0.0011574846
-0.0017738108
-0.0036028165
-0.0026212318
-0.002125898
-0.0010741035
5.495893E-4
7.4598746E-4
0.002959637
0.0037267022
6.502598E-6
-0.0023917272
-0.0032434384
-0.0043832385
-0.003970929
-0.0015448333
6.0501543E-4
7.514077E-5
4.0056414E-4
0.0020837188
4.003862E-4
-9.074249E-4
-4.3285626E-4
-0.0012317909
2.8870543E-4
0.0015052035
5.6794495E-5
0.001761396
0.0034747168
0.002204759
4.929233E-4
-0.0021929846
-0.0020816522
-2.9390087E-4
-0.0019058376
-0.002224524
-8.0261304E-4
-8.849539E-4
2.2160778E-4
0.0018739294
0.0013041104
-6.6795976E-5
-7.91166E-4
-0.0024949058
-0.003112381
6.622024E-4
0.0039056307
0.0037038377
0.0033008135
0.0039755036
0.0033060142
-0.0010911715
-0.0034135412
-0.0016693119
-0.0016840762
-0.001688221
-0.0013214548
-9.366205E-4
0.002231771
0.0036218695
0.0025741744
9.225364E-4
-0.0022508122
-0.0028088733
-0.002401986
-0.0040929033
-0.00300634
1.9807687E-4
0.0016256878
0.0025133812
0.0020484438
-5.1289826E-4
-6.460187E-4
1.9169254E-4
-0.0013318438
-3.436155E-4
0.001559611
0.0010675545
0.0025813535
0.00440337
0.0034988765
8.8448916E-4
-0.0022430397
-0.0033685642
-0.003003361
-0.0017901884
-3.876922E-4
2.7790722E-5
0.0015790854
0.0019466474
-3.447806E-4
-0.002021678
-0.0033610389
-0.0036366524
-0.0021456871
-4.1837562E-4
5.268938E-4
6.289358E-4
0.0022115742
0.0029076114
2.8555814E-4
-0.0013561712
-6.116565E-4
5.863683E-4
-3.3450185E-4
-0.0016784387
4.3421568E-4
0.0020632755
0.0023493818
0.0026052948
9.281517E-4
6.3617865E-4
4.479181E-4
-8.0802187E-4
9.279383E-4
0.0013961132
-1.1830972E-4
2.6045456E-5
1.7153096E-4
0.0014721585
0.0021887254
-3.4827353E-5
-0.0013292035
-0.0016612692
-0.0019739608
-0.0016146678
-0.0013263017
-3.065208E-4
-3.394005E-4
-0.002019565
-0.0013552652
2.0700559E-4
-8.792149E-5
-3.0237512E-4
-2.1222164E-4
4.638549E-5
9.7607006E-4
0.0016179362
0.002285239
0.0018660943
-5.9889845E-4
-0.0013828371
-2.3891088E-4
-2.3408624E-4
5.3650193E-4
0.0020526308
1.6521572E-4
-0.0019826223
2.4538516E-4
0.0015202757
-2.300135E-4
-5.003785E-4
-2.2288735E-4
6.09834E-4
8.62586E-5
-0.005869461
-0.0075169527
-0.0012055169
0.0021476992
0.002933625
0.003650647
9.560704E-4
-0.0012885379
-7.1886485E-4
-1.7460837E-4
2.1941516E-4
0.0011647316
0.0020309982
0.002240862
0.0020317333
0.0013452282
4.926008E-4
-2.769281E-4
-0.0014785504
-0.0013354999
1.0680659E-4
3.8640387E-4
9.1995974E-4
0.0015861947
2.6523691E-4
-5.4584665E-4
-1.1905769E-4
-0.0012090299
-0.002666252
-0.0020180263
-8.2407077E-4
-0.001040544
-7.4973376E-4
7.715309E-4
6.602195E-4
-1.8326693E-5
1.1941234E-4
-0.0012271428
-0.0020180896
-0.0013728198
-0.0013562689
2.6467153E-5
0.0013416603
0.0014010908
0.0030146665
0.0036130692
0.0020074288
4.527468E-4
-0.0011824002
-0.0015330254
-3.058792E-4
3.2494185E-4
5.6922063E-4
0.0019070166
0.0032553563
0.0019645726
-0.001267615
-0.0037486565
-0.0039538858
-0.002753483
-0.0028600842
-0.0025044784
-4.306577E-4
6.254132E-5
2.6925467E-4
7.188746E-4
-9.512921E-4
-0.0015444345
-2.1401496E-4
-3.1021782E-4
-7.472663E-4
-1.5865962E-4
6.706457E-5
0.0010298884
0.0032690864
0.0025881345
-6.582321E-4
-0.0012920961
3.6385787E-5
9.53637E-4
0.0016415045
0.0019637593
0.0022001218
0.002506567
0.0026402464
0.0020291293
0.0017750394
0.0019438898
-5.0707534E-4
-0.0017536711
2.5507587E-5
-7.1007595E-4
-0.0018952126
-0.0019512363
-0.0015482447
5.4587866E-4
1.2638194E-4
-0.0020816855
-0.0029179184
-0.0018303291
0.0011003349
3.3437338E-4
-4.150083E-4
0.001126501
-2.6909247E-4
0.0015310522
-6.4867134E-5
-0.008390504
-0.00511723
0.002304607
0.0011588773
7.4550294E-4
0.0013964708
0.0014871465
0.002908836
0.0017075518
-0.0011369953
-0.0015069953
3.3196015E-5
6.6768564E-4
4.285054E-4
1.20182725E-4
-0.0010696268
-0.0013511304
-4.6451352E-4
-2.6085172E-4
3.6793918E-4
0.0011332344
6.9598644E-4
5.393635E-4
5.320725E-4
-5.899889E-4
-3.815108E-4
0.001065606
9.784467E-4
0.0010114539
8.9434086E-4
-9.113916E-5
1.2113815E-4
4.1041165E-4
9.5899455E-4
9.335209E-4
-8.439917E-4
-1.2965333E-4
0.0014783018
0.001068147
0.001024034
-1.4552707E-4
-0.0020554268
-0.0021197302
-0.002081006
-0.001537021
5.069324E-4
5.927019E-4
-0.0012249108
-7.4386067E-4
-3.1477903E-5
-0.0013371183
-0.0011641459
3.5048762E-4
9.153378E-4
1.938798E-4
-2.7512884E-4
0.001175495
0.0020580608
0.0019530167
0.0010978857
-0.0013814333
-0.0015641884
-2.0539343E-4
-8.6571905E-4
-0.0015950295
-1.15985655E-4
0.002372963
0.0014309899
-6.9704914E-4
-6.837441E-4
-0.0022984734
-0.0027468759
-0.001327179
-0.0017877187
-6.812233E-4
9.846156E-4
0.0010016483
9.611446E-4
2.7799048E-4
-1.4586428E-4
-2.4705016E-4
9.390431E-6
-4.0172742E-4
-0.0015092449
0.0012784959
0.0035674437
0.0028051534
0.0031797031
3.1806098E-4
-0.0027859553
-6.750075E-4
5.5513484E-4
-3.613929E-4
-6.7107583E-4
5.075507E-5
5.1968184E-4
1.6907502E-4
9.2218997E-4
1.7186378E-4
-0.0018396431
-0.0018448448
-9.365261E-4
8.7261194E-4
9.437779E-4
-3.555854E-4
4.3194892E-4
-2.0153722E-4
-0.0016156221
-9.833078E-4
2.6371464E-4
8.6912117E-4
-5.46873E-5
2.630547E-4
7.716969E-4
-9.94329E-4
-6.795462E-4
0.0013930722
0.002700986
0.0024820664
1.9342716E-4
-4.1870037E-4
2.96174E-4
-7.05611E-4
-0.002482837
-0.0031367869
-0.0017027926
-9.114264E-4
-0.0011599518
-8.614719E-4
-0.0014940713
-0.0014306413
-4.2226602E-4
-9.6296973E-4
-0.001996256
-0.0018244279
3.6733574E-4
0.0022579413
0.001959828
0.0023403012
0.0024681936
3.0683525E-4
-5.6690647E-4
6.0902775E-4
0.0013227595
0.0016654539
0.0018598461
0.0025777554
0.0025726997
-1.6194783E-4
-0.0012865836
-3.1499582E-4
-0.0010798696
-0.001566365
-0.0019193757
-0.0016180266
0.0011284087
0.002089286
0.0014967894
8.189576E-4
-0.0014145127
-0.0027111392
-0.0028252236
-0.0022278083
-8.4872684E-4
-3.7208205E-4
0.0013501651
0.0037161198
0.0031217951
0.0011061856
-6.154318E-4
-0.0015180565
-0.0011007779
-8.4075687E-4
-9.867254E-4
-3.1212467E-4
4.5632734E-4
9.854467E-4
0.0020060353
7.1315106E-4
-0.0035111688
-0.004576254
-0.0012397612
9.401696E-4
3.457402E-4
1.2532837E-4
0.0016896838
0.002618029
0.0016256544
4.623008E-4
-7.8845414E-4
-0.002484488
-0.003273326
-0.0026784588
-2.4456732E-4
0.0024158177
0.002377959
0.0016920866
0.0015611951
7.421577E-4
-6.470697E-5
-0.0016278822
-0.0017819287
4.3964133E-4
4.957839E-4
1.0613333E-4
9.959254E-4
0.0018433292
0.0026535126
8.067313E-4
-5.6834484E-4
-2.8193518E-4
-0.0021386014
-0.0015065796
6.7535613E-4
4.793329E-4
0.0010472994
9.229799E-4
9.951618E-4
0.002150235
-1.1977315E-4
-0.0020904692
-9.0025866E-4
-0.0010905426
-0.002188867
-0.0019090665
-7.351189E-4
0.0016525846
0.0022809063
-9.342602E-4
-0.0022432962
-0.0011575834
-0.001300074
-6.939404E-4
-4.4773135E-4
-9.05544E-5
0.0017516771
8.768186E-4
7.953205E-4
0.0032388193
0.0017198732
-8.2944165E-4
-5.12544E-4
-2.4227117E-4
-7.66842E-5
2.8829707E-4
8.999199E-5
8.0437737E-4
0.0018592871
5.743196E-4
-9.5539435E-4
-9.121878E-4
-0.0018565516
-0.0012317778
0.0016357097
8.3050004E-4
-7.9584715E-5
0.0024533963
0.0014930773
-0.0011195851
-3.4238838E-5
-1.5085545E-6
-0.0015642478
-0.001895122
-0.0024765905
-0.0016482719
0.0010635561
0.0023601712
0.0016223307
4.8735674E-4
5.3535186E-4
4.2121558E-4
-0.0010150189
-0.0018557338
-0.001871814
-0.0012756861
-1.01647776E-4
8.1214024E-4
0.0022630114
0.00364455
0.0027868622
7.440077E-4
-8.699832E-5
-2.799499E-4
-8.3200115E-4
-7.80955E-4
9.3562834E-5
0.0014140537
0.0012635085
-7.818997E-4
-6.337292E-4
5.851142E-4
-1.7936697E-4
-0.0013443693
-0.0029397295
-0.002924251
5.7511136E-4
0.0034657074
3.1914152E-4
-0.008502314
-0.009859928
-6.793237E-4
0.002440659
-1.3173993E-4
0.0015738527
0.001940695
4.4263637E-4
0.002224837
0.003415079
0.0021339788
3.7644766E-4
-0.0010409149
-1.7029257E-4
9.126579E-4
4.339479E-4
0.0023310573
0.0037773184
0.0016230162
0.001368246
0.002370402
0.0014018045
-3.2991936E-4
-0.0021606842
-0.0013252256
1.956134E-4
-0.0010939952
-0.001434255
-9.874305E-4
-8.555831E-4
-6.1601197E-4
-0.0024814766
-0.0027192582
-0.0012573359
-0.0025345911
-0.0022395267
9.021933E-5
8.8129094E-4
0.0018877125
0.0026391859
0.0017763966
3.7642545E-4
-1.6616548E-4
-1.7192602E-4
-9.464576E-4
-8.6711306E-4
-2.3921659E-4
2.3764299E-4
0.0021287224
0.002766665
0.0017257631
0.0010500917
-7.597941E-4
-0.002355437
-0.0015546293
1.0681797E-4
2.5346063E-4
-9.3215215E-4
-0.0010089385
-1.6969709E-4
8.796498E-5
-4.505126E-4
-4.0032007E-4
8.287854E-4
2.374805E-4
-6.2292465E-4
0.0010866935
0.0026319255
0.0032793381
0.0023971298
7.635336E-4
6.2275096E-4
-8.6388446E-4
-0.002270895
-0.0010402745
-3.2257798E-4
-2.8417027E-4
-3.9540243E-4
4.0883708E-4
0.0020805302
-2.684058E-4
-0.0039432994
-0.0032765977
-0.0010274394
-5.413909E-4
-0.0017115097
-9.4245054E-4
0.0024247968
0.0030616994