0.0014172348
0.0015097806
1.3509112E-4
0.0011457087
0.0019100752
0.0011802419
1.3184082E-4
6.482224E-4
6.8380364E-4
-5.297424E-4
-5.083591E-4
1.3202764E-4
0.0016836269
0.0030903937
0.0031831677
0.0019693794
-6.6152855E-4
-0.0010901638
-8.5069967E-4
-0.0017647453
-0.0014592601
-0.002904434
-0.0036708338
-6.7086256E-4
7.246189E-4
3.6751071E-4
1.537411E-4
-5.3269963E-4
-5.4067705E-4
-1.00152094E-4
-6.2938445E-5
3.6033452E-5
6.744047E-5
-7.4112404E-4
-6.69181E-4
0.0011771551
6.2097353E-4
-0.0019307439
-0.001282644
6.183686E-4
1.4578926E-4
1.7367388E-4
0.0019624035
0.001741967
4.5767103E-4
0.0019499308
0.0020690567
-3.722475E-4
-6.463714E-4
-0.0010705562
-0.0019090893
-2.2928588E-4
0.0012710567
0.0015921362
7.825775E-4
-0.0010375786
-0.0020015142
-0.0026618533
-0.0018309026
1.9522215E-4
6.5317657E-4
0.0019585583
0.004194542
0.0028352537
-8.1680994E-4
-0.002479111
-0.0034625875
-0.004483695
-0.0032024297
-0.0011941945
5.3721445E-4
0.0016543441
0.0014206151
0.002023673
0.0021810709
8.5666985E-4
-5.476647E-4
-0.0016141105
-4.4348263E-4
0.0012446346
0.002370467
0.004160404
0.0046962975
0.0038430076
0.0018920454
-3.416729E-4
-0.002234388
-0.0027804642
-0.001214027
-0.0028206995
-0.004877021
-0.0028343648
0.0011822376
0.00601337
0.003508332
6.769572E-4
0.002980426
-0.004386357
-0.0096347025
-0.00830765
-0.009336137
-9.806484E-5
0.0061443485
0.0017785239
0.0024814422
8.793078E-4
-0.0011559136
5.4790033E-4
5.114494E-4
0.002947781
0.0034590927
0.0030198493
0.0042103427
0.0014838424
4.1860138E-4
3.7215409E-4
-0.0019492368
-0.0022586144
-0.001839457
-0.0011801377
-3.1982087E-5
1.7577928E-4
-3.6692206E-4
-4.5726565E-4
7.53913E-4
0.0015471998
0.0013509239
4.7789223E-4
2.021189E-4
4.4355204E-4
-4.4258055E-4
-5.564251E-4
-0.0015581092
-0.0022561215
-7.333481E-5
-5.536628E-4
-0.0018525281
-0.0014202564
-8.477049E-4
0.0015018025
0.0032299277
0.004729184
0.0042433213
5.5584922E-5
-0.0011903888
-0.0017946264
-0.003266005
-0.0029000882
-0.0037865432
-0.0036793246
-0.0028591915
-0.0026559844
1.6108005E-4
0.0021065737
0.002211793
0.0026325572
0.0024244
0.0025340968
0.0017912084
-1.1321285E-5
3.1655276E-4
0.001257061
4.7554655E-4
1.9072565E-4
2.8223326E-4
-0.0012906566
-0.0030525865
-0.0023032606
9.1418653E-4
0.0026005066
0.0023571474
0.0036297932
0.0029088864
-2.9939585E-4
-0.0011241712
-0.0014558943
-0.0028766273
-0.0036742995
-0.0029340216
-0.0019774593
-0.002548351
-0.001163052
0.001843933
0.002398923
0.0021833898
0.0020198666
0.0012389626
5.0096225E-4
2.2435198E-4
1.2783571E-5
-3.5908484E-4
3.7709484E-4
-2.2798975E-4
-0.0022816379
-0.0018808147
-0.002001841
-0.003212713
-0.0012479539
0.0015134636
8.315003E-4
2.2011308E-4
0.003323555
0.0042348197
0.0025437798
0.0021924255
-2.0883653E-4
-0.0017525279
-0.0010053237
-0.0016354604
-5.6370307E-4
6.8769197E-4
-1.4018326E-4
-1.17968535E-4
0.0011573619
0.0024363846
0.0019769287
4.551879E-4
-0.0013830648
-0.0020228764
-0.0011771491
-0.001716951
4.558739E-4
0.0025125246
1.7634289E-4
6.8422547E-4
-0.0026930026
-0.012178406
-0.013799493
-0.006470872
0.0035960348
0.007874594
0.0054758843
0.004882363
0.0037281099
0.0025931331
0.0028176813
-4.7670963E-4
-0.0023047314
-4.573389E-4
0.0011089847
0.0018567243
0.0019174869
0.0015419573
-2.3848092E-4
-7.678612E-4
5.5705407E-4
5.214351E-4
5.8508327E-4
-6.622024E-4
-0.0013261206
0.0013068038
8.200775E-4
-0.0010430454
-7.353166E-4
-0.0019977635
-0.0030016892
-0.0021099814
-0.0013846208
-0.001075395
-0.0013069928
-0.0022429347
-0.0014317535
0.0022872414
0.0042038937
0.0033959476
0.0024803772
9.275416E-4
3.6208917E-4
2.583562E-4
-1.5964184E-4
2.1366964E-4
-8.186187E-4
-9.32278E-4
-4.1933316E-5
-0.001322899
-0.002296568
-0.0033670561
-0.003501008
-0.002341806
-0.0018902109
0.001933804
0.0045377337
0.0023555225
0.0025639138
0.0027770738
6.0604315E-4
-2.7190236E-4
-5.4037664E-4
-0.0011893818
-0.001273944
2.9912428E-4
5.8352883E-4
-4.3078046E-4
0.0020442945
0.004500707
0.0042197797
0.0023570491
-3.318491E-4
-4.7636087E-4
-5.5790915E-5
1.4669489E-4
-1.8901062E-4
-0.004042799
-0.0048565427
-0.0024296246
-0.0027440514
-0.0035126265
-0.005059864
-0.005273115
-0.0017966101
6.1224634E-4
0.0017887683
0.0024399522
0.0017332978
0.0010142722
9.204213E-4
0.0011796844
4.9592534E-5
-5.569124E-4
0.0013431996
0.0025032833
0.003520246
0.0053178617
0.0052915304
0.0041794106
0.003418455
0.0016178448
-0.001350758
-0.0026006286
-0.002137793
-0.0024851505
-0.0030734946
-0.0025012854
-0.0014586174
-0.0021607592
-0.0025528339
-7.0805283E-4
-0.0014067807
-0.0020294206
2.5363834E-4
-4.5756865E-4
-8.6463377E-4
0.0018238375
0.0027873893
0.001732831
-7.074901E-4
-0.0011572478
0.0011699139
0.0017234446
0.0010527933
-8.332095E-4
-0.0019818102
-7.965443E-4
-0.0014481609
-9.840195E-4
7.056319E-4
7.11631E-5
4.9090628E-5
-9.0698374E-4
-0.0011199125
0.0011786236
4.6829702E-4
-3.5223985E-4
-3.8327278E-5
-0.0016123697
-0.0023343053
-0.0021720892
-8.907423E-4
0.0017058738
0.0030586333
0.003124215
0.0021892963
0.0016507495
0.0017503242
0.0015345305
0.0010908049
-8.991219E-4
-0.0014064657
5.8217824E-4
5.158674E-4
-3.8864135E-4
-7.8941224E-4
-0.0016867021
-0.0017648115
-8.156332E-4
-5.592705E-4
-0.0021817484
-0.0022942114
3.0023E-4
0.0020790333
0.0034497597
0.0031067114
1.6420608E-4
-0.001083991
-8.5795077E-4
-0.0017032591
-0.0029859715
-0.0019695847
4.1172546E-4
1.6991417E-4
4.899908E-4
0.0024212915
0.0019009003
6.226791E-4
1.7295349E-4
2.3222074E-4
-0.0014547873
-0.0050182813
-0.0030048166
0.0012766357
5.513252E-4
4.891156E-4
0.0014184937
9.1850397E-4
0.0017878913
0.001104411
-0.0013657277
-0.0026418008
-0.003363988
-0.0019490308
2.152873E-4
1.9178307E-4
5.789999E-4
0.0016171702
0.001591055
0.0017900408
0.0023755843
0.001988403
5.8808044E-4
-4.107721E-4
-3.282055E-4
6.1206036E-4
0.0015988618
9.138404E-4
-2.405006E-4
-5.247428E-4
-0.0014247521
-0.0020253286
-0.0018045605
-7.0646906E-4
0.002050013
0.0024032684
3.7163164E-4
9.850403E-4
0.0018856754
8.966317E-4
-7.1080125E-5
-0.0015534064
-0.0024306837
-0.001679306
-0.0012464662
-7.549852E-4
2.918063E-4
-2.4693718E-5
-0.0011171154
-9.2232437E-4
-5.6600943E-4
-4.0890105E-4
7.37486E-4
9.289825E-4
2.80484E-4
0.0011548412
0.0014645173
8.164649E-4
0.0010486708
2.8412745E-4
-0.0010880617
-8.9304993E-4
-7.159788E-4
-0.0015041648
-0.0016511537
-4.5009234E-4
4.7183115E-4
4.0116938E-5
-2.8437229E-5
3.8879478E-4
-5.7636754E-4
-0.0019534447
-0.0018527003
-5.694483E-4
0.0010452868
0.0016780802
8.8604336E-4
6.2026887E-4
9.1960473E-4
7.57065E-4
2.9750142E-4
-8.225586E-4
-5.142742E-4
0.001231278
0.0011455033
9.4321405E-4
0.0011657184
0.0016545327
0.0049734768
0.00662794
0.0028973217
-0.0018715211
-0.0036871128
-0.0020524464
-5.212397E-4
-0.0011506089
-0.0022929336
-0.0034552575
-0.003765408
-0.0031883623
-0.0025277778
-0.0022162078
-0.0028546767
-0.002341868
-3.5697283E-4
4.5587408E-4
-4.3694503E-4
-0.0010900506
0.0012249078
0.0035704274
0.0024295151
0.001461812
0.0016597647
0.0015288029
0.0016990623
0.0019593933
0.0025424974
0.002263808
0.0017712319
0.003157537
0.003106481
1.555608E-4
-0.002725084
-0.0027341903
-3.1967764E-4
1.7228033E-4
-9.623316E-4
-0.0024826145
-0.004486865
-0.0034190547
-0.001804751
-0.0018767815
-8.6733454E-4
-0.0017252917
-0.0025455893
7.224715E-5
0.0014998844
0.0022486197
0.0033095975
0.0024436302
0.002227093
0.0028526867
0.0021670712
8.623712E-4
-3.115126E-4
-4.5939875E-4
3.1039183E-4
-1.1489716E-4
-9.277344E-4
-0.0012904165
-0.0026905343
-0.0017780558
8.5190893E-4
-9.826312E-4
-0.0028985066
-8.1549794E-4
9.4331725E-4
7.1647594E-4
-6.1355263E-4
-3.8238395E-5
0.0012868299
-6.646165E-4
-0.0018130136
-9.215784E-4
-8.0565165E-4
3.3899554E-4
0.0015371874
0.001190851
0.001939563
0.0025656964
-8.718796E-7
-7.429994E-4
0.0020031943
0.0017189966
6.755125E-4
0.0018136334
0.0014873939
6.8787526E-4
1.9072741E-4
-3.6969222E-4
-0.0010684752
-0.0028280027
-0.00296687
-8.700252E-4
0.0013342187
0.0023860594
0.0015853206
5.0745846E-4
6.639845E-4
0.0016271635
0.0011920963
2.757347E-4
-4.2948872E-4
-0.0016556585
5.5088743E-4
4.2735896E-4
-0.0031559581
-0.0034527562
-0.011311453
-0.015587628
-0.0021185654
0.0031164465
-1.03186154E-4
0.0035765774
0.0030110339
-2.411774E-4
1.1958146E-4
0.0015490992
0.0041458462
0.0056441114
0.006624291
0.006699458
0.0047363616
0.0035763914
0.0040246523
0.0051838714
0.0048158956
0.004150621
0.0025924556
-0.0035937906
-0.008036593
-0.0071479026
-0.0051601324
-0.00396347
-0.0054003526
-0.007266168
-0.0073771495
-0.006409049
-0.002676561
6.810372E-4
3.7983075E-6
-0.0024633193
-0.004992327
-0.0040058936
0.0013545761
0.002901629
-3.7378137E-4
-0.0018636681
-0.0029757672
-0.0032778617
0.0013614898
0.006483385
0.0074068606
0.005373666
0.0045552873
0.007584616
0.010101178
0.009362834
0.009027177
0.009946799
0.008806645
0.0065212217
0.006154776
0.0049920375
0.0030052476
0.0013586017
-0.00400895
-0.009591785
-0.011389409
-0.010152392
-0.0057381033
-0.0062803114
-0.010084158
-0.0061090067
-9.700685E-4
0.0021618821
0.0060020075
0.0021979285
-0.0061758356
-0.011146722
-0.015286602
-0.016755613
-0.015382212
-0.01606628
-0.01620967
-0.012870005
-0.010374389
-0.009934945
-0.0050064544
0.0032177134
0.008152552
0.014259171
0.020909559
0.021834735
0.02202325
0.018277986
0.0058449307
-0.0023809997
-0.002410116
-0.0012930018
-2.1154852E-5
0.0024627785
0.007112045
0.012521301
0.02131393
0.03608161
0.04792087
0.04956561
0.040963557
0.028849801
0.016829921
-0.0016187023
-0.02042756
-0.03290173
-0.04546445
-0.05596091
-0.058320954
-0.051774777
-0.040362585
-0.030092655
-0.022687398
-0.020108376
-0.020133212
-0.019419512
-0.017477289
-0.012714899
-0.00984902
-0.006775155
0.003840171
0.016594285
0.027188139
0.033895284
0.03204233
0.023926666
0.02067468
0.028641248
0.037374243
0.03359926
0.017830057
0.0051517603
0.004726537
0.009122562
0.011913514
0.0022045472
-0.0142064635
-0.010885114
-0.003411808
-0.012091573
-0.015369138
-0.0064079235
0.0021779253
0.010774986
0.019278785
0.018015565
0.020671148
0.035748128
0.030613927
0.012442704
-0.0013013554
-0.025532307
-0.032754507
-0.020800278
-0.01831163
-0.020811953
-0.038408503
-0.055949055
-0.06117338
-0.0744091
-0.071894124
-0.05194799
-0.030687826
-0.004894719
0.0075547867
0.022334743
0.03990786
0.031827617
0.016806524
0.012272899
0.04328839
0.10021343
0.12157731
0.11086184
0.065930836
-0.01688825
-0.059186354
-0.036763694
-0.00803272
9.326655E-4
0.013143044
0.022054506
-0.009909007
-0.062230714
-0.10726456
-0.14107235
-0.144268
-0.10162751
-0.011108151
0.058782298
0.07493178
0.10133314
0.10006597
0.027440045
-0.05907204
-0.1085787
-0.09090316
-0.058198217
-0.050807774
-0.032569036
-0.013036845
0.00986074
0.04430779
0.07517888
0.07536959
0.018411452
-0.036805026
-0.09296804
-0.14727347
-0.08351203
0.022863256
0.05379893
0.053214435
0.0542226
0.08350874
0.09708384
0.06465903
0.07334231
0.08786273
0.03301513
-0.03264396
-0.05156935
-0.041392148
-0.041159183
-0.033515953
0.0023381254
0.014856274
-0.026849432
-0.053558514
0.0023258405
0.06267532
0.038264453
-0.010696101
-0.0294265
-0.062123448
-0.14299987
-0.21703832
-0.19231036
-0.057590112
0.11463981
0.23984389
0.28080475
0.2698791
0.2160015
0.051285222
-0.18662219
-0.30404767
-0.2660833
-0.20096403
-0.13104935
-0.080539815
-0.10320558
-0.13964057
-0.13007271
-0.07516092
7.496968E-4
0.058936227
0.06991013
0.032393567
0.014938979
0.04304401
0.05705103
0.06738354
0.09182849
0.10901431
0.12789391
0.14301223
0.15476897
0.16422218
0.15766507
0.14476869
0.118558705
0.0918137
0.08115678
0.059311617
0.040949255
0.035090227
0.029626708
0.035493266
0.048752896
0.083601676
0.03222878
-0.2260439
-0.4392543
-0.38554063
-0.2376713
-0.13090488
-0.053890545
-0.020167572
-0.017413301
-0.028792461
-0.050551478
-0.061910126
-0.06412561
-0.08170999
-0.11216472
-0.1256031
-0.10683532
-0.0663986
-0.029342636
-1.6790173E-5
0.038895924
0.081027806
0.12094688
0.16034214
0.18390943
0.19009984
0.18505782
0.1704665
0.15140423
0.12942801
0.108251795
0.08790963
0.06530212
0.0434406
0.027114313
0.016191343
0.0045622215
-0.0072214524
-0.018426796
-0.029727982
-0.03706191
-0.043711487
-0.048628382
-0.051959425
-0.06093679
-0.06768698
-0.06874549
-0.07068474
-0.07112586
-0.068143494
-0.06222509
-0.054416016
-0.04665027
-0.038896505
-0.03107708
-0.022800844
-0.012598263
-4.0308633E-4
0.008905388
0.017008955
0.02886321
0.038883522
0.048400722
0.05895282
0.06391544
0.066873066
0.07013765
0.07195635
0.07436628
0.07710235
0.0794226
0.076684505
0.0689179
0.06218159
0.051860638
0.038495414
0.028010515
0.016097663
0.0045674047
-0.0027498477
-0.008299357
-0.010400678
-0.010975238
-0.012878218
-0.013234308
-0.014109587
-0.020859286
-0.032031953
-0.04295502
-0.055186253
-0.06838424
-0.07974093
-0.09424482
-0.11227398
-0.13035108
-0.14607391
-0.15646766
-0.16429004
-0.16284011
-0.1513033
-0.13822748
-0.114977114
-0.092986636
-0.07581218
-0.03447993
0.015051258
0.053605907
0.09379939
0.12988973
0.16327359
0.19618706
0.22420837
0.25400472
0.28141046
0.2999316
0.29452366
0.26680583
0.2518168
0.24888065
0.24531515
0.23606578
0.19855511
0.12330055
-0.0060879635
-0.16322221
-0.2613105
-0.29786226
-0.31765604
-0.32180762
-0.3217754
-0.3205287
-0.30918196
-0.2976823
-0.27976486
-0.252612
-0.22324091
-0.18474934
-0.14723676
-0.1104194
-0.05332347
0.0049365736
0.0431966
0.07273141
0.09642419
0.11732434
0.13928336
0.15696411
0.17190294
0.17977138
0.17691167
0.17107116
0.16183612
0.14558753
0.1236426
0.09965948
0.07717499
0.055574972
0.036219172
0.021167241
0.01151394
0.0075444276
0.0030873984
-0.002741435
-0.00320527
-0.0014306541
-0.0031168386
-0.004221523
-0.0053478703
-0.0106249545
-0.015833687
-0.02104592
-0.027744861
-0.03359636
-0.04242483
-0.051762626
-0.0576854
-0.063661605
-0.06730306
-0.06810933
-0.066473305
-0.060624246
-0.05369523
-0.044269238
-0.033923324
-0.025908535
-0.015386363
-0.004819701
0.0028965718
0.01024582
0.016266448
0.021509267
0.02413673
0.022815732
0.021388812
0.018761177
0.01565016
0.016236778
0.01706155
0.016371798
0.017361829
0.018193888
0.018065803
0.018659104
0.017286398
0.01427574
0.014051685
0.014925286
0.01445371
0.015243492
0.016957646
0.018228121
0.019831328
0.020210603
0.018778069
0.016060699
0.014190928
0.015802478
0.01618197
0.014549545
0.015052457
0.015217879
0.015155083
0.015119521
0.014580073
0.014884526
0.013194863
0.01320799
0.014432969
0.012736376
0.014315062
0.010619663
4.89826E-4
-4.7433225E-4
-8.5972203E-4
-0.0030542647
0.0042193267
0.013524472
0.017076986
0.014670135
0.011126303
0.009971053
0.0073993355
0.004936511
0.0030727338
0.0024558604
0.003916261
0.0026596773
0.0021146482
0.0019277039
-8.336404E-4
4.579247E-4
0.002470786
0.0017112773
0.0020313351
0.0011996451
-7.305961E-5
8.0170215E-4
0.0016853992
9.6458377E-4
7.451357E-4
0.0028431474
0.0037543175
0.0029773507
0.002675326
0.002062729
0.0017848354
8.854057E-4
-2.3468633E-4
9.223515E-4
0.0017712652
0.0013654768
0.0014067035
5.146395E-4
-0.0019330077
-0.0036874674
-0.0031975247
-0.0028766063
-0.0048721232
-0.0057153613
-0.003961704
-0.0037333372
-0.0041086767
-0.0026666755
-0.0022281143
-0.0019362478
-0.0021223447
-0.0041949074
-0.0023079095
9.4668136E-4
2.7401085E-4
4.4704266E-4
8.3035306E-4
1.243037E-4
9.2044513E-4
0.001055272
3.698008E-4
-5.337007E-4
-0.002259525
-0.002109632
-4.7198708E-5
6.4665306E-4
-9.129308E-4
-0.0021336465
-0.0018105309
-0.0029851517
-0.005210845
-0.0044042743
-0.0021899473
-0.0019975477
-0.0022152332
-0.0018498426
-0.0020255456
-0.0021899336
-0.0027854587
-0.003705989
-0.0026069796
-6.106433E-4
-3.4100012E-4
-9.7488624E-4
-6.759689E-4
4.6105383E-4
0.0010986385
-1.18427575E-4
-0.0029969069
-0.0042829807
-0.0032312053
-0.0024996614
-0.0016649743
-5.428944E-4
-2.5276374E-4
-6.780127E-4
-0.0021185628
-0.0025495305
-8.456388E-4
-8.070363E-4
-0.003908205
-0.005338118
-0.0028983504
-0.0018303565
-0.0016485618
0.0010373838
2.0847585E-4
-0.00386785
-0.0037137393
-0.0020870902
-0.0025333497
-0.0013269598
0.0012403057
0.0010939072
-5.4664823E-5
1.4748698E-4
-3.7748655E-4
-9.065751E-4
-5.403898E-4
-0.0022500646
-0.005260789
-0.0048715426
-0.0017287906
-5.8364274E-4
-4.533106E-4
-2.2061681E-4
-0.0017989143
-0.0015379037
3.747442E-6
-0.0016170718
-0.002736581
-0.0023119925
-0.0019726895
-5.3781347E-4
-5.6463486E-4
-0.0013922182
2.7588756E-5
3.151087E-4
-0.0016361389
-0.0020326192
-9.0559694E-4
-7.267799E-4
-0.0010675127
-0.0011137286
-0.0014369107
-0.0015062588
-7.895688E-4
-5.534835E-4
-0.0019154837
-0.0029683094
-0.0014038421
3.282257E-4
1.1300392E-4
-6.1634026E-4
-0.0016101483
-0.001344923
2.4896453E-4
-6.989346E-4
-0.0020411708
-0.0016667891
-0.0029743367
-0.0040669735
-0.0028906064
-0.0015789913
2.5141364E-6
8.471868E-4
-4.4131672E-4
-0.0014086015
-4.483941E-4
4.1580832E-4
-6.00439E-4
-0.0018751788
-0.0014149969
-6.835553E-4
-0.001313393
-0.001640109
-9.952169E-4
-0.0016431573
-0.0033576542
-0.0033261157
-0.0020585526
-0.002052399
-0.002203911
-0.0012639978
4.2966494E-5
0.0018445137
0.0017701198
-2.3066276E-4
1.6578384E-6
4.8730368E-4
-4.843195E-4
2.0078245E-4
0.0017750545
0.001268139
-1.452906E-4
0.0011585663
0.0020204368
3.2697027E-4
6.3795154E-4
-1.3570031E-5
-0.0019247137
-0.0017731771
-0.0025025131
-0.0017552909
-6.76995E-4
-0.0014835349
-4.5531438E-4
3.27915E-5
-2.155708E-4
-0.002953605
-0.005449067
-0.00259606
-0.008847366
-0.01572245
-0.0045641684
0.0035504063
0.0012821172
0.0012529085
5.0146005E-4
-7.5736444E-4
-0.0015491007
-0.0011027688
0.0023551309
0.0031330676
0.0020250522
0.0015480286
8.408156E-4
0.0015832605
0.0011107286
-9.464517E-4
-0.0017645601
-0.0020736728
-2.793063E-4
0.0023998593
0.0019514177
0.0012567651
0.0018742951
0.0016850638
9.437658E-4
-5.3470297E-4
-4.414697E-4
0.001241839
-7.184382E-5
-7.0810324E-4
0.0012569601
8.3988905E-4
-1.21602556E-4
-1.6939364E-4
-0.001574549
-0.0031527206
-0.0031637468
-0.0017729434
-3.87765E-6
0.0016281924
9.4162294E-4
-0.0018056027
-0.001936825
-9.021263E-4
-0.0016134171
-0.0025045841
-0.0032431944
-0.0030257343
-0.0021054263
-0.0018683654
-0.0019377293
-0.0020708502
-0.0013953972
-0.0016193127
-0.004078235
-0.0050403723
-0.004180243
-0.0033089404
-0.002217024
-0.0020845374
-0.00208312
-0.0013817395
-0.0019119406
-0.0014619875
0.0012332521
0.0011999722
-3.4682278E-4
0.0010454404
0.0025383728
0.0037640058
0.0063053486
0.0068147075
0.0058034654
0.005833171
0.0056730406
0.005669767
0.0061885267
0.0070939525
0.009731757
0.010103909
0.004407331
-0.0019378458
-0.0048695724
-0.006006909
-0.0062329248
-0.0064100577
-0.006981214
-0.007797461
-0.009033953
-0.008162808
-0.005020194
-0.005126943
-0.0073910393
-0.0067049074
-0.0061822794
-0.0064876936
-0.0055624633
-0.005590466
-0.0035008977
1.2431032E-4
8.257814E-4
0.0028334418
0.004849229
0.0038098528
0.0036725462
0.0034146146
0.0022424844
0.0016041597
0.00284085
0.0061495393
0.0056512607
0.0034412171
0.0039960314
0.0020496892
9.6984455E-5
7.455559E-4
-0.0012016095
-0.0022220227
7.953369E-5
2.1940762E-4
-7.4490625E-4
-1.5257138E-5
9.866889E-5
1.6022744E-4
5.150677E-4
-0.0010696781
-0.0017959253
-0.0011100775
-0.0016120902
-7.230735E-4
3.7847777E-4
-5.570543E-4
-1.7016118E-4
2.8538782E-4
-6.1229285E-4
-0.0011624823
-0.0030047554
-0.0041411463
-0.0022305164
-0.0010072854
-5.9429713E-4
5.910578E-4
2.548923E-4
-0.0010581968
-9.084152E-4
-5.081094E-4
-0.0014801567
-0.0020554506
-5.904341E-4
8.902046E-4
0.0010487252
0.0012757278
0.0012489135
4.38008E-4
-1.140849E-4
-8.284853E-4
-0.0011993232
-1.864793E-4
1.8975149E-4
-2.5740036E-4
-3.1943692E-4
-7.537477E-4
-0.0012358008
-0.0019084082
-0.0018099451
5.0813935E-5
-1.4579036E-4
-0.0015468091
-3.801473E-4
9.177641E-4
0.0012524911
0.0013333546
0.0011589193
0.0013133604
7.0098013E-4
1.333197E-4
5.1473983E-4
3.4105047E-4
2.0755426E-4
6.2497106E-4
0.001092004
0.0017364322
0.0024112256
0.0024439355
0.0013453283
1.7456741E-4
-3.796893E-4
-6.478819E-4
-0.0012155822
-0.0016747477
8.043232E-5
0.0013863954
-1.4224544E-5
-0.0010147125
-0.0025560516
-0.0037779573
-0.002398348
-0.0021523044
-0.00187404
-0.0010529517
-0.0028841253
-0.0024398759
4.4740227E-4
1.2005472E-4
-1.5642581E-4
0.0011639976
-1.3893892E-4
-0.002603927
-0.0017346964
0.001222246
0.0023247437
0.0020781355
0.002163422
0.0024754792
0.0017937563
-0.0010455888
-0.002115667
-1.4969353E-4
1.1529866E-4
-1.9881519E-4
8.437588E-4
0.0017779135
0.0024460782
0.002596489
0.0030280834
0.0017513124
-0.0015153816
-0.0021002714
-0.0022562027
-0.0028277521
-0.0010852696
-2.3553816E-4
2.654767E-4
0.0015821514
0.0011036008
-7.786017E-4
-0.001835127
-3.1581527E-4
-1.3698479E-4
-0.0019954443
-8.5828407E-4
-5.0569914E-4
-8.5702783E-4
0.0016097529
0.0013526228
-3.5612477E-4
-1.8981834E-4
-2.6377485E-4
-3.8052312E-4
-0.0019542098
-0.002771035
-0.0016564791
-0.0023410546
-0.0015290629
-1.40828815E-5
-0.0013741683
-0.001858624
-0.0027880261
-0.0038744379
-0.0011330764
8.78749E-4
-2.8238035E-4
-6.248462E-4
0.0010432866
0.0021062528
0.0016384134
0.0013789698
-4.2094378E-4
-0.002741986
-0.0010213931
0.0014693695
0.0014043947
0.001145659
0.0026477096
0.0053851213
0.007521443
0.010298159
0.012976226
0.010388086
0.0026936962
-0.0044732676
-0.008357432
-0.010204228
-0.008133137
-0.0033546293
-0.0020646492
-0.002091534
-0.0019438206
-0.002454433
-0.0011503842
-0.0011362613
-0.0019791645
-0.0015316635
-0.0014753735
-0.0010535922
-9.704374E-4
-3.2683103E-5
-0.0044942484
-0.015042661
-0.011432612
0.0017971621
0.0059289187
0.005099609
0.0042839833
0.0057579027
0.006563262
0.002944517
0.0017581868
0.0018106509
0.0014207364
0.00234115
0.0019119257
0.0020992828
0.0019221518
0.0011371699
0.0011464496
-0.0012051777
-0.0027826407
-0.002800749
-0.003188456
-0.0012977718
6.4437307E-4
9.778935E-4
0.00120901
0.001187378
5.0341734E-4
-7.213293E-4
-0.0011165402
-0.0015489263
-0.0023256743
-0.0019903348
-0.0021891769
-0.0027106048
-0.0010945912
0.0010263999
6.5745175E-4
-1.9402778E-5
6.3000136E-4
3.221631E-5
-6.340688E-5
7.030054E-4
-1.255017E-4
-1.7992382E-4
7.3406525E-4
0.0011277908
5.46572E-4
-3.0078183E-4
-1.00367426E-4
-0.0019264531
-0.0027078176
7.909135E-4
0.0022342275
0.0023731205
0.0019189649
-6.638266E-4
3.4374726E-4
0.0020944118
8.039391E-5
-0.0020715294
-0.0034215848
-0.0024709052
2.9305575E-4
0.0013704092
0.0012245161
-1.20495555E-4
-9.1172906E-4
2.0265323E-4
-5.3380354E-4
-0.0023043212
-0.0018987646
-4.6496486E-4
6.0933945E-4
9.5002406E-4
5.236004E-4
-9.750914E-4
-0.0019221258
-2.4788803E-4
2.500939E-4
-9.596833E-4
3.6296702E-4
0.0012472656
3.194571E-4
0.001251954
0.002613865
0.0024684884
0.001002198
-9.7000937E-4
-0.0011256803
-1.436353E-4
-2.873781E-4
-4.978286E-4
0.0013997077
0.0030624787
0.001014548
-0.0010984631
-7.6779095E-4
-8.760858E-4
-4.3459336E-4
3.5199185E-4
-0.0012913722
-0.0018861496
3.2123597E-4
8.7921036E-4
3.9929952E-4
8.812896E-4
-0.0010224311
-0.0028842688
-0.0016088074
-0.0025775586
-0.0037787994
-5.897108E-4
0.002036734
0.0024026486
0.0012667804
-3.63101E-4
4.898143E-4
8.502746E-4
5.283708E-4
0.0011739496
-3.6919216E-4
-0.0010158618
-4.7273876E-5
-0.0012112671
-0.0011426689
3.349519E-4
5.6585396E-4
4.7088277E-5
-9.622862E-4
4.2459153E-5
0.0016731274
8.4352214E-4
7.723103E-4
9.832197E-4
-5.5865344E-4
-0.0012407871
-0.001565356
-0.0015384686
5.679493E-4
0.0010176683
2.1679967E-5
0.0013240668
2.0702156E-4
-0.00220063
2.9734042E-4
0.001669806
1.7594876E-4
-4.953187E-4
-0.002375174
-0.0017039862
0.0013800553
0.0011700599
4.2175644E-4
8.31112E-4
0.001610953
0.0015843661
-5.0429226E-4
-0.0010397049
-4.5606846E-4
-0.0010687625
-0.0012737991
-8.5047097E-4
8.322544E-5
5.376709E-4
6.9302286E-4
6.1029854E-4
-4.3290944E-4
1.3466098E-4
-8.738015E-5
-0.0023754516
-0.0022373516
-9.657269E-4
3.495485E-5
4.8586266E-4
3.5994503E-4
0.0012778052
6.0572114E-4
-5.617823E-4
-3.4854803E-4
-8.419133E-4
-2.3084247E-4
0.0010876566
0.0017189225
0.0012986087
-2.89118E-4
2.3846056E-4
3.8084234E-4
-6.5169565E-4
7.4660615E-4
0.0011817013
8.3739706E-4
0.0013043283
7.234619E-4
4.4062673E-4
3.8341695E-4
7.237218E-4
6.8551773E-4
-5.331907E-4
-0.0011707942
-0.0027072139
-0.0025275233
-3.3060563E-4
-0.0010542708
-0.0013519021
-8.802682E-4
-9.450318E-4
6.298472E-4
9.0302486E-4
-2.653647E-4
-0.0027754593
-0.0038649742
2.4180797E-4
0.0013730475
1.6947673E-4
0.0014999479
7.3198887E-4
7.5524044E-4
0.0010971884
4.847549E-5
0.0011395065
-4.8366477E-4
-0.0014060319
0.0019693316
0.001806925
0.0015764826
0.0026582852
6.5791956E-4
3.4283008E-4
1.2319717E-4
-0.0020198107
-0.0012690071
-2.3496241E-4
-1.4970891E-4
9.387081E-4
-1.8335035E-4
-0.001706043
-8.9175394E-4
-0.001006772
-0.0015935905
-0.0011809743
-5.494337E-4
3.850102E-4
1.7091473E-4
-5.044201E-4
4.1414396E-6
9.3386695E-4
0.0020179097
6.5838883E-4
-0.0026307371
-0.0027492407
-6.9133635E-4
7.3085073E-4
0.0020672386
0.0036440669
0.0033979837
5.199162E-4
-8.0423284E-4
-9.1085857E-4
-0.0016164576
-2.638949E-4
-2.087168E-5
-8.842194E-4
5.449554E-4
4.1839597E-4
5.0902E-6
5.4306077E-4
-0.0011755193
-0.0014637609
2.4065707E-4
-3.232404E-4
-0.0022800134
-0.0020931647
-1.3105465E-4
7.4310437E-6
2.9225528E-4
0.0012157065
-4.5119395E-4
-8.5358723E-4
2.0917153E-4
-2.5753074E-5
6.310291E-4
6.432493E-4
9.69805E-5
6.66983E-4
8.560097E-4
0.0012630754
6.906447E-4
-0.0014835423
-0.0023763997
-0.0011225663
9.5748925E-4
0.0016215966
0.0014906754
0.0018266801
0.0011004275
-1.4019737E-4
-3.2537658E-4
5.133728E-4
6.7766925E-4
-0.0010882257
-0.0023562247
-0.0015171636
-7.885189E-4
-8.557312E-4
5.646759E-4
0.0014012771
3.1731205E-4
0.0014047432
0.0012901204
-7.1502535E-4
-1.3881299E-4
-0.0021238702
-0.0032074922
5.453558E-4
6.09438E-4
4.595957E-4
0.0028156887
0.0020849863
2.537012E-4
-0.0011976665
-8.5310935E-4
2.4339026E-4
-7.60112E-4
-3.5392353E-4
-1.6979378E-4
-0.0012229031
2.4064542E-4
0.0014355623
7.46504E-4
-3.2555233E-4
-0.0010798246
-0.0013305228
-0.0014686777
4.950213E-4
0.0020813087
-1.4530288E-4
-0.0014276475
-7.4295874E-4
-0.0016461633
-0.0019297526
-3.851189E-4
-9.984285E-5
-1.0833194E-4
0.0011512666
0.0015941071
0.0013760838
9.150624E-4
3.4838982E-4
4.0713022E-4
-4.3585317E-4
-8.88779E-4
1.1374487E-5
7.575863E-4
0.0019355948
0.0017144313
0.0012289803
0.0023019402
9.1451156E-4
-3.912839E-4
4.6014073E-5
-0.0013787776
-0.0012739786
7.433256E-5
-1.19619435E-4
1.5920607E-4
-9.270735E-4
-0.0013131514