-0.0075473594
-0.003358404
0.0020344062
0.0012710127
-0.004782902
-0.007077038
-0.0069303177
-0.009696905
-0.008773782
-0.0032668943
-0.001235501
-0.0023702227
-0.0014530857
0.0035186985
0.005895521
7.2070304E-4
-7.7130855E-4
0.004384503
0.004044213
-1.2916441E-4
-5.812537E-4
-1.7058637E-4
-9.203829E-4
-0.0017047988
-0.0026913902
-0.0028383753
-9.79915E-4
7.021837E-4
-1.05241896E-4
-0.0018896105
-0.0033325057
-0.0047350004
-0.005393171
-0.00504519
-0.004005021
-0.0012596246
0.002487927
0.003968247
0.00526391
0.009036334
0.010192026
0.008155984
0.007122908
0.0069411206
0.007517473
0.006774504
0.0034192416
0.0021363168
0.0045582876
0.0068646213
0.006360774
0.005101953
0.0032396016
-8.540935E-4
-0.003139514
-0.0040921564
-0.0075481483
-0.014007114
-0.022943655
-0.026947733
-0.02379671
-0.018901689
-0.013528823
-0.009289132
-0.0015622963
0.0076603815
0.007134932
0.0052102963
0.006263387
0.0013548112
-0.0039837873
-0.004639148
-0.0017276087
0.0069800126
0.017387424
0.02065296
0.018172404
0.018931445
0.019368935
0.015623323
0.015150076
0.014507307
0.009354123
0.0040769894
-0.0019972227
-0.0065816673
-0.006382795
-0.0054807332
-0.00853305
-0.016149053
-0.023245428
-0.024859024
-0.02082685
-0.01530004
-0.011036766
-0.0064185057
-0.0048124096
-0.0057059783
-0.004115843
-0.0045515224
-0.004918353
-8.8921125E-4
0.0015253619
0.0033241368
0.00623951
0.008788358
0.012985324
0.015176093
0.014495987
0.013690919
0.010785804
0.0073911124
0.0053590336
0.005178394
0.0073573594
0.008969272
0.008179104
0.003013015
-0.0028499272
-0.00528182
-0.010770072
-0.014206577
-0.008717061
-0.003339562
-0.001191617
-0.0019711084
-7.6417264E-4
0.004828574
6.534945E-4
-0.007240374
-0.0074023255
-0.009219127
-0.008603453
-0.0029318128
-1.0353421E-4
8.656054E-4
-9.699481E-4
-0.0013754333
0.0016974622
0.0019175047
0.0026220176
0.002414301
-0.002160984
-0.004807237
-0.0043610604
-0.0011971175
0.0031847695
0.0030498146
7.200428E-4
9.965133E-4
0.0022097102
0.0038187804
0.0059408555
0.0049503255
0.0025167498
0.002639494
0.0010481912
-0.0040109274
-0.0070688375
-0.0049138144
-2.248507E-4
0.0020333026
0.003110583
0.0041454835
9.285385E-4
-0.002394063
2.5423447E-4
0.0026023565
-6.4386294E-4
-0.004438586
-0.0055324826
-0.00407441
0.0020435443
0.0096316375
0.013098722
0.014625003
0.015584265
0.010923538
7.482274E-4
-0.007030523
-0.00937633
-0.00914344
-0.008212182
-0.010143584
-0.0142676905
-0.013092954
-0.0070325094
-0.0030219716
-5.251182E-4
0.0032278262
0.0045925463
0.0027477338
-3.6194676E-4
-0.005715339
-0.007444808
-0.0034432919
-0.0019308162
-0.0013301406
0.001631559
0.003897746
0.0077524274
0.013487901
0.015036032
0.009373514
0.0032027552
0.0018425261
3.4444281E-4
-4.385735E-4
-0.0010423844
-0.0069722105
-0.00887626
-0.004962577
-0.006031686
-0.007949555
-0.007979056
-0.011615708
-0.014032819
-0.009336026
-7.204486E-4
0.007261162
0.013106823
0.017211255
0.021413825
0.024419399
0.02310124
0.022084968
0.023814801
0.021534283
0.015351864
0.010945441
0.0068735112
-0.0017998173
-0.013000999
-0.019646727
-0.024663521
-0.03358537
-0.03914944
-0.03728178
-0.03501069
-0.034245584
-0.029999614
-0.021904837
-0.014786916
-0.009862188
-0.0054161707
-0.002040999
-0.0011012771
-0.0014260638
6.23747E-4
0.0061297035
0.01622654
0.028700827
0.032482535
0.033036616
0.04345516
0.051406562
0.050503463
0.049686503
0.044726726
0.035702165
0.028296307
0.017162193
-0.0010653761
-0.025202073
-0.047979128
-0.0560087
-0.050653897
-0.042552855
-0.032607637
-0.02224694
-0.017916007
-0.019628443
-0.022184994
-0.020599876
-0.013104578
-0.004957794
-0.0020632383
-0.0026324752
-9.593593E-4
0.004965452
0.012257759
0.017113544
0.017842405
0.015599237
0.013251047
0.012187871
0.011925232
0.011690582
0.00963168
0.005461756
0.003029526
0.0048414683
0.008034432
0.0069733826
-3.977908E-4
-0.00806563
-0.010687494
-0.010861519
-0.010390302
-0.00746068
-0.0038532084
-0.0022111356
-1.5516434E-4
0.0028766913
0.005260673
0.009639818
0.01392124
0.013567861
0.011326335
0.008939834
0.0066469386
0.0036465602
-0.0016932182
-0.005962205
-0.008369132
-0.010503249
-0.013660886
-0.017940264
-0.017134417
-0.012251393
-0.008708692
-0.005863075
-0.0043968777
-0.0017502791
0.0025425479
0.0048006023
0.00551275
0.0033006382
0.0014665381
0.0034029938
0.0036524606
0.0029472637
0.0053271083
0.008903081
0.010513751
0.0107847145
0.00976304
0.004922772
0.0026969593
0.0037787475
1.8830391E-4
-0.0028723837
-0.0036202993
-0.004587886
-0.0034420448
-0.005447047
-0.008524587
-0.0068797166
-0.0054354523
-0.005743455
-0.0066982787
-0.006635504
-0.004069597
-0.00264934
-0.0025824388
-0.0012343158
7.268406E-4
9.906304E-4
7.5539626E-4
0.0035111723
0.006712295
0.008023165
0.009274375
0.009923283
0.008883187
0.0063299243
0.0036009583
0.0015310708
-3.1180427E-4
-0.0024599147
-0.0047521773
-0.0023950052
0.004940081
0.00967465
0.009306941
0.003982947
-0.0034760528
-0.0065020565
-0.0060669864
-0.005370578
-0.004541286
-0.0043788445
-0.004550533
-0.00553887
-0.007120133
-0.007728537
-0.0067833504
-0.0027559586
0.0014686076
0.0023472146
0.0031786528
0.0040354505
0.002934779
0.0016428123
-0.0021408543
-0.007880563
-0.007741822
-0.0028167334
5.2482315E-4
0.004029684
0.007549427
0.0073686824
0.005861664
0.0037402015
-3.9897324E-4
-0.0029970768
-0.003071063
-0.0026794828
-0.0028239042
-0.004576344
-0.00509729
-0.0017009107
0.0012642829
0.0010551914
0.002526964
0.00689575
0.008364668
0.006411057
0.0036249014
3.529636E-4
1.6792901E-4
0.0024510096
0.0019173231
8.931269E-4
0.0029736531
0.0051044542
0.004098572
0.001460714
5.341621E-4
0.001114223
8.154895E-4
3.2694987E-4
-2.718653E-4
-0.004343123
-0.008680897
-0.007947052
-0.007067288
-0.007302974
-0.005235772
-0.0046839495
-0.0047416454
-0.0023876145
-0.0011698543
-0.0016592697
-0.0017651595
-5.210357E-4
7.6089654E-4
3.7988517E-4
5.761751E-4
0.0022808618
0.003051593
2.0561873E-5
-0.0054638516
-0.00699248
-0.0037539727
5.137091E-4
0.0037635658
0.0035753564
0.0023043444
0.0042389976
0.0060228435
0.005002371
0.0048366403
0.00540843
0.0039155316
0.0019907737
0.0010775184
0.0020905002
0.006122772
0.009491819
0.008435602
0.005278825
0.0044348827
0.0043908814
2.632302E-4
-0.005685946
-0.00887584
-0.008666921
-0.0048382604
-0.0017336308
-0.00411594
-0.0070979847
-0.007525153
-0.008983456
-0.008234947
-0.0041060904
-0.00415921
-0.0052423123
-0.0021958624
-1.00071804E-4
0.0014756994
0.0030486626
0.001590156
1.1311888E-4
-6.521552E-4
-0.001002966
9.599309E-4
0.002957668
0.004005549
0.005460956
0.0068750936
0.0077760094
0.0068867067
0.0029612891
-0.0012810702
-0.0020619128
-0.0017081131
-0.0032880774
-0.0038381284
-0.002611456
-9.5801026E-4
0.0026185792
0.0056912177
0.0052813124
0.0041679298
0.0047738855
0.0064101014
0.006037853
0.0029742967
0.0013917679
3.0412019E-4
-0.0018109753
-7.7515765E-4
-2.6829858E-4
-0.0041771038
-0.0059540067
-0.00415086
-0.0030042534
-0.00331906
-0.00576501
-0.00909579
-0.009512126
-0.008455251
-0.008781717
-0.007886765
-0.006155089
-0.0058934065
-0.0047839796
-0.002641941
6.364533E-4
0.0047714626
0.0076516652
0.011995096
0.014186619
0.010316386
0.010053936
0.012750618
0.007374351
-0.0012484872
-0.001960969
0.004856586
0.01224338
0.014283464
0.009628677
0.0057194377
0.0067708953
0.0050983117
-4.96742E-4
-0.0059842262
-0.013114715
-0.018240899
-0.016755696
-0.011757507
-0.007455155
-0.00604403
-0.0067369025
-0.007885608
-0.007783185
-0.005658574
-0.0039616143
-0.0029277878
-0.0017827668
-0.0016442997
-0.0017084292
-0.0010650429
9.100648E-4
0.0041562123
0.0060358653
0.005936679
0.005254854
0.004747761
0.0051089474
0.0053236117
0.0048590815
0.00456337
0.004179811
0.0049354862
0.006694775
0.0066790995
0.0053287246
0.004099128
0.003217965
9.0104E-4
-0.003210219
-0.0027053785
0.0018415871
0.002230555
-0.0015619164
-0.006079074
-0.008054026
-0.0060788533
-0.0037387265
-0.0023592701
-0.0016815925
-0.0014924805
-0.0022304135
-0.0040457207
-0.003253745
-0.0016351577
-0.002016536
-0.0018222152
-0.0026795343
-0.004574687
-0.005146396
-0.0038393275
-8.3312676E-5
0.0025607727
0.0045899525
0.0068082195
0.0049472135
0.0038369466
0.006221413
0.006465235
0.0034816703
-0.0025275464
-0.007098734
-0.004058787
0.0019366171
0.0045585507
0.0046351976
0.0024409571
-0.0027149057
-0.0065750177
-0.0068567414
-0.0052247285
-0.0018698262
3.8816067E-4
9.831055E-4
0.0025920009
0.0047445185
0.006627681
0.0043555927
-3.1201038E-4
6.496661E-4
0.0040414487
0.00557587
0.005254831
0.0041238414
0.0065758857
0.0072014276
0.0026029213
2.153088E-4
-7.4372196E-4
-0.0027794556
-0.004650649
-0.00635794
-0.008305139
-0.013073054
-0.01703115
-0.014602802
-0.009202593
-0.00587853
-0.004627932
-0.0021561172
-7.807022E-4
-0.0030643344
-0.004092637
-0.0031970555
-0.0013758837
0.001124421
0.0028264099
0.0064845197
0.011370307
0.015548384
0.01950973
0.022522973
0.019869221
0.0033413775
-0.008299596
0.0059211613
0.020697152
0.020473287
0.016313665
0.0040979176
-0.012478463
-0.020458523
-0.0215854
-0.021655442
-0.020515064
-0.01705041
-0.012795633
-0.0051150243
0.0025201596
0.0032430822
5.8584235E-4
-0.007770379
-0.014931549
-0.008798938
-0.003516155
-0.004677557
-0.0025299354
0.0021954044
0.0070527843
0.009622461
0.01176403
0.015265876
0.017784318
0.019901741
0.019540878
0.020469222
0.02377966
0.019592972
0.009170141
-9.6424005E-4
-0.009295107
-0.019254824
-0.030779047
-0.031167064
-0.021983977
-0.015579594
-0.010141638
-0.0034679403
0.0011430426
0.002411508
0.003297475
0.0037973968
0.0013225573
0.002570372
0.008785923
0.011973399
0.009909686
0.0051704105
5.3706294E-4
-0.012041997
-0.031204348
-0.031649064
-0.011199886
0.0073791924
0.016206946
0.01910915
0.021650257
0.026480043
0.023806505
0.005723327
-0.01120996
-0.012162025
-0.010419652
-0.012296309
-0.011868145
-0.0069503663
0.010235422
0.026410617
0.023767093
0.021085303
0.025795305
0.022320379
0.008507861
-0.0108195115
-0.020732949
-0.013904024
-0.015642812
-0.0329175
-0.037233364
-0.029405039
-0.035212792
-0.0458666
-0.03930993
-0.018250892
0.0017592692
0.008913997
0.010416157
0.010102276
0.002527601
0.0110550355
0.04094745
0.06113146
0.06925481
0.072804324
0.0666439
0.04698495
0.014808287
-0.0052778204
-0.0025402566
-0.0018097202
-0.020122143
-0.05664775
-0.087290004
-0.086506106
-0.06589321
-0.04982533
-0.042960178
-0.035350308
-0.026014596
-0.016953073
-8.704786E-4
0.019774318
0.035240494
0.04229789
0.054742254
0.08262516
0.10505975
0.11947382
0.13392006
0.12323466
0.085755356
0.04235869
-0.007839371
-0.054994978
-0.08617101
-0.11782462
-0.15506229
-0.17558357
-0.16578716
-0.13079281
-0.098511055
-0.087131344
-0.074169084
-0.054092694
-0.03738908
-0.011042811
0.02553845
0.061328053
0.0933278
0.122613505
0.14658453
0.16138907
0.18860531
0.2313212
0.26186073
0.25812322
0.18376839
0.071883745
0.0048346166
-0.053138055
-0.13864496
-0.18348743
-0.19811971
-0.26362446
-0.32695138
-0.2887519
-0.193908
-0.12194193
-0.082837775
-0.07318275
-0.08156707
-0.091687426
-0.07561345
-0.020805491
0.03965674
0.10808772
0.18257329
0.23609918
0.29724342
0.33909792
0.30977377
0.27096403
0.24193369
0.17616038
0.092314586
-0.0065688994
-0.13084829
-0.24237436
-0.3260518
-0.35244066
-0.30125704
-0.2442557
-0.19198926
-0.10631331
-0.02778607
0.029736824
0.06883605
0.08055154
0.08975968
0.06944434
0.01984536
0.029279185
0.09619509
0.1547128
0.19522955
0.21181428
0.20418458
0.17943427
0.10250763
-0.003954481
-0.07223135
-0.1135491
-0.14446409
-0.18658374
-0.24851845
-0.25510845
-0.19820066
-0.112170815
-0.018529031
0.012677719
0.003578749
0.013285961
0.025216617
0.026262581
0.016809037
0.0348221
0.07078777
0.08870453
0.13595559
0.19114377
0.22913183
0.2743122
0.2599586
0.15287735
-0.005672598
-0.13350694
-0.17000501
-0.20845447
-0.28182817
-0.3164629
-0.32032108
-0.25906783
-0.10619433
0.01517873
0.040515438
0.033382982
0.056034572
0.13418403
0.18584907
0.1135859
0.0021208096
-0.03637955
0.017795473
0.13751788
0.2132213
0.19727753
0.11670906
-0.0055271485
-0.04776388
0.016275598
0.08254534
0.1313939
0.112575494
0.00484864
-0.08380157
-0.093732424
-0.050558746
-0.018424971
-0.021117125
-0.034041326
-0.06514369
-0.09309502
-0.07390846
-0.02945512
-0.042708687
-0.14367974
-0.22690299
-0.21000747
-0.13875341
-0.09873866
-0.11187806
-0.11958702
-0.113878965
-0.10469303
-0.0603569
0.0018507136
0.0797914
0.14877169
0.15209857
0.13461514
0.1323333
0.1559002
0.191876
0.16586012
0.12458525
0.13484246
0.17806375
0.2375781
0.23146403
0.16368157
0.10806844
-0.0105121415
-0.19437325
-0.29961124
-0.26778895
-0.19750558
-0.20191202
-0.22037375
-0.18935274
-0.16756772
-0.16041797
-0.15391247
-0.1494406
-0.12460646
-0.08991486
-0.0641776
-0.035083525
0.028120274
0.11052992
0.17618941
0.23097381
0.24314968
0.2298796
0.28558746
0.37515914
0.38307256
0.26473522
0.08802808
-0.030730026
-0.073624305
-0.08486229
-0.10115331
-0.12224658
-0.10400786
-0.06962886
-0.056624833
-0.04391099
-0.035027962
-0.04503667
-0.06883216
-0.08682838
-0.09889645
-0.1367346
-0.2016667
-0.2733401
-0.3154983
-0.31276757
-0.29377657
-0.23938274
-0.13191535
0.016387764
0.1799715
0.28015116
0.31279412
0.31609794
0.27610847
0.22466421
0.16832048
0.079980984
-0.015903588
-0.075674064
-0.054706383
0.0036317855
0.05429541
0.1468778
0.23574048
0.2528316
0.2437871
0.23479648
0.19712782
0.11097968
0.021961663
-0.029958326
-0.08494273
-0.14868626
-0.18773262
-0.18754475
-0.15133116
-0.115020044
-0.091290675
-0.073835075
-0.065249465
-0.052828807
-0.039441075
-0.030817796
-0.024929952
-0.024892934
-0.025854731
-0.03379912
-0.0491575
-0.06592505
-0.0849388
-0.093348205
-0.09175914
-0.083841525
-0.06594684
-0.050297637
-0.029207064
0.0023378006
0.022999976
0.038363934
0.06355261
0.08432423
0.091000386
0.094025485
0.09410244
0.086406134
0.07217423
0.058056254
0.05428003
0.05040961
0.046182547
0.05456217
0.05717686
0.057165947
0.06891728
0.078408614
0.08681863
0.09180364
0.08785018
0.07485383
0.05032692
0.029726759
-0.014429304
-0.09959101
-0.14909013
-0.14104128
-0.13263978
-0.1297191
-0.11690761
-0.107318744
-0.10499673
-0.096079715
-0.07884777
-0.0692718
-0.066705145
-0.049125873
-0.014881647
0.027599713
0.07379743
0.08695749
0.055840738
0.020701941
-0.010295527
-0.028811198
-0.017597409
1.3184996E-4
0.019222688
0.04605822
0.07003461
0.088860594
0.08853498
0.06593331
0.031295452
-0.013322523
-0.041565657
-0.044269264
-0.045031723
-0.04829855
-0.0527311
-0.049893532
-0.036814872
-0.034072995
-0.034401998
-0.025622396
-0.018888457
-0.014229184
-0.012023594
-0.0036456056
0.018099139
0.037603598
0.0507712
0.044823773
0.018237295
0.0017902369
-0.0056476016
-0.013851143
-0.021977928
-0.026873047
-0.018213501
-0.011834591
-0.004858351
0.009060484
0.0045088455
-0.0052898275
-0.007818366
-0.001982447
0.014803645
0.01560018
0.01873141
0.030636217
0.013448962
-0.013622247
-0.03268681
-0.03330794
-0.0115620345
-0.0033620568
0.00987933
0.032038666
0.019152384
0.0073161605
0.027975978
0.050232064
0.05761757
0.039595034
0.0071234168
-0.009180487
-0.0141126085
-0.01892314
-0.019148804
-0.019274099
-0.020399438
-0.01979788
-0.019331193
-0.015726965
-0.012602934
-0.014997422
-0.015014095
-0.007805515
0.0036398964
0.012995253
0.018271334
0.02253431
0.022014037
0.016582437
0.012415197
0.01281268
0.019394144
0.02775606
0.034035493
0.037235398
0.034782596
0.029948968
0.022069678
0.005012355
-0.013910053
-0.022964217
-0.020746151
-0.012320448
-0.008203398
-0.01132632
-0.015016157
-0.0213185
-0.022311121
-0.0064451112
0.005054373
-0.0010933013
-0.0077045597
-0.010713145
-0.0123445345
5.651602E-5
0.02456669
0.03669612
0.034243032
0.033647474
0.03320038
0.030489251
0.025007052
0.015615209
0.01167935
0.008327925
0.0031132444
0.0074404976
0.015758537
0.020704357
0.016637947
4.8534942E-4
-0.017135525
-0.029229738
-0.02734898
-0.016806828
-0.01603871
-0.019899076
-0.025295524
-0.027911503
-0.012857154
0.007426338
0.021407157
0.027515845
0.015012803
-0.0053524864
-0.017363138
-0.024042882
-0.025252484
-0.019478679
-0.015194706
-0.01726195
-0.019980116
-0.020077763
-0.016788697
-0.01095147
-0.009390884
-0.010150297
-0.0097686965
-0.009970262
-0.004124811
0.007088912
0.018411502
0.030492306
0.036451783
0.03786121
0.039644126
0.030399276
0.0133234635
0.006099557
0.0078706015
0.011155771
0.017463645
0.024839647
0.025435483
0.022942826
0.026616998
0.024227753
0.0036893466
-0.019256273
-0.032877628
-0.041000187
-0.044772238
-0.04808802
-0.051274866
-0.04632409
-0.03294967
-0.01847227
-0.008621041
-8.238095E-4
0.008620443
0.01283149
0.011890019
0.015887521
0.020672645
0.018571902
0.016015643
0.015994553
0.013467692
0.010280098
0.009412106
0.0072683254
0.0019654317
-0.00415133
-0.00837096
-0.0096618375
-0.010923966
-0.013656916
-0.012690985
-0.0090318415
-0.011971091
-0.017904542
-0.017825728
-0.01556035
-0.012252954
-0.0060116816
-0.0058092335
-0.011855932
-0.009256542
0.0014294985
0.00812074
0.012510805
0.016649779
0.024833016
0.043161653
0.05166325
0.04285082
0.03580313
0.027166413
0.012262948
-0.0034527043
-0.020372186
-0.027185094
-0.024086583
-0.026212212
-0.02986889
-0.026720414
-0.018939793
-0.012334424
-0.010307029
-0.012309968
-0.014726498
-0.012174046
-0.008075115
-0.007064735
-0.0058599357
-0.0038640879
-0.0019509312
0.0022932189
0.012658442
0.021434149
0.016786082
0.008734751
0.005391879
0.004275517
0.01016128
0.015487275
0.012288187
0.007797911
0.0046858746
0.0035521549
0.0018953647
-0.0038144677
-0.0076295217
-0.008499334
-0.010584656
-0.012378465
-0.012050016
-0.009957516
-0.006913528
-0.003746861
-8.880496E-4
0.0012793746
0.0027151615
0.00466796
0.006609664
0.0056678695
0.0034268212
0.0032305706
0.0033667122
0.00153248
-2.661681E-4
-0.0010974861
-0.0035645047
-0.0060231835
-0.0069129798
-0.0075058714
-0.0057977363
-0.0030437098
7.687087E-4
0.0054677282
0.0054270606
0.0051083113
0.005010067
9.567691E-4
0.0011414192
0.0023764602
0.0014901749
0.004272399
0.002040606
-0.0026393181
-1.2565635E-5
0.0018232261
8.0561807E-4
-6.1599346E-4
-0.004590456
-0.008557039
-0.010212317
-0.0076934756
-0.0027858259
-0.0014488959
-0.0025983024
-0.0033183638
-0.0037044745
-0.002248163
-0.001179181
-0.0033902714
-0.004685356
-0.004649841
-0.005529085
-0.0041642785
-0.0021926078
-6.315732E-4
0.0034268065
0.0063192495
0.0057756873
0.0027834533
-5.9270835E-4
3.922272E-4
0.004105447
0.0053899735
0.003988838
0.0033549028
0.0048918193
0.0062479507
0.0071222065
0.005552053
4.1669648E-4
-0.0015572237
7.839303E-4
8.9797296E-4
-4.9894716E-4
6.788728E-4
9.226794E-4
2.1412397E-5
0.003131686
0.0062578423
0.007083064
0.008932286
0.009927024
0.0103707835
0.009933446
0.007929765
0.008386658
0.008891287
0.005034052
-0.0014580821
-0.0061653093
-0.0068339724
-0.00590282
-0.0049345936
-0.00534585
-0.0074259695
-0.009363913
-0.013342511
-0.01858796
-0.01961505
-0.01699419
-0.018290868
-0.023758108
-0.02625411
-0.027297808
-0.027790204
-0.028913135
-0.03282919
-0.028491687
-0.01752526
-0.0048237345
0.015416961
0.028574262
0.031896338
0.036626924
0.034348037
0.029309805
0.028360339
0.025645332
0.025055584
0.027309794
0.028679455
0.028022375
0.025322873
0.023755135
0.02199252
0.018110985
0.011629698
0.0042938143
-9.895674E-4
-0.00591721
-0.005711529
-0.004324339
-0.014878911
-0.0274593
-0.03318644
-0.038860697
-0.045525096
-0.04993986
-0.041747984
-0.02244877
-0.013185634
-0.011777718
-0.0034150553
0.0066957935
0.0123477895
0.013017748
0.008697208
0.0034481653
9.7295013E-4
0.0017735977
0.0026839995
0.0043891254
0.00695477
0.0059207305
0.009353364
0.014596941
0.008767105
0.007073533
0.01292881
0.008906398
-7.142699E-4
-0.009282512
-0.013940507
-0.01320464
-0.012106882
-0.0060302154
0.0012779757
0.0017281641
0.002297352
0.0027704402
0.0015697494
0.0033959264
0.00726758
0.012093907
0.016059209
0.016991783
0.015660735
0.014129172
0.013902073
0.011419969
0.006401322
0.003038714
8.098971E-4
-4.5433128E-4
-0.0018559757
-0.006849182
-0.012351724
-0.013914986
-0.013570463
-0.013197326
-0.012352734
-0.011850737
-0.00980873
-0.006154759
-0.0061183143
-0.008291293
-0.007881041
-0.0059147743
-0.004492795
-0.003899652
-0.0024446913
-3.6248838E-4
0.0010786721
0.003119009
0.0038754495
0.003744455
0.006047923
0.0074683367
0.0068960306
0.005671424
0.0011535744
-0.0033967074
-0.0037399624
-0.0026301693
-0.0010199756
-4.9340055E-5
-0.0017935964
-6.572865E-4
0.0052466555
0.006728792
0.0011125859
-0.0036720783
-0.002324431
0.0023976984
0.0041857534
0.0032373467
0.0052324147
0.008648709
0.007275113
0.002747631
6.49247E-4
4.6890252E-4
-6.913934E-4
-0.004308719
-0.008907546
-0.0089755375
-0.0062338063
-0.004784107
-0.0016126537
-7.022186E-4
-0.0021615853
0.0031785774
0.0062345215
-4.165699E-4
-0.0043439865
-0.0031281891
-3.1742736E-4
0.005095048
0.0073060724
0.0051566157
0.0039963154
0.0036763707
0.00395617
0.0042976406
0.002498262
0.0013704529
0.0023405037
0.0014457585
-0.0021522096
-0.005938596
-0.006906613
-0.004757648
-0.004414182
-0.006167019
-0.0065428913
-0.006009921
-0.0040674196
-0.0025288733
-0.003463308
-0.0033425891
-0.0017791159
4.3675612E-4
0.002849125
0.004375571
0.0067679845
0.0068300483
0.005309311
0.0071307174
0.007044941
0.0061996426
0.008107135
0.0075830845
0.0066941082
0.0062017827
0.004316549
0.0041685076
0.0021312542
-0.0034632806
-0.0063949744
-0.004892067
-0.0039480776
-0.0054083485
-0.004038324
-0.0028071955
-0.005630085
-0.0054246224
-0.003593081
-0.0036971406
-0.0012547607
9.326145E-4
8.122553E-5
-5.8275135E-4
-0.0023240137
-0.005436732
-0.005760043
-0.0045766346
-0.0059732767
-0.007994072
-0.008118915
-0.0068381247
-0.005096017
-0.0039594974
-0.0029982042
-0.0024569938
-0.0018450187
4.376759E-4
0.0029918302
0.004587254
0.004414898
0.0042439303
0.0062474017
0.007326616
0.00829762
0.010390367
0.011328048
0.012669365
0.014142415
0.01509192
0.016346851
0.017429989
0.016921042
0.014101389
0.014633031
0.013350034
2.9464441E-4
-0.013921789
-0.022423593
-0.02567142
-0.021391619
-0.014337975
-0.006297586
-0.004086399
-0.0099551305
-0.011686365
-0.013546137
-0.018715568
-0.01982104
-0.017400237
-0.0084699085
4.8316357E-4
-1.8980207E-4
-0.0036739656
-0.0052121463
-0.0026676296
0.0021055744
0.004091451
0.0071560224
0.010595009
0.011600957
0.0125225
0.011425918
0.008608082
0.0077409884
0.00822084
0.008089335
0.008040519
0.007982895
0.005033612
0.0015003636
8.6944294E-4
6.6486705E-4
0.0018512817
0.0050745006
0.0045827907
0.001369486
5.149444E-4
3.095222E-5
-0.0017650183
-0.0034669654
-0.0029116948
-3.2990624E-4
-0.001738767
-0.0049260096
-0.0040565054
-0.0050505926
-0.008316242
-0.008575283
-0.006464741
-0.0018674795
7.6391775E-4
-0.0017984536
-0.0034837984
-0.0017408117
-8.685172E-5
-0.0024546594
-0.005298923
-0.0018869862
0.003024658
0.003543616
0.0021075225
0.0012265436
5.0512168E-5
-0.0014848519
-1.1438927E-4
0.00332776
0.00618042
0.007833341
0.0053057857
0.0017995589
1.6444162E-4
-0.002460069
-0.0021828325
-5.1502587E-4
-0.0021306146
-0.002562438
-0.0021607226
-0.0013722071
7.143997E-4
5.0014467E-4
0.0011560016
0.002222217
-2.7448023E-4
-9.4581814E-4
-2.7851822E-4
-0.0018833409
-0.0023133329
-0.0012869077
-1.1957939E-4
0.001186821
0.0024983594
0.003944158
0.00409387
0.0030052445
8.513149E-4
-5.4208434E-4
0.0026760164
0.006245807
0.0066914605
0.00594541
0.0023219853
-3.8351252E-4
0.0011314949
9.857932E-4
-9.50937E-4
-0.002031177
-0.0020290245
-4.4753894E-4
-9.286318E-5
1.1162081E-4
0.0011331118
-7.277587E-4
-0.0032175041
-0.0045144306
-0.0048154066
-0.002883334
-0.0021552902
-0.0027584755
-0.0017629596
-8.442301E-4
-0.0017801867
-0.0036826173
-0.0028060114
1.1277004E-4
8.257483E-4
1.9923126E-4
-0.0010237207
-0.0014659199
-6.3328765E-4
-5.7256425E-4
3.8677081E-4
0.0011848842
0.0012993637
0.001402863
-5.0650095E-4
6.298356E-4
0.002567237
-1.2524465E-4
8.5375673E-4
0.0038053398
0.003639961
0.0042465525
0.0028166627
8.3672436E-4
0.0019479747
0.0025413581
0.0026151026
0.00227543
0.0014498761
0.002106601
0.0029849617
0.0020371159
-0.0012776986
-0.004348004
-0.0046689985
-0.004517787
-0.0057834797
-0.0065865885
-0.005681434
-0.004077542
-0.0010750416
5.1477266E-4
-0.0024898786
-0.0031985599
-0.0010524876
-0.0023117308
-0.003365079
-0.0030720925
-0.0035105005
-0.0027260373
-0.0018576946
-6.490972E-5
0.0030615332
0.0034318226
0.0023531674
0.0033831163
0.005399764
0.0049813483
0.0023973093
0.0016508405
0.0019597227
0.0015771526
0.0019257384
0.0023355538
0.0028820154
0.0028744936
0.0011150733
0.001496451
0.0033410608
0.002423734
0.0012386013
0.0010835831
0.0013955563
0.002817942
0.0020678903
5.842249E-4
0.0011546772
-0.002094838
-0.006189458
-0.0043736976
-0.002861871
-0.003292707
-0.004206647
-0.006986942
-0.0061938325
-0.0045433077
-0.00611616
-0.0048524644
-0.003031875
-0.002342659
-2.4218143E-4
-7.26507E-4
-0.0040842113
-0.007593699
-0.006123882
0.002104216
0.0089278575
0.01260211
0.01381539
0.01132458
0.0065646367
4.9280523E-5
-6.114697E-4
0.002926199
4.926024E-4
-7.826464E-6
0.0049411478
0.0079665035
0.0065340283
0.0014476108
-2.8016407E-4
1.150283E-5
-9.652677E-4
4.361179E-4
-0.002168667
-0.0074184383
-0.008982898
-0.009076269
-0.0056269127
-0.0044903453
-0.006870907
-0.0038603337
-0.0016102177
-0.0017717134
1.960298E-4
9.254939E-4
0.0014882738
0.0019579043
0.001425892
5.0282164E-4
-0.0020026502
-0.0030279153
-0.0014217267
7.3796697E-4
9.786976E-4
-8.267932E-4
4.7418763E-4
0.003590618
0.0050758454
0.005508003
0.0049138092
0.005669115
0.00533786
0.0022417698
0.0012712205
7.517919E-4
-7.8742305E-4
-0.0012012784
-0.0013484531
-0.0010863239
-7.52556E-4
-6.351044E-4
5.264124E-4
0.0015810161
4.3158166E-4
-7.746603E-4
0.0011652522
0.003870623
0.00540827
0.005651908
0.0042288643
0.0035085105
0.0032921645
0.0022181438