-0.071334735
-0.028053006
0.043047525
0.04583258
0.043726172
0.04033703
0.0059500304
-0.01845158
-0.025977131
-0.0023691687
0.030507049
0.018643798
-0.01947683
-0.041490227
-0.03128213
-0.024579277
-0.04399075
-0.06411305
-0.079139255
-0.067915924
-0.04863179
-0.052001707
-0.042628855
-0.06546225
-0.085089065
0.025273059
0.12594049
0.10107459
0.045662835
-0.013312129
-0.009501933
0.05326334
0.03340569
0.017336795
0.095376365
0.14057626
0.11210145
0.05392925
-0.0037949495
-0.03025898
-0.051143423
-0.07354029
-0.052454356
-0.02021446
-0.029657405
-0.01740608
0.04258063
0.067449406
0.034533832
-0.021741169
-0.057542864
-0.06780138
-0.0965337
-0.10100236
-0.052101668
-0.019459942
-0.022574158
-0.012715799
0.05869386
0.13847579
0.12590398
0.0558052
0.0061260113
-0.029612092
-0.07104701
-0.06309342
0.023984682
0.06907207
0.016228098
-0.035437193
-0.05978955
-0.06636953
-0.004644033
0.08787024
0.097440094
0.04176777
0.020869458
0.030795146
0.02805403
0.015318701
-0.0031456384
-0.03179596
-0.04710397
-0.022108171
-0.009581829
-0.043471176
-0.06976013
-0.07122255
-0.045440786
-0.0011016049
0.009317939
-0.018977366
-0.059263725
-0.06583321
-0.006982739
0.032991055
-0.005527222
-0.04952725
-0.06762367
-0.075176336
-0.015076208
0.076384805
0.10560692
0.14948079
0.20521899
0.15149546
0.050675247
-0.011912492
-0.058329526
-0.09279129
-0.06383377
0.057578508
0.13000436
0.065292045
-0.007058722
-0.046007156
-0.0792174
-0.038558677
0.063678026
0.09523843
0.030991225
-0.034167964
-0.07991435
-0.11096303
-0.12890628
-0.14015146
-0.05559837
0.07079328
0.0732429
0.009974579
-0.027506001
-0.041527003
-0.04192123
-0.0527193
-0.058140844
-0.045357216
0.007900363
0.09000217
0.09342414
0.031368814
-0.0023133543
-0.015412716
-0.037085824
-0.037975874
0.0028619005
7.8519894E-4
-0.024054026
0.06385204
0.15404229
0.12172739
0.06945118
0.030408762
-0.016161691
-0.010429082
0.03923649
0.035865866
-0.01687439
-0.0027206552
0.067032285
0.058720335
-0.022243999
-0.07957721
-0.12175878
-0.14231019
-0.08151265
-0.014011532
-0.02698767
-0.080664665
-0.107782744
-0.046660617
0.048024513
0.047497667
-0.006854456
0.0048505166
0.06809753
0.06995317
0.023755837
0.048483238
0.08464374
0.044321604
-0.01715887
-0.07685745
-0.08212808
0.03209514
0.15873232
0.17064855
0.10123515
0.04213961
-0.004762541
-0.064101756
-0.09510513
-0.091246486
-0.08770711
-0.078193955
-0.0735969
-0.054975882
0.061557293
0.17724307
0.11052273
-0.044137362
-0.13528492
-0.17896718
-0.1996338
-0.1925693
-0.10046647
0.09771838
0.25209254
0.25348368
0.16550782
0.08761438
0.04385394
-0.0025221426
-0.06323372
-0.119820766
-0.14696391
-0.15015462
-0.14948998
-0.10275879
0.01681501
0.16551358
0.2529929
0.2139559
0.12244829
0.06567334
0.034280516
-0.0014186082
-0.048591185
-0.08375695
-0.10414927
-0.1071783
-0.09544791
-0.08239411
0.0020283363
0.11834257
0.12754741
0.07673419
0.030254824
-0.026060551
-0.06931475
-0.09736291
-0.12068738
-0.11905389
-0.03656604
0.09577148
0.13408646
0.07235748
0.011187914
-0.018112719
-0.03526106
-0.05939347
-0.06843056
-0.064639255
-0.04336905
0.035875212
0.11177018
0.1178532
0.07474474
0.009641491
-0.044144053
-0.076501556
-0.094691046
-0.07591664
-0.006149405
0.054838944
0.034056492
-0.004843735
0.025711313
0.06240192
0.032780297
-0.01283579
-0.0136558525
0.01228505
0.017144816
-0.02008161
-0.018129129
0.06998515
0.09642186
0.029370872
-0.026421146
-0.05947501
-0.023175268
0.034256846
0.010916862
-0.03217511
-0.08674259
-0.10365471
-0.005816873
0.070808746
0.04781517
-0.0059069847
-0.024412554
-0.0030534377
-0.003432755
-0.023770874
-0.05206394
-0.0510843
0.035951175
0.09769802
0.06825562
0.019986236
-0.019860044
-0.014459339
0.030169277
0.0266389
-0.030813025
-0.04435776
0.013040098
0.03621203
-0.004594631
-0.050436046
-0.09011691
-0.10823364
-0.10923229
-0.08910877
0.008567679
0.119955905
0.13112764
0.077002816
0.028022036
-0.0077197254
-0.040814012
-0.0697106
-0.038327493
0.048424024
0.061596364
-0.003199208
-0.008809643
0.06557639
0.098592386
0.04020841
0.039448783
0.14867677
0.1786493
0.08246723
-0.017653637
-0.080517195
-0.119142294
-0.14510012
-0.12859982
-0.058691055
-0.009880526
-0.016584288
-0.04151768
-0.034794256
2.55963E-4
-0.0013132838
-0.037384227
-0.067803115
-0.08114698
-0.04622177
0.0059208744
-0.0019322523
-0.043920413
-0.07475592
-0.08197302
-0.0030088003
0.12523368
0.15674494
0.10398019
0.064869456
0.041470308
0.008667657
-0.0075071417
0.07013021
0.18533863
0.16879483
0.06703234
-0.0047855717
-0.06590281
-0.079731494
-0.03436062
-0.013294883
-0.030217841
-0.0656683
-0.10140439
-0.11690779
-0.10205814
-0.01715801
0.091181815
0.11249653
0.063107036
0.00609974
-0.040139835
-0.06218198
-0.066255845
-0.068517596
-0.07387225
-0.07662209
-0.07545349
-0.08268617
-0.068574324
0.03640887
0.19615667
0.25665307
0.18482873
0.08832306
0.011531061
-0.041904967
-0.074344896
-0.09741129
-0.09436469
-0.092618726
-0.06651151
0.033142593
0.08092526
0.0338696
-0.0053654914
-0.028451174
-0.0071200957
0.08003028
0.14257175
0.12975688
0.0533366
-0.03498586
-0.07420667
-0.081817865
-0.09040372
-0.09567651
-0.085933894
-0.059455685
-0.039718945
-0.014379445
0.043136537
0.0762486
0.047932327
0.013086542
0.025866725
0.08651862
0.116918854
0.06232168
-0.014895877
-0.06939762
-0.108272806
-0.108735114
-0.039814185
0.06617825
0.10725211
0.06410508
0.01820138
-0.0025490155
-0.0070909443
-0.010883964
-0.03573022
-0.06670922
-0.090859346
-0.09933396
-0.062987424
0.015239654
0.057992753
0.019814776
-0.027837953
-0.057097122
-0.05821495
0.034848765
0.13372803
0.13187037
0.089881144
0.04949346
0.014828492
-0.009860007
-0.012840631
0.026358567
0.050891865
0.028294727
-0.012349388
-0.034973666
-0.0055627353
0.0028591848
-0.044022813
-0.07624544
-0.0912755
-0.07339203
-0.042641148
-0.048055947
-0.020849267
0.02766118
0.031220634
0.0032635045
-0.036905356
-0.019297361
0.046638783
0.060868036
0.028958885
-0.010621989
0.004728673
0.09100063
0.118023776
0.057795722
9.0719695E-4
-0.038025282
-0.056774132
-0.045794826
-0.05289893
-0.06481357
0.0050356146
0.086390674
0.05445209
-0.019700851
-0.053059164
-0.0759362
-0.0825958
-0.029285537
0.03928802
0.03878492
0.00848436
-0.009620175
-0.029958067
0.010068431
0.07839714
0.07335808
0.026198322
-0.013550617
0.0014812446
0.055256132
0.049966086
0.007167188
-0.04430485
-0.08779743
-0.039610803
0.021134593
-0.009391121
-0.056371834
-0.089356795
-0.10753387
-0.05072507
0.032819938
0.057363246
0.049093094
0.021929758
-0.002979469
0.042592064
0.08887464
0.051089257
-0.010881941
-0.045484383
-0.00783024
0.10411298
0.1685835
0.13046382
0.053323593
-0.010170105
-0.05625969
-0.08741369
-0.07286797
-0.025890112
-0.009636963
-0.040909417
-0.083657764
-0.08410745
-0.05618572
-0.061649922
-0.08597217
-0.10048981
-0.09238906
-0.030617272
0.041276198
0.06138235
0.042991664
0.014816095
0.035154745
0.12143278
0.16368237
0.11999516
0.05800697
-0.010404332
-0.058655664
-0.017268727
0.06944716
0.078985356
0.004502349
-0.0565606
-0.094644755
-0.12057514
-0.056637995
0.043309376
0.03962178
-0.02455055
-0.061929103
-0.08937169
-0.11884656
-0.10217687
0.0132556725
0.15444551
0.17501175
0.093749866
0.014026546
-0.043127295
-0.020374019
0.09303075
0.1461991
0.09119053
0.017606607
-0.0331197
-0.05651527
-0.079958126
-0.08911198
-0.04042273
-0.0055009914
-0.031531498
-0.07366635
-0.099454
-0.06431332
0.016629908
0.047503516
0.009471672
-0.037872206
-0.072092965
-0.051516104
0.070035346
0.14589764
0.07559207
-0.0026837562
-0.045519214
-0.045284882
0.038620073
0.08569578
0.04259172
-0.023037976
-0.049401175
0.010089566
0.062034257
0.038132608
0.0034017016
-0.021121887
-0.055660732
-0.09644321
-0.07089659
0.010387569
0.0019994897
-0.06565683
-0.043999568
0.069551125
0.15599138
0.13264154
0.048740078
-0.025375327
-0.029700182
0.048110917
0.09579492
0.06413883
0.0041494025
-0.031254932
-0.025698386
-0.03756954
-0.07727117
-0.110815115
-0.099977694
-0.008477284
0.069813095
0.06272026
0.009545251
-0.047821146
-0.038727023
0.011408582
0.008144866
-0.03576115
-0.06952885
-0.031161457
0.05481891
0.055658232
-0.013672171
-0.060222935
-0.09440772
-0.12311687
-0.1143934
-0.030386832
0.09865441
0.13854271
0.079324655
0.029765923
-0.006939657
-0.054492943
-0.08135006
-0.02835456
0.08510403
0.11587383
0.06181963
0.0065159407
-0.04037943
0.0073570353
0.11217658
0.113852814
0.046214625
-0.010567816
-0.0053645778
0.07185505
0.10032166
0.05708503
0.00934014
-0.053708933
-0.106229685
-0.08823489
-0.015605991
0.021251712
-0.012116012
-0.031253204
-0.035321854
-0.07975539
-0.0963504
-0.059556205
-0.007921906
0.065605015
0.10491265
0.06382719
-0.008312101
-0.06946191
-0.10549826
-0.13229294
-0.13738081
-0.0774627
-0.005267625
-0.0049193017
-0.043500397
-0.011423185
0.07449873
0.09280907
0.05331105
0.02277793
0.007846906
-0.009835975
-0.034579474
0.016153596
0.12330375
0.12557477
0.025741508
-0.035217144
0.028141558
0.15587208
0.20349778
0.14141223
0.04183987
-0.037256945
-0.092127495
-0.10198113
-0.03831323
-0.009238544
-0.054397915
-0.07885402
-0.105984606
-0.12617715
-0.048063006
0.05773833
0.062835485
-0.01041501
-0.0783452
-0.113243386
-0.06352904
0.06169707
0.117540166
0.07269772
0.017206445
-0.028166985
-0.06528968
-0.036220305
0.056873668
0.08259615
0.036457065
0.0061790757
-0.03430589
-0.028156983
0.047703464
0.055170614
-0.007142788
-0.055626303
-0.08052535
-0.099289395
-0.07259833
0.04620672
0.11851987
0.06631766
0.0127752125
-0.014782831
-0.04065464
-0.073327065
-0.08692566
0.0050802045
0.11732837
0.120729804
0.05388763
-0.029467551
-0.086980686
-0.071353495
0.012830745
0.08071518
0.06785529
0.025098668
-0.028932014
-0.06730803
-0.02832855
0.008664798
-0.016299313
-0.052374672
-0.049715925
0.0056566917
0.05129473
0.08407346
0.11653661
0.073317185
-0.004730695
-0.059140958
-0.09424324
-0.05127921
0.02441479
0.03492434
0.001479709
-0.041019503
-0.041927814
0.02282242
0.06329335
0.03837807
0.0012681815
-0.031033436
-0.057829883
-0.052445255
0.009252182
0.103003256
0.12564774
0.050655827
-0.031352118
-0.09596895
-0.11509074
-0.052031383
0.010410049
0.025494289
0.0034504328
-0.051613767
-0.09565092
-0.10724213
-0.049342442
0.065596566
0.10482791
0.05996575
0.023790587
0.0026542395
-0.024062976
-0.05811768
-0.06662544
-0.00244527
0.111238666
0.1728499
0.12155033
0.024871137
-0.048045386
-0.065033495
0.015603343
0.112087816
0.10630195
0.036863856
-0.03164047
-0.08807996
-0.09828169
-0.048953135
-0.0033039541
-0.016751202
-0.053976092
-0.09250931
-0.1465485
-0.14276789
-0.07753851
-0.044970833
0.020814471
0.12654595
0.12736489
0.06377189
0.0085225
-0.04890045
-0.03684957
0.059558496
0.15793335
0.17438859
0.103762425
0.03496695
-0.022008808
-0.0782389
-0.095188096
-0.060924463
0.03441876
0.10463528
0.08050704
0.04615011
0.013057396
-0.038155623
-0.063223876
-0.0872788
-0.1188088
-0.08869155
-0.014163475
0.0031240392
-0.030292606
-0.0492417
-0.051709164
-0.019773135
0.02741755
0.03879058
0.021436261
-0.02297375
-0.041939195
-0.003724892
0.009726011
-0.019189011
-0.055188727
-0.04364971
0.06105816
0.13724366
0.0949112
0.029771669
-0.0027525956
-0.01835389
-0.02457019
-0.053381238
-0.08132136
-0.03737811
0.052822575
0.13772492
0.18667637
0.13352983
0.015389877
-0.040020887
-0.024884103
-0.017765775
-0.023715992
0.004576724
0.03459545
0.010414103
-0.040533036
-0.08962324
-0.12205137
-0.09960899
-0.007653853
0.09181404
0.09368453
0.02340173
-0.02909594
-0.088281736
-0.15031543
-0.15594518
-0.087474525
0.040671717
0.122989096
0.0889661
0.021498835
-0.01767669
-0.049786367
-0.076676734
-0.030106671
0.09157213
0.14228931
0.08980311
0.03651691
-0.011187766
-0.07518612
-0.12373066
-0.091197476
0.04136887
0.14500624
0.12914261
0.05691732
-0.011880918
-0.077582754
-0.13099921
-0.091167405
0.053801317
0.1542878
0.13931115
0.07580722
0.014493827
-0.03433003
-0.056359567
-0.002262898
0.08374224
0.07415576
-0.003826401
-0.07272085
-0.110475026
-0.04393304
0.07854775
0.094793126
0.018110823
-0.054692693
-0.11571369
-0.16493268
-0.16713955
-0.09449917
-0.0032198683
0.009802823
-0.034837954
-0.08215948
-0.13276398
-0.13286413
-0.02968504
0.11452374
0.1760922
0.1247197
0.06194132
0.010634689
-0.04928271
-0.019304438
0.11026084
0.22597739
0.2568636
0.18786016
0.093558885
0.02989513
-0.03700004
-0.10642269
-0.1472947
-0.118434995
-0.0055689774
0.116981074
0.15752825
0.096361764
-0.0021826236
-0.103414185
-0.19400704
-0.21256879
-0.16679363
-0.10398511
-0.07169158
-0.095772155
-0.07794153
0.011121334
0.07612405
0.07150566
0.028066033
0.034221128
0.06805921
0.0705545
0.10805594
0.13581878
0.07654354
-0.007187489
-0.07794848
-0.12724127
-0.12714426
-0.03891692
0.093181744
0.12520036
0.065889545
0.002093051
-0.07446033
-0.11346854
-0.0610011
0.01875165
0.058115333
0.038535763
-0.023771623
-0.07650794
-0.09758762
-0.11361942
-0.13040593
-0.09601512
0.04015916
0.16786842
0.15420276
0.10228948
0.09878673
0.1103761
0.14429966
0.13178135
0.03800696
-0.04193413
-0.08057906
-0.113218844
-0.120920345
-0.029130448
0.08446689
0.062077764
-0.022724885
-0.06445724
-0.030234892
0.07982655
0.124583274
0.07242346
0.009616496
-0.04906318
-0.07965397
-0.100998476
-0.1232521
-0.13044679
-0.14770138
-0.122146785
-0.033948056
0.05501374
0.114622936
0.11521408
0.080218926
0.047054995
0.006759833
-0.0432114
-0.09935981
-0.088943705
0.010899077
0.06346388
0.034866177
0.0014869189
-0.04797761
-0.07788781
-0.007992463
0.068623096
0.060352646
0.043635543
0.037809096
0.002204601
-0.045058895
-0.07707122
-0.025067082
0.09860119
0.13840754
0.07023451
0.0027509728
-0.03461011
-0.08062636
-0.11487887
-0.0432184
0.116639815
0.2007724
0.14119095
0.039888814
-0.028060399
-0.0705485
-0.045454226
0.033942245
0.050262667
0.0048911334
-0.045619857
-0.08050128
-0.053048704
0.0038516247
0.020968715
-0.0017166699
-0.038926166
-0.06425017
-0.08482078
-0.089911416
-0.04935285
-0.01537092
-0.030199137
-0.03527218
0.01093983
0.042519655
0.020575076
0.016407887
0.04732795
0.051042654
0.012724758
-0.014460391
0.0024234056
0.017373417
0.007034603
-0.021854652
-0.052138515
-0.021009196
0.027893495
0.015459519
-0.022003846
-0.067160256
-0.07570281
0.014087859
0.09731553
0.07298061
0.044868186
0.104031116
0.13890511
0.07319354
-0.010082534
-0.054873604
-0.071829475
-0.104423776
-0.11301548
0.018526273
0.18427481
0.19222726
0.08745789
0.0077109537
-0.008677602
-0.022485033
-0.07711393
-0.10980913
-0.07444333
-0.050056405
-0.089289345
-0.09136789
-0.029812416
-0.0187889
-0.048054617
-0.065946385
-0.09410536
-0.05731427
0.06748768
0.108584434
0.027688455
0.002630205
0.08222629
0.14128907
0.12302262
0.073575206
0.02167649
-0.0276379
-0.04685546
-0.04991492
-0.060284562
-0.05478351
-0.059847876
-0.050570693
0.033785563
0.08276611
0.04212163
0.015153907
0.0119313765
-0.020824963
-0.07150055
-0.07583417
-0.02278868
0.011535063
-0.007918083
-0.03679455
-0.025029982
0.006916347
0.017915614
0.010861182
-0.011285513
0.02125738
0.13399893
0.18068464
0.11997986
0.04334211
-0.01933284
-0.061280407
-0.07336098
-0.047079194
-0.015237798
-0.03523642
-0.04465441
0.025839498
0.08809828
0.06499241
0.0040308917
-0.049337145
-0.08385914
-0.10926987
-0.13568921
-0.07939878
0.052259702
0.09659402
0.057372212
0.010813292
-0.040332925
-0.024965236
0.038876183
0.04090573
-0.013228541
-0.06759278
-0.09638634
-0.11211044
-0.07692153
0.041278508
0.104631424
0.07138072
0.02729517
-0.031209439
-0.009181787
0.11576876
0.14756265
0.0773524
0.011699516
-0.032524183
-0.059628293
-0.09882311
-0.061237432
0.09009369
0.1604694
0.10687753
0.04870334
0.012085084
-0.024695102
-0.05754863
-0.041555095
-0.008190743
-0.023658793
-0.06533269
-0.10027315
-0.061694533
0.029343339
0.047098532
0.021597387
8.3909923E-4
-0.026631486
-0.03784115
-0.05747303
-0.08295793
-0.09727104
-0.09630771
-0.045849197
0.005572543
0.022408236
0.03710343
0.051202275
0.069380835
0.06709043
0.030535648
-0.020773286
-0.06493086
-0.023732882
0.06534017
0.07956504
0.054253932
0.037614863
0.013614409
-0.01759169
-0.05430784
-0.03142451
0.06929017
0.11354071
0.06269294
0.03615561
0.048914023
0.030830506
0.018353444
0.027186077
-0.0019871183
-0.038586013
-0.047378257
-0.05324249
-0.060623292
-0.07668242
-0.089102395
-0.10152432
-0.11089083
-0.041788027
0.04857355
0.049829848
0.016845377
-0.008250152
-0.023565203
0.0033826986
0.050728425
0.06225354
0.030627185
0.0032772198
-0.02936188
-0.056886382
7.261663E-4
0.059812896
0.043574516
0.023286207
-0.00649864
-0.016297251
0.034073032
0.055343147
0.032793097
0.009389605
-0.014895437
-0.02799712
-0.03547547
-0.03368855
-0.008242769
-0.0027137245
-0.02987605
-0.037246086
-0.04428732
-0.057483263
-0.006481681
0.041604515
0.02399952
0.040658746
0.084763095
0.08695118
0.07191317
0.04340011
-2.385693E-4
-0.04321941
-0.08739033
-0.10538091
-0.055651873
0.036955837
0.097377546
0.106796
0.07899584
0.007772924
-0.07748601
-0.1366609
-0.16924042
-0.18084414
-0.12950757
0.015530093
0.15636213
0.18855461
0.14687301
0.094217174
0.034744553
-0.022247363
-0.046848677
-0.05988559
-0.08944678
-0.10516695
-0.10663824
-0.08706423
0.015117311
0.13125864
0.1461278
0.13438101
0.14640553
0.10633178
0.05347817
0.03980297
0.007445178
-0.04757648
-0.088500984
-0.11256154
-0.12631176
-0.123328544
-0.107058086
-0.1059647
-0.059021655
0.06453139
0.123024054
0.081355184
0.038489893
0.017575443
0.0019549732
-0.022913897
-0.049202513
-0.06557063
-0.08044102
-0.092788994
-0.087671205
-0.018831255
0.053670645
0.043855652
0.07324122
0.16192244
0.17070255
0.121550344
0.06856361
0.020024082
-0.0104532195
-0.039177097
-0.057086144
-0.08379806
-0.09570536
-0.027751751
0.01614898
-0.02309966
-0.064321086
-0.07565022
-0.0050404905
0.10899576
0.13142802
0.09385087
0.054496314
0.0020563947
-0.033409018
-0.061164122
-0.09015592
-0.06980172
-0.012303342
0.022815624
0.026101941
0.014852679
-0.0013225812
0.0018321044
0.033468913
0.04448584
0.012055848
-0.034556367
-0.08809356
-0.112221554
-0.07616608
-0.050272316
-0.05355562
-0.043617733
-0.04348048
-0.018131059
0.07310567
0.1403464
0.14046606
0.107360184
0.05263655
0.0119191585
-0.001101128
-0.016438667
-0.0400984
-0.06910312
-0.05640011
0.03519844
0.097572476
0.072246246
0.045401897
0.01756226
-0.03462765
-0.07328439
-0.10141435
-0.09882802
-0.047254898
0.0050138957
0.019330796
0.0016790159
-0.013369691
-0.037694447
-0.048491236
0.04356278
0.15185364
0.14350411
0.07795039
0.041038357
0.04091637
0.03309763
-0.012455934
-0.055009454
-0.082658604
-0.11119441
-0.12561952
-0.1225802
-0.09351351
-0.016560484
0.073901586
0.112387195
0.09126448
0.0373676
-0.025079122
-0.07211252
-0.10581752
-0.12361985
-0.10864017
-0.039455242
0.09132387
0.18160374
0.15778448
0.10493198
0.07173432
0.057608403
0.07101666
0.06209265
0.026255842
0.0016548713
-0.02686389
-0.050059054
-0.037994307
-0.013506567
-0.020731503
-0.052286685
-0.06379317
-0.075554945
-0.107852675
-0.08299535
0.006158933
0.032297906
-0.027907504
-0.048682995
0.005277845
0.051828653
0.0602375
0.039562546
-0.001075352
-0.012150918
0.019752633
0.028667703
-0.0028210692
-0.022622315
-0.04487265
-0.07316609
-0.015285814
0.08123135
0.080417484
0.022864884
-0.02653516
-0.044809334
0.006680296
0.052294772
0.018345889
-0.0376215
-0.032307457
0.04002262
0.07437196
0.0488202
0.040121228
0.017677965
-0.032631095
-0.07283813
-0.10752206
-0.077876456
0.03950046
0.12482996
0.11636601
0.08514729
0.06067224
0.009298174
-0.04156499
-0.07289099
-0.096023604
-0.06395122
0.017011458
0.05666609
0.01870127
-0.038875274
-0.06528232
-0.08843567
-0.084267154
-0.014137986
0.03823418
0.026545405
-0.008290124
-0.03992262
-0.06322094
-0.06997562
-0.018377207
0.060954165
0.079905845
0.0524553
0.018852659
-0.0062117362
-0.024470802
-0.054014597
-0.043772615
0.025273763
0.085856155
0.11359957
0.11608453
0.10695826
0.09325919
0.058317073
0.008008167
-0.03535671
-0.057581823
-0.07266199
-0.084475674
-0.062264606
-0.03393497
-0.036202595
-0.049303804
-0.06254283
-0.059283562
-0.04381672
-0.040791914
-0.02560223
-0.016035892
-0.0358657
-0.003180768
0.09115757
0.13903768
0.114669845
0.0652008
0.020387422
-0.0043213298
-0.0142336795
-0.02365656
-0.042319
-0.03662515
0.030763471
0.078648105
0.046085354
0.006510272
-0.012829404
-0.039033636
-0.04812932
-0.019520355
0.01853993
0.019035436
-0.0079165995
-0.009085729
0.006595249
-2.5493075E-4
-0.026137983
-0.03280897
0.00626789
0.043086134
0.03010689
0.0062915944
-0.006077567
-0.013436445
0.013675196
0.045891393
0.02202036
-0.010360242
-0.0051326565
-0.014322883
-0.05748225
-0.09434135
-0.101588555
-0.08430517
-0.06403112
-0.060111914
-0.07878243
-0.077331185
-0.014916821
0.035746463
0.040175516
0.06062057
0.06756085
0.052661985
0.083695516
0.11700494
0.1101155
0.10350129
0.092881426
0.06818468
0.04129628
0.0086392425
-0.009397219
-0.0031958201
1.3655098E-4
-9.84145E-4
-0.0034033481
-0.014377694
-0.02071082
-0.023282891
-0.020674417
-0.003614246
-0.006181042
-0.043261707
-0.07867904
-0.09409122
-0.09732421
-0.087798074
-0.070792064
-0.07593118
-0.06527921
0.021753006
0.09738858
0.081623375
0.040011268
0.021423867
0.011871829
-0.0016255934
-0.012930512
-0.01315758
-0.0058698906
0.010359087
0.026519638
0.030170778
0.0149638355
-0.016258767
-0.036754075
-0.04890048
-0.050065633
-0.012716739
0.031749684
0.052820906
0.058570657
0.05567543
0.040416524
0.003719505
0.006307746
0.07070782
0.092423975
0.052360058
0.013883494
-0.013813783
-0.027051086
-0.014894145
0.009657008
0.0066941613
-0.019187674
-0.029740937
-0.055038664
-0.07521024
-0.03755691
-0.006871462
-0.009826269
-0.0039192047
0.008763174
0.008287566
-0.032342844
-0.06470841
-0.030209005
-0.006652204
-0.021379383
-0.016548103
-0.00481851
0.0012470421
0.0027764507
-0.006373258
0.0035088176
0.036302816
0.06282399
0.06840548
0.04263171
-0.0011209705
-0.019566389
-0.0051419223
0.007923889
0.010920719
0.0075626974
-0.014293517
-0.041971765
-0.039707143
-0.01626646
-0.020051276
-0.019091452
0.035879437
0.0729985
0.05405262
0.027920593
0.012622881
0.015334071
0.016509334
0.0017042501
0.0016160875
0.004764486
-0.0051203626
-0.015867068
-0.021386039
-0.0012500518
0.028877487
0.02368342
-0.008158825
-0.022214632
0.0018955749
0.02248861
-0.0048628817
-0.0432015
-0.06089826
-0.07901437
-0.07083647
-0.017691266
0.017138932
0.011479698
0.00387909
0.0024429176
-0.017694956
-0.052111436
-0.053742014
-0.044421304
-0.05471802
-0.015368202
0.058228992
0.07970266
0.07284963
0.06745539
0.030457277
-0.024082592
-0.021310458
0.030852426
0.05011789
0.04638538
0.051184166
0.047115643
0.030973159
-0.0047097625
-0.041511994
-0.053176176
-0.03177285
0.03053275
0.06683396
0.040929046
0.014067747
-0.016884148
-0.05696276
-0.038351428
0.027383847
0.04694274
0.008588872
-0.022370342
-0.036195364
-0.053406626
-0.07282077
-0.090855695
-0.0595679
0.03473944
0.09333363
0.07573592
0.04809537
0.023124443
-0.020199252
-0.057259142
-0.08421408
-0.08415738
-0.01100216
0.06904951
0.06955618
0.030794457
-0.0020427962
-0.023800164
-0.035166215
-0.05933749
-0.0665892
-0.024226598
-0.0015362717
-0.022068584
-0.030620923
-0.024880929
-0.0064072707
0.018214777
0.015892863
0.007437037
0.0018388275
7.246906E-4
0.023172727
0.023922369
0.032264963
0.09513093
0.11059337
0.08193392
0.07974746
0.054202255
0.042746272
0.08884693
0.10411482
0.06118367
-0.0027500784
-0.06004871
-0.094846725
-0.090746015
-0.021070035
0.041109372
0.019247826
-0.029564254
-0.06427109
-0.086032376
-0.10057572
-0.12619855
-0.1412688
-0.13924283
-0.13098435
-0.12198639
-0.11827387
-0.05994171
0.06095855
0.13841465
0.12756516
0.076970056
0.037066743
0.011586436
0.019179264
0.090090364
0.14500295
0.12522502
0.07944114
0.028103301
-0.01263903
-0.04299226
-0.06417893
-0.0027266587
0.092688255
0.09926098
0.05931302
0.020557523
-0.025612608
-0.04776593
-0.05390439
-0.0648906
-0.07658942
-0.07887478
-0.036873735
0.018152371
0.022304583
0.0029217147
-0.010469791
-0.032323603
-0.0357421
0.01528847
0.072470896
0.07992767
0.069483034
0.058303565
0.02968711
1.227813E-4
-0.025253179
-0.04751017
-0.061108567
-0.0663324
-0.067142345
-0.08382889
-0.10014532
-0.074370414
-0.02441877
-0.012335436
-0.029711131
0.01606427
0.09604747
0.093038835
0.032001644
-0.012987945
-0.033941496
-0.04794573
-0.04413408
0.031231832
0.13496077
0.16413005
0.13377605
0.078909144
0.0013369304
-0.036566284
-0.012898362
0.0029454858
0.008724878
0.036179442
0.04177238
0.0043395525
-0.05280194
-0.105568945
-0.12796313
-0.11373658
-0.05480142
0.02294657
0.05387407
0.026816765
-0.011872859
-0.023655843
-0.030082956