3.3516885E-4
6.031146E-4
0.0021066582
0.0018047657
2.2005932E-4
-6.407001E-4
2.1551119E-4
0.002818654
0.0026610864
0.0011333523
0.0024492375
0.0030374501
0.0019548016
6.6421705E-4
-0.0022053982
-0.0037217953
-0.0015844773
-1.546786E-4
-3.2423926E-4
9.830805E-4
0.0021397667
0.0011355642
-2.44115E-4
-2.4278439E-4
-0.0010251576
-0.003510351
-0.0032978721
-9.5056504E-4
8.8025315E-4
0.0016195558
-4.962431E-4
-9.5176254E-4
4.042835E-4
-0.0012048574
-0.0018884711
-6.6186E-4
-7.7584235E-5
-0.0011424581
-0.0019811
5.980076E-4
0.002083847
0.0016867135
5.9585646E-4
-7.7991944E-4
0.001274564
0.0014641474
0.0017741563
0.0048304694
0.0041693454
0.0042588483
1.5153976E-4
-0.0052122897
3.7926753E-4
0.0014737737
-8.093209E-4
0.00195865
-5.77512E-4
-0.0031249255
-0.005879024
-0.007234098
-1.3755781E-4
0.0015498835
-5.5835897E-4
-3.00389E-4
-0.002594222
-0.0014092998
-1.5889764E-5
-0.0010503342
4.769054E-4
0.0010550044
0.0020314413
0.003010667
0.0013657596
5.584842E-4
-1.1662755E-4
-4.8579287E-4
1.3940778E-4
4.8945355E-4
0.0019280163
0.0025530765
0.0014960383
0.0011845961
4.246776E-4
-0.0012306374
-0.0025205414
-0.0031333454
-0.0025023
-0.0018072946
-0.0011110984
3.7667213E-4
5.9966056E-4
1.21195866E-4
-8.811083E-4
-0.003018312
-0.0019266836
0.0012462734
0.0016513752
0.0011994574
0.0018934025
0.0024960376
0.0021205195
0.0023887572
0.0026073437
1.33535E-4
-0.0013871277
-7.464321E-4
-8.032472E-4
-8.6230546E-4
-1.9261363E-4
0.0012540461
6.642419E-4
-0.001088347
-2.7264838E-4
-9.882399E-4
-0.0016876278
-1.3656718E-4
-8.9521584E-4
-0.0016614635
-0.0022954014
-0.0028175784
3.3859152E-4
0.002871158
0.0026146173
8.1547204E-4
-0.0010119807
-5.199729E-4
-8.660762E-5
9.7253296E-4
0.0023863474
0.0020968774
0.0030665756
0.0022168285
-0.0011874206
-0.0025225803
-0.0029377646
-0.0017734035
-5.364504E-4
-0.0011146126
-5.208451E-4
-5.141668E-4
-8.1862486E-4
-2.5674643E-4
-2.0647403E-4
9.120245E-4
1.2621781E-5
-0.0024180436
-0.0016262489
-7.4080966E-4
-8.4514046E-5
0.0013878979
0.0014071323
5.7482073E-4
-3.0487755E-4
1.0977682E-5
3.8068567E-4
-1.8821436E-4
6.192822E-4
8.780899E-4
2.292698E-4
9.249065E-5
-3.319424E-4
3.7676023E-4
4.851252E-4
-1.6548326E-4
0.0013350603
0.002132783
0.001749085
0.0022441885
0.0024215956
0.0012791574
-6.689664E-4
-0.001264986
-0.0016830012
-0.0028523323
-0.0013718855
0.0012223024
0.002429583
0.0030023926
0.0025191118
0.0017456132
5.769129E-4
-0.0016499055
-0.0032477963
-0.0046321847
-0.0063423794
-0.005729211
-0.0034319928
-0.0026494425
-0.0011481836
0.0010191695
-8.869216E-5
-0.0011207629
-4.8100043E-4
-3.5088058E-4
9.6236565E-4
0.0017619267
0.0016367912
0.0029918316
0.003779205
0.003594058
0.0033601224
0.0031234014
0.002611329
0.0012905719
0.0011283301
0.0013194355
9.7077293E-4
7.561265E-4
-0.0014134351
-0.0020672814
3.4588427E-4
4.206209E-4
-9.222968E-4
-0.0016476304
-0.0016368225
-4.2901633E-4
-0.0010766883
-0.00280427
-0.0029889178
-0.002526698
-0.0013055536
-0.0011296802
-0.001857579
4.1628296E-5
0.0010918515
-7.7749E-4
-8.095949E-4
4.4871928E-4
7.027884E-4
5.530858E-4
-1.6937559E-4
-2.4274571E-4
-6.39761E-4
-0.0018416026
-7.309849E-4
1.821378E-4
-0.0010595517
-0.0021032863
-0.0016366185
0.0022878142
0.0052634077
0.0037047951
0.0025474841
0.0025088165
0.0037087705
0.005320003
0.0034357465
0.0012072644
7.7327044E-4
0.0018056537
0.0036621408
0.0018733551
-0.0016947453
-0.0040206974
-0.006102866
-0.0069033527
-0.00655554
-0.0035220527
5.1329826E-4
5.4875744E-4
5.195096E-4
0.0018130115
-1.0919262E-4
-0.0030135433
-0.003610783
-0.0030636438
-0.0025587874
-0.0017569059
-3.992204E-4
0.0015758289
0.0034652026
0.0034840412
0.002260085
0.0010300414
6.515717E-5
7.6559593E-4
0.0019227986
0.001069772
-6.456206E-4
-2.432516E-4
0.002138282
0.002480481
-3.2321906E-5
-0.0014886401
-2.3901691E-4
4.6214956E-4
-0.001160158
-0.001257345
8.240525E-4
0.0015205673
0.0013940692
0.0013468787
-9.9405646E-5
-0.0015620624
-0.0013570249
-0.0019153486
-0.0031304723
-0.0018356075
-2.8132257E-4
2.188477E-5
9.3111023E-4
0.0013534195
9.914498E-4
2.9741557E-4
2.6993512E-4
0.0010198618
2.1926763E-4
8.083289E-4
0.0029406333
0.002460313
0.0016211249
7.7803305E-4
-6.5906544E-4
-0.0012312041
-0.0016742473
-0.0014471577
-0.0026029584
-0.003844561
-7.0185924E-4
0.0019591711
0.002410734
0.0025868262
1.579717E-5
-0.0023972767
-0.002411617
-0.0024313792
-0.0016615465
2.3382441E-4
3.8185762E-4
-0.0027256655
-0.0042918595
-6.948991E-4
0.0019445849
5.3549587E-4
-7.380909E-4
-0.001026599
-2.2502724E-4
0.0016544139
0.0021829633
0.0027202053
0.0039650975
0.0036197484
0.002879523
0.001971906
0.0012440791
0.0015821054
1.5380709E-5
-9.701452E-4
3.4829328E-4
5.7806494E-4
0.002179963
0.0021167696
-0.0021848173
-0.0028339217
-0.0020319296
-0.0032785735
-0.0025433032
-0.0026511569
-0.003065701
-6.423694E-4
7.214673E-4
0.0010734869
0.0014121548
-7.1237975E-4
-0.0029498732
-0.0027991713
-0.002206633
-0.0016628905
-3.7430276E-4
0.0016976263
0.004311892
0.0040657017
2.4171126E-5
-0.0026162378
-0.0022813003
-9.211177E-4
-3.0948682E-4
-3.5613644E-4
0.002381247
0.0051427223
0.0045663267
0.0036566674
0.0011218797
-0.0019231059
-0.0016314613
-0.0011648708
-0.0014847761
-0.0016227397
-6.659178E-4
0.0034104295
0.006011811
0.003959315
-4.5762023E-5
-0.004385899
-0.0065378253
-0.005252599
-0.0027283733
-0.0016031738
-0.002054626
-0.0010129426
0.0017593992
0.003374081
0.0017151845
-0.001579958
-0.0013087488
2.959842E-4
-0.0014344301
-0.0023492242
-1.2904181E-4
0.0038527162
0.0077705216
0.005997592
-5.2384805E-4
-0.0039520687
-0.0035968036
-0.0033830926
-0.0031268678
-5.8472186E-4
0.0020628157
0.001992377
0.0027514717
0.004450023
0.0023006622
-0.0012283325
-0.0026771945
-0.0035808028
-0.0038776766
-0.0024833502
-5.3987245E-4
0.0016168134
0.0051232665
0.005741586
0.0012804662
-0.0015564224
-0.0026313707
-0.0038465804
-0.0024991175
-0.0017995698
-8.4267464E-4
0.0024936036
0.0031008662
0.0016439623
-4.6010275E-4
-0.003303817
-0.0036768862
-0.0028332563
-0.0027218787
-0.0026490765
-5.681276E-4
0.004563008
0.007894803
0.006580591
0.0021216895
-0.002417992
-0.0032562963
-0.0026331248
-0.0017676183
0.001168245
0.003270542
0.0048193648
0.0064885053
0.0040142196
-6.5131823E-4
-0.0031210587
-0.004771534
-0.0062915576
-0.006021536
-0.0037357146
1.5046087E-4
0.004476095
0.005602966
0.0024591226
-9.1107003E-4
-0.0036359492
-0.0061027575
-0.0051019867
-0.0033112837
-0.003611481
-8.1343914E-4
0.0033181442
0.004022354
0.0049432497
0.00515813
0.0019228543
-5.960526E-4
-0.0014138005
-0.002511748
-0.003607227
-0.0023979475
0.0032315413
0.007848688
0.00568467
0.0011286692
-0.0014993252
-0.0034736358
-0.0049848994
-0.0042995405
-0.0013884162
0.0015359478
0.003810013
0.005437233
0.004459552
9.3781075E-4
-0.0027980166
-0.0051864344
-0.005379219
-0.003526909
-0.0022670869
-0.0018331249
0.0032885126
0.009324706
0.007610608
0.00302857
-7.952443E-4
-0.0027400297
-0.0010421852
-0.0037588929
-0.005710126
0.0011817991
0.005696154
0.0060543627
0.0048711337
5.280293E-5
-0.0034104034
-0.005365044
-0.0056040282
-0.0045191906
-0.0057781464
-0.0041457093
7.215211E-4
0.004471571
0.005041052
7.1541494E-4
-0.002349552
-0.0041515143
-0.0070832497
-0.0057974593
-0.0036591932
-0.0016135568
0.003319338
0.0059171924
0.0057916855
0.0038820503
3.992169E-5
-7.191562E-4
3.2360762E-4
-9.888868E-4
-0.0012710588
8.9396385E-4
0.003259245
0.0066315397
0.008212931
0.0057937526
0.0036798448
6.854679E-4
-0.0032635198
-0.0036580183
-0.0024172212
4.775708E-5
0.002784436
0.0029508898
0.0036821954
0.0027822428
-0.002374405
-0.005794975
-0.0046526454
-0.0016633973
-0.001293028
-0.0026357772
-5.6712437E-5
0.0034085584
0.0025762394
-7.174229E-4
-0.004519758
-0.0061383713
-0.0038564438
-0.0025809342
-0.0025166303
0.0020309342
0.007405618
0.008306264
0.006879603
0.0026359502
-0.0042206245
-0.008682357
-0.0104088085
-0.011627305
-0.011119637
-0.007587285
-0.0020281707
0.0037171505
0.0072562224
0.0063618463
0.0026046922
-2.182794E-5
-6.3944457E-4
1.608451E-4
0.00239116
0.0035601791
0.002968359
0.0041516908
0.0057417476
0.0051255887
0.0048275413
0.0041543744
0.0021504087
0.0033687835
0.0090282755
0.014013085
0.015395999
0.01376921
0.008028189
0.0012717538
-0.0040719304
-0.012856933
-0.019201715
-0.016472913
-0.012906006
-0.0117879985
-0.008415793
-0.0020492284
0.0014764544
7.096288E-4
-3.3690277E-4
-0.0056105526
-0.010618831
-0.009691962
-0.011975702
-0.012522368
-0.0039182846
0.0053227074
0.007902093
0.0024191265
-0.0030012943
-0.0044086864
-0.0031216345
0.002830619
0.0051424582
0.0049907207
0.009031002
0.009298878
0.009041893
0.0123729715
0.012513858
0.010585484
0.008601645
0.005876948
0.0033482066
0.0033643218
0.0065115998
0.007511365
0.0023948902
-0.0074626706
-0.013470718
-0.0075720423
0.0015225406
-8.801543E-4
-0.009957924
-0.010972809
-0.0072854497
-0.004582534
-3.6368752E-4
0.0012760988
0.0010877901
-0.001159339
-0.004372827
-0.0025419118
-0.0074454346
-0.012404308
-5.259447E-4
0.010203164
0.012525925
0.012659946
0.0077737733
0.0015287806
-0.0049890433
-0.006207216
-0.0025320265
-0.0048386166
-0.0058442024
-0.0022516884
-1.5718213E-4
0.0010759729
-6.873412E-4
-0.0023957777
-0.0016671104
-0.0038385955
-0.008125247
-0.008936885
-0.003781098
0.0024486405
0.0056370585
0.008100324
0.00988448
0.0088334195
0.0041630915
-8.109963E-4
-0.001520665
0.001993815
0.0076478478
0.013116949
0.016134834
0.012810068
0.005051953
9.1471484E-5
-0.004884598
-0.0080207195
-0.005152305
-0.006589193
-0.009765748
-0.0066499887
-0.004940368
-0.0033469528
0.001708985
0.0021610258
-0.0041788826
-0.012680699
-0.017529318
-0.01669036
-0.013941542
-0.0063152113
0.007788259
0.01737849
0.018728646
0.01761313
0.012711953
0.0029585366
-0.0075435857
-0.013879385
-0.00788732
0.0072602406
0.01341411
0.006936818
-7.957529E-4
-0.0062238267
-0.007586636
-0.0035897733
-3.3015676E-4
0.0032875945
0.011440207
0.01620992
0.0125386845
0.0042105475
-0.0054837046
-0.010272501
-0.008042889
-0.00690759
-0.007530446
-0.0037712741
-8.569892E-5
2.8260692E-4
0.0022816542
0.0016814169
-0.0038317733
-0.00515616
-0.0032950377
-0.0028992398
2.479018E-4
0.0024196445
-0.0035319873
-0.00841383
-0.0025338558
0.0017464514
-0.0046474407
-0.0077435826
-0.002790658
7.915797E-4
0.0042456896
0.011034454
0.018074682
0.021276623
0.015976166
0.0017317126
-0.011745446
-0.013436386
-0.008452832
-0.0070930924
-0.0063498514
-0.0031437897
-9.6338765E-5
-9.431059E-5
-0.0027790642
-0.002430441
-0.0042852457
-0.014194664
-0.018104615
-0.010723848
-0.005274467
-0.001008416
0.013944309
0.03084702
0.033726174
0.027845114
0.017067233
-5.9681496E-4
-0.010786524
-0.007902815
-0.005376033
-0.0054876707
-0.001358603
0.0023215243
-0.0017159579
-0.0068031135
-0.0060410458
-0.003943049
-0.0048370925
-0.00684129
-0.0054925354
-0.0022416383
-0.0022043616
-0.0024369804
2.0404242E-4
-6.6848885E-4
-0.007406044
-0.011246417
-0.013508871
-0.021335596
-0.024299042
-0.017807823
-0.011740519
-0.005381793
0.005407382
0.01454426
0.012182981
0.0030775
-0.0014001363
-0.0061340686
-0.009551237
-0.005415441
-0.0035703296
-0.0055413004
-0.0059951525
-0.005496653
-0.005020005
-0.006645682
-0.0067393165
-0.002239029
0.0048905388
0.013290526
0.022939887
0.039026722
0.056483004
0.06472852
0.06878355
0.071561776
0.06768174
0.05728877
0.043160066
0.026283942
0.01409023
0.010704607
0.0020916793
-0.011911194
-0.021618985
-0.038236495
-0.059071645
-0.07151817
-0.08067405
-0.09240468
-0.1067603
-0.10873195
-0.09128463
-0.07329178
-0.062458735
-0.058386635
-0.05947894
-0.05194372
-0.027957631
0.0051448788
0.033860527
0.05691967
0.08084737
0.10200473
0.10947164
0.102942966
0.11975286
0.16914351
0.20164941
0.21197821
0.19372092
0.12038448
0.0499583
0.019364536
-0.009693669
-0.06178402
-0.15347548
-0.25419536
-0.30853748
-0.32243592
-0.31129992
-0.27785668
-0.23033944
-0.17647462
-0.122842565
-0.051394112
0.037813596
0.11334612
0.17688416
0.23630963
0.2680026
0.24890357
0.1997185
0.15149404
0.10785033
0.099523395
0.10268589
0.057659734
0.052532606
0.11426787
0.12569028
0.097310245
0.061964523
-0.014351385
-0.09300452
-0.14608249
-0.19668947
-0.25115493
-0.31068903
-0.3673614
-0.37570643
-0.29640162
-0.18098736
-0.08282763
0.0158952
0.1017323
0.14386824
0.15524216
0.17395514
0.20405897
0.21562657
0.23705147
0.27101284
0.25767353
0.18734473
0.07138809
-0.044847813
-0.10894916
-0.12576048
-0.109298036
-0.10780993
-0.13040425
-0.12912215
-0.12219551
-0.12698981
-0.11944168
-0.07160176
-0.009448122
0.017756185
0.064373046
0.120603405
0.1152194
0.08510756
0.03485681
0.012271758
0.076749764
0.09229191
0.0013906385
-0.08741323
-0.10784513
-0.04343332
0.054327168
0.10734174
0.11766379
0.14569591
0.17293166
0.10122955
-0.033031464
-0.14175391
-0.24267145
-0.29893905
-0.250445
-0.14538027
-0.06522165
-0.03325235
-0.005819937
0.019098569
0.031307835
0.07258273
0.091118135
0.033444025
-0.022941735
-0.034003366
-0.007997251
0.03599292
0.047922663
0.039869428
0.043576546
0.041099478
0.05779035
0.11372029
0.14448999
0.12209808
0.078941986
0.001140222
-0.10675771
-0.14045745
-0.044932377
0.09804279
0.2180001
0.29517597
0.26447693
0.09317466
-0.093734376
-0.14342284
-0.11042734
-0.15870637
-0.26368654
-0.2980623
-0.2579038
-0.1781268
-0.07645312
0.0032528907
0.0408542
0.037201326
-0.008275535
-0.06562035
-0.07305019
-0.012624384
0.043378018
0.0566449
0.062280703
0.065766275
0.065897115
0.06874511
0.07057735
0.084237
0.09203857
0.061336942
0.015017254
0.0031126041
0.05487579
0.1393965
0.18611415
0.16807869
0.1023658
0.011981247
-0.08505652
-0.170142
-0.19531205
-0.1444201
-0.08665157
-0.053022094
-0.018015923
-0.0076187598
-0.022266028
-0.0062055695
0.03357623
0.061451178
0.07079835
0.051164646
0.015891224
-0.013685024
-0.057225812
-0.101034574
-0.09490699
-0.05849062
-0.03322687
-0.0138928685
0.0019556363
0.014695445
0.029341158
0.0393418
0.04581785
0.048118077
0.043101847
0.035474014
0.027497774
0.021233594
0.014561764
0.009756381
0.0138600925
0.016501198
0.006306885
-0.0077733262
-0.013679437
-0.010057807
0.0037278829
0.014806968
0.006188514
0.0029497622
0.017496515
0.01696568
-0.0014726002
-0.023651263
-0.04437465
-0.0469206
-0.048948344
-0.07450101
-0.07090442
-0.019560108
-0.0032576735
-0.029075831
-0.037623044
-0.036812253
-0.02580757
0.0016827394
0.020656902
0.02599271
0.008973518
-0.0036350614
0.017614402
0.038351975
0.05501174
0.06517135
0.056721374
0.048620135
0.018279802
-0.029987264
-0.060783368
-0.07248337
-0.039962675
0.022947572
0.07376717
0.114181235
0.13978261
0.14927846
0.12383446
0.056743655
-9.0892107E-4
-0.042353593
-0.069354974
-0.056422554
-0.027551277
-0.017594993
-0.032661222
-0.055037163
-0.07198167
-0.08253769
-0.07115809
-0.037413564
0.012464767
0.03677281
-0.011042683
-0.058279477
-0.05796956
-0.06691049
-0.0880157
-0.089290984
-0.061482795
-0.021864524
0.0033777757
0.02375371
0.03344455
0.030753568
0.040968727
0.047129136
0.047228098
0.057231266
0.054642048
0.050578613
0.061996475
0.06514964
0.06471606
0.062019184
0.039429687
0.014945367
-0.006877592
-0.02593983
-0.014644693
0.0049982867
-1.4326499E-4
-0.0058750026
0.0022593986
0.0039411434
-0.012268182
-0.032004602
-0.03627943
-0.02711495
-0.031056691
-0.06026022
-0.06570956
-0.019236602
0.02145962
0.022513568
0.009159958
-0.0024452633
-0.012768717
-0.017770128
-0.0065851063
0.011035329
0.0170105
0.019857893
0.027088773
0.026457602
0.011037337
-3.1279208E-4
0.004780421
0.0058097835
0.0019588773
0.006753201
0.004131122
-0.010499083
-0.020150572
-0.025483182
-0.032438505
-0.027514817
-0.009080941
-0.002294977
-0.0067721214
-0.004879571
-0.0023628457
0.0012723365
0.0098698875
0.0131610045
0.010215352
0.0076366207
0.013990515
0.026426448
0.023068529
0.00699723
0.0016713528
0.0049969535
0.006130324
0.0053129806
0.0036397935
0.0024453364
0.0018850091
0.0031046737
0.0075636795
0.010996618
0.011809244
0.012532617
0.013527864
0.012559825
0.007456097
0.002796566
0.002099126
0.0015651805
1.0226611E-4
-2.714558E-4
0.002099135
0.0054306197
0.0059789857
0.004269817
8.6979056E-4
-0.0020832291
-0.0020400125
-0.002135271
-0.0032158687
-0.0030949635
-0.001608669
1.8947212E-4
7.9465465E-4
-6.0131244E-4
-0.0047372356
-0.009152383
-0.009740071
-0.007925256
-0.0075104875
-0.0074939886
-0.003568687
0.0018357288
0.00421822
0.005326607
0.0045085615
0.0015578431
-4.8933673E-4
-0.0017481766
-0.0018115288
-3.5225748E-4
0.0023586617
0.0064049186
0.008860482
0.0083736265
0.006601459
0.0029645436
-0.0018128175
-0.002482243
-4.7891107E-4
-0.0015035557
-7.610358E-4
0.00270503
0.0025024752
0.00133067
-2.0593498E-4
-0.0036496257
-0.0051978077
-0.0058636246
-0.006067778
-0.0044604964
-0.0021938449
1.8457918E-4
0.0010827559
0.001817088
0.0016343697
-0.001533168
-0.0022607236
-8.316423E-4
-6.3430396E-4
-2.3240433E-4
1.6320428E-4
0.0029524022
0.0052725147
0.001886787
-0.0012434504
-0.0015964312
-0.0022354117
-0.0026709668
-0.0021036833
-8.888239E-4
5.253446E-5
0.0020185872
0.0035829705
0.00290779
0.0032788534
0.0018427228
-0.0019234911
-0.0025918358
-0.0024081478
-0.0015916217
2.1790629E-4
3.541469E-4
0.0012409607
9.275716E-4
-0.0019112569
-0.0036572968
-0.0052949097
-0.0055391416
-0.0036430773
-0.003033673
-0.002879476
-9.190348E-4
0.0029910123
0.0055111325
0.003814818
0.0010892162
-7.148038E-4
-0.002348667
-0.0029458413
-0.0019838545
-5.543081E-4
0.0012652345
0.0040870425
0.0039237365
3.564756E-4
-5.472852E-4
-5.044018E-4
-0.0014216617
-5.3521537E-4
-2.543342E-4
2.9027232E-4
0.0028641345
0.0036509193
0.0026373302
6.21892E-4
-0.0014549412
-0.0011954464
-0.0013056508
-0.0027918878
-0.0024574508
3.4867888E-5
0.0022766432
0.001981776
-2.8752934E-4
-0.0021952612
-0.0021431965
-0.0014240501
-0.0026849052
-0.0035720575
-0.0019334933
1.8888584E-4
0.0024098048
0.004038694
0.0033093097
0.0014017735
5.974461E-4
2.4043882E-5
-0.0011660323
-0.0010621509
-8.794342E-4
-5.182296E-4
0.0017316641
0.0016705018
-2.3332285E-4
-8.7046914E-4
-0.0023281001
-0.0027961393
-0.0018627055
-0.002385095
-0.0024301608
-6.0606626E-4
0.0014642259
0.0022776476
0.0019286582
0.0012383906
8.1174506E-4
8.7063207E-4
-2.0054332E-4
-6.112003E-4
0.0013190763
0.0015606794
0.0023532903
0.0058261743
0.004316788
-9.17638E-4
-0.002353337
-0.0033065202
-0.005223071
-0.004086946
-0.002273686
-8.3020714E-4
7.196631E-4
1.0379056E-4
-4.9401924E-4
-6.590498E-4
-0.0011066613
-7.513338E-4
-0.002453913
-0.0033373293
-0.0013630716
-9.506922E-4
0.0010680996
0.004438483
0.003851928
0.0014341202
-7.519516E-4
-0.002790582
-0.0038966606
-0.003026781
-0.0018724473
-0.0019222351
6.7858514E-4
0.0037487205
0.0030974357
0.0018987897
0.0011386224
9.804657E-4
9.295661E-4
-8.940437E-4
-0.0024275936
-0.0016394061
0.0019537
0.0043783737
0.002089652
-5.4732326E-4
-0.0016285345
-0.002081356
-0.0023801215
-0.003399019
-0.0028381597
-0.0014140267
-4.1929833E-4
0.0024198317
0.004671212
0.002505432
-0.0017145355
-0.0026502917
-0.0014859495
-0.00214817
-0.0022310205
-0.0013813307
-7.66474E-4
9.361933E-4
0.00228954
0.0027314285
0.0012083013
-0.0019383329
-0.0027335258
-0.0023845213
-0.0020656376
-3.790716E-4
0.0017205925
0.0039481325
0.0044037118
0.0024466726
0.0010576611
-3.941086E-4
-0.0030545252
-0.0044851145
-0.0030592594
-9.3015505E-4
0.0010222944
0.0046905167
0.005912184
0.0020081704
-0.0018305415
-0.0041430667
-0.004746574
-0.0033935271
-0.0023576745
-5.954586E-4
0.0015988315
0.0036405565
0.0050338055
0.002255609
-6.065164E-4
-6.3684245E-4
-0.0019546046
-0.0027314392
-0.0016750732
3.787465E-4
0.0028879375
0.0032677741
0.0031726717
0.0020687294
-0.0012792175
-0.003124961
-0.0036941231
-0.0030284065
-0.0012399405
-4.7322296E-4
6.6954736E-4
0.0015186268
0.0026089426
0.003738196
7.9203217E-4
-0.001788513
-0.0010198101
-6.550112E-4
-6.669558E-4
-0.0027522098
-0.0037334021
0.0032022428
0.00841062
0.0030822107
-0.0023753177
-0.002763387
-0.0035558918
-0.0034638029
-0.0022121659
-0.0015610834
0.0013173285
0.0040882765
0.0041147494
0.001692315
-0.0022089535
-0.0019269374
-8.108704E-4
-0.00320291
-0.0022869671
-3.5210696E-4
5.121481E-4
0.0046985387
0.005960526
0.0026496479
-1.774287E-4
-0.0031018013
-0.0035231204
-0.001575514
-0.0021708538
-0.002234656
0.0010704383
0.0042982027
0.0055954703
0.003704749
-7.257483E-4
-0.003206336
-0.0036980754
-0.0037507473
-0.0021550877
-6.6135806E-4
0.001566571
0.0055299723
0.005301141
0.0011760263
-0.0017043902
-0.0032608868
-0.0030087146
-0.0022413502
-0.0031036416
-0.0019866321
0.002451131
0.005349602
0.004715048
0.0028175812
-5.971403E-4
-0.004409763
-0.0043242644
-0.0029829454
-0.0031997026
-9.918765E-4
0.002932769
0.005559858
0.006341651
0.004040735
0.0012406033
-0.0013311013
-0.0056593823
-0.0065329904
-0.0033764883
-0.0017245442
-5.271556E-5
0.0030385072
0.005834999
0.0053790524
1.7740177E-4
-0.002890613
-0.0028308884
-0.00480275
-0.0040661367
-1.0037093E-4
0.0022409481
0.005735963
0.008340188
0.004780711
-0.0012383437
-0.0049552647
-0.0062667853
-0.0061097364
-0.004288104
-0.0012612741
8.828404E-4
0.0024013454
0.004263747
0.0035849952
-2.9080597E-4
-0.0026148846
-0.0019999414
-0.0017054114
-0.0028518117
-0.0030322403
4.8157375E-4
0.00564423
0.007924214
0.0067548216
0.003474597
-5.467371E-4
-0.0033731353
-0.0038385827
-0.0027557248
-0.0020796922
-6.078991E-4
0.002492655
0.004532929
0.0040294314
1.8777075E-4
-0.004041252
-0.0046764077
-0.005689736
-0.0077025206
-0.004555221
0.0021365855
0.006998787
0.008814159
0.006372686
0.0017407457
-8.506177E-4
-0.002979886
-0.004059389
-0.0023665635
-0.0019765124
-6.801364E-4
0.0025103479
0.0020805867
9.878321E-4
-7.764148E-5
-0.0022415565
-0.0011738267
3.5352088E-4
0.001751458
0.0020820382
-0.0033859897
-0.004849642
0.0010500851
0.0036954954
0.0024412367
-9.2755636E-4
-0.004770158
-0.0050526927
-0.0030841532
-2.7705944E-4
0.0018469993
0.0034625304
0.006673993
0.0075946986
0.0050406437
0.0022514586
-3.390412E-4
-0.0028556592
-0.0051337974
-0.005012224
-0.0030681188
-8.8269624E-4
0.0041435827
0.006470862
0.00210446
-0.0018067517
-0.0038328446
-0.004452197
-0.0035090884
-0.0032771763
-7.7800505E-4
0.00289405
0.0045849085
0.0062658433
0.0046123313
-7.6613744E-4
-0.0034247064
-0.0034974555
-0.0031991191
-0.0023383407
-0.002112078
-4.5056516E-4
0.0038181413
0.0052757785
0.0036981828
0.0017952241
-0.002350553
-0.0050668274
-0.004349656
-0.0037501487
-0.0011209145
0.0019640932
0.0026519375
0.0041702795
0.0043134936
0.0010652612
-0.0023032476
-0.0038506987
-0.0028671115
-0.0025251454
-0.003470907
-0.0011871166
0.0025547969
0.004858884
0.0051169763
0.001198889
-0.0031198629
-0.0040842667
-0.0040255412
-0.0026533396
-1.9657129E-4
0.0015489277
0.0038239504
0.005701525
0.0048953216
0.0017477296
-7.221789E-4
-6.429213E-4
-0.0012434802
-0.0030908736
-0.003041438
-6.97955E-4
0.0026848128
0.004439005
0.0033938133
9.012899E-4
-0.001686508
-0.0033906281
-0.004369331
-0.0030987263
-2.6279624E-4
9.939695E-4
0.002379944
0.0041040606
0.0035842445
6.523578E-4
-0.0019904706
-0.0017946033
-0.0019810996
-0.0029918072
-0.00191361
1.2521714E-4
0.0023206633
0.0023398455
0.0015428178
0.0014277697
-0.0024715466
-0.004779577
-0.0037521925
-0.0052826717
-0.0041428627
-1.7045088E-4
0.0024955494
0.004704482
0.003796136
0.0012922423
-4.2031394E-4
-0.0024133204
-0.0026790218
-0.0010398258
1.0133405E-4
7.845314E-4
0.0039464007
0.006783357
0.0041588116
5.4422894E-4
-0.0012726663
-0.0021904348
-0.0022351947
-0.0038780598
-0.0033780648
6.559582E-4
0.0023614783
0.003174371
0.0045002038
0.0031831448
7.7107834E-4
-1.8763587E-4
-0.0014684163
-0.002683762
-0.0011715919
-7.0594295E-5
0.0011926324
0.004833057
0.0040432396
2.1190504E-6
-0.0020392286
-0.004510293
-0.005424496
-0.0036132366
-0.0016731793
2.5896E-4
0.0018930893
0.0034251846
0.0026789254
-7.024463E-4
-0.0021792965
-0.0017330959
-0.0023243695
-0.0041964934
-0.0039034656
-9.057042E-4
6.815648E-4
0.0019085112
0.002611245
4.042504E-4
-0.0018104363
-0.002728248
-0.0019983335
-9.492348E-4
-0.0011580897
9.1247534E-4
0.003960943
0.0064638
0.008191185
0.004206515
-3.1207528E-4
-1.984199E-4
-0.0011427705
-0.002430177
-0.0018165014
-7.3058397E-4
0.0020841372
0.0049577425
0.004117537
5.1077694E-4
-0.0012596082
-0.0012817222
-0.0025250034
-0.003474085
-0.0035457562
-0.0029148802
-1.6131946E-4
0.0024934423
0.0019549935
1.7622246E-5
-7.1644684E-4
-0.0018416231
-0.0017821734
5.094752E-6
-0.0013956415
-0.0010593905
0.0026554014
0.0033182474
0.0038899765
0.0012623218
-0.005561178
-0.006422085
-0.00466197
-0.004165898
-0.0020775187
-7.7029684E-4
7.701299E-4
0.0033208686
0.0041615535
0.0027490165
6.9017883E-4
-2.077324E-4
-7.5699145E-4
-5.960312E-4
2.8882953E-4
0.0011538803
0.004052317
0.0066919266
0.005406749
0.00230998
-3.1282555E-4
-0.002914393
-0.0039113103
-0.0021080922
-7.2102813E-4
0.0011443875
0.0035843712
0.003388435
0.0026614713
3.0384914E-4
-0.0016451345
-0.0019698364
-0.0064952145
-0.008104589
-0.0075609195
-0.009210315
-0.0015142565
0.006158322
0.0037491564
0.0015328364
-5.394294E-4
-0.0018402054
-8.0995803E-4
-0.0010830068
2.2098685E-4
0.0022848623
0.0026923488
0.0032270954
0.004419527
0.0045078355
0.0028004262
0.0017497625
-3.506562E-4
-0.0024465276
-0.0011423079
-3.6380727E-5
0.0025688584
0.0056916405
0.0037150863
8.4635045E-4
-0.0020033137
-0.00517926
-0.0052178465
-0.005154208
-0.005576979
-0.0035985853
-2.300012E-4
0.0027957812
0.0034042208
0.0012648455
-0.0011907812
-0.0022572337
-0.0017226478
-9.300269E-4
-7.889638E-4
1.5833435E-4
0.0025103635
0.004652466
0.0046961373
0.001822302
-0.0015726959
-0.0030898957
-0.0034933204
-0.0030263476
-0.0025260008
-0.0017834642
0.0024024874
0.0072394833
0.0068100416
0.0029669048
1.3783693E-4
-0.0014014111
-0.0021422696
-0.003021405
-0.004031473
-0.0016759655
0.0018886845
0.00266654
0.0038371517
0.0034012354
-6.7898585E-4
-0.0035972514
-0.0057582925
-0.005987687
-0.0029950484
-0.0013787148
0.0014120346
0.005113809
0.0033179983
3.441399E-4
-3.447424E-4
-0.0019597455
-0.002804685
-0.0014807422
4.9163325E-5
7.9803367E-4
0.0024436314
0.006114656
0.006401859
0.0018823603
-0.001505882
-0.0031951752
-0.0036770552
-0.0026185988
-0.0022088476
-6.6302274E-4
0.0027210438
0.0043607666
0.0036316367
0.0019349534
-7.795215E-4
-0.0032362225
-0.0032021243
-0.0036162138
-0.004848444
-0.0023894669
7.245407E-4
0.0028799393
0.004910596
0.002576119
-0.0010704028
-0.0021341182
-0.0026861173