0.014066294
0.012607928
0.0077912523
0.0028530534
-2.0682123E-4
0.002342122
0.011944772
3.2328555E-4
-0.015055477
-0.0020239542
0.004044876
-0.0051192613
-0.007625437
-0.010816115
-0.008927395
0.0015573838
0.007386613
0.007161928
7.5458473E-4
-0.010383376
-0.015220774
-0.013027133
-0.015178014
-0.016481727
-0.0084328065
-2.1868882E-4
0.003379119
0.0010053966
-0.0028691257
0.0018093088
0.0071981433
0.00715594
0.004309285
-2.5532668E-4
-7.0515566E-4
0.0011172505
0.0032117828
0.0073905233
0.0070930272
0.0029100978
5.562975E-4
-0.0048498847
-0.01298174
-0.012742846
-0.004726557
0.00642606
0.014652569
0.005791009
-0.0018908944
0.008706923
0.008568754
-0.008264797
-0.024129149
-0.036494095
-0.039445404
-0.033319127
-0.020045022
7.021585E-4
0.016848437
0.022810286
0.021975245
0.015658563
0.0070109214
0.001976794
0.0020599498
0.003037079
0.0053202235
0.0077871336
0.005477195
0.0021685588
0.0040425393
0.0045280703
-0.0047444757
-0.010335954
-0.006253131
-0.005053746
0.002451035
0.020516222
0.028817115
0.022267446
0.012568329
0.005795246
-0.0051984047
-0.019950101
-0.02411084
-0.01645549
-0.0071069263
-0.0037216034
-0.0021472864
0.005231515
0.012284143
0.01351798
0.008895385
0.0050895303
0.0072439774
0.005189723
0.0016911668
0.0030626035
-1.9177237E-4
-0.0067162043
-0.010618618
-0.013161227
-0.014986702
-0.013841599
-0.007864042
-0.0017375443
0.0012544512
0.00106624
0.003942699
0.011237767
0.010238033
0.0069212704
0.0037127577
-0.009290895
-0.012182142
8.578442E-4
0.010728025
0.013656258
0.009364577
0.004371642
0.003493261
0.0010258547
-0.0029326687
-0.007934767
-0.008625799
-9.885323E-4
0.006894059
0.008914264
0.006842416
0.00571523
0.0039234674
0.0019106135
7.9607795E-4
-0.0055950154
-0.008316046
-0.00188629
0.0048187785
0.01010033
0.009681322
0.0064411894
0.005127071
-9.98799E-5
-0.0066725784
-0.011151129
-0.009299572
-9.0455636E-4
0.004749201
0.006238262
0.0032785044
0.0017791436
0.0016159472
-0.004851679
-0.0074942843
-0.010649534
-0.0154305035
-0.0076421467
0.0019687451
0.011716218
0.020210452
0.015492999
0.00889429
0.0034666648
-0.0033432094
-0.00944441
-0.014261788
-0.006063109
0.007985123
0.013897971
0.010068577
-8.293906E-4
-0.0016117643
-0.0019075406
-0.018192826
-0.023228714
-0.005997003
0.009803757
0.012677466
0.009485833
0.0024988274
-0.008070845
-0.009928379
-0.0045771175
-0.0035334672
-0.007832719
-0.010371234
0.0032655143
0.020133326
0.018681947
0.012198085
0.016216498
0.028386448
0.029935924
0.014715544
-0.0021003876
-0.026738418
-0.048816316
-0.036929443
-0.010532199
-0.0016531325
0.0037984864
0.023662716
0.037021123
0.021836188
-0.010432474
-0.03186833
-0.018048672
0.013420416
0.021392206
0.009556857
-0.0017202307
-0.007814481
-0.004477103
0.0023606203
0.0052906633
0.007180603
0.0077609024
0.006127717
0.003658442
-0.004762765
-0.014662777
-0.015212836
-0.01871677
-0.027383925
-0.028075337
-0.027920032
-0.027073573
-0.024609702
-0.021061903
-0.009263868
-0.0039551863
0.0025945976
0.017297376
0.015680961
0.021134881
0.042188525
0.045769993
0.034056026
0.018360473
0.020532768
0.03783009
0.036581133
0.03085693
0.01859939
-0.010832792
-0.019954188
-0.009364745
-0.002822402
0.0051106177
0.018209688
0.027076805
0.021211594
0.0097291395
0.0013394927
-0.0048526214
-0.0045677144
-0.0023357754
-3.1513607E-4
-0.0027049074
-0.01587595
-0.028809145
-0.034213703
-0.032122917
-0.034957647
-0.051772144
-0.057325784
-0.044785954
-0.034745142
-0.028232733
-0.024613665
-0.032952778
-0.042574327
-0.030619763
-0.005939989
0.002474254
-0.022975244
-0.06399957
-0.06637807
-0.042715143
-0.024369748
0.037556022
0.12202791
0.1694655
0.19586752
0.17544797
0.100520894
0.051042277
0.055194154
0.05394246
-0.0028028942
-0.051895674
-0.015684132
0.049943957
0.07288378
0.0445226
-0.013588033
-0.056038063
-0.06999458
-0.07382812
-0.07560044
-0.06944908
-0.06203728
-0.07755488
-0.07586653
-0.03401298
-0.03251337
-0.06373063
-0.04236661
0.007918536
0.015113358
-0.022087937
-0.034106992
0.001251331
0.030246234
0.04739576
0.054097988
0.032262754
0.015751775
0.010659106
0.0027169895
-1.8481904E-4
-0.017616903
-0.035211816
-0.034262512
-0.039343655
-0.038974542
-0.030695157
-0.017051449
0.016318772
0.030371604
0.037432984
0.072665416
0.06869113
0.019198446
-0.009510325
-0.006579353
0.02779085
0.07542371
0.112035684
0.13889456
0.15257509
0.14958404
0.10400392
0.03129429
-0.004211405
-0.013011451
-0.025361573
-0.060375575
-0.12318474
-0.17806274
-0.21721466
-0.19122337
-0.10613816
-0.09221199
-0.12424257
-0.12613034
-0.13528134
-0.13936736
-0.07973557
0.026554871
0.05074554
0.0152608
0.068700716
0.10604837
0.07433846
0.10381962
0.15740919
0.17882602
0.17553036
0.15418032
0.15392946
0.16194148
0.1496028
0.11064072
0.0630293
0.016465433
-0.037810106
-0.049769312
-0.042808533
-0.07293276
-0.1317762
-0.21526258
-0.23466818
-0.20496769
-0.19687413
-0.10948451
-0.022558099
-0.04312421
-0.07922555
-0.115065865
-0.075159244
0.0537186
0.10672857
0.09699461
0.09014156
0.07641105
0.07325119
0.07253047
0.0766884
0.07726122
0.0642487
0.058263276
0.048027266
0.038196284
0.032749012
0.019092923
0.007582222
-0.00145645
-0.0016566423
-5.668032E-4
-0.012063624
-0.025112284
-0.038377695
-0.042500127
-0.04797874
-0.047022518
-1.8908626E-5
0.04302934
0.040020082
0.010937091
-0.022057446
-0.022713445
-0.013197078
2.85323E-4
0.021938063
-0.021578344
-0.065759435
-0.0032539787
0.06856023
0.048681978
-0.010740226
-0.034774154
-0.04850995
-0.06880295
-0.042933535
0.0031660385
-0.002162829
-0.05919644
-0.09749872
-0.065646276
0.021381961
0.12791148
0.14587289
0.0532907
-0.009315409
-0.035128918
-0.07831343
-0.121388614
-0.10292947
0.039087396
0.14645536
0.13791709
0.14512222
0.09635035
-0.016117455
-0.030824773
-0.00849723
-0.03935978
-0.058397394
-0.03668076
-0.019558065
0.0071264515
0.05875321
0.055113804
0.02512719
0.039454807
0.035322916
0.022209685
0.025771838
-0.007970558
-0.03431619
-0.009739797
0.017421018
0.043034013
0.051810946
-0.027915495
-0.143911
-0.17328358
-0.12106842
-0.031204129
0.06510322
0.10972738
0.08345427
0.005041624
-0.0716863
-0.09811276
-0.08430101
-0.043064933
-0.018665472
-0.043546196
-0.03981699
0.035369083
0.08610537
0.038588647
-0.025680322
-0.027633563
-0.010049069
0.0030102658
0.023497136
0.045848384
0.063372225
0.052866973
0.010913638
-0.023801371
-0.004874599
0.038601596
0.040949196
0.03601481
0.03951581
0.041335177
0.06999192
0.09433162
0.11117895
0.08362909
-0.01762678
-0.03338771
0.06049754
0.13054006
0.1153458
0.012150863
-0.043669254
0.009482686
0.08877181
0.13084172
0.053251237
-0.07684288
-0.17033401
-0.24996366
-0.2722948
-0.2930241
-0.3333111
-0.31040293
-0.27256456
-0.20638122
-0.10662003
-0.04554775
-0.015928274
-0.014062272
0.05284587
0.2111574
0.2588548
0.13973442
0.054389168
0.15759076
0.274171
0.20672622
0.09355235
0.04542864
0.08411769
0.21974866
0.31961438
0.34216192
0.31352454
0.25827017
0.2254677
0.09407292
-0.118358254
-0.19920665
-0.2051427
-0.25299197
-0.2756207
-0.2509819
-0.23222806
-0.22749685
-0.21438563
-0.19301848
-0.16118263
-0.121847376
-0.09453913
-0.07602204
-0.06857701
-0.07674224
-0.07947
-0.06234042
-0.038706362
-0.023497889
-0.0049887556
0.019950679
0.05224093
0.09677213
0.12929945
0.1458292
0.15769361
0.16203544
0.15394731
0.13568394
0.13891998
0.15075159
0.13816929
0.12301284
0.105683185
0.09754777
0.10468496
0.08129142
0.03989433
0.005061112
-0.02309142
-0.034389026
-0.05283332
-0.08246017
-0.09632244
-0.09358306
-0.089763924
-0.090592094
-0.09550553
-0.11660713
-0.13430001
-0.12105534
-0.09850841
-0.08373928
-0.077584505
-0.079238124
-0.07813865
-0.061713632
-0.042861424
-0.037110504
-0.016945707
4.1147484E-4
0.0032866835
0.021856774
0.02030376
0.05666606
0.1640012
0.17031223
0.070536345
0.008091977
-0.03159481
-0.06824489
-0.013744424
0.11652892
0.19784376
0.21541144
0.15824181
0.043391544
0.0049518133
4.5120374E-5
-0.008613096
0.046059765
0.051450033
-0.0138568375
-0.05288688
-0.06061823
-0.04340476
-0.04647011
-0.07518872
-0.095625535
-0.07013409
0.03070867
0.069121815
-0.004415302
-0.057062563
-0.07248553
-0.081933394
-0.07820695
-0.060316946
-0.04295191
-0.028837582
0.017557967
0.06460232
0.06490943
0.036404293
0.02896656
0.063163385
0.048184402
-0.019760152
-0.039612465
-0.036208402
-0.04016515
-0.04016342
-0.044167224
-0.03694008
-0.024072638
-0.010224389
0.0026619693
4.926283E-4
-0.0033898735
0.002979485
0.031343058
0.07657892
0.09907348
0.077725485
0.03502795
0.008113717
-0.0035221344
-0.0087871915
-0.0076231174
-0.006042808
0.009829327
0.03138086
0.04552172
0.053148597
0.028687935
-0.009256854
-0.024788821
-0.029085241
-0.028735185
-0.0214255
0.004517882
0.04541234
0.05984319
0.030738596
-0.009711566
-0.01489083
0.008435527
0.020855803
0.026394123
0.029312663
0.021115482
0.0070114206
-0.015243464
-0.044127613
-0.0735587
-0.09753862
-0.10797771
-0.10809831
-0.10135867
-0.093615346
-0.09662589
-0.09454412
-0.07087887
-0.05718704
-0.07301923
-0.0882711
-0.07265455
-0.012595203
0.0786063
0.16074172
0.20430543
0.2053515
0.15476792
0.07920217
0.09374079
0.16377051
0.107925735
0.012955786
0.02178454
0.03870048
0.035933394
0.021821288
-0.020639038
0.023960993
0.13362639
0.16002776
0.12716629
0.05995166
-0.05842982
-0.15383038
-0.20102353
-0.21014722
-0.17703791
-0.15138167
-0.12249594
-0.07964698
-0.08613105
-0.11415465
-0.12492366
-0.12245264
-0.10418718
-0.0827071
-0.012281837
0.056491274
0.021980172
-0.030908432
-0.058436345
-0.072079994
-0.05077782
-0.017357325
0.08867055
0.23785904
0.28938913
0.2817032
0.27382523
0.2519349
0.22501963
0.19262886
0.15908693
0.13003726
0.106923714
0.090488225
0.083313726
0.04675014
-0.07318211
-0.20037955
-0.26350805
-0.2868376
-0.28428546
-0.27320933
-0.22722776
-0.16519974
-0.15921783
-0.16784889
-0.16984318
-0.17010683
-0.15067758
-0.11876352
-0.034912653
0.04232081
0.041569177
0.07144369
0.15362298
0.20345083
0.20890081
0.19310614
0.18470308
0.18005405
0.16458707
0.15128583
0.14866601
0.14912479
0.1336451
0.10339954
0.061212044
-0.005924405
-0.08956202
-0.17128453
-0.2277399
-0.25115782
-0.23956674
-0.15240592
-0.011664442
0.06646136
0.04110472
0.0035800105
0.02089585
0.041529443
0.015697798
-0.024533452
-0.046505112
-0.055406965
-0.059146136
-0.058658026
-0.04817139
-0.019704312
0.0055056517
0.0073784003
0.013834906
0.036135934
0.05654444
0.07200073
0.072593264
0.063921385
0.06305437
0.05348096
0.034324333
0.028128091
0.024207506
0.010359228
-0.005313756
-0.025325568
-0.040488128
-0.053324487
-0.07693334
-0.06294222
-0.016124414
-0.011010062
-0.031106416
-0.05146616
-0.0761719
-0.075155
-0.05558298
-0.033883195
-0.00881854
0.011849546
0.028863046
0.029438239
0.0098143285
0.004759229
0.057233345
0.12623368
0.13195556
0.13863522
0.18736136
0.1944029
0.16568434
0.119047016
0.07033201
0.09562252
0.12029109
0.030934228
-0.09883788
-0.17714368
-0.21854213
-0.2419987
-0.24535294
-0.24466136
-0.22904496
-0.23079382
-0.25723022
-0.14159395
0.0712549
0.14087424
0.12077493
0.11234649
0.08510346
0.06600855
0.05709555
0.053879395
0.06163016
0.059914127
0.060519774
0.066239394
0.0761619
0.08451149
0.08101756
0.07221081
0.038243968
-0.0041785887
-0.028661903
-0.048276696
-0.055456523
-0.061992407
-0.07139503
-0.06951115
-0.06066744
-0.040443745
-0.02436138
-0.002725438
0.035681505
0.0652271
0.090407714
0.10420712
0.102623045
0.047566485
-0.05842316
-0.07860326
-0.07357006
-0.1052646
-0.006166548
0.13525338
0.18120791
0.18152261
0.07329849
-0.07943223
-0.14279938
-0.18011428
-0.1900578
-0.16477625
-0.14756049
-0.10338986
-0.070278496
-0.020935623
0.127998
0.20549585
0.13621204
0.088178545
0.06505052
0.021068873
0.003703597
0.005063774
0.0067032515
-0.005559334
-0.025496827
-0.020372894
-0.0069998405
-0.00203711
-0.0016439293
-0.0037024026
-0.0046418966
-0.008173839
-0.013845106
-0.023847166
-0.019515894
-0.0068327584
-0.027376493
-0.05184147
-0.0552045
-0.055548258
-0.043427866
-0.016664257
0.017469866
0.046165723
0.064862125
0.078545064
0.07916007
0.07680999
0.067086905
0.049714778
0.037218463
0.009236088
-0.022045294
-0.047074296
-0.07124047
-0.08768442
-0.091627836
-0.018524727
0.075408265
0.03494062
-0.054572776
-0.07076373
-0.06404915
-0.05612311
-0.040410325
-0.037287243
-0.036853347
-0.040872335
-0.054198064
-0.06107186
-0.070724115
0.0056583127
0.23174661
0.35837072
0.22841212
0.044615366
-0.034244522
-0.030961012
-0.022582626
-0.033587515
-0.043331232
-0.024284704
0.061439704
0.09626696
0.020808443
-0.01424835
-0.018019315
-0.039271306
-0.04928929
-0.074287646
-0.09040432
-0.109519064
-0.13591817
-0.15682775
-0.14968866
0.035479598
0.21754085
0.14775106
0.10119968
0.14716028
0.055872478
-0.087442994
-0.14326182
-0.15099223
-0.16468038
-0.12579153
-0.0049824817
0.09626089
0.14487351
0.09959767
-0.017814677
-0.017714826
0.069035895
0.09573907
0.086995
0.07270476
0.05689218
0.039664067
0.020446727
0.0112730535
8.4069883E-4
0.0030653018
0.017697593
0.024370344
0.021086073
-0.012300371
-0.034731917
-0.0023560517
0.026735496
0.021426087
0.010346734
0.008924366
-0.006914469
-0.050778847
-0.076201856
-0.08049894
-0.074825965
-0.02998363
-0.01829233
-0.076245286
-0.0814303
-0.021637442
0.0131933745
0.026250971
0.03972557
0.051768396
0.04870399
0.033623047
0.049347155
0.0368699
-0.065327056
-0.15927158
-0.18207577
-0.1290868
-0.015261293
0.05683109
0.06422841
0.06144142
0.051247027
0.040573537
0.029218193
0.018159823
0.0189242
0.017768975
0.012663014
0.0039937007
-0.0013815064
0.0018900232
-0.0034656907
-0.008047843
-0.002922662
0.008417
0.026584717
0.03642246
0.041938253
0.045233388
0.04210195
0.042643495
0.03678626
0.026051164
0.019776164
0.017410511
0.022536132
0.024506832
0.025904426
0.02911324
0.03172568
0.0434894
0.04809138
0.034830038
-0.008916496
-0.08600681
-0.14190225
-0.15656152
-0.15503165
-0.1570152
-0.14588968
-0.082182266
-0.034202076
-0.061276086
-0.09539327
-0.11572105
-0.1263001
-0.08503642
0.0043177884
0.091887474
0.13319656
0.1325086
0.118732736
0.101105995
0.091659844
0.09254475
0.095083155
0.09782775
0.095269814
0.08373325
0.069043495
0.053610466
0.026344523
-0.0010269965
-0.0072106156
-0.009928623
-0.016048994
-0.023915552
-0.04111105
-0.04990531
-0.052533682
-0.05939378
-0.06171051
-0.065218754
-0.062371433
-0.04709001
-0.031890254
-0.016943814
-0.0053742225
0.0025414464
0.009105073
0.008488147
0.005371837
0.0030117186
3.803962E-6
-0.0016254653
-0.0012993739
0.001301657
0.0025432333
0.002867326
0.0033988866
-8.907365E-4
-0.0057405303
-0.0071504
-0.007033346
8.532651E-4
0.015372675
0.02331877
0.026168412
0.029441008
0.022543555
0.008186721
7.3067704E-4
-0.00478075
-0.010875728
-0.009833955
-0.0049967202
-0.00218131
-0.0027369002
-0.00498101
-0.0053204834
-0.0068390383
-0.011708075
-0.015294219
-0.014812976
-0.009246624
0.0012154379
0.014804482
0.026160177
0.027661685
0.022644345
0.018470585
0.013077073
0.005888558
0.002630315
0.004911238
0.009402491
0.013565428
0.013185166
0.008252329
0.0061116926
0.0030375957
-0.005893276
-0.015400846
-0.02343734
-0.023783516
-0.01633343
-0.011099837
-0.0056328773
-8.267654E-4
-0.0019575206
-0.0051563033
-0.008772329
-0.010820132
-0.012722322
-0.0126582645
-0.0021876646
0.0063204896
0.0037393027
0.002790511
0.0035125634
-2.0545517E-4
-0.0065065483
-0.0135342
-0.014060477
-0.004751468
0.007137492
0.016501235
0.02008947
0.017106982
0.011982802
0.0066597867
0.0015884269
-0.0022833655
-0.0055330135
-0.0047931685
0.0017973646
0.008136308
0.009838224
0.008977553
0.011034644
0.015073343
0.013570464
0.0069451504
-0.0034203967
-0.014750457
-0.015725117
-0.008812977
-0.0050194743
-0.0043472527
-0.005600282
-0.008136767
-0.011099863
-0.013482874
-0.013111338
-0.010855265
-0.0048226905
0.0025402496
0.0044423575
0.005170029
0.006892248
0.005904149
0.0027165974
-0.0031887714
-0.008846488
-0.006428558
0.0040012174
0.012343281
0.014096502
0.013874147
0.010488614
0.0045017716
4.489567E-4
-0.0057358835
-0.012315717
-0.010467179
-0.0027912967
0.0015969481
0.002878496
0.0041915956
0.0027036383
0.00264839
0.001302063
-0.0076810424
-0.0067008184
3.724798E-4
-0.003806961
-0.0013572362
0.00860758
0.011445963
0.010787062
0.0036234034
-0.004804942
-0.007926195
-0.012232684
-0.012677156
-0.0070837466
-8.041579E-4
0.0032493642
0.0030955307
0.0038597859
0.004272607
-1.5497008E-4
-0.0062112794
-0.010536247
-0.0075576245
6.6564337E-4
0.006681677
0.011077669
0.013413782
0.011708925
0.005816704
-9.6877787E-4
-0.0047855624
-0.008327951
-0.010562602
-0.007958567
-0.0031300578
4.91766E-4
0.001746921
0.00245192
0.0025343727
8.330231E-4
-0.0025187
-0.008435706
-0.010273867
-0.0032793551
0.0042699324
0.0071415305
0.0073084803
0.00634508
0.004391958
0.0022922445
6.181142E-4
-0.0019984103
-0.0011310043
0.0069769514
0.014357857
0.014415697
0.009068446
0.0033174686
4.8401434E-4
-0.0028740594
-0.009555285
-0.01490952
-0.013912116
-0.008863345
-0.003965641
8.414778E-4
0.0032614118
0.0013956842
-0.0020428647
-0.005976016
-0.009018089
-0.011049944
-0.010595003
-0.0044468534
9.712356E-4
0.002719983
0.005262191
0.0062866528
0.0050805584
0.0030997791
-0.0020233016
-0.008594475
-0.007673647
0.0033494553
0.012900063
0.015835099
0.015453697
0.011986939
0.009426443
0.006631366
-5.849626E-4
-0.00793973
-0.011165798
-0.007740767
-6.325477E-4
0.00435157
0.006147115
0.005094952
0.0024531793
-0.0030715528
-0.009044002
-0.012619603
-0.014454518
-0.007718331
0.0019261001
0.004753192
0.0055345558
0.004369402
0.004241189
0.0018852575
-0.005646287
-0.0086007845
-0.017720427
-0.023066167
-0.0040505696
0.010718922
0.011174245
0.010965034
0.008044696
0.0074500237
0.00316588
-0.006735655
-0.007488869
-0.0018945223
0.0037925018
0.008141968
0.008931093
0.006736677
0.0021476971
-8.415014E-4
-0.0033439703
-0.0073603857
-0.008509763
-0.0053248196
0.0019173523
0.007374619
0.007313624
0.0065399227
0.0044723465
5.9521076E-4
-0.00474081
-0.01218823
-0.013916535
-0.006351295
0.0028017156
0.0076622074
0.008767778
0.007451156
0.0046085403
0.0016446643
-0.004697974
-0.011964108
-0.010924933
-0.0052653975
-1.265015E-4
0.0052676955
0.0067951437
0.005758711
0.005272895
0.002590338
-0.0030652634
-0.010644315
-0.012640108
-0.004740952
0.0034583122
0.008088482
0.010272293
0.008002928
0.005492505
0.0026524982
-0.005041008
-0.011598344
-0.0120002795
-0.007821353
6.14966E-5
0.00620288
0.0071840636
0.007333781
0.005895715
0.0014965845
-0.002790962
-0.008294332
-0.01106351
-0.0058177803
0.0022546595
0.008923722
0.01129719
0.009906553
0.00829223
0.0031555332
-0.0031040781
-0.0069000814
-0.010297953
-0.0075669833
1.5654234E-4
0.0027899006
0.0021648617
0.004099896
0.0053662504
0.0013867207
-0.0036513943
-0.006680596
-0.010116358
-0.009016393
-7.126464E-4
0.0067862226
0.008177832
0.005328033
0.0016617798
-0.0016118055
-0.004242679
-0.006493251
-0.007024779
-0.004280781
-0.0016866073
4.4147833E-4
0.0037926247
0.006694984
0.0084027555
0.0066916305
0.0014885857
-0.0057744444
-0.010525786
-0.005262473
0.0033960373
0.00797799
0.008708712
0.0055327625
0.0044714003
0.0030117962
-0.0028616001
-0.0072603924
-0.010543143
-0.009354766
-0.0022216926
0.0031750228
0.005498227
0.0056182654
0.0052328673
0.0037697486
-5.576359E-4
-0.006111871
-0.010021966
-0.00577496
0.0014436957
0.0050474307
0.008086955
0.0065475334
0.0038546894
0.0013248135
-0.0047130412
-0.0077169
-0.010063587
-0.0066204425
0.0027815788
0.0051760967
0.009979316
0.007801878
-0.0071530025
-0.0047857785
0.002417355
-0.008920917
-0.020542542
-0.017414052
-5.4243655E-4
0.014222073
0.015823767
0.0133973695
0.010180405
0.0055077528
7.1745546E-4
-0.0048265667
-0.008023506
-0.0065877005
-0.0018241351
0.0026903467
0.0049559036
0.005696105
0.0049233814
0.0039192433
0.0014911316
-0.0051516476
-0.011232607
-0.009314065
-0.0019419158
0.002852698
0.0045256075
0.004617982
0.0026793804
4.155186E-4
-0.0026161678
-0.006966938
-0.010249779
-0.009158196
-0.0022148981
0.0051352386
0.0071940613
0.0057450035
0.0052284044
0.00524732
0.0022217338
-0.0030506903
-0.007301405
-0.0066186315
-7.8150115E-5
0.0063388296
0.009311742
0.00867474
0.005847325
0.0031652309
-0.002311565
-0.008838773
-0.012408174
-0.012463381
-0.0047499207
0.003680044
0.0033216665
0.002729764
0.005124303
0.004560883
0.0010297251
-0.0060612755
-0.013084468
-0.011152683
-0.0017828778
0.0064861574
0.00973313
0.008733642
0.0059659714
0.003613444
0.0013777846
-0.0030811916
-0.0072368886
-0.0061327736
-0.0014104452
0.003782438
0.0063473876
0.004814718
0.004782004
0.0051425593
-2.008693E-4
-0.007018342
-0.010464247
-0.008853241
-0.0014543207
0.0060081384
0.009299252
0.00969815
0.007649193
0.0034112213
-0.0026110795
-0.008771704
-0.011713263
-0.010559946
-0.004568733
0.0032499104
0.005115693
0.004129276
0.0052598095
0.003838168
-4.4598E-4
-0.0062716147
-0.01092523
-0.009247322
-0.0045447247
0.0019263098
0.0079784645
0.0074252477
0.0052763075
0.004215931
9.998428E-4
-0.0035380097
-0.0074088504
-0.006266037
-4.652037E-4
0.0057852594
0.007839629
0.004976121
0.0060146726
0.007033248
0.0013276767
-0.0045098998
-0.01023595
-0.010401649
-0.0013283098
0.0053695934
0.008374153
0.00955391
0.00619942
7.223351E-4
-0.0049431124
-0.009861998
-0.013449867
-0.012093777
-0.0050432784
0.001221329
0.0046488447
0.004998921
0.004409268
0.004662643
0.0019918021
-0.0029625844
-0.007947204
-0.007285266
4.4696959E-4
0.0056981742
0.009115583
0.010639425
0.0070210504
0.0050222897
0.0022598212
-0.0040122163
-0.008409353
-0.009982025
-0.0054416065
0.002921251
0.006251795
0.005837554
0.005233529
0.0017535533
-0.00326825
-0.006618073
-0.011610024
-0.013063144
-0.0038659014
0.0047172992
0.006478808
0.006898064
0.0062612644
0.0035094747
-0.0016546489
-0.006065353
-0.008878262
-0.010275084
-0.0034751808
0.00538543
0.0077852365
0.008920032
0.008376078
0.005876256
0.0023116334
-0.0046328655
-0.009978944
-0.01065169
-0.0044504995
0.005910217
0.009156314
0.008371717
0.007845237
0.004317219
8.09795E-4
-0.004607978
-0.010168217
-0.009383223
-0.0053875092
-1.2444462E-4
0.0033591355
0.0038243919
0.004233232
0.0017050003
-6.355372E-4
-0.0021177086
-0.007920766
-0.010105847
-0.003999947
0.0037592526
0.008005769
0.0085035525
0.007874315
0.0047983364
-5.120771E-4
-0.006134104
-0.010145474
-0.009245694
-0.006927653
-0.0018235887
0.006315999
0.007624897
0.0066728434
0.0074570538
0.003487849
-0.0028467688
-0.009495851
-0.011261629
-0.003307759
0.005302554
0.008944558
0.009213685
0.008093769
0.0054990104
-3.6969644E-4
-0.0055093435
-0.009021878
-0.011198244
-0.006470114
0.0012814258
0.004083335
0.0032372456
0.003123139
0.005210455
0.0048722303
-0.0023940431
-0.011174182
-0.011998921
-0.0047619347
0.0019746935
0.0056861145
0.0081741065
0.00674458
0.00413682
0.004278204
9.34358E-4
-0.006141434
-0.008680716
-0.0054561417
1.6800746E-4
0.003863441
0.0036664838
0.003737973
0.0052726287
0.00361491
-0.00405742
-0.011465332
-0.010078682
-0.003918219
0.001404417
0.00649614
0.007927303
0.0056785345
0.0035766594
5.363671E-4
-0.0038758828
-0.007821801
-0.00873915
-0.0048495657
0.0017991625
0.0070959097
0.0075744824
0.0044803764
0.0026640517
0.0034377037
0.0015520395
-0.0053921975
-0.008320582
-0.003745989
9.4362337E-4
0.004812071
0.008040876
0.007632979
0.0038587034
-0.002224879
-0.0067467187
-0.007864902
-0.00900945
-0.0084408745
-0.0026324803
0.0043032556
0.006039141
0.004656349
0.0044819806
0.0019720208
-0.0032985825
-0.007358111
-0.009259128
-0.0058864313
0.0011968509
0.006142717
0.009377409
0.009750119
0.0060891914
0.001971242
-0.0029990117
-0.0084091285
-0.010192632
-0.007270244
-1.8392318E-4
0.005790284
0.0058068456
0.0050719013
0.0053814314
0.0025661082
-0.0025330281
-0.008137795
-0.009930447
-0.004401566
0.0024943696
0.006630296
0.0088596605
0.008416833
0.0053019337
0.0015958627
-0.0014524999
-0.006335172
-0.010538306
-0.007360129
-9.387289E-4
0.0030806002
0.0048727985
0.0038624564
0.002309202
0.0010529003
-0.0030669807
-0.009533745
-0.012478571
-0.00686321
0.002086433
0.006681025
0.008414588
0.009452734
0.007575874
0.002595225
-0.002767776
-0.007074605
-0.008884495
-0.0061085126
3.068687E-4
0.005786161
0.0054027275
0.0028624225
0.0045822845
0.005454042
6.4393954E-4
-0.005806271
-0.009434273
-0.008906033
-0.0043063397
0.0029141256
0.006156842
0.0052678776
0.0063759875
0.004141519
-0.0023437478
-0.006441713
-0.008820998
-0.006670418
8.8653783E-4
0.0069692596
0.0074587967
0.0044491733
0.0049190717
0.00553003
-0.0011055799
-0.00917866
-0.01225069
-0.007102053
0.0019338884
0.005096447
0.007047021
0.009681544
0.0057416237
6.6381093E-4
-0.0027930671
-0.008068149
-0.009750703
-0.0072863307
-0.0033476984
0.0021776669
0.0043072463
0.004843923
0.006906854
0.0050066207
-1.9090997E-4
-0.0065979008
-0.011120978
-0.0070590526
8.025747E-4
0.005913076
0.008077876
0.007826939
0.0071356962
0.0045743547
-6.4951344E-4
-0.006530085
-0.010516977
-0.009025328
-0.0032421488
0.0036308542
0.004639245
-8.4265147E-4
8.590728E-4
0.0063510775
0.0025104878
-0.006016691
-0.010554015
-0.006815203
0.0011530938
0.006637075
0.009712805
0.009387349
0.006229041
0.0016637184
-0.0028949706
-0.0059873047
-0.010146802
-0.009945684
-0.0032382177
0.0013728526
0.0036347352
0.005012331
0.0060660634
0.007227821
0.0032668056
-0.004615288
-0.010033141
-0.008009076