-7.236526E-4
-0.0022614442
-0.0025698042
-0.0024093504
-0.0012655188
-0.002180244
-0.004500862
-0.0026707044
-0.0014752337
-0.002505519
-0.0021743134
-0.0012411155
6.63474E-4
0.0016010109
2.8554632E-4
-5.867136E-4
-1.1405959E-4
0.0015855413
0.0023498007
0.002025711
0.0029159605
0.0024669485
1.09464185E-4
-0.0012181096
-0.0015647742
-0.0014241257
-0.0013023058
-7.3492166E-4
0.0010837347
0.0016145046
0.0012928294
0.0022749486
0.0027556864
0.0035315375
0.0040218765
0.0015446909
-1.1148846E-4
2.560136E-4
9.96384E-4
0.0019440328
8.671245E-4
8.250321E-4
0.0032080205
0.0043399134
0.0052301898
0.0034876615
-0.0024165497
-0.0065722363
-0.00538159
-0.0018302626
-0.0024449434
-0.004888074
-0.0049888743
-0.0052409284
-0.0036095085
-0.0024411448
-0.0041362364
-0.0034981093
-8.6043385E-4
0.0017859668
9.3112525E-4
-0.0018766709
-0.0011669986
-0.0016476748
-3.6214993E-4
0.0035842939
0.0025348677
0.0024513074
0.004365465
0.0052732956
0.0067727035
0.005982216
0.005606679
0.004761594
0.0022580342
0.0015279652
-8.947986E-4
-0.0024474536
-0.0021900411
-0.0024833113
-0.001328452
-0.0015542568
1.3174968E-4
0.0013099476
-0.002846994
-0.0021080945
3.8771896E-4
-5.338538E-4
6.187965E-4
2.4284516E-4
-0.0023172293
-0.0038485331
-0.0031811036
-0.0024310527
-0.0042747213
-0.00295981
-7.9343125E-4
-5.472347E-4
0.0017407543
0.0011847594
-7.9663325E-5
5.0686335E-4
-0.0013896405
-9.544642E-4
0.0018401456
0.0026757123
0.0014189899
-0.0012214265
-0.0020629345
-0.0029431598
-0.0033767074
-3.4749112E-4
0.0019713524
0.0039860336
0.0061308634
0.0052856393
0.0031947899
0.0011707774
4.7652647E-4
0.0013331583
0.0011988485
-2.2151177E-4
-0.001395345
-8.3789165E-4
0.0011675165
0.0020931999
-0.0017203413
-0.006046548
-0.0032412533
3.3898186E-4
3.4969285E-4
-3.5580236E-4
-0.0025684566
-0.001697737
9.55749E-4
0.001510343
0.0017361791
-0.0026210698
-0.0045252102
6.665768E-4
8.8188646E-4
-0.002386835
-0.003519103
-0.001411578
0.0028167618
0.0013426162
-0.0014840278
-3.3633836E-4
0.0023649768
0.005089195
0.0035914492
0.003716972
0.0041481713
-0.0037352308
-0.007414165
-0.003788124
-0.0017988614
-4.311144E-4
-4.877114E-4
2.1613893E-4
0.001386833
-8.534249E-4
-0.0016253049
-3.345788E-4
1.3981372E-4
0.0012697836
0.0029273285
0.0025420494
5.732539E-4
0.0012947688
0.0024711294
0.0017080897
0.0018137901
1.21549274E-4
-0.0028577812
-0.0028573035
-8.643484E-4
0.0017315507
0.0033083912
0.0035986581
0.0028135756
-5.6506295E-5
-0.0021154566
-0.0012358031
3.8417467E-4
6.502152E-5
-0.00231424
-0.00353842
-0.0018979505
-0.0010008585
-0.0032629243
-0.0036476108
-0.0020361282
-0.0025431162
-9.287247E-4
6.2153605E-4
-0.0014565149
-8.154693E-5
0.0026624193
0.0013306302
-8.054407E-4
-5.164861E-4
0.0020276967
0.0025079607
0.0014036387
0.002031586
0.0019369515
0.0014823437
0.0014220033
7.363872E-4
7.073943E-4
6.780968E-4
3.330127E-4
9.860136E-4
0.002788612
0.0036576823
0.0022003353
0.0010464492
5.397119E-4
-7.520234E-4
-0.002739413
-0.004997831
-0.005185917
-0.0034991226
-0.0010152707
0.0025124336
0.0038514317
0.0019430001
-1.1753466E-4
-8.2083704E-4
-0.001646221
-0.002349667
-6.529264E-4
1.0048414E-4
4.189775E-4
0.0039130487
0.0040039406
0.0011230492
0.0012644972
-2.0296624E-4
-0.0031303908
-0.0027253556
-0.0018645881
-0.0027825541
-0.0022005087
-7.1126915E-4
-0.0024568308
-0.0027985703
9.2925935E-4
0.0026088369
0.002213358
-2.0210719E-4
-0.004828915
-0.005642297
-0.0022763417
0.0017614509
0.0038329915
0.0032758638
0.004047537
0.005697455
0.0042834054
9.568009E-4
2.0736243E-4
0.0010064493
-0.0015419516
-0.0031580476
-0.0014017031
-0.0012067556
-7.8277616E-4
8.92885E-6
-4.429093E-4
3.9829756E-5
-2.0916434E-4
3.0845127E-4
0.0020570091
7.9151556E-5
-0.0028994884
-0.00306135
-0.0012351874
5.461043E-4
-2.6722765E-4
-9.651193E-5
0.0015434935
-6.178568E-4
-9.6549565E-4
0.0035777348
0.0044612377
0.003118183
0.0036741854
0.0014103487
-0.0016414805
-0.001281981
-2.1175145E-4
-0.0015352764
-0.006289438
-0.009020431
-0.005550596
-0.0012381438
4.0674538E-4
3.878054E-4
0.0010663092
0.0019450064
1.216167E-4
-7.845227E-4
-0.0010689836
-0.0030506293
-0.0010082336
0.0020666784
0.0021175686
0.003612734
0.0038963344
0.0019926152
0.0017138202
-7.269014E-5
-0.0038644087
-0.004143801
-0.0016455279
-1.6412987E-4
0.003549926
0.008191782
0.008118697
0.0071533704
0.0041219345
-0.0046109976
-0.011169686
-0.0102789765
-0.0037386052
0.0016534958
0.0034634257
0.006218839
0.0051643313
0.0011776203
8.626095E-4
-8.1448915E-4
-0.0020829784
8.777193E-4
0.0019510714
1.0630197E-4
-0.001246673
-0.0020396144
-0.0042950087
-0.0051748822
-0.00207406
-5.4270175E-5
-1.7723786E-4
-9.1376645E-4
-0.0018199623
-9.096567E-4
-1.7615517E-4
1.16273375E-4
3.8868882E-4
-4.5127427E-4
-6.518983E-4
-0.0012714012
-0.0012343337
4.0659643E-4
4.296124E-4
5.4199627E-4
0.0010719188
8.0994575E-4
5.7199097E-4
8.5617654E-4
0.0037932068
0.005533369
0.0036320505
0.0026119784
0.0011946656
-0.0021405278
-0.0047469256
-0.0036607662
9.430435E-4
0.0038180067
0.0031133865
8.9820445E-4
0.0010343635
0.0032682803
0.0014996822
-0.0018858565
-0.0029914733
-0.0030572647
-0.0021878425
-0.0024339762
-0.0023900848
-1.9001673E-4
0.0016307341
0.0028938728
0.0031414249
0.0016554395
-0.0013668917
-0.00433196
-0.004527111
-0.0035308904
-0.0027344655
-0.001677132
4.32405E-4
0.004007137
0.005430236
0.003286857
-4.3150873E-4
-0.0031591724
-0.0024618825
-3.9396647E-4
8.5927284E-4
9.165418E-4
3.334309E-4
4.8378095E-4
3.6252505E-4
-6.072069E-4
-0.0019340224
-0.0016415181
8.97247E-4
0.002211865
0.0025933648
0.002793089
0.0021377176
0.0016168803
4.772595E-5
-0.002002375
-0.0024194196
2.543698E-4
0.0029419833
-1.5111134E-4
-0.0032162427
-0.0019659465
-4.4642488E-4
0.0014597533
0.0015878024
0.0010694774
0.0026659083
0.002205588
0.0012301496
0.0011120767
-5.0169684E-4
-0.0022863843
-0.0037064643
-0.0030542256
-3.7530359E-4
5.860118E-4
6.281683E-5
0.0015552435
0.003561812
3.7155367E-4
-0.003551508
-0.0027400688
-0.0018385843
-6.434E-4
2.0657961E-4
-0.0019431228
-0.0027584396
-0.0031709063
-0.0047214734
-0.0045041763
-0.0031848603
-0.001572696
-4.1991816E-4
7.892802E-4
0.0021284819
0.0012337373
8.656612E-4
0.0029039055
0.004672328
0.0049743233
0.0033489622
0.0022149265
0.0025871117
0.001824027
0.002385141
0.0048024063
0.0040442455
9.0629456E-4
-0.0013690726
-0.0019664755
-0.0014228491
-0.001228314
-2.928213E-4
-0.0011254207
-0.0047304924
-0.0034750886
8.223516E-5
-8.412681E-4
-0.0021927597
-0.0019412803
-9.4501785E-4
-6.866221E-4
-0.0016664508
4.5010386E-4
0.002450542
-9.935807E-4
-0.0036766776
-7.7335804E-4
0.0014460075
-1.1863199E-4
0.0010254463
0.002751217
-4.2537774E-4
-0.0014180078
0.0015751352
0.0019601102
-1.4331932E-4
-0.001072211
-0.001053176
-0.0022030047
-0.002037993
-0.0010090622
-0.0021158184
-0.0018912127
-0.0010665403
-7.6239463E-4
8.86203E-4
0.0017973197
0.0038923176
0.0050535467
0.0038802277
0.005406877
0.003537743
-5.817733E-4
-8.8878936E-4
-0.0041159983
-0.005449994
-9.977202E-4
9.598438E-4
9.5999835E-4
-5.970731E-4
-0.0019560158
-1.2710656E-4
-0.0014488371
-0.0038224063
-0.0025545002
-0.0014814342
8.301652E-4
0.004342227
0.0051030284
0.0034549907
6.289656E-4
1.2127269E-4
0.0013610207
2.469402E-4
5.914645E-4
0.0021343871
0.0010897734
9.489187E-4
6.508674E-4
-0.0012269991
-0.0011937205
-2.7710467E-4
2.8204755E-4
-5.61211E-4
-0.0022653106
-0.0027663116
-0.0050433283
-0.006302665
-0.0038721468
-0.0031435285
-0.0023773897
-1.896957E-4
5.5420643E-4
0.0018308022
0.0035551095
0.00373223
9.821622E-4
-0.0020696097
-2.9049147E-4
0.0019040521
0.0021573661
0.0035476426
0.0029629879
0.0022790846
0.003152973
6.836852E-4
-4.3505654E-4
0.001749714
-8.014343E-4
-0.006284582
-0.008085324
-0.00605492
-0.0034375617
-0.002017219
-1.5213435E-4
4.4223163E-4
2.4670764E-4
0.002250992
0.0016543702
8.6615095E-5
0.0012566446
0.0011888923
0.0031480643
0.005834295
0.0043109832
0.0035588066
0.0027362052
2.2508808E-4
-5.5016315E-4
4.395337E-4
0.0024049678
0.0026612286
0.0016606546
-2.3104289E-5
-0.0021164261
-3.4283305E-5
1.4244783E-5
-0.0034919265
-0.0015870957
2.846025E-4
2.460804E-4
0.0033256016
0.004948922
0.0036194467
2.5241188E-4
-0.003425551
-0.0029943793
-0.0011459523
-0.0014064686
-0.0022122683
-0.0025384526
-0.0024207502
-0.0018883133
-1.5635294E-4
0.002781522
0.002899745
-5.8863853E-4
-0.0022424164
-0.0024543134
-0.0037872149
-0.004911823
-0.006927528
-0.007998295
-0.0073464145
-0.006234651
-1.9115077E-4
0.005520874
0.003953871
0.0022041053
0.0030664112
0.0035414023
0.00344938
0.0025943366
0.0010602125
-5.118038E-4
-0.0011320411
-7.878579E-4
0.001084145
0.0029055115
0.0027910285
0.0039417855
0.0025224045
-0.0019352307
1.8649538E-4
0.0034251793
0.00265137
0.0045838444
0.007543431
0.011134384
0.014442201
0.008132438
-0.003525797
-0.008120434
-0.0065411283
-0.005041578
-0.0043381434
-3.6215375E-4
0.005207237
0.0029872635
-0.002555469
-0.0024968989
-0.0045738486
-0.009399508
-0.011432149
-0.013863092
-0.011345658
-0.0038971757
-0.0024403918
-0.0035349517
-0.0017555752
-8.205585E-4
-0.0019178555
-0.004140803
-0.005988395
-0.0045320084
8.6497894E-4
0.0058983914
0.006703054
0.0056154057
0.0054868055
0.0050738226
0.004619412
0.005738781
0.004231767
4.254581E-4
0.0020184584
0.0057422905
0.0070149577
0.0070787347
0.0028974372
-0.0012239943
-0.001412373
-0.0027624462
-0.0028843882
-1.7377712E-4
0.0020766188
0.004322954
0.0061798845
0.0073428866
0.0057053193
-3.5391416E-4
-0.00631797
-0.008502567
-0.0053999135
-0.0010519844
-0.001994815
-0.0040688873
-0.003014361
-0.002547229
-0.0041506425
-0.0060799355
-0.0064572217
-0.0054526087
-0.0038261774
-0.0012798415
-1.8287769E-4
-2.5929023E-5
0.002412056
0.004408916
0.0039238245
0.0035244748
0.0036947723
0.0026303763
0.0013099118
0.002575185
0.003864801
0.0022957446
7.875895E-4
-6.202824E-5
-3.8977407E-4
0.0010761681
9.1937126E-4
-0.0019351582
-0.003914242
-0.00471775
-0.005843726
-0.007485834
-0.00814991
-0.0064837034
-0.0038476111
-0.0025722133
-0.0038677184
-0.0040695746
1.7063996E-4
0.0038989324
0.005676514
0.008025057
0.007883147
0.0066889785
0.008038589
0.009399673
0.00826975
0.0052854377
0.00572611
0.010337012
0.011862947
0.009989823
0.00828272
0.005064381
-0.0015587403
-0.008224923
-0.011408332
-0.013468201
-0.01417468
-0.012493895
-0.010259722
-0.0071301176
-0.0051212935
-0.002726943
-0.0010798357
-0.0049978006
-0.0054527363
-0.0026197755
-0.0023315123
9.104939E-4
6.707953E-4
-0.002571845
-5.615336E-4
0.0021272898
0.005219402
0.00551288
0.0032924006
0.0046432503
0.006864484
0.0121135395
0.0109855905
-6.783172E-4
-0.0033429235
-5.565272E-4
5.561458E-4
0.0031001938
-0.001934466
-0.008278686
-0.0078084376
-0.004230938
0.0028829258
0.006954027
0.009711292
0.017098438
0.014912695
-0.0011619881
-0.014026456
-0.014138761
-0.007991418
-0.005876935
-0.008132507
-0.0059676096
0.0014565304
0.007205835
0.012430147
0.017773887
0.017673464
0.0074788504
-0.015477127
-0.030450905
-0.017792087
-0.007287745
-0.016144434
-0.014126816
0.0020516722
0.0105289575
0.01036757
0.0049782745
-5.8601034E-4
7.605718E-5
0.0011624569
0.0033533738
0.008133384
0.00892418
0.009609988
0.009642462
0.002205918
-0.012381024
-0.025916459
-0.017873097
0.0057043624
0.015688572
0.014066458
0.011913239
0.011842686
0.012660701
0.005189939
-0.0026752122
-0.0029965048
-0.0034469794
-0.0035557856
-0.0028373813
-0.0020054318
-0.0015457401
-0.0049617225
-0.007674463
-0.0055992943
3.7413818E-4
0.0044962955
0.0017717592
-0.0033236227
-0.010318877
-0.012401125
-0.002466772
0.00324526
-0.0014437268
-0.0055924375
-0.0063012284
-0.003654948
-8.5790304E-4
-6.876469E-4
-0.0012928006
-0.0025433912
-0.002678727
-2.0310066E-4
0.003146496
0.005980391
0.007461873
0.0066149156
0.0039049357
0.0028550925
0.0056743072
0.008988237
0.0070270225
5.5287324E-4
-0.0039644935
-0.007522542
-0.011843819
-0.009949634
-0.0030828125
-0.0025278812
-0.005939967
-0.002657296
8.2525E-4
-0.0022904268
-0.003924615
-0.0048168125
-0.008324894
-0.009124436
-0.009284509
-0.009998881
-0.0079394365
-0.010381469
-0.017831033
-0.015867183
-0.008391841
-0.007426967
-0.0023005374
0.00788439
0.013455282
0.01998603
0.023502916
0.021078687
0.018060049
0.010303306
0.004309191
0.0019028602
-0.003925296
-0.006479683
-0.0057319896
-0.002870056
0.003657241
0.010453293
0.021588052
0.035564724
0.049392503
0.0627579
0.06935759
0.07211848
0.07261371
0.06425108
0.048593894
0.03197953
0.011200885
-0.017477201
-0.04331316
-0.06614124
-0.087104514
-0.09472977
-0.0984996
-0.09905486
-0.08458638
-0.06629497
-0.046998262
-0.024003835
0.0027889283
0.034377135
0.053724825
0.054652635
0.04232644
0.020542601
3.7913927E-4
-0.027753191
-0.068062514
-0.096255764
-0.11268289
-0.13248047
-0.1342158
-0.095642515
-0.04351653
-8.710307E-4
0.041843757
0.08036947
0.111867405
0.14383072
0.16358598
0.15098391
0.10313803
0.050250243
0.030436069
0.052448086
0.09014472
0.10573542
0.1085678
0.12019823
0.13162524
0.15084693
0.15602995
0.13019197
0.1209894
0.08449182
-0.035531964
-0.14709376
-0.20539655
-0.24194543
-0.24495162
-0.24993941
-0.28801823
-0.29273993
-0.24369778
-0.20728399
-0.2019355
-0.18399487
-0.14463349
-0.10258999
-0.04537513
0.029925317
0.09709614
0.14211352
0.17953956
0.23511396
0.27556166
0.25938556
0.22561952
0.17457318
0.09348599
0.038259134
-0.0066310912
-0.05370163
-0.054237954
-0.046032965
-0.041651122
0.005635426
0.07217143
0.13489312
0.18253781
0.18980563
0.17379533
0.15120292
0.094647564
-0.009166845
-0.10869427
-0.16956888
-0.21946858
-0.23864365
-0.19176883
-0.12311809
-0.080695264
-0.06083168
-0.051593162
-0.06252473
-0.09203517
-0.11202775
-0.11597356
-0.1175534
-0.12239965
-0.12378691
-0.10790442
-0.08020535
-0.04014161
0.020759827
0.065750316
0.07764013
0.09243336
0.11461628
0.13564847
0.1592187
0.17717652
0.1980461
0.2225636
0.2427
0.2577441
0.25045845
0.24935047
0.23708987
0.10056538
-0.11085894
-0.257872
-0.32374883
-0.30665958
-0.23665838
-0.17781211
-0.12815991
-0.08958883
-0.06367602
-0.03561659
-0.01759686
-0.009140495
-0.0123409685
-0.031172821
-0.046254646
-0.05957816
-0.069981314
-0.060547896
-0.044184785
-0.03036979
-0.012863048
0.0035442894
0.028379794
0.059794556
0.072537355
0.08009983
0.093832806
0.09512569
0.093752675
0.09692916
0.09013289
0.0703274
0.043522052
0.022525314
0.011375911
0.0050680665
0.002577131
-6.8158097E-6
-0.0012806129
0.001673642
0.008160705
0.016139984
0.0185956
0.017443959
0.019187616
0.01805454
0.006943622
-0.003622388
-0.0074261953
-0.0212512
-0.039600838
-0.04401042
-0.042304587
-0.041917074
-0.04515444
-0.047607895
-0.04384431
-0.041751705
-0.035909627
-0.027378634
-0.027883582
-0.027720165
-0.02266041
-0.01701993
-0.008726924
8.914501E-4
0.0076500205
0.00875612
0.0082963975
0.007651163
0.0059259413
0.0065748203
0.0065329364
0.0052010124
0.0033371788
0.0013966281
0.0064360453
0.016050858
0.028349623
0.04463127
0.055242356
0.056628212
0.05368729
0.04880451
0.036800105
0.013804851
-0.008986676
-0.023371605
-0.029319244
-0.026154103
-0.016955575
-0.0055157472
0.004168243
0.009876991
0.011242797
0.011779172
0.01454335
0.011315991
0.0034983705
-0.0057715494
-0.022825452
-0.037182268
-0.042738974
-0.0425748
-0.034508925
-0.025007667
-0.014153627
-0.006559262
-0.013282782
-0.021471228
-0.019595437
-0.013022819
-0.0102799935
-0.010991214
-0.008019226
-0.00598452
-0.0033070603
0.0021359096
0.0032619864
0.0066722925
0.011044179
0.014417984
0.024450779
0.030121502
0.02708231
0.024937777
0.02735872
0.030238416
0.02094235
0.0033178416
-0.008656612
-0.011950305
-0.0065046404
-4.036786E-4
8.249776E-4
0.0016788464
0.002344013
-5.44739E-4
-0.004953495
-0.0040860567
-0.0034017272
-0.00844417
-0.010800116
-0.009190525
-0.006699632
-0.0082752155
-0.014353704
-0.013966875
-0.008244215
-4.5924733E-4
0.007331409
0.007865686
0.0032647606
-0.0072098137
-0.01693713
-0.017473875
-0.016972585
-0.010865444
-2.1233718E-4
0.0028953052
0.0017407441
-0.0026237858
-0.0036116615
0.0020548685
0.0046594488
0.007106892
0.008505899
0.0075772963
0.011843624
0.019721968
0.026477944
0.023525964
0.013632496
0.010084958
0.0065532466
-0.0018317687
-0.010238267
-0.017532557
-0.017539654
-0.008481546
-1.3657805E-4
-2.4133423E-4
-0.0040710317
-0.0060059526
-0.007286939
-0.0057675755
-0.0036674533
-0.00345443
-0.0011812017
5.9156906E-4
9.47157E-4
7.476426E-4
7.6654804E-4
0.004623023
0.006739083
0.005856384
0.004446268
-0.0013751953
-0.0021311464
0.005176496
0.0049509252
-3.9403362E-4
0.0020908709
0.008517463
0.01129873
0.011398795
0.010355732
0.0076830243
0.005271561
0.0046028825
0.0018701595
-0.005844351
-0.013382846
-0.014202468
-0.008070672
1.3937643E-4
0.005143773
0.0060243374
0.0041314955
6.698166E-4
-0.0021952733
-0.0033071882
-0.004311414
-0.007208891
-0.008661901
-0.006733241
-0.0064977165
-0.006669098
-0.003523386
-0.0028021575
-0.0075821425
-0.009279526
-0.0024724563
0.0033843264
0.0031265528
0.0032690098
0.0042060236
0.004020406
0.0038245781
0.0033628587
0.0018339329
-7.4523E-4
-8.149185E-5
0.0026559208
0.002917089
0.004593384
0.0067847804
0.0066858376
0.006137339
0.004083815
0.0026612577
0.001975078
9.1538153E-4
0.003416979
0.005310211
0.003916454
0.0060045836
0.0071289367
-0.0019655772
-0.011675514
-0.011324951
-0.009405558
-0.008972943
-0.0056706574
-0.0036931918
-0.001956008
-9.061585E-4
-0.0041189753
-0.0038157017
-8.1100455E-4
-0.0014438853
-0.0011941541
-0.0012437084
-0.0036684496
-0.0036660368
-0.0030021775
-0.001932946
0.0038372125
0.008310406
0.006546143
0.005867629
0.007036537
0.0037589034
8.9862687E-4
8.2937215E-4
-0.0029310107
-0.002833543
0.0029216358
5.8262194E-5
-0.002444852
0.002582709
0.0016441155
0.0011388158
0.002680244
-0.004297689
-0.008799994
-0.004937473
-1.6756932E-4
-4.999024E-5
-0.0045904983
-0.0034119978
0.0029377022
0.0057584136
0.005107725
0.0023124118
4.0324414E-4
2.2231581E-4
3.552828E-4
-0.0010674252
-0.0047306204
-0.004510417
-0.0011477753
0.002137149
0.005060071
0.006140981
0.009284467
0.0069614537
-0.001807421
-9.845735E-4
0.0012314336
-0.0026315823
-0.0032036318
-0.0022914207
-0.0016862234
-0.0039148508
-0.007574649
-0.004817454
-0.0023940844
-0.0029136818
-6.039466E-4
0.003257105
0.007159866
0.005092765
-0.0023530135
-0.0034304555
3.83881E-4
7.9498906E-4
-3.2759568E-4
0.0018966224
0.0047257077
0.0022232933
-0.0038535495
-0.008192975
-0.006489887
0.0013424741
0.0077470983
0.008566588
0.0049958644
-9.427074E-4
-0.0065867472
-0.010592624
-0.008742608
-0.0032696312
-0.002017914
-4.6126771E-4
0.0036299222
0.0051001715
0.0040738997
2.9600234E-4
-0.0022425938
-5.04785E-4
7.784909E-4
0.0027630457
0.0049312385
0.0039695757
0.0036913732
0.004633168
0.003830707
0.0010001808
-9.831041E-4
5.2861862E-5
-6.4102333E-4
-0.0031841611
-0.0025180469
-0.0010093976
-1.7318441E-4
5.5744033E-4
-9.610473E-4
-0.0019111778
-8.2093163E-4
-0.0017262899
-0.0024063045
-8.073924E-4
1.6789376E-4
0.0016893733
9.7384054E-4
-0.0029571697
-0.0023442435
-0.0011052759
-0.0028616642
-7.966092E-4
7.8622415E-4
-0.0010751988
-2.719564E-4
0.0013378562
6.7398156E-5
-0.0014952886
-2.0853437E-4
4.5816487E-4
-0.0026645937
-0.003623391
-7.972636E-4
3.9771164E-4
-5.593459E-4
-1.0398358E-4
0.0016984248
8.998862E-4
4.875911E-5
0.001775907
0.0016964795
0.0021481998
0.0051926025
0.0053100884
0.0033768131
0.004111563
0.005386559
0.0025395958
-2.328447E-4
0.0013415918
5.195667E-4
-0.0018079374
8.061641E-4
0.0030712308
0.0025930165
0.0028158026
0.0017074064
-0.0016100515
-0.004062985
-0.004259788
-0.0035824517
-0.002900875
-0.0018830176
-0.0014916614
-9.0539025E-4
8.505427E-4
0.0013881492
6.4277946E-4
-0.0011029771
-0.0052405284
-0.007785663
-0.005692004
-0.002829589
-8.6921494E-4
1.2084907E-4
-0.0019886356
-0.0047198394
-0.0040552435
-0.0019077536
-0.0010832616
-9.5328025E-4
-0.0015603091
-0.0034258822
-0.0044995365
-0.0034109834
-9.269238E-4
0.0016957226
0.0032517167
0.004250029
0.0056862724
0.0076351855
0.007375921
0.0023377156
-1.8487572E-4
0.0049154856
0.010433574
0.013074601
0.013773613
0.012880556
0.012648527
0.010809923
0.007297911
0.00533803
0.0038344823
0.0044544656
0.005375833
-0.0018590416
-0.0145917
-0.019914258
-0.01525927
-0.010885552
-0.009699429
-0.007932414
-0.009375964
-0.014359705
-0.01572317
-0.011815829
-0.008106536
-0.008452037
-0.009068529
-0.0078069153
-0.006094653
-0.0023823325
-1.1418182E-4
-0.001706252
-9.6177025E-4
0.0030435813
0.0058754957
0.0076424433
0.010669306
0.013596156
0.014410248
0.015180015
0.015407542
0.013897246
0.013355614
0.012678144
0.010332717
0.007550563
0.005201531
0.0040669874
0.0018152307
-5.3395046E-4
-8.2469295E-4
-0.003172664
-0.005810703
-0.006590679
-0.0077538234
-0.0053234184
-0.0018012563
-0.0031029128
-0.00411982
-0.0031927251
-0.0043927827
-0.007189929
-0.009242036
-0.008873284
-0.0069178296
-0.007665809
-0.011348806
-0.012643873
-0.011563661
-0.01013032
-0.0055651334
7.3462934E-4
0.005355166
0.006846995
0.0057200547
0.0059489035
0.0051924377
0.0023154188
0.0023896208
0.0034509473
0.0045182183
0.0067399316
0.007954417
0.008902795
0.00890566
0.007423392
0.0058748336
0.0048982655
0.0057470235
0.006937603
0.008201488
0.008041595
0.0027509597
-0.001711093
-3.1163017E-4
0.0031963943
0.0038704544
-9.3304744E-4
-0.006836194
-0.011099873
-0.015792053
-0.020039363
-0.020778242
-0.013485273
-0.003492962
3.0166304E-4
0.0018266857
0.0019668418
7.45605E-4
0.003345706
0.0047751144
0.0021918667
3.3119894E-4
6.8600406E-5
8.6120056E-4
2.0239981E-4
-2.699516E-4
0.0027939195
0.00493232
0.0056582135
0.006295328
0.0049298815
0.0037297304
0.0020557137
-7.662205E-5
7.1257725E-4
0.0011736801
-1.827817E-4
1.8521743E-5
0.0015966516
0.0030179366
0.0020970136
-0.002632673
-0.006384215
-0.0032845153
0.002259546
0.0019559541
-0.003256067
-0.0069449376
-0.0024139571
0.004857042
0.0010094029
-0.0036252004
0.0014588301
0.002203212
-3.175114E-4
0.0013076392
7.3713576E-4
-9.286483E-5
-0.0015340097
-0.0047038137
-0.002137686
2.696667E-4
-0.0021510196
-0.0012641704
0.0020054912
0.0036681464
0.0037460125
0.0012133274
4.3350502E-4
0.0046407827
0.0072997143
0.0047069215
0.0017148511
-6.5823976E-4
-0.0057965927
-0.009005528
-0.0058092964
-0.0029513214
-0.0035901223
-0.0046065026
-0.0048933118
-0.0018221217
8.334522E-4
-0.0013479536
-0.0013560897
7.906924E-4
6.05303E-4
0.0011458736
0.0013871667
7.071319E-4
0.0011998689
0.0017549028
0.002791518
0.0034877693
0.0028937152
0.0036210811
0.005821706
0.0055806735
0.0027316525
0.0016043739
-3.9598916E-4
-0.004108135
-0.0034461434
-0.0011045011
1.8091429E-4
0.0016160025
5.869246E-4
-0.0020908965
-0.0043954533
-0.0038148784
-0.0012446652
-0.0010726283
0.00207189
0.0064165792
0.0032287375
-9.79307E-4
-0.0014632685
-4.2897722E-4
0.0017780289
5.9391925E-4
-0.003217201
-0.0026626925
0.0017372837
0.0032131928
-9.241967E-5
-0.0014220538
-2.155575E-4
-0.0039708186
-0.008480767
-0.0058212685
-0.0026593944
-0.004947132
-0.0063754683
-0.0037769806
-0.0012052305
-1.2699998E-4
3.0186278E-4
0.0012126949
0.004051395
0.006374334
0.0059828656
0.004919786
0.003850563
0.005414749
0.008418125
0.0046008243
-1.5355166E-4
-5.835004E-5
-0.0025745814
-0.0025437584
0.0017996854
0.0014076342
0.0031961373
0.008409013
0.0055827494
-8.6769796E-5
-9.37298E-4
-0.004245449
-0.009992161
-0.009830048
-0.006591933
-0.0033000393
-0.001178082
-0.0033025425
-0.0020572683
0.002122555
0.0017249405
0.0016277597
0.001551429
2.3374865E-4
2.848226E-4
-3.8553648E-5
7.742187E-4
9.736448E-5
-0.0015764872
7.192285E-4
0.0021330668
0.0020660902
4.5597315E-4
-0.0031994763
-0.0022820444
-6.382112E-5
-1.9340181E-4
6.8713696E-4
0.0024464165
0.0040277415
0.0032654156
0.0033125265
0.0047159865
9.1642473E-4
-0.002268545
-8.801376E-5
0.0021820364
0.0025856944
-6.0103205E-4
-0.0044470285
-0.003922832
-7.3106436E-4
0.002346576
0.0021768345
4.5681234E-5
-2.1898265E-4
-0.0018317915
-0.0046972376
-0.0038184947
-0.0018689904
-0.0025414247
-0.0024168042
-8.142622E-4
-4.5752988E-4
4.574225E-4
0.0024542536
0.004456611
0.005830258
0.0031807083
-9.926705E-5
5.7162147E-4
1.7773855E-4
-0.0013902189
1.6857799E-4
0.0028627487
0.0042379485
0.0049849916
0.0062559233
0.0046048868
-8.124316E-4
-0.0033056359
-0.004747243
-0.00873957
-0.009291269
-0.0071505345
-0.0064123995
-0.004639557
-0.0020644215
3.73276E-4
0.0033818742
0.0049097897
0.0054849903
0.0052100867
9.009768E-4
-0.0017416996
9.764484E-4
-1.7368035E-4
-0.0036577212
-7.970738E-4
0.0028345513
0.0017752878
2.2400427E-4
0.0019888568
0.0047582304
0.0044663874
0.003128018
0.0020850548
-6.8306644E-4
-0.004670228
-0.0077357967
-0.006579668
-0.0040538935
-0.00438821
-0.0032404973
-8.184263E-4
0.0012952343
0.0049404856
0.004537011
-2.7975868E-6
-0.0014910625
-3.1616443E-4
0.0011515906
0.0020138277
0.0021606304
0.0036721977
0.006223548
0.007785129
0.007729814
0.0062213466
0.0027717785
-0.0027627628
-0.006662255
-0.006198875
-0.004677081
-0.0032835891
-4.3349873E-4
4.773395E-4
1.0959999E-4
0.0023393296
9.5374143E-4
-0.004656916
-0.005653709
-0.0041288314
-0.004303891
-0.0038181057
-0.0024859712
-0.0010421661
-2.2906625E-4
-2.2134145E-5
7.77648E-4
0.0012289798
1.6078958E-4
-3.9595258E-4
0.0014792691
9.986147E-4
-9.525027E-4
0.0025319557
0.0038511974
-4.6943E-5
-0.0013198328
-0.0023151473
-0.0016183482
0.0017805559
0.0029056286
0.0068326285
0.009870456
0.004374851
-0.0011796127
-0.0031314674
-0.0033156201
-2.7074813E-4
6.448708E-4
-0.0016479857
9.5390517E-4
0.0049236147
0.0029616454
0.0019155216
0.004929271
0.006213136
0.0032966707
-0.0037667404
-0.0077452827
-0.0037904528
-0.001180007
-0.005123528
-0.008179581
-0.0058996486
-0.0053210305
-0.007949534
-0.006553005
-0.0037291488
-0.0020404554
3.005987E-4
0.0015421255
0.00275794
8.271944E-4
-0.003747367
-0.002124422
0.0016182488
0.0017450299
0.0016743316
0.0015276731
0.0014540672
0.0032725849
0.00580195
0.008723906
0.012170706
0.010730983
0.0039278343
0.0021187577
0.0067858677
0.010658023
0.0073732724
-0.004412204
-0.00924952
-0.0019676597
-3.0171318E-4
-0.006551118
-0.011517602
-0.012155017
-0.007841786
-0.0046225158
-0.0024562676
0.0012604098
3.5517514E-4
-0.0010196586
-9.408959E-5
-0.003440741
-0.006292404
-0.0068724235
-0.0066937576
-9.786689E-4
0.0038754246
0.004407694
0.0066789165
0.008801245
0.0079192305
0.0026049817
-0.002037164
0.0012975237
0.003960765
0.0024498515
0.0016119037
-0.0012928086
-0.0014834852
0.0024754377
0.0023826058