-0.050953332
-0.0478354
-0.0471785
-0.041527454
-0.03609448
-0.04106677
-0.03711165
-0.015570062
0.012372338
0.040982723
0.06387447
0.08518888
0.10474424
0.11173157
0.112543136
0.12374368
0.1459823
0.15323943
0.1376668
0.11136019
0.06656844
0.02265219
-0.010056257
-0.06066458
-0.10423658
-0.12409409
-0.15187158
-0.17214824
-0.16650519
-0.14495847
-0.10881789
-0.07641642
-0.062064726
-0.053326163
-0.043448023
-0.03341424
-0.024521388
-0.016776534
-9.250968E-4
0.025979688
0.051941745
0.0741656
0.09158726
0.09130101
0.07869943
0.069164015
0.06531315
0.071093805
0.07875589
0.07093892
0.050699025
0.027374739
0.0044122976
-0.011469683
-0.01967637
-0.026798591
-0.03394856
-0.03825273
-0.03783427
-0.03191672
-0.023134427
-0.015714925
-0.010209615
-0.004408112
4.784573E-4
9.0868946E-4
-0.0013952012
-0.0022697237
-7.2817656E-4
6.088616E-4
-0.001321719
-0.005226343
-0.010928884
-0.018295098
-0.024112048
-0.029888231
-0.034927484
-0.036921605
-0.03704897
-0.029968545
-0.0145416055
0.0019045256
0.015510167
0.024784256
0.030720782
0.031941384
0.031941146
0.038278516
0.040355563
0.03466046
0.031022657
0.026022846
0.024985848
0.03038877
0.028902244
0.025110709
0.016345147
-0.005119093
-0.016456127
-0.015531984
-0.026436366
-0.0422024
-0.045941614
-0.04299855
-0.038771603
-0.029934317
-0.022120226
-0.02145675
-0.02008983
-0.013776829
-0.0061250464
3.154015E-4
0.0029541112
0.0048204656
0.008618539
0.011139476
0.01308268
0.01628726
0.017599113
0.016026886
0.015882608
0.017038805
0.017422076
0.018388402
0.017325806
0.014034296
0.009593772
0.003215863
6.270707E-4
4.071084E-4
-0.0019428937
-0.0029250777
-0.0041640955
-0.006924878
-0.008840975
-0.008947007
-0.007982854
-0.007263684
-0.0038995636
-0.0018114065
-0.0021026803
0.0014046108
0.0017836648
-2.0875061E-4
0.0022486525
0.0037960417
0.0022350135
-0.0044410187
-0.009073421
-0.0034946755
4.8325578E-4
9.1752235E-4
0.0026565194
0.0014791706
-0.0010321836
-0.003347663
-0.005126468
-0.005864151
-0.0065569193
-0.005360782
-0.0027270403
-1.6256547E-4
8.920348E-4
5.146031E-4
8.847856E-4
6.1795814E-4
-0.0010633705
-0.0036136643
-0.00413988
-0.0010145861
0.001199601
0.002421087
0.0028821216
0.0013486405
6.14644E-4
0.0010951879
0.0025906449
0.0023761755
9.247893E-4
0.0037224446
0.005696114
0.0042455667
0.00449528
0.0049680215
0.003957825
0.0019996788
-4.140131E-4
-0.0026720732
-0.0043082032
-0.0024966015
0.0021302884
0.0046537165
0.004691157
0.0047044386
0.003935833
0.0030552659
0.0023108663
3.6787972E-4
0.0012911276
0.0016737083
-0.0015016715
-0.0016317173
-0.005005014
-0.008013194
-4.627858E-4
0.0015697323
-0.00381869
-0.0042914227
-0.003249358
-0.0010693568
0.0019091696
0.001416736
-0.0022891648
-0.0015833791
0.005566193
0.0042963563
-0.0016410778
4.9457094E-4
0.002964953
0.0051552234
0.0066874316
0.003733757
0.0024954244
0.0010868459
-0.001452198
-0.0023813674
-0.0055718594
-0.009012012
-0.0076406472
-0.0024138254
0.0018025283
0.0047649504
0.007479964
0.006884897
0.005385807
0.0028202224
-0.0017755778
-0.004302448
-0.0055714366
-0.0029068566
0.001665647
0.0014918734
0.0017636332
0.004008759
0.006963041
0.009545537
0.008448713
0.00801801
0.0056031807
-9.0485485E-4
-0.003461048
-0.003732097
-0.0047527472
-0.005809519
-0.006873357
-0.0063454923
-0.0066061285
-0.007593515
-0.008276941
-0.008578027
-0.0050992714
-9.360166E-4
0.0012966361
0.002856108
0.003099494
0.0052932957
0.0067759966
0.002650798
-9.62688E-4
-9.147972E-4
5.4492534E-4
0.0035040868
0.0071137436
0.008947356
0.0072428226
0.0039129895
0.0014368143
-7.276609E-4
-0.0027917407
-0.0046176002
-0.00511554
-0.0031867095
-9.5114595E-4
3.7046257E-4
0.0011759622
7.266842E-4
-0.0010833172
-0.0036996875
-0.0062869904
-0.0065785064
-0.0028584474
0.002219591
0.004593366
0.0048969137
0.0052671074
0.005304197
0.0036892479
1.9705252E-4
-0.0028062018
-0.003377909
-0.0010041588
0.0031571486
0.004259279
0.0026036797
0.0022875061
0.0014210392
-4.3875346E-4
-0.002800205
-0.0063631954
-0.008014439
-0.007466695
-0.004858539
-0.0010364448
-5.9306715E-4
-0.0012353627
-0.002287662
-0.005406839
-0.0049518407
-0.002801771
-0.0030395787
-8.8202144E-4
0.0037077735
0.0067753913
0.008053581
0.0079534035
0.0064074392
0.00437466
0.00224765
-6.3289836E-4
-0.002960346
-0.0027924345
1.8648112E-4
0.0022014389
0.0012278114
0.0018555877
0.002017393
-1.21841804E-4
-6.238856E-4
-0.0025361066
-0.0042618955
-0.0029877801
-0.002246245
-0.001516273
-0.0019374051
-2.3465694E-4
0.0036880707
4.9300626E-4
-0.004225707
-0.0060549183
-0.007856474
-0.0047594714
2.0954807E-4
0.004152747
0.00783343
0.007187492
0.0045370962
0.0024280862
8.5843116E-5
-0.0027309451
-0.0052101035
-0.0039231624
-0.0015411082
-9.846654E-4
-3.622718E-4
-4.045589E-5
1.6115881E-4
-6.2851126E-5
-5.1530276E-4
-6.122878E-4
-6.6665513E-4
0.002407647
0.007419832
0.009110151
0.006727377
0.002700774
3.7839764E-4
-8.47677E-4
-0.003150405
-0.0049660853
-0.0051829554
-0.004039376
-0.0019493529
-2.5988978E-4
-5.8118394E-4
-0.0011389023
9.483665E-4
0.0021715309
-9.3366625E-4
-0.005211848
-0.006024773
-0.0024847093
0.0013935926
0.0037353935
0.0055422005
0.005778702
0.004312523
0.0011299376
-0.0024727867
-0.003588719
-0.0045697344
-0.005753142
-0.0028716964
7.631631E-4
0.0010199373
0.0017019022
0.003981577
0.0048680087
0.0028111225
-0.0022758537
-0.0064887246
-0.007432817
-0.0065241526
-0.0027330255
0.0016618858
0.0032733085
0.0035744638
0.0024743548
5.992351E-4
-9.813493E-4
-0.0031841185
-0.0025489125
0.0024852338
0.006477064
0.006799706
0.0059966817
0.0051199226
0.0029656345
-6.1221153E-4
-0.004713255
-0.0072389757
-0.0063463976
-0.003016947
-1.694241E-5
2.4314172E-4
-6.5075007E-4
-8.817633E-4
-0.0013715253
-0.0013354423
-0.0023385913
-0.0043141544
-0.0025976922
5.1895605E-4
0.0015107037
0.0015923425
0.0011254936
1.9998247E-4
-7.310272E-4
-9.1273815E-4
-0.0034789108
-0.007296717
-0.0033586132
0.0041468455
0.008023387
0.010583756
0.009739929
0.006337004
0.0029095344
-0.0020365182
-0.005545198
-0.006156311
-0.0034315416
0.001837115
0.0047918605
0.005164614
0.0031221411
-1.9862888E-4
-0.0017855463
-0.0040275706
-0.0071096886
-0.009154859
-0.0078286445
-0.0012249585
0.002858722
0.0013631288
5.563921E-4
6.200765E-4
5.120233E-4
-8.47413E-4
-0.0044007283
-0.006587356
-0.006895839
-0.0044112047
4.105213E-4
0.001254864
0.0013032736
0.0048201554
0.0058920835
0.0049235607
0.004801041
0.0036949357
0.00352558
0.0045170705
0.005008164
0.007077484
0.0073392172
0.0025133872
-4.370427E-4
4.2011126E-4
-4.672288E-4
-0.0029442497
-0.003699303
-0.0019077988
-9.070188E-5
4.2098807E-4
2.705942E-4
-0.0017997053
-0.0025205805
-0.0014618564
-0.005581987
-0.010156942
-0.0077967197
-0.0043668784
-0.002803092
-9.6899155E-4
-8.4362045E-4
-0.0012092389
-4.8074147E-4
-0.0019210763
-0.0041552023
-0.004134728
-0.0023226314
0.0014356486
0.0047826255
0.0058422545
0.00607139
0.00576838
0.0045098835
0.0017148746
-0.001434954
-0.0051583364
-0.0071047093
-0.001134995
0.0059436085
0.0082894815
0.009788601
0.009484598
0.008239964
0.0037540637
-0.0033648768
-0.0066591543
-0.0076763565
-0.0010916055
0.0057058334
5.488385E-4
6.108309E-4
0.0045425985
8.2622364E-4
-8.909434E-4
-0.0021059185
-0.005922887
-0.010867883
-0.010199372
0.002928562
0.009856168
0.005761636
0.0042511574
6.514749E-4
-0.006408143
-0.010454617
-0.010410202
-0.008777052
-0.0059073996
-2.2597052E-4
0.0019158314
0.0013559498
0.0028694505
0.0014509328
-0.0013968877
-0.0040271976
-0.006536069
-0.0036126084
0.0021565326
0.0054349983
0.0065236017
0.00591288
0.0033990347
9.900543E-4
1.13709015E-4
-5.035888E-4
3.3438188E-4
0.0024098067
0.005783645
0.010296662
0.009261128
0.005666032
0.005556555
0.00491013
0.0029938712
-0.0021695688
-0.009035744
-0.008618353
-0.0031150116
0.0014361802
0.0038302704
0.0025740084
-9.7306183E-4
-0.0027045514
-0.002435534
-0.004507986
-0.0063507333
-0.0039391634
-0.0012725238
6.6588493E-4
7.265136E-4
-0.0019462752
-0.0032464224
-0.005108286
-0.007260954
-0.0078877015
-0.010314625
-0.009237322
-0.0030759904
0.0012502365
0.0050629834
0.0067536025
0.0039859163
0.0016941238
-0.0012027156
-0.004662517
-0.0052635036
-0.004129308
-8.1616145E-4
0.0029594547
0.0053575207
0.008858508
0.0108467555
0.008493517
0.005186644
0.0046622884
0.0066625965
0.00836382
0.0096270265
0.010172095
0.009122585
0.007873628
0.004448743
-0.0011940784
-0.0056419373
-0.010601363
-0.0149061605
-0.014369414
-0.009529291
-0.0035209497
-0.0014729914
-0.001594193
-1.4175846E-5
-0.0019067918
-0.005655405
-0.0074289194
-0.0090277875
-0.0060727634
-0.001224677
2.8030112E-4
0.002663718
0.0036938824
0.0019645295
-9.706342E-5
-0.0033929609
-0.0046199397
-0.0037922298
-0.002053275
0.0032961203
0.009329464
0.011490623
0.009271265
0.008004741
0.008252962
0.0027249255
-0.004601992
-0.007919854
-0.0074913558
-0.0015666514
0.004935965
0.0077392594
0.007549686
0.004719622
0.0045378045
0.005715067
0.001974132
-0.0036415467
-0.007728926
-0.008901367
-0.006422687
-0.005462282
-0.0071059866
-0.0061056535
-0.0044819717
-0.004976625
-0.005052939
-0.006628997
-0.007824109
-0.0038323356
0.0012451175
0.004697508
0.006124616
0.005745193
0.0063339854
0.005822469
0.004199337
0.0032246702
0.002590907
0.0045608925
0.00828953
0.0121450825
0.012315217
0.008397899
0.008850117
0.005972302
-0.006091904
-0.0119269425
-0.010013799
-0.007415224
-0.004585613
-0.00396768
-0.0033687567
-0.0028923424
-0.004307855
-0.004899634
-0.005931731
-0.006501482
-0.006105778
-0.006308654
-0.0035331992
8.8755565E-5
6.260075E-4
8.2678325E-4
0.0014516208
0.0013153494
-3.909244E-4
-0.0028048435
-0.0024424181
0.0010018309
0.0041709123
0.0060456563
0.007638317
0.007021734
0.0036500145
5.41171E-4
-0.0015030942
-0.002294119
-0.0020365687
-8.049343E-4
0.0019196989
0.003168823
0.0034182523
0.0043703704
0.0038818337
0.0031844424
2.096388E-4
-0.0058417064
-0.0073188934
-0.003675354
0.0014345488
0.0059920554
0.007149398
0.005751456
0.0019353863
-0.0011636674
3.245268E-4
0.00105781
4.8469118E-4
0.0020258673
0.0034640671
0.0055349106
0.0070376988
0.0035687513
1.1713992E-4
0.002195151
0.0029493747
-0.003083699
-0.010040567
-0.012919119
-0.011526853
-0.008510933
-0.006752456
-0.0044455053
-0.003276853
-0.004795568
-0.005769012
-0.007366256
-0.0067655738
-0.001676581
0.0017900505
0.0022530816
-0.0010077823
-0.0063713104
-0.00771302
-0.007667078
-0.008789381
-0.008024523
-0.0035428682
0.0035591058
0.009567324
0.014177793
0.017184943
0.019168153
0.02146922
0.018908193
0.014595861
0.012776762
0.0065820455
5.175522E-4
4.4326E-5
-0.0018703394
-0.0047434866
-0.0018342123
0.00686915
0.01476777
0.018042963
0.016185515
0.008434201
7.866135E-4
-0.0072431727
-0.022069031
-0.033424888
-0.035481036
-0.037490528
-0.038195767
-0.033441734
-0.027690586
-0.020788975
-0.011769129
-0.0044001695
0.0017335094
0.006023005
0.007998822
0.012478983
0.016071
0.016968101
0.02025675
0.021752128
0.022385338
0.025464166
0.025347078
0.025957642
0.027406724
0.022407774
0.017606802
0.014066472
0.00506662
-0.0052724658
-0.014163896
-0.021077394
-0.021697422
-0.01712892
-0.012873663
-0.01133292
-0.0111349765
-0.013204893
-0.017244184
-0.0146199735
-0.006012445
-0.0032329601
-0.0040813303
-8.298158E-4
0.003438443
0.0049153776
0.0037568337
0.001359462
-0.0012465087
-0.0028897815
-0.0033882742
-0.0055924538
-0.008244909
-0.010084138
-0.013813549
-0.017085867
-0.019113967
-0.021549629
-0.02162352
-0.017635498
-0.011042288
-0.0055876365
0.0029298547
0.021383543
0.040756088
0.053976513
0.064126745
0.073226765
0.08062392
0.07733945
0.066014126
0.057614308
0.040167898
0.011125817
-0.01317544
-0.03510333
-0.06106215
-0.08665297
-0.10442187
-0.10591497
-0.09607405
-0.083793804
-0.066922635
-0.047305506
-0.02643585
-0.002431326
0.016484475
0.028996883
0.044080704
0.05631821
0.056289
0.04956806
0.041894116
0.031423934
0.01941789
0.0077594067
1.0542503E-4
4.4545144E-4
-7.3656044E-4
-0.0073459446
-0.009272091
-0.008739163
-0.010451656
-0.012287461
-0.0166405
-0.017998511
-0.006452953
0.008147993
0.00796432
3.4703306E-4
0.0017149104
0.010379624
0.02849035
0.05540407
0.07601588
0.08602196
0.08088162
0.0572344
0.028722847
0.0062440545
-0.004299608
-0.007023968
-0.016635712
-0.035703987
-0.066546366
-0.11396748
-0.15581742
-0.16073829
-0.13304442
-0.09568319
-0.055443756
-0.017157122
0.010428223
0.02619097
0.040001016
0.06148951
0.07662756
0.07413862
0.06748608
0.06565608
0.069159605
0.07713204
0.086623564
0.08194173
0.044364862
-0.007650384
-0.05077473
-0.0873055
-0.11435633
-0.122475676
-0.10414196
-0.07254503
-0.045947492
-0.017003017
0.0044133086
0.015317273
0.04914215
0.103804894
0.14715607
0.16496445
0.16722684
0.17160395
0.16119702
0.11311566
0.038749356
-0.042326692
-0.10756382
-0.14605239
-0.17301103
-0.18917154
-0.17569861
-0.13736379
-0.10555078
-0.09599931
-0.089744836
-0.07087155
-0.053459033
-0.050577093
-0.054209206
-0.053624928
-0.041453153
-0.009525727
0.04196198
0.096973084
0.1408042
0.17863478
0.2156868
0.23959555
0.23981896
0.22012484
0.18628769
0.13656625
0.06435193
-0.03072378
-0.124292195
-0.1816203
-0.19539331
-0.17770267
-0.14947268
-0.13416533
-0.12559104
-0.10896155
-0.08713658
-0.06354768
-0.041557696
-0.01742491
0.011126961
0.03434127
0.053231735
0.06937995
0.07907457
0.08553138
0.08526286
0.07135809
0.046024136
0.0222215
0.012515268
0.010527075
0.0023948026
-0.011730745
-0.01933029
-0.018942242
-0.020978313
-0.024420181
-0.026505271
-0.027421301
-0.024438085
-0.020134343
-0.014820748
-0.007924903
6.4556993E-4
0.013700166
0.02614242
0.032136146
0.031922795
0.029512964
0.027546242
0.022595689
0.01396524
0.0023159885
-0.007144452
-0.009885355
-0.013826027
-0.020531423
-0.02775666
-0.035588205
-0.040175248
-0.041465536
-0.037674803
-0.03147674
-0.022755932
-0.0048933313
0.0088191815
0.01568474
0.02684527
0.033415224
0.034365196
0.033711452
0.025923446
0.014657517
0.007859585
0.010936825
0.018394314
0.018780183
0.014473103
0.012038614
0.008300636
-0.0027201076
-0.013873616
-0.017825274
-0.020820947
-0.019472335
-0.011659674
-0.00832065
-0.008858684
-0.009247407
-0.010004375
-0.010129631
-0.011750212
-0.01350823
-0.011729543
-0.005665333
0.004172541
0.011824391
0.013133174
0.011705142
0.010685608
0.009190506
0.004774723
1.8883494E-4
-5.856388E-6
0.0023694728
0.0072820866
0.013123488
0.01296117
0.008687121
0.0037693994
-0.0022799221
-0.007643949
-0.0135097895
-0.016401386
-0.0113415485
-0.0036195992
0.0023684155
0.005959599
0.007396203
0.0065167253
0.002378879
-0.002116049
-0.0067442837
-0.010419879
-0.008028974
-0.0012364398
0.004549695
0.0062296283
0.0059925052
0.0054762373
0.0019477626
-0.003288236
-0.00879011
-0.010156739
-0.004204627
0.002814978
0.008713634
0.010186451
0.006120255
0.0025752767
-0.0026919246
-0.008330955
-0.011594486
-0.01355486
-0.008224112
5.141384E-4
0.00554355
0.009455378
0.011839174
0.011033244
0.0054210597
-0.0044544986
-0.014211203
-0.017245073
-0.008370541
0.0038563882
0.010115263
0.0113706095
0.010151816
0.008988317
0.006111775
0.0012141488
-0.0037058732
-0.0067336587
-0.0018498924
0.0064897807
0.0116988355
0.014652806
0.011798289
0.0071735876
0.0049279863
-0.0021250611
-0.012521314
-0.017525349
-0.015208621
-0.010107756
-0.005680339
-0.002155299
2.2235086E-5
-2.2200588E-4
-0.004628795
-0.009707841
-0.011974918
-0.013517055
-0.011189637
-0.0045146444
6.371823E-4
0.0037262044
0.007939695
0.013086586
0.013131593
0.009628547
0.007985987
0.004318226
9.2012633E-4
8.921688E-4
-6.8136564E-5
-0.001347595
-9.161529E-4
0.0018958874
0.004048045
0.0022780893
-0.0013318534
-0.005050296
-0.0034445126
0.0042327223
0.008978547
0.006903181
0.0021170701
0.0012376148
-6.959628E-5
-0.007356516
-0.012355776
-0.011964737
-0.0067936317
0.0018055544
0.0061386107
0.0056953435
0.0031515977
0.0014811507
0.0010861583
-0.00368992
-0.008388833
-0.008610241
-0.0063762683
-4.284907E-4
0.0042153113
0.005679483
0.00861518
0.008435726
0.002103597
-0.005067392
-0.010217488
-0.011949745
-0.008007692
-1.2136691E-4
0.0071991077
0.011263684
0.012022722
0.008691615
6.54335E-4
-0.0059379674
-0.0100145005
-0.015482131
-0.012987986
-0.0025577552
0.0014045623
5.077867E-4
0.0014797001
0.0036144045
0.004894852
0.0031166524
-2.3155839E-5
-0.0017462705
0.0014869467
0.008671978
0.013250414
0.016027426
0.016318727
0.011697012
0.007235198
0.003506193
-0.0013976974
-0.0056487657
-0.008846857
-0.009948424
-0.0069958903
-0.0031841134
-0.0024618974
-8.435E-4
3.3497286E-4
-0.0053239125
-0.011632108
-0.014244317
-0.01322999
-0.005566274
0.0016609356
0.0035364
0.0043561575
0.0035510454
7.530716E-4
-0.0018487574
-0.004736962
-0.007191045
-0.004728878
0.002879306
0.008167445
0.008116406
0.006863055
0.006810979
0.0065372363
0.0043750163
9.4484683E-4
-0.0013601716
6.039388E-4
0.004702952
0.0056415987
0.0039650886
0.0027040602
0.0040914477
0.0053777453
0.0018567059
-0.0033991025
-0.0075840056
-0.009281989
-0.006959006
-0.0033915655
-4.7086444E-4
-0.0017126849
-0.00478434
-0.0020508196
5.0883915E-4
-0.0017712595
-0.004181176
-0.0049645226
-0.0024612877
0.0014096288
0.0035746503
0.00488372
0.0041432506
0.002194031
0.0020903358
0.0013512524
-0.002908763
-0.0059044794
-0.0035009785
0.0031177127
0.01116364
0.013139501
0.008735276
0.0037486432
-0.0058112056
-0.015632812
-0.0148613
-0.0073897564
5.2324718E-5
0.0061998386
0.010392623
0.010377156
0.0062423334
0.0016046503
-0.0035921528
-0.00771666
-0.0077757468
-0.00402166
0.0024966255
0.0063812328
0.0064756824
0.005483667
0.0027768526
0.0013025102
-9.295716E-4
-0.0076791043
-0.012920223
-0.012308444
-0.007180822
-0.0014568593
0.002521594
0.005140112
0.004073941
-5.170167E-4
-0.004217546
-0.004086223
-0.003182385
-0.0039379196
-2.7919136E-4
0.0047192997
0.0035725993
0.002430659
0.0035512766
0.004747979
0.0057642963
0.0012659351
-0.0058427514
-0.0060375356
0.0011156384
0.0077735707
0.008316602
0.0084323175
0.009827927
0.006693165
0.0027256855
-6.409789E-4
-0.00555905
-0.0062843626
-0.0022724501
8.3996257E-4
8.4184983E-4
6.1139866E-4
0.0028062377
0.003038773
9.331688E-4
-9.076024E-4
-0.0041610724
-0.0035311629
0.0012527716
9.808012E-4
-0.0033613616
-0.0075162584
-0.010500451
-0.011175064
-0.0107397
-0.008111678
-0.002796506
9.801851E-4
0.0013815637
-3.9190447E-4
-0.0034385964
-0.0050136615
-0.0027638578
5.1531126E-4
0.002592749
0.002814903
0.001132002
0.0039020528
0.011116925
0.015340762
0.017087046
0.01589466
0.010868389
0.0052492204
-0.0016027018
-0.0072048106
-0.009258426
-0.008839604
-0.0037956196
0.0030337588
0.0073494813
0.0076984623
0.0045371284
0.0023842994
-0.0015687409
-0.007996913
-0.01015163
-0.008345769
-0.0022909907
0.0027230002
0.0015682385
0.0020318942
-0.0016802968
-0.008651763
-0.0038511294
-0.00209518
-0.010696383
-0.009786601
-7.7021006E-4
0.005687329
0.0083640665
0.0067261746
0.005244195
0.004360314
-9.791668E-5
-0.0046340846
-0.005991176
-0.005124727
-1.3019411E-4
0.0061809756
0.0060714474
0.0027298918
7.8869495E-4
-0.0018088513
-0.0022077186
-0.0016176541
-0.0042784093
-0.005764918
-0.00296155
0.0013931339
0.0020579083
5.71369E-4
0.0025979136
0.001687832
-0.0037116304
-0.0059764255
-0.0068912506
-0.004671513
0.002858261
0.008620497
0.012597834
0.01486402
0.01196172
0.00815759
0.005034839
9.105842E-5
-0.005156713
-0.0075728637
-0.0045634685
0.0011265711
0.00558352
0.008733311
0.008188593
0.0043259193
-4.3908405E-4
-0.007866932
-0.015629366
-0.019000558
-0.016047094
-0.008456071
-0.0022051386
5.440799E-4
-1.4757187E-4
-0.0037829538
-0.0055664964
-0.0048979963
-0.0056573534
-0.0075534903
-0.0058366884
-5.756353E-4
0.0017740218
0.0024616346
0.0048326124
0.00566634
0.0043241666
0.0021461695
0.0014638572
0.00342925
0.007303936
0.014095459
0.019197144
0.02008154
0.017724272
0.008488321
-5.8163924E-4
-0.0025214485
-0.0037344706
-0.0047758278
-0.0025750112
2.8054664E-4
6.386734E-4
2.7942835E-4
0.0021490061
4.741632E-4
-0.006056687
-0.010275568
-0.0126766125
-0.013952854
-0.010941051
-0.0051556295
-0.0013150494
-0.002021682
-0.0028170357
-0.0020691343
-0.0047094394
-0.009316968
-0.013437465
-0.01547259
-0.010291824
-0.0023753967
0.0015492089
0.0061158976
0.011630878
0.0129764695
0.011393528
0.007100751
6.097585E-4
-0.0012886949
0.0036337497
0.009014563
0.009290876
0.0070205233
0.0065247356
0.0054540006
0.003398021
0.0039540324
0.0063135396
0.007710221
0.0072350604
0.0069496874
0.0054948265
-0.0013597858
-0.005119627
-1.8369978E-4
0.0022957753
-0.0011986679
-0.0060997405
-0.009264926
-0.0049600294
0.0031859619
0.0047569484
-7.0747465E-4
-0.006339549
-0.008368066
-0.009982786
-0.0130109
-0.014815912
-0.01486667
-0.011750517
-0.0069208615
-0.0065866797
-0.0076553724
-0.0044714157
-0.0024241572
-0.0041179056
-0.004168023
-0.0016305463
0.0028681504
0.008581039
0.010744399
0.009555273
0.008639866
0.010328707
0.016757675
0.021632912
0.020715058
0.021117525
0.025083954
0.028501509
0.024686074
0.0117908055
8.2030107E-4
-0.006590973
-0.015933743
-0.022380328
-0.026419472
-0.027020887
-0.018804891
-0.011260434
-0.012111062
-0.01886774
-0.025569256
-0.023809638
-0.017891074
-0.012439849
-0.0046078884
-0.0028641357
-0.009480799
-0.014028981
-0.012736991
-0.00761407
-4.5315217E-4
0.011212574
0.02137244
0.019436251
0.01723254
0.026603343
0.041309338
0.054742258
0.056083653
0.035111237
0.003750238
-0.012599318
-0.011259864
-0.008878888
-0.0054851216
4.0541668E-4
-1.11663496E-4
-0.006550479
-0.013496344
-0.0125101255
-0.0049424865
-0.0038752747
-0.0064771464
-0.01035364
-0.020156045
-0.027720772
-0.025963107
-0.016306398
-0.0034201855
0.010481475
0.02100376
0.017135458
0.006138602
7.6221774E-4
-0.0027340017
-0.002227262
0.00321504
0.0056038983
0.003640352
-0.0015465985
-0.006687233
-0.0082546305
-0.008747339
-0.015743047
-0.034338474
-0.048638433
-0.04386389
-0.036043603
-0.03509433
-0.02551112
-0.0020621782
0.020149503
0.030442037
0.033478986
0.033358607
0.028525116
0.025269158
0.029434713
0.033000015
0.03012675
0.02978049
0.03914
0.049688697
0.050108064
0.04134709
0.031876154
0.027521849
0.02468372
0.01209853
-0.012425501
-0.039805215
-0.06313924
-0.07297298
-0.06524014
-0.054527022
-0.047884986
-0.042108838
-0.041972753
-0.043710142
-0.03890316
-0.028834118
-0.018009307
-0.011748175
-0.0050661755
0.0069591063
0.017561346
0.027807688
0.035340853
0.035907842
0.041027468
0.04960277
0.050229102
0.045613434
0.03984457
0.03179226
0.020033414
0.008920266
0.0041977507
0.001847999
-0.0011636792
-0.0053070467
-0.013316879
-0.020153921
-0.020668423
-0.018143909
-0.013861909
-0.0077545256
-0.0045685554
-0.0068976693
-0.01362793
-0.023319919
-0.030318234
-0.030915342
-0.029867113
-0.030424979
-0.030551173
-0.030005677
-0.028185682
-0.019561859
-0.007637287
-0.0040460834
-0.0042470936
-2.0373584E-4
0.005731991
0.015992869
0.02671125
0.03129796
0.038023233
0.045849483
0.048337724
0.05000497
0.041604817
0.019403242
0.0080609275
0.015242978
0.026786182
0.041010074
0.057859816
0.06986596
0.07152145
0.05932951
0.034156326
5.9508934E-4
-0.036972556
-0.07190519
-0.0940594
-0.100903824
-0.10216343
-0.09975325
-0.08368704
-0.05223032
-0.02185296
-0.011994228
-0.016792843
-0.019561665
-0.020877125
-0.023188952
-0.022684619
-0.017791448
-0.01094048
-0.0036883166
0.0061625545
0.013385133
0.017381003
0.028460592
0.043877542
0.055342197
0.06351305
0.07075569
0.07113694
0.05776941
0.040406328
0.026135338
0.014803272
0.011367374
0.01014029
0.007920428
0.007080952
0.004711243
0.0058096265
0.0068816
-0.0012040758
-0.0114090685
-0.015442595
-0.015675565
-0.020942235
-0.028125614
-0.029569414
-0.030270424
-0.02814461
-0.022561409
-0.021130618
-0.023485765
-0.028077815
-0.02879372
-0.023605337
-0.019372577
-0.01431678
-0.008089561
-0.0014964187
0.0066180294
0.011915748
0.014852212
0.016370105
0.015833959
0.015594086
0.014866775
0.012323968
0.009091832
0.009007474
0.010465711
0.008839238
0.008350666
0.007879457
0.0037748446
-7.789867E-5
-0.003141125
-0.003685332
-0.0015151012
-0.0014105511
-0.0031823677
-0.0047856485
-0.0042913356
-0.0028789153
-0.0035231495
-0.002446607
6.640162E-4
0.0013887595
0.0029132806
0.0060690027
0.006886652
0.0075879535
0.004926624
-0.0019881695
1.7419386E-4
0.006377502
0.005882056
0.00814352
0.008674827
-7.1464275E-4
-0.010916586
-0.017474888
-0.017839147
-0.013325514
-0.011115772
-0.010945174
-0.0084088
-0.0011658024
0.002984988
0.0014947344
0.004066088
0.0063717873
0.0046672653
0.0037088557
0.0010911619
-9.860399E-4
-0.0011752188
-0.0012470009
9.874386E-4
0.0028022646
0.0037434662
0.005847466
0.007951222
0.008470911
0.005119552
0.0028067315
0.0052574985
0.009390289
0.014676655
0.0145867
0.007415843
0.0021970402
-0.0024655082
-0.007492299
-0.009011762
-0.011440423
-0.014101049
-0.013155008
-0.012023723
-0.010613679
-0.0078089684
-0.0063291527
-0.0050435844
-0.0034889018
-0.004440346
-0.005215146
-0.0030569371
-0.0015143686
-5.5281207E-4
0.0020310031
0.0026241117
0.0016658399
0.003387123
0.0048675956
0.0043535354
0.0042427117
0.0034550494
0.002747248
0.0048436103
0.0069144056
0.0066627427
0.0071809096
0.008879782
0.008724989
0.006671238
0.003515637
2.0319971E-4
6.5757026E-4
0.005221838
0.006908782
0.0032120189
6.3577763E-6
-0.0016216647
-0.0032805596
-0.003067139
-0.0036410238
-0.005429866
-0.0047040274
-0.0035438084
-0.0026708567
-0.0019833415
-0.0024453108
-0.0018645705
-0.0015074725
-0.003033336
-0.0069900863
-0.010953083
-0.007967737
-0.0029483738
-0.0014184824
7.934327E-4
0.0010812967
8.1358926E-4
0.0034965107
0.0031040579
0.0011985976
0.0014432818
0.0018920735
0.0045393393
0.0071374727
0.005576315
0.0038358653
0.0032828168
8.1618625E-4
-0.0014997137
-0.0019354017
-0.0022941856
1.4182404E-5
0.0055951807
0.008899501
0.008397846
0.0051431158
0.0016558361
0.0016873257
0.0010114886
-0.0037072059
-0.006360364
-0.0045136493
-0.0017496775
1.172079E-4
-1.0347593E-4
-0.0017225832
-4.6827047E-4
0.0022272484
5.735846E-4
-0.0026998224
-0.004482444
-0.0063044825
-0.004575348
-0.0011416221
-0.0020315293
-0.0020261027
7.0698047E-4
4.8032435E-4