-0.026814852
-0.019997953
-0.022471247
-0.01870903
-0.0112704
-0.0055209156
0.0021995578
0.005816822
0.0053894385
0.005930579
-1.8966252E-4
-0.017252369
-0.025686836
-0.016977224
-0.010949773
-0.015100331
-0.024889916
-0.034891244
-0.030628616
-0.015801592
-0.0070672296
-0.003796947
8.170752E-4
0.013023896
0.029429387
0.038965385
0.043060966
0.04018228
0.035585053
0.04619852
0.063810185
0.076359846
0.08656681
0.095215425
0.10080302
0.098477945
0.095515646
0.10028165
0.09840909
0.060016938
-0.033863842
-0.12999125
-0.15496652
-0.11088243
-0.040795077
-0.014760294
-0.06261395
-0.11405614
-0.13688394
-0.15383902
-0.15707634
-0.15123087
-0.14660484
-0.1288276
-0.09020034
-0.0381406
0.009378195
0.039676104
0.0578968
0.07082183
0.07733725
0.077968776
0.0790431
0.081560284
0.08245491
0.085042834
0.08916132
0.087825105
0.081761986
0.072633795
0.05927338
0.05014529
0.04535287
0.036234654
0.026102858
0.01585773
0.0046085836
-0.0064520775
-0.017834192
-0.023976384
-0.02882993
-0.036021587
-0.03792523
-0.038069863
-0.03819565
-0.034966134
-0.0313683
-0.02664721
-0.019139562
-0.012305792
-0.012294138
-0.016062753
-0.021406678
-0.030912042
-0.02978658
-0.022070538
-0.026264882
-0.02986494
-0.027747495
-0.023926863
-0.013532642
0.001320577
0.018906245
0.023726204
0.013523546
0.013328251
0.015060638
0.007498351
0.004745663
0.0024474317
-0.0018554954
0.0058126715
0.02019097
0.024803367
0.025008544
0.03249892
0.034397084
0.018449444
-8.141191E-4
-0.007914594
-0.008300023
-0.011820549
-0.013608098
-0.00816011
-3.005382E-4
0.004025897
0.00395093
0.0051074545
0.00521398
4.86245E-4
3.4394918E-4
0.004675107
0.008002765
0.009338372
0.0043944474
6.6725776E-4
0.0026467904
0.0040303166
0.00579535
0.0041627595
9.830117E-4
0.0024655683
-3.3876178E-4
-0.0047843657
-0.0046704262
-0.0069782967
-0.005999337
9.3367946E-4
0.004166589
0.004123336
8.638497E-4
-0.0059475102
-0.009452058
-0.011067575
-0.015198175
-0.017296374
-0.013561221
-0.008400867
-0.005670513
-0.0026811198
0.0010946163
0.0034101827
0.0014686923
-0.0030424318
-0.001030711
9.4115554E-4
-0.0039795623
-0.0024498564
6.167067E-4
-0.00271434
-3.5310094E-4
0.0042432165
0.004463751
0.0043748133
0.0046955827
0.0054270825
0.0013727451
-0.0033638333
0.0010466302
0.0058688987
0.0059364084
0.00478615
0.001428356
-0.0014993941
-0.0033230016
-0.004340476
-0.0010431383
0.002042543
-0.0019854927
-0.0071567725
-0.0065897326
-0.0058047688
-0.0085256165
-0.011871093
-0.012813925
-0.008270686
-0.002044305
-3.799505E-4
-0.0031648765
-0.005775719
-0.0035800023
0.002005721
0.008261865
0.010929149
0.009874292
0.011375403
0.009171674
0.0049770684
0.008213611
0.009158736
0.008038655
0.008979856
0.008335891
0.013435052
0.018385282
0.016012156
0.010614687
-9.903355E-4
-0.010964194
-0.015333235
-0.019977925
-0.018891996
-0.014977489
-0.011688074
-0.00775669
-0.010619862
-0.015946893
-0.017149271
-0.015624316
-0.010909958
-0.006351202
-0.002832896
-1.4516023E-4
0.0024876834
0.006280965
0.004595733
0.0019329796
0.0058327722
0.008580561
0.010265707
0.014107945
0.014500685
0.011275834
0.008398388
0.0077224546
0.007485227
0.006047536
0.0044626845
0.0014041553
-0.002419013
-0.0050608227
-0.005767721
-0.0030863895
-0.0018959041
-0.0035538236
-0.0012405746
0.0018974087
2.3779819E-4
-0.0016633616
-0.0012473186
-0.0016675432
-0.0036864572
-0.0036104578
-4.8192178E-5
0.0022003541
0.0019180791
0.0013326164
-0.0011805538
-0.002405742
9.287146E-4
0.001980125
3.225631E-4
0.0029439963
0.0069531337
0.0066040843
0.0020693322
-0.0050886422
-0.011702968
-0.013111988
-0.008274342
-0.0026841091
-0.001189353
-8.4795285E-4
0.0022163226
0.006692684
0.008634038
0.006184627
0.0029369476
0.0033585713
0.006733357
0.007012334
0.0011081331
-0.0029823678
-0.0016435238
-0.003045573
-0.006403742
-0.006358468
-0.0064547975
-0.007949406
-0.00891986
-0.008280807
-0.005268765
-0.0032387904
-0.0036658926
-0.0033683751
-0.0012300023
-3.2014726E-5
-2.8892758E-4
0.0017447559
0.004077416
0.00481027
0.006309968
0.0055425274
0.0050358186
0.008191354
0.010530977
0.014346594
0.01813868
0.017697606
0.017783439
0.015273122
0.00896876
0.0075571905
0.008836593
0.0056782966
-0.0028852662
-0.015665255
-0.027856978
-0.03173371
-0.024084255
-0.012571816
-0.006665346
-0.005348635
-0.0056998217
-0.0071490663
-0.006011408
-0.003963947
-0.005153574
-0.005738022
-0.005001515
-0.0047062226
-0.0017441398
0.0021364389
0.003827934
0.0039841007
0.0037439405
0.005090566
0.0066494932
0.007546458
0.008067531
0.006413701
0.0070959544
0.01205603
0.013385701
0.009003631
0.0040174406
-2.1296297E-4
-0.004097851
-0.004315496
-6.9535413E-4
0.0018827845
0.002692899
0.0038510642
0.0052941223
0.005386122
0.004349931
0.0038003663
7.9149776E-4
-0.00518143
-0.0073763663
-0.006093161
-0.009916343
-0.015246722
-0.012517553
-0.009250572
-0.007979404
-0.0017357051
1.0520669E-4
-0.0027756607
-0.0018905968
-0.002100724
-0.0014616777
1.0504654E-6
-0.0015268706
-6.8627676E-4
0.0015490163
0.0038744225
0.006741044
0.008359736
0.008100637
0.0047783186
0.0066996575
0.0126266945
0.013675645
0.015855646
0.011485587
-0.0021162522
-0.0068019303
-0.006080901
-0.0071105664
-0.00661427
-0.007549259
-0.0077545294
-0.0058279387
-0.0045652296
-0.0041356348
-0.004935643
-0.004116439
-0.0016170765
-0.0013266254
-0.0015467762
-8.2744705E-4
-0.0016896131
-0.0018332714
0.0012197347
0.0015456465
-3.9080204E-4
0.0019743824
0.0030776353
4.2657665E-4
0.0010464924
0.00288967
0.0023647721
0.0023373587
0.003177868
0.0032056838
0.0037958883
0.005917096
0.006492449
0.005076335
0.002768043
-8.291716E-4
-0.0015546507
5.8011874E-4
8.500714E-4
-8.992809E-4
-0.0041187718
-0.0050758654
-0.0033928305
-0.0019157315
0.0021680947
0.003749593
0.002734864
0.005536278
0.002852467
-0.0046096225
-0.0071673184
-0.007529372
-0.007164387
-0.007688814
-0.007463905
-0.00443322
-0.0047147702
-0.004832247
-6.637543E-4
0.0021598996
0.0026627795
0.0039662016
0.004485305
7.1070745E-4
-0.0013792512
0.0012247175
0.0027639142
0.003368522
0.0030141494
0.0047049727
0.00833671
0.010014124
0.014324731
0.010339265
-9.193653E-4
-7.2609534E-4
-0.0023526952
-0.006581757
-0.0019108535
-0.0014998286
-0.002394983
-0.0025701115
-0.0065249256
-0.00418487
-0.0018684529
-0.0036035094
-0.0021945888
-0.0015257687
-0.0018704077
-0.0035769998
-0.0059627513
-0.0038412486
-0.0011771057
4.4848394E-4
0.0022460772
0.002358137
0.0035516042
0.00423673
9.010764E-4
-2.65718E-4
0.002375982
0.001551024
-4.249767E-4
8.8800944E-4
5.8388035E-4
2.5933946E-4
0.0022676205
0.0012757968
-5.0039525E-4
-1.6378511E-4
7.651031E-5
0.0012260908
0.0021061185
0.001378459
2.547551E-4
-0.0011743868
-0.001266044
-5.20528E-4
-6.0407544E-4
-1.4543405E-4
3.7333037E-5
-6.2534044E-4
-6.238934E-4
2.8571652E-4
0.0019011507
0.0028432696
0.0030376683
0.0017270461
-0.002186436
-0.002843633
0.0010359122
0.003655013
0.004215278
0.0016063787
-0.0036261592
-0.0068964027
-0.008053163
-0.007223974
-0.004297549
-9.1463584E-4
0.0038378618
0.008697973
0.008347906
0.0031443336
7.4351975E-4
0.0019106439
-0.0017643666
-0.009481909
-0.010815895
-0.0055922708
-0.0016064843
4.3489103E-4
0.001766332
0.002273907
0.003495429
0.0038935593
0.0042422577
0.005565822
0.0038647843
0.0022874493
0.0030261767
4.9282267E-4
-0.0019904706
8.1905135E-4
0.0033682256
1.947805E-4
-0.0046819607
-0.004819895
-0.0012049681
6.043928E-4
-0.0014961871
-0.002258922
-1.9756253E-5
-0.001568728
-0.0019511168
0.0036107565
0.004696086
0.002837694
0.0029494318
-4.9720396E-4
-0.0034134227
-0.0032594753
-0.0033007725
3.0594753E-4
0.003807066
0.0012101246
-0.0016451174
-0.0020074008
-0.0014290424
7.896531E-4
0.001777198
6.700828E-4
7.6821685E-5
-3.951739E-4
0.0011473643
0.0028103967
-0.0014751471
-0.0048731887
-0.0030519126
-0.0037096408
-0.0046726153
-0.0019117607
2.2736918E-4
0.0019649032
0.0044672373
0.004923124
0.0038258925
0.0043505174
0.0051654107
0.0026265183
-0.0016966803
-0.0041478933
-0.0028384812
7.65948E-4
0.0016516148
-4.0963056E-5
1.1261933E-4
0.001501371
8.516902E-4
-2.0651349E-4
3.9830946E-4
-0.0013762388
-0.0030862065
2.5172604E-4
8.970226E-4
-0.003156632
-0.0044039437
-0.0025637082
-1.8766927E-4
0.0012565176
0.0013125755
8.709238E-4
6.602225E-4
-6.96248E-5
-0.0026721542
-0.0026976925
-9.7690354E-5
4.9106806E-4
0.0025710943
0.004642752
0.0037561979
0.0033442203
0.0034280429
0.004450609
0.0037272943
9.481194E-4
7.421229E-5
-0.0027767513
-0.005048962
-0.0040505636
-0.0047052735
-0.0054316223
-0.005442888
-0.0030086283
-2.293937E-4
-0.0018216068
-1.9849138E-4
0.0020790198
-3.292832E-4
-6.4791576E-4
1.8264516E-4
0.0019359649
0.0031593852
1.0359381E-4
-9.6628116E-4
-1.9657832E-4
8.613075E-4
0.0037431458
0.0035776126
0.0033856835
0.0070994194
0.009388679
0.010309338
0.011817314
0.008545171
0.0014277053
-0.0019695945
-0.004837391
-0.007948446
-0.0067457864
-0.008943718
-0.014011392
-0.012058206
-0.0076533863
-0.006287393
-0.004757215
-0.0018961473
-9.934737E-4
-0.0020495078
-9.329031E-4
7.1601244E-4
8.370266E-4
0.0014143926
0.0018815051
0.0021017254
0.002463093
0.0031387794
0.0041294666
0.003504875
0.0029601355
0.0040853987
0.0047499626
0.005932668
0.007906098
0.007592036
0.0062857447
0.007778478
0.009953851
0.008370755
0.0026369046
-0.0044007096
-0.007334408
-0.0058595813
-0.0067551625
-0.010383659
-0.012444345
-0.011402902
-0.0061877784
-5.367159E-4
5.646531E-4
-0.0012232894
-0.0024073524
-0.001317903
-2.1429744E-4
-0.0022250663
-0.004028874
-0.0028313922
-0.001685576
-0.0021059765
-0.0020426793
-5.488455E-4
7.5175206E-4
0.0016614432
0.0029328521
0.003479918
0.003775253
0.0051289075
0.008523489
0.013565097
0.014841797
0.010544872
0.0044067046
-0.0021816597
-0.005726157
-0.0035406663
-0.0010860187
-0.0032065285
-0.005810089
-0.0039117425
-0.0014675319
-0.0020412933
-0.0027815364
-0.0011062177
0.0021239454
9.822998E-4
-0.0031870115
-0.0039920467
-0.004778078
-0.0033644373
8.585196E-5
-0.0029310794
-0.0041680923
4.1533686E-4
0.0023487592
0.004034113
0.004975599
9.859127E-4
-0.0027985328
-4.6571635E-4
0.0036010966
6.491488E-4
-0.002443467
3.7644515E-4
0.0014409343
0.002693059
0.0041077095
7.023245E-4
-0.0014386869
-0.0019237779
-0.0027811367
-0.001722066
-0.0021939077
-0.0031426556
-0.002500456
-0.0035182133
-0.003467388
-1.2565136E-4
0.0016876609
0.001997834
0.0046995194
0.0055124965
0.0036887384
0.0063166996
0.008550888
0.006382171
0.005041053
0.001546494
-0.001972406
-2.0452443E-4
-3.6023604E-4
-0.0024306376
-0.0016925413
-0.002466547
-0.004885285
-0.0051140375
-0.0040137074
-0.0048377616
-0.0049430463
5.180651E-4
0.0051621837
0.005838827
0.008609702
0.010612698
0.008613236
0.006433948
0.0049614077
0.0024672642
-7.449623E-4
-0.0025968954
-0.0057415203
-0.011180456
-0.013731558
-0.015251968
-0.016252112
-0.012609552
-0.009948341
-0.011988589
-0.012181162
-0.007406535
-0.003858078
-0.0035041613
-0.0017513145
-0.0030485813
-0.006766615
-0.0049163243
-0.0031099657
-0.002899115
0.0010337695
0.0072474624
0.015977474
0.024661975
0.030684276
0.036098327
0.03954211
0.03836492
0.031707607
0.023617199
0.015272265
0.0029350575
-0.012177986
-0.02998623
-0.043198783
-0.040405143
-0.02743199
-0.016767977
-0.014912798
-0.015392808
-0.010771303
-0.010796236
-0.019592024
-0.029468546
-0.03326502
-0.027385779
-0.017309945
-0.0059046987
0.0052321386
0.012776916
0.020973448
0.0301626
0.036103148
0.03602429
0.030959561
0.027359545
0.02617102
0.026835674
0.02809598
0.024775624
0.017568165
0.010209106
0.006529927
0.004513398
-0.002969596
-0.0123628015
-0.017260475
-0.017156072
-0.012990742
-0.008012651
-0.0068633705
-0.009725432
-0.009512263
-0.006436775
-0.008373397
-0.011471985
-0.010332888
-0.0075998465
-0.004802397
-0.0053221113
-0.0107397325
-0.015083176
-0.015995635
-0.012315562
4.59886E-4
0.0118272845
0.008415732
-0.0018153717
-0.013846752
-0.03117293
-0.046713077
-0.05834807
-0.07162224
-0.07710813
-0.06019354
-0.031733576
-0.008033784
0.022297181
0.062330637
0.08979587
0.09449484
0.083358504
0.07559403
0.09402956
0.1333776
0.16149372
0.1518536
0.10480009
0.037357144
-0.037657063
-0.093823396
-0.10039675
-0.091849685
-0.120604925
-0.14925039
-0.12521031
-0.06368855
0.0076659676
0.06265682
0.07069548
0.033371653
-0.015335721
-0.054606408
-0.093530916
-0.121045806
-0.12081784
-0.111623526
-0.091199756
-0.04248225
0.023607947
0.0821391
0.11683952
0.14719188
0.16807294
0.14723739
0.10047938
0.03447119
-0.016328419
2.621757E-4
5.3332146E-4
-0.061569363
-0.08182222
-0.04111052
-0.018132176
-0.031247584
-0.04145293
-0.030691732
-0.006962143
0.023960745
0.034794997
0.016884845
0.009796561
0.024265211
0.028550994
0.018083362
0.02986608
0.05071387
0.058106225
0.08343049
0.063318916
-0.027031481
-0.05344297
-0.01576483
0.0013367365
-5.576296E-4
-0.027284285
-0.04498195
-0.011748598
0.028304238
0.032363612
0.019320183
0.0033535077
-0.06206566
-0.12643985
-0.08449
-0.03327047
-0.06865526
-0.12607056
-0.17641218
-0.2120262
-0.19804494
-0.13155368
-0.047367845
0.0038792617
0.04724417
0.14641461
0.2353711
0.21834126
0.15288007
0.14587587
0.2006553
0.20733026
0.12484362
0.101020835
0.15236989
0.13080363
0.056937397
-0.026403883
-0.11986506
-0.13740154
-0.058109228
0.048886243
0.071742006
-0.022188563
-0.11723987
-0.18436165
-0.24345258
-0.26945254
-0.24518417
-0.14191522
-0.043188717
-0.015690327
-0.008768624
-0.038348805
-0.053453878
0.010666165
0.081125595
0.13180624
0.15707077
0.13594338
0.07817248
0.0024179649
-0.010649354
0.043548435
0.06477389
0.06684716
0.092634976
0.08197167
0.019988896
-0.034814358
-0.06808212
-0.058190368
-0.011431443
-0.007180972
-0.014565463
0.009742195
0.030966504
0.06668025
0.07037645
0.030211931
0.038041495
0.049173083
0.02103604
-0.011223496
-0.061500367
-0.12658946
-0.18533272
-0.18453345
-0.10620085
-0.03506152
-0.0011743428
0.019253153
0.034485772
0.03792707
0.023888135
0.014906735
-0.0135438265
-0.054868672
-0.04761036
-0.021620302
0.0066910526
0.06273284
0.11944714
0.14551967
0.13719085
0.12866198
0.12243075
0.09988144
0.09263265
0.08271462
0.029635243
-0.057714798
-0.15376642
-0.21059203
-0.20315228
-0.14829545
-0.09682596
-0.07339696
-0.028676853
0.021446876
0.032087162
0.03356546
0.032872833
0.009507708
-0.03603674
-0.0583294
-0.018677449
0.024188
0.0265304
0.019635467
0.029284358
0.057447318
0.07983941
0.06462591
0.018861387
0.009666561
0.052587226
0.07115783
0.04341651
-0.016610267
-0.076144196
-0.08098346
-0.062279202
-0.046198264
-0.037424788
-0.044722885
-0.0048231436
0.05288475
0.045639273
0.022662949
0.024989197
0.028916143
0.010213664
-0.025936974
-0.04565266
-0.049858443
-0.035241254
0.008868576
0.05492166
0.08425331
0.091372326
0.07764561
0.07033288
0.086193986
0.06485704
-0.012726947
-0.03644152
-0.040243026
-0.1178934
-0.14462657
-0.088478684
-0.055673122
-0.031072194
-0.010421889
-0.0125908675
-0.009627474
-0.004580527
-0.0022032922
-0.0018796648
-0.004870986
-0.002360001
4.6706732E-4
2.4167764E-4
0.0030873683
0.018372547
0.033855494
0.026376884
0.016759794
0.018584874
0.016547924
0.018607683
0.030376617
0.039005067
0.032182142
0.009809952
-0.0096256165
-0.016321111
-0.019816006
-0.027563315
-0.036407184
-0.04040403
-0.037170276
-0.027451124
-0.016295893
-0.008958336
-5.180094E-4
0.020137621
0.04251024
0.044314753
0.03532434
0.033222266
0.038322292
0.0514476
0.056169607
0.03682706
0.015070385
0.0071505317
0.00243511
-0.005078407
-0.015640188
-0.02840164
-0.033875898
-0.03662379
-0.05271729
-0.06898088
-0.06926891
-0.06166236
-0.051494356
-0.047079574
-0.04554239
-0.029348705
-0.008145085
0.008427957
0.024653053
0.034071162
0.03867912
0.045467112
0.05474879
0.059883665
0.052233573
0.040069994
0.029285634
0.019158611
0.011625381
0.0033275147
0.0037164881
0.012769683
0.012815481
0.011402029
0.015787054
0.010062851
-0.010514663
-0.029911907
-0.038789947
-0.046718147
-0.055739995
-0.054892153
-0.039097458
-0.02040867
-0.013878292
-0.007569587
0.0046690395
0.006982891
0.0024582157
0.002611896
0.009917926
0.019808354
0.029105885
0.03845521
0.037361816
0.033346366
0.03205812
0.012151388
-0.0082089165
-0.008277092
-0.0114105465
-0.01942366
-0.015851244
-0.005772561
-0.006065856
-0.01096802
-0.0038060572
-0.0018326634
-0.008708456
-0.0073518157
-0.008211924
-0.0067444043
0.006585845
0.015963206
0.017342456
0.009300335
-0.003947113
-0.0051340135
-0.0027971051
-0.0130746085
-0.025851509
-0.026319776
-0.016255764
-0.0054838276
-5.842417E-4
-0.0044415626
-0.009145139
-0.0072334083
-0.0043136342
8.0624386E-4
0.0065008407
0.0023375486
-0.0019540715
0.0035365785
0.008520901
0.0075462055
0.008447109
0.02048583
0.036759023
0.04334055
0.042546496
0.037077434
0.027355732
0.017029326
0.001663408
-0.010711575
-0.009051447
-0.00985818
-0.022918863
-0.031528946
-0.026200205
-0.020878064
-0.026116816
-0.029811887
-0.025558626
-0.020975266
-0.01946082
-0.020372704
-0.01734914
-0.0110090915
-0.0068121264
5.513622E-4
0.006310423
0.0074476046
0.012723937
0.015905796
0.017569974
0.023360195
0.022715993
0.019703519
0.021233026
0.019306492
0.016176395
0.014385159
0.010621839
0.0048591746
-0.0031288448
-0.006573531
-0.0028889235
-0.001138821
-0.004088863
-0.007385124
-0.0070192455
-0.007059514
-0.01218394
-0.014531474
-0.013008822
-0.0112487655
-0.00258476
0.0057599335
0.0016835303
-0.0029875538
-0.0011606744
-0.0013775234
-1.83792E-5
0.0037076357
0.0010901578
-0.0021540776
-0.0041998243
-0.009802018
-0.0102823395
-0.0052627334
-3.2278438E-4
0.0057829292
0.009067505
0.011516827
0.013841092
0.008585995
0.0015867983
-1.9771758E-5
9.700589E-4
-2.03399E-4
-0.0027989775
-8.727763E-6
7.8701857E-4
-0.0045424146
-0.0027518752
0.0016501242
0.0010490648
0.0039502718
0.007877504
0.0060464577
0.0031015011
0.002878084
0.0032296365
0.0037425898
0.003622854
-0.0010974653
-0.0058736424
-0.0062315743
-0.008936785
-0.014449494
-0.014855802
-0.009121955
-0.0038878217
-0.001987537
-9.1647863E-4
-2.9875603E-4
0.001137138
0.0026611155
0.0018190771
0.0027195136
0.004246559
5.522751E-4
-0.0036252383
-0.0015453233
0.003901464
0.00749822
0.008346596
0.0066465097
0.0068584788
0.009267427
0.00532409
0.0011723033
0.0017032118
-0.002682242
-0.004486015
-7.322564E-5
-0.0011909432
-0.0015781192
-2.0670793E-4
-0.008073691
-0.014123147
-0.009764914
-0.0058301613
-0.0040585203
-0.0021617233
-0.0012553501
0.0010126013
-2.461986E-4
-0.0033469503
0.0013203811
0.0057017044
0.0054217326
0.009448786
0.014613487
0.011965505
0.0046211067
0.0021031203
0.0017209477
-0.002053631
-0.0039758524
-0.0035221535
-0.0025937278
-0.002621251
-0.004385468
-0.001222594
0.0017502068
-0.001935675
-0.0049579153
-0.007403441
-0.0080764005
-0.004050871
-0.0031280525
-0.004266238
-9.278148E-4
0.0026648655
0.0030999945
0.0037149566
0.0051475433
0.004972936
0.0022252176
-0.0017930566
-0.00297138
-0.001791267
-9.927482E-4
0.0020891393
0.0052136923
0.0030161536
-0.003167334
-0.0067686085
-0.004777049
-0.0038281677
-0.0051034857
-0.004321198
-0.003274714
-0.003337062
-0.0033403013
0.0026645523
0.01111679
0.009032446
0.0044160658
0.0071915826
0.011256206
0.011328901
0.0069789593
0.005139572
0.005075804
0.0023706765
0.004766295
0.00785776
0.004782763
0.0021963306
-0.0021686947
-0.010393768
-0.013309705
-0.009558375
-0.008173433
-0.009391197
-0.0074447254
-0.0060065244
-0.005588063
-0.004720825
-0.007732538
-0.008734828
-0.005391522
-0.0055086915
-0.004796988
-2.164092E-6
0.0038865358
0.0072361254
0.0079561025
0.007228264
0.009848088
0.007061582
1.9792219E-4
0.0014869452
0.0022029323
-9.3556644E-4
0.0023509432
0.005517764
0.00455545
0.005374047
0.00519879
0.0040184692
0.004099162
0.0024853724
0.0010841015
8.5126323E-4
-0.0011580072
-0.0019160586
-3.6145284E-4
-1.8764853E-4
-7.750368E-4
-0.0025945024
-0.0070640147
-0.008741688
-0.0049164225
-0.0021302588
-0.003817593
-0.0053090695
-0.0037636163
-0.0027197367
-0.00435013
-0.0037301173
-1.5635001E-4
-0.0010339572
-0.0045429775
-0.0046343007
-0.0032222786
1.4082796E-4
0.004130178
0.004597342
0.006036752
0.008307666
0.005472413
0.0039526634
0.009081451
0.011660817
0.007648886
0.0015501014
-0.0029689102
-0.0010227894
0.0020223432
3.1715073E-4
4.7389476E-4
5.2520883E-4
-6.704912E-4
9.6887053E-4
7.6756766E-4
-2.0615538E-4
-5.5949955E-4
-8.658258E-4
2.3663556E-4
-0.0018798354
-0.004136327
-0.005086573
-0.007913535
-0.007821487
-0.0061851884
-0.004630689
-0.0039802194
-0.0045907404
-0.0030244307
-0.005635034
-0.0071925465
-0.0010665855
0.0011078012
0.0012191522
0.0022178725
0.00251572
0.0060217674
0.0046291715
-8.5237314E-4
-7.347311E-4
0.001790077
0.003794248
0.0047789966
0.005431223
0.0073647266
0.007425107
0.005887142
0.008311748
0.010406091
0.005766757
0.0038754311
0.0053827567
0.0038676502
0.004877655
7.9261366E-4
-0.009694103
-0.012399167
-0.009343338
-0.0038851525
-0.0013125238
-0.005531765
-0.0068419576
-0.005022804
-9.4249955E-4
0.003773034
0.0010789733
-0.004846497
-0.0087558
-0.008122184
-0.00424872
-0.0031452863
-0.0018521077
-0.0021667462
-0.0051742056
-0.0048930733
-0.006346233
-0.0076239747
-0.0015328834
0.003387105
0.004719009
0.010096846
0.01474484
0.012518915
0.009594122
0.008911441
0.008405303
0.008145968
0.0054217973
0.0013958982
-6.8400643E-4
-0.0028875512
-0.0031375792
1.0630311E-4
0.0012639909
-4.0716302E-4
-2.4635764E-4
0.0011606041
-3.417196E-4
-0.0024458517
4.0379283E-4
0.0027432716
-0.0029371881
-0.009345307
-0.010995672
-0.011328069
-0.0077333893
-0.00223761
-0.0014306436
-0.0013174473
6.3721056E-4
5.682046E-4
-6.383965E-4
0.0018967856
0.0054742177
0.005626309
0.006807906
0.0036571804
-0.005726642
-0.006234063
-0.001954069
-0.0010930031
-1.9792122E-4
-0.0028147288
-0.0047409534
-0.003595765
-0.0025595636
0.00194933
0.0042620185
0.002794314
0.0031490086
0.0036973045
0.0033237988
0.001198856
0.0018067359
0.0051793954
0.003380428
7.9404545E-4
0.0010188859
0.0012178163
0.0034112714
0.009665214
0.015167738
0.010496385
-3.0695528E-4
-0.0075284345
-0.010016243
-0.0064169206
-0.0019855388
-0.0020557353
-0.002487115
-0.001989635
-0.0025523205
-0.0037399253
-0.0040170886
-0.006147654
-0.0069092507
-0.0030762483
-0.0076004188
-0.01419156
-0.0071873576
-0.0010188762
-0.0029715218
-0.0023674879
6.578328E-4
7.739526E-4
4.4578218E-4
0.0029639746
0.0037300528
0.0044499966
0.00654925
0.0071239886
0.013080041
0.016704636
0.011108788
0.008989497
0.0058355774
-5.063818E-4
-8.2080805E-4
-0.0013560845
-0.0017042026
0.0018813065
0.0024944225
0.0014179765
3.150762E-4
-0.00421809
-0.006501888
-0.0050576334
-0.006519885
-0.007050742
-0.006810623
-0.009675293
-0.0073328493
-0.0038440337
-0.0051258705
-0.0031043629
-1.8328361E-4
0.0011522863
0.0022781226
0.0020164961
0.003632364
0.003231973
6.8749796E-5
-5.684231E-4
1.5184675E-4
0.004047496
0.00760147
0.006282724
0.0049470174
8.078868E-4
-0.0056382455
-0.0047895955
-0.0016117943
-0.003575311
-0.003823281
-9.902049E-4
0.0011196742
0.005582537
0.0068435906
0.0018614292
0.0018914385
0.003890971
0.0019923428
0.0034887618
0.0030334087
-0.0036863661
-0.0049256138
-0.0018814846
-0.0022671602
-2.088057E-4
0.0029601804
-5.3422194E-4
-0.0039685355
-0.002652629
-0.0020324455
-0.0024402784
-0.0027098937
-0.0034507231
-0.003742502
-0.0024607647
0.0010856566
0.003431736
0.002527723
0.003293154
0.006147572
0.00629972
0.0036933746
9.924741E-4
-7.003825E-4
-0.0014049863
-2.4387482E-4
0.0025361588
0.0030291849
0.002020962
0.0020964162
-8.695849E-4
-0.004856596
-0.005897853
-0.008900337
-0.011503089
-0.007879861
-0.0028946986
-0.002516997
-0.0040713646
-0.0019921998
-0.0011646164
-0.0037588887
5.6586886E-4
0.007197489
0.005986103
0.0053131296
0.0071176887
0.0047261217
0.003834966
0.006523542
0.0063846502
0.005273787
0.00668426
0.0073977346
0.0042578513
9.2490984E-4
4.4456832E-4
-0.003001082
-0.0059945863
-0.0024336088
-0.0028733565
-0.007008305
-0.006952405
-0.006721235
-0.0046723657
-0.0021163982
-0.0024380153
-5.8613345E-4
0.0014593132
0.0018114299
9.804175E-4
-8.0930506E-4
-0.001273421
-0.0042845863
-0.006066401
-0.002224092
-1.0716588E-4
4.924626E-4
9.155347E-4
3.788685E-4
0.0012341077
0.0025747821
0.004891692
0.00567254
0.0035237912
0.002058938
-2.1236736E-4
-0.0023884187
-0.0024579114
-0.00175179
-3.2972312E-4
9.7110815E-4
0.0021401301
0.0029582628
0.0032165113
0.0020296352
1.9255698E-4
0.0018031994
0.0024077639
8.8104483E-4
6.6752156E-4
-0.0036504385
-0.007648519
-0.005201151
-0.001584788
2.8081035E-4
-8.545288E-4
-0.0016325528
-5.428462E-4
-0.0017235863
-0.0020417108
2.7156845E-4
0.0028409793
0.0037047514
0.0015973516
4.4104204E-4
0.0015815005
0.002443324
0.0012698746
1.1197082E-4
0.0021420184
0.0026672406
8.301009E-4
5.186433E-4
2.9055793E-6
-0.001413121
-0.0034348185
-0.0037233676
-0.0026879702
-0.0035159993
-0.001773154
4.026337E-4
-0.0011041969
-9.304409E-4
6.187061E-5
-0.0010855953
-0.0029273743
-0.0033087304
-0.0012552827
-2.7802653E-4
-2.471677E-4
1.1420653E-4
1.2770925E-4
0.0024606443
0.004692067
0.005420018
0.00757727
0.0060908925
0.001090227
3.7264658E-4
1.2165465E-4
-0.0035335894
-0.00398194
-0.0015553033
-0.0020479723
-0.0031246613
-0.0011410364
0.0014240799
0.0014301896
7.4646436E-4
0.0010705374
-5.9524033E-4
-0.0028185162
-8.067725E-5
0.004128829
0.0026068161
-7.036176E-4
-2.67121E-4
-7.001212E-4
-0.0022126506
6.00628E-5
0.0027494356
0.0020417573
-9.613119E-4
-0.0038108395
-0.0046715424
-0.0031239933
2.9846127E-4
0.0016172521
0.0010664618
0.0012483023
-1.9060366E-4
-0.0020727233
-0.0059868526
-0.010631243
-0.007948485
-0.0033386517
0.0010475755
0.0077771824
0.007438663
0.002256608
0.0012049832
0.0021929934
0.0024488762
0.0016557714
0.0023356618
0.00562419
0.008328812
0.007347291
0.0026672762
-0.0010440162
-0.0015263563
-2.0731152E-4
5.106244E-4
7.390078E-4
0.002446591
-1.3940239E-4
-0.0044874703
-0.0037826668
-0.0068830755
-0.010458753
-0.0056919814
-0.0018691141
-0.0018506183
-0.0026366094
-0.004233742
-0.0039619086
-0.0019197254
9.0333784E-4
0.0019381348
0.0013183696
0.0028644875
0.0021761584
-2.3151183E-4
0.0023492875
0.004645311
0.0030592387
0.0024883167
0.0027583998
0.0028845351
0.0033963984
0.0022415083
6.8229315E-4