0.0020030485
3.637383E-6
6.664918E-5
0.0019720993
0.0010285572
1.5468434E-4
5.867045E-4
-3.9725556E-4
5.682911E-4
0.0025833007
0.0017206885
-2.8377987E-4
-0.001043853
7.871638E-6
5.111723E-4
-1.986521E-4
7.124119E-5
0.001138462
0.0023980003
0.002036023
6.889354E-4
8.2131935E-4
2.9598444E-4
-6.9667696E-4
-0.0012771621
-0.001137359
6.271227E-4
0.0010809447
0.0012823539
4.3083847E-4
-0.0016191513
0.0014307005
0.0021292644
-0.002001234
-0.0018563593
-0.0020575328
-0.0023992963
-4.1558247E-4
-0.0010861489
-0.001079452
-5.3739495E-4
-0.0013203637
-0.0015487117
-0.0022153147
-0.0012362858
4.4689872E-4
0.0010243757
8.6373644E-4
-3.2056394E-4
5.3465646E-4
0.0010551547
7.7839027E-4
0.0019902529
1.7319187E-4
-3.702288E-4
0.002178865
0.0019675128
0.0019949146
0.0017121831
6.09302E-4
8.9372013E-4
-0.0010690693
-0.0021774461
-8.095346E-4
-0.0015017175
-0.0015717017
1.3996499E-4
7.957288E-4
0.0012854664
0.0019262852
0.0010503011
6.272272E-5
2.5369844E-4
-9.5242664E-4
-0.0024672083
-0.0017670592
-8.7208697E-4
3.0086536E-4
0.0021265787
0.0021372698
7.3501683E-4
-1.641859E-5
-2.4033684E-4
-6.4438407E-4
-5.239474E-4
4.0763756E-4
5.132993E-4
-3.6028013E-4
3.6860947E-4
0.0013169779
-5.897556E-4
-0.0013448542
-1.9278305E-5
-3.8743403E-4
-5.5658375E-4
-9.432509E-4
-0.0017661981
-6.682447E-5
8.136308E-4
1.7524988E-5
2.8201446E-4
-3.4501887E-4
-0.0025872984
-0.0035821388
-0.0022939777
-0.0012532816
-2.5709142E-4
0.0016339377
0.0027077685
0.0038345729
0.0037295383
0.0019033678
4.8861856E-4
-5.169696E-4
0.0010483738
0.0013519846
-5.544991E-4
0.001988359
0.0035816724
0.002843785
0.0024757034
-6.180886E-4
-3.9781947E-4
6.5120804E-4
-0.0015037023
-3.708526E-4
-0.001741324
-0.004798233
-0.00272656
-0.0015671039
-0.001658318
-0.0023111126
-0.0033125898
-0.0025196865
-0.0044744546
-0.005238006
-0.0023420565
-0.001017311
0.0019214466
0.0035535742
0.0016781405
0.0022946128
0.002153404
0.0012364963
0.0017149776
3.1793525E-4
4.3723217E-4
0.0020655948
0.0021813174
0.0027322888
0.0031373808
0.0028262404
0.0016117075
0.0012464655
0.0024334935
0.0010503166
2.6751572E-4
9.746402E-4
-6.490897E-4
-6.4625207E-4
-6.090351E-4
-0.0027242783
-0.0029478902
-0.002697135
-0.002318379
-0.0011270064
-3.5557538E-4
-3.9107807E-4
-0.0019048451
-0.002125655
-0.0015795854
-0.001995654
-6.3944695E-4
4.850009E-6
-5.016057E-4
7.3152376E-5
2.2071697E-4
0.0011965258
0.0015221296
6.290047E-4
0.0015764554
0.0010166581
-7.5019564E-4
9.4839066E-5
0.0010593052
0.0014164391
0.0016975161
7.825658E-4
9.072884E-4
0.001561516
1.1548411E-4
5.0507876E-4
0.0024592418
9.53106E-4
-7.786075E-4
-0.0010144189
-0.0014049425
-4.743568E-4
7.1871136E-6
-4.2422873E-4
-0.0010333324
-0.0028424466
-0.0026822358
-3.2214128E-4
6.192291E-4
2.6122824E-4
-1.7843985E-4
-1.5504062E-4
1.8886125E-4
2.8448965E-4
2.3530502E-4
1.0132572E-4
-4.0911286E-4
-3.287519E-4
9.797207E-4
7.154644E-4
-6.7460106E-4
4.607651E-5
8.5005374E-4
4.1677587E-4
6.693703E-4
0.0018686401
0.002273707
9.7218395E-4
-2.5922316E-5
-7.8845996E-4
-0.0018813842
-0.001212618
3.8797766E-4
5.3012866E-4
-3.5211918E-4
1.822769E-6
-1.990618E-4
-7.257943E-4
0.0025626183
0.0022366731
-1.288515E-4
0.003945526
-0.0024976623
-0.015576233
-0.009479375
0.0013542606
0.0019915141
0.003216773
0.003936299
0.002723757
0.0027198626
0.0020515712
0.002148041
0.0010652943
-7.25312E-4
7.929782E-4
2.0759685E-4
-8.413273E-4
0.0021088107
0.0011560706
-9.822998E-4
0.0015836596
0.0016733005
5.0852227E-4
9.981658E-4
-0.0011514447
-0.00238553
-8.1311696E-4
1.6749973E-4
9.979794E-4
8.0446614E-4
-0.0011882549
-0.0020520792
-7.802671E-4
-2.3935764E-4
-7.89915E-4
-1.5444875E-4
-7.747148E-5
-0.001285569
-0.0014882084
-3.3837772E-4
0.0010676996
3.0242075E-4
-7.656073E-5
0.0028450335
0.0029693553
2.1802718E-5
-0.0011167987
-0.0020269747
-0.002146189
-6.152544E-4
8.601627E-5
-9.485511E-4
-0.0028207344
-0.0017692534
0.0010794319
9.5849985E-4
1.2780902E-4
1.3569622E-5
1.3173478E-5
0.001067261
0.0012915581
0.0016216768
0.0027715568
0.0022047344
0.0012348354
5.014179E-4
2.8545057E-4
0.0017067804
0.0020571759
0.0017530171
0.0022107512
0.0010867037
-6.6675304E-4
-9.3253824E-4
-7.191262E-4
-0.0012171399
-0.0023133263
-0.003448537
-0.0024761586
8.3696033E-4
9.954836E-4
-0.0015325249
-0.0014785733
-0.0010847547
-0.0024785453
-0.004466903
-0.004318615
-0.0019399832
-0.0026386196
-0.0018469231
0.0026370415
0.0030190381
0.0033729554
0.0040223785
0.0010603559
8.1456365E-4
4.9027416E-4
-9.4007375E-4
7.702915E-4
-3.9574775E-4
-0.0025266998
-0.0016232171
-0.0011662858
-3.307025E-4
-5.7947123E-4
-7.193477E-4
0.0023820526
0.004039556
0.004046846
0.0036164934
0.002207121
0.0030645677
0.004016373
0.0029120597
0.0019906575
0.0010540481
9.945274E-4
8.6118287E-4
-6.0203625E-4
-6.858544E-4
-3.8530593E-4
-3.4248113E-4
0.0011030516
8.0323743E-4
-0.0028139984
-0.006302158
-0.00841728
-0.010124764
-0.009676865
-0.0059789983
-0.0024865223
-6.439646E-4
0.0017255298
0.0017508693
-0.0059602964
-0.0148914335
-0.0119610075
1.0163372E-4
0.0074591944
0.007764649
0.009039938
0.012702594
0.012269532
0.008105391
0.005632041
0.003899232
0.0025607923
0.0029200383
0.0025059665
0.002133775
0.003305424
0.0032133248
0.0019275122
0.0010274422
-4.812484E-4
-0.0017380829
-0.00171468
-0.002439882
-0.004352745
-0.0058021275
-0.0058112056
-0.0047570067
-0.004344104
-0.0038696057
-0.002676327
-0.0021978961
-0.0011616653
-2.7253704E-5
-6.5257604E-4
-0.0017640633
-0.0023191692
-0.0020411322
-0.003778338
-0.006558574
-0.0034972937
0.002009412
0.0044249245
0.0055594803
0.004455224
0.0017183947
6.874092E-4
0.0017617955
0.002970406
0.0023034606
0.0018929983
0.0019662771
0.0012307517
0.0024385024
0.0036905082
0.002453951
9.6305873E-4
-4.859729E-4
-8.9217024E-4
3.0021012E-5
-0.0010968088
-0.0038463988
-0.004725495
-0.0048147147
-0.005668602
-0.00453243
-0.0019370487
-6.1471444E-5
0.0018188603
0.0014552674
4.4120243E-4
0.003026138
0.004802149
0.004792201
0.005849278
0.0050822594
0.004156575
0.0054491684
0.005295613
0.0029071935
-1.13201975E-4
-0.001694124
-0.0014029318
-0.0018152975
-0.0016136781
-9.4383187E-4
-0.0028281459
-0.0040755887
-0.0035341117
-0.00407905
-0.00808279
-0.016033351
-0.014497576
1.9894449E-4
0.0018212697
-0.015853183
-0.025602428
-0.0139594525
0.007337483
0.019375063
0.018125817
0.016305171
0.015763355
0.010397679
0.004701338
0.003851035
0.005368912
0.003464622
-3.8340288E-5
0.0014826808
0.0019736965
-0.00213711
-0.0020670397
-1.5921073E-4
-1.0849723E-4
0.0029150425
0.0038408542
-9.299951E-6
-0.002553403
-0.0037238437
-0.0035532555
-0.002516526
-0.003566398
-0.0055299555
-0.0061477814
-0.0044297953
-0.0026213888
-0.0014956503
3.7142492E-4
0.001128955
0.0021042773
0.0024934749
0.0012481104
7.040182E-4
-0.0022843473
-0.0032787537
-0.0013663024
-0.0023725908
-5.707074E-4
-0.003888368
-0.01254652
-0.007397785
9.1014855E-4
0.0016566481
0.0028562802
0.0028521882
0.0034516943
0.0057536396
0.0062289834
0.0051283566
0.00214913
0.0011489321
0.0026565539
0.0028366656
0.0018357522
0.0018945526
0.003266073
0.0022854921
0.0015122179
0.0010167961
-3.973606E-4
0.0024412363
-0.0027030099
-0.012633186
-0.005744552
0.0023156982
9.312612E-4
0.001233261
4.1685032E-4
0.0021253082
0.0049006743
7.535611E-5
-0.003002045
-0.0016324465
-6.9782883E-4
0.0023359584
0.004261276
0.0032342463
0.0030573513
0.0011629425
-0.0016387394
-9.3518005E-4
-0.0020951056
-0.0053858343
-0.00699854
-0.010932089
-0.01340336
-0.012488632
-0.0071170013
0.010104328
0.018773803
0.0050937138
-0.005651255
-0.008165739
-0.009904403
-0.0034482132
0.0018071528
-6.9491456E-5
0.0052149985
0.015585411
0.017094996
0.010326854
0.004997597
0.0041446723
0.0029817265
6.9732557E-4
-4.3859097E-4
-0.0011763914
-0.0017829108
-0.0026917716
-0.002817251
-0.0011696311
-0.0016565253
-0.003267174
-0.0031607277
-0.0037978617
-0.0028224343
-8.9546904E-4
-0.0028418698
-0.0032255219
-0.0010168727
-0.001955788
-0.002214644
-2.8471628E-4
-4.607057E-4
-8.563996E-4
4.6173317E-4
9.822284E-4
7.404152E-4
0.0013904999
0.0015166502
9.735993E-4
0.0017652086
0.0016459126
4.7630927E-4
0.0010865317
9.814058E-4
7.2673213E-4
0.0015719545
5.111611E-4
4.7169614E-4
0.0012997183
-3.500588E-4
-4.3183286E-4
7.162106E-4
3.2358037E-4
1.1449981E-4
-1.3666257E-4
-3.4678867E-4
-7.048369E-5
-1.0494316E-4
-4.21038E-4
-7.522643E-4
-0.0017499209
-0.0034306166
-0.003197492
-0.0027098127
-0.003499561
-0.0013975285
2.4247328E-4
-8.106167E-4
-1.20896766E-4
-7.4556E-4
-0.0022844109
-5.4243475E-4
5.525445E-4
2.7806062E-4
0.001389317
0.0020865204
0.002212748
0.0033391768
0.0035862383
0.003148724
0.0038262133
0.0031453464
0.002144212
0.0031732025
0.004212997
0.0023761825
-0.0038906373
-0.0033012838
0.0048562945
-6.1355653E-4
-0.009354672
-0.0024912339
0.0030685822
0.0015837197
0.0021277303
0.0018004327
6.309058E-4
9.596076E-5
-8.99491E-4
-0.0012508767
-1.5733528E-4
0.0014255081
-3.1323198E-4
-0.005769357
-0.008349951
-0.006092741
-0.0065621175
-0.009501018
-0.007807265
-0.0043947017
0.0020624655
0.010970784
0.008744797
-5.954389E-4
-0.005878112
-0.0070881345
-0.0013146426
0.0051748473
0.004941612
0.005066681
0.005533992
0.001272653
-0.002315186
-0.0014806733
6.6019903E-4
0.005651407
0.011236153
0.008743121
0.004755409
0.0058294963
0.0040278505
7.0214993E-4
2.8918398E-4
-0.0010658893
-0.003910613
-0.0055726552
-0.0050397557
-0.005922779
-0.008129616
-0.0053892937
-6.2251644E-4
5.928577E-5
-0.0017794474
-0.0021841594
-4.4743976E-4
-7.0043217E-4
-0.002374393
-0.001579395
-6.977252E-4
-2.7954756E-4
7.1957044E-4
3.7178915E-4
-1.32647E-4
6.1090494E-4
0.0017307092
0.0032456613
0.00366014
0.0017257613
6.927736E-4
0.0022987858
0.0029506364
0.0020596788
0.0015555159
6.785415E-4
4.8559695E-4
7.803562E-4
-2.5431777E-4
-6.0661114E-4
-9.008102E-4
-0.0017441693
-7.708156E-4
-9.6677744E-4
-0.0028923636
-0.0019353853
-3.7498682E-4
-0.0010592416
-3.1757695E-4
2.1506147E-4
-0.0029746545
-0.00355491
-6.469126E-4
1.6992562E-4
0.0011443092
9.3723706E-4
-9.797392E-4
0.0012448777
0.0033202423
0.001740507
1.291126E-4
-0.0011697122
-0.0017465831
-0.0016606806
-4.7359423E-4
8.08426E-4
0.0014045715
0.0042419643
0.0036231454
-5.5383774E-4
1.7192223E-4
1.4028205E-4
-0.0012710565
6.744299E-4
3.8913455E-5
-9.779938E-4
3.5591263E-4
1.8686084E-4
0.001153625
0.0020277954
-6.4042624E-4
-0.0026089181
-0.001351569
-8.173286E-5
-8.108923E-4
-0.001158581
-3.1027573E-4
5.289985E-4
0.002029335
0.00299031
0.0026065216
0.0018404301
1.2364473E-4
-9.666448E-4
-2.9405864E-4
-2.4414418E-4
-0.001321178
-0.0018560365
-0.0010712029
-0.0013616892
-0.0032919142
-0.0029914146
-0.0028214792
-0.0047312095
-0.0034874065
-6.659719E-4
0.0012808801
0.0033593627
0.0024192259
-0.0010172549
-0.004165173
-0.006652252
-0.011508188
-0.018589236
-0.011304298
0.010158521
0.01940424
0.015184431
0.01053843
0.0052725766
0.001351327
-0.002619969
-0.0041512945
0.0047390047
0.011613065
0.006805613
0.0017100212
0.0024269407
0.004162307
0.0021366728
-6.430591E-4
-0.0012838163
-0.0036111136
-0.004828249
-0.0042120153
-0.004656652
-0.0020414228
-4.884625E-4
-0.0025398647
-0.001998941
-0.0019155317
-0.0038361752
-0.0043425765
-0.0040396703
-0.004250887
-0.0047028135
-0.002730997
-0.0011337346
-0.0018391955
-0.001074279
-3.4698317E-4
3.1153837E-4
8.739249E-5
-4.6996065E-4
0.0029130133
0.00421605
0.0038852238
0.005016047
0.0030198344
0.0014725488
-0.0031388039
-0.009049793
-0.004948658
-9.95154E-4
-7.847989E-4
0.0023811462
0.0037500155
0.0044694575
0.0056462293
0.0054735057
0.004595329
0.0023998031
0.0029799845
0.0051809326
0.0041865823
0.0024532208
0.0022635644
0.0041982224
0.0061256955
0.00550811
0.0034158404
0.001575943
1.2495449E-4
-0.0023991666
-0.0031766645
-0.0016797172
-0.0011430784
-3.5612073E-4
-0.0021829333
-0.0056256764
-0.006405676
-0.008767769
-0.01027209
-0.01030492
-0.012257922
-0.010453084
-0.008180577
-0.008450931
-0.0052670236
-0.0016637307
-8.0149964E-4
-7.919678E-4
1.4853678E-4
0.0017355982
0.002392425
0.0051406785
0.0076283035
0.007842025
0.010677446
0.012072591
0.01006283
0.008445388
0.0060577253
0.004343263
0.003202525
0.0010303302
-6.8932126E-4
-9.779308E-4
0.0020234867
0.0045466847
0.0021429113
-0.0020016176
-0.0049984735
-0.005366734
-0.004634613
-0.00477603
-0.004229682
-0.0042301607
-0.003945175
-0.0020982986
-0.0027386665
-0.005084606
-0.0045169243
-0.0019124261
-0.0012348735
-0.0019793941
-0.001340839
-6.442508E-4
-3.112256E-4
9.2451E-4
8.3534356E-4
-6.2901236E-4
-1.4237894E-4
3.6390574E-4
-5.644433E-4
0.0013834743
0.0036868458
0.0029205645
0.0027520878
0.0027008627
0.002682827
0.002998912
0.002798978
0.0055818055
0.0072998716
0.005682032
0.0063214446
0.0074263206
0.006868358
0.0038961836
4.9205555E-5
-0.0026393011
-0.0062402417
-0.0055234674
-0.0069865724
-0.017415272
-0.01713069
-0.007691516
-0.006249865
-0.00611345
-0.0041062073
-0.0019383205
0.0032788627
0.008269622
0.011637815
0.014446112
0.01675822
0.018359635
0.018113738
0.016182039
0.013007883
0.009579254
0.0052043027
-0.0012036973
-0.0071324785
-0.011468528
-0.014688744
-0.017205266
-0.019860426
-0.023187434
-0.02626869
-0.025925865
-0.024358848
-0.024069443
-0.019918365
-0.013805341
-0.010854784
-0.0070990277
-0.0017782071
0.0022870621
0.0056280824
0.007551048
0.010944381
0.019229433
0.028489059
0.04082399
0.056767717
0.06082933
0.050788123
0.041015822
0.031684928
0.019087305
0.007781066
-0.0017924025
-0.011507792
-0.020862374
-0.027997144
-0.031244377
-0.03268819
-0.032500643
-0.029229673
-0.027961545
-0.027917393
-0.0231326
-0.020606156
-0.021389881
-0.016773542
-0.0121806925
-0.00987203
-0.0048167645
-9.888526E-4
0.0016323066
0.0052953986
0.008898613
0.012838055
0.0149111105
0.015724193
0.0162766
0.015720127
0.015875999
0.014394345
0.011311339
0.009335768
0.0067574773
0.0043789013
0.0018969076
-3.0885707E-4
-4.452138E-4
-0.0013663478
-0.0016750322
-3.9586215E-4
-1.4689546E-4
8.039681E-4
0.0027433352
0.0038535378
0.003184807
0.0026277557
0.0039987573
0.0033483612
0.00163869
0.002090125
9.000354E-4
-0.0022320645
-0.0047402885
-0.007268971
-0.009450453
-0.009626558
-0.008097338
-0.006470537
-0.005742672
-0.0065090074
-0.0067492495
-0.005339422
-0.004559521
-0.003047429
-3.1034838E-4
8.062515E-4
0.0012710982
0.0030586615
0.00434468
0.002431008
7.772736E-4
0.0012058362
-3.5045153E-4
-8.637392E-4
5.282631E-4
-2.1178712E-4
-2.5186967E-4
9.684519E-4
0.0010390014
-9.6747745E-4
-0.002349792
3.082913E-4
0.0012167412
4.0052045E-4
0.0019549585
0.001199509
-7.511919E-5
7.906669E-4
0.0017730932
0.00296311
0.002145904
0.0011471756
0.0018193009
0.0020157967
0.0026849164
0.0026576475
0.0014572039
6.829855E-4
0.0012203446
0.0030415389
0.0017648623
-5.422934E-4
-2.624578E-4
-0.0016687567
-0.002271007
-1.0644282E-4
1.0571967E-4
-5.447109E-4
-3.9915415E-4
-2.5592974E-4
-7.2660245E-4
-0.002051125
-0.0020159173
-0.0011186319
-5.169701E-4
8.0917636E-4
0.0011607711
7.1925175E-4
0.0010599149
9.863295E-4
4.7682488E-4
-8.2018995E-4
-0.0023124118
-0.0017348558
-6.18149E-4
-1.7325372E-4
4.6644127E-4
0.0011285378
0.0017615234
0.0016911294
8.036442E-4
8.262233E-5
1.5632211E-5
3.2773834E-5
-9.5983845E-4
-0.0011551662
6.764842E-5
1.917151E-4
1.8441606E-5
6.128069E-4
2.193588E-4
-0.0013887002
-0.0018258836
-8.141353E-4
-1.4741969E-5
0.0018636527
0.0029175573
0.0017501871
0.002380009
0.0016235249
-0.0013998627
-0.0012305047
-5.427545E-4
-5.0863065E-4
2.0701483E-4
-7.38587E-4
-0.0019006826
-0.0017900574
-5.216056E-4
0.0015225474
0.0018944053
8.6146535E-4
8.6625206E-4
0.003049424
0.005232668
0.004453313
0.0037614852
0.004575004
0.0035330188
0.0014258015
-1.3037943E-4
-0.0023342783
-0.0043546828
-0.004636977
-0.004767448
-0.0057547404
-0.005957841
-0.0054261265
-0.005624994
-0.005723301
-0.004245111
-0.0033161768
-0.0036468748
-0.0022813294
-0.001491175
-0.0027720926
-0.0028422794
-0.0020695091
-6.901011E-4
0.0011042486
0.0024037627
0.0037836393
0.004764358
0.0072070234
0.009660534
0.009642897
0.010506518
0.011035065
0.010362476
0.008597562
0.0042035356
0.0017780168
0.0010001855
-1.00731304E-4
-3.9704947E-4
-0.0023511127
-0.003672321
-0.0048438585
-0.0074043744
-0.007335145
-0.008044239
-0.0099395
-0.0077953343
-0.0035909563
-0.0024704293
-0.003224507
-1.0734558E-4
4.706925E-4
-0.0034952022
-5.583333E-4
0.0054341443
0.0063161915
-0.0025856239
-0.016520262
-0.013226033
3.7084543E-4
0.003486516
0.003748707
0.005166673
0.0055843918
0.005670078
0.0033030466
0.0032832357
0.003812088
6.122518E-4
-2.750775E-4
0.0010016378
4.3650015E-4
-3.5145064E-4
-3.4257805E-4
-0.0010895523
-0.0012671977
6.6887395E-4
9.577313E-4
4.947679E-4
0.0023143655
0.0028301098
0.0021246918
0.0024202084
0.0026356725
0.002635465
0.0012349219
-0.0015635343
-0.0019308713
3.577281E-4
9.371558E-4
-6.2947825E-4
-0.0022771503
-0.0031291111
-0.0010553829
4.6953058E-4
-0.0014313965
-4.0945047E-4
0.0010914711
-0.0017018575
-0.001829258
-5.5686076E-4
-0.0016721803
4.5155472E-4
0.0017067352
-0.001973634
-0.0031011186
-0.002244422
-0.0023603188
-0.0015287821
-0.0017850138
-0.0021215999
-0.0017205784
-0.0013779884
0.0010096407
6.436495E-4
-0.0023863406
-0.0013646749
-3.7853577E-4
-8.895433E-4
4.1478363E-4
7.120779E-4
-0.0010875737
-0.0018761634
5.837876E-5
0.0013420666
5.1497336E-4
0.0014034192
0.0030584682
0.0030236922
0.0026197943
0.003022975
0.0034677046
0.0028127981
0.0025903946
0.0024983757
0.0023098218
0.003489667
0.0026522158
0.0015997993
0.0037553303
0.004509932
0.0039345464
0.0023805145
-0.0012955836
-0.0029828032
-0.0036368202
-0.0050032223
-0.0059380145
-0.006792334
-0.005606359
-0.0035011969
-0.0026014675
-0.0022061272
-0.0033208015
-0.0043909415
-0.0043462664
-0.0038285386
-0.0021155463
-0.0016151307
-0.0020406742
-0.0016273714
-0.0016000419
1.9089857E-4
0.0033763426
0.0043198685
0.003244208
0.0022896812
0.0032228036
0.0036334158
0.0023504142
0.0022219964
0.0019929889
0.0020324544
0.0030100239
0.0012334681
-5.087995E-4
0.001067531
0.0017169919
7.982974E-4
9.2410535E-4
6.414104E-4
2.8647063E-4
0.001280737
8.201259E-4
5.9599173E-4
0.0017267405
2.8915956E-4
-3.231635E-4
-7.678856E-4
-0.0026728893
2.1770491E-5
0.001024005
-7.486519E-4
0.0011707875
-0.001229017
-0.0046006376
-0.0019963116
-7.7190396E-4
-0.0011292235
-0.0018278909
-0.0028675403
-0.0021429907
-0.0016703331
-9.702627E-4
-9.230649E-4
-0.002460121
-0.0020902285
1.0686994E-4
7.4410293E-4
-6.6915905E-4
-1.4514325E-4
5.895819E-4
1.6383693E-4
0.0030435866
0.0035162794
9.915256E-4
0.0015936213
9.696238E-4
-2.7752036E-4
-1.00303914E-4
4.474566E-6
0.0010452431
8.282927E-4
9.649372E-4
0.0016850275
-4.9013684E-5
-5.233551E-4
8.937715E-4
4.3431687E-4
-0.0018756876
-0.0015875243
3.3046407E-4
-9.874788E-4
-2.2789868E-4
0.002698302
0.0015493792
-1.6745536E-4
-5.1328976E-4
-1.3438579E-4
3.029061E-4
-6.647823E-4
-8.6480624E-4
3.9555165E-5
0.0015716589
0.0018150718
5.6685915E-4
0.001037659
3.4359292E-4
-9.805857E-4
-0.0010966635
-0.0019927716
-5.58876E-4
9.820068E-4
-1.304006E-4
-9.68758E-4
-0.0018173933
-0.0015982836
-0.0017376451
-0.0029228441
-0.0018787035
-8.247308E-4
-6.10431E-4
-7.8308006E-4
-8.953671E-4
5.171132E-4
6.457075E-4
6.3392275E-4
0.0013202929
4.7066246E-4
9.342494E-4
0.001435271
0.0010491305
0.0027527919
0.00354313
0.0020502866
3.838596E-4
-4.6650885E-4
3.735062E-5
5.5983604E-4
6.542843E-4
3.0363354E-4
-5.9016984E-6
9.57923E-4
0.0015204072
7.4747036E-4
-8.9845806E-4
-0.0020737664
-9.862462E-4
-0.0016540049
-0.004626034
-0.0030375097
-3.0210185E-5
-0.0013381983
-0.0012535076
9.5011096E-4
3.2807718E-4
-8.6452224E-4
-0.0016550676
-0.001189719
0.0016191968
0.0021822457
0.0026258845
0.0041153836
0.0019395432
-2.1572963E-4
-0.0013374041
-9.619026E-4
0.001998228
-1.6995899E-4
-0.002295774
0.0010112996
0.0012856211
6.906914E-4
8.360864E-4
-3.711416E-4
-9.303869E-4
-0.003039966
-0.0033564519
-0.0025202283
-0.0041477787
-0.0023678422
1.1894407E-4
0.0011803802
0.0033721589
0.002523085
7.963125E-5
-0.0013834875
-0.0013759197
6.7616616E-6
-1.0546104E-4
1.1579937E-4
6.6252844E-4
0.0019053144
0.0039425394
0.0021675646
0.0010971945
0.0020004276
5.876471E-4
-1.7847419E-4
-7.901189E-4
-0.0011977091
-3.4283894E-5
0.0016870926
0.0032149074
8.7150815E-4
-0.0014212182
-0.0012052273
-0.0030676846
-0.0025255918
-7.29347E-4
-0.001789277
-1.4403793E-4
0.001746986
1.16524396E-4
-1.5945412E-4
-8.765289E-5
-0.0028306392
-0.003064224
-3.6832926E-4
-0.0010545028
-0.0018947382
-6.086477E-4
2.3028092E-4
0.0024892474
0.0019918906
-0.0017665188
-0.0018825398
-8.186547E-4
-4.5026638E-4
6.160003E-4
0.001533651
0.0027824242
0.0031039803
0.0032865244
0.0033315136
0.0013406867
6.9264486E-4
7.4440055E-4
-6.091286E-4
-2.3938183E-4
6.025339E-4
3.0582285E-4
0.0010754471
0.0022190642
0.0018527888
7.356045E-4
1.8266964E-4
-4.0343404E-4
-0.0014607174
-0.0021846443
-0.0020829926
-6.138062E-4
9.535414E-4
4.015978E-4
-0.0015673441
-0.0034187483
-0.004439012
-0.003994155
-0.0023547383
-0.0013837297
-0.0016348811
-3.3916353E-4
0.0023083666
0.0035383857
0.0032948588
0.0013153957
-7.514967E-4
-0.0011378041
-0.0020224324
-0.002713225
-0.0016839602
3.0508134E-4
0.0018679949
0.002048447
0.002972302
0.0026332866
6.532131E-5
6.0181133E-4
0.0021441677
0.0020453087
0.0014426161
3.308045E-4
0.0014744414
0.0018045614
5.336884E-4
0.0026511587
0.0032203733
8.3808444E-4
3.9713348E-5
1.536822E-4
6.248712E-4
2.917239E-4
-3.825074E-4
2.8647139E-5
2.81713E-4
-5.508225E-4
-0.0025075877
-0.0028462482
-0.0022985826
-0.0029859676
-0.0025584763
-0.0018276697
-5.61777E-4
6.4777187E-4
-5.105502E-4
-0.00147765
-0.0026700266
-0.004112625
-0.0046409094
-0.0035591554
5.888804E-4
0.002062617
0.0023402516
0.0052227965
0.004553752
0.0027596452
0.0011952526
-5.4249505E-4
9.024732E-4
-5.631344E-4
-0.0022272654
8.482846E-4
0.0020931303
0.0022125607
0.002169662
3.3986E-4
-0.0015136979
-0.0016990324
-1.257324E-4
-0.0013955228
-0.0022311255
2.9929192E-4
5.243532E-4
0.0019336474
0.0027701578
-9.0768095E-5
2.4534392E-4
4.950314E-4
-3.1019817E-4
4.598367E-4
-5.1514624E-4
1.0091678E-4
0.0022937327
0.0032314775
0.0030431265
0.001932272
0.0020969654
-3.4107597E-4
-0.0018943287
4.5072671E-4
-0.0041140593
-0.008998308
-0.006869278
-0.0027519108
0.0030158497
0.0029048934
0.0013479188
0.0016890145
-0.0075198603
-0.009800196
3.280908E-4
0.002307568
6.637232E-4
0.0018473186
0.00250475
0.0023145245
3.9174E-5
7.800701E-5
7.365534E-4
-3.7977486E-4
0.0013396355
0.003756792
0.004272363
0.002423198
8.876924E-4
0.0013315905
-9.695638E-4
-0.003121511
-0.0029473284
-0.0030099996
-0.0025621012
-0.0027678788
-5.268214E-4
0.0023520407
2.9849002E-4
-2.1121417E-4
0.0012423659
0.0018510094
0.0035369976
0.002395703
8.426171E-4
0.0021997876
0.0021759286
9.1130333E-4
1.2379172E-4
2.0664294E-4
-9.824691E-4
-0.0033925872
-0.0015809806
0.0011164523
7.498824E-4
5.224585E-4
2.7340755E-4
-3.438817E-5
-9.876251E-4
-0.002266427
-0.0016337256
-0.0019217533
-0.002389878
-0.0012029497
-8.967976E-4
-0.0012756499
-0.0021528495
-0.0014559175
3.3387492E-4
-2.3399657E-4
-1.3543852E-4
-9.7878736E-5
-9.559814E-4
-4.596876E-4
-7.3061016E-4
-2.2189107E-4
5.634279E-4
0.0021456429
0.0033495987
-0.0048944717
-0.008844205
3.4259513E-4
0.0030026175
0.0012464045
0.0033365395
0.003200614
0.0046792133
0.0061260257
0.003371985
0.0014163873
4.5341972E-4
2.1324721E-4
4.0251252E-4
-1.3215544E-4
8.874095E-4
0.002095535
0.0023916091
0.003347585
0.0028038116
5.156603E-4
-0.0013659665
-0.0041969777
-0.0073590134
-0.0074244975
-0.004677056
-0.0022300414
-0.0013223562
2.8190014E-4
0.0014597205
-3.9244516E-4
-0.001193539
-7.585008E-4
-0.0012386488
9.161828E-4
0.0032787018
0.003513254
0.0048522875
0.0055605723
0.00518289
0.005233288
0.0036203896
0.002498974
0.004117807
0.0034520144
0.0010042808
0.0018822128
0.0023277162
0.0016224856
0.002006993
-0.0020212135
-0.007245649
-0.007420908
-0.007952293
-0.010745415
-0.011802647
-0.009573821
-0.005833064
-0.0037446064
-0.004060231
-0.0052558463
-0.004245158
-0.002141661
-0.002143281
-0.0016691466
1.3829207E-4
0.0022583294
0.0039739967
0.0036185153
0.003748036
0.0055050496
0.0073350514
0.009272477
0.011511837
0.014385007
0.014560147
0.012135555
0.0113105
0.008874304
0.0044447947
0.0019153155
3.8280964E-4
-0.0013025383
-0.004472059
-0.007104031
-0.0062979846
-0.005701418
-0.0055306344
-0.004857768
-0.0075098234
-0.010230343
-0.007996692
-0.005875862
-0.00718803
-0.007750115
-0.0068100127
-0.005877276
-0.004791967
-0.003972718
-0.0023677084
-6.766831E-4
-5.958303E-4
6.775478E-4
0.0031441061
0.004002065
0.003637602
0.0033061255
0.00472847
0.005753581
0.003668126
0.0030594158
0.0042955945
0.0033420823
0.0021577748
0.0017897065
0.0017504867
0.0027295868
0.0029829496
0.002396363
0.0015046168
3.856164E-5
6.8037934E-4
0.0025781349
0.0021463023
0.001158198
2.809292E-4
-7.04874E-4
9.232324E-4
0.0014641947
-0.0012848224
-0.0013647324
-3.631208E-4
-0.0019532589
-0.0032928304
-0.003251079
-0.0026324901
-0.0033657015
-0.00415824
-0.0025658852
-9.826123E-4
3.0574296E-4
-0.001387723
-0.0050392374
-0.0033997428
-0.0017283956
-0.0015588045
4.016487E-4
-4.4459532E-4
4.262025E-5
5.824511E-4
-8.604323E-4
0.0023379966
-0.001066212
-0.008351213
-0.0022508728
0.0047816215
0.005270249
0.006829757
0.006178222
0.0031802887
2.1723221E-4
-0.001003287
0.0016221765
0.0032581436
0.0020837183
2.4459106E-4
-0.0013274187
-0.0013512785
-0.0010792318
-5.1775965E-4
-4.0335458E-4
-0.00208406
-0.0018478375
-0.0011824699
-0.0022591848
-9.130029E-4
9.96382E-4
0.0011459385
4.746847E-4
-0.0015661346
-0.0020632502
-8.98037E-4
-4.1304233E-5
8.0093485E-4
1.3403672E-4
4.2509113E-4
0.002494962
0.0032432196
0.0036623706
0.0026454565
0.0011884446
0.0022497224
0.002201479
4.889333E-5
-0.00158215
-8.441755E-4
0.0014993937
-8.0597965E-5
-0.0037492705
-0.0029301099
-0.0018728189
-0.0036739414
-0.0013453609
0.0031526769
0.0012696311
-0.0021783353
-0.0015046619
9.761807E-5
0.0013850903
0.001064271
-0.0010296942
-0.0019459941
-0.0016149038
-0.0011738873
-6.511702E-4
8.053584E-4
0.0020073832
0.0019158799
0.0024770917
0.0019003623
3.5249733E-4
4.1400493E-4
-7.2108596E-5
-4.7281137E-4
-1.9097731E-4
-3.6081747E-4
8.055694E-4
0.0022274684
0.0019187903
1.7346896E-4
-0.0018242418
-0.0035671133
-0.0047632526
-0.0026650222
6.301967E-4
0.0017519611
0.0026492358
0.0026499887
0.002395593
0.0022391311
-5.933377E-4
-0.0016534461
6.061971E-4
7.634936E-4
-4.5866272E-4
4.67601E-5
0.0020337342
0.0026961318
6.631841E-4
-0.0012568648
-0.0023948702
-0.002925065
-0.0018041917
-0.0017083059
-0.002519351
-5.876926E-4
0.0012659167
8.9192163E-4
0.0020356115
0.002051458
-0.0021623746
-0.0044272263
-0.003738697
-0.003067339
-9.126706E-4
-1.7063065E-4