0.0056630247
0.005079043
0.0022415828
-0.0028748803
-0.0052589364
-0.0053564273
-0.0043369834
-0.0011985064
5.26331E-4
0.0019509613
0.0035725008
0.0026940552
0.0010519656
-0.0025716184
-0.0056111068
-0.003954316
-0.001871499
4.151408E-4
0.0030825199
0.0035559854
0.0036902558
0.0031191832
0.001092757
-9.370049E-4
-0.0027259875
-0.00339642
-0.0014558152
0.0017101924
0.0017821719
4.4872792E-4
0.0015131339
0.0023893835
0.0010962284
-0.002512306
-0.0052677826
-0.004210547
-0.0013993757
0.0038418188
0.008126904
0.0072015175
0.0038603323
-0.0011443746
-0.0032022102
-0.0020664264
-0.0054913377
-0.008540834
-0.006321937
-0.003023621
1.3787532E-4
0.0035409348
0.00607089
0.004955122
0.00266374
4.4833668E-4
-0.0056435447
-0.008247904
-0.0032750876
0.0016437909
0.0043310537
0.0043002637
0.0031001568
0.0034553346
0.0028394824
-8.15812E-4
-0.0057500354
-0.005677566
-6.698219E-4
0.0026033544
0.0036115737
0.0023177052
0.0016913075
0.0028897624
-4.5728513E-5
-0.003064056
-0.0035378889
-0.0036787274
8.307504E-4
0.004411482
0.0019297844
4.080027E-4
0.0022359726
0.0054664467
0.0068413457
0.005045059
0.0021267845
-0.0034778544
-0.009491408
-0.010750967
-0.007738961
-0.001987593
0.0034262165
0.005452114
0.0035520718
-0.0026623188
-0.00792646
-0.0073707877
-0.0045902375
-0.0012167295
0.0030184889
0.0050671347
0.004642449
0.0037064587
0.0027639437
-8.779178E-5
-0.004353138
-0.0051589604
-0.0030037398
3.432985E-4
0.004063662
0.004085919
0.0039177425
0.0050946353
0.0032796275
0.00148167
-0.0011605127
-0.004014829
-0.0015369306
9.825018E-4
7.141769E-4
9.4263715E-4
0.0025262958
0.004703969
0.0030183215
-0.0010684485
-0.004160465
-0.006074116
-0.0030084692
0.0015512366
0.0024050784
0.0022934347
0.0030765524
0.00429596
0.0015358138
-0.005742686
-0.010006951
-0.008911998
-0.0048370473
8.4660336E-5
0.0039842795
0.0060513187
0.0052053332
0.0021236471
-6.7748E-4
-0.0033478513
-0.006759712
-0.006787847
-0.0029189026
-3.2591083E-4
0.0021325117
0.0032663571
0.0019698306
0.0045970925
0.005945957
0.0020619116
3.997452E-4
-0.0016703886
-0.0043034586
-9.248377E-4
0.004194612
0.0059099803
0.0049685943
0.0032187733
0.0020396963
3.4802197E-5
-0.0026023295
-0.0027522054
-0.0011990911
-0.0020256713
-0.0036978533
-0.0020027126
2.7416262E-4
0.0017830122
0.0029025304
-0.0025369008
-0.009442877
-0.0067708064
-0.0014964892
0.0014869727
0.005807112
0.0064088725
0.0037301492
0.0038578445
0.003537418
-1.445756E-4
-0.0038884426
-0.005509294
-0.005281813
-0.0016305675
0.0034186787
0.003991239
0.0030795638
0.0028982856
-0.0011050443
-0.0059426487
-0.0073999427
-0.0065477774
-0.0033467307
0.001495079
0.0049124677
0.0052307267
0.004124
0.003847251
0.0042656227
-2.3675199E-4
-0.010850628
-0.012871616
-0.0022268305
0.0055932216
0.007322231
0.008870684
0.008114209
0.004270246
0.0026700168
0.0027628988
-0.0012123162
-0.0038652264
-0.0019305528
-0.0026834921
-0.0028136624
-1.4685229E-5
5.9607544E-4
0.0012351125
6.387953E-4
-0.0034691766
-0.006461434
-0.007158593
-0.005644439
-0.0015905073
0.0018322577
0.0020442363
0.0011600093
0.002451736
0.0028166985
-0.0014646717
-0.0058428114
-0.005381638
-0.0014864332
0.0029828085
0.0062929494
0.007378813
0.0070308936
0.0062063746
0.0042691077
0.001436752
-0.001472976
-0.0046747
-0.0056503676
-0.0017945882
0.0018122486
0.0015332429
0.0015987393
0.0020085413
3.5985355E-4
-0.0013370236
-0.0033420378
-0.0064486167
-0.0069416366
-0.0017122111
0.0053501315
0.007834266
0.0056959256
0.0027681
0.0011313419
-0.0017282941
-0.0072646043
-0.009131883
-0.0061347107
-0.0036067637
-0.0016382248
-1.6624456E-4
9.5375173E-4
0.0023864282
0.0015177273
-0.0010199571
-0.0035244823
-0.00493309
-0.0021104328
0.0025096778
0.004831487
0.006201624
0.0067917197
0.006131055
0.0051696342
0.0027698225
7.8765435E-5
-7.958898E-4
-0.0015087689
4.1743135E-4
0.0063354364
0.0078068087
0.0033431032
0.0016970772
0.0040135826
0.0035548788
-0.0013535527
-0.0061466536
-0.010872758
-0.014084081
-0.0088271545
-0.0010233809
0.0012609854
0.0010711409
-0.0011705649
-0.0027933486
-0.0027285737
-0.0051493985
-0.0043506813
-1.1095279E-4
-3.7772556E-5
-1.2406128E-4
0.0028885154
0.004607945
0.003293344
7.2908617E-4
-0.0024001268
-0.005219486
-0.0027834151
0.0036959872
0.007415524
0.007861141
0.0063042613
0.0043947673
0.0024834746
-7.4824586E-4
-0.0022872835
-0.0030514987
-0.0041366317
-8.7758224E-4
0.0032053657
0.0034138325
0.0033384648
0.002784241
2.6557542E-4
-8.2637946E-4
-0.0019567471
-0.0052033695
-0.004644758
9.768598E-5
0.0032129586
0.004764437
0.005228125
0.003733856
0.0011716557
-0.0022935453
-0.007129715
-0.010339121
-0.006320696
-0.0011421188
-0.0016562218
-0.0011154788
1.4853533E-4
4.2339915E-4
0.0024181833
8.505599E-4
-0.0030710467
-0.005715009
-0.0055500814
5.555159E-4
0.0053833704
0.006993364
0.008713115
0.0075357878
0.004551909
-4.5057907E-4
-0.004620267
-0.0046511535
-0.0032135588
5.079158E-4
0.001370703
2.3385281E-4
0.0032608076
0.0034165937
0.0017318882
4.7152454E-4
-0.002598906
-0.0031435469
-0.0033863035
-0.0011254249
0.0020617908
-0.0021257077
-0.0026015001
0.0033246852
0.004906311
0.003511736
-1.9682673E-4
-0.0052068625
-0.005530008
-0.0016995952
0.0010076496
0.00220205
0.004254793
0.0045301453
0.0019973416
-0.0027701377
-0.008112726
-0.008340284
-0.0054194154
-0.002429738
0.0020657657
0.005670752
0.0065982826
0.005088938
0.0038787297
0.002567161
-6.747986E-4
-0.0015194715
-0.0024050344
-0.0034192838
-2.3944177E-4
0.001056966
7.8036514E-4
0.0016063054
0.0012911179
0.001154507
-0.0019877607
-0.0045926077
-2.1696645E-4
0.004536895
0.0060610436
0.0036969795
-0.0021883661
-0.004194216
-0.0022609185
-0.0023975128
-0.004637408
-0.006560825
-0.00605066
-0.0020931477
0.0022273196
0.0035602313
0.0031031985
0.0040141866
0.005440857
0.0023911302
-0.002211166
-0.0019025084
-0.0017410172
-0.0029228015
-1.701234E-5
0.0036380803
0.0060073915
0.0071391333
0.004254974
-5.5663835E-4
-0.004961127
-0.0071478826
-0.0035505
0.0020020108
0.0028707795
0.0022941548
0.0033226076
0.0011872275
-0.0023957768
-0.0033507673
-0.005066054
-0.0068414295
-0.0045505757
5.574028E-4
0.0034415538
0.0025313026
0.002728027
0.0033370967
0.0010548196
-6.130932E-4
-0.0025391884
-0.0057516354
-0.0051837633
-9.802987E-4
0.0035307447
0.005227405
0.0030566428
0.002445481
0.0037968582
0.0022263664
-0.0013514111
-0.005590423
-0.006400596
3.4113336E-4
0.005482386
0.005410241
0.0062528118
0.0049162977
0.0027088518
7.284167E-4
-0.0070853317
-0.01148495
-0.008078488
-0.0050169867
-4.8234832E-4
0.0026237394
0.0023337333
0.0047164834
0.00602977
0.003408521
-0.0014469951
-0.005157126
-0.004340889
-0.0036183172
-0.0014278139
0.003492077
0.005316659
0.0065586525
0.006283134
0.0031073818
4.4954373E-4
-0.0044485205
-0.0071636257
-0.0043388866
-0.0019997756
-2.4455693E-4
5.5788504E-4
7.3896575E-5
7.774464E-4
6.5773417E-4
-0.002517426
-0.006511106
-0.0055630743
-9.120689E-4
0.002491274
0.0057384223
0.0059734504
0.004270268
0.005751383
0.004304131
-5.8049435E-4
-0.0028227102
-0.004263331
-0.003956604
4.216277E-4
0.0032627238
0.001599145
9.399766E-4
0.0030277302
0.002632863
-0.0017402894
-0.0073260604
-0.00984061
-0.005890843
2.2712987E-4
0.0035945245
0.0052286126
0.0042711413
0.001344814
3.5226764E-4
-0.002057362
-0.0061935973
-0.0041221953
0.0013627155
0.0033166055
0.0034146206
0.0033975418
0.004101623
0.004441522
0.001615862
-0.0025387031
-0.005212123
-0.004654794
-0.0013413302
0.0010958312
0.0021965795
0.002358377
4.569991E-4
-5.159383E-4
3.2133952E-4
-0.0014765848
-0.003433008
-0.0015014446
4.2725718E-4
7.9804636E-4
-2.4744315E-4
-0.0021722005
-2.966084E-4
0.0037532735
0.0039518448
1.0576019E-4
-0.0039391704
-0.0059100394
-0.004096541
0.0024545458
0.005887574
0.004944269
0.0063652922
0.004098722
-9.695146E-4
-0.0024422111
-0.0043473253
-0.004612206
-0.0032908495
-0.0028144107
-0.0013328806
-9.0400287E-4
0.0016809563
0.004936631
0.002070033
-0.002658073
-0.004585983
-0.0033812504
-0.0014995197
0.0013519282
0.0062691746
0.006787344
0.0043729814
0.0029474944
2.9138682E-4
-0.0024124759
-0.005349859
-0.0057701576
-0.002585906
-3.151476E-4
0.0022046722
0.0037673328
0.0035171953
0.003634325
0.0017649297
-6.2049285E-4
-0.002093957
-0.004623556
-0.0055862274
-0.0024815246
0.0015484906
0.0037629574
0.0049982267
0.002846534
-0.0021407257
-0.004430217
-0.004609728
-0.004062597
-0.0028229563
6.031558E-4
0.0056183385
0.0052237986
0.0037967952
0.0052909013
0.0020005733
-0.0028513689
-0.005059775
-0.006185592
-0.004236067
-0.0010420665
0.0017745494
0.004596814
0.0062421635
0.005692981
0.0016977397
-0.0037055686
-0.0070085675
-0.0065128086
-0.0038493956
-0.0017338967
9.034758E-4
0.0029478695
0.0030509264
0.0030329167
0.0020828182
-0.0010497336
-0.0052960343
-0.0069441274
-0.004118581
8.389529E-4
0.0047747293
0.0054930234
0.007206023
0.009300506
0.005310802
0.0010681836
-5.528329E-4
-0.0030003742
-0.0027454637
-0.0014543097
-0.0017911547
-0.0011647096
-1.716763E-4
5.0210932E-5
-0.0010897353
-0.0038631714
-0.0062161624
-0.0050598504
-0.0015609143
7.6499814E-4
0.0036373436
0.005145511
0.0029067583
0.0024842524
0.0017563279
-0.0017725491
-0.003027004
-0.005605343
-0.008209014
-0.0020747576
0.0040050633
0.0029723428
0.0034077272
0.0035442922
3.5999893E-4
-9.482466E-4
-0.0030862666
-0.00451221
-7.518584E-4
0.0026696168
0.004117729
0.005329519
0.0055547613
0.0036281347
-5.936133E-4
-0.0036594227
-0.005601123
-0.00612758
-0.0031577384
0.0014089319
0.0056068455
0.0039863293
-6.2073313E-4
8.7019213E-4
0.003930559
0.0035427038
-0.0017429972
-0.005307415
1.0373849E-4
3.8170133E-4
-0.0036578816
-3.3558677E-5
0.0020201397
0.0022453454
0.0019583497
-0.0042260694
-0.0076342374
-0.005594013
-0.0031748724
-7.6292857E-4
0.0016472894
0.004666737
0.0062164473
0.0046363855
5.359925E-4
-0.0034556906
-0.0042666853
-0.003976309
-0.0024967757
1.6793218E-5
0.0012067012
0.0032121625
0.005595521
0.0067204814
0.0052719186
2.0521224E-4
-0.003399042
-0.0032678943
-0.0020224547
-0.001318892
-0.001855261
-0.0016624116
9.87128E-4
0.004049397
0.0030643013
-0.0011677836
-0.0036583734
-0.00373086
-0.002241613
-0.0017621875
-9.337765E-4
0.003346165
0.004247877
0.0021329115
0.0016992969
-5.4984854E-4
-0.003443946
-0.0070381453
-0.007981573
-0.0012868904
0.0023013772
0.0016949865
0.005530027
0.007273278
0.0017337304
-0.005188498
-0.0068459786
-0.0042671454
-0.0020466307
0.0016408681
0.007183994
0.010933568
0.01072915
0.007820617
0.006413319
0.0034398036
-0.0050061205
-0.011579851
-0.009985156
-0.0039829877
-9.045786E-6
0.0012925117
0.0015921312
8.7987055E-4
3.3248978E-4
-0.00266247
-0.007760725
-0.007355377
-0.0039845225
-0.0016295719
0.0034299048
0.00669746
0.005427869
0.004795665
0.0035214846
5.239206E-4
-0.0028446042
-0.0055821254
-0.0031538615
0.0019319198
0.0046555623
0.007221992
0.0077332263
0.003400403
-0.0014616825
-0.0038320974
-0.007377313
-0.012851974
-0.013167113
-0.008777358
-0.005095047
-0.0010663903
0.0019284001
0.0039812126
0.0054541887
0.0015302764
-0.0026082257
-5.9275946E-4
0.002959156
0.0054920176
0.007672983
0.009255912
0.008725795
0.006899811
0.0076903105
0.007721228
0.0045431736
0.0012022506
-0.002486037
-0.0030672592
-0.0010045323
-0.0024987923
-0.0063679386
-0.010719009
-0.012548389
-0.01318919
-0.01880816
-0.02289368
-0.020613305
-0.01421102
-0.00795302
-0.008063575
-0.0055903234
0.0022977465
0.006524815
0.009419473
0.01077237
0.010393186
0.009036356
0.008288613
0.012246661
0.01051151
0.007013265
0.005888767
-0.007408132
-0.02108701
-0.026697515
-0.029709546
-0.02690135
-0.02082153
-0.011031511
-0.006567883
-1.13763694E-4
0.024221204
0.03560958
0.035568148
0.04522829
0.04475188
0.042692672
0.045620825
0.0431271
0.045828663
0.04367857
0.028281752
0.008409358
-0.011047702
-0.021184167
-0.027229017
-0.03243156
-0.0266723
-0.015889127
-0.011194954
-0.012368477
-0.009556716
0.0038249257
0.016794609
0.020456843
0.018103378
0.012219855
0.008177946
0.007885963
0.01081958
0.0112723
-0.011582613
-0.035663534
-0.034147494
-0.043917917
-0.064383194
-0.07679291
-0.08521077
-0.069551796
-0.06706406
-0.09991476
-0.10763488
-0.098067835
-0.1154771
-0.1285167
-0.087859936
-0.033636596
-0.03451608
-0.07141594
-0.058452237
0.095853016
0.2524732
0.22832233
0.20516041
0.23977458
0.24039297
0.32095972
0.3189756
0.12981778
0.0493764
0.08830313
0.10763586
0.12315498
0.13211814
0.1200124
-0.008382701
-0.21265413
-0.2753222
-0.15701512
0.01082506
-0.04439089
-0.3544802
-0.45295048
-0.2448874
-0.15374018
-0.24113451
-0.26862416
-0.18877101
-0.035900578
0.10936049
0.02905705
-0.19869575
-0.18696754
0.010240183
0.08047725
0.047870275
0.04157389
0.083610944
0.0983157
0.10106397
0.20445149
0.24298167
0.13261971
0.05147944
0.023977356
0.10127304
0.29307756
0.41590288
0.37968338
0.243375
0.18352756
0.1624214
0.0029917415
-0.14929016
-0.20798437
-0.21378817
-0.12923291
-0.040552683
0.0040309345
0.0046282634
-0.049577143
-0.13692449
-0.25106698
-0.26042557
-0.18254758
-0.19962062
-0.27525333
-0.35398525
-0.360997
-0.23351803
-0.12426465
-0.068043806
0.034198906
0.13507749
0.11848843
0.06487132
0.20406242
0.42922342
0.44272828
0.3041822
0.20519575
0.09924769
-0.057260823
-0.081606515
0.02773505
0.059765227
0.11260713
0.260073
0.26894256
0.14673503
0.0625604
-0.037769612
-0.18868957
-0.27609617
-0.26530024
-0.22268039
-0.17725623
-0.12315569
-0.047022834
0.01744606
-0.0055752327
-0.023960134
0.04175174
0.0124988705
-0.09462691
-0.0633045
0.0095853675
-0.013630699
-0.07164275
-0.111159705
-0.08404416
-0.028910099
0.008492769
0.07678461
0.120092876
0.11146981
0.07480405
0.010405019
0.047171917
0.11722617
0.032387532
-0.053805407
-0.046817668
-0.049917802
-0.025963282
0.046649136
0.1028497
0.11456049
0.10397974
0.1106592
0.09310771
0.047990967
0.033245392
-0.010765074
-0.046681564
0.02231174
0.039459437
-0.035821255
-0.053244986
-0.07987295
-0.13058832
-0.09776058
-0.05273733
-0.023178287
0.022196088
0.018607378
-0.025097126
-0.0639711
-0.08766864
-0.07342185
-0.03767377
-0.014263812
-0.009950314
-0.016678251
-0.026082912
-0.01717263
0.002886091
-0.016534748
-0.0240235
0.0416321
0.09054968
0.047830574
-0.00872457
0.043037765
0.13177375
0.14818653
0.13198575
0.027627483
-0.09400825
-0.080800824
-0.0691879
-0.043766525
0.038768962
0.048159927
0.09005593
0.10924077
-0.02579089
-0.10771431
-0.08986122
-0.059544984
-0.02474943
-0.024763945
-0.012107974
0.0318405
0.037011005
-0.026628476
-0.11144943
-0.11488673
-0.037066847
0.03591573
0.04345044
0.019947074
0.059815608
0.10432382
0.05864806
-0.0219423
-0.038859498
0.019118411
0.046813477
0.019529412
-0.0051929094
-0.029205611
-0.032981765
-0.026710106
-0.028011464
-0.012018842
-0.0055974433
0.003160498
0.025030224
0.016199416
-0.0051027415
-0.023610631
-0.03999435
-0.028362641
0.0050034686
0.032903343
0.03868267
0.020313304
0.0028740212
0.01859556
0.03096289
-0.0013855144
-0.022618672
-0.011971434
8.3911803E-4
0.011440477
-0.0017722201
-0.015690366
-0.0045720665
0.0039288956
0.018273322
0.017173134
-0.02629337
-0.050533976
-0.036025874
-0.023941306
-0.016536461
-0.007115495
-0.002485284
0.00434655
0.013213785
0.008380229
-1.4319278E-4
0.007377177
0.018384472
0.015368167
0.0058277403
0.0017964264
-0.0022687789
-0.008398111
-0.008772146
-0.005657552
0.007919843
0.028323583
0.02395847
-0.002137201
-0.02291817
-0.025211355
-0.00830494
2.5013305E-4
-0.0034429852
0.0054754997
0.013633571
0.011063316
0.009400026
0.0065028267
0.0025870684
6.1373133E-4
0.0028617275
0.0073219454
0.008297177
0.0108593535
0.0121315345
0.0062084463
3.7521723E-4
-0.0024031873
-0.0033124038
-0.0020287258
0.0040004016
0.014488698
0.017492
0.013120918
0.014097905
0.0034945044
-0.029757876
-0.044340122
-0.02799265
-0.017381288
-0.015150745
-0.011368899
-0.009506245
-0.005813424
-0.0036299403
-0.0021931902
-0.0014956957
-0.0071492596
-0.009605821
-0.007589606
-0.0044774013
0.0041558016
0.013730098
0.018681804
0.015705163
0.0072534317
3.734487E-5
-0.002487206
0.004271039
0.014126465
0.02144778
0.028806208
0.030073317
0.02597991
0.020915942
0.012946704
0.0044130157
-0.0053515215
-0.012911216
-0.010647649
-0.0039600283
-4.6354762E-4
7.830642E-4
0.001755872
-4.515643E-4
-0.005905795
-0.0102873035
-0.0148976855
-0.018694295
-0.016159432
-0.00979054
-0.0063969274
-0.006231451
-0.0049657156
-0.004164986
-0.0074449955
-0.012491815
-0.014494271
-0.010795792
-0.004824992
0.0017206337
0.009518959
0.012593587
0.010806898
0.010459251
0.009552843
0.004106501
-0.0028556902
-0.007114532
-0.006653136
0.0013080332
0.010424212
0.010769343
0.0073292935
0.0045192777
0.0020429266
6.685245E-4
-0.0032750794
-0.0038280382
0.0016876018
0.0043716035
0.005743946
0.0057851775
0.0010900757
-0.0060338033
-0.014750071
-0.0206393
-0.019400407
-0.010853606
-1.7294812E-4
0.0048254463
0.00795204
0.013400955
0.018116549
0.01949573
0.015719775
0.01087659
0.003904636
-0.010724498
-0.02023928
-0.0116959475
0.0021445195
0.007171065
0.008942674
0.0124058295
0.016821947
0.01853322
0.0063843043
-0.009809511
-0.009109207
-0.0014517846
-0.0064367373
-0.024054747
-0.035230257
-0.028097622
-0.01985272
-0.0196568
-0.016031764
-0.007708921
-0.0018121979
9.017334E-5
0.0037188258
0.0105339
0.014552067
0.015031554
0.013666925
0.009796979
0.002626481
-0.0025285983
-2.5726898E-4
-0.001698212
-0.009126557
-0.0077914856
-0.0010808285
0.0031851316
0.0069949524
0.0051182923
-0.0017321336
-0.004651208
-0.0011872085
0.005982473
0.008902838
0.006330807
0.004470947
7.5448997E-4
-0.0048529888
-0.008039717
-0.009775507
-0.007955786
-0.0015232621
0.0066885385
0.014405181
0.018747248
0.018126596
0.0101220915
0.00146332
0.0014323073
-0.0022928177
-0.014591245
-0.019109257
-0.012789042
-0.0032054384
0.0037949132
0.0048673055
0.0037145335
-8.9193294E-5
-0.007134616
-0.010862992
-0.011718569
-0.011020395
-0.0050606895
0.0023472756
0.0059614577
0.005711665
0.0036405178
0.0031768535
2.967095E-4
-0.0058187325
-0.004772371
4.676586E-4
0.003499448
0.007949052
0.009027063
0.0062435167
0.0053482954
0.0027557954
-0.0011666863
-0.004730588
-0.0077950796
-0.005223065
1.4710797E-4
0.0040637287
0.009209049
0.013314067
0.0137773175
0.01152728
0.0046361275
-0.0056120525
-0.011844301
-0.011460587
-0.007607559
-8.4513857E-4
0.006622981
0.00886077
0.006164355
0.0023836654
-0.0033148169
-0.010075202
-0.01305771
-0.011260078
-0.0060454146
1.4785224E-5
0.0026433894
0.0043015582
0.008223012
0.009821996
0.0063807857
-0.001898927
-0.011927353
-0.014125987
-0.0060612485
0.003142111
0.0075804694
0.008517854
0.007177778
0.0032733313
-0.0012923102
-0.0047146757
-0.0074955733
-0.007976366
-0.0043297517
4.4706895E-4
0.0024766207
0.0032576458
0.004791737
0.004714547
0.002445565
-0.0020538555
-0.006399168
-0.004865717
-6.338685E-4
0.003436818
0.007391376
0.006780007
0.0061208783
0.006527346
0.002695658
-7.7667844E-4
-0.0034929605
-0.004045715
7.57113E-4
0.0037786122
0.0044480003
0.003306061
-0.0016643242
-0.00526639
-0.0074980618
-0.010028196
-0.010113377
-0.0059519256
0.0010306844
0.0069708554
0.011477813
0.012704781
0.010302667
0.0064760996
-0.0018951057
-0.0110749295
-0.014530891
-0.011732887
-0.0044377237
9.817487E-4
0.0036131027
0.004312797
0.003549299
0.004741672
-6.9766544E-4
-0.009197319
-0.0040820823
0.0034835548
0.0027702295
0.0028807512
0.0036729649
0.0038787136
0.0043701865
4.3710152E-4
-0.003394744
-0.0039780717
-0.0064358134
-0.005673272
1.9123603E-4
0.0042502075
0.007456146
0.008902435
0.00692478
0.005477484
0.0025962847
-0.0031173686
-0.007938079
-0.009181293
-0.0048543788
0.0019459893
0.0053315037
0.0050422703
0.0036231915
7.518784E-4
-0.0026732883
-0.004511636
-0.0075641563
-0.010025037
-0.006445063
-9.3465974E-4
0.0023229592
0.003941311
0.004214739
0.0036460718
0.0012088552
-0.0024499933
-0.0048178216
-0.004208828
2.06785E-4
0.005181552
0.0075779515
0.007035981
0.005286007
0.0062749726
0.006693337
8.840512E-4
-0.0052378187
-0.0042825285
0.0012935293
0.0038674586
-2.2753488E-4
-0.0044514206
-0.0030039884
-0.0014135921
-0.0039288974
-0.006648615
-0.005884255
-0.0025611168
2.8421992E-4
0.0025798832
0.00448496
0.004361874
0.003530903
0.0023605356
-6.3845766E-4
-0.0044971383
-0.0070073535
-0.005944952
-0.0023562545
7.459246E-4
0.002535473
0.0036009313
0.003933235
0.0024596776
3.2581532E-4
-0.0022971476
-0.004955939
-0.0043271487
-0.0027500896
-2.0524126E-4
0.0050550182
0.0068849213
0.0049965824
0.0027654294
6.559232E-4
-0.0015672423
-0.004905995
-0.003677676
0.0013363769
0.003916955
0.006549742
0.0059395977
0.0023773715
0.0033042964
0.004655876
0.0015186734
-0.005610669
-0.011698919
-0.010459087
-0.004521593
0.0013435622
0.0041198456
0.0041906727
0.004281866
0.0023452805
-0.0024366155
-0.0077399504
-0.008598996
-0.002624302
0.0023629891
0.002590275
0.002255616
0.0027084642
0.003124894
0.0031852366
8.3201396E-4
-0.0045527723
-0.004498175
8.9742214E-4
0.0012157551
0.0021148606
0.0053266003
0.0037349137
0.003001035
0.0011036925
-0.004364901
-0.0056816568
-0.005446493
-0.004131518
-9.727067E-4
-7.050314E-4
6.463421E-4
0.003224161
0.003347186
0.002500534
-0.0013712571
-0.0055594463
-0.0049023023
-0.0015032633
0.003127642
0.006511829
0.0067056664
0.005598083
0.0029345206
-5.7666417E-5
-0.0026100138
-0.0057235784
-0.0062086936
-0.0043774266
-0.0011714887
0.0035811733
0.0033883678
0.0015838881
0.0040853415
0.0023389952
-0.00327872
-0.0057478026
-0.005130204
-4.574036E-4
0.0040624696
0.005219931
0.005782811
0.0045710183
0.0023556093
5.5883167E-4
-0.0010837577
-0.003247747
-0.0061083194
-0.0038722667
0.0010762025
0.0015819212
5.572127E-4
-0.0012141983
-0.0019465811
-2.0394033E-5
-0.0012495101
-0.004315159
-0.0052043884
-0.003427875
8.645679E-4
0.0034014555
0.0037260605
0.004088093
0.0035934814
0.0018588668
-0.0014979333
-0.004713104
-0.00473243
-0.0011811693
0.0028889459
0.0043388493
0.004892858
0.0049848803
0.0032460915
3.1054742E-4
-0.0034143215
-0.005216546
-0.0050959326
-0.0038463844
0.0010824167
0.0052791294
0.005397261
0.0036938624
4.0568569E-4
-0.0014200736
-0.0025107018
-0.006280013
-0.0074867276
-0.0044571133
-0.0026183145
-0.0012975365
0.0028586893
0.00573801
0.0037220216
0.0013016589
2.96307E-4
-0.0010675652
-0.0017555039
-0.0010638345
0.0015699933
0.004662062
0.004799706
0.0032415728
0.0029120757
0.0028868075
9.532394E-4
-0.0016413729
-0.0030583574
-0.003537536
-0.001961635
-2.3455132E-4
-0.0011317295
-5.9697276E-4
0.0029063392
0.0037234186
-0.00134142
-0.007192344
-0.007834833
-0.0049404944
-0.0011149134
0.0030155852
0.005630559
0.006014606
0.004340997
0.0027135012
9.2567474E-4
-0.00396032
-0.007887708
-0.0059256842
-5.123442E-4
0.0023265549
0.0012533255
0.0017920112
0.0032093823
0.0012894634
-0.0016388983
-0.004072279
-0.00524133
-0.0039254716
-1.7884477E-4
0.0044905506
0.0057560992
0.0042819316
0.002785322
1.4356685E-4
-0.0024916413
-0.0044809976
-0.0049580694
-0.00221778
7.303652E-4
0.002949718
0.0051427768
0.005230632
0.0048639798
0.004940967
0.0014630592
-0.0041223424
-0.0066448855
-0.005089952
1.2492691E-4
0.004466616
0.004863863
0.0056329
0.004037011
-0.00232862
-0.006287233
-0.0065146685
-0.0050061177
-0.0028643163
-0.0018704643
-4.051174E-5
0.0035819549
0.006799204
0.0046210485
-0.0026793063
-0.0072409417
-0.008642439
-0.008115404
-0.0043155327
7.062857E-4
0.0055447686
0.0072325477
0.006633582
0.005987719
0.0032461903
0.0012828737
-0.0012783145
-0.005618958
-0.0046151914
-5.917635E-4
0.001938671
0.003421561
0.0034301141
0.0043613343
0.0040822765
-1.13180235E-4
-0.0041908063
-0.00523115
-0.0026364862
-1.3142281E-5
9.418096E-4
0.0037335353
0.0043407343
5.6973635E-4
-0.0014858264
-0.00369711
-0.0080491435
-0.009037043
-0.0075519555
-0.005204515
-6.384921E-4
0.0026647355
0.0044631804
0.004808729
0.0020136381
3.624115E-4
-0.0011789956
-0.0046873377
-0.0036622116
0.0029654477
0.009688884
0.011794645
0.009056331
0.0054962863
0.00221053
-1.6042692E-4
-9.108434E-4
-9.2189084E-4
4.8723555E-4
0.0029942913
0.004832062
0.0021142617
-0.0037754683
-0.0039736843
-0.0027138214
-0.0074440204
-0.010068603
-0.008022127
-0.005965254
-0.0022267688
0.0011009134
0.001519733
0.0021864995
0.0017422017
-5.472193E-4
-0.0015283431
-0.0029104433
-0.00487441
-0.0037427673
2.3644227E-4
0.004688548
0.006868689
0.0060169813
0.0052396553
0.0044696014
1.1627835E-4
-0.0057153855
-0.0065903356
-0.0030952196
8.5198716E-4
0.00470956
0.0059551424
0.0052028466
0.00532159
0.0035059974
-3.1237822E-4
-0.0039756647
-0.006625536
-0.006086925
-0.0032331885
2.5862796E-4
0.0027785366
0.0032786129
0.004278206
0.0043081595
9.70516E-4
-0.0024858064
-0.0040934733
-0.0035955228
-9.847095E-4
0.0019773638
0.004397997
0.0054241074
0.0043156175
0.001838129
-0.0027347826
-0.00731986
-0.007936422
-0.0070875636
-0.0047143637
3.6912612E-4
0.002562494
0.0028109262
0.0031303393
3.1117143E-4
-0.0032464624
-0.005230624
-0.0051807
-0.0025975206
0.0017007021
0.0063942266
0.0074116327
0.006306033
0.005291528
0.0015821273
-0.0015388753
-0.003814324
-0.006061703
-0.0034633894
6.861576E-4
0.0024248487
0.0029940763
0.0023900166
0.002909327
0.0045339316
0.0021903573
-0.002874197
-0.0046838876
-0.0035018488
0.0016720959
0.0057038786
-0.0010594822
-0.0019819653
0.0054892013
-0.0013653971
-0.007624729
-0.002546889
-0.0037633444
-0.0044113565
0.0011005629
0.0034633768
0.0029670612
0.0020534082
0.0020498629
4.907504E-4
-0.0027100942
-0.003970002
-0.005253682
-0.0037819645
0.0016737742
0.0049364236
0.005215075
0.0046086065
0.0049733534
0.004199916
-0.0015826903
-0.0064825723
-0.0064968476
-0.005871289
-0.0035729203
0.0017200707
0.005392385
0.0061499137
0.0061731203
0.0052324818
-1.1674684E-4
-0.0087712845
-0.011342373
-0.0067410152
-0.002619307
1.03670056E-4
0.002876199
0.005594592
0.0076594274
0.0075579924
0.0038071512
-0.003229585
-0.00653888
-0.003925153
-4.450041E-4
0.0032667397
0.004379236
0.0040971227
0.0066601457
0.0054053683
-0.0021234923
-0.010119426
-0.012250375
-0.0063659092
-5.5258186E-4
0.0024699406
0.0055540237
0.0051380415
0.0016545282
-2.0803974E-4
-8.7487797E-4
-0.0034572743
-0.006509725
-0.006101925
-0.0025453805
0.001208754
0.0033922696
0.0053604483
0.005902681
0.0026070669
-5.7076826E-4
-0.0037109973
-0.0075321067
-0.0062808115