-1.7564192E-4
0.0016597339
4.094106E-4
5.662169E-5
0.0011519227
0.0021451681
0.0027110667
0.001438986
-3.0268703E-4
-2.968304E-4
-2.5700915E-4
-4.7676277E-4
1.713535E-4
8.236188E-4
0.001649492
0.0016932066
8.5924414E-4
0.001380448
7.150834E-4
-0.001868381
-0.002433489
-0.001194569
3.435497E-4
5.968501E-4
-0.0011822664
-0.0021430966
-0.0020874164
-0.0020828627
-0.0013710869
-9.555102E-4
-0.0010819675
2.0875827E-5
0.0013614558
7.9124805E-4
2.9136598E-4
0.0012821633
0.0018673551
0.0015170361
3.9597435E-4
-5.223515E-4
-3.9097073E-4
4.913699E-4
0.0021079872
0.0016019436
-5.08293E-4
-1.7647228E-5
7.326709E-4
4.905426E-4
4.994185E-4
-5.9658533E-4
-0.0012842087
-0.0018049475
-0.0021473786
2.2084144E-4
0.0011573944
8.5144164E-4
0.0022670678
-2.3964916E-4
-0.0027028376
2.5839068E-5
-2.0946794E-4
-0.0019708283
-7.950867E-4
-0.0011028858
-9.752906E-4
0.0011021901
0.002388263
0.002319165
-8.982535E-5
-0.001371652
-1.8135138E-4
-8.0944685E-4
-0.0011835026
2.5331305E-4
4.5756163E-4
4.8469554E-4
0.0014309647
0.0012850125
-5.466877E-4
-0.002213396
-0.0018726273
-2.9249405E-4
8.0651854E-4
0.0013180184
0.0011092002
2.2300481E-4
4.2354275E-4
0.0011155717
3.3085897E-5
-7.780903E-4
2.8489484E-4
6.839165E-4
6.7911897E-4
0.0017500533
0.0012767267
-5.780036E-4
-7.216605E-4
-2.1909636E-4
1.8011966E-4
3.952279E-5
-0.0015221173
-9.539444E-4
0.001171566
0.0010531412
1.1475131E-4
-0.0010411782
-0.0014295067
-6.2940497E-4
-0.0015708953
-0.0023547162
-0.0020042208
-0.0017872204
7.571196E-5
8.1946055E-4
1.2628047E-4
0.0017365171
0.002150114
3.075275E-4
-5.1185105E-4
-4.5475998E-4
6.767141E-4
0.0015537785
7.948318E-4
4.61374E-4
0.0011760928
0.0021562641
0.0020584108
8.145457E-4
1.5058591E-4
-0.0010594287
-0.002294584
-0.0012792842
-4.369531E-4
-0.0010700903
-0.0017838073
-0.00244065
-0.0013459887
0.0011124103
0.0012550103
-2.1450163E-4
-6.602544E-4
7.4998975E-6
5.9808296E-4
2.6184713E-4
9.59006E-4
0.0021114857
0.0017325386
0.0015866194
1.9056015E-4
-7.1376015E-4
9.442777E-4
-9.723829E-5
5.8739213E-4
0.0032182515
7.280729E-5
-0.0012412501
0.0012121652
0.0016297421
0.0019201936
0.0025186553
0.0020646537
-0.0061199097
-0.014793797
-0.0071601435
0.0022318347
0.0011968708
3.3042833E-4
6.546122E-4
6.044547E-4
3.7714676E-4
-2.8016773E-4
-2.3794115E-4
-8.39359E-4
-8.479599E-5
0.0012882864
0.0018224919
0.0022855243
0.0014036278
0.0011591703
1.699948E-4
4.6508573E-4
0.0036070014
0.0017415985
-4.5934555E-4
-2.0158396E-4
-0.00101478
0.00169803
0.002567766
2.6828502E-4
-5.9254456E-4
-0.002750832
-0.002426803
-9.782001E-4
-0.0010412096
9.985372E-4
0.0020667717
0.0012240605
-5.173127E-4
-0.00113336
-1.8273095E-4
-8.6997927E-4
-4.3612596E-4
-0.0012933011
-0.0024993923
1.6698371E-4
-2.938954E-4
-4.883908E-4
0.001672899
0.0013744028
0.0015028048
-7.899053E-4
-0.0017901896
-2.9312144E-4
-0.0022770038
-4.9625634E-4
0.0018022356
0.0019390007
0.003039531
-5.199473E-4
-3.3020828E-4
-9.36747E-4
-0.009170729
-0.0049026217
0.004422224
0.003537009
0.0032657916
0.0034206314
0.0011482006
-4.6697407E-4
-0.0017161932
-9.921517E-4
-2.7291977E-4
-6.040988E-4
-8.579805E-5
4.6330737E-5
-1.4169062E-4
2.2492753E-4
-7.601138E-5
-5.846185E-4
3.5723372E-4
4.103001E-4
2.071197E-5
0.001597281
0.0010827899
-5.2302436E-4
6.096701E-4
0.001922946
0.0018591485
2.2540077E-4
-6.902113E-4
-2.899814E-4
-0.0010049781
-1.5760005E-4
0.0010244593
3.642363E-4
0.0012144203
0.0013328871
-2.8204065E-4
-3.0969264E-4
-5.2352867E-4
-0.0012199461
-6.5112504E-4
-0.0017400176
-0.0037818404
-0.0019973153
4.138255E-4
-4.7315285E-4
-0.0013311841
-0.0011296598
-0.0015817728
-0.001561026
3.8037877E-4
0.001296039
-4.1797644E-4
1.7329997E-4
0.0022553846
0.0016195974
6.617379E-4
3.0240224E-4
5.7630264E-4
0.0016586179
0.001801545
0.001287098
4.7271495E-4
0.0015490532
0.0038102379
0.0021128582
-8.8837685E-4
-0.0010087094
-2.3959951E-4
-8.265761E-4
-0.0020563977
-0.0011190663
6.9130235E-4
4.3889802E-4
-5.009554E-4
-0.0011394179
-0.001242957
1.407374E-5
5.118552E-4
-0.0018128041
-0.002637205
2.1645443E-4
8.8516733E-4
-4.405553E-4
4.2340904E-4
0.0013300864
4.906443E-4
-0.0011290954
-0.0012077944
-5.363567E-4
-0.00127087
-5.802704E-4
-2.700404E-4
-6.8884983E-4
0.0019830386
0.0018352107
-3.1990398E-4
0.0011148924
5.553796E-4
-3.954191E-4
0.0012442706
8.9224755E-5
-0.0012781208
1.5752706E-4
0.0011412278
0.0010124737
-7.028288E-6
-0.0014712471
-0.0021740696
-0.00163442
-3.0328904E-4
2.235923E-4
7.0301135E-4
0.0020734281
0.001793214
4.3507178E-5
-4.626261E-4
1.0943347E-5
2.8287593E-4
-6.3999515E-4
-0.0022931567
-0.0017344897
5.298167E-4
0.0018982165
0.0022439712
0.002005132
0.0018992574
0.0010314644
-4.6827216E-4
-3.5092307E-4
-8.2719096E-5
4.8150544E-4
0.0012365028
-3.52906E-4
-3.3624313E-4
9.796888E-4
-3.611619E-5
-3.7067526E-4
-0.0016239398
-0.0033650636
-0.002134018
-0.0023134472
-0.0030598622
-0.001273984
-2.2688288E-5
-2.593299E-4
-0.0020053894
-0.002994819
-7.533182E-4
0.0016982505
0.002588942
0.0024304143
0.0017984124
0.0011370599
6.6987117E-4
0.0018784351
0.0029916707
0.0015290629
1.7979112E-4
2.5086018E-4
2.959007E-4
0.0010842986
0.0015426403
-5.604862E-4
-0.0012770323
7.257954E-4
2.9554524E-4
-0.001375554
-0.001597718
-0.0016793477
-0.0013505825
-0.0016314815
-0.0017202607
-1.5558519E-4
3.1935042E-4
4.5435585E-4
0.0015727609
0.0011582632
-4.71857E-4
-6.789389E-4
9.990901E-5
-8.503762E-5
6.0185406E-4
0.0021500417
0.0014029895
4.4197676E-4
8.655801E-4
8.087385E-4
-1.626471E-4
-7.489776E-4
-1.9863989E-4
-9.2006254E-4
-0.0011543331
2.1111268E-4
-7.82133E-4
-1.1542064E-4
0.0011310277
-0.0025902307
-0.003543196
-0.0010506222
-0.0010348741
-4.7967618E-4
3.2800625E-4
-9.000764E-6
8.281443E-4
0.0022704466
0.0024025498
0.0013052019
9.761808E-4
0.0011212967
7.9971205E-6
-0.0013285272
-9.709936E-4
-1.5886528E-4
-0.0011525081
-8.267477E-4
6.758788E-4
-0.0010326577
-0.0015680003
7.4716506E-4
0.0011811532
5.778387E-4
2.6927158E-4
5.122084E-4
0.001060082
3.997605E-4
-1.3333454E-4
-5.504554E-5
-3.8468416E-4
-4.3390653E-4
0.0011033706
0.002992116
0.0024887773
0.002103872
0.00240703
-4.7409232E-4
-0.002834216
-0.0011652864
2.1856191E-4
-6.958033E-4
-0.0013861659
-0.0015759667
-0.002249299
-0.0010395938
5.8874453E-4
5.864618E-4
0.0016024064
-6.6050224E-4
-0.00461669
-0.0030251904
-0.0043403795
-0.0067144637
-3.654108E-5
0.0038458207
0.0010856731
0.0019473258
0.0037735307
0.0030523646
0.0017858997
0.0013791784
0.002039603
8.222399E-4
-6.107692E-4
-1.376411E-4
-6.783492E-4
-0.0010289021
3.47286E-4
0.0018413836
0.0013161052
-0.0017003481
-0.0018666541
9.784462E-4
0.0014929444
0.0015600537
0.0017691946
-1.7117393E-4
-0.0014426853
-0.0011225783
-8.3630014E-4
2.3179868E-4
6.328306E-4
-0.0012764772
-0.0019422343
-6.8498956E-4
-2.5490877E-5
9.535749E-4
9.1519067E-4
-6.4355705E-4
-9.5382537E-4
-0.0012324683
-0.0010858447
8.45847E-4
0.0014936378
7.479518E-4
0.001253683
0.0015047329
5.4594686E-5
5.045113E-4
0.0012160491
-0.0012850735
-9.536623E-4
-9.2535025E-5
-0.0033819114
-0.0027985787
-3.548618E-6
8.662131E-6
1.3060869E-4
-0.001017167
-0.0015203723
-1.4391525E-4
-3.5210518E-4
-2.7311684E-4
8.871179E-4
0.0012452625
2.0499465E-4
-3.0828867E-4
5.5640773E-4
-6.519508E-4
-0.0017385812
-9.3891384E-4
-5.6416454E-4
0.0016352019
0.003474389
0.0033285932
0.004013005
0.004001236
0.005063322
0.0060106553
0.0014910313
-0.0032375134
-0.002928615
-0.0018708023
-0.004330542
-0.0062606363
-0.0027316068
9.367227E-4
9.181099E-4
9.684723E-5
-4.6104527E-4
-1.7092375E-4
-9.7445954E-5
-9.463616E-4
-0.0019844128
-0.004101445
-0.0048874645
-0.0024781858
5.777583E-4
0.0016164283
0.0011627539
0.0017867154
4.8837514E-4
-5.652496E-4
0.004099858
0.005081715
0.0010710162
0.0011767151
0.0018024597
5.3381204E-4
-0.0017450004
-0.0035203847
-1.6886154E-4
0.0018659863
-9.3834166E-4
-9.088379E-4
0.0015371485
0.0026652112
0.001865955
-0.0010495349
-0.0021842208
-5.307613E-4
-7.454997E-4
-0.0020129099
-0.0012828194
1.250235E-4
0.0017518726
0.0013247416
-0.0014710458
-0.0013179731
-2.6608136E-4
-5.625136E-4
6.5024005E-4
0.0011908457
0.0012472724
0.0015160094
7.110129E-4
7.9184456E-4
1.469782E-5
-0.0012777029
-9.786655E-4
-0.0017795415
-0.0018703287
4.1031533E-5
0.0011581405
0.0022251918
0.0033493366
0.0022494867
-4.3209692E-4
-0.0014739132
-0.0011145464
-1.2570833E-4
0.0011014027
-0.0012575565
-0.0037233164
-0.0023545793
-0.0022802541
-0.0021405315
2.6382908E-4
7.435109E-4
-5.166153E-4
-9.303251E-4
5.9426157E-4
0.001639745
8.696889E-4
0.0022282784
0.0036559235
0.0025057925
0.0022210644
0.001444934
-3.5791704E-4
-7.4944797E-4
-9.6707366E-4
-0.001103433
-0.0021889764
-0.0033785321
-0.0021065918
-0.0026073959
-0.003147094
-3.106774E-4
0.0016094436
0.0038046022
0.0030062923
-0.003937117
-0.007216676
-0.0038593186
0.0027450523
0.007795071
0.0075134765
0.0057485136
0.0018544241
-0.0021604004
-0.0027029489
-0.0024409252
8.056121E-4
0.0035611454
0.0037529522
0.0037463226
6.0100254E-4
8.407466E-4
0.0026361635
-6.712284E-4
-0.002327511
-0.001415578
6.3316606E-4
-0.0053798566
-0.014417041
-0.005072577
-4.7880277E-4
-0.0099001005
-0.004645086
0.00405664
0.0053630234
0.006369498
0.0023774733
5.4202956E-4
0.0024516215
0.0028516934
0.0047320584
0.0044429204
0.0013986112
-0.0020565812
-0.004908634
-0.004140152
-0.002164473
-3.6723824E-4
0.0013754234
0.0015140942
0.0017285561
0.0021476333
1.61864E-4
-0.0023261772
-0.0013260603
-1.774706E-4
-0.0016826227
-0.0022580472
-9.339184E-4
0.0010965213
9.1707567E-4
-2.2866367E-4
0.0016947839
0.0019099555
7.4446684E-4
0.0018265587
0.0019290847
0.0021711686
0.002251725
0.0014616104
0.0015358422
1.2314926E-4
-5.265314E-4
-3.9959638E-4
-0.0024884278
-0.00263414
-0.0017676302
-0.0029249652
-0.0022759784
0.0013347289
0.003575435
0.0015463749
-0.00228994
-0.0046820957
-0.003917603
-6.2431005E-4
5.2308687E-4
-0.0014893094
-0.002287414
-2.6998733E-4
0.0010967687
5.5801094E-4
7.8244554E-4
3.9391802E-4
-7.942579E-4
2.1875209E-4
9.901643E-4
5.680734E-4
0.0017266626
0.0034053863
0.0035867994
0.0028382568
0.0022051174
0.0011116711
2.1462038E-4
3.150671E-4
-4.1267805E-4
-9.101204E-4
-2.1326056E-5
4.6460587E-4
1.4499127E-4
-0.0018658122
-0.004835793
-0.0057872646
-0.005150161
-0.004908461
-0.0039402572
-0.0015087962
-0.0016031375
-0.0031533598
-0.0016082883
-6.056337E-4
-4.1321485E-4
0.0012230842
0.0020380882
0.0048143314
0.0090011265
0.011635545
0.0134392325
0.010839048
0.008086789
0.0101386085
0.0100888135
0.007744106
0.003606557
-0.0055494937
-0.013798812
-0.01556327
-0.011378156
-0.007346692
-0.008234056
-0.009177223
-0.009613634
-0.01167558
-0.011475904
-0.009108385
-0.006490819
-0.0037642785
-0.002662089
-0.0026239061
-4.76953E-4
0.0035924497
0.006881051
0.009934389
0.011521911
0.011463434
0.016007615
0.020703966
0.017295782
0.012562369
0.011392501
0.008745393
0.002494112
-0.003679511
-0.0069781467
-0.008542566
-0.009605509
-0.012507772
-0.017150527
-0.019402327
-0.019110734
-0.016310925
-0.010737504
-0.004670417
3.197274E-4
0.0026342664
0.0044899867
0.007990383
0.011159373
0.012203216
0.0077914665
0.00259238
0.002664557
8.5316505E-4
-9.900696E-4
0.0047648232
0.0105465185
0.012033339
0.011184666
0.006690987
0.002948356
0.00374624
0.0043529803
4.1802012E-4
-0.0046612676
-0.0051673437
-0.0032870152
-0.0036770795
-0.006948033
-0.011796075
-0.015973479
-0.018706357
-0.01726953
-0.010595941
-0.0038386679
0.002779193
0.011309092
0.018592943
0.018825695
0.009330248
-5.2840105E-4
-7.1405864E-4
0.003652773
-6.017205E-4
-0.011977243
-0.013120233
-0.004919864
-5.54093E-4
-0.002271772
-0.011294665
-0.018593451
-0.015144705
-0.007663371
7.4366474E-4
0.0047976864
0.0042772247
0.012176871
0.023615703
0.02210698
0.009207696
-9.791821E-4
-0.0029029376
6.601971E-4
0.004179379
0.0022434795
0.00557132
0.016649045
0.021604966
0.026070304
0.032391585
0.033778448
0.03176792
0.022581719
0.011563669
-2.0084113E-5
-0.023434326
-0.051772017
-0.072168835
-0.07702722
-0.06914716
-0.059232794
-0.046954516
-0.031205887
-0.012821585
0.0022741947
0.0048653353
-0.0022305974
-0.009610747
-0.002066921
0.01664869
0.03023489
0.047801208
0.06193905
0.059152886
0.052838337
0.040332258
0.022871342
0.015994338
0.013914771
0.006723201
-0.0028338344
-1.2487127E-4
0.015376248
0.019775562
0.0126086
0.009275527
0.0039868285
-0.0059226463
-0.015041771
-0.021384606
-0.012789698
0.0033444697
1.4879835E-4
-0.0071172537
7.0474716E-4
-0.0033670114
-0.02692582
-0.035219453
-0.020656072
-0.014856556
-0.022602646
-0.033905737
-0.05893268
-0.071338974
-0.047690716
-0.026974173
-0.028568609
-0.04406568
-0.06508904
-0.0603161
-0.02887534
0.0060996157
0.046654526
0.07564479
0.07745976
0.07042239
0.057726312
0.04308652
0.045043524
0.07158406
0.12724489
0.17588742
0.16435187
0.11543336
0.07463754
0.040523995
-0.012303669
-0.10629059
-0.19158813
-0.17098762
-0.075663984
-0.028825486
-0.028595096
-0.0127561055
-0.001123014
-0.008307575
-0.0380557
-0.09445672
-0.12515894
-0.1131262
-0.078730226
-0.0157371
0.063079655
0.1071233
0.07651202
0.041163478
0.04608866
0.010394924
-0.02843418
-0.009701786
0.0012762288
0.0028822778
0.015699584
0.020843491
-0.0022633516
-0.050655052
-0.07608202
-0.11021597
-0.1319268
-0.03504357
0.091821715
0.15228336
0.18172613
0.16782995
0.08833847
-0.018875528
-0.052481122
0.010098424
0.05994923
0.06635906
0.066108465
0.057308834
0.0030010112
-0.07365509
-0.074492395
-0.041128714
-0.023778223
0.023878627
0.029348131
-0.023886545
-0.06914486
-0.13272825
-0.18868884
-0.18727058
-0.12738699
-0.03735201
0.009273242
0.010880772
0.022932928
0.060601294
0.081455655
0.057665717
0.05654641
0.07074778
0.046825476
0.041682582
0.0637713
0.074294165
0.07135034
0.06494969
0.06570221
0.018363254
-0.059878044
-0.07124651
-0.058585793
-0.065651335
-0.0504943
-0.02755265
-0.027556019
-0.04016578
-0.039341893
-0.022713998
-0.00594388
0.009240463
0.01934812
0.029080674
0.031224733
0.008077071
-0.015560524
-0.017689986
-0.0042987852
0.013904333
0.021416673
0.01950841
0.018696334
0.022998115
0.030987002
0.034185927
0.028060526
0.015201099
0.003132757
-0.006379833
-0.017462334
-0.026498273
-0.03302
-0.037616614
-0.037537955
-0.035620097
-0.030536382
-0.020670908
-0.009573248
0.003050966
0.015349661
0.020755135
0.020876896
0.020235749
0.014002326
0.007134099
0.008089244
0.007943042
0.005602967
0.0034204638
-0.0021072838
-0.0048248055
-0.005450984
-0.0059182416
-0.0026253345
6.297158E-4
0.0045913123
0.009546525
0.011457042
0.009826865
0.0056947223
0.002328213
-0.001556702
-0.0055947634
-0.0049504885
-0.0025683034
-0.0015245408
-6.685712E-5
0.0030931896
0.004707234
0.0022229638
0.0015337158
0.0024858878
0.0010766269
4.5747496E-4
3.9736085E-4
6.0727407E-4
9.415262E-4
4.1480036E-4
0.0021227053
0.0015341574
-0.0036366258
-0.006350699
-0.006782728
-0.0068248436
-0.0061727273
-0.0050253766
-0.0020496272
0.0011739316
0.0031420428
0.0026460304
3.2208863E-4
-5.0554756E-4
-0.0013612313
-0.0014549227
0.0010751123
0.003545681
0.00550518
0.0050847083
0.002624804
0.0010979028
-0.0014224005
-0.0036085402
-0.0036900346
-0.0031315829
-0.002010182
-0.0014714579
-5.5350893E-4
9.290748E-4
0.0013923687
0.0020170244
0.0011358436
-0.0011417174
-0.0016296117
-0.0014370554
-0.0011434586
1.1092093E-4
0.0017749011
0.003986966
0.0068516578
0.0079106465
0.0071432567
0.008144899
0.0067378143
2.4323244E-4
-0.0040607713
-0.0052033006
-0.0042626276
-1.9986619E-4
0.002826539
0.0030623584
0.0016935449
9.840748E-4
6.813252E-4
-0.0024719571
-0.0053720674
-0.0070036463
-0.008619821
-0.008566374
-0.008993282
-0.009158467
-0.009334533
-0.010977456
-0.00927799
-0.0063767796
-0.0049230508
-0.0028220047
-0.002074515
-7.895763E-4
9.972837E-4
1.3490918E-4
-1.3719535E-4
0.0010177628
0.0021684065
0.0033079586
0.0033363467
0.0037211895
0.0057928087
0.0073155686
0.0075458772
0.0076067555
0.0061122943
0.0040008184
0.0046481774
0.0055361674
0.005286333
0.0061495677
0.005949761
0.0037953882
0.0026455577
0.0019743564
-0.0014326551
-0.005227682
-0.0059423437
-0.006246277
-0.005518723
-0.0035971394
-0.0037234027
-0.0025095877
-0.0015661011
-0.004078443
-0.0042106225
-0.0031713585
-0.0040383423
-0.0034594277
-0.0018646626
-0.0010175469
-0.0011814354
-0.0010491089
7.0016185E-4
0.0017758029
0.0014462761
8.0532534E-4
2.944061E-4
7.135797E-4
0.0016994466
0.00232797
0.0014262428
-8.911254E-5
8.7637577E-4
0.002731106
0.0028653876
0.0013078374
-9.136585E-4
-0.0010723658
-7.940356E-4
-0.0015813769
-6.476449E-4
3.5190943E-4
0.0011165135
0.0013525571
-0.0016434138
-0.00259723
-9.345703E-4
-0.0013262744
-4.5288057E-4
0.0011790257
0.0012140402
0.0019410874
0.0021636877
0.0010072449
-3.9981699E-4
-0.0013469502
-6.5913325E-4
-9.371451E-5
-0.0015518857
-0.0021207405
-5.7419715E-4
4.6362545E-4
0.001522049
0.0021566728
0.0015158985
0.0020437972
0.0011853091
-3.7966698E-4
0.0011569698
0.0020223616
0.0018082368
0.0013609539
5.1785173E-4
8.362766E-4
4.7254897E-4
3.5949663E-4
-0.0012343536
-0.003509327
-6.6959666E-4
0.0017318007
0.0026606587
0.0028942747
9.4215653E-4
9.209227E-4
-0.0069100256
-0.015267883
-0.0060872817
0.0022599916
0.0022926063
0.0033266286
0.0012817803
5.890532E-4
0.0019601646
0.0014590016
0.0020468
0.0015407417
7.7759265E-4
7.972589E-4
1.8157154E-4
4.3265938E-4
3.8991965E-4
8.465854E-4
0.0010563427
-8.627032E-4
-0.0016198449
-0.0014506357
-0.0015611366
-9.0056437E-4
2.2386656E-4
0.0012992091
5.80288E-4
-9.634955E-4
-4.3796786E-4
2.8529955E-4
-6.4259476E-4
-0.0011982446
-5.6007213E-4
4.504238E-4
0.0016467187
0.0020916471
0.0022496295
0.002254182
3.7805998E-4
-5.672879E-4
5.7567505E-4
5.839952E-4
9.506283E-5
1.7566334E-4
5.0850643E-4
3.3322742E-4
-4.3751276E-4
-5.59141E-4
-0.0020883665
-0.0033336896
-0.0016421045
-0.0016709524
-0.0021163528
-8.3687133E-4
-0.001754856
-0.0013527017
0.0012105331
8.911485E-4
0.0013909197
0.0028171565
7.5489224E-4
2.7495038E-4
0.0016826888
2.874036E-4
3.2763684E-5
0.0014175709
8.4830483E-4
6.54175E-4
0.0015762192
3.6238335E-4
-0.0017688785
-9.3002064E-4
4.437152E-4
3.226438E-4
7.629152E-4
-8.293759E-4
-0.0024060558
4.584898E-4
0.0019610736
6.357827E-4
-8.972049E-5
-0.0010131769
-0.0013779504
-0.001623679
-0.0015389369
4.084867E-4
0.0018033405
0.0024028674
0.002625296
0.0014214414
7.4959436E-4
0.0011926589
6.8155624E-4
-3.5898027E-4
3.1979717E-4
6.5749616E-4
-0.001243045
-0.0011643193
5.4094585E-4
3.6410306E-4
-6.4400356E-4
-0.0018189253
-9.812862E-4
8.9414854E-4
2.2160888E-4
8.387737E-4
0.0018430172
-1.3129992E-4
-6.132125E-4
-2.1479045E-4
-0.0014870501
-0.0024147471
-0.0017888045
1.2917985E-4
2.8365533E-4
-6.2007084E-4
4.907583E-4
9.770265E-4
2.2558312E-4
-5.8781996E-4
-0.0014856772
-0.001673026
-0.0020405173
-8.147179E-4
0.0026903308
0.0034395005
9.786516E-4
-7.118445E-4
-5.1732257E-4
5.572562E-4
0.0015577152
0.0014173107
8.3107635E-4
0.0016999241
0.0011598673
-7.294964E-4
8.6967606E-4
0.0023209713
0.0012901772
8.097816E-4
-7.1719865E-4
-0.0013871352
-6.306297E-5
-5.674474E-4
-4.905029E-4
4.4017402E-4
-0.0014878568
-0.002669434
-7.019162E-4
5.944959E-4
2.5695306E-4
-1.7433474E-4
-6.7917834E-4
-0.0012206786
-0.0012999068
-6.7668693E-4
-2.2723158E-4
1.11960224E-4
0.0016392512
0.0011884152
-0.001410705
-4.994367E-4
8.4106444E-4
-3.2014993E-4
1.3362034E-4
0.0010479775
0.0018344308
0.002994331
0.0020687815
6.773698E-4
4.0428637E-5
-4.4764168E-4
-3.2601663E-4
-1.5202929E-4
-5.3193426E-4
-0.0019102588
-0.001887641
1.8172235E-4
1.8420574E-4
-0.0011088153
-0.002099665
-0.0036749411
-0.003570769
-0.0013750509
7.470925E-4
0.0018863527
0.0017190789
7.4031873E-4
5.82225E-4
0.0019274924
0.0017876651
-1.2960708E-4
-3.0877905E-5
9.767766E-4
0.0011075223
0.0015604924
0.002667974
0.0041177818
0.004051641
0.0029235657
0.0025794078
9.537279E-4
-0.001831365
-0.0025788369
-0.0013717582
-5.409034E-4
4.1492906E-4
0.002089698
0.002629567
0.0033325886
-1.1427429E-4
-0.010832827
-0.013201908
-0.004826874
-9.6003816E-4
1.9053517E-4
0.0016789929
2.6256265E-4
-4.5733634E-4
-2.3922903E-6
4.8220626E-4
2.7114613E-4
-3.8186807E-4
5.7969056E-4
-2.6740204E-4
-0.0011653629
8.246536E-4
0.0012216676
0.0018336065
0.0028425194
0.0016191943
0.0010242369
2.2618298E-4
4.063253E-4
0.00276082
0.0028686947
0.0016833945
9.1281487E-4
9.3511364E-4
0.0014042619
-3.2891863E-4
-9.382314E-4
-4.9300893E-4
-0.0017860603
-0.001109792
-5.0463126E-4
-5.8215595E-4
0.0014913774
0.0011161362
-7.162271E-4
-6.116655E-4
-0.001029788
-0.0016893513
-0.0012133112
9.548659E-4
0.0017762035
-4.8135844E-4
-1.861566E-4
0.0011609169
-5.0424703E-4
-0.0014982221
-0.0011519126
-0.0010068526
-0.0012429481
-6.4076367E-4
0.0018934704
0.0018768805
-7.0091366E-4
-5.8490835E-4
4.6627334E-4
2.7621252E-4
-2.1756999E-4
-0.0010157925
-5.138341E-4
1.7436418E-4
-0.0021919587
-0.0036906267
-4.685755E-4
0.0021175337
6.77225E-4
-8.3035126E-4
-9.157039E-4
-0.0011257811
-8.0022786E-4
4.580068E-4
0.0011206114
4.7562065E-4
5.76818E-4
0.003435808
0.0052271048
0.0019599893
-0.0012960299
-5.0143723E-4
6.283433E-4
8.485122E-4
0.0012204458
0.0011452897
9.4869925E-4
0.0011988924
0.0018732435
4.69021E-4
-0.002714424
-0.0024343333
-9.933697E-5
7.878384E-4
9.433195E-4
-2.5101806E-4
-0.0015867215
-0.0031613864
-0.005047651
-0.0030508593
-2.535202E-4
-2.059504E-4
2.935329E-4
2.7711267E-4
-8.761552E-4
-0.0012241236
-7.3385047E-4
8.3457434E-4
0.0013053505
-4.352736E-5
-3.0881335E-4
1.8607559E-4
5.6415645E-4
9.3542837E-4
7.489394E-4
9.908695E-4
0.0012155615
8.237041E-4
0.0010354852
1.0815449E-4
-0.0015937187
-9.83503E-4
-5.0189632E-5
-9.721805E-5
-4.5317374E-5
1.7787237E-4
0.0018612193
0.0027948504
7.207324E-4
-0.0015602876
-0.0027675838
-0.0022157452
-8.630244E-4
-2.647455E-4
0.0016776511
0.0023820868
9.707413E-4
0.002091346
0.0028849358
9.600983E-4
-2.517146E-4
-2.6629893E-6
8.387107E-6
-8.6678565E-4
-1.4049167E-4
0.0011348051
5.9283304E-4
5.966631E-4
-0.0015254568
-0.004325833
-0.0017135284
2.67923E-4
-9.954638E-4
-0.0011919449
-0.0010108047
-6.5889227E-4
-0.0012296761
-0.0019627356
-7.7295746E-4
-3.2789222E-4
-8.6080265E-4
-0.0010646392
-3.288466E-4
6.660348E-4
9.0324895E-5
7.8951375E-4
0.0019762188
8.2809094E-4
2.458098E-4
9.611382E-5
1.2239486E-4
0.0014074952
0.0018038212
0.0014538085
0.0019741345
0.0025111265
0.0011757357
-4.3008567E-4
-1.9478636E-4
1.0126769E-4
2.0881103E-4
-5.34514E-4
-0.00172885
-3.6423685E-4
8.0496666E-4
3.886469E-4
6.541662E-4
0.0010611207
9.821496E-4
-5.7043484E-4
-0.001887193
-0.0011214525
-4.8504837E-4
-9.7508964E-5
8.65512E-4
0.0016084862
0.0011080811
6.8168377E-4
-2.3902714E-4
-0.004846128
-0.0060510626
-0.0013162757
6.313155E-5
-2.7295272E-4
6.8823516E-4
5.1694026E-4
3.1840088E-4
-6.062646E-4
-0.0010475789
-2.6552347E-4
-3.2218773E-4
-3.8688126E-4
-6.2994956E-4
-2.884471E-4
0.0010237918
0.0013120066
0.0012770308
0.0015522889
0.002085713
0.0020777236
8.766021E-4
-9.561767E-5
-7.836081E-4
-8.16422E-4
-3.6986187E-4
-4.1951129E-4
5.2521337E-4
0.0019901402
0.0019350945
7.3331775E-4
-5.5256E-5
-8.6431566E-4
-0.0021614523
-0.0015795757
-4.5602277E-4
-5.9063203E-4
-3.1193515E-5
1.8424909E-4
5.853393E-4
0.0021445975
0.0016645624
-6.6424625E-5
-1.662011E-4
3.3595727E-4
-3.4523502E-4
-8.538026E-4
9.534147E-5
-1.373529E-4
-9.874685E-4
-5.707754E-5
-0.0011723323
-0.0044574672
-0.0034712276
2.0465314E-4
6.759983E-4
5.245876E-4
0.0016674015
0.0014437307
0.001335773
0.0011819326
-4.629436E-4
-0.0010347919
-4.9121416E-4
2.1535861E-4
8.3819486E-4
4.1752215E-4
4.988424E-4
0.0017285829
0.0017041361
-1.0257236E-4
-0.0012870799
-0.0017153902
-0.001900952
-2.9034322E-4
2.4949785E-4
-9.830571E-4
-1.4697513E-4
5.439881E-4
4.8647172E-4
7.165439E-4
-5.739718E-4
-0.0013111762
-0.0014961609
-0.0016657929
-2.2573644E-4
9.816639E-4
0.0015392068
0.0017486777
0.0018297529
0.0013788858
-2.4069828E-4
2.2303298E-4
9.4094314E-4
9.805773E-4
0.0023928017
3.240527E-4
-0.0013022111
7.897646E-4
3.8675874E-4
9.655697E-4
9.326438E-4
-0.0030126688
-0.0026607346
-0.0011039382
-0.003379076
-0.003519607
-5.98422E-4
0.0022111528
0.0029411695
0.0010129036
-0.0015438668
-0.0023608725
-0.0010287949
-1.8199933E-4
-9.082581E-4
-0.0012008913
-5.8295045E-5
0.0019547595
0.0029201088
0.0019286819
4.4119143E-4
-4.7992883E-4
-6.0482597E-4
1.6275638E-4
2.795134E-4
-8.344103E-4
-6.028837E-4
5.445077E-4
9.1997354E-4
0.0016068224
0.0010988964
-3.703538E-4
-3.095033E-4
-4.8485144E-5
6.7502976E-4
0.0013191003
-5.814755E-4
-0.0018317753
-3.5836718E-5
0.0012499094
-6.173825E-4
-0.0025678251
-9.883738E-4
7.9896016E-4
-9.961374E-6
-5.138369E-4
-1.363372E-4
-6.507928E-5
-4.956554E-4
-0.0017580156
-0.002253529
-0.0017175834
-0.0013928293
1.3611172E-4
0.0020237702
0.0018366633
8.782852E-4
0.0010897595
0.0023739494
0.0023269993
3.8494336E-4
-6.212076E-4
9.978327E-5
0.0010663427
6.9886504E-4
7.3270773E-4
0.0016689864
1.9953061E-4
-6.862575E-4
1.0012302E-4
3.129718E-4
8.098691E-4
-0.0015214096
-0.0016986385
0.0020002325
0.0019375382
0.0026647176
-0.0028999941
-0.013935688
-0.007349536
0.0028825856
3.9927525E-4
-6.698581E-4
-1.7697384E-4
-1.2386817E-4
0.0010794713
9.82083E-4
0.002368446
0.00181292
-5.449915E-4
1.7744402E-5
5.869626E-4
4.0178534E-4
1.6828316E-4
6.7993323E-4
0.0019400804
0.0025405246
0.002683245
0.0014384611
8.899782E-4
5.812827E-4
-0.0010307119
-4.2443958E-4
-7.404826E-4
-0.0017729123
-1.09414126E-4
-3.6257505E-5
2.9370145E-4
0.0017880283
0.0010519443
-1.634613E-4
-0.0019153287
-0.0028555815
-0.0015441603
-1.6945003E-5
9.58283E-4
9.139242E-5
-2.3489511E-4
0.0012801498
6.415436E-4
-3.1591696E-4
2.5071282E-4
-4.3147407E-4
-8.4753917E-4
-3.1163899E-4
-8.240872E-4
-2.8571516E-4
-9.156996E-6
-0.0023240747
-0.0023042364
-0.0012280587
-0.0023222996
-0.0014518003
1.4294524E-4
6.112208E-4
0.001611703
0.0021218045
0.0016685928
6.7202275E-4
0.0010424672
8.9277024E-4
-0.0011738616
3.0119816E-4
0.0020217476
6.8507093E-4
0.0012708629
0.001563196
5.4862944E-4
7.838194E-4
5.8412633E-4
-2.897433E-4
-8.628263E-4
-5.4114807E-4
-2.9462768E-4
-9.123617E-4
-4.6529417E-4
0.0010069888
0.0013821857
1.900718E-4
-1.2725418E-4
-3.6277735E-4
-0.0018855727
-7.07674E-4
6.694962E-4
-4.4274365E-4
-1.5213953E-4
-7.649937E-5
-0.0010998035
-0.0011810159
-1.0338827E-4
0.0011523716
-1.1216588E-4
-0.0016898278
-0.001132666
-7.016417E-5
6.5642555E-4
4.3683912E-4
4.7199932E-4
-0.0011049699
-0.0042113787
-0.0028148424
-1.8745694E-4
-5.0445524E-4
-4.7490385E-4
-9.4533254E-7
-1.464162E-4
9.7574346E-5
0.0020408402
0.0039611016
0.003849342
0.003306264
0.0019657363
4.9134094E-4
9.211822E-4
0.0014144559
5.4750784E-4
-2.9168287E-4
8.8030996E-4
0.00151291