-0.0047711353
-0.006481211
-0.008318947
-0.005567415
-0.0013998455
-0.002668541
-9.98314E-4
0.00426553
0.008221368
0.010448201
0.0043664537
-0.00955348
-0.018231498
-0.0152600305
-0.007116806
-6.7880756E-4
0.0049098292
0.010151648
0.011004074
0.0067454027
6.117765E-4
-0.0060070893
-0.00974929
-0.0078035546
-0.0059128767
-0.005683922
-0.0020161374
0.0024595363
0.0033954226
0.0019171151
4.3271175E-5
-0.0016323584
-0.004771966
-0.008767134
-0.0076999804
0.0011461662
0.010289734
0.013052298
0.014557436
0.019281622
0.02239239
0.019160267
0.010012968
-4.092624E-4
-0.0058484892
-0.004752251
-0.0041808635
-0.009120989
-0.011922241
-0.0070883418
-0.0037172667
-0.008195541
-0.010815581
-0.0063768816
-0.004077177
-0.0032700873
0.0011793239
0.0043699457
0.005833203
0.004307739
-0.0026696655
-0.009771618
-0.014127038
-0.0130188875
-0.0069353557
-0.0010791838
0.0037158797
0.0053515434
0.0069667385
0.010599313
0.0077459267
7.0053583E-4
-0.0036101742
-0.004968995
-0.00215629
0.002220117
0.005339462
0.007217406
0.008166668
0.007639123
0.0022438022
-0.004492704
-0.0062024486
-0.003199595
0.0010995608
0.0030466837
0.005074622
0.008853339
0.011529337
0.011999575
0.0057068923
-0.0050188596
-0.010458953
-0.009642675
-0.00617553
-0.0045826915
-0.0031987529
0.0017985934
0.0030842281
5.3138786E-4
-8.5786433E-4
-0.005259773
-0.010422172
-0.010678825
-0.0058005
3.4027774E-4
0.0020924814
0.003152018
0.0057173907
0.0048156595
0.0019311456
-0.0031611088
-0.009196575
-0.008036134
-0.002343789
0.002296756
0.0072550783
0.009236196
0.006689249
0.0047876113
0.0031391026
-0.0017373016
-0.0061912374
-0.00581605
-0.003254799
-0.001213306
0.0012602258
0.0035992619
0.0038831234
0.0023653323
-4.747143E-4
-0.0058898805
-0.009232387
-0.0041605285
0.0026944254
0.0071198423
0.0144204395
0.017596565
0.009550055
-0.001419742
-0.00814697
-0.009506095
-0.007965355
-0.0059957164
-0.002947901
-0.0013042319
7.335095E-4
0.006785814
0.010049184
0.007619002
0.0033742322
-0.0025223955
-0.006818308
-0.005762871
-0.0032042759
-0.0023209355
-0.0010659011
-1.9152508E-4
-7.62858E-4
6.6061603E-4
0.0015484821
-0.0020996535
-0.0057401527
-0.006870558
-0.005821953
-0.002504846
-1.1803955E-4
2.5740068E-4
0.0010287781
0.003546823
0.0037371253
-0.0020890797
-0.0067863455
-0.0047806534
8.9648605E-4
0.0063906163
0.008408543
0.010213768
0.012020768
0.006827063
6.104363E-4
-8.9734205E-4
-0.003579204
-0.006184454
-0.0063700126
-0.00512355
-0.002124898
8.178283E-4
0.0054619554
0.009685174
0.005955701
-0.0027317435
-0.009236512
-0.011084276
-0.00838578
-0.0028788783
0.0046755797
0.010854252
0.010683135
0.006079821
0.002269565
-0.001063763
-0.005624072
-0.008564223
-0.008460375
-0.0067697912
-0.0041460055
4.1293426E-4
0.006802807
0.009274603
0.007012407
0.0037618903
-0.0033755107
-0.010876337
-0.010162633
-0.0030068206
0.0038708774
0.00774215
0.009045708
0.0058146864
-1.2359626E-5
-0.0038538477
-0.006549403
-0.007331595
-0.0077570747
-0.0055798762
0.0025007618
0.0064019854
0.007575573
0.0083992835
0.002801723
-4.2223657E-4
-0.0031264978
-0.0057250434
-0.0023222275
-0.006295047
-0.0052006133
0.00954614
0.0075035114
-0.005366329
-0.0033960887
0.004492077
0.005606466
0.0040173014
0.0053719403
0.0049421787
0.0017300305
0.001298297
0.002153257
0.0018531121
-0.0023334224
-0.009023583
-0.011300119
-0.00954538
-0.006449785
-0.002065922
0.003217459
0.0062735365
0.0059037646
0.0053625735
0.002343
-0.0018720326
-0.0043885093
-0.007518295
-0.0049414784
5.553405E-4
-1.816363E-4
-0.0021162182
-0.003879858
-0.002873768
0.0023313381
0.001134679
-0.0032975757
-0.0024193525
0.0012111537
0.0060444106
0.009526118
0.010371409
0.010409694
0.009953251
0.008569555
0.0022608002
-0.0058792345
-0.0065570567
-0.0023923663
1.7970745E-4
6.879214E-4
0.0012494385
0.0041097635
0.006395187
0.0028691227
-0.0074397214
-0.018172532
-0.020277353
-0.0144262705
-0.006960036
-3.2683727E-4
0.004492416
0.0068272734
0.006484244
0.0036919985
-0.0013835549
-0.0068944665
-0.008763077
-0.00749279
-0.004035997
0.0019647542
0.0065887
0.008552215
0.010099659
0.011018358
0.008100183
0.0021059373
-4.1196594E-4
-2.2573616E-4
7.6123705E-4
0.0053552226
0.008842017
0.008105949
0.0057725892
0.0013472835
-0.0055340095
-0.011981647
-0.013004624
-0.008812303
-0.003897033
-5.409117E-4
-3.646519E-4
-1.8028886E-4
0.0033801543
0.006022005
0.0022340629
-0.0048700124
-0.0063934377
-0.0054937736
-0.005048677
0.0016597611
0.008301815
0.00938233
0.008081774
0.0026909227
-0.004063554
-0.00973307
-0.011822487
-0.006872227
-9.5288263E-4
0.0029650023
0.0049321265
0.005307314
0.0075894264
0.006136878
-0.0023406434
-0.0094647305
-0.009831458
-0.0054246597
2.1837866E-4
0.0056289104
0.00899333
0.009933302
0.008654571
0.0051533235
0.0020010953
-0.0035895328
-0.0098411
-0.007552745
-7.1743754E-4
0.0025763873
0.0024871165
0.0029271091
0.005828568
0.0062575983
4.0054187E-4
-0.00967315
-0.015751537
-0.012597806
-0.0055877003
0.0022877574
0.008221753
0.010839531
0.013186979
0.010198956
0.0017540476
-0.0057162684
-0.009147309
-0.0061587472
-0.0028532627
-0.0014694019
0.0012434821
1.2442675E-4
-0.0034696525
-0.003965906
-0.0035612332
-0.0058241254
-0.007964848
-0.0037834574
0.0018868332
0.0045703915
0.007879843
0.008183513
0.0060802
0.0066779023
0.0041495073
-0.0046767252
-0.010177804
-0.004914139
0.0022596063
0.0037982715
0.0068069524
0.0115377875
0.012480494
0.0104437135
0.0042303964
-0.0054074493
-0.012702185
-0.0127959745
-0.006040019
-0.001161548
-4.5645513E-4
0.0033398203
0.007413348
0.0035279868
-0.0065178475
-0.01411671
-0.015168024
-0.011707109
-0.003641539
0.003997684
0.004649609
0.0054855747
0.007726791
0.006789535
0.0065090656
7.163153E-4
-0.009764798
-0.009146682
-0.002331402
7.643005E-4
0.004392241
0.0077103083
0.008417423
0.007875523
0.003583967
-0.00366081
-0.006433277
-0.0029739225
8.5579394E-4
0.0029327327
0.0050531877
0.006595531
0.0059788013
0.0031541402
-0.0025253945
-0.010665384
-0.014698728
-0.01120091
-0.0038763767
0.0057288366
0.012362244
0.01137677
0.008865127
0.0053853844
-0.0034472127
-0.012152697
-0.015836364
-0.014137924
-0.006270565
4.6594033E-4
6.658955E-4
0.0024758354
0.0068763997
0.006587065
0.0025918237
-0.0025130105
-0.006307503
-0.005422863
-1.5880742E-4
0.0066476054
0.011318406
0.013636081
0.013692382
0.011161069
0.006470564
-0.0038218165
-0.013367484
-0.013181012
-0.009071578
-0.0053134724
-0.0036349732
-0.0026756572
0.0035154803
0.0064359535
5.739745E-4
-0.0055258963
-0.008249859
-0.005905953
-2.9269521E-4
0.0036939566
0.005826705
0.00532019
0.0046442086
0.0055128406
0.002920545
-0.0035513528
-0.008633034
-0.0075326934
-0.0022423745
0.0015229095
0.0040065497
0.005093187
0.0045228302
0.0045100795
0.0023384446
-0.004052005
-0.010667751
-0.010576468
-0.0036745304
0.0016788131
0.0051397597
0.00722045
0.0049523306
0.0034762362
0.0016728978
-0.0035265123
-0.006107117
-0.0037214926
0.0037423936
0.010567461
0.010984892
0.009507778
0.005966813
0.0017013646
-0.0011149918
-0.0070417644
-0.011141562
-0.009679314
-0.0058930106
-8.4317906E-4
0.002903059
0.004859874
0.001562454
-0.004059969
-0.002573963
-0.0032544623
-0.009608274
-0.010058992
-0.0058211414
-0.0015686624
0.0022777987
0.0057963314
0.008273268
0.007303961
0.0041547487
-0.002715468
-0.010401476
-0.008211098
8.8943617E-4
0.006639755
0.007721388
0.008395065
0.009295364
0.007049455
0.0037849771
5.467433E-4
-0.0045269523
-0.0075472062
-0.006086869
-0.0021080042
1.12128335E-4
1.7651215E-5
0.0024422086
0.0048469095
0.0028318856
-0.00268288
-0.009231872
-0.010950584
-0.0061310325
7.782529E-4
0.0059171882
0.007023645
0.0066447193
0.008707131
0.010004283
0.0042595817
-0.005215374
-0.010200621
-0.009688418
-0.0047974573
3.6372137E-4
0.0014024733
0.0024528159
0.0039975997
0.0015998291
-0.0035646548
-0.0064154514
-0.0053893593
-0.00481008
-0.0036195451
0.0010226581
0.004882857
0.005446815
0.0029059206
2.100774E-4
-0.0022354168
-0.0067719556
-0.007082374
-0.0030316133
6.1842507E-6
0.0038773722
0.0059304205
0.005791256
0.006277394
0.003891812
-0.0018208765
-0.006595149
-0.005809011
-9.461931E-4
0.004839078
0.012558155
0.016453682
0.014056695
0.009277203
0.0020643359
-0.0031342178
-0.005665674
-0.010268901
-0.013121842
-0.009790367
-0.0034245553
4.270266E-5
0.0012077908
0.0020067557
-0.0010090469
-0.006974449
-0.012064049
-0.0124105485
-0.0076922355
-0.0021508283
0.003970928
0.0072462903
0.0070915096
0.006992186
0.0018360429
-0.0050760536
-0.008508318
-0.010869412
-0.007228139
5.8564806E-4
0.006395804
0.011075143
0.013505794
0.014765799
0.012484109
0.0047636908
-6.6047837E-4
-0.002761956
-0.002930758
-6.511349E-4
4.1788295E-4
0.0014950898
0.0035205593
0.0041015227
0.0022519573
-0.0025018945
-0.005799802
-0.005621446
-0.0033843522
8.0678525E-4
0.0015481301
-9.3275897E-4
-1.6245738E-4
0.0014347923
-2.4473868E-4
-0.005825148
-0.011942867
-0.012318947
-0.007468068
-0.0027290503
-6.026949E-4
0.002808256
0.0073825167
0.0064512305
0.003744259
7.221017E-4
-0.006326476
-0.009275986
-0.005529887
-2.0492921E-4
0.004218506
0.0058762324
0.006919101
0.006057556
0.0035479714
0.0014718813
-0.0042959815
-0.00848402
-0.005309276
0.002051365
0.009853967
0.012718799
0.013067993
0.011955901
0.0067093335
0.001745914
-0.0062520797
-0.014031573
-0.011895648
-0.006643758
-0.0018789648
0.0023938918
0.0040606214
0.0055293245
0.0037523329
-0.0012987747
-0.0065735183
-0.009281651
-0.0037268144
0.0038332348
0.0078314645
0.009748208
0.00577679
-9.0052774E-5
-0.0035912553
-0.008448611
-0.0137856165
-0.016080575
-0.0125154685
-0.0069877165
-0.0037520402
0.0013904335
0.006392927
0.008612989
0.0094046295
0.004374524
-0.004038243
-0.00839101
-0.0067666
-2.9726527E-4
0.005422899
0.008356051
0.010257383
0.009448426
0.007598029
0.006423758
0.00334192
0.0011827203
0.005453574
0.011366843
0.012248482
0.010497634
0.005949857
-8.3825266E-4
-0.006020065
-0.015474048
-0.02599352
-0.024451092
-0.014637461
-0.0058126496
-4.6908864E-4
0.0024629198
0.004640435
0.0042469595
0.0026497482
8.93999E-5
-0.0049074786
-0.0077993744
-0.0056410106
7.9445285E-4
0.0054994924
0.0048242044
0.0047115427
0.005722695
0.0058768527
0.0032296076
-0.0032870474
-0.0036563454
0.002018285
0.0039108847
0.0055708494
0.009004507
0.009359875
0.006883128
0.0033286156
-0.0019876692
-0.008647881
-0.010984433
-0.006161085
-0.002450817
-0.0047577284
-0.004571035
0.0011062396
0.0039548427
0.004230109
0.0030975142
-0.004314573
-0.010037029
-0.006666102
2.61547E-4
0.00666806
0.009614803
0.00891862
0.007367986
0.004187024
-0.0018330445
-0.009957309
-0.013545622
-0.0092861205
-0.0039435797
7.99992E-4
0.004602773
0.0064443336
0.008466272
0.005337924
-0.0030905944
-0.008343008
-0.008567505
-0.0044584665
0.0014917138
0.007003154
0.010372296
0.009124826
0.007047807
0.0037858542
-0.0027840016
-0.008408276
-0.011596739
-0.008761778
-0.001357306
0.0024807407
0.003066169
0.0031024818
0.005582195
0.0074022296
0.0018913738
-0.006578484
-0.012752121
-0.010999124
-0.0028315072
0.005081808
0.012767294
0.0056692124
-0.007885558
8.6844177E-4
0.008493824
-9.7260927E-4
-0.0046477173
-0.0038035566
-0.002619586
0.0023842559
0.005850363
0.0077578495
0.007700732
0.003911625
-0.0038960078
-0.012459963
-0.014181419
-0.008640605
0.0012915928
0.010298884
0.011755752
0.006437473
-1.3060904E-4
-0.0018293293
-0.0015633088
-0.00421845
-0.006527229
-0.0069558024
-0.0032091744
0.0021544504
0.0030768123
0.0051765824
0.008193085
0.004838517
-0.0011693247
-0.00517728
-0.007235316
-0.006850889
-0.0035800072
0.0017215721
0.006385981
0.008263798
0.008226178
0.005875792
-9.944187E-4
-0.007848279
-0.010594121
-0.010231352
-0.005444649
-9.2834636E-4
-1.1458836E-4
0.0013490306
0.0030786388
0.004432018
0.0018940201
-0.0049266852
-0.0071301935
-0.006181671
-0.0022897578
0.0058592726
0.008546908
0.007898006
0.008356832
0.006414899
0.0025059197
-0.0046286895
-0.009512756
-0.0075507355
-0.0044232067
5.113661E-4
0.0038250587
0.0018936943
0.0017643407
0.0014255244
-0.0017587412
-0.0041515455
-0.007142886
-0.008198723
-0.004944879
-6.915318E-4
0.005012304
0.009200648
0.007352017
0.0038897027
0.0017488529
-0.0010719856
-0.0044346303
-0.0044911173
4.1774695E-4
0.004161764
0.0065851132
0.011690314
0.013846364
0.011492093
0.0068076793
-7.040772E-4
-0.004821675
-0.0017194316
0.0035441162
0.0045435075
0.0029673611
0.006613285
0.0107361125
0.006369376
-0.006544717
-0.02050753
-0.019587044
-0.0079132095
-0.0057219537
-0.0071602673
-0.0022336864
1.6940637E-4
-0.0015686265
-0.0022511259
-0.0066099507
-0.016188113
-0.020068292
-0.013188944
-0.001720278
0.006099856
0.0047365846
6.5374415E-4
-0.0011060985
-0.0054329652
-0.0073241973
-0.0055446224
-0.0035305072
0.007945549
0.020309297
0.022096913
0.025394764
0.022302197
0.0053790268
-0.0013897521
0.0052278484
0.0076984125
9.871752E-4
-0.004250936
0.011354256
0.03278924
0.025574045
2.36576E-4
-0.013705349
-0.014597867
-0.02155509
-0.03702513
-0.0324525
-8.51741E-4
0.032905973
0.048059683
0.029509794
-0.0011431049
-0.0047338624
-0.0078030974
-0.045817826
-0.085927024
-0.09519062
-0.07216018
-0.010176732
0.06455656
0.09836376
0.09987433
0.08692857
0.037673
-0.019457748
-0.0506438
-0.06050247
-0.047845803
-0.040528648
-0.033477645
0.002627139
0.023562402
0.022258982
0.023634566
0.015110248
0.013615945
0.0063699456
-0.025849449
-0.033258937
-0.010519675
0.0012183735
0.00539045
0.01668203
0.01477994
-0.007912397
-0.01699513
-0.0048712697
0.009961513
0.023130437
0.025803624
0.015471206
0.004244346
0.009165415
0.02283391
0.014913862
-0.0058071916
-0.012325331
-8.1154384E-4
0.011875429
0.008045808
0.0016623946
-0.0046791574
-0.02529901
-0.04532502
-0.04005724
-0.013280487
-0.006933478
-0.016030263
-0.0013409387
0.011465127
0.014330042
0.020566816
0.014313244
0.007678408
5.876752E-4
-0.014974913
-0.022288812
-0.020367527
-0.005607526
0.01407113
0.018031677
0.011683054
0.0072934465
0.009011576
0.0069987965
-2.3741287E-4
-0.0044786963
-0.011635145
-0.010392421
0.0030890356
0.0070132683
0.001681577
-0.0028821079
-0.006842944
-0.013821691
-0.021303246
-0.021745535
-0.017932767
-0.010462763
-3.8738552E-4
0.0070375474
0.014597961
0.016975667
0.010515798
0.007958879
0.011607346
0.010150846
0.005213637
0.00749162
0.013243627
0.01638909
0.018472524
0.01646906
0.012103915
0.0073927892
-0.001872507
-0.010111635
-0.011896048
-0.010111833
-0.0058117067
-1.4634982E-4
0.003557381
0.0036378608
0.0029854004
0.0046606027
0.0057697925
0.0030330315
0.0027675058
0.011318438
0.018400703
0.017410086
0.017225036
0.01769489
0.0141485585
0.006330271
-0.009280017
-0.026890533
-0.03664818
-0.036713835
-0.029322475
-0.024463523
-0.024034586
-0.020770151
-0.019038409
-0.02215928
-0.028970914
-0.03793262
-0.042108666
-0.039308425
-0.028868657
-0.013383838
8.714215E-4
0.020383514
0.044249337
0.054890227
0.05165933
0.05343218
0.06629102
0.07578759
0.07334055
0.061194494
0.04313493
0.028759548
0.0153499385
-0.010802457
-0.04274455
-0.061118323
-0.05953773
-0.048640545
-0.038427398
-0.029399028
-0.026313411
-0.029339036
-0.034635548
-0.044107653
-0.043868028
-0.026686054
-0.011372901
0.0033889923
0.027135624
0.047431227
0.05863367
0.059051443
0.052561425
0.054819148
0.05642117
0.04730353
0.034007505
0.009136846
-0.016302124
-0.023056254
-0.018276382
-0.01128696
-0.02347543
-0.057101388
-0.07409774
-0.069929555
-0.056967765
-0.036283027
-0.027186282
-0.023130735
-0.0037618906
0.016660385
0.032568067
0.043610852
0.035816997
0.018426279
0.008185756
0.0064051603
0.00969976
0.007172725
-0.0019337093
-0.0035394644
-0.0011018431
-0.005591205
-0.00876355
-0.0044759135
-0.0027106002
-0.0042775827
0.0026885853
0.017200861
0.024637055
0.01885637
0.0079154335
-5.695616E-4
-0.005914539
-0.0076387348
-0.0042655687
0.0026052806
0.008369726
0.01371971
0.019076895
0.019674042
0.023846164
0.031393576
0.026668353
0.017813293
0.00766976
-0.011788937
-0.028881844
-0.04597503
-0.06253098
-0.06272921
-0.05595387
-0.052073576
-0.04697828
-0.033027396
-0.006173668
0.019391416
0.03956399
0.05525841
0.05947544
0.061070293
0.06020844
0.05285083
0.044077117
0.023537694
-0.007595785
-0.03466473
-0.05133073
-0.049194783
-0.035574257
-0.026786368
-0.023148557
-0.02104864
-0.01736107
-0.013557071
-0.013328396
-0.010654009
-0.0059153168
-0.0053548687
-0.004212019
-0.0015073108
3.5097287E-4
0.005198886
0.0075589796
0.0061029675
0.011220358
0.020116333
0.029407699
0.0406375
0.046220016
0.045053814
0.039572902
0.027184034
0.012222414
-5.6935084E-4
-0.011891487
-0.017823346
-0.016276058
-0.016429035
-0.018652828
-0.016945118
-0.017267048
-0.016216466
-0.011361702
-0.011857467
-0.009253032
8.5321337E-4
0.010300228
0.018842423
0.024315797
0.026288223
0.02155824
0.0076770666
-0.006452576
-0.019356634
-0.027210563
-0.02633047
-0.025658665
-0.024533777
-0.020731406
-0.016020335
-0.007675964
9.56619E-4
0.004142884
4.5147896E-4
-0.0036984247
-0.0031479152
-0.001972418
0.0011919052
0.0073678666
0.013910524
0.021249037
0.026221918
0.022966664
0.010771095
0.0030179622
0.00551914
0.008048046
0.010998763
0.0120961815
0.009803438
0.0089959875
-0.0022165256
-0.022012755
-0.03288442
-0.032155085
-0.023415618
-0.013893699
-0.005460469
0.0018358183
0.0030923293
0.0023145254
0.0011230168
-9.0890814E-4
-0.0018234159
-0.0019807047
0.001518427
0.0068620252
0.013009612
0.01835149
0.018007286
0.018929552
0.018877137
0.008885247
-0.0016485158
-0.0052813753
-0.0049382597
-9.965618E-4
0.0043672835
0.0048345653
0.0026636343
0.0016133679
-0.0026788916
-0.008272061
-0.016245024
-0.024536766
-0.02240103
-0.017050967
-0.011424346
-0.004990986
-0.0011562369
0.0102072
0.010661471
-0.006884471
-0.006403065
0.004197633
0.007412163
0.01494589
0.01575242
0.008596767
0.009542746
0.011089226
0.0039481428
-0.006871589
-0.014740817
-0.014251397
-0.0048224097
0.0043315887
0.005806978
0.0018928958
-0.0021422114
-0.0037005022
-0.0074172467
-0.011899705
-0.011538075
-0.01090766
-0.0057037426
0.0058313264
0.011138397
0.011654465
0.011705974
0.008355555
0.003420218
-0.0018361371
-0.003816822
0.001769592
0.012111082
0.020887848
0.024846073
0.024019595
0.017007327
0.0047151227
-0.011759631
-0.028295249
-0.035680186
-0.035302896
-0.027262798
-0.009995653
0.0014481272
0.0024566194
0.0034005973
0.004899016
0.0038371154
-8.7786413E-4
-0.0064867227
-0.008606498
-0.008946933
-0.0071176756
-0.0010830746
0.005518481
0.009305979
0.010856133
0.011546471
0.010000385
0.007935335
0.011349516
0.015861241
0.01580072
0.016118446
0.014002661
0.007990176
0.0054048216
-6.468706E-4
-0.013016572
-0.020397048
-0.02142219
-0.018792687
-0.0140265245
-0.009762775
-0.0062932433
-0.0029103851
0.0027735932
0.0049910406
-6.6604E-4
-0.0067566764
-0.010730793
-0.0077353194
0.0026064925
0.008206029
0.011483313
0.015241116
0.012215086
0.0062129693
0.0012721104
-0.003065075
-0.0032672882
-2.09128E-4
0.0020834866
0.005752717
0.010253426
0.0100588575
0.0077285385
0.0031764966
-0.005975687
-0.011349399
-0.011420894
-0.0097746095
-0.006989344
-0.0053355168
-0.0025600782
-0.0012213498
-0.0016443173
-6.709516E-4
-0.006111022
-0.011491237
-0.0064619477
0.0010122182
0.0058276486
0.005812927
0.0046619847
0.005507777
0.002831186
0.0011415969
-0.0020202803
-0.009778527
-0.009896886
-0.004052581
0.0044985577
0.016141027
0.022115057
0.024250057
0.021012979
0.007907159
-0.004476333
-0.012469734
-0.01644668
-0.013952775
-0.007759605
4.8356463E-4
0.004989709
0.0048284554
0.0054199724
-0.0016174047
-0.015488864
-0.017863547
-0.008681241
-0.0015355453
0.002522293
0.005725654
0.0036821421
7.4667385E-4
0.0026834835
0.0023391005
-7.2031304E-5
-0.0017000943
-0.005598862
-0.0031452244
0.0043060584
0.005516975
0.006144521
0.006569401
0.0032971746
0.0013376059
-0.004788454
-0.015169749
-0.014994317
-0.004693909
0.0025677776
0.0054330104
0.008342108
0.010124754
0.009600644
0.006495823
9.5631095E-4
-0.003620229
-0.0053562736
-0.005144655
-0.0026803748
0.0015543151
0.0046132556
0.0054721516
0.0054471716
0.0033543154
-0.0017412736
-0.006324379
-0.0071490332
-0.004180137
0.0016805312
0.005946951
0.005002048
0.0050777835
0.0056688664
-3.6787262E-4
-0.0057094395
-0.00881088
-0.013680174
-0.01130104
-0.0044967392
-0.0019569425
-7.5761694E-4
8.118236E-4
0.0040866933
0.005626345
0.0010491681
-0.0046838433
-0.0080189295
-0.008219116
-0.004786234
0.002655056
0.010599845
0.012873403
0.011443253
0.008373398
0.0040051504
-0.0024287065
-0.009509265
-0.008350435
-0.0070182793
-0.0065832287
0.009628392
0.024945458
0.025422782
0.021773385
0.00962175
-0.006983063
-0.015952015
-0.017224682
-0.011160247
-0.0044665425
-0.0016375149
2.9622E-5
0.001092974
0.0027650644
0.0021769656
-0.0018956277
-0.0051328074
-0.0054940307
-0.003793612
-0.0033460935
-0.0030905232
-0.0021031448
-0.003339357
-0.0051579704
-0.008691073
-0.013770979
-0.014294582
-0.009639082
-0.0016867231
0.00586917
0.0097708
0.011425434
0.009838416
0.0052014748
6.507364E-4
-0.002180845
-0.0027364735
-0.0013278137
0.0016155634
0.0032498974
0.0061164787
0.014502421
0.018087855
0.013668511
0.010892098
0.007616765
0.0037566314
0.0060030925
0.008555402
0.0058283103
0.0017505484
-0.003930508
-0.009823557
-0.009343
-0.007519015
-0.011760175
-0.01690048
-0.01631917
-0.0106986575
-0.0071984096
-0.005770722
-0.0011758478
0.0012645593
9.792575E-4
-0.0018178804
-0.011043776
-0.014172973
-0.00901215
-0.0048967875
0.003992602
0.013267137
0.01553597
0.015409902
0.010927346
0.003316549
-0.0027887365
-0.006427913
-0.005193862
-0.0017705929
0.002285725
0.0074184616
0.009065045
0.007725148
0.00631652
0.0027237483
-0.0029360116
-0.006097683
-0.0035592068
0.0016460805
0.0062299827
0.010954566
0.011735315
0.0073012877
0.004758004
0.0017819069
-0.0061589642
-0.014816967
-0.018613957
-0.011140334
-0.0013603444
-0.0014872263
1.3758118E-4
0.005487943
0.004015997
-5.032033E-4
-0.0057980483
-0.009150678
-0.005831814
-4.5223517E-4
0.0036179675
0.0066691847
0.009078269
0.007183016
8.1617816E-4
-0.0019556356
-0.005669891
-0.012539047
-0.011984624
-0.0073013925
-0.0052248654
-0.0039026788
-6.778851E-4
0.0032855344
4.62452E-4
-0.004596061
-0.002840063
-3.6809966E-4
0.0012061956
0.0048790686
0.009405684
0.014814351
0.014734122
0.008206211
0.0036243824
7.3444337E-4
7.3525216E-4
0.0069443714
0.014897908
0.01965131
0.017177392
0.011959237
0.008680677
0.0020934811
-0.004504315
-0.014525058
-0.033814006
-0.039765734
-0.025408804
-0.011678578
-0.0030682716
0.0021479372
0.003541728
0.00406536
-1.7739478E-5
-0.007371708
-0.010715752
-0.009806009
-0.0047203996
0.0033492842
0.007496043
0.006055062
0.0061192266
0.010807967
0.012841944
0.007144011
-2.4934288E-4
-0.0037437344
-0.0031368786
0.00180903
0.007398815
0.009678076
0.009175804
0.0053624636
-2.3781323E-4
-0.004597068
-0.007395334
-0.007857412
-0.0041974075
0.0030939993
0.0077437367
0.007705008
0.0064778575
0.0028097928
-7.575891E-5
-0.0031336725
-0.011022973
-0.0121306805
-0.005322726
-1.4463109E-4
0.007343476
0.014420773
0.014943622
0.011493101
0.00499483
-0.0059792707
-0.018502077
-0.020696558
-0.013654873
-0.009614545
-0.005048422
-3.9329674E-4
8.4658276E-4
0.00405702
0.0044638794
3.332993E-4
-0.0036485333
-0.006556478
-0.0035024078
0.0025021222
0.005694262
0.0077039395
0.0070833806
0.005068678
0.0039046195
0.0016971643
-0.0020431024
-0.006036142
-0.0045776647
0.0010863638
0.0029896449
0.004745947
0.008182265
0.0081540765
0.00606693
0.0022210847
-0.0050117387
-0.010275048
-0.0070129083
8.523054E-4
0.004532295
0.0054747257
0.0074533387
0.008086098
0.005465354
5.6145864E-4
-0.0041804626
-0.009421546
-0.013684151
-0.01178257
-0.005422894
6.345172E-4
0.0025761623
0.0017750462
0.0018818859
-0.0019413773
-0.007881072
-0.009304629
-0.006656961
1.5813933E-4
0.0046399734
0.004639935
0.006813213
0.0064679817
0.0022128422
-0.001056073
-0.004671905
-0.0072807297
-0.0047606346
0.0030564333
0.009326174
0.0103941485
0.009867094
0.007288282
0.0025093
-0.002873151
-0.0061669694
-0.0038753327
0.0011656848
0.005514627
0.0069816336
0.008484732
0.0114114275
0.0060828947
-0.0025628342
-0.0049626534
-0.009053757
-0.014765813
-0.013420754
-0.0070633516
-0.004132031
-0.0042523704
-0.0015578327
1.682637E-4
-5.8780954E-4
-0.0018663006
-0.006103397
-0.009034379
-0.0069558704
-0.0014296537
0.0054226285
0.009330432
0.009413998
0.007613351
0.0058648945
0.0047341418
0.0024093145
-0.0016442344
-0.0028808496
0.0026424169
0.006359449
0.0062815733
0.008758946
0.007659654
0.0058161593
9.94562E-4
-0.016151976
-0.021316238
-0.007888492
-3.1233777E-4
0.0028645294
0.0052109305
0.0039004602
0.00489522
0.0042475397
-8.068922E-4
-0.006452117
-0.011621104
-0.0117763765
-0.006440783
-0.0017730573
0.0013895872
0.005133666
0.007616211
0.0073370007
0.0037509005
-0.0036617916
-0.008654697
-0.005787291
2.9507405E-4
0.0054530473
0.009442817
0.01053414
0.008361457
0.0045877825
0.0012957756
1.5507644E-4
-0.0018203271
-0.0053766016
-0.0053835153
-0.0018542903
0.003957684
0.010426666
0.01003357
0.0034881022
-0.002367228
-0.007697993
-0.012116664
-0.011502236
-0.005646067
-5.942751E-4
9.047119E-4
0.002884286
0.0040978827
0.0012552678
-0.0019787906
-0.0058727697
-0.013749554
-0.016706927
-0.009421248
-0.0025348265
0.0010660235
0.003804016
0.004193307
0.007246047
0.008674713
0.001273698
-0.0051226164
-0.0051143286
-8.390134E-4
0.0063818046
0.01202036
0.014661314
0.013534389
0.010422916
0.009498993
0.0076398617
0.0024465
-0.003243873
-0.0052105677
-0.0017289785
0.0029904288
0.0043674726
0.001998418
0.0012756503
0.0014374199
-0.007117708
-0.017243968
-0.015923426
-0.008221817
-0.0020854846
2.3464326E-4
7.84435E-4
0.0027697675
0.0023501217
-0.0032035674
-0.010091406
-0.014245132
-0.013291343
-0.007818223
-0.0015548861
0.0032318975
0.0076382793
0.009606036
0.007509267
0.003762852
-0.003772819
-0.009884693
-0.0048707305
0.003080475
0.0067160064
0.009853202
0.012404526
0.01360206
0.012158304
0.008845074
0.004534186
-0.0052100504
-0.01196273
-0.0054875063
0.003540694
0.006231701
0.0051956913
0.0023641163
3.826537E-4
-0.0018861319
-0.0076322155
-0.011536126
-0.009769786
-0.00419606
0.00405731
0.007889541