-0.0015765814
8.742676E-5
0.0045139263
0.011696278
0.013071775
0.0067116357
0.0015097613
-0.0041568745
-0.011799816
-0.016083444
-0.014250331
-0.006230126
0.0018138901
0.00720484
0.014475527
0.01839194
0.0076399115
-0.010219202
-0.014176081
-0.006922409
-0.004475909
-0.0036291264
-2.4936922E-4
-5.320065E-4
-0.0036636284
-0.0024563435
0.0016102348
0.0014150615
4.8116566E-5
-9.369203E-4
-0.004973279
-0.00388081
0.004089353
0.007164547
0.0049089016
0.0046436964
0.0032493134
-0.0010701481
-4.2960257E-4
7.0159475E-4
-0.003198033
-0.002397732
7.66757E-4
6.7443843E-4
0.002676713
0.006054909
0.007002997
0.002252239
-0.0023815506
-0.0013192047
-0.004017772
-0.005114347
9.358173E-4
0.0013763072
-4.0538813E-4
5.093268E-4
-0.0014285196
-0.003350985
-0.005184841
-0.0070844437
-0.005354085
-0.002506608
0.0010112907
0.004334086
0.0021272511
-0.0012718355
8.110661E-4
0.0037644827
0.0013894471
-0.0056519653
-0.0090185385
-0.0057697333
-0.002643085
0.004007872
0.014071184
0.019129433
0.020720242
0.011288598
-0.007695389
-0.014548332
-0.009144793
-0.0022686212
-9.7511103E-4
-0.007104393
-0.0068671573
-4.396336E-5
0.003361128
0.0053335014
0.0035204035
-9.3305984E-4
-7.652375E-4
-0.001869967
-0.005063886
0.0011643159
0.008183096
0.0029229186
-0.0021313194
-0.0016787478
-0.0032467193
-0.0067047905
-0.012701755
-0.01316384
-0.0019606228
0.008764196
0.014805731
0.016981378
0.007917817
-0.008723945
-0.016780429
-0.01137543
-0.004127142
-0.003163675
-0.0036402938
-2.751145E-4
0.0017777168
0.0014189078
0.004365978
0.0066550416
0.008989118
0.008600816
-0.00106554
3.3558783E-4
0.0121952
0.01089802
0.0059098382
0.002342897
-0.0029371048
-4.1279975E-5
0.002860732
-0.0030836666
-0.009817617
-0.011273306
-0.008002116
-0.0033957693
8.502353E-4
0.0034180458
0.0050232857
0.0028065564
-0.005100301
-0.0076761227
-0.0055292337
-0.006592649
-0.004805862
8.4839405E-5
0.00273351
0.0037462013
0.0040268237
0.002256073
-0.0011048622
-0.0034581737
-0.006112798
-0.005503627
4.4975223E-4
0.0038060907
0.005381282
0.0060751345
0.004055351
0.004152554
0.003765301
5.9321517E-4
-0.001776705
-0.0012785293
0.0024693816
0.004214783
0.0027957822
0.0021817563
0.0029841915
0.0031329521
-8.872291E-4
-0.0051168217
-0.0049954355
-0.0036966486
-0.0027489099
-0.0019789534
8.538478E-5
0.0034519397
0.004257833
0.0017092703
-0.00145945
-0.005163611
-0.009272893
-0.006819038
-9.0292527E-4
-2.5745193E-4
8.941259E-4
0.0016714076
1.368295E-4
3.332373E-4
-0.0011542958
-0.0014942128
-0.0043789693
-0.008174483
0.0022787903
0.01869939
0.030897396
0.028681139
0.005552704
-0.015533236
-0.02561722
-0.0220978
-0.007045475
-0.005293929
-0.008564855
-0.0030078725
0.0038045147
0.014478278
0.0200484
0.014109155
0.0013909988
-0.0135326
-0.018628988
-0.015251936
-0.00571925
0.005763625
0.00851884
0.015422218
0.023523198
0.011720658
-0.009545128
-0.020199563
-0.01636701
-0.008669534
-0.0042837695
9.134739E-4
0.007130176
0.0153291
0.017293554
0.0020238971
-0.012923536
-0.013113512
-0.008790764
-0.0026558598
0.006036748
0.009848337
0.009017215
0.003433372
-0.005050609
-0.004061905
-5.872249E-4
-0.003710897
-0.0023652385
-7.526521E-4
-7.5681164E-4
0.0057779434
0.0061089015
0.0012909909
0.0043714126
0.0042694756
-0.002620708
-0.00643282
-0.007925814
-0.007795869
-0.004949436
-9.5825776E-4
0.004019975
0.0056349654
0.0028534837
0.0036759155
0.006417764
0.003264631
-0.002492152
-0.0047358805
-0.002427064
0.0010159902
0.0021841854
0.0018545096
2.956024E-4
-1.3002935E-4
0.0013509644
-0.001787631
-0.0073465686
-0.0072608255
-0.0031144898
0.0013605449
0.0036012162
0.0026399686
0.0022880628
0.0027974574
0.0014711685
-0.0012311636
-0.004611665
-0.0061013238
-0.0032743816
0.0010960399
0.0048148464
0.0066046445
0.0058871033
0.005199769
0.0017559137
-0.0056035295
-0.008577794
-0.0057615135
-0.0031611915
-0.0026670105
-8.791266E-4
0.0065256082
0.014344292
0.0132509805
0.001683605
-0.013858899
-0.019498881
-0.010391597
0.0029179794
0.016295584
0.026540473
0.018280083
-0.0059884395
-0.017331365
-0.008195427
0.001258155
0.005144172
0.005704924
0.0012475102
2.981461E-4
1.0126394E-5
-0.009324475
-0.013583289
-0.0076074237
-0.004793086
-0.0044921925
-0.0042048567
-0.004927101
-0.0022721656
0.0018873912
0.0030171096
0.0011773324
6.668162E-4
0.004147997
0.0039602867
-0.0023689005
-0.0076848394
-0.010436697
-0.007633806
0.0034006787
0.014394139
0.022137001
0.029355725
0.025627073
0.0050446047
-0.01362945
-0.01725123
-0.014563432
-0.009398856
-1.0696171E-4
0.0049361773
0.004217301
0.006001934
0.0042822617
-0.004653179
-0.007110511
-0.0051532583
-0.008842327
-0.010216454
-0.004788036
0.003752855
0.009943004
0.0071212905
0.0032881296
0.0054035513
0.0047996603
9.0560416E-4
-0.0013863285
-0.0040472583
-0.005126758
-0.0035858273
-0.0029113286
-0.0021484224
-0.0017509122
-0.002860634
-0.0044993595
-0.008038572
-0.009744444
-0.0060576256
4.663427E-4
0.0074881017
0.009799506
0.0077281133
0.006576721
0.0038597595
-5.5163982E-5
-0.0021869314
-0.002816838
-4.9210066E-4
0.0022043644
0.0018566791
7.634818E-5
-3.3099472E-4
7.5859646E-4
-4.718899E-4
-0.0010604922
0.0055617946
0.01646447
0.023253847
0.015097831
-0.0072400193
-0.023201866
-0.021322679
-0.010317445
-0.002813134
-0.004081991
-0.0057812966
-0.003108156
-0.001903982
0.0011390058
0.005887866
0.004391226
0.00240556
0.003573873
0.0042399396
0.0064238734
0.0053444724
-0.0039021922
-0.011324198
-0.005682563
0.0050746617
0.0066099237
0.004779767
0.0010824812
-0.0085382555
-0.0074280086
5.2103767E-4
-0.002345923
-0.0030940804
0.002625357
0.0032499945
0.0034393247
0.0055760825
0.0034994385
-2.040346E-4
-0.0015370934
-0.0044003413
-0.0077205626
-0.0045754523
0.0019354381
0.004759276
0.004409898
0.0035758228
0.0022337388
3.9425443E-4
8.538805E-5
5.173992E-4
-0.0019389563
-0.004721482
-0.0021069418
0.0013128126
-3.0713077E-4
-7.485351E-4
0.0018229577
0.0010820391
-0.0016493966
-0.0030673882
-0.0055049863
-0.0077625383
-0.00352103
0.0039322404
0.0064216247
0.0067739165
0.00727126
0.0063902675
0.0032454613
-0.002771533
-0.0043811565
-0.0014813298
6.7408226E-4
0.0037753112
0.0026397072
1.7875271E-4
0.0017515984
-5.839409E-4
-0.004080739
-0.005987978
-0.007961069
-0.0050020046
-9.0163405E-4
0.0015389099
0.003719911
0.0033015676
0.002189001
0.001081295
-9.190154E-4
-0.0031187262
-0.0035178354
-1.329674E-4
0.002612107
0.0030894254
0.0038459173
0.0033051556
0.0010118793
-0.0016026577
-0.0034423508
-0.0057548624
-0.008701122
-0.0074373228
-0.002378991
0.0019391291
0.004881941
0.005753373
0.004517081
0.0027649214
5.6752928E-5
-0.0028121735
-0.0034636327
-0.002626018
-1.6821171E-4
0.0026167105
0.0019365832
0.0017779588
0.0029161721
0.001079801
-0.0010269266
-0.0035923154
-0.002467686
0.0066148182
0.012029896
0.012854163
0.016078983
0.0147653185
0.0071262834
0.0016447589
-0.0018593422
-0.0121694235
-0.02312558
-0.023518914
-0.021505801
-0.018771553
-0.009608272
3.515499E-4
0.010172606
0.017362379
0.014196391
0.002253937
-0.00913324
-0.01174177
-0.009700046
-0.007172615
-0.0015878509
0.004083686
0.00856632
0.008162038
0.0015667143
0.0016220418
0.009994427
0.01491943
0.013843078
0.012923009
0.009997513
-0.0015991894
-0.0080401935
-0.002497084
9.112239E-4
0.005448996
0.009771628
0.0030423065
-0.0053686034
-0.013433235
-0.021569539
-0.02177012
-0.017325437
-0.005817315
0.007933463
0.010934633
0.013656845
0.0118518835
-0.0060632676
-0.014974909
-0.004440765
0.0073270644
0.012169914
0.008013959
0.0017850297
-6.910932E-4
-0.0033393553
-7.249512E-4
0.0027042143
-0.0035372062
-0.00876036
-0.008002806
-0.0055067567
8.171174E-4
0.005231286
0.0027280366
-0.0015332081
-0.0044246716
-0.005843272
-0.00564207
-0.0045867693
-0.0019518137
0.0032155826
0.008521556
0.011657872
0.010158669
0.0033853033
-5.461501E-4
0.0032941177
0.010311659
0.014264897
0.012688846
0.012064525
0.010982132
0.002759869
-0.005785526
-0.013010548
-0.016300265
-0.008670288
-5.0230016E-4
4.0582957E-4
-0.006038228
-0.016305307
-0.017957844
-0.011717377
-0.0046896283
9.174075E-4
0.0020832152
0.0025948372
0.0017867835
-0.0028779847
-0.005352971
-0.00475374
-2.2753484E-4
0.008000628
0.009824203
0.0056632427
0.0077492194
0.014195174
0.012504122
0.0013613066
-0.010008159
-0.011100875
-0.0015453812
0.003691801
-8.118201E-4
-0.0022090485
0.0019331985
8.250617E-4
-0.0031000383
-4.392184E-4
0.005132988
0.010197349
0.013106983
0.0076786485
-0.0027204028
-0.01344976
-0.01860655
-0.00930655
0.0010059375
0.0013790495
0.0045419307
0.012088142
0.015213306
0.009611053
-0.0040893513
-0.01182976
-0.0080127325
-0.0051708454
-0.0033590423
0.0014070626
0.0030973502
0.0025511736
-9.1976585E-4
-0.0061353706
-0.0038664893
-0.0014243701
-0.0035029212
-0.0021184618
-0.0023829073
-0.0036127123
-2.8486177E-4
5.068878E-4
1.7754514E-4
0.0021262013
4.3346864E-4
-0.0024491907
-0.0013397095
-5.2106404E-4
-6.916174E-4
0.0017999547
0.0027854964
0.0018215585
0.0034116344
0.0043253754
0.0037603737
0.004130154
0.0024962989
-0.0021526357
-0.0036247552
0.0016953924
0.006021232
0.0058228946
0.005281669
0.0025643636
-0.0022805182
-0.007844593
-0.012418607
-0.009540637
-0.0026274286
0.0012563841
0.0031864368
0.0042926986
0.0045382413
0.00226487
-0.0026897227
-0.005776647
-0.004477021
-0.0019159002
-0.001949767
-0.0019163305
5.424253E-4
0.003472038
0.0060712975
0.004811326
-4.666902E-4
-0.0039806976
-0.0028785083
0.0022879734
0.006002455
0.0064874953
0.0069195977
0.005364897
0.0025606952
-5.8260956E-4
-0.0037920966
-0.0041204244
-0.0056116804
-0.0070779338
-0.0033366624
-3.8263617E-5
5.850428E-4
9.886716E-4
0.0012241476
6.058305E-4
-0.0025149088
-0.0055165435
-0.0065489244
-0.004780102
0.0010091538
0.004390744
0.005146933
0.0061549842
0.0013049515
-0.004613024
-0.005819899
-0.008271728
-0.008091352
-0.0012963607
0.004533077
0.0067189974
0.00767963
0.00840382
0.008086299
0.0060326424
0.003011976
-7.717386E-4
-0.0026128525
-0.0024292439
-0.0022281765
-3.3309234E-6
-8.441321E-4
-0.0042628567
-3.1479154E-5
0.00623411
0.0071753967
0.004047382
-2.6525275E-4
3.6964295E-4
0.001268948
5.219527E-4
9.776119E-4
-0.004602483
-0.009307763
-0.010554937
-0.01684852
-0.017631292
-0.011902256
-0.006634457
3.512219E-4
0.0042056604
0.007710023
0.012341168
0.012519878
0.013537352
0.013041253
0.007023982
0.0016553535
-6.854186E-4
-6.873241E-4
-0.0018578847
-0.0027963459
-0.0016511376
-0.0047239084
-0.008054841
-0.0062172445
-0.0026416616
0.0022221613
0.0078684455
0.01392175
0.01658127
0.013740161
0.011783478
0.008068792
0.0027203853
4.5833408E-4
-0.0064431466
-0.014068748
-0.016354624
-0.01944133
-0.019634089
-0.01696556
-0.012282569
-0.0023704986
0.0031010828
0.0045101424
0.0068614674
0.0074510067
0.0105092665
0.009263446
-4.3330682E-4
-0.0047481707
-0.0028593962
-0.0034201548
-0.0075742346
-0.011215848
-0.012362844
-0.0110819675
-0.0017667953
0.013020196
0.022682348
0.02441721
0.022219973
0.023290785
0.024024427
0.014727596
-0.0024327426
-0.018447157
-0.024104191
-0.023199786
-0.022906102
-0.016761875
-0.008249244
-0.0041049602
3.726721E-4
2.596256E-4
-0.008482606
-0.015829362
-0.017258657
-0.016509084
-0.011424364
0.0031644295
0.019757748
0.027401062
0.031631626
0.03483464
0.028486837
0.021477122
0.021579415
0.016859531
0.0052306037
-0.0056028413
-0.008894919
-0.0029212097
-6.13078E-4
-0.0052718464
-0.005970847
-0.0038090316
-0.008043702
-0.018049335
-0.024037715
-0.025036188
-0.021456681
-0.012786674
-0.011805781
-0.014895633
-0.008584255
-0.0011547046
0.005173105
0.014102789
0.018252488
0.015194452
0.007107427
-0.0012564397
-0.0042070406
-0.005506563
-0.0044147214
0.0051970184
0.013882962
0.015684204
0.012971595
-7.2196795E-4
-0.01102069
-0.0022228006
0.0042514903
-0.0023164041
-0.0077294903
-0.005781667
-0.0041648764
-0.009220472
-0.0131589845
-0.013889039
-0.012091345
-0.004281263
0.0022442213
0.0069298786
0.010537376
0.015138902
0.029031344
0.03155843
0.018146718
0.017651452
0.0212719
0.01422348
1.2471937E-4
-0.026980523
-0.042940695
-0.025883064
-0.004359863
0.011143842
0.027787967
0.033886172
0.033367433
0.026985757
0.0064797513
-0.012324899
-0.019672297
-0.017185103
-0.008840373
-0.008485332
-0.007963391
0.0045424723
0.009090513
-0.0065680756
-0.0264559
-0.039422855
-0.054566
-0.075023316
-0.08512978
-0.07095477
-0.03167551
0.015676165
0.040830046
0.036834482
0.030448956
0.02768945
0.01239525
0.0026301926
0.014747631
0.020783551
0.010207784
0.0124334395
0.020047434
-0.006163645
-0.041243203
-0.040815923
-0.010815687
0.033821173
0.06624487
0.07923924
0.08289236
0.05179184
0.0069819717
-0.035877313
-0.09223577
-0.0912754
-0.03984332
-0.01561004
0.023511462
0.073298566
0.09636375
0.13900141
0.15966065
0.1048273
0.03943182
-0.010382715
-0.062867
-0.098131806
-0.12260748
-0.15039055
-0.15224351
-0.12784444
-0.10037574
-0.060346376
-0.0119279325
0.022134872
0.025662877
-0.0021951636
-0.0341008
-0.06944477
-0.10127024
-0.08363686
-0.045945447
-0.025390238
0.021202266
0.07820484
0.088301845
0.06555614
0.03518966
0.008258217
0.0064376444
0.037467852
0.10205325
0.17440158
0.20433678
0.1757098
0.08687394
-0.015216297
-0.06845478
-0.1198324
-0.14834596
-0.08084608
-0.020935034
-0.011175863
0.008113276
-0.011263514
-0.07382676
-0.112409085
-0.07089532
0.052472968
0.14432918
0.15423687
0.11685902
0.040073432
-0.049143504
-0.14765725
-0.2387033
-0.24921219
-0.16308075
-0.06460064
-0.031441253
0.010556411
0.09956394
0.13514525
0.13391796
0.13897276
0.1245254
0.08932162
0.01530829
-0.029712925
-0.003715736
-0.015568968
-0.052880652
-0.041380834
-0.018482137
0.002421216
0.040535323
0.07000118
0.056503158
0.026420575
0.014295362
-0.0034915044
-0.025032131
-0.03080449
-0.036502443
-0.046494037
-0.056450933
-0.066753894
-0.070645995
-0.057830088
-0.036921013
-0.025616962
-0.014722842
-0.0037293027
0.0013845308
0.00608007
0.009269897
0.028520338
0.05214519
0.049985353
0.046917904
0.047944777
0.03987203
0.03450251
0.026459508
0.017472245
0.010142192
-0.0023045773
-0.008794417
-0.010281833
-0.008428624
0.0014963932
0.010587756
0.020856064
0.029022818
0.023183662
0.017108435
0.020269737
0.014623227
-0.013632336
-0.04628278
-0.0535547
-0.046651933
-0.04995449
-0.043362502
-0.012694947
0.015726376
0.01964302
0.0012757012
-0.015067667
-0.020498347
-0.027959308
-0.021877954
0.0069012884
0.038006797
0.056346267
0.051297322
0.037433647
0.021107858
-0.019030884
-0.053560235
-0.05217344
-0.0386778
-0.026101612
-0.018524216
-0.018416246
-0.014460231
-0.0060259486
-0.0014728075
-0.004667375
-0.00741979
-0.0032931915
-3.7739656E-4
2.841089E-4
0.0020003596
0.004882317
0.011275131
0.018754289
0.024302294
0.026181888
0.023656173
0.020945821
0.019870263
0.018421717
0.016492832
0.015143694
0.013085141
0.009320542
0.005406445
-8.8443386E-4
-0.0103903
-0.017812794
-0.022649389
-0.027633017
-0.031136425
-0.031139156
-0.027840603
-0.022281954
-0.016167866
-0.010283789
-0.0040103905
0.0020603498
0.008986956
0.017178403
0.021506948
0.022590254
0.02525391
0.027046867
0.026035275
0.02327311
0.019253016
0.014534483
0.008068181
0.0014967058
-0.0016698635
-5.823242E-4
0.0014648293
0.0010263283
0.0021458745
0.004419724
0.0026530218
0.001140965
4.104865E-4
-0.0032619825
-0.0064142095
-0.008158357
-0.0096842665
-0.011237684
-0.014269695
-0.018297425
-0.023863317
-0.02929397
-0.03179201
-0.03276737
-0.02946084
-0.021501185
-0.016176963
-0.015111854
-0.015627231
-0.016755028
-0.01659743
-0.013019313
-0.008092473
-0.0034092392
0.0031355375
0.0078945365
0.011482387
0.018728396
0.02265469
0.024445085
0.02996385
0.034241762
0.039975595
0.05055068
0.06651962
0.08024843
0.0677165
0.034667604
0.01022332
-7.3972926E-4
-0.004278795
-0.0070369155
-0.012469309
-0.01812274
-0.024802722
-0.026922526
-0.020822838
-0.012837784
-0.0066757994
-0.0027111596
0.0024386272
0.008761711
0.0099932775
0.0037171382
-0.006215767
-0.01035108
-0.009276782
-0.01178048
-0.011770563
-0.0060265614
-0.005854649
-0.012843115
-0.0202302
-0.02560326
-0.027598899
-0.029126652
-0.03324791
-0.033983067
-0.03008298
-0.026472367
-0.024153514
-0.024184592
-0.022428103
-0.017806992
-0.015843695
-0.011924043
-0.0059371823
3.5996063E-4
0.014255687
0.03137091
0.046585206
0.05865665
0.06242773
0.06383475
0.06494077
0.059949365
0.051929336
0.04310001
0.034899775
0.027700162
0.017981524
0.009118899
0.0030276764
-0.004523231
-0.012295655
-0.0171916
-0.020068036
-0.021711504
-0.021922382
-0.020952206
-0.019348877
-0.019323569
-0.021210454
-0.020952318
-0.019439872
-0.020720476
-0.020995745
-0.017404435
-0.013107723
-0.0077522635
-0.0034999382
-0.0047001964
-0.0056898165
-0.0057335016
-0.008986686
-0.009197727
-0.007654482
-0.007243933
-0.002177365
9.0871815E-4
-2.747122E-4
0.0021110957
0.0028449527
8.650649E-4
0.0016127694
2.6823327E-4
-0.004103391
-0.0051692366
-0.0013958192
0.0045936527
0.009626563
0.013159724
0.017083334
0.019356333
0.018562172
0.018694589
0.01853426
0.01551333
0.014121317
0.015015358
0.013885884
0.010539482
0.008631123
0.008417997
0.0069743856
0.0040261196
-7.000788E-4
-0.0025079623
0.0018019635
0.0045423084
0.0059541697
0.0071578785
0.004032117
0.001178375
-7.106291E-4
-0.0015468457
-0.0017458657
-0.0048563383
-0.0032133409
2.5065383E-4
-5.724408E-4
0.0011408733
0.0030734334
0.004323474
4.6036375E-4
-0.009766191
-0.007938496
-9.800671E-4
-0.0017989684
0.0014315047
0.0060559614
0.0058567654
0.003953688
0.0020135553
0.0035800734
0.004103586
0.002734035
0.0045822687
0.005925723
0.006184741
0.0069919587
0.0074751
0.008062058
0.008049467
0.007054188
0.0037731463
-2.8813898E-4
-0.0016784553
-9.271798E-4
0.0022302992
0.0046750363
0.0027770062
0.0014084113
0.0021437525
2.691112E-4
-0.0038861714
-0.006176267
-0.00628464
-0.005574823
-0.0033010975
-8.910797E-4
-4.225589E-5
6.8547047E-4
0.001744098
0.0016734699
-7.135787E-4
-0.0032111784
-0.0034103554
-0.0025070612
3.0371328E-4
0.0039241426
0.0032605138
4.314337E-4
-7.380334E-5
-3.7269617E-4
-0.0016248347
-0.003066354
-0.0048354296
-0.0036761935
-5.006646E-5
9.513323E-4
0.0015468568
0.0022114792
-1.455823E-4
-0.0011597648
-0.0012277603
-0.0025337918
-7.774474E-4
0.0015389739
0.0028347825
0.0048910407
0.004182512
0.0027935407
0.0020835223
-3.2459712E-4
-8.69561E-4
-0.0013300745
-0.004163741
-0.0037247175
-1.23672E-4
0.0022124934
0.0037387845
0.0044154
0.002446471
7.034614E-4
6.260744E-4
-0.0015066232
-0.0039267843
-0.0033584442
-5.2308413E-4
0.0025608935
0.0026601097
0.0018862266
0.0024643703
0.0024681701
3.2367848E-4
-0.0044534286
-0.0045086825
-9.1822876E-4
-0.0012598933
0.0013564688
0.0030253287
-3.8399728E-4
-0.0020457117
-0.008473298
-0.009293807
-5.466506E-4
-0.006417772
-0.012366654
-0.0014814619
0.0059457636
0.0071932976
0.0067446944
0.0024567873
-1.7082317E-4
-0.0019309708
-0.0031308613
-0.0019405839
-6.415884E-4
0.0021305257
0.004546046
0.004181168
0.005250827
0.006874327
0.0045568966
0.001191356
2.479394E-4
4.444523E-5
-1.7909589E-4
6.746039E-4
0.0029622389
0.0038673715
0.0011287634
-9.694375E-4
-0.0014000033
-0.003902763
-0.0065955175
-0.0066706706
-0.004789942
-0.0028984037
-0.0020863146
-0.0019188157
-0.0019009472
-8.734187E-4
-5.303674E-4
-0.002040718
-0.0033812043
-0.0047734366
-0.003022962
0.0015304404
0.00259963
0.0033859196
0.003997762
0.0011761856
0.0011491692
0.0020704328
-4.393293E-4
-0.0014141275
-0.0011809443
-2.4358624E-4
0.0030585614
0.004576887
0.004747316
0.0055862237
0.004018876
0.0013392428
-0.0011016021
-0.00405049
-0.0038631181
-0.0010600416
9.682614E-4
0.002888764
0.0026029225
5.594476E-4
3.9071793E-4
-0.0014714241
-0.005245077
-0.00577432
-0.0047379225
-0.0030025537
2.554099E-4
7.133435E-4
-2.117756E-4
0.0010829814
0.0015346115
0.001096877
-2.7342173E-4
-0.0033577501
-0.0033999681
-5.105174E-4
0.0022206912
0.004453191
0.0045417817
0.0040927413
0.0039348374
0.0015326455
-0.0018053766
-0.0034021356
-0.002821867
-0.0018267327
-5.746231E-4
0.0015048446
0.0020624846
0.0017417121
6.013523E-4
-0.0027042185
-0.004581577
-0.0045973146
-0.0050897473
-0.0047761705
-0.0015797116
0.002638045
0.0030662364
0.00305847
0.004901258
0.002056844
-0.0030929921
-0.005447365
-0.005195121
-0.001644657
0.0024798366
0.0050035003
0.004207333
0.0016638351
0.0032646048
0.0030326042
-0.0015941634
-0.0028263067
-0.0029690496
-0.0027986136
2.0255285E-4
0.0021166732
0.0027142072
0.0027252873
0.0019591637
9.4474293E-4
-0.0012059149
-0.0021840935
-0.0017972043
-0.0012654236
8.466566E-4
0.0018189923
0.0016525866
0.0029444231
0.002373436
-5.6271965E-4
-0.0026899832
-0.0030244896
-0.0023096234
-0.0015701846
2.9540207E-4
0.0020461024
0.0020391173
0.0018417633
5.4620585E-4
-0.0012266559
-0.0024219467
-0.00410113
-0.0041022045
-0.0027047193
-0.0012401708
-3.4622411E-4
-9.1142347E-4
5.0158997E-4
0.0016818253
8.6104046E-5
-9.9022E-4
-0.003181677
-0.0037146695
-0.00168418
-0.0014137358
0.0012342264
0.0034152023
0.0022144224
0.0028728663
0.0017828109
-0.001093909
-0.0022437042
-0.0024626765
-1.7669004E-4
0.0016445848
0.0023006406
0.0036829566
0.003271791
0.0030120197
0.0017941417
-0.001191497
-8.7304105E-4
-4.5722956E-4
-5.673574E-4
0.0024121406
0.0030555003
0.0011779168
9.4962417E-4
4.5134156E-4
8.262247E-4
9.7227114E-4
-0.0024947915
-0.0040881354
-0.0018312839
-4.496741E-4
-8.4257E-4
-0.00122828
2.5828075E-4
0.0015259089
4.1436305E-4
-0.002539769
-0.0064073955
-0.005799971
-0.004207371
-0.0072188997
-0.004519607
0.0018719523
0.0013482736
-1.539314E-4
1.5207594E-4
-2.2461018E-4
-5.730686E-4
-0.0010616757
8.0648606E-4
0.0031808706
0.002698923
0.0021976905
0.0015160054
0.0011252776
0.0030419708
0.0022491387
-8.63995E-4
4.650209E-4
0.0024268404
0.0021791067
0.003925069
0.0038745562
0.0014062086
0.0010952677
-5.025974E-4
-0.0029381197
-0.0030605022
-0.0031064565
-0.0023657111
-8.0406055E-4
-5.595354E-4
-5.4670946E-4
3.86203E-4
4.868348E-4
-0.0019087399
-0.004245232
-0.0045893015
-0.003156565
-1.9012702E-4
0.0013487639
0.0013159883
0.00173967
0.001999208
0.0019313922
5.5829365E-5
-0.0030301046
-0.0042026932
-0.003947583
-0.0022287932
5.211471E-4
0.0018316846
0.00158456
7.976359E-4
8.58132E-4
0.0016616032
0.0011207557
-5.542414E-4
-8.50437E-4
1.3752918E-4
3.5932052E-4
0.0021201675
0.0044638286
0.0024468931
2.9642857E-4
-1.5516259E-4
-0.0014872014
-4.2495553E-4
-3.755808E-5
-7.687851E-4
0.0023602352
0.0022879846
-8.254105E-4
0.0010466415
0.0029207563
0.0014314888
-8.0503884E-4
-0.0031675517
-0.0033576263
-0.001388101
-3.528853E-5
3.902148E-4
6.223823E-4
-6.209615E-5
-9.6437434E-4
-7.679379E-4
-0.0023808656
-0.0048410646
-0.003677287
-0.0015627813
-5.509843E-4
3.8524278E-4
3.1482963E-5
-7.925373E-4
-0.0010322395
-0.0011101167
-6.9541036E-4
-8.762275E-4
-0.0013512134
4.2947524E-4
0.0025315043
0.0031917093
0.0053972644
0.0071958737
0.005686912
0.0035370283
9.961704E-4
-0.0016555145
-0.0030642294
-0.003262583
-0.00117235
7.2055234E-4
0.0010377448
0.001338409
4.475078E-4
1.598706E-4
4.8576192E-5
-0.0022280568
-0.002180217
-3.42264E-4
-9.1241323E-4
-0.0011106909
-5.5187935E-4
-0.0013713232
-0.0012729694
-1.3156458E-4
-3.058276E-4
-9.556504E-4
-0.0022503564
-0.0033232155
-0.0015989755
-6.272633E-4
-0.0011580364
7.0345926E-4
0.0022929471
0.0013792705
-1.2390782E-5
-8.199072E-4
-3.4685276E-4
0.0010286294
0.0014979431
5.1802537E-5
-9.219648E-4
9.415592E-4
0.0032869861
0.0024889724
-5.1692914E-4
-0.0011043386
-6.3543546E-4
-0.0015202144
-1.1961748E-4
0.0017542572
0.0020251556
0.0018355672
2.5018898E-4
9.953176E-4
0.0013613182
-0.0025869855
-0.0028004684
-5.763512E-4
-8.513131E-4
-7.24199E-4
-0.001929024
-0.0022485377
5.918403E-4
3.0401035E-4
-0.0011010264
8.8485354E-4
4.4515947E-4
-0.0032749241
-0.0033800502
-0.0012649794
-0.0015837007
-0.0020412214
-0.0012925973
-4.6225658E-4
3.1851957E-4
4.029934E-4
4.0000005E-4
6.479116E-4
9.2692056E-4
0.0018725398
0.0022245909
0.001507391
0.0015852759
0.0018016892
3.2424802E-4
-9.7013527E-4
-1.5787617E-4
0.0011756525
0.0019464635
0.0021745758
0.002026581
0.0014931326
2.9375826E-4
1.8918558E-5
-5.468007E-4
-0.00326439
-0.0040867794
-0.002688861
-0.001918896
-5.55771E-4
-2.2184837E-4
-0.0018977899
-0.0016334298
5.030183E-4
0.0014138242
4.0458931E-4
-0.0018040985
-0.0026789517
-0.0012427279
-4.9093814E-4
-7.276641E-4
-3.8845252E-4
-2.2232368E-4
6.9672475E-4
0.0017365679
3.6263047E-4
-5.7592976E-4
3.8375784E-4
8.071243E-4
0.0014814818
0.0019416731
8.842704E-4
4.556201E-4
-5.7590332E-5
-0.0010021063
3.7367013E-4
6.5955834E-4
-0.0020497444
-0.0024343769
-9.93449E-4
-4.98519E-4
7.057513E-4
0.0015641431
9.783155E-4
9.136512E-4
9.866675E-4
-5.6003855E-4
-0.0011235571
9.7311207E-4
0.0016944918
0.0016459837
0.0020449571
6.887208E-4
0.0017454302
0.0030515753
-1.1705595E-4
-0.0015534356
-0.0012233837
-5.371501E-4
0.0024173106
0.0027174475
9.7071903E-4
-1.6670425E-5
-0.0011834083
-0.0010405263
-0.0013062789
-0.003049783
-0.004319724
-0.0050130105
-0.0036076598
-8.1097457E-4
2.2847058E-4
-8.07917E-5
-6.4044923E-4
-0.0012254136
-0.0011196259
-7.8465085E-4
-6.3589535E-4
6.8670517E-4
0.0019292788
8.393458E-4
3.2027913E-4
0.0015751631
0.001116989
-1.4199516E-4
4.4791293E-4
4.915579E-4
-0.0011012468
-0.001240371
7.455498E-4
0.0016137719
-3.834363E-4
-0.0012149293
0.0010476849
0.0017012135
0.0015399588
0.0023971645
6.101008E-4
-6.3300144E-4
0.0011973425
0.001719592
0.0015288412
0.002316937
0.0022792302
9.88859E-4
5.8749214E-5
-4.934376E-4
-0.0015966325
-8.8319706E-4
9.522614E-4
0.0012344121
0.0013923229
0.0011127598
1.7028289E-4
-5.414177E-4
-6.743634E-4
-5.14068E-4
-0.0036502243
-0.008280367
-0.009223013
-0.007309487
-0.0058598896
-0.0060185455
-0.0019517216
0.0047924975
0.004603565
0.0031046823
0.0034831201
0.0012189181
0.0014443693
0.002175675
3.0880515E-4
6.24218E-4
2.3649375E-4
-7.072798E-4
2.0699212E-4
-3.9075903E-4
7.935424E-4
0.0032557617
0.00204849
0.0021458974
0.003115375
0.0018769179
0.0029793424
0.0024497665
-0.0016434564
-0.0019534952
-6.690387E-4
-0.0010403035
-0.0014871466
-0.0026029565
-0.002126222
-4.059811E-4
-6.940975E-4
-6.431702E-4
8.221795E-4
4.0428442E-4
-0.0013215609
-5.224604E-4
9.902412E-4
1.1961238E-4
-6.176502E-4
-8.201699E-4
-0.001249431
-5.2863476E-4
-3.0282422E-4
-0.0013042772
-0.0019610082
-0.0013318054
5.857068E-4
0.0012092338
5.670683E-4
5.7865825E-4