-9.1927213E-4
-0.0015489646
-0.0013512945
-0.0027169373
-0.0026514293
-0.0013826801
-5.5729836E-4
0.0013476157
0.0018435316
6.7661074E-4
-0.0014580241
-0.0032503905
-0.0015246277
3.402188E-4
9.753263E-4
7.9848745E-4
-2.8169234E-4
0.0024303475
0.0048826677
0.0029579103
0.0014040524
-8.3359244E-4
-0.0029267836
-0.0019717244
-0.0010161726
-2.9325206E-4
9.664428E-4
0.0017829213
0.0022261783
0.0016713887
1.2597862E-4
-1.6522607E-4
6.4339984E-4
-5.699843E-4
-0.0014034673
-1.8673146E-4
-2.997243E-4
7.70704E-4
0.002243491
6.4015435E-4
5.4323877E-4
0.0010445642
-6.249733E-4
-9.944696E-4
-1.7306091E-4
4.9021066E-4
4.307228E-4
-3.3517696E-5
8.2549057E-4
8.203701E-4
-0.0010493764
-0.0022286656
-0.0024619617
-0.0025851268
-0.0024977948
-0.0021067027
-8.474247E-4
0.0014945281
0.0016944828
-8.166561E-4
-0.001847324
-0.0023151324
-0.003126949
-0.0018751706
-4.895731E-4
3.806598E-5
0.0013743434
0.0033459617
0.0040694824
0.0027259658
0.0018588279
0.001327822
5.0396443E-4
0.0012438423
0.0012863853
8.3162973E-4
0.0017621963
0.002196384
0.0028959936
0.002280693
-0.0010701893
-0.0029995274
-0.0031224804
-0.0020201728
-2.883346E-4
-2.1692761E-4
2.1033625E-4
0.0011014877
9.867814E-4
0.0010427929
-3.1911175E-5
-0.0016717971
-0.0022947858
-0.002539411
-9.2748733E-4
0.0011067983
0.0012437656
0.0016791393
0.0022555476
7.3018845E-4
-0.0015408265
-0.0015016306
-0.0011486505
-0.002880758
-0.0023812284
1.7766E-4
0.0018381813
0.0038636124
0.0038138963
0.00159703
-3.0215824E-4
-0.0021922956
-0.0024432451
-0.0025722336
-0.0029308714
-0.0012895204
-1.4405011E-4
9.570168E-4
0.0018394156
0.001020111
0.0012683456
0.001351003
1.2131888E-4
-0.0012648709
-0.0024463048
-0.0015509266
6.347697E-4
0.0029753011
0.00390046
0.0023346439
0.00129055
2.6243177E-4
-0.0011867672
-0.0018400155
-0.0014587451
0.0011650269
0.002038964
0.0012612144
0.0025416045
0.0018557681
3.9746973E-4
-1.6644571E-4
-0.0029429027
-0.003557855
-0.0011929706
-0.001016747
-0.0016373893
-7.200021E-4
4.6978108E-4
0.0012152243
4.923626E-4
-0.0013024985
-0.0013535576
-8.1052526E-4
-2.261293E-4
9.580499E-4
2.5884592E-4
9.596061E-4
0.002691162
0.0012446386
5.777742E-4
-4.444258E-4
-0.002225931
-0.001388323
-7.5259694E-4
1.12153364E-4
-8.4372953E-4
-0.0024143595
0.0014851291
0.003123577
6.201317E-4
1.4522039E-4
1.18978305E-5
-6.0783637E-5
-0.0012920685
-0.002289675
-5.8843975E-4
4.9610436E-4
0.0016817612
0.001279018
-0.0014571162
-0.0016297792
-0.001967865
-0.0029395693
-0.0011212078
8.0944283E-4
0.0016373126
0.0025603664
0.003950786
0.004204146
0.0016128159
-5.7200267E-4
-9.014872E-4
-0.0016396894
-0.0016203559
1.2701812E-4
0.001532584
0.0018110204
0.0013731137
8.403874E-4
-2.4693503E-4
-0.002384735
-0.002323024
-9.343388E-4
-0.0016062409
-6.5871637E-4
0.001134139
0.0011165582
0.0024011603
0.002444261
0.0011899945
0.0020830347
7.801888E-4
-0.0022336107
-0.0017473765
3.805415E-4
4.9946876E-4
-3.3548084E-4
-3.3861056E-6
-7.109503E-4
-0.002935707
-0.004610262
-0.00587679
-0.004861362
-0.0023702618
-0.0016647347
-8.7562366E-4
0.0011691725
0.0031884615
0.0036536606
0.001990605
5.3829275E-4
3.988623E-4
9.706687E-4
0.0017459687
0.00279057
0.004163859
0.0048446795
0.005509377
0.0042462354
-9.1177487E-4
-0.0044537666
-0.00414257
-0.0025419674
-0.0011076002
-0.0021388386
-0.002666779
3.7542506E-4
0.0024804168
0.0018013224
4.2945883E-4
-7.7344064E-4
-0.0017699423
-0.002955664
-0.0029189556
-0.0010096565
5.6421384E-4
0.0015115112
0.002543732
0.0021538634
4.86136E-4
-0.001258093
-0.003588572
-0.0032416463
4.8471236E-4
0.0012449122
7.512383E-4
0.0028231433
0.0035286366
0.0021655618
-3.029952E-4
-0.0021692778
-0.001964029
-0.0035969215
-0.004739416
-0.0021389308
3.256493E-4
0.0027084488
0.0043830993
0.0036293434
0.0013883284
-0.0020906269
-0.002858042
-0.0019187703
-0.0031695953
-0.0022836153
7.525121E-4
0.0035343454
0.005603788
0.0038857677
0.0010369875
-7.228286E-4
-0.002608346
-0.002922536
-0.0026152513
-0.0018607536
5.228529E-4
0.0035001137
0.0057820594
0.0044787065
3.3217148E-4
-0.0033210686
-0.004968033
-0.004205605
-0.0036451085
-0.0022381642
0.001323895
0.004001735
0.0058136494
0.0044404864
3.112586E-4
-0.0017933733
-0.0040821265
-0.004896219
-0.0028326956
-0.0026967246
-6.078896E-4
0.005136846
0.008353709
0.006781222
9.348638E-4
-0.0037931798
-0.0042068046
-0.0057805814
-0.0064981263
-0.0021842618
7.014208E-4
0.0022319795
0.006161865
0.005239644
-4.2655115E-4
-0.0027985391
-0.0032604297
-0.004028119
-0.0041930913
-0.0034014117
-2.179549E-4
0.0050064856
0.009348796
0.00803942
0.0018488667
-0.0018716714
-0.0026088397
-0.0036787584
-0.0037907192
-0.0015178632
0.0012089063
0.0024876662
0.004047535
0.005026468
0.0019097592
-0.0028050994
-0.004335825
-0.0034107526
-0.0036440205
-0.0037679274
-0.0017683624
7.473846E-4
0.0040235757
0.005555594
0.0024856974
-0.0014102607
-0.003470192
-0.0035832431
-0.0029440075
-0.0018611852
0.0016107596
0.004446858
0.0045867185
0.0039197463
0.0011558827
-0.0028222355
-0.004394325
-0.0045256037
-0.0049984935
-0.0032749074
3.7376006E-4
0.003605142
0.0073501114
0.0069748648
0.0016380845
-9.990549E-4
-0.0025443034
-0.004487105
-0.0040264633
-0.0023345014
0.0014656477
0.004895639
0.0057174573
0.0052735885
0.0014444137
-0.0026097258
-0.0040103258
-0.0053363657
-0.004773253
-0.0018794296
0.0011510449
0.0044795596
0.006697056
0.0047005094
5.9427704E-5
-0.0024781558
-0.0036832988
-0.004487231
-0.0043440806
-0.0048490004
-0.002131139
0.0036288335
0.006090179
0.0057950956
0.0030007283
-0.0014070825
-0.003563653
-0.004149957
-0.004012213
-0.0037677584
-0.0016455707
0.0041431314
0.0074608964
0.0061619254
0.00263735
-0.002001213
-0.003069482
-0.0012585736
-0.0011767871
-0.0022350277
-0.0025697222
1.1033569E-4
0.0044301595
0.0052721025
0.0018461645
-0.00238675
-0.0045203487
-0.0052476036
-0.0046229237
-0.002484503
-5.2098633E-4
0.0034850328
0.0076462636
0.006493134
0.0027261672
-0.0010204762
-0.003843493
-0.0043856823
-0.0040481417
-0.0022057614
4.3805546E-4
0.002961581
0.0058087287
0.004974536
0.001563789
-4.7970944E-4
-0.002746339
-0.00421063
-0.0034182172
-0.0019137491
-7.443123E-4
5.621046E-4
0.003040266
0.0039377157
7.929556E-4
-0.003271707
-0.0041916315
-0.002815661
-0.0024568937
-0.0015835814
3.340569E-4
0.0018715732
0.0048303506
0.0059486143
0.0027104737
-4.5956645E-4
-0.0021294013
-0.002700441
-0.0026314578
-0.0031936502
-0.0027212976
4.2801973E-4
0.0038867258
0.004400376
0.0022902475
3.0958303E-4
4.17432E-4
-1.8889035E-4
-0.0032916525
-0.003000615
-4.2533886E-4
7.527071E-4
0.004013776
0.0045155715
0.0013626087
4.3341712E-4
-0.0020550357
-0.003847945
-0.001893478
-0.0020843972
-0.0032071532
-7.451735E-4
0.0041819587
0.0055752425
0.0034084406
0.00129078
-0.005353549
-0.009110217
-0.0026981002
7.390399E-5
-0.0015801998
8.553905E-4
0.003040018
0.003234036
0.00276293
0.0019305338
8.2536775E-4
-0.0011818749
-4.5540137E-4
0.0022724536
0.0013362538
-5.9763674E-4
0.0014505172
0.0040238714
0.0024375205
-0.0016418903
-0.0048911185
-0.005642226
-0.004471482
-0.0027920837
-3.8161178E-4
7.261999E-4
0.0012477423
0.003837015
0.0031872846
-6.052171E-4
-0.0012642089
-0.0017726963
-0.0038775096
-0.0041545853
-0.0026991135
2.2033673E-4
0.0029170192
0.0020535528
-2.1094728E-4
-5.324926E-4
-2.1409405E-4
2.2732551E-4
0.0014792562
0.0020127413
0.002119296
0.0032976717
0.0048546526
0.0053399308
0.004364374
0.0033528318
7.990768E-4
-0.003701844
-0.003964209
-0.0010307098
-7.9348E-4
-0.001011017
4.7323454E-4
0.0023553679
0.0025132243
3.083139E-4
-9.607736E-4
-0.0011951391
-0.001150288
-8.101525E-5
-2.0552785E-4
-1.1199266E-4
0.0016623338
0.0014327378
-2.3254729E-4
-0.0013115321
-0.0032840092
-0.005395684
-0.0056966734
-0.0041896175
-0.0021282579
-0.0015398122
-0.0022743517
-0.002547266
-0.00298157
-0.0030734194
-0.0020394945
-0.0021159204
-0.0019847108
-1.914994E-4
8.7542686E-4
0.0014607271
0.0022491906
0.0029637548
0.0035641615
0.004301692
0.006456637
0.008110694
0.007896429
0.007421383
0.007874493
0.010032736
0.010831665
0.009308795
0.006381576
-0.0012078446
-0.009872666
-0.014071247
-0.013691055
-0.009459366
-0.006075505
-0.0049890904
-0.004525399
-0.0049007447
-0.0027164873
8.1621425E-4
8.7936764E-4
-0.0014944115
-0.003221751
-0.0030197292
-0.0027355598
-0.0019378628
4.900312E-4
0.0015094273
0.0013408432
0.0018983098
0.0028619836
0.0026770032
0.0016893843
0.0029092524
0.004032442
0.0038946825
0.003423139
0.001593164
0.002606826
0.0026207839
-0.0018782716
-0.0013129447
8.322916E-4
-7.6232833E-4
-5.439399E-4
-0.0017179132
-0.0042337864
-0.0023716048
4.2618052E-4
0.0013287012
0.0022025737
0.0020833223
9.335687E-4
0.0021783044
0.0035251754
0.002581842
0.003445066
0.0036236546
2.7702906E-4
-0.0018423025
-0.0013768735
-0.0019919707
-0.007565663
-0.011730382
-0.006941612
-0.0015906306
-2.0878084E-4
6.6821027E-4
2.59389E-4
5.8486144E-4
0.0011801022
4.3440017E-5
-9.831412E-4
-0.0031662586
-0.00399281
-5.350729E-4
0.0024518545
0.0027941011
0.0016689413
0.0015315034
0.0036983737
0.004286753
0.0037150187
0.0051399986
0.0066636787
0.006493455
0.0048350873
0.003773292
0.0031172298
-2.5411808E-5
-0.0037292838
-0.006165357
-0.0066516027
-0.004003922
-0.0020188123
-0.0022531874
-0.001504822
0.0013020197
0.0033334822
6.840519E-4
-0.0033720266
-0.0038239302
-0.0026452222
-0.0041596936
-0.008033198
-0.0052497666
0.0020818745
0.0017759645
0.0014906958
0.0058131255
0.004969379
0.0021601156
0.0012052826
0.0017090064
0.0043974877
0.002685466
-0.002724859
-0.0036857608
-6.3342144E-5
0.002605346
0.0015435792
-2.3161204E-4
-0.0031311908
-0.006934096
-0.006262764
-0.0029536006
-1.5769187E-4
0.0011957797
-1.1612704E-4
-0.001176659
-0.0017005116
-0.0014668151
0.0012630775
0.003491491
0.0052747736
0.0078689
0.008356839
0.006579606
0.0063514486
0.0073673646
0.00496463
0.0013684334
-3.543782E-5
-0.0017502904
-0.004068617
-0.0061197844
-0.005172249
-0.0028148938
-0.0044603418
-0.0042252904
-0.0024388207
-0.005117738
-0.007193745
-0.010304529
-0.013546549
-0.008059339
-5.547399E-4
5.772572E-4
-2.1647128E-4
8.2657166E-4
0.0010877497
0.0015584738
0.006375276
0.01094343
0.012544787
0.013397496
0.013823946
0.014906248
0.009076798
-0.0029869827
-0.006380228
-0.0043893945
-0.0057709096
-0.008360824
-0.0091648465
-0.0061110267
-0.0038020725
-0.003584418
-0.0018926342
-3.5162075E-4
9.326938E-4
-7.447899E-4
-0.004230607
-0.0023528584
0.0015531725
0.0032204185
0.0017304659
-0.0012742094
2.4532917E-4
0.0029892125
0.0040851254
0.005350856
0.0030471568
-1.259264E-4
-6.036934E-4
-7.1954867E-4
7.271184E-4
0.0024525602
0.0033122022
0.0033396562
-0.0017704659
-0.007824187
-0.009497988
-0.012377951
-0.015314827
-0.012527245
-0.006521473
6.126382E-4
0.0057604155
0.0047119046
0.0038834298
0.008521255
0.013341278
0.015686253
0.0164903
0.0155945
0.01173694
0.0034345437
-0.0044941925
-0.008951748
-0.01188756
-0.009309141
-0.005060189
-0.008037212
-0.011446702
-0.010476689
-0.008339581
-0.0047253184
-0.0028364053
-0.0037823247
-0.002628215
6.4141344E-4
0.0015557458
-0.0011486142
-0.002197676
0.002514552
0.007338259
0.0058020065
0.0015249767
5.0919036E-5
0.0017609053
0.007048867
0.011881327
0.010937445
0.009659328
0.012382881
0.01447206
0.01294783
0.010695889
0.010364471
0.006472159
-0.0050904667
-0.016734457
-0.019914517
-0.015487578
-0.011472429
-0.013346393
-0.019716866
-0.023342216
-0.020783113
-0.019516975
-0.019422933
-0.018243557
-0.021331176
-0.01832411
-0.0048005367
0.0047405106
0.0073378896
0.0035382824
-2.1910199E-4
0.00743038
0.015807552
0.018816499
0.024348339
0.026704352
0.024364745
0.027966402
0.040157553
0.053523824
0.05449119
0.037713066
0.017356567
0.0048318007
-0.0065810964
-0.024318825
-0.043349873
-0.052416302
-0.047119547
-0.034657393
-0.022485465
-0.0133168055
-0.0091681825
-0.0042243265
0.005893454
0.0074542663
-0.0042545027
-0.014401611
-0.023283629
-0.034231324
-0.034630932
-0.028414134
-0.026030783
-0.016276414
0.0051582595
0.027767658
0.05137023
0.079596326
0.0992396
0.09628617
0.086017124
0.078848936
0.057531986
0.027473751
0.003844509
-0.027443277
-0.07053982
-0.104506254
-0.12154292
-0.13173717
-0.13090073
-0.11164119
-0.088504836
-0.05658746
0.0016494512
0.06278558
0.10058499
0.11421414
0.09873494
0.057774507
0.013050119
-0.025936311
-0.058609914
-0.08003741
-0.09299872
-0.08079243
-0.0244134
0.0421842
0.08791238
0.113944925
0.12855323
0.14037389
0.13581382
0.1179431
0.08525151
0.010693459
-0.066089034
-0.10584703
-0.11472004
-0.09365255
-0.08755237
-0.09354647
-0.04346495
0.03490526
0.07903008
0.08215946
0.07195885
0.083006285
0.08631922
0.03340178
-0.044612963
-0.08335997
-0.07325918
-0.06306396
-0.089562416
-0.13509895
-0.163014
-0.15831265
-0.124405585
-0.073550075
-0.031289566
-0.008246558
0.022658054
0.070715435
0.09151578
0.06898172
0.055272494
0.073008515
0.09056022
0.089994974
0.08313999
0.094693854
0.116083495
0.11337321
0.08575053
0.043704942
-0.0016959426
-0.0458177
-0.09663909
-0.12306732
-0.09936747
-0.042739376
0.017183429
0.04440015
0.051695574
0.046983767
1.2068914E-4
-0.051486436
-0.0811914
-0.09941967
-0.09845275
-0.10356278
-0.0833684
-0.01619125
0.020243159
0.048210073
0.107231684
0.15354978
0.18757045
0.18206988
0.11864572
0.048528496
-0.02367181
-0.09640125
-0.15828268
-0.20885815
-0.21132655
-0.16981742
-0.12662876
-0.09305855
-0.06637205
-0.03248988
0.0035665873
0.02720678
0.0550136
0.086578265
0.09320606
0.070746504
0.044712782
0.019253988
-0.01270991
-0.023216145
-0.007853805
0.010654035
0.04040961
0.077064864
0.11069004
0.13985483
0.13943143
0.12239753
0.11839453
0.10487697
0.06956823
0.012658672
-0.06644922
-0.121601075
-0.1273046
-0.12338768
-0.12268651
-0.09268601
-0.04104268
-0.016699435
-0.023226881
-0.024340687
-0.017617466
-0.0192437
-0.021322424
-0.016315123
-0.009098212
0.0031693669
0.014286842
0.0078094746
-0.0094078155
-0.01870035
-0.0053950488
0.023982614
0.035298627
0.038279504
0.0549835
0.042476773
0.0033744252
-0.0070016608
-0.005192171
-0.010353964
-0.004139267
-7.2952436E-4
0.0036445425
0.026697876
0.034455884
0.0124653615
-0.006400103
-0.013274023
-0.020133562
-0.026093332
-0.023381477
-0.011207953
-0.0038498852
-0.009926607
-0.012543277
-0.0065929466
-0.008706637
-0.011407835
-0.0022589022
0.006363266
0.008550707
0.007915284
0.009081048
0.015870666
0.01897744
0.014450485
0.0056938785
-0.0067178314
-0.0069761006
0.01294658
0.030963317
0.04004181
0.052208375
0.064738385
0.078965046
0.08982819
0.09025783
0.09210638
0.05800341
-0.014344067
-0.035802435
-0.019080285
-0.017288601
-0.023645153
-0.072762325
-0.13196379
-0.12974454
-0.107446924
-0.09307994
-0.07692803
-0.06795631
-0.05673716
-0.044557806
-0.0338456
-0.01680192
-0.0024905389
0.005454339
0.0089782365
0.00856581
0.011324996
0.019611627
0.02615621
0.02814671
0.033031125
0.043091238
0.05195433
0.053065393
0.047262702
0.04120729
0.03597996
0.03183664
0.028301423
0.025903447
0.027456935
0.026879398
0.02347537
0.018797573
0.010297593
0.0065026963
0.009178847
0.016467007
0.027024262
0.024521768
0.0105007
0.0022266344
-0.0025810748
-0.010486558
-0.020282635
-0.029003998
-0.03503769
-0.04054938
-0.045721497
-0.047466278
-0.044978723
-0.04056969
-0.036912926
-0.037693467
-0.042364888
-0.04360557
-0.039393656
-0.030475758
-0.017665144
-0.0075504943
1.9211661E-4
0.010428134
0.018366417
0.018983042
0.01615988
0.015972013
0.01658945
0.01538322
0.016945276
0.020193564
0.021406012
0.023504402
0.023435753
0.015171893
0.0032018672
-0.0044826833
-0.006241688
-0.004680699
-0.0020958572
6.7699637E-4
0.0057293
0.013890361
0.019769806
0.019330211
0.014668122
0.009591287
0.0059111738
0.0030745498
3.5345144E-4
-7.453033E-4
0.0036342759
0.010040841
0.011154105
0.008420298
5.755812E-4
-0.00937912
-0.009936124
-0.0073469183
-0.008515864
-0.008045808
-0.0056699542
-6.976226E-4
0.0014158572
-0.0038894932
-0.00769334
-0.0094637815
-0.010207818
-0.0077236732
-0.007233714
-0.006743969
-0.0037593471
-4.872517E-4
0.0036489174
0.0035499253
-0.0017043449
-0.0064907772
-0.009404569
-0.008077782
-0.0040574446
-0.001876653
8.1386097E-4
0.0047517093
0.00747227
0.008648567
0.006202868
0.002041734
0.0019377784
0.00310891
0.0024930197
0.0029558106
0.0051627033
0.009789714
0.013064433
0.009983695
0.0051094564
0.0016964651
2.4341587E-4
5.8824103E-4
2.0120265E-4
0.001337226
0.004535601
0.0082307095
0.01153365
0.010490765
0.005736045
5.847103E-4
-0.0011624948
-6.13618E-4
-0.0038332155
-0.0038851248
0.001900081
0.0058373455
0.0084943315
0.0069941916
9.004571E-4
-0.003945488
-0.007313431
-0.0071729603
-0.004632068
-0.002677614
4.8277958E-4
0.0035345135
0.0043832506
0.003162521
1.5070869E-4
-0.004143848
-0.004140745
-0.0018210232
-0.008294559
-0.010510403
5.3806536E-5
0.005248513
0.006019953
0.006907144
0.0019117442
-0.0031249083
-0.004198223
-0.001882219
-2.8277826E-4
3.949307E-4
0.0039552115
0.0020946662
8.779242E-4
0.0069354135
0.0056422963
7.3857873E-4
3.3053046E-4
-0.0010336881
-0.0029741637
-0.0037590845
-9.131221E-5
0.0057245297
0.007370368
0.006676091
0.0030347018
-0.0017415214
-0.0035121806
-0.003481456
-0.00184216
-1.1300034E-4
0.002048314
0.003939543
0.0024885605
8.8611024E-4
-0.0017135013
-0.0049755974
-0.0034280238
-0.0020067145
-0.0033985034
-0.0029690205
-0.001376813
8.54731E-4
0.0033089316
0.002733486
-7.381601E-4
-0.0042940616
-0.0066724434
-0.0069749462
-0.004846394
-0.0031376833
-0.0018102385
0.0018738027
0.004996397
0.005412242
0.0035804238
-5.5329478E-5
-0.0010544603
-5.5548426E-4
-0.0021916553
-0.0015647558
8.7140116E-4
0.002833628
0.00655639
0.0070840186
0.0024539998
-7.740218E-4
-0.0020622509
-0.0033811894
-0.0030934159
-8.333226E-4
0.0016720726
0.0030703933
0.0046998863
0.005468388
9.396068E-4
-0.0036002514
-0.0020789504
-0.0020468233
-0.0047368966
-0.0035300648
-0.0016024169
3.8307716E-4
0.0042508533
0.0044139577
5.161102E-4
-0.003126883
-0.0048754704
-0.004729968
-0.0044003143
-0.0030793594
-3.2789333E-4
0.001127169
0.0016228596
0.0025185682
0.0017938345
-0.0011880038
-0.002990225
-0.0030551476
-0.0028267556
-0.0017240453
-0.0013369675
-7.583807E-4
0.001258308
0.0014957681
0.0011533287
3.781628E-4
-0.0022806444
-0.0027777923
-0.0013685733
-6.101282E-4
7.274611E-4
0.0034042858
0.0054186354
0.003614779
0.0013117401
0.0013040968
4.911056E-4
5.8049633E-4
0.0017047304
0.0011147412
0.0013969019
0.0030832205
0.0037029416
0.0016574387
-0.0020003056
-0.0035984556
-0.0039335066
-0.004351171
-0.0030932042
-0.0018462953
-0.0015122065
-4.157148E-5
6.41681E-4
-5.112515E-4
-4.5894887E-4
-1.7003033E-4
-0.0012028468
-0.0022895287
-0.0033709684
-0.0028367406
-0.0011893815
-4.5852394E-5
0.0025858916
0.0035037969
1.8507808E-4
-0.0027256487
-0.0035052383
-0.0028716808
-0.001746534
-5.0118956E-4
0.0011898216
0.0017230572
0.0028939021
0.0047924398
0.003335658
9.2226994E-4
1.6394524E-4
-5.0689315E-4
-0.001180687
-0.001695249
-0.0010546311
6.1360875E-4
0.0017805009
0.0022112252
0.0013307647
7.3022056E-5
-4.9706915E-4
-0.0015347321
-0.003429144
-0.0039976747
-0.0010614889
0.00121341
7.5583294E-4
0.0019856815
0.0017351883
-0.00126166
-0.001123312
-8.243633E-4
-0.0018774644
-9.339207E-4
-0.0016574006
-0.0028693466
2.2650533E-4
0.002828476
0.0022509666
0.0012064574
-0.0010097475
-0.0017190938
-5.0446168E-5
-6.4180803E-4
4.6891018E-4
0.003417546
0.0030335549
0.004074866
0.0041839555
0.0012512649
0.0013611421
-0.0023914068
-0.008012612
-0.0037087179
0.0013320122
3.9999455E-4
5.342035E-4
0.0014582779
4.0210233E-4
-0.001534411
-0.0031207216
-0.0034371994
-0.0028154661
-0.0019021688
-0.0016952275
-0.0025226127
-0.0012945662
0.001274414
0.0015009877
0.0018710906
3.4891767E-4
-0.0041236947
-0.002412167
0.0015128609
0.0011237938
0.002413618
0.0034262147
0.002692795
0.0035891763
0.0031701883
0.0010670781
-0.0010668265
-0.0019540973
-0.0012416481
-2.624193E-4
0.0018796539
0.0020691638
5.359872E-4
0.0022010123
0.0022380971
-7.9756544E-4
-0.0012299853
-7.715399E-4
-0.0014835115
-0.001598659
-0.0018399432
-0.002261166
-9.758631E-4
-5.5475193E-5
-0.0014940682
-0.002220491
-0.0017045945
-0.0018546339
-0.0023414197
-0.0025076752
-0.0010132219
0.0013565427
0.0016695423
0.0014319015
0.0019215082
5.8872125E-4
-3.6376258E-4
8.989198E-4
6.982138E-4
4.705585E-4
0.0013990066
0.0014467554
0.0018847388
5.3999614E-4
-0.001577224
-9.32422E-4
-0.001082901
-0.001905323
-0.0023357077
-0.0019508105
5.9518946E-4
0.0011324515
0.0015236805
0.0028289696
0.0010936524
3.683924E-4
-1.10882815E-4
-0.0014094006
-9.92446E-5
7.310456E-5
1.4887107E-4
9.996791E-4
-9.2458137E-4
-0.0010274249
2.7517954E-4
-0.0011598615
-0.0017048063
-0.0014632392
-0.0019515364
-6.7556585E-4
7.670806E-4
5.593181E-4
1.5082987E-4
1.59389E-4
0.0013924139
0.0020053645
2.5902572E-4
-8.479033E-4
-0.001365288
-0.0010028314
0.0014589789
0.0018872744
7.96322E-4
3.225848E-4
-7.7663304E-4
-0.0010717248
-0.0014712012
-0.0022305162
-0.00216979
-0.0020646693
4.1526644E-5
0.0019648466
8.8216923E-4
3.3390365E-4
0.0015363533
0.0025443789
2.5659896E-4
-0.0033238204
-0.0022658766
4.6502065E-4
0.0010454134
9.138634E-4
0.001122308
0.002029137
0.0010542249
-0.0013364305
-0.0017974767
-0.0017539
-7.4424624E-4
8.705443E-4
2.8376206E-4
3.3019553E-4
0.001073886
7.6115713E-4
0.0013195784
-4.62357E-5
-0.002282618
-6.055962E-4
1.5546712E-4
-0.0016175244
-0.0010520421
3.919002E-4
3.426869E-4
5.348191E-4
0.0013115332
-5.0902316E-5
-0.0024000108
-0.0015762633
-3.9018545E-4
-7.0701673E-4
0.0013065824
0.0035074917
0.0021948686
-3.064016E-4
-0.0014734641
-0.0013209874
-0.0013458867
-0.002142315
-0.0015409339
-1.1537996E-5
-1.84475E-4
6.732775E-4
0.0023898007
4.983224E-4
-8.1108423E-4
-3.351964E-4
-0.0019567367
-0.0013313093
-2.0698897E-4
-0.00248178
-0.0017359859
0.0021219004
0.0047512846
0.0051053315
0.0023094078
-2.8868453E-5
-1.873239E-5
3.4680372E-4
2.1073104E-4
-9.702175E-4
-4.6625323E-4
0.0013988452
0.0015167363
0.0017067909
1.5544801E-4
-0.0025214031
-0.0016489164
-0.0015899386
-0.0019266454
-0.0010050288
-0.00456692
-0.0050152303
8.7704574E-4
0.0014971386
-4.1683015E-4
4.926305E-5
-7.6999044E-4
-4.7607915E-4
6.6395616E-4
-9.9653575E-5
1.9649965E-4
0.0023165862
0.003564199
0.0029705954
7.914006E-4
-0.0018903217
-0.0025966568
-0.0018931659
-0.0015289158
-1.6365736E-4
0.001396394
0.002276142
0.0030198104
0.0025706799
0.0013575001
-0.0010069795
-0.0037937895
-0.003834722
-0.0019742881
-9.957413E-4
-0.0013129857
5.4138433E-4
0.0039183153
0.0031466705
7.267992E-4
5.915289E-6
-6.87642E-4
-9.4848406E-4
-4.5842673E-5
0.0013555607
7.4001297E-4
-5.7960457E-5
0.0010887401
-2.973837E-6
-9.77553E-4
-9.793874E-4
-0.0031459967
-0.002919423
-0.0010145766
-7.978926E-5
9.704969E-4
0.0011466758
0.0024242622
0.0027142407
-5.310698E-4
-0.002922608
-0.003025769
-0.0019969663
-0.0016212823
-0.0017908212
-7.7052845E-4
8.443304E-4
0.0034719624
0.004084602
0.0010453927
-9.671264E-4
-0.0013937143
-0.0013763407
-0.0016355948
-0.0020523714
6.5548455E-5
0.003298644
0.0046812627
0.0029910647
4.451982E-4
4.4312034E-4
1.0748299E-5
-0.0015536036
-0.0016138294
-0.001630716
-0.0015911737
-7.734926E-6
0.0022139847
0.0022131552
2.6816424E-4
-6.895974E-4
-0.0013061123
-0.0013289757
-0.001569623
-0.0023066285
-2.0616018E-4
7.2032306E-4
1.457919E-4
0.0020368306
0.001122612
-0.0013290127
-0.0017870221
-0.0032425346
-0.0028342316
2.611601E-4
0.0022321627
0.0024931717
0.002558982
0.0035390574
0.0029113246
9.6064986E-4
-4.427862E-4
-0.002824762
-0.0030402741
-6.9393613E-4
-4.5910812E-4
-2.7726448E-4
0.0016233429
0.0025143193
9.389194E-4
-0.0023100104
-0.0030859539
-8.6413353E-4
-9.6460636E-4
-0.0028677853
-0.002290374
5.6408753E-6
0.0014294373
9.251661E-4
9.0477E-6
-3.2170388E-4
-0.001236147
-0.0016591034
-0.0018006582
-0.0013551459
0.0018105198
0.0032922945
0.0026266447
0.0034578429
0.0019427649
-5.618086E-4
-3.640361E-4
-2.5473526E-5
-1.9835703E-4
-0.0015663876
-0.001359366
0.002400498
0.0037222388
0.0033959346
0.0036667865
0.0011652757
-0.0014157423
-0.0023622361
-0.0036769889
-0.00391261
-0.0019599418
0.0016032855
0.0029379353
5.373877E-4
-6.1067723E-4
-0.0015492189
-0.0041059484
-0.0031650427
-0.001092153
-0.0023043172
-0.0022600698
-1.6147968E-4
7.384637E-4
0.0015886507
0.0022503976
0.0012537132
-5.1742187E-4
-0.0020930206
-0.0022798735
-0.0016136798
-0.0010386546
0.001109743
0.0033467575
0.003645041
0.0018584741
-0.002339218
-0.0036012772
-0.0010117952
-1.966139E-4
7.065962E-4
0.0018993038
0.0020104835
0.0035012593
0.003715467
0.0016265012
4.1306368E-5
3.783326E-4
7.7533675E-4
-0.0017114864
-0.0023333824
-7.256486E-4
5.6742394E-4
0.0044531366
0.0040308973
-0.0010925801
-0.002243504
-0.0021380647
-0.0013721403
2.0664831E-4
-8.6220494E-4
-0.0025607278
-0.0019253816
1.0048656E-4
-0.002475755
-0.0052733296
-0.0018758178
-0.0012026143
-0.0017797033
3.7731306E-4
-0.0010091924
-0.0014616108
0.001945033
0.004621394
0.0051672207
0.003502793
9.974547E-4
-0.001147187
-6.055645E-4
8.884292E-4
2.3292445E-4
3.6175147E-4
6.666029E-4
0.0012940963
0.002025772
-4.0107054E-5
-9.408537E-4
-0.0011121358
-0.0018512073
-0.0010705839
-0.0022634196
-0.0027776747
-3.084816E-4
0.0012159374
0.0021109092
9.044865E-4
-0.0014948408
-9.1087504E-4
-3.2790002E-4
-0.001898303
-0.0021234222
8.538282E-5
0.0020238843
0.0028296995
0.0027429485
0.0014575209
2.2045916E-4
-7.4551796E-4
-0.0014351708
-9.4749907E-4
2.833782E-5
3.9737043E-4
6.06772E-4
0.0015647392
0.0011680941
-3.3252517E-4
-9.359373E-4
-0.0027619705
-0.002959105
-0.0016544148
-0.0033250565
-0.0017015715
0.002429449
0.0030303828
0.0039020774
0.0033754997
0.0011876976
0.0013241259
1.775686E-4
-0.0016360484
-0.0016067419
-0.0011861513
8.0525165E-4
0.0017030888
-3.956081E-4
-0.0010315643
-7.8379276E-4
-0.0018292998
-0.002134537
-0.001719701
-0.0011685286
-1.2311597E-4
0.001176412
0.0028085408
0.0029182753
8.238057E-4
-8.1686775E-4
-9.5803826E-4
-3.9289813E-4
-3.8342096E-4
-0.0012311595
-0.0012930543
3.8444687E-4
0.0021289454
0.002586424
0.002209981
1.0795598E-4
-0.0021032905
-0.0023010278
-0.002608655
-0.0022462208
-8.7596773E-4
5.999256E-4
8.1674726E-4
-0.002571195
-0.0018800689
0.0019603807
1.071769E-4
-1.03318445E-4
7.770197E-4
-9.7298675E-4
7.696431E-4
0.0020348756
0.002675301
0.0041619865
0.0025198206
0.0012914786
4.2770777E-4
-6.10542E-4
-7.520489E-4
-0.0020309135
-0.0011672098
0.0015859767
0.002157829
6.439411E-4
-9.2809985E-4
-0.0015597843
-0.0012805909
3.173594E-4
-8.488372E-4
-0.0029757011
-0.0028795025