0.0072031673
0.0041428595
0.0010085831
-0.0029656324
-0.0062985867
-0.005847882
-0.0024876958
9.814282E-4
0.0026070834
0.004769871
0.008593883
0.00808111
8.1286835E-4
-0.00823974
-0.013106946
-0.011342551
-0.005343497
0.0022191775
0.008209863
0.009562532
0.0074071726
0.0036814895
-9.853472E-4
-0.006823186
-0.011472113
-0.010205198
-0.0050172545
-4.309436E-4
0.002692436
0.0051216627
0.007083143
0.0058390405
0.0021187027
-0.0027745387
-0.008643741
-0.0075957044
0.0010064914
0.0089350045
0.014383978
0.014806054
0.009648102
0.0038924287
-0.0021264774
-0.008517778
-0.011871358
-0.010439806
-0.005614065
-2.9775267E-6
0.0043007173
0.006370303
0.0063137496
0.004111593
-4.083062E-4
-0.007426768
-0.012914482
-0.010801956
-0.004001325
0.0023485022
0.0073759607
0.008719475
0.0067877406
0.004517427
0.0015771282
-0.0033921166
-0.008332614
-0.009348777
-0.006206588
-6.926215E-4
0.0031503122
0.0034922275
0.0051226798
0.006422942
0.0029291532
-0.003745539
-0.009978397
-0.009750493
-0.00401183
0.0020577803
0.007938638
0.009980833
0.008414604
0.006256915
9.86194E-4
-0.0055034305
-0.009371879
-0.009506836
-0.0055246796
-1.0791745E-4
0.004455056
0.0075369016
0.0094640665
0.009732456
0.003909142
-0.00656195
-0.011425845
-0.00793146
-0.0016845347
0.004960171
0.010785656
0.013607407
0.010963262
0.003952132
-0.0014502406
-0.006160816
-0.011067089
-0.011569558
-0.008489006
-0.0024788242
0.0021666419
0.0020176165
0.003964175
0.005020077
-2.5070927E-4
-0.0077254586
-0.0135312695
-0.012348812
-0.006010194
9.017286E-4
0.007850205
0.009441841
0.007354586
0.006835782
0.0046512103
-0.0010693928
-0.00632303
-0.0060980017
-0.0024663045
0.0014792111
0.004695186
0.004464514
0.0053766114
0.0066438494
6.4211764E-4
-0.007502574
-0.011184193
-0.009413616
-0.0027000133
0.005195708
0.011514407
0.013025106
0.009097697
0.0054356456
0.0032458378
-0.0022853327
-0.009875685
-0.012932338
-0.009420085
-0.0015592416
0.005055627
0.006927876
0.006483617
0.0044702273
0.0017768441
-0.003749567
-0.0121836765
-0.012554022
-0.006022118
-3.527824E-4
0.005894227
0.009079842
0.0089655
0.007215552
0.0014290552
-0.002678978
-0.00551769
-0.009717491
-0.0069167865
8.2628557E-4
0.0042589637
0.0050382917
0.0061153127
0.0054648845
0.0013308479
-0.006157352
-0.012831469
-0.013222621
-0.0073640905
0.0010645256
0.008047045
0.011550308
0.011695532
0.0075914925
4.97035E-4
-0.0077660363
-0.014786842
-0.01351509
-0.0047711967
0.0020312644
0.0049828216
0.0075062355
0.0077583836
0.003567957
-2.876803E-4
-0.003479448
-0.0074847895
-0.0045929803
0.0028028546
0.006123757
0.009729746
0.013655141
0.011403084
0.0054238923
1.6176037E-4
-0.0053445366
-0.010746391
-0.011333669
-0.005999078
0.0016870229
0.008830627
0.012493752
0.011515973
0.0075977505
5.985858E-4
-0.010530861
-0.020347657
-0.021747254
-0.015859324
-0.0060326904
0.005554938
0.013545061
0.015477558
0.014889001
0.011575969
0.0035688072
-0.0026044857
-0.0040552565
-0.0036691322
0.0014209244
0.0057675554
0.0020412842
-0.0022830903
-0.0040325946
-0.0092589175
-0.019094275
-0.026527593
-0.024185976
-0.012503816
0.0014721003
0.0065495074
0.0025116159
9.8222066E-5
-0.0013015223
-0.005676025
-0.012342342
-0.0185251
-0.016580835
-0.0052819336
0.009631367
0.022866523
0.03308116
0.040992446
0.04116778
0.032295845
0.020464381
0.011433915
0.008737886
0.011525027
0.017172389
0.015717516
0.005832729
0.0014583106
-0.0013028585
-0.011040359
-0.02522789
-0.04023048
-0.044750854
-0.03499823
-0.019580433
-0.012350686
-0.015860146
-0.008617903
0.0036165856
0.0013125663
-0.0043106093
-0.012177316
-0.018700257
-0.0095112305
0.0026200714
0.009061854
0.014783306
0.018375268
0.018073384
0.011418887
0.003989726
0.0014131055
-5.640161E-5
0.001240963
0.0071645738
0.012649936
0.011982195
0.0078261
0.0058700927
5.062881E-4
-0.008426536
-0.013150252
-0.013356667
-0.0074722357
0.0022599995
0.009298378
0.0132977
0.013718437
0.012654576
0.008559792
-0.0033769754
-0.013005264
-0.012061974
-0.003459914
0.008916257
0.016866388
0.017250583
0.010195129
-0.00447173
-0.019523816
-0.032445576
-0.03687103
-0.023128005
-0.005038815
0.005140098
0.014243956
0.020662582
0.017379403
0.009815525
0.007615162
0.008534505
0.00687538
0.005798183
0.0022580312
-0.008917429
-0.019193728
-0.020956742
-0.015634919
-0.009333095
-0.00691179
-0.0055987565
-0.0052654226
-0.006633967
-0.0033513322
0.0025087297
0.0058327327
0.0103111295
0.0124697285
0.008057553
0.0048551667
0.0018523867
-0.008308642
-0.013397508
-0.0028419602
0.008859628
0.013924183
0.017512841
0.016155912
0.013073842
0.013009498
0.008618378
6.611434E-4
-0.005719752
-0.008323715
-0.004840463
-8.6442794E-4
0.0010956754
0.003531471
0.0030915218
-4.1641074E-4
-0.0035383503
-0.0077433093
-0.015327062
-0.019869423
-0.014586367
-0.005639092
0.0023523895
0.009830119
0.012081652
0.00840784
5.345466E-4
-0.011550949
-0.021809999
-0.022208657
-0.012984166
-0.0025929445
0.0051971627
0.012292352
0.017344577
0.018815523
0.015787248
0.009174609
4.410302E-4
-0.0076937056
-0.005431726
0.0035340434
0.0047793905
0.0023290315
0.0019031678
-7.560104E-5
-0.0033790297
-0.007353479
-0.008512924
-0.0026298217
0.0048874686
0.005857575
0.0024716912
2.687603E-4
-0.003650487
-0.008298598
-0.01163141
-0.016689837
-0.016314544
-0.008408876
-3.511849E-5
0.00861007
0.014672017
0.019519381
0.026350629
0.028925205
0.02445465
0.010208218
-0.007031113
-0.010295689
-0.00348789
0.0022534123
0.0043011727
-4.9616897E-4
-0.006474
-0.008220452
-0.012645505
-0.02294031
-0.030405583
-0.027134653
-0.01778377
-0.0081836
0.0013048006
0.0055880724
0.0034612953
0.0019862242
0.0013604232
-0.0031131716
-0.005747902
0.0011086185
0.010287673
0.015399378
0.019122861
0.020229284
0.018730761
0.015673716
0.011396603
0.009068754
0.006085076
0.0014588791
-0.0025264085
-0.007943629
-0.0114212455
-0.009385434
-0.0040721963
6.882865E-4
-4.403655E-4
-0.007985375
-0.01787144
-0.02238852
-0.016762657
-0.0051549925
0.00782278
0.013324575
0.0098854
0.0084996065
0.006519995
-0.0017512114
-0.010011621
-0.009566004
0.0017357977
0.014672933
0.022202035
0.021335337
0.01681186
0.013952814
-0.001865013
-0.022063376
-0.023530025
-0.01848741
-0.012739816
-0.0049378946
-0.0029819075
8.8312925E-4
0.005532664
0.0045535653
0.0021460946
-0.0022341046
-0.005983259
-0.00756658
-0.0058816816
-7.130195E-4
4.3503105E-4
9.748951E-4
0.0022958687
-2.2496727E-4
-0.0016045225
-0.006136774
-0.013765914
-0.008420521
0.0054958914
0.010382667
0.011261257
0.01604332
0.01429918
0.0077181268
0.0071577863
0.0032462084
-0.008132058
-0.01088085
-0.0027287442
-0.0017204692
-0.007773508
-0.004106915
0.003565699
0.0059046
0.007696407
0.0077948663
0.009429433
0.017048717
0.02336061
0.01957269
0.0023247069
-0.0143817235
-0.014424339
-0.0056127193
-0.004722465
-0.014123622
-0.020259108
-0.01838222
-0.014153579
-0.0052574915
0.003112206
0.003845782
0.0011634072
-0.002471576
-0.0031083073
-0.0046005123
-0.01547378
-0.02364634
-0.018910749
-0.007919529
0.0040824288
0.011529818
0.012727385
0.014733592
0.017374072
0.016057976
0.015071823
0.015619462
0.011699044
0.008008548
0.0112894485
0.012649318
0.00730314
0.002822283
-0.0039403555
-0.01664791
-0.022378357
-0.016497586
-0.0063159093
0.006197143
0.015708717
0.01631548
0.010079397
0.0018743615
-0.004030285
-0.012120185
-0.024285454
-0.028273858
-0.02017752
-0.010646814
-0.006407764
-0.0033165459
0.0011165391
0.002307624
0.0032968835
0.0052380823
0.0025583836
0.0029547159
0.011120701
0.01960054
0.022888612
0.015210411
0.0030295963
-0.002823742
-0.0075920285
-0.011161125
-0.009549445
-0.008733545
-0.0064426996
8.651609E-4
0.0042841984
0.002645081
0.005868
0.0128925815
0.016084
0.0129039185
0.0015392872
-0.009597788
-0.011553104
-0.008628695
-1.4650967E-4
0.0080733225
0.0052576596
-8.842575E-4
-0.004167643
-0.004250244
-0.00579878
-0.011850641
-0.00848241
-0.0047343685
-0.012628076
-0.01014409
0.0015765645
0.006357695
0.005325559
-0.004124227
-0.014102587
-0.014206993
-0.010366483
-0.004868389
0.0048138984
0.014919076
0.017582897
0.014029599
0.01002877
0.004982143
0.0042076274
0.008860201
0.012730277
0.01758592
0.018851927
0.013944265
0.009800247
0.001351528
-0.011737842
-0.018040583
-0.017137565
-0.01373756
-0.009188859
-0.0019664203
0.007114179
0.0074106115
-0.002280705
-0.008780481
-0.009115612
-0.008500574
-0.0080356635
-0.0074488656
-0.0068619875
-0.006350618
-0.0046319077
-8.423521E-4
0.0048213075
0.010454743
0.009624953
0.0017357387
-0.005604269
-0.007548731
-0.003965186
2.1092205E-4
0.0031228936
0.0068023726
0.00672416
0.004415183
0.0046627764
0.0021281154
-5.910308E-4
3.3422253E-5
-0.0022145757
-0.002343685
0.0015694207
0.002084374
0.0040230546
0.007064175
0.005618476
0.0035034935
-0.002064451
-0.00901655
-0.006633548
0.001983142
0.010147887
0.014002088
0.009020047
0.0017551561
0.0021024107
0.002128753
-0.010118438
-0.021586988
-0.017465685
-0.0077687185
-4.1040362E-4
0.0045350483
0.0029212376
-1.4027559E-4
0.0010596322
-8.894592E-4
-0.007666225
-0.010109595
-0.007323102
-0.0033226404
0.0023947395
0.006109172
0.006114295
0.0066293073
0.0058771167
0.0018875239
-0.002219338
-0.0037312438
-6.507374E-4
0.007857414
0.017345311
0.01883852
0.011472731
0.001485017
-0.006424619
-0.008401739
-0.008909516
-0.010206798
-0.0068034385
-0.0036048144
-0.0015323757
0.0041854754
0.006875913
0.004336107
-4.914718E-4
-0.005948724
-0.0075464263
-0.007474478
-0.008323312
-0.005238212
0.0025466841
0.006917897
0.0037735177
0.0028262387
0.005745001
0.0023853707
-0.004138231
-0.0055756355
-2.1208571E-4
0.0076229805
0.011399653
0.014007884
0.013926962
0.0073850085
0.0013731391
-0.007233457
-0.019201528
-0.023101812
-0.02139531
-0.017675376
-0.009834833
-0.00309402
0.0014878956
0.0047640423
0.0045409338
0.004521093
0.0041294037
-0.0017969976
-0.00489577
0.001165292
0.008878743
0.018173058
0.027008576
0.02692188
0.020882996
0.009401765
-0.0040398077
-0.0065395003
-0.0015140845
-1.2924249E-4
-0.002348068
-0.0020286515
-3.526494E-4
-0.001810322
-0.0017677929
-0.005767384
-0.018468566
-0.025453065
-0.024029827
-0.018553799
-0.009878939
-0.0029365842
0.0026443566
0.005665848
0.0063734916
0.0039763204
-0.004869075
-0.008001894
-0.0042900466
-0.0011936201
0.0072741583
0.013943306
0.014335782
0.014809748
0.011751765
0.008460553
0.0058225533
-7.804585E-4
-0.0027609328
0.0013415525
0.0030996457
0.0024982868
0.0029510343
0.00324593
0.0013174196
6.57782E-4
0.0011983
-0.0037009725
-0.010639284
-0.011467061
-0.0093148695
-0.0066700676
-3.5571845E-4
0.0035121227
0.0024820145
0.0038889148
0.0014479908
-0.007963417
-0.011715255
-0.008574422
-0.0030219264
0.004390544
0.009572889
0.011717053
0.01095495
0.006637638
0.0011958809
-0.0027557262
-0.0024430954
7.46493E-5
0.0017055783
0.005295278
0.0087071955
0.0066461144
0.0011083051
-0.005330952
-0.012508916
-0.018668914
-0.020792373
-0.014275318
-0.0021471323
0.004235435
0.0053313556
0.0060207713
0.0041667
0.0010531782
-0.0040542986
-0.009377652
-0.008878387
-0.0055932393
-9.141324E-4
0.0037822109
0.00648738
0.011680059
0.013903253
0.009755306
0.00636937
0.006961873
0.014711694
0.022548435
0.021110462
0.01597482
0.007958586
-0.0042764875
-0.01235706
-0.012718964
-0.012666694
-0.016004141
-0.016274104
-0.012202574
-0.0075009502
-0.003193427
-0.0010719509
-1.881378E-4
-8.8028517E-4
-0.004382507
-0.010030622
-0.016357386
-0.017304312
-0.0127485
-0.0035371461
0.0087160645
0.011413703
0.0077966773
0.0070932354
0.002960359
-0.0035546743
-0.007893109
-0.00678907
0.0022847098
0.011046752
0.015138324
0.015038253
0.011430832
0.009189512
0.0072826836
0.0039990656
9.900469E-4
-0.003171265
-0.0039223456
0.003736892
0.009140023
0.005598685
0.0045385854
0.006752989
0.002506592
-0.0060951137
-0.014803642
-0.017666789
-0.010668078
-0.0038461622
-0.001690582
-6.043746E-4
-5.879415E-4
-7.194544E-4
-0.003828796
-0.0105850035
-0.016135365
-0.017233074
-0.007936805
0.0057132454
0.010590644
0.011904639
0.013165904
0.012483796
0.015195502
0.01545068
0.0064412975
-0.0034012985
-0.005103178
-9.140378E-4
-8.516488E-4
-0.0034429377
-0.0025825207
-0.0022604717
-0.004769911
-0.011897464
-0.017459188
-0.01212277
-0.0016622295
0.010751183
0.019612754
0.018669687
0.015334338
0.006293504
-0.008439695
-0.014946894
-0.009464072
0.0021599745
0.010348004
0.016977489
0.01849216
0.0052273716
-0.0059309145
-0.015932184
-0.032406073
-0.036102492
-0.029933814
-0.017710274
0.0019484726
0.016892374
0.02943466
0.033633534
0.024475891
0.009239125
-0.010509481
-0.022490975
-0.024604749
-0.018363124
-0.004356553
0.0060794367
0.023149963
0.04295883
0.050481945
0.04446257
0.018154018
-0.0042806184
-0.021246372
-0.043357987
-0.024409732
0.009528987
-0.0043289396
-0.031485368
-0.033280525
-0.021423932
-0.016176136
-0.015398951
-0.010482636
-0.00750371
0.0022316547
0.00846306
-0.0018847547
-0.008640303
-0.0165426
-0.016499897
0.0081558805
0.022523211
0.022982612
0.032744624
0.04348081
0.05056716
0.049953565
0.033568915
0.008412089
-0.012645654
-0.025042446
-0.037158296
-0.041956052
-0.019934403
0.007924451
0.012315747
0.0086300215
0.009756746
0.012366792
0.019075142
0.012819512
-0.012836491
-0.038170546
-0.060167752
-0.06589373
-0.04129385
-0.009604386
0.013029363
0.026658466
0.030820128
0.031840935
0.027525188
0.015341208
0.0010684894
-0.014048312
-0.022355346
-0.015779719
-0.0034626154
0.003379478
0.005338321
0.0069356496
0.005527539
-0.0025776543
-0.0059446446
0.0038113226
0.010044362
0.0036511817
-0.0012673788
-0.0020479914
-0.0024110659
0.0037909755
0.008047405
0.008383698
0.020720068
0.022817917
-9.8055E-4
-0.011676088
-0.0044681365
-0.010298685
-0.02606062
-0.02669877
8.614064E-4
0.027112553
0.026935188
0.023517039
0.01644235
-0.004549209
-0.016690271
-0.015670681
-0.009801431
-0.0034234026
-0.0044738688
-0.0063819224
-0.0073612686
-0.012029732
-0.009069166
0.001734996
0.0064282236
0.0059356787
0.003791002
-5.979737E-4
-0.0024073084
-0.008250298
-0.018643571
-0.013504348
8.877014E-4
0.006628766
0.011785571
0.015165162
0.00894135
0.0027242342
-0.0015647303
-0.009141869
-0.013480374
-0.00995667
-0.0037558111
0.0032751597
0.010702913
0.013041398
0.010560125
0.0074037225
0.0025948796
-0.003708541
-0.008257321
-0.00753125
-0.0018837252
0.0050875847
0.013777272
0.020564405
0.018687004
0.013798806
0.009556644
-0.0030490344
-0.016680112
-0.013550785
-0.0027674919
0.0044981893
0.012888948
0.01252661
0.0024692863
-0.0019943772
-0.00911128
-0.021923557
-0.024429915
-0.016367301
-0.004537661
0.0038600205
0.002075125
-0.0012931144
0.0018331467
0.004004983
-0.0029149435
-0.012345947
-0.013612099
-0.010628391
-0.006517093
0.0027694316
0.00809325
0.005658354
0.008000649
0.01084925
0.004529482
-0.0037051716
-0.0083323205
-0.0034941908
0.009481373
0.014032283
0.011805025
0.010415727
0.0046416903
0.0018575968
0.0067920294
0.0077055665
-5.301155E-4
-0.009396612
-0.008028442
-0.0037304393
-0.0065177428
-0.004197852
0.004913627
0.004219108
-0.004580798
-0.008334685
-0.0076225046
-0.007613287
-0.0036828637
0.00518733
0.009025865
0.00814639
0.008212344
0.002912547
-0.005681383
-0.008907726
-0.008647058
-0.0044496246
-3.0921208E-4
0.0017186976
0.012131718
0.017216882
0.00433063
-0.0042009596
-0.004195795
-0.009002291
-0.013202247
-0.0116777755
-0.0070480146
-9.7761826E-5
0.007744629
0.011987068
0.011722466
0.010474824
0.0050358186
-0.005085192
-0.01200804
-0.01311923
-0.008701506
-4.915256E-4
0.00675159
0.00996877
0.0078048385
0.0032662947
-4.783654E-4
-0.00430722
-0.006680265
-0.005639184
-0.0016862534
0.004566878
0.008422701
0.0061670053
0.003803546
0.0027008462
-0.0029464085
-0.0094830105
-0.012692184
-0.011424319
-0.003162367
0.004405218
0.00625547
0.007580826
0.007750029
0.006465714
0.0047032735
-0.003656387
-0.015177195
-0.014491947
-0.002976829
0.0059579755
0.010156929
0.009729729
0.0077153156
0.007449733
0.0023149666
-0.005317452
-0.011132558
-0.014748566
-0.010226981
-0.0028015985
0.00418069
0.0099330535
0.008579048
0.009477326
0.007200014
-0.007261416
-0.014827233
-0.013314398
-0.007859081
0.0039489437
0.010341845
0.0115928985
0.011784806
0.006009583
-6.586296E-4
-0.006540034
-0.010673505
-0.00950657
-0.006613751
-0.0033520178
-1.4265356E-4
0.0045556063
0.0098339105
0.010426978
0.008294002
-5.9244176E-6
-0.0113517195
-0.010314081
-0.0020969305
0.005062285
0.011433434
0.010984368
0.006839356
0.0029619671
-0.001336281
-0.0027997983
-0.007814145
-0.016211212
-0.013434766
-0.0029526718
0.001675613
0.0030479303
0.0057781637
0.006606545
0.004346928
-0.0021699558
-0.010220931
-0.011219405
-0.0047477162
0.004818285
0.01283771
0.01538891
0.015381596
0.01371687
0.010376384
0.0049892105
-0.0060475436
-0.013239389
-0.0074556316
-0.0016801425
-0.006788874
-0.010566966
-0.005302224
-0.0043586027
-0.007433793
-0.011526478
-0.026856765
-0.031076578
-0.010789835
3.733939E-4
-0.0019422587
0.0016991264
0.006565477
0.010251873
0.013807373
0.01078257
0.007303122
0.012488693
0.01876707
0.020606507
0.02233723
0.022228891
0.019514265
0.017608201
0.01546907
0.009350832
-0.0021345657
-0.008806736
-0.004439604
1.5280728E-4
-2.0087864E-4
-0.004579711
-0.011924716
-0.01620585
-0.018573737
-0.02311046
-0.02739674
-0.028505135
-0.02490492
-0.018113222
-0.011634927
-0.007887092
-0.0063660024
-0.0044461065
-0.0028768878
-0.0036399045
-0.006456707
-0.007848374
-0.0013080525
0.012027173
0.022969
0.029484324
0.032538753
0.026425984
0.013736698
0.004544049
-0.0019196139
-0.005917813
-0.0019705489
0.005840737
0.011107302
0.014534837
0.01801423
0.019881504
0.015873687
0.008861553
0.005137295
0.0021470615
0.0016430034
0.008400396
0.011417684
0.005227631
-4.4315904E-5
-0.0049505346
-0.014719691
-0.02583117
-0.03457427
-0.038267057
-0.035359655
-0.027520327
-0.021537999
-0.02344483
-0.02432339
-0.01635856
-0.01061439
-0.0124612665
-0.017073855
-0.02330517
-0.015699882
0.009731367
0.019201774
0.011735338
0.019385561
0.032228786
0.031931933
0.02884452
0.03165209
0.0392455
0.044823807
0.044819742
0.043021455
0.040646117
0.034199096
0.020551408
0.0047893566
-0.011707056
-0.029881034
-0.036665842
-0.031782087
-0.027959768
-0.024508089
-0.0217667
-0.023525251
-0.02627173
-0.026580678
-0.02805409
-0.032163993
-0.031330667
-0.02413175
-0.012888721
-0.0012576558
0.003519162
0.009699293
0.018194003
0.016403666
0.01102468
0.007048931
0.0053946916
0.014193586
0.025324041
0.027329393
0.019840252
0.008027493
0.0024108954
0.003979074
0.003116032
-0.0028457935
-0.007566907
-0.0073568025
-0.0035043985
8.799853E-4
1.5893357E-4
-0.0010977787
0.0033486895
0.003792935
-0.002705982
-0.008531769
-0.00936845
-0.0019610487
0.010096407
0.020387415
0.02543654
0.023723323
0.015352255
7.248261E-4
-0.011839665
-0.018306764
-0.0218841
-0.018816948
-0.012477528
-0.008293636
-0.006411233
-0.0090984
-0.0091
-0.0065824604
-0.010885755
-0.014256106
-0.011846097
-0.009104267
-0.0049764453
0.0021209891
0.011700181
0.020620411
0.022712402
0.018007973
0.012588021
0.008260224
0.002909057
-2.1461787E-4
0.0038150074
0.011201545
0.011944683
0.004276658
-0.002421
-0.0045518884
-0.008810413
-0.016565723
-0.018619161
-0.0133366585
-0.008347451
-0.0017810832
0.0042379433
0.003668555
0.0047381013
0.005470121
-0.002120139
-0.009199357
-0.009854845
-0.0057586688
8.844938E-4
0.0076450156
0.013981001
0.0163052
0.0141891735
0.012473077
0.010830649
0.006008263
2.1117636E-4
-0.00426955
-0.008195301
-0.005578128
0.0021196108
0.003343146
4.699663E-4
-0.0036537417
-0.009914522
-0.012884742
-0.014056636
-0.012638337
-0.005831683
4.486257E-5
0.0031387254
0.0061219814
0.008957217
0.00764107
2.9002666E-4
-0.0067819157
-0.008799886
-0.005791749
-0.0022506365
-4.7956937E-4
0.0038229385
0.007082942
0.007028919
0.0073432503
0.0029388804
-0.004698164
-0.008748
-0.011318504
-0.00872701
-7.516875E-5
0.0041428288
0.0050628386
0.007959403
0.008473202
0.00575583
-6.84666E-4
-0.008793217
-0.007700139
0.0017268932
0.01077417
0.018425552
0.020820446
0.017709436
0.015907759
0.00967326
-0.007884
-0.023314534
-0.022499273
-0.0127506815
-0.007817869
-0.008698429
-0.007490699
-0.001329984
0.0032414927
3.0749533E-4
-0.009047897
-0.016647914
-0.01357928
-0.004571707
0.001325256
0.007074151
0.013342584
0.013327439
0.00860174
0.0043726675
4.4974635E-4
-0.0020844664
-0.0028510143
-0.0027311605
7.667545E-4
0.006188883
0.009350417
0.009500223
0.0072463336
0.0030321844
-0.004655767
-0.012348788
-0.012592909
-0.0062066973
0.0019453041
0.0074994885
0.008617338
0.006977091
0.0026540614
-0.0018062796
-0.0053218827
-0.010146015
-0.011184349
-0.005101808
0.0018199795
0.0036136436
0.0023685226
0.004264413
0.007079253
0.005320145
2.379481E-4
-0.0055426913
-0.007903819
-0.0047853985
-7.813325E-4
0.002949865
0.007352807
0.009416524
0.008180811
0.0022292251
-0.00861269
-0.01423596
-0.008224625
6.210643E-4
0.0056222416
0.009301407
0.009718208
0.0058877897
0.0039942744
4.297326E-4
-0.0098551195
-0.018234638
-0.017566621
-0.008281223
0.0013863592
0.0044626715
0.0060180817
0.005646205
0.0025581273
8.525162E-4
-0.004211542
-0.0092337765
-0.0073974356
-0.002058911
0.0047218315
0.008443446
0.010587974
0.01517304
0.012938652
0.003210747
-0.0048476006
-0.008372774
-0.0055108396
0.0023127496
0.008567306
0.010626821
0.011263265
0.009736849
0.0041864645
-0.0037711689
-0.013019083
-0.01827535
-0.018011779
-0.014941296
-0.007136193
-0.0015262323
-0.001984495
-0.0019383628
-7.6241203E-4
5.755492E-4
-0.0023167892
-0.0073720133
-0.006348699
-0.0032738042
0.0024770685
0.009298042
0.011382634
0.016208665
0.0178273
0.009753059
0.003651108
-2.8411497E-4
-0.0016347768
0.0054753767
0.0098399455
0.003508438
-0.0022371048
-0.0019499
-9.3309657E-4
6.2596E-4
-0.003401446
-0.016329622
-0.020711964
-0.011821802
-0.0037136804
0.0015704713
0.0068890355
0.007703731
0.0042998483
0.002029185
-0.002471482
-0.009984334
-0.01275948
-0.009761249
-0.002228524
0.005276491
0.008747518
0.012438801
0.012138191
0.006336966
0.001771326
-0.0034041821
-0.008481469
-0.008170153
-0.0015284236
0.0050898795
0.0069550127
0.009247528
0.008862557
0.0025184792
-0.0040006656
-0.009655476
-0.009641353
-0.004342349
-0.0021461928
-0.0010358444
0.0032124058
0.008484257
0.0073921736
0.0025171023
0.0027737038
-0.0020081718
-0.01270207
-0.011190293
1.9288633E-5
0.005503815
0.0037553494
0.0020119431
0.0020277505
0.0013648348
-0.0010517534
-0.0059060156
-0.008685634
-0.0056983484
-0.0016230927
-2.98039E-4
2.88307E-4
0.0033277946
0.0064742747
0.0065295794
0.0028938088
-0.0035717674
-0.005712986
-0.0015030985
0.0044519086
0.008661005
0.007480325
0.007146993
0.00838763
0.0026321453
-0.00402032
-0.0073498553
-0.009515983
-0.0081764655
-0.003958298
0.0029326978
0.0066649783
0.0037197473
0.0027524396
0.0026728378
-0.0015295706
-0.005613677
-0.0063298712
-0.0034151273
0.0014199952
0.0043344474
0.003326003
0.0017853156
0.0011256994
-0.001539724
-0.005465767
-0.011010153
-0.015134148
-0.012393473
-0.0065532136
9.00755E-4
0.0069252634
0.0065533496
0.0062391474
0.005863542
0.0013905931
-0.0029172383
-0.0061035063
-0.005983847
6.3331477E-6
0.008482381
0.014605872
0.016662043
0.01836215
0.016692754
0.008356678
9.045637E-4
-0.003269591
-0.00246492
0.003837547
0.0050423504
8.058797E-6
-0.0044005066
-0.008302714
-0.01132131
-0.0134922825
-0.01619565
-0.016782736
-0.013674571
-0.008647037
-0.0023695987
0.0031705622
0.0044873874
0.0040906407
0.0036930977
-0.0010872161
-0.008118207
-0.010572761
-0.0069939992
-6.302644E-4
0.0044756657
0.009079732
0.013244411
0.012191589
0.0067023262
0.0018012086
-9.921479E-5
0.0011957221
0.0036744282
0.006706805
0.008531982
0.0064287544
0.0049728323
0.00652941
0.006198473
0.001831635
-0.0049771867
-0.008222183
-0.004972188
-0.0019864049
-0.0028434852
-0.0044512455
-0.0027042534
0.001039975
-3.4421936E-4
-0.005392029
-0.009664289
-0.0123629775
-0.010163113
-0.005335251
9.665848E-5
0.006538232
0.008447112
0.006259805
0.0028587482
-0.0026038955
-0.007582488
-0.010116055
-0.0076835575
-0.001228648
0.002555976
0.004839718
0.009098416
0.0115637835
0.010172679
0.005325812
-0.0031275586
-0.007814583
-0.0036566039
0.002802309
0.009000141
0.01140868
0.007892785
0.0063492293
0.0018424186
-0.006366731
-0.008389133
-0.011132008
-0.011011304
-0.0012037522
0.0046599344
0.0065811235
0.010756004
0.011244755
0.0056229085
-0.0032743264
-0.01079268
-0.014276508
-0.012691704
-0.006993279
-4.7471104E-4
0.00451948
0.0057333848
0.008147483
0.00759963
-0.007440973
-0.018048447
-0.011036353
-0.0049472526
-0.0032002837
0.001417139
0.005259866
0.005076231
0.002323816
0.0023620639
0.0035348795
-0.0015978125
-0.009361047
-0.010658722
-0.0040606125
0.0057556825
0.014038574
0.018005665
0.018245423
0.015016148
0.0063492195
-0.0028018095
-0.008205603
-0.010867437
-0.0066852695
-5.146533E-4
5.686408E-4
0.0042102854
0.0068025906
9.53651E-4
-0.0035104684
-0.0048076636
-0.0074561383
-0.00704076
-0.0018984643
0.0046510193
0.008498491
0.009059424
0.006400639
-8.5234275E-4
-0.0070911245
-0.011745999
-0.016659092
-0.013648937
-0.005307565
2.5013767E-4
0.004328535
0.0065162475
0.006967599
0.0059619076
0.0014011171
-0.0068723774
-0.0139090875
-0.010277592
3.9574422E-4
0.007830709
0.01050442
0.008826705
0.009557563
0.012250191
0.005749925
-0.0050082086
-0.010512718
-0.009539782
-0.0035355743
0.0025067732
0.0058991
0.006349213
0.0070733875
0.007888193
0.0016241168
-0.0079121385
-0.012869624
-0.011646648
-0.0050372034
0.0015659254
0.0059686326
0.008686833
0.00919879
0.007586119
0.0012481877
-0.0058009042
-0.0061548706
-0.0015212103
0.0010584501
-0.002875035
-0.0051150634
-5.795985E-4
0.0013190239
0.0017078632
0.0029868986
-0.0031546992
-0.010848078
-0.009481368
-0.0026885346
0.004780537
0.009343611
0.007872519
0.0047030863
0.0013683984
-0.003325957
-0.0066202623
-0.008626995
-0.0062160743
3.431191E-4
0.0028143085
0.004300059
0.0075116707
0.009843953
0.011520689
0.0051872814
-0.0075944033
-0.014905546