-0.0017684633
-0.0033741216
-0.0029747782
0.0031033582
0.0068730824
0.004667191
0.0034159892
0.0029983635
0.0013100572
-0.002683769
-0.008319321
-0.009741004
-0.0059002438
-3.2464004E-4
0.004274793
0.00485841
0.0024972425
7.3803053E-4
-7.7356596E-4
-0.004000551
-0.008085833
-0.01064325
-0.009017202
-0.0028533656
6.191836E-4
-6.5073156E-4
0.0014929877
0.0048410636
0.004578243
0.003943678
-2.0156105E-5
-0.00513126
-0.0024894138
0.0043496042
0.009183447
0.010451493
0.007615529
0.0032245615
-0.002293473
-0.008123437
-0.011064316
-0.0106628975
-0.00438696
0.0062640226
0.01197887
0.011944166
0.010252028
0.006133621
9.4695645E-4
-0.0047187316
-0.010523912
-0.011545477
-0.0073611136
-3.5312472E-4
0.00731528
0.009954006
0.0065086074
0.001404017
-0.002129671
-0.0051297927
-0.0099157365
-0.011217942
-0.006020471
4.7171245E-5
0.004318236
0.00606576
0.0049915775
0.0028880008
0.0020521649
0.0017773443
-0.0033688722
-0.0075980998
-0.0022249282
0.0032093693
0.0040647415
0.0062497733
0.0060447496
0.0012077495
-0.002135542
-0.0026779352
-0.0037594968
-0.0051500564
-0.0048160222
4.1013767E-4
0.0071900575
5.8367936E-4
-0.010841499
-0.0045927255
0.004280469
1.2915862E-4
-0.005112414
-0.0067531723
-0.003180621
0.004653319
0.009087126
0.011695626
0.012030707
0.0090745855
0.0072740535
0.002996436
-0.0035092148
-0.006697933
-0.006771165
-0.0017469595
0.0029719635
2.9802945E-4
-0.001877375
-0.003167141
-0.0075668367
-0.0093528535
-0.011007202
-0.012759885
-0.008522442
-0.001579221
0.00545399
0.009493128
0.00746112
0.0039724484
0.0019764272
0.0014460047
-0.0010758953
-0.0047653504
-0.0023182207
0.0028259072
0.0062659583
0.008316972
0.008495991
0.010890568
0.01176231
0.0058924514
-0.0012945187
-0.0063666855
-0.0069044693
-0.0030184463
5.3747674E-4
0.0017915812
-9.285856E-5
-0.0038469462
-0.0073579564
-0.009322257
-0.010451123
-0.012745376
-0.009750121
1.1480666E-4
0.0060465424
0.007284465
0.008594588
0.007468486
0.004298052
3.8011218E-4
-0.005365046
-0.0075482046
-0.0035042453
8.796551E-4
0.0034342392
0.0030421303
6.1897514E-4
0.001717544
0.002501623
-7.7161915E-4
-0.0032977911
-0.0052628536
-0.006054187
-0.0016020156
0.0047329906
0.0067246957
0.0040849494
0.0012378554
3.60916E-4
-0.0012726632
-0.004514272
-0.004444426
-7.5960025E-4
0.00229225
0.006895836
0.011346158
0.011201247
0.011184202
0.010823231
0.004506811
-0.0051892516
-0.011289146
-0.009671275
-0.004198255
-0.0012649134
-0.0020890979
-0.0032752627
-0.002795516
-0.003641585
-0.0058650556
-0.00860916
-0.01038868
-0.0060364623
3.442565E-4
0.0037989093
0.005645306
0.0041292836
5.269121E-4
-0.0029352754
-0.0053646537
-0.0059511955
-0.0058190976
-0.0034346525
3.1085042E-4
0.004438348
0.008205017
0.008509229
0.008657412
0.0069394154
5.582321E-4
-0.0034653372
-0.003781516
-0.0015689416
0.0020857265
0.005451281
0.008915274
0.0086495085
0.0070804153
0.006158322
0.0012505192
-0.003157984
-0.0053859586
-0.0060843267
-0.001477681
0.0036400135
0.004484196
0.0021324256
3.4000748E-4
8.231909E-4
-0.002178006
-0.007009138
-0.008231847
-0.008014473
-0.0052832467
-9.6914585E-4
-5.6331795E-5
-0.002054186
-0.0058546322
-0.0076183686
-0.0044582654
-0.0036782972
-0.0067140884
-0.0052416525
0.0012197957
0.0053833094
0.0040971264
0.0021025524
0.002215313
0.0027359622
0.0033795738
9.048636E-4
-0.0028531698
-4.3098058E-4
0.0056187776
0.010389661
0.011898866
0.0102970535
0.008305315
0.0033723724
-0.0029159945
-0.005717523
-0.0070296642
-0.00531924
-1.8664151E-4
0.0029288149
0.0036356829
0.0038669154
0.0018839776
-0.0025996878
-0.005868907
-0.008184511
-0.0100339595
-0.007840171
-0.003399777
0.0012308666
0.005021657
0.0059734583
0.006039324
0.0039700503
4.774534E-4
-0.0018377363
-0.005116342
-0.0051170485
-3.9433857E-4
0.0022709267
0.0012137628
-4.9007917E-4
-1.1553303E-4
-4.136411E-4
-0.0026435552
-0.0045931553
-0.0075703803
-0.0074321493
-0.0020652795
0.0030784782
0.0063344385
0.0063276696
0.0042489273
0.0036728918
0.0023826978
-0.0017565476
-0.005519822
-0.0046583293
-1.8730995E-4
0.004517081
0.006951569
0.0072627873
0.00890809
0.008636495
0.0038860328
-0.001999735
-0.008492144
-0.0094013745
-0.0026382336
0.0024543554
0.0034527404
0.003033443
0.0023868582
8.398804E-4
-0.002757844
-0.0063192374
-0.009164051
-0.0106504485
-0.007801302
-0.0010663238
0.0027609107
0.0019685782
0.003579379
0.005317607
0.0035988712
-7.976174E-5
-0.006106299
-0.0051363693
0.0015283583
0.0031959426
0.005278744
0.005001261
0.0010250729
0.0019988397
6.5127824E-4
-0.004046393
-0.0047362163
-0.003899774
-0.001128637
0.0032995748
0.0045811594
0.0025031185
0.0012253873
0.0020665468
0.0015749052
-0.0016995249
-0.0055606714
-0.0046563563
4.879554E-4
0.0027295826
0.0032708712
0.0034346743
0.0013391537
-8.877999E-4
-0.002955759
-0.00405625
-0.005091237
-0.0062159123
-0.0028240369
0.0012080959
0.0019143497
0.003333486
0.0059979195
0.007980333
0.006874502
0.0023346583
-0.0016433441
-0.002579137
6.2352914E-4
0.005910812
0.00874183
0.009501022
0.0075468575
7.110405E-4
-0.0048310696
-0.0062320167
-0.008882991
-0.0105867125
-0.0083915405
-0.005885933
-0.0040273275
-0.0041796123
-0.005999664
-0.004727766
-0.0025690822
-0.005183912
-0.008491782
-0.006245427
-0.00207333
0.0012463505
0.0047256025
0.004431692
0.0011344699
0.0021716908
0.009564862
0.014568959
0.010355818
0.006137416
0.00616294
0.005765724
0.0067162532
0.0058068926
0.0025684533
0.0020695096
9.90797E-4
-0.0019090154
-0.0068862187
-0.012412174
-0.0105415005
-0.002889643
0.0023836133
0.0031302401
0.0021749206
0.0012250628
-0.0022331893
-0.008235392
-0.012859836
-0.012561906
-0.006620796
0.0020754323
0.007342048
0.0060382127
0.0052500875
0.0063306815
0.003361204
-8.084475E-4
-0.0048789335
-0.0067408453
-0.0016820595
0.0036070126
0.004975718
0.0063964264
0.00705009
0.0032953832
-0.0018537616
-0.0041790213
-0.007874382
-0.00999694
-0.004385324
0.002281807
0.005415116
0.004418434
0.0023126798
0.0035719043
0.0027049312
-0.0015551094
-0.005786752
-0.007230395
-0.0026893844
0.0020789984
0.005270087
0.008054335
0.0073515987
0.0061259167
0.0025474685
-0.0046380367
-0.0095912665
-0.010855545
-0.0054980703
0.0029508935
0.005759532
0.004033381
1.5044447E-4
-0.0023661687
-0.0023359475
-0.0045663384
-0.0071391542
-0.0069708885
-0.0033545825
0.0043813065
0.010214589
0.010620673
0.009127354
0.006295043
0.0015779759
-0.0038486675
-0.008127406
-0.0072837328
-0.001778303
0.0031245486
0.005554538
0.004657769
0.002004879
6.8423676E-4
-0.0012133024
-0.0034675186
-0.00600575
-0.009274945
-0.0075282515
-0.0020433376
0.0015819577
0.0027712525
0.0010999514
6.292002E-4
0.0015551009
-8.578267E-4
-0.0035647738
-0.0050419476
-0.004398545
9.5892017E-4
0.0061092027
0.007810292
0.006936536
0.0041330266
0.0023826715
8.2902465E-4
-0.0027913244
-0.0042171436
2.83057E-4
0.0061180033
0.006949457
0.0051223706
0.0033727223
-0.0011038544
-0.0044328338
-0.0042516715
-0.007226513
-0.010824015
-0.008622905
-0.003952692
8.449671E-4
0.0055240435
0.0073815784
0.006687804
0.0049153953
9.455364E-4
-0.0048190895
-0.0072468603
-0.003970447
6.000797E-4
0.0039703096
0.0068913414
0.008856699
0.008360239
0.005112546
7.753887E-4
-0.0038398877
-0.0058603063
-0.0030183715
-1.5164826E-4
4.067819E-4
-6.649737E-4
-0.0031251041
-0.0026604051
-0.0011274712
-0.004089046
-0.0075500333
-0.0072978586
-0.0047019464
-3.9810495E-4
0.0046525304
0.0064278077
0.003910002
0.0012384003
-0.0011851423
-0.004823155
-0.008169375
-0.008706573
-0.0050295647
-4.74524E-4
0.0037709181
0.007265224
0.006711805
0.0067788754
0.007831772
0.0036917864
-0.0018916201
-0.004039717
-0.0015566393
0.0037764304
0.007673914
0.00842607
0.0055192136
0.0033485913
0.0035110556
0.0013219137
-0.002525971
-0.005653077
-0.005404129
-0.0016524434
8.8058086E-4
0.001427961
0.0019443325
0.0022210123
-0.0024362896
-0.009533871
-0.011277138
-0.011730427
-0.009304577
-8.349845E-4
0.0038134977
0.0031917654
0.002064608
4.4091907E-5
-0.0032792597
-0.0043160003
-0.0028710556
-0.0031637202
3.7432826E-4
0.0053006825
0.0053296946
0.0072266017
0.007449408
0.005928122
0.0051549957
0.0021786764
0.0023423184
-0.004506094
-0.010381296
0.0011892264
0.004334812
0.001589539
0.008115022
0.00655088
-6.7655253E-4
-0.010095446
-0.016265642
-0.008316246
-0.0027475746
-5.6570256E-4
0.0036945355
6.303074E-4
-0.0021678288
-0.0023205022
-0.0036931613
-0.0025222877
-0.0028640947
-0.0039379513
2.4404231E-4
0.006699565
0.0102275945
0.01178452
0.0129497815
0.010184474
0.004645044
-0.0010327721
-0.007080291
-0.008897699
-0.0057053794
-8.825857E-4
0.0037037448
0.0048019867
0.0030587947
0.0011772441
1.1288802E-4
-0.0011566142
-0.00531021
-0.008550937
-0.007276326
-0.0043531945
-7.805455E-4
0.0014461771
9.6253655E-4
8.243136E-4
0.0011313458
-2.828888E-4
-0.004330296
-0.008749558
-0.007879995
-4.4014483E-5
0.007507825
0.007598078
0.0058661313
0.006311002
0.002599345
-0.0027131452
-0.007490907
-0.012368916
-0.008098454
8.7596476E-4
0.0043056807
0.0062760836
0.007050179
0.0063804765
0.0052970788
0.0018260082
-0.0010695886
-0.004233541
-0.005980932
-3.2462733E-4
0.0054338933
0.005039511
0.003719795
0.0034381656
0.00221826
-5.6863425E-4
-0.00629928
-0.012066313
-0.009495913
3.4521752E-6
0.0063367872
0.0070340834
0.005814371
0.004468355
0.0021406508
-0.0012808183
-0.0051351213
-0.008100436
-0.0062590865
-6.977744E-4
0.0022368953
0.001722563
0.0013658539
0.002025933
0.0017094159
5.034065E-4
-3.9157082E-4
2.2719138E-5
0.0026016815
0.004527466
0.0062263017
0.008691949
0.007823568
0.0054410705
0.0018908555
-0.005291386
-0.01052345
-0.011958115
-0.009544396
-0.0015699273
0.004098948
0.0028721206
9.6434203E-4
0.0011040869
5.030986E-4
-0.0035408277
-0.0104591185
-0.014729487
-0.0124569405
-0.0062122317
1.4000775E-4
0.0028032933
7.073413E-4
-0.0010503859
-6.842546E-4
-0.0014999536
-0.0032528029
-0.0024723622
0.0019335062
0.007691991
0.013048437
0.0147351045
0.011258084
0.00829065
0.0073421523
0.0056445305
0.0025309548
-0.0015991527
-0.0018711608
0.002559347
0.0067429445
0.00849695
0.007235831
0.0049242117
5.3934846E-4
-0.006922174
-0.011768197
-0.013399482
-0.013064996
-0.009343194
-0.0042326916
-3.9704103E-4
-2.0270419E-4
-4.9966807E-4
0.0014560036
-3.3191056E-5
-0.006240908
-0.012213633
-0.011464537
-0.0048734294
5.0492043E-4
0.005721713
0.007969482
0.005580939
0.0047947243
0.001440523
-0.0039550196
-0.0046046535
-0.0023756174
0.003256885
0.009770357
0.010976641
0.008277817
0.0049008536
0.001479305
-0.0019625346
-0.0044695265
-0.006264855
-0.006789287
-0.005124396
-0.0028195805
8.3497626E-4
0.0030035183
0.0011372174
0.0011706653
0.0035462398
0.0019646867
-0.003593742
-0.0053963196
-0.0020818086
0.0011978569
0.0043192436
0.00414235
0.0017904523
0.0014318605
-0.0014821523
-0.0051097106
-0.0074234884
-0.00586182
0.0015584842
0.0071892687
0.014152056
0.017637108
0.01331791
0.010548189
-0.0015587456
-0.012255822
-0.008735381
-0.012991539
-0.015961062
-0.012100494
-0.011416622
-0.001789063
0.0063923867
0.006931771
0.0067155454
-0.0019444436
-0.0074208886
-0.0035094602
-8.361326E-5
0.0036354135
0.0058436245
0.005986185
0.0056423214
0.0040262383
0.0013117793
-0.0022440401
-0.004162002
-0.0054259175
-0.0032139285
0.0038546056
0.006934358
0.0058959834
0.0037492616
5.4785097E-4
-5.901599E-4
-0.0011097138
-0.0038687943
-0.006866362
-0.0046202643
0.0015397371
0.0039013324
0.0021920903
-8.1141225E-5
-5.1563163E-4
1.0984899E-4
-0.0010862502
-0.003175095
-0.0034019046
8.373257E-4
0.006161981
0.00873768
0.006986592
8.948935E-5
-0.0015817065
-0.0019432727
-0.011321436
-0.012778951
-0.002851538
0.0051573296
0.009763882
0.008115399
0.0028084933
-0.001842268
-0.006832387
-0.010349166
-0.013642608
-0.013919861
-0.00958263
-0.004825651
0.0014876374
0.0065166834
0.008091098
0.010578436
0.012276795
0.009597118
0.0038267756
-0.0017988227
-0.003929598
-0.0011112322
0.0031717063
0.0042323503
0.0031083084
2.306906E-4
-0.0047620377
-0.008519922
-0.011080192
-0.012562614
-0.012213232
-0.010632044
-0.005770724
-0.0012870796
-2.3833098E-4
0.002003606
0.0034424025
0.0022256044
0.0012251511
7.765038E-4
0.004491205
0.012045243
0.018519439
0.022721497
0.020958537
0.013893771
0.005306484
-0.0058732945
-0.0151491845
-0.020461999
-0.025957592
-0.029882945
-0.031039774
-0.028848043
-0.02260922
-0.015131369
-0.0043269987
0.009992967
0.02224841
0.031612635
0.039297912
0.046695758
0.052661262
0.052535098
0.048810314
0.043417983
0.029987391
0.010765322
-0.005322408
-0.018647864
-0.027809773
-0.02799048
-0.025611306
-0.025019834
-0.022221249
-0.019170653
-0.018624188
-0.016523236
-0.010936291
-0.008530199
-0.009798722
-0.006423422
-0.004239284
-0.013700638
-0.030926436
-0.046068046
-0.050922733
-0.045628406
-0.036325388
-0.02594826
-0.009287421
0.019760745
0.054794017
0.088140875
0.11160983
0.11982658
0.117226265
0.09270729
0.042108312
-0.019813914
-0.085769
-0.13995342
-0.17147365
-0.17593567
-0.15027723
-0.107838236
-0.047478434
0.012037348
0.04372103
0.07712536
0.11527042
0.13008018
0.1225329
0.096144326
0.06816849
0.046081964
0.015063364
-0.02187396
-0.055069126
-0.0696707
-0.056342017
-0.018553818
0.03499415
0.08341045
0.12565544
0.16674012
0.18990599
0.18077858
0.13251548
0.055877794
-0.03461503
-0.12669002
-0.19652319
-0.23917659
-0.25358897
-0.23367494
-0.19134858
-0.14154093
-0.104898535
-0.08190308
-0.048587725
-0.009021114
0.023366133
0.04236092
0.04006741
0.026560485
0.015105564
0.006137575
0.0010241327
1.3241258E-4
5.6360755E-6
0.013637803
0.05399305
0.098943286
0.13080044
0.15486924
0.16950609
0.1746068
0.16650735
0.14461654
0.12178362
0.09214648
0.052968483
0.01774015
-0.01704672
-0.05266007
-0.08457319
-0.117394425
-0.14309202
-0.1461445
-0.12710306
-0.100508355
-0.07505178
-0.04984387
-0.032933462
-0.030197734
-0.03718305
-0.05043567
-0.055060204
-0.0450625
-0.034897014
-0.02048962
4.4341286E-4
0.014300374
0.026997082
0.039990097
0.038255226
0.02670679
0.019920504
0.02082093
0.030142827
0.04317133
0.048150174
0.04274977
0.029134594
0.011174197
-4.4033778E-4
-0.0050745965
-0.005366015
-6.690648E-4
0.0029190965
0.0056038294
0.0071808645
0.0046625007
0.00556856
0.009346239
0.008805023
0.006021344
0.003782326
0.0021946246
0.0041802484
0.011292094
0.016543135
0.01757481
0.016541893
0.010706961
0.0071977437
0.009728969
0.00789122
-0.006836356
-0.032682072
-0.047801133
-0.04421944
-0.03950341
-0.03468424
-0.029788366
-0.027791748
-0.022568269
-0.021587847
-0.024629453
-0.021361036
-0.013550065
-3.436573E-4
0.016447736
0.031206844
0.03926248
0.03547982
0.028927729
0.023523057
0.014743163
0.0119795315
0.015676418
0.018012885
0.020527195
0.0219162
0.020318858
0.019531911
0.023572056
0.021840459
0.007549979
0.004915111
0.017312493
0.027012534
0.03232103
0.0109498035
-0.032578144
-0.05591844
-0.069756225
-0.08139307
-0.06743009
-0.04407968
-0.026543023
-0.010109001
2.1019777E-4
0.0044958545
0.006061344
0.0047343066
2.5939202E-4
-0.0032217589
-0.0035530005
-0.005959482
-0.003518992
0.0069507565
0.0138067985
0.016897038
0.019770378
0.022380553
0.02507716
0.024998102
0.021011481
0.01530704
0.014267997
0.015855787
0.013625101
0.012420929
0.007312399
-0.0050686346
-0.012972428
-0.017236404
-0.021410242
-0.023587285
-0.022160498
-0.012649913
-0.0029602405
3.2457264E-4
0.0029780285
0.005308333
0.008805861
0.011370593
0.005891461
5.6365196E-5
0.0016499914
0.006255021
0.009026511
0.0074751824
0.004220356
0.0018861003
-0.0023149517
-0.006056851
-0.0068772486
-0.010872031
-0.017711159
-0.018248435
-0.012200811
-0.0061036786
-0.0015855891
5.8922835E-4
1.523163E-4
2.5766853E-5
-0.0015257018
-0.0057637696
-0.005577288
0.0010220034
0.006262123
0.007313116
0.007888531
0.008239602
0.0071819425
0.005104824
0.0010055193
-0.0025954396
-0.0023404728
-0.0012019812
3.708172E-5
0.0017929121
6.37788E-4
-4.9202406E-4
0.0014988842
0.00108733
-0.0028363816
-0.0062890016
-0.006626738
-7.061621E-4
0.007915002
0.0125586055
0.014223452
0.013048322
0.008496093
0.0041302657
7.139521E-4
-9.2163857E-4
1.725109E-4
0.00243074
0.0037876028
6.8670453E-4
-0.0041642333
-0.005262631
-0.0036400263
-0.0025229512
-0.006254618
-0.010859008
-0.009583847
-0.005283139
0.0017325593
0.0030317323
-0.0061630374
-0.0071654734
-0.0012440839
-0.0022199394
-0.004912916
-0.008102951
-0.008090342
1.5042379E-5
0.0068039377
0.008375716
0.007379509
0.0064431056
0.006680902
0.0043488676
-2.3356051E-5
-0.0035791209
-0.00340169
0.001345176
0.005586205
0.0070694527
0.0048713135
0.0012769772
6.7068555E-4
-0.0013745674
-0.0061667776
-0.009067139
-0.0076297633
-5.9764215E-4
0.0064368965
0.008475183
0.007523581
0.004812101
0.0016758842
-0.001286789
-0.005235962
-0.009857177
-0.010680431
-0.0036890383
0.0048123375
0.00849535
0.008468585
0.0054219975
0.001920473
-6.358573E-4
-0.0036591555
-0.005910981
-0.0066693285
-0.0045494223
1.3483682E-4
0.0028880145
0.003314767
0.004019055
0.0041293087
7.539115E-4
-0.0047236634
-0.008903608
-0.010027395
-0.00439843
0.0036158906
0.0060399636
0.0072629503
0.00830194
0.005466248
0.0014974062
-0.003854129
-0.009307594
-0.009999202
-0.004840041
0.002791241
0.0056494493
0.0056154625
0.008135798
0.008206715
0.004534073
-0.0015474188
-0.009705844
-0.011726233
-0.005448157
0.0031416118
0.009489364
0.00877493
0.0033665097
-0.0016764104
-0.006258236
-0.009258179
-0.011492471
-0.011228685
-0.0044214595
0.0029533939
0.006477891
0.008928007
0.009266811
0.006934696
0.0033865809
-0.0024024218
-0.008480272
-0.007908493
1.851936E-4
0.007341586
0.009236234
0.0077493694
0.0047263126
0.003223055
0.001988619
-0.0025377742
-0.006467989
-0.0066073337
-0.0039371387
6.969107E-4
0.0025273503
0.0010126806
5.545707E-4
-0.0010228908
-0.0034118025
-0.005791326
-0.0105658155
-0.010512994
-0.0032872558
0.0043070694
0.00907527
0.008720636
0.008281143
0.008118815
0.0020145262
-0.002708359
-0.005124702
-0.008795217
-0.0065687923
-2.2043248E-4
0.004676222
0.006753889
0.0063347025
0.0056942836
0.0023143336
-0.002811387
-0.00667347
-0.007821441
-0.0038436574
3.5214014E-4
0.0033778697
0.0054638833
0.003395337
0.0019310073
2.2020291E-4
-0.0042418744
-0.0069309296
-0.007341988
-0.0032396193
0.003248118
0.005988588
0.00641695
0.005564498
0.0045694862
0.0031937067
-0.0019729729
-0.008608873
-0.010893201
-0.0070325234
1.6579477E-4
0.007775698
0.010590045
0.007713715
0.0052202493
7.0648885E-4
-0.0052897134
-0.0091697825
-0.013065873
-0.008504399
0.0029927802
0.008423602
0.009843122
0.0077843103
0.0021073832
-0.0021513249
-0.0057798345
-0.008592485
-0.0078243045
-0.0012896751
0.0056006764
0.007705834
0.009063414
0.0062256833
0.0013441945
0.0017496601
-9.994728E-4
-0.0076094936
-0.009576141
-0.00561018
0.0014023887
0.004709812
0.0049941684
0.004944694
0.002004705
-4.6368956E-4
-0.0031788473
-0.008014321
-0.007906182
-0.0024585053
0.002951549
0.0058753053
0.004826493
0.0024125588
0.0016480262
5.2731135E-4
-0.0027796673
-0.00707018
-0.008527583
-0.0035873393
0.003210906
0.005551922
0.005458322
0.0043175654
0.0016876643
6.528297E-5
-0.0019065044
-0.0055092536
-0.0069935173
-0.0030110755
0.005071069
0.008687452
0.005960027
0.0054613147
0.0046831737
-9.946191E-4
-0.005652243
-0.00904034
-0.010820012
-0.0057052295
0.0026729822
0.0076523707
0.0074409894
0.005485948
0.0039169295
4.4844463E-4
-0.0024453439
-0.00548244
-0.008786401
-0.0051704017
0.0015306186
0.0053431853
0.0069941604
0.0061327927
0.0053796684
0.0035523647
-0.0021778177
-0.008306783
-0.01015642
-0.006393154
-0.0011302148
0.003627795
0.005029854
0.0014207399
-4.6925564E-4
-0.001943658
-0.0054081143
-0.008370016
-0.010154755
-0.0052546216
0.0028169332
0.0072145
0.008078261
0.005493718
0.0065187872
0.00838326
0.0032830487
-0.0022820556
-0.0048683705
-0.0031151534
0.0023081664
0.005778797
0.0050107115
0.0021185277
0.002907625
0.0028329645
-0.0015290936
-0.0056827087
-0.008442308
-0.0032861966
0.0030477324
0.0056199133
0.00860316
-8.568523E-4
-0.008109981
-0.003908784
-0.011026437
-0.013062621
-0.0051465346
-0.0061518503
-0.0033165868
0.0022430166
0.0021274877
0.0018249269
9.573522E-4
0.003083309
0.0033339385
-0.0032846483
-0.0058770142
-0.0012097063
0.005200157
0.009969427
0.012106664
0.011350129
0.0079156365
0.00346256
-0.001231316
-0.0044580605
-0.005190886
-0.003590369
4.960768E-4
0.0054045385
0.008003221
0.0055862404
0.00240603
0.0022187284
1.0050128E-4
-0.0058556474
-0.011604537
-0.011476508
-0.006379651
-0.0019693146
0.0014705396
0.0018586877
3.2609052E-4
-8.045637E-4
-0.0054670563
-0.009824453
-0.010871729
-0.009000383
-0.0027861588
0.0024151602
0.0063670236
0.009236971
0.006833159
0.0035424265
5.7342387E-4
-0.0041393014
-0.0070077777
-0.0037940163
0.0046068714
0.009518974
0.009346559
0.009069075
0.006396549
0.0020687524
5.445979E-5
-0.0020932402
-0.005465317
-0.0045571867
0.001976767
0.006018422
0.0037323625
0.001948562
0.0032423744
0.0024241311
-9.914739E-4
-0.0056285188
-0.010605651
-0.009432555
-0.0023672397
0.0022556786
0.0031668614
0.00267729
0.001620042
6.7589077E-4
2.7555696E-4
-6.652089E-4
-0.0038964602
-0.0047689877
4.1300358E-5
0.0043779556
0.003089276
-0.0010284571
-8.939154E-4
0.0015604699
-5.572493E-4
-0.0042468873
-0.0071425764
-0.008642952
-0.004555169
0.0025449574
0.006607779
0.006212467
0.003464421
7.064973E-4
-0.0024370314
-0.0059203906
-0.0064555
-0.0031398386
5.5915234E-6
0.0029330119
0.0065738577
0.007227699
0.0062646037
0.005277078
0.002745577
-5.9757906E-4
-0.004176422
-0.0034917789
0.001041747
0.0035957699
0.0062486823
0.0073076566
0.0044169184
0.002100476
-6.712567E-4
-0.0057451813
-0.009620711
-0.008688292
-0.005066941
-0.0029586558
-0.0018810406
-0.0017053032
-0.0011447934
-3.4712016E-4
-0.002124531
-0.0044813366
-0.006396184
-0.004387966
0.00261393
0.0068266103
0.008434874
0.008635312
0.00616937
0.0045856405
0.0012564096
-0.004575175
-0.0076105846
-0.005993936
-9.617905E-4
0.0032631233
0.006244245
0.0077389446
0.004855652
0.0017549881
7.5919717E-4
-0.0020555689
-0.0066974214
-0.00823361
-0.003617189
0.0025065972
0.0045536174
0.0038220151
0.0030449533
7.7582744E-4
-0.0039013291
-0.007848473
-0.00878698
-0.0066004843
-0.0029374703
3.4276774E-4
0.0027266818
0.0025794613
0.0016513064
0.0013938071
-0.0016406843
-0.0057431413
-0.0071199643
-0.0044534835
0.0027190035
0.008609671
0.008650136
0.007542162
0.007811644
0.0055422504
0.0014034968
-0.0012741904
-0.0024897715
-0.0016801922
1.0277389E-4
0.0025001343
0.004273669
0.0025224297
0.0031285614
0.004575734
-5.0764286E-4
-0.0059869904
-0.008835938
-0.0074358084
-0.0012456153
0.0030380585
0.0069586453
0.0061725113
6.581247E-4
9.7182964E-4
-0.0054441495
-0.016665341
-0.0114840325
-0.004580477
-0.007979678
-0.005327079
0.0036448354
0.006801536
0.0055394834
0.0048610806
0.0019159411
-0.0041458164
-0.008435768
-0.008128733
-0.004383498
1.6457363E-4
0.00468906
0.007161915
0.006737197
0.0070015024
0.006370556
0.004009811
0.0015250948
-0.0022010207
1.5607382E-4
0.0077101653
0.008042063
0.0063158153
0.0076784063
0.0050975005
5.457971E-4
-0.0032874702
-0.0073538343
-0.0071153315
-0.0023488658
9.6688216E-4
0.0016766565
0.001805346
-3.4303212E-4
-0.0036717432
-0.004749352
-0.007790593
-0.0126582915
-0.011787783
-0.0066067884
-0.0018869436
0.0011065521
0.001841491
0.0018446755
5.4459E-4
-0.0014928982
-0.0018527746
-0.002495531
-0.0011559292
0.0047070934
0.008209755
0.0076689404
0.007572633
0.005255562
4.536497E-4
-0.0010664299
-0.001509593
-0.003937766
-0.0040890845
-0.001472507
0.0015180678
0.0041291704
0.0044285106
0.0031970555
0.002199824
-2.4127522E-4
-0.005440764
-0.009877994
-0.008272912
-0.0018803197
0.0044847373
0.008631918
0.009443632
0.0071244086
0.0032836054
-2.6451185E-4
-0.0039237384
-0.0076334234
-0.007984874
-0.0048284214
3.7567987E-4
0.004760152
0.004205596
0.002741506
0.0019728527
-9.1535633E-4
-0.0037403738
-0.008146638
-0.010616765
-0.004896609
8.6257706E-4
0.0032498818
0.004624394
0.0018381363
-5.798054E-4
-4.1620643E-4
-0.0035477423
-0.008003065
-0.008817612
-0.004515869
0.0031130787
0.008677957
0.00978754
0.007504969
0.0045563914
0.0029325036
-6.142306E-5
-0.003723727
-0.0034664276
3.6810493E-4
0.005492945
0.008675482
0.0072523137
0.004771626
0.0044859434
0.0033047597
-0.0018310437
-0.006601181
-0.006586602
-0.004565874
-0.001260165
0.0016947662
1.14545386E-4
-0.0015989587
-0.0019137046
-0.0036752636
-0.004639193
-0.006797169
-0.009300328
-0.0059121526
7.5648347E-4
0.004902468
0.0056921034
0.006044476
0.0068623135
0.005316708
0.0012921629
-0.0035749369
-0.005958929
-0.0031723692
9.72469E-4
0.0023109058
0.0014844388
0.0025312179
0.005308965
0.0038803613
-0.0021429711
-0.008465691
-0.010035307
-0.005217328
-7.178354E-4
7.505915E-4
0.0031812515
0.0056728735
0.003958908
6.250265E-4
-3.3996545E-4
-0.0027359987
-0.004273621
-6.800363E-4
0.0028324157
0.0061714123
0.008543978
0.006104302
0.0032162897
0.0012497221
-0.0024387238
-0.007062199
-0.008878923
-0.0056400932
2.6296286E-4
0.0052744155
0.004530849
7.3915446E-4
3.3407926E-4
8.048974E-4
-1.09382774E-4
-0.0047450466
-0.008864155
-0.0052017313
-9.0812123E-4
0.0028722505
0.0063464507
0.0045954376
0.0044824528
0.0041079666
-4.1263094E-4
-0.0034597854
-0.005110793
-0.002661934
0.002724252
0.00664777
0.008792683
0.005983872
0.002216484
-0.0011141472
-0.005221543
-0.008001083
-0.014929536
-0.01557232
-0.0026610815
0.0037008866
0.0022625104
0.0037077277
0.004502288
0.004900924
0.0036370775
-0.0019268862
-0.0042625796
-1.9609102E-4
0.0041257143
0.006643401
0.0070183403
0.0034689654
7.6850265E-4
-2.7613924E-4
-0.0039238674
-0.006212713
-0.006313199
-0.005963214
-0.0018798085
0.002598091
0.0031457054
0.0025581226
0.0019837136
-4.369109E-4
-0.0039444994
-0.0069171293
-0.008711823
-0.0052175717
0.0026376634
0.006459958
0.007214568
0.008851897
0.008162602
0.0057605132
0.0039934823
0.001049454
-0.0016615716
-7.3092605E-4
0.0018899399
0.0032398677
0.0036688386
0.0038137843
0.0033132483
3.4679176E-4
-0.00491093
-0.010310046
-0.013524915
-0.009855956
-0.0037779785
-0.0029975057
-0.0018581355
9.893996E-4
3.9147833E-4
-0.002554212
-0.0062909178
-0.008662405
-0.008936034
-0.0063822316
-2.526159E-4
0.00475206
0.0075925314
0.008235462
0.006954125
0.006492629
0.0031143783
-0.0011578177
-8.758305E-4
9.2671363E-4
0.0042559807
0.009480646
0.013319754