-0.009983831
-0.0084339315
-0.0051858174
-5.7204155E-4
0.0076501556
0.013375877
0.007909269
-0.0030417736
-0.010154096
-0.013743098
-0.013226106
-0.007360822
-7.949432E-4
0.0042702905
0.011584066
0.017433807
0.011110206
-0.0024829442
-0.0092104385
-0.00837446
-0.0066251135
-0.006954396
-0.0057207393
0.0016399474
0.011193572
0.015569639
0.010874914
-7.104388E-4
-0.011660021
-0.01485887
-0.010279869
-0.006221759
-0.0042303745
9.6821866E-4
0.006089554
0.009419374
0.010138627
0.0038875535
1.0917366E-4
0.0020570727
-0.0015453843
-0.004429421
-2.905682E-5
0.0045817164
0.0105536645
0.014044431
0.006678326
-0.0032358828
-0.007849164
-0.009451851
-0.008361869
-0.0055277287
-0.0033219852
7.0327416E-4
0.007224854
0.010228314
0.005845311
-0.003661371
-0.010710964
-0.010226982
-0.008708844
-0.009615661
-0.006711392
0.002221566
0.013619215
0.019554365
0.0129235145
-0.0015555134
-0.011756874
-0.013552278
-0.010907778
-0.004742559
-6.952896E-4
-0.002166063
0.0028996633
0.012730411
0.012790702
0.0039570983
-0.005088294
-0.007187208
-0.006440909
-0.009296893
-0.0070117847
0.0031957503
0.015504967
0.025064347
0.02062942
0.0030532547
-0.01109581
-0.01694889
-0.018921688
-0.015269164
-0.0070234984
0.0028584956
0.015458016
0.022873284
0.01859669
0.0073276814
-0.0044089383
-0.008387726
-0.01011033
-0.015308164
-0.012707143
-0.0051098093
0.0041546016
0.015574637
0.011810373
-0.003823094
-0.0128346095
-0.014514268
-0.011556671
-0.006393896
2.717037E-4
0.00588042
0.0088467095
0.015821345
0.019075587
0.010892648
0.0014187339
-0.0049845707
-0.009510587
-0.012429794
-0.011710244
-0.003526037
0.008654629
0.018741865
0.018860774
0.0064757736
-0.008204613
-0.017249878
-0.019602833
-0.01658077
-0.009912187
-0.0029907718
0.0040515778
0.014672141
0.017482508
0.0060124733
-0.004601068
-0.00825167
-0.008692786
-0.0081553925
-0.0066765225
-2.705938E-4
0.0108100725
0.02163517
0.021230176
0.007248186
-0.0072257374
-0.015479576
-0.01404917
-0.0074555487
-0.0033491843
0.0043793377
0.012820947
0.016691985
0.015255498
0.0031008895
-0.010440284
-0.014847334
-0.012523932
-0.010498717
-0.010417106
-0.0019767683
0.012806529
0.024723908
0.024896935
0.0072278045
-0.008682362
-0.01823118
-0.02698854
-0.017542114
-0.0018169263
0.0023098618
0.0060456125
0.0110455835
0.013736765
0.007733606
-0.0063312515
-0.010992167
-0.008907341
-0.010102278
-0.009171831
-0.002161389
0.012181437
0.025848633
0.02442603
0.007764596
-0.012044677
-0.022262419
-0.021135444
-0.01645886
-0.0095888935
7.3602E-4
0.013001303
0.024327941
0.026088182
0.01684919
0.004839251
-0.007594593
-0.017571185
-0.020226225
-0.016022483
-0.0058147423
0.009228783
0.023559637
0.02621728
0.013364086
-0.0032333937
-0.012984734
-0.016113881
-0.016815638
-0.015434501
-0.009204582
0.0032221715
0.019586872
0.02660346
0.014528295
-0.0027667491
-0.009631494
-0.011475789
-0.016426638
-0.015585117
-0.0059597003
0.004183743
0.015499015
0.018025136
0.0042885807
-0.008282996
-0.014943702
-0.02046053
-0.018057823
-0.008063231
0.0022516828
0.011543177
0.020186
0.020783056
0.009546754
-0.004270574
-0.011017664
-0.008887546
-0.0065598376
-0.0058045075
0.0011148315
0.012966294
0.026465237
0.0278506
0.009675283
-0.006819993
-0.014515386
-0.017875139
-0.01366898
-0.007202956
0.0011335314
0.012730944
0.021604896
0.021019097
0.005156671
-0.0135872485
-0.019743636
-0.018208228
-0.015344488
-0.01129993
-0.0049168463
0.0062040063
0.017707638
0.01812792
0.005275463
-0.010915717
-0.020166328
-0.01830849
-0.0129370205
-0.008084826
0.0032091641
0.017841376
0.026919376
0.022893228
0.0058744266
-0.007853927
-0.011364536
-0.010852552
-0.010409175
-0.010786758
-0.004627203
0.01013704
0.02453677
0.027607212
0.014471114
-0.002968525
-0.014778263
-0.02131986
-0.020479564
-0.014938925
-0.006565948
0.00668659
0.019130517
0.022035006
0.011193944
-0.0040356424
-0.010278014
-0.012364089
-0.0150408605
-0.01133343
-0.0020342798
0.011559853
0.025624018
0.024306549
0.010363723
-0.0019089826
-0.012322149
-0.016853409
-0.012955926
-0.0063245497
-5.18997E-5
0.005464109
0.015733326
0.022197213
0.0103163645
-0.006659198
-0.015149097
-0.01664762
-0.013389087
-0.010798448
-0.0081010265
0.0011303092
0.014332318
0.018099649
0.0058292276
-0.009687415
-0.017586622
-0.0178499
-0.012767115
-0.0068563437
-2.396996E-5
0.010136822
0.021053962
0.025083765
0.015989535
0.0017056206
-0.006612196
-0.008564301
-0.0075460365
-0.005746605
-0.0016169364
0.007265777
0.018707909
0.023167262
0.011394984
-0.0060069147
-0.0141906
-0.018484892
-0.02064801
-0.013742004
-0.0043621175
0.004068638
0.015614622
0.021229777
0.014047255
4.9218885E-4
-0.010336944
-0.012104096
-0.010506713
-0.011367971
-0.008265101
0.0021624805
0.014645038
0.018477
0.008383889
-0.0067747477
-0.015029435
-0.012628756
-0.008816228
-0.0069948058
8.232588E-4
0.010622713
0.017664505
0.020521905
0.011679576
-0.0040122294
-0.014535448
-0.015357578
-0.011713985
-0.011163164
-0.0060505765
0.008913533
0.02489763
0.03091009
0.01767963
-0.003831671
-0.014868273
-0.017717902
-0.016158385
-0.008314014
8.6661115E-5
0.0062865834
0.012790149
0.01469581
0.0069671967
-0.004425599
-0.011984604
-0.013249833
-0.010676734
-0.008759769
-0.0058629573
0.0025126394
0.014075222
0.016709754
0.006191099
-0.0056988886
-0.01530828
-0.021814546
-0.019138107
-0.009770432
0.0040489407
0.016143661
0.01908173
0.018272981
0.013028829
0.0013430497
-0.0070826374
-0.006843705
-0.0029264342
-0.002825314
-0.0030400166
0.0049765315
0.019431897
0.02862675
0.019822093
0.001739045
-0.008235763
-0.013206419
-0.015983822
-0.0125163365
-0.0057211267
0.0024639445
0.0102661755
0.011781308
0.00317178
-0.009428378
-0.015120705
-0.014736159
-0.01435961
-0.012966821
-0.009687148
-0.003432518
0.008209365
0.014887607
0.0060801264
-0.0063369693
-0.010567621
-0.009781248
-0.0070787813
-0.0031616518
0.0035445467
0.012242527
0.019324457
0.022941671
0.017386204
0.0061805192
-0.0010842644
-0.0047809915
-0.0040207296
-0.003779216
-0.007128659
-1.0317991E-4
0.014038242
0.017300222
0.009542301
-0.002173717
-0.012901814
-0.018103892
-0.01826059
-0.014515405
-0.00673759
0.0014048531
0.0067684143
0.010922767
0.010921563
0.0034696576
-0.00188302
3.8554048E-4
-2.4610246E-5
-0.005448488
-0.006198117
2.3772747E-5
0.009750939
0.016487379
0.011129111
-0.0026264796
-0.012201875
-0.014720213
-0.015325338
-0.01556667
-0.0105765825
2.5429786E-4
0.010581625
0.016587952
0.013967985
0.0017148694
-0.007829821
-0.006890295
-0.0042562666
-0.0047564902
-0.0017646177
0.0075380653
0.01760874
0.018434739
0.006635807
-0.006201548
-0.011168721
-0.011068632
-0.009129837
-0.0057620252
-8.9235324E-4
0.004103042
0.00988799
0.015119955
0.011878012
0.0022987826
-0.0048193806
-0.00954171
-0.011455738
-0.008772258
-0.0040162173
0.0023086173
0.010444672
0.014441464
0.008904001
-0.002046047
-0.0113617
-0.014750692
-0.01295695
-0.008263293
-4.9007055E-4
0.00494675
0.008831716
0.015827257
0.014127093
0.001991442
-0.0077814227
-0.0124903
-0.010996186
-0.0064302203
-0.0027628078
0.0047685495
0.012757708
0.0145374015
0.009399416
-6.6671567E-4
-0.008418214
-0.011252364
-0.010935378
-0.005950419
6.7229563E-4
0.0048345504
0.009103289
0.013389041
0.010017592
-4.894542E-4
-0.006745824
-0.00796112
-0.008833681
-0.0061686225
-0.0025596526
-1.9347086E-4
0.0070597767
0.0130499685
0.007961184
-0.001875085
-0.008495916
-0.012043188
-0.013347139
-0.010727874
-0.0055768285
3.6198844E-4
0.01025142
0.01707594
0.013843288
0.007438229
-0.0012502775
-0.0073755058
-0.0045970907
8.571766E-4
0.0069932668
0.0019393105
-0.011209039
-0.002702058
0.010526511
0.0030211383
-0.0054118284
-0.007978596
-0.007979509
-8.1184984E-4
0.004396782
0.0047968403
0.008243519
0.0102478275
0.0028368756
-0.005480937
-0.0057463185
-0.0056646275
-0.007429988
-0.005087568
-0.0018566682
-0.001003521
0.00260188
0.009612219
0.009369525
5.591528E-4
-0.005595409
-0.00783613
-0.009033191
-0.0076231128
-0.0037870952
0.002540763
0.009328648
0.012226339
0.010102113
0.0033353667
-0.005380739
-0.0088599725
-0.006153635
-0.0045064306
-0.003349713
0.002030832
0.0102252355
0.01622084
0.013318184
0.0034261975
-0.0051632198
-0.010407644
-0.012822518
-0.011849349
-0.0065236664
4.6473453E-4
0.0060492908
0.010391132
0.010253507
0.003635435
-0.0057422607
-0.009418003
-0.0057742205
-0.0038517409
-0.0017745101
0.0028786473
0.0067943074
0.0119700935
0.010402398
-3.211027E-4
-0.010308027
-0.0152046885
-0.011488805
-0.0053463024
-0.002263101
0.0029082536
0.009665308
0.016655562
0.01569773
0.0021371453
-0.008007476
-0.008225427
-0.0065996055
-0.0054228986
-0.0028053964
0.0023660953
0.009336799
0.013641676
0.009291974
-6.1213475E-4
-0.008832388
-0.012985157
-0.0126610175
-0.010908988
-0.00731037
-5.189518E-4
0.0058793304
0.011386901
0.014108515
0.009502239
-3.1585537E-4
-0.004020967
-0.0026948939
-0.006412849
-0.0047266562
0.0021011387
0.00926217
0.018905174
0.0047815726
-0.017208617
-0.011493306
-0.007742247
-0.010365982
-0.0032724293
-0.0016572961
9.90867E-4
0.0072733434
0.0070658256
0.005200477
0.0018700566
-0.0024201465
-0.0029853408
1.2701459E-4
1.1045574E-5
-0.0038714958
-0.0021793395
0.0049616597
0.014496037
0.017336376
0.008226449
3.0936606E-4
-0.005129731
-0.010788597
-0.013709758
-0.013781985
-0.0068621375
8.50404E-4
0.005328422
0.008154578
0.0039491635
-0.0011050935
-0.0026613956
-0.0028189458
-9.984123E-4
-0.001839194
-0.00410274
-0.0028564306
0.0042271907
0.009630734
0.0020951123
-0.0074707516
-0.010203366
-0.010680444
-0.007887771
-0.003580636
0.002436098
0.012134966
0.02021407
0.020083668
0.0111379875
0.0035914914
4.7894163E-4
-0.0059570055
-0.012710887
-0.012055282
-0.005864618
0.001343607
0.009542731
0.011240318
9.4230974E-4
-0.007688638
-0.008817471
-0.008076432
-0.005108365
-0.001700805
0.0024212052
0.008577029
0.011698604
0.009927811
0.003293188
-0.00589484
-0.012270163
-0.016142303
-0.01736118
-0.013493475
-0.0053542657
0.0073875412
0.019129777
0.017636767
0.0064843153
-9.193439E-4
-0.0048296717
-0.008237711
-0.007941914
-0.0045232857
-4.7406607E-4
0.0021863596
0.0046388293
0.009660829
0.009243018
2.6747517E-4
-0.0053086067
-0.005744103
-0.0050076935
-8.087958E-4
0.0050923955
0.013984758
0.02474933
0.025071528
0.011133516
-0.008881358
-0.023634098
-0.025408465
-0.019250637
-0.013307659
-0.005584619
0.005994571
0.012843248
0.011765581
0.006748379
-8.008266E-4
-0.003510504
-0.0029013774
-0.005614221
-0.0080510415
-0.009745073
-1.2620096E-4
0.017196242
0.017927324
0.0074096224
-0.010892466
-0.027423212
-0.01789946
-0.006389762
-0.0044903783
0.0054012286
0.011562844
0.015119034
0.019066408
0.010671905
-0.0014090379
-0.0062937234
-0.0031010967
0.0017815379
7.7896577E-4
3.4562463E-4
0.006084636
0.013356274
0.012885832
0.0028750189
-0.008153163
-0.01619195
-0.02022995
-0.018490462
-0.012168093
-0.005767057
5.128879E-4
0.009380137
0.012474012
0.005519659
-0.0037084874
-0.008182825
-0.006122067
-0.0048181424
-0.0029821724
0.004611827
0.014209571
0.026610514
0.030803239
0.021405729
0.01244239
0.0020024085
-0.0052658673
-0.0030014154
-0.0051719034
-0.00431964
0.00697395
0.012812871
0.008663664
-0.008782487
-0.03636789
-0.048457384
-0.038609754
-0.025730303
-0.017888706
-0.010371663
0.0026047004
0.015547004
0.013161853
-8.94842E-4
-0.0118971085
-0.017511511
-0.01444504
-0.0043646526
0.0018861673
0.00912537
0.02378248
0.038655397
0.05080305
0.052594025
0.036272492
0.014534908
3.6258763E-4
-0.0013865576
-8.748598E-4
-0.01819564
-0.030801417
-0.012141947
0.0059107025
-3.3906897E-5
-0.011874318
-0.017366538
-0.020905692
-0.026385495
-0.030114643
-0.02882891
-0.0147167705
0.011291356
0.023570724
0.013964034
-0.0027931088
-0.012055248
-0.007786398
-0.010829818
-0.020610709
-0.011528144
0.0052031516
0.01746757
0.02298389
0.010253211
-0.0072709117
-0.011916353
-0.0057972292
0.005061688
0.015324518
0.024244571
0.035379365
0.050301168
0.055359863
0.040756125
0.022023104
0.009208888
0.002494061
-0.004133688
-0.014674084
-0.015251949
-0.011892727
-0.013405946
-0.01491569
-0.02601702
-0.039253462
-0.052100137
-0.07020622
-0.06783057
-0.04857062
-0.03390845
-0.018296577
-0.007781553
-0.00538978
-0.0071015395
-0.01646147
-0.020601744
-0.01063096
0.0017015145
0.011932191
0.0305657
0.061549466
0.09302312
0.10916111
0.11027367
0.10680867
0.08734587
0.051319715
0.027350595
0.022979371
0.023509843
0.007409502
-0.023889123
-0.048884735
-0.07611879
-0.10613724
-0.12267355
-0.11778574
-0.091876306
-0.06836233
-0.04050381
0.00242249
0.038135685
0.056266338
0.039473444
0.018169127
0.014513083
-0.024982989
-0.054690402
-0.017295886
0.023099372
0.038418133
0.05441323
0.07182577
0.07198491
0.04576302
0.0019094966
-0.035663687
-0.040410563
-0.025752408
0.0035574308
0.040651396
0.05154321
0.056687985
0.032491375
-0.06551185
-0.15485874
-0.18094988
-0.19790901
-0.21252102
-0.1446421
0.003016528
0.14487374
0.26734763
0.34454834
0.3696758
0.34924853
0.2001247
0.017712781
-0.06823033
-0.14570284
-0.20220496
-0.18396594
-0.1339147
-0.054282386
0.017455589
0.050618075
0.05757577
0.002933982
-0.09892775
-0.14820749
-0.13391517
-0.14502622
-0.142713
-0.07690738
-0.05152365
-0.070907906
-0.06709447
-0.04567376
-0.006519057
0.05740477
0.17745067
0.27890003
0.24798363
0.18282583
0.12984478
0.0505132
0.0150982775
-7.129735E-4
-0.046154276
-0.0718346
-0.06724766
-0.019634984
0.045420866
0.018644614
-0.06837917
-0.07825479
-0.060175724
-0.12139599
-0.17590928
-0.13466403
-0.04920351
0.02805995
0.10079032
0.13131292
0.07097789
0.029516347
0.06006841
0.053195912
0.024444208
-0.01972295
-0.05300964
0.05463164
0.15160958
0.10457227
0.046019264
-0.016631091
-0.09524046
-0.13089523
-0.099494606
-0.027122416
-0.025496125
-0.050435975
-0.009436093
-0.0013346539
-0.051865682
-0.08313125
-0.05715642
0.0061975964
0.07323551
0.13334942
0.09473949
-0.018968422
-0.045627248
-0.03253724
-0.040653624
-0.006036859
0.027484749
0.015898105
-0.0024378314
-0.023934321
-0.037383124
-0.0028808478
0.042473115
0.03589442
0.0017206086
-0.033816192
-0.07484335
-0.07372101
0.014337777
0.10814172
0.10331613
0.06358122
0.04886761
0.008578192
-0.02426169
-0.007203945
0.024002068
0.05351273
0.071070425
0.06237351
0.01940642
-0.045483816
-0.09025763
-0.087272055
-0.04903436
-0.028667523
-0.038083386
-0.028288614
0.013377118
0.04529354
0.016361186
-0.05600737
-0.09198785
-0.059983432
-0.020797739
-0.026269367
-0.0075202114
0.045972236
0.04485595
0.031158915
0.042048432
0.03797706
0.034938715
0.007171817
-0.038137894
-0.030450832
0.0017579631
0.018693978
0.015702887
-0.008832732
-0.01502299
0.0065339976
0.02552119
0.030274812
0.018026715
0.00339835
-0.0040834383
-0.013255316
-0.0050820634
0.019642975
0.023734469
0.027769735
0.050987136
0.03969978
-0.016497187
-0.054994013
-0.047969166
-0.035229303
-0.04113493
-0.03956338
-0.024027662
0.0022732767
0.041309197
0.054503657
0.018345391
-0.021360835
-0.017820746
-0.0028397306
-0.015417495
-0.024198836
-0.016024947
-0.0027369256
0.018019037
0.02487978
0.011212431
-0.0047347452
-0.006970261
0.0075301533
0.012609726
0.0110409595
0.021442607
0.032079652
0.044525396
0.054916825
0.037308756
-0.0039909207
-0.026768094
-0.022275114
-0.03073125
-0.04620995
-0.038052198
-0.013456547
0.014900378
0.018688088
-0.008152066
-0.023811184
-0.023225302
-0.02448749
-0.022097006
-0.013662229
-2.7200414E-4
0.016193787
0.019700088
0.0053294743
-0.007571396
-0.0120985275
-0.010704599
-0.0017782523
0.0046012206
0.010502602
0.025749957
0.042750824
0.046963133
0.02623
-0.0016136996
-0.014043854
-0.018055178
-0.015641775
-0.0139914965
-0.0141260065
-0.0039052234
-0.001121922
-0.0045421557
-0.0019605795
-0.012700851
-0.024506675
-0.018406408
-0.008686425
-1.8185077E-4
0.011677388
0.028220223
0.039070535
0.03467279
0.022566529
0.0047439104
-0.010962162
-0.014562149
-0.013241534
-0.0077006123
0.0015683408
0.010507865
0.018840646
0.019270264
0.011498442
0.0014142788
-0.008852568
-0.017234245
-0.02365159
-0.026907863
-0.024954975
-0.011412233
0.0053832727
0.0018944329
-0.013488358
-0.024872603
-0.032985255
-0.031031618
-0.022982264
-0.012885456
0.0035028332
0.018872226
0.030948447
0.034762323
0.023083553
0.007326181
-2.723025E-4
4.96052E-4
0.0026224386
0.005814191
0.015961772
0.030937256
0.04375389
0.042570785
0.025613295
0.0039675706
-0.016909182
-0.027728759
-0.024066448
-0.015056059
-0.0056816703
0.00372373
0.010474066
0.0057177558
-0.00925228
-0.021898529
-0.028571423
-0.025248855
-0.018606115
-0.019227264
-0.013332847
0.004612564
0.02125489
0.024006808
0.008712492
-0.01043026
-0.020806001
-0.020689398
-0.012648377
-0.004512172
0.0044175917
0.016991822
0.028014682
0.030717514
0.01917748
6.242428E-4
-0.009470948
-0.009205998
-0.008121739
-0.009510277
-0.004973141
0.010422057
0.026494566
0.026962994
0.010820962
-0.007653725
-0.018615142
-0.020570595
-0.018690819
-0.015105318
-0.0059355875
0.0070402757
0.021845445
0.02861124
0.015690891
-0.0024525297
-0.008336392
-0.006567837
-0.007999478
-0.0096824635
-0.0046774917
0.005264591
0.021474585
0.024374286
-0.0035954555
-0.026873637
-0.026962899
-0.023313858
-0.018223142
-0.011231752
-0.0029951301
0.00879531
0.020376733
0.025606243
0.016325338
9.891423E-5
-0.009100479
-0.010794338
-0.009406958
-0.009934157
-0.0066346703
0.006904787
0.022395078
0.027121479
0.015318305
7.506662E-4
-0.005232195
-0.008209397
-0.0075795623
-0.0020330253
0.003813727
0.0072284425
0.010458491
0.012089769
0.001852918
-0.012430393
-0.016982162
-0.017946634
-0.018940976
-0.017385436
-0.010219782
0.0047904016
0.020678252
0.02490149
0.011565343
-0.0058664926
-0.015713852
-0.0190762
-0.013968831
-0.0066670896
5.6613328E-5
0.011803776
0.022190742
0.02578735
0.018294303
0.00283805
-0.005543642
-0.0077746776
-0.009464592
-0.009642461
-0.0076440386
0.0029699537
0.018175142
0.021854445
0.00930402
-0.00831545
-0.01812489
-0.020165198
-0.018626176
-0.013897473
-0.0077307723
0.002618654
0.017246012
0.023456844
0.015226271
0.0011024388
-0.010525939
-0.013673473
-0.010500054
-0.009659097
-0.0060423645
0.006514986
0.018977828
0.022475487
0.013859305
-0.0026053062
-0.015140374
-0.018008694
-0.014333237
-0.007844647
4.3436012E-4
0.008915567
0.016643034
0.020868981
0.012984675
-0.0020576762
-0.009654953
-0.011987665
-0.013913389
-0.013179642
-0.009126261
0.001608523
0.015065097
0.019777471
0.01392906
6.60515E-4
-0.012001463
-0.013966576
-0.0110742645
-0.009585024
-0.004646633
0.002427331
0.010788018
0.018243542
0.012827675
-9.846843E-4
-0.0064808396
-0.005412017
-0.006028728
-0.005628092
-0.0010570261
0.0069842557
0.016298115
0.018256834
0.007880684
-0.0072856573
-0.018336842
-0.020406239
-0.01674535
-0.013174231
-0.006667831
0.0036726354
0.013772573
0.019974446
0.017170975
0.005365993
-0.006279104
-0.008430434
-0.0071184714
-0.008863018
-0.00490811
0.004759294
0.01527386
0.021534594
0.011950303
-0.004736433
-0.014252292
-0.017783009
-0.014740094
-0.0077735493
-5.3415983E-4
0.007906131
0.015282097
0.01880589
0.013296473
-7.5274374E-4
-0.011396713
-0.012334144
-0.008641617
-0.005332583
-0.0027355102
0.001559607
0.011787766
0.019201156
0.010468732
-0.004693052
-0.014401428
-0.017127978
-0.013180843
-0.009809918
-0.0052188807
0.0047607897
0.013719143
0.018839244
0.015659463
0.004999489
-0.0028999997
-0.0056088255
-0.005593406
-0.0060274703
-0.0057074353
9.3706604E-4
0.0116395615
0.016180879
0.007617702
-0.005528418
-0.01386818
-0.018625222
-0.01734928
-0.010858322
-0.003806093
0.004831022
0.013289128
0.017256815
0.012408686
0.0011983796
-0.005888273
-0.007493314
-0.0077269333
-0.005873774
-0.0022827256
0.0032451658
0.013237828
0.020214995
0.012719026
-0.0021118696
-0.011371193
-0.013719028
-0.011619987
-0.009411662
-0.0066842176
3.2547757E-4
0.009922193
0.018320158
0.016595678
0.0030459722
-0.009366712
-0.013213713
-0.01121671
-0.010502934
-0.0091272965
0.0023457976
0.016600536
0.021413544
0.015016105
0.0016060661
-0.009595549
-0.0155075835
-0.016265988
-0.0110677825
-0.004333489
0.0037267923
0.0118806185
0.014831688
0.012533112
0.0033011471
-0.008262247
-0.011818003
-0.010031094
-0.008639727
-0.0064576017
0.0016354418
0.015409757
0.021222044
0.014059546
0.0019916212
-0.010430295
-0.016945044
-0.016438344
-0.01299439
-0.0043486017
0.00556824
0.012798535
0.019893738
0.018600918
0.0047238725
-0.0068171616
-0.0088753905
-0.0104505485
-0.012352676
-0.0095234355
-0.0025423937
0.009771737
0.018859949
0.01285611
4.3979997E-4
-0.009815326
-0.01621797
-0.015296641
-0.011577568
-0.005000641
0.005333939
0.012920063
0.019110132
0.017595323
0.0027363554
-0.007188363
-0.0062936945
-0.0073574283
-0.0092219105
-0.0070611965
-7.4156094E-4
0.010973213
0.018353987
0.012810937
0.0022133563
-0.007804542
-0.014510503
-0.014359053
-0.012427678
-0.009063577
-4.621712E-4
0.009355433
0.016528009
0.017051002
0.008465989
-0.0028988773
-0.008843599
-0.009447764
-0.009273139
-0.00633243
5.153384E-4
0.009419085
0.017254166
0.013687532
6.7425077E-4
-0.010250735
-0.016604584
-0.01617784
-0.012201504
-0.007398666
0.0017962732
0.011039565
0.017382659
0.016817717
0.0065426207
-0.0031694467
-0.00747096
-0.00807826
-0.0075876876
-0.006910466
-3.531829E-4
0.010132788
0.018325195
0.017215552
0.003572569
-0.009002274
-0.013572244
-0.013987632
-0.010770561
-0.006049529
0.0024164387
0.01247438
0.016465638
0.012965024
0.0015228078
-0.009844608
-0.012490062
-0.010949267
-0.009697227
-0.0076191626
-0.0013130173
0.009549734
0.019697603
0.019443298
0.005295784
-0.008401687
-0.013307724
-0.01444005
-0.01184379
-0.007252864
-2.7891598E-4
0.009284886
0.014247001
0.013629697
0.0057002474
-0.006397297
-0.010095856
-0.008436322
-0.008703814
-0.0074397754
-3.6437457E-4
0.012573051
0.02164102
0.018191429
0.0053182854
-0.008606207
-0.015148926
-0.014451287
-0.011428045
-0.0057751774
0.0027525772
0.011888457
0.017910644
0.015435162
0.0037835499
-0.0076603154
-0.010292938
-0.008187
-0.0073271347
-0.0051790783
0.0016660049
0.010490552
0.018080771
0.018691001
0.002046146
-0.019656066
-0.026563792
-0.025638046
-0.01684329
5.710296E-5
0.0066626295
0.009489951
0.018390864
0.021761356
0.014525606
0.0014938479
-0.005307839
-0.008365076
-0.012252941
-0.007277812
-0.0065873037
-0.004438387
0.017192055
0.023143368
0.0043714303
-0.008048031
-0.014033726
-0.0159119
-0.0112090865
-0.006368292
-9.263372E-4
0.008051319
0.017986363
0.018507285
0.008822631
-2.1422988E-4
-0.006602305
-0.009802156
-0.008867376
-0.0065094116
-0.002121202
0.007920052
0.02014429
0.019982452
0.0062107304
-0.008768262
-0.017982408
-0.017919708
-0.014977722
-0.01118163
-0.0013800072
0.00816702
0.016321309
0.018401776
0.0064097694
-0.0057467227
-0.009577479
-0.010893342
-0.01096645
-0.008669735
-0.0020194456
0.008363214
0.019076223
0.021000346
0.008862128
-0.005608586
-0.013750506
-0.015639337
-0.012973559
-0.008012077
9.799728E-4
0.009284174
0.014112613
0.017256157
0.008774594
-0.007625006
-0.012192059
-0.00722167
-0.006548459
-0.007160559
-0.0012082299
0.010173697
0.021035407
0.021449955
0.008899117
-0.008394177
-0.020979416
-0.019756531
-0.011958961
-0.008981903
-0.0024516091
0.009212367
0.018224912
0.019845428
0.008379955
-0.006247593
-0.011494721
-0.011564693
-0.011800733
-0.011573504
-0.0051442436
0.008125036
0.01958346
0.021819426
0.0097568575
-0.009555596
-0.018729154
-0.016703771
-0.013460646
-0.0076425816
0.00225461
0.011389292
0.020167576
0.023410412
0.01356681
-0.0012761451
-0.010393211
-0.010529058
-0.008402964
-0.0114340605
-0.00965763
0.0034894836
0.018754728
0.023095919
0.009758547
-0.0072197663
-0.014895362
-0.017289782
-0.015322086
-0.010283105
-0.0041315816
0.005782819
0.01711494
0.022152228
0.012389527
-0.004860312
-0.011787902
-0.011511192
-0.013650984
-0.013140328
-0.0052291863
0.008868824
0.023386508
0.026135003
0.012102898
-0.0060078986
-0.015621037
-0.018352283
-0.015882438
-0.009002321
-0.0033556286
0.0052016755
0.019481461
0.024512192
0.012485681
-0.0043558804
-0.012917152
-0.013223086
-0.012163113
-0.009557323
-0.0041484535
0.006207836
0.023101695
0.028119016
0.012325165
-0.0062965355
-0.018797526
-0.022625515
-0.017375942
-0.011317469
-0.0040131737
0.0074593415
0.018156359
0.021493858
0.013263021
-0.001867193
-0.011763873
-0.011678948
-0.010978741
-0.011998076
-0.006268245
0.0064372066
0.021202212
0.025684394
0.012796519
-0.0035210054
-0.014336654
-0.01928916
-0.01686324
-0.009174576
3.893496E-6
0.0081732785
0.01825426
0.023603613
0.013564398
-0.0027339936
-0.01295916
-0.01298808
-0.010826756
-0.013323628
-0.008712372
0.004919296
0.019352518
0.024665866
0.013318847
-0.0028082544
-0.016347831
-0.01996433
-0.013480809
-0.017482372
-0.016133273
0.006382523
0.023349376
0.02580112
0.017814755
0.0023639821
-0.008545125
-0.011529083
-0.010230167
-0.010260439
-0.007994273
0.004368655
0.018235855
0.021251991
0.009980413
-0.0052107777
-0.013415896
-0.016611869
-0.015076537
-0.01032777
-0.003087311
0.00953831
0.020681584
0.02344877
0.014632518
-0.0013410018
-0.010585359
-0.01274023
-0.013449627
-0.011358255
-0.007599541
0.002239119
0.019598905
0.025537072
0.012063862
-0.004082087
-0.014490806
-0.019113624
-0.017197685
-0.012991767
-0.005459858
0.0058122356
0.016267434
0.022227036
0.015674232
-2.061243E-4
-0.011108587
-0.012887008
-0.010508553
-0.009613026
-0.0054531214
0.0071628876
0.020038895
0.02461293
0.015559569
-0.0027014823
-0.01705481
-0.023102913
-0.020276373
-0.012355747
-0.004239251
0.007843819
0.019810438
0.02249646
0.014711284
-7.554209E-5
-0.010921765
-0.011562141
-0.010279244
-0.010724851
-0.0074664177
0.0028864953
0.017861925
0.025530864
0.01743351
8.9119055E-4
-0.014427377
-0.021733109
-0.017997768
-0.0110537
-0.005830714
0.0030454784
0.015401381
0.022777872
0.018090881