0.0057054018
0.004016582
0.0028085136
0.002195202
0.0018017229
5.2590045E-4
-5.172107E-4
2.4781178E-4
8.6204946E-4
0.0022444522
0.0028416817
0.0014120786
0.0016979865
0.0028528324
0.0032264506
0.0017097216
-0.0013494213
-0.0022786527
-0.0038218556
-0.0062801763
-0.0048023816
-0.0024535605
-0.0017169536
-7.6347543E-4
-2.3788014E-4
-0.0011370268
-0.0029953606
-0.003176869
-0.0011318565
1.1107682E-5
-3.0650443E-4
-6.6108734E-4
-2.5868657E-4
0.0011046221
0.0015027064
2.9300189E-5
-0.0013180773
-0.0016468234
-3.2073777E-4
0.0022616454
0.0033776169
0.0032818893
0.002824243
0.0021014803
0.0017525458
-1.4587594E-4
-9.773874E-4
0.0015628277
0.0017641995
-1.14858456E-4
-4.2118612E-4
-6.5705666E-5
6.328262E-4
9.952069E-4
4.5133167E-4
-0.0016167326
-0.0030578587
-8.305909E-4
9.519434E-4
0.0010413429
0.0011493969
1.2243263E-4
6.237254E-4
0.0021507388
0.0016115464
3.4045352E-4
-0.001328785
-0.0020897046
-7.015273E-4
7.82329E-6
-0.0015184332
-0.002825788
-0.001406477
6.506588E-4
4.8374734E-4
-0.0012843007
-0.0025689427
-0.0019531883
-4.2088432E-4
0.0010946488
0.0019631225
0.0016001401
0.001473186
0.0011955906
4.8306578E-5
-0.001163603
-0.0020626376
-0.0017268474
-0.0012201858
-6.957479E-4
4.4383117E-4
7.17842E-4
0.0022223536
0.0040850756
0.0023775275
-8.9050496E-5
-0.0014859411
-0.0026507073
-0.0023601374
2.377182E-4
0.003446397
0.0029086117
7.6571084E-4
0.0012765952
7.414095E-4
-3.523347E-4
4.009062E-5
-0.0012427425
-0.0022863313
-0.0011320094
6.2826695E-4
0.0015961538
4.1046055E-4
4.074815E-4
0.0013621202
-9.19236E-4
-0.0025772622
-0.0016720657
-8.630164E-4
-5.035752E-4
-6.924948E-4
1.4615427E-4
3.9998023E-4
-4.5008163E-4
0.0016233977
0.0020685843
-7.871273E-4
-0.0011011241
-5.842271E-4
1.7244143E-4
0.0018242289
0.0013245115
0.0011092573
0.0018355276
1.21767545E-4
-0.0021243377
-0.0021000747
-7.099886E-4
3.915607E-4
0.001777064
0.003067463
0.0018617073
4.2029438E-4
2.6992045E-4
-0.0015481089
-0.003089868
-0.002912962
-0.0033708098
-0.0019530145
0.0015366528
0.0020731243
2.455075E-4
2.370189E-4
0.0021249647
0.0021545696
-7.1294664E-4
-0.0026792348
-0.0021528883
-4.569469E-4
0.0011063452
0.0014698391
0.0015645351
0.0018200136
0.0017753782
0.001348718
-6.8313704E-4
-0.0032407872
-0.003384936
-0.0012684272
3.4256716E-4
4.934603E-4
0.0010155876
0.0014760515
0.0014570274
0.0016850628
1.8592931E-4
-0.0017240919
-0.0013854873
1.3615678E-4
7.8010984E-4
-5.675269E-4
1.8085219E-4
0.0026904363
0.0015348938
6.62454E-4
1.3544109E-4
-0.0038030527
-0.004696634
-0.0011459951
0.0012842003
0.0014820973
0.0017561786
0.002964749
0.0017034586
-9.0348005E-4
-0.0020108207
-0.0027601777
-0.0015353081
-3.376836E-4
-2.3844089E-4
0.0019961055
0.0027031559
0.0023617668
0.0035402542
0.0023676232
7.76447E-4
-3.232765E-4
-0.0026584559
-0.0019725072
2.1063306E-4
-0.0012181888
-0.0027920443
-0.0013135584
-3.5493338E-4
-8.093742E-4
-7.1639696E-4
-0.0015924479
-0.002414041
-0.0016744414
-0.0016188517
-4.6902406E-4
0.0024599717
0.00332599
0.0020165443
2.170143E-4
-9.509977E-4
-7.903101E-4
-2.414703E-4
5.792768E-4
0.0015607666
0.0017548352
0.00158728
0.001894804
0.0022496022
0.0013471588
-8.219336E-4
-0.0017785368
-7.674933E-4
-2.7748756E-4
-3.5068594E-4
9.872991E-4
0.0028313228
0.002979985
8.9629483E-4
-0.0013310551
-0.0019036595
-0.002172355
-0.0025721358
-0.0018922848
-8.6861104E-4
-5.1373474E-5
0.0011062812
0.0015084136
6.397286E-4
-2.003006E-5
-8.4693596E-4
-0.0020404675
-0.0020020604
-8.108246E-4
0.0010446563
0.0014124012
-2.478148E-4
8.202661E-4
0.002718394
9.2860847E-4
-0.0010501407
-0.0020311105
-0.002842053
-0.0017969387
5.1981846E-5
9.193286E-4
7.2764546E-5
-9.174167E-4
4.551687E-4
0.0016386266
4.8322597E-4
-3.5113306E-4
-2.1758085E-4
-2.0795282E-4
8.380279E-4
0.002488542
0.003176015
0.002451379
1.5374746E-4
-3.8418442E-4
8.605006E-4
-7.521964E-4
-0.0018754969
-5.0045637E-5
0.0010317123
0.0016012206
0.0020248266
0.0023119852
0.0015739711
-0.0014289563
-0.0028379345
-0.0032472352
-0.004336732
-0.0026412187
-3.0484778E-4
5.446198E-4
0.0014336371
0.0019428792
0.0020279554
4.7486075E-4
-0.0016888096
-0.0021681618
-0.0023121957
-7.407883E-4
0.0013964061
3.27683E-4
1.6339615E-4
0.0020499968
0.0019400127
0.0014594424
8.9770864E-4
-0.0016233573
-0.0033126578
-0.002611361
-6.544171E-4
0.0017165978
0.002521548
0.0013384619
5.3985545E-4
0.0010524312
0.0011882794
-3.2599352E-4
-0.0024831682
-0.0029000705
-8.254398E-4
0.0011627997
0.0020230215
0.0027488063
0.002021926
6.123736E-4
2.3447443E-4
-7.4492896E-4
-0.0020050511
-0.0018948233
7.231495E-5
0.002325498
0.0021223554
0.0014779177
0.0020279654
6.59493E-4
-0.001828523
-0.0021668084
-0.0021871289
-0.0029444697
-0.0012861283
0.0011247902
4.126517E-4
-4.615205E-4
7.7506754E-4
0.001046043
-6.106817E-4
-0.002374337
-0.0026299886
-9.104628E-4
-2.983643E-4
-0.0011190177
6.03424E-4
0.0016980825
5.2913785E-4
0.0015192705
0.0011636781
-0.0017279442
-0.0026252565
-0.0019180337
-1.3273292E-4
9.780216E-4
0.0012483418
0.00279692
0.0028025908
0.0015214679
0.0014520987
9.896299E-4
-2.7022616E-4
1.8932762E-4
0.0013275958
5.215035E-4
0.0020887563
0.0036870374
0.0014019647
0.001361696
-1.5933755E-4
-0.0024571475
-0.0013125886
-0.0026559434
-5.688194E-4
0.0012799234
-0.0015282062
-0.00201892
-0.011259328
-0.014227218
0.0021421646
0.005988678
-3.0575736E-4
-5.0761236E-4
-0.0013276031
0.0013593964
0.0025055087
2.6461447E-4
0.0024094435
0.002956278
0.0019287233
9.3126495E-4
-2.448484E-4
0.0016538544
0.0025841726
0.0014505577
8.148067E-4
0.002248422
0.0041638524
0.0022527843
8.320103E-4
9.505887E-4
-9.281075E-4
-0.0024083038
-0.0034523488
-0.0028580425
-1.4929255E-4
-1.828348E-5
-0.0014864512
-9.885982E-4
-8.6895004E-4
-0.003534605
-0.0040371567
-0.0014153774
-0.0015221792
-9.000189E-4
0.0021672677
0.001959663
7.8330893E-4
0.0011205459
9.092502E-4
-6.408281E-5
-7.9592253E-4
-2.3413487E-4
8.852905E-4
0.002266697
0.002601583
0.0015871646
0.0020181686
0.0011586307
-9.473941E-4
-6.111341E-4
-3.3291577E-5
7.3887093E-4
4.4493787E-5
-0.0015271324
9.538385E-4
9.10289E-4
-0.0015732037
5.294623E-4
7.4509217E-4
-0.0016184823
-0.0025925462
-0.0041102176
-0.0027354886
9.7468944E-4
0.0020229106
0.0013957937
7.496854E-4
2.4594596E-4
-6.9715077E-4
-0.0014097537
-8.957212E-4
-1.8784933E-4
8.941596E-4
0.0013905918
7.338956E-4
0.0012543717
0.0011932218
-2.608573E-4
3.6208256E-4
8.534627E-4
-9.4775256E-5
7.5948605E-4
0.0014151738
0.0017141895
0.0027609563
0.0012960992
3.0377373E-4
0.0015850726
8.638154E-4
-2.86772E-4
-0.0011914698
-0.003866886
-0.004339643
-0.0012227756
1.0264535E-4
-2.4523984E-5
0.0010577004
-0.0016020039
-0.0047421213
-0.0016532699
-4.3124033E-4
-0.0023135652
-0.0010130275
7.974844E-5
9.300548E-4
0.002560359
0.0020779995
8.519226E-4
-2.480995E-5
-6.360534E-4
-0.0013930651
-0.0021510678
-0.0010269177
5.9360836E-4
0.0017646507
0.003033063
0.0029315003
0.0023319402
0.0019436383
-1.0664318E-4
-0.0022312058
-0.0016843756
1.3097549E-4
0.0013218743
0.0019518518
0.002427663
0.002132441
6.7905354E-4
2.9020023E-4
3.6129713E-4
-0.0016438509
-0.002123449
7.076038E-4
0.0023949796
0.0022131677
0.0028106822
0.0024255016
-3.8970666E-4
-0.0014935791
-0.002434618
-0.005839697
-0.00522723
-0.002337581
-0.0017355025
2.950072E-4
5.143008E-4
-9.952426E-4
9.803437E-4
6.840696E-4
-0.0027688341
-0.0030724434
-0.0021668854
-0.0027417084
-0.002109507
2.670055E-4
0.0015321033
0.0021069404
0.0029623674
0.0021959937
0.0012712709
0.0016024137
0.0010138466
-2.03102E-4
7.888101E-5
0.0021136738
0.0040035234
0.004132589
0.0032237552
0.0015281866
-0.0011113891
-0.0030980448
-0.003566801
-0.0026735114
-9.103465E-4
7.582169E-5
7.307268E-4
0.0018513816
0.0012014261
-6.105628E-4
-0.0014246842
-0.00244414
-0.0029474103
-0.0010452145
0.0012156598
0.0023089754
0.003223737
0.0035859777
0.0035961675
0.0033179135
0.001186979
-5.257961E-4
-0.0010414019
-0.0027185662
-0.0037330233
-0.0041369274
-0.0034437391
-1.3488338E-4
0.0010526819
-3.1114405E-4
-0.0014861656
-0.0019758567
-0.0015430293
-0.0028408545
-0.0023131461
0.0014843948
0.0017769464
0.0012873892
0.002612705
0.0020725967
-5.957126E-4
-0.003505964
-0.0029580093
-5.4969605E-5
0.0022489429
0.0037680056
0.0029842956
0.0019775787
0.0021916034
0.0030519564
0.0025106033
-0.0014231151
-0.0017022833
2.9992877E-4
-0.002569609
-0.0041321963
-0.0023173788
-8.38673E-4
-2.235343E-4
-6.3705863E-4
-0.0015049055
-0.0027966169
-0.0011671053
0.0021292327
0.0032720156
0.0061177164
0.007817997
0.00471354
0.0014109219
7.726937E-5
2.7165902E-4
-3.5339687E-4
-0.0020220268
-0.002941682
-0.0024662716
-1.18057804E-4
0.0017941847
0.0022126068
1.2660149E-4
-0.0014835778
4.9904827E-4
-0.0014666516
-0.003917708
-0.0019869749
-0.001976352
-7.679457E-4
-6.374438E-4
-0.001998765
9.0973626E-4
-3.9589213E-4
-0.0038211693
-0.004880003
-0.0057975906
9.48551E-4
0.008378878
0.009101907
0.008299101
0.0033854747
-4.3541222E-4
0.0012469725
1.3259708E-4
-0.0045267395
-0.007370142
-0.0050567286
-2.9080478E-4
0.0019640366
0.0017174371
2.0086503E-5
-3.725606E-5
0.0015877984
7.460883E-4
-0.0014970412
-0.0023319547
-4.225864E-4
0.0021584195
0.0025277848
0.0031604168
0.003429765
8.92945E-4
-0.0015813095
-0.0027007952
-0.003335102
-0.0031331673
-0.0018216226
3.0029457E-4
0.002384361
0.0036251012
0.0035994395
0.0024386097
-5.196237E-4
-0.0042779
-0.004921887
-0.0032716666
-0.0024710419
-0.0013806736
0.0018590766
0.006576262
0.008028821
0.0046798657
0.002224508
0.002783932
0.0030280058
6.83701E-4
-9.6498855E-4
9.209494E-5
-0.0011747682
-0.0024780922
-6.0433836E-4
-8.260879E-4
-0.0028404417
-0.004589336
-0.0045131487
-0.0027967033
-0.0016096313
0.0016283331
-0.0035679252
-0.014416929
-0.0057678637
0.007762103
0.007125619
0.005988385
0.0034993542
-0.0019898764
-0.0038196114
-0.004628901
-0.004278147
-0.0036036496
-0.00273868
-0.0012763967
-0.0014483564
-1.4811447E-4
0.0018070508
0.002400194
0.003892082
0.0067235287
0.009040023
0.008805892
0.009662436
0.009451148
0.0043885545
9.056005E-5
-0.006501667
-0.012377351
-0.007690831
-7.971912E-4
0.0023879877
0.004554115
0.006639622
0.008238146
0.0072924914
0.0059273727
-2.0497813E-4
-0.009883773
-0.009198662
-0.00547213
-0.008052406
-0.00823575
-0.0068983035
-0.007241832
-0.0061810147
-0.0054453583
-0.00505387
-0.0038438258
-0.002651079
4.6740484E-4
0.0036509598
0.005034376
0.008038431
0.008046506
0.0037743566
0.003442228
0.0037493303
0.001054117
-7.3458126E-4
1.281909E-4
0.0045450344
0.00588404
0.0019107818
0.0013703584
0.004974612
0.0074541657
0.005921789
0.0030705906
8.4861217E-4
-0.0025972673
-0.0031680732
-0.0036223407
-0.0069807335
-0.0056401836
-0.0039687287
-0.0067621074
-0.00875678
-0.008768309
-0.0049647153
1.5202476E-4
6.4995995E-4
-0.0011060487
-0.0016747675
-0.0016668265
-0.0032241265
-0.005173306
-0.0035543954
-4.376471E-4
2.2638339E-4
0.002379458
0.008473983
0.013190203
0.015704783
0.014988013
0.010181694
0.009634725
0.010439673
0.006675494
0.004320549
0.0024774794
0.0019737699
0.0024163183
-0.005289607
-0.01563771
-0.01904709
-0.015986618
-0.0113665955
-0.010120191
-0.008283617
-0.004876759
-0.0028353375
0.0010454636
0.0039582294
0.0025999842
4.4513863E-4
-0.0026075847
-0.0074672285
-0.009585331
-0.0056201364
3.6234755E-4
0.005531381
0.010238043
0.01180935
0.011364882
0.0107417535
0.009517156
0.01052871
0.011077024
0.007846524
0.0054624425
0.0029118827
-0.004427053
-0.011312631
-0.011655311
-0.012014135
-0.018143829
-0.02163796
-0.018701566
-0.014648438
-0.009232139
-0.002643512
0.0037103058
0.009133196
0.0106850425
0.011962453
0.014279184
0.011229997
0.0050264606
0.0023190458
0.0030104343
9.873196E-4
-0.0049011414
-0.008201217
-0.010616455
-0.012605518
-0.010350533
-0.0071358182
0.003075137
0.019571507
0.02565227
0.022465562
0.01842335
0.014546469
0.010981981
0.004210327
-0.002469681
-0.006559227
-0.013390302
-0.016244546
-0.009208561
-0.0048133046
-0.007099963
-0.0028921815
0.004790473
0.0055738185
0.0065703513
0.0065398556
0.0012032301
-0.0016197404
-0.0043135183
-0.0073070824
-0.00726014
-0.010550945
-0.018060697
-0.027842049
-0.037077133
-0.043291595
-0.04516265
-0.03396994
-0.018339794
-0.009917626
2.1135168E-4
0.0106430445
0.018399162
0.02580671
0.030408558
0.034969013
0.035957526
0.03874094
0.052165803
0.062228948
0.0665241
0.06785076
0.056838274
0.030845158
-0.003515219
-0.017579589
0.0037341143
0.02984485
0.030567722
0.005634865
-0.009132713
0.0018120159
-0.008233045
-0.0546881
-0.09627343
-0.11591358
-0.12374729
-0.1254929
-0.12141565
-0.0995001
-0.06768948
-0.04627038
-0.0039840504
0.051634744
0.07131352
0.08067249
0.0693659
0.009071695
-0.03974426
-0.044511937
-0.016455388
0.024064098
0.07627074
0.14893837
0.18839508
0.19098338
0.1457258
0.015951483
-0.07828643
-0.096752115
-0.11794745
-0.12553878
-0.13440636
-0.13755737
-0.082270116
-0.01771361
0.0068613673
0.028999155
0.08834141
0.102943085
0.03314412
-0.004416069
-0.030584427
-0.09992347
-0.13192081
-0.13409036
-0.11274387
-0.0091036735
0.11677675
0.14454132
0.075817116
0.014945477
-0.01833482
-0.04692828
-0.048006635
-0.022243062
0.047450654
0.10975133
0.08938142
0.07679548
0.07451065
-0.011548683
-0.10195965
-0.12011338
-0.07814212
0.032686267
0.17967488
0.26281428
0.22323461
0.14368238
0.07386559
-0.058727644
-0.15249471
-0.06656848
0.03726448
5.586282E-4
-0.08623152
-0.12809688
-0.15575907
-0.20325124
-0.22737561
-0.21270472
-0.1836679
-0.11523816
-0.03547849
-0.014647332
-0.02750816
-0.028576342
-0.023281744
-0.0130126085
0.028956035
0.09214791
0.124687366
0.13474748
0.1516998
0.1686371
0.16783863
0.12882297
0.08330448
0.0696563
0.07684315
0.08944931
0.068879984
0.008944816
-0.04558524
-0.080580495
-0.09174718
-0.08805989
-0.08243939
-0.07211582
-0.067526475
-0.058857497
-0.03418784
-0.0059376485
0.0153743345
0.025913715
0.02836179
0.016860431
0.009390096
0.018025903
0.019195706
0.026353568
0.03720023
0.040888283
0.057596907
0.073833674
0.08963033
0.09960848
0.10612194
0.09562567
-0.061527863
-0.28408423
-0.32707316
-0.24863046
-0.17017472
-0.08914304
-0.041230556
-0.014502853
0.00898953
0.015267192
0.02370509
0.028797036
0.028922956
0.03272848
0.031065868
0.03294973
0.03892622
0.04142659
0.045247395
0.050306637
0.057194468
0.067750126
0.07575163
0.07323002
0.065321356
0.05661837
0.04035637
0.021030143
0.008158091
0.003550124
0.002507154
-0.0019037838
-0.006397232
-0.009240425
-0.011707855
-0.010495145
-0.008325325
-0.007742772
-0.0072736465
-0.0032357771
0.006373044
0.014564775
0.019718058
0.024910782
0.027296167
0.02604759
0.020439895
0.008837066
-0.005051568
-0.016808124
-0.02605375
-0.03273107
-0.035908528
-0.037185777
-0.035547867
-0.028986748
-0.022157287
-0.017418617
-0.011873248
-0.0034733375
0.00762049
0.018190807
0.026575763
0.03200876
0.03187339
0.026424022
0.01635531
0.0022210332
-0.011908136
-0.024894485
-0.037190378
-0.047328874
-0.05685012
-0.06460913
-0.06678258
-0.06569155
-0.06385832
-0.05995973
-0.053414408
-0.043825883
-0.030767674
-0.0153649
-1.9139623E-4
0.013796572
0.027633736
0.03835135
0.04419865
0.0494874
0.054273628
0.059031546
0.06970221
0.08408168
0.09782974
0.11377466
0.13152026
0.14747721
0.15851524
0.15811048
0.13751112
0.08983659
0.019406026
-0.05182272
-0.101233624
-0.125284
-0.13074923
-0.12548164
-0.11708741
-0.10543431
-0.09277323
-0.080866404
-0.06484016
-0.054821644
-0.05537645
-0.055435747
-0.058150027
-0.06141319
-0.05806591
-0.053772915
-0.043941457
-0.02630347
-0.011018423
0.0015018252
0.013448896
0.02443955
0.037098736
0.047801062
0.048918203
0.043365907
0.036944
0.02968078
0.02475264
0.022947904
0.021996101
0.021026898
0.018000845
0.016995225
0.017639607
0.016929332
0.020032179
0.025435442
0.032763563
0.040583603
0.04275025
0.043195993
0.039996002
0.03357628
0.031458996
0.027330639
0.015466609
-9.1140444E-4
-0.013138117
-0.025634145
-0.04518884
-0.04841835
-0.038844816
-0.041120827
-0.042104483
-0.03833221
-0.03681541
-0.032335404
-0.027715582
-0.021428393
-0.016356785
-0.014900466
-0.010768545
-0.008684967
-0.0072501977
-0.0050389133
-0.0062226467
-0.0034076998
0.0019579881
0.0048108823
0.0079066735
0.008851181
0.008953996
0.011312127
0.01242253
0.010991594
0.009813028
0.00998977
0.009885497
0.009494658
0.010240678
0.012001527
0.0124836955
0.011337083
0.011713591
0.011354465
0.0090294415
0.010112113
0.011923681
0.009914248
0.00881422
0.009421147
0.0079464195
0.006912754
0.00641904
0.0033616337
0.0016059892
0.0019019765
0.0025957392
0.0058566374
0.0071486663
0.0052712895
0.0063101607
0.0071790344
0.0031606623
-7.897969E-4
4.0798826E-4
0.0036727593
0.006336179
0.008219722
0.0070107016
0.0060541015
0.0072430577
0.00692301
0.0058542485
0.0042404155
0.0038279546
0.0049394458
0.003611879
0.0034539166
0.00532482
0.0053926115
0.005110257
0.0046958746
0.003931509
0.0023758472
4.3223906E-4
9.3037274E-4
0.0019434734
0.0018886171
0.002824542
0.003831428
0.0025877526
0.0015880329
0.0023636478
8.4836775E-4
-6.608536E-4
-5.474075E-4
-0.0016048483
8.965033E-4
0.0041164
0.0033334838
0.003244558
0.0023200058
0.0012041591
0.0014538488
-3.7600785E-5
-7.926094E-4
-0.0010528318
-3.7326955E-4
0.0016115258
2.565937E-4
-6.496154E-4
4.3631849E-4
-6.652628E-4
-0.0020446551
-0.0019637665
-6.798462E-4
6.457765E-4
0.0018313203
0.003249558
0.0035538243
0.0036387532
0.002678437
8.24439E-4
-4.252199E-4
-0.0025388529
-0.0024351948
-4.8865867E-4
-9.539875E-4
-0.0012761923
-4.8177483E-4
3.4993776E-5
-7.008459E-4
-0.0022270842
-0.0024869693
-0.0036493377
-0.0043861186
-0.0027279665
-0.0016723871
-3.611372E-4
1.5807222E-5
-0.0014033117
-0.0024693394
-0.0043943687
-0.0041141184
-0.002302304
-0.0025808497
-2.3771894E-4
0.0024628458
0.0018844265
0.002128935
0.0030208214
0.004047711
0.002895989
-0.0020716179
-0.004030564
-0.0021047809
8.896073E-5
0.0026411843
0.0034732465
0.00208147
7.238316E-4
0.0011813516
0.002123075
3.8105043E-4
-0.0013435313
-0.0013371404
-0.0017764934
-0.001964335
-0.0018795771
-0.0013914817
-0.0010123557
-0.0022819755
-0.003612184
-0.0052609732
-0.0066138506
-0.005318856
-0.003796283
-0.0033435377
-0.002411584
-8.951985E-4
-5.661086E-4
-0.0025703227
-0.0042734635
-0.0047694976
-0.005506521
-0.005022209
-0.001983604
0.0014069933
0.0025163777
0.0039154436
0.0061507504
0.004229692
0.0010163367
6.076713E-4
6.663205E-5
3.6445892E-4
0.0020490491
0.0028315496
0.003911545
0.0038107205
0.0019472195
0.0014299141
4.0348558E-4
-0.0012651181
-0.0014953201
-0.003067877
-0.004044026
-0.0021121548
-0.0013274145
-9.0052286E-4
4.5263942E-4
1.6203779E-4
-0.0016690379
-0.0040686587
-0.005150472
-0.0041526463
-0.0031362476
-0.0024536112
-0.0015119935
-1.4842449E-4
8.3681155E-4
9.936009E-4
0.001244316
9.202956E-4
-3.9754703E-4
-0.001499134
-0.0010201759
-6.648112E-4
-0.0030266438
-0.0028973757
8.640323E-4
9.7483204E-4
-9.888678E-4
-0.0022763873
-0.004381238
-0.0039157136
-0.0011714626
2.0253788E-4
0.0011581756
0.0016138847
2.712802E-4
-0.0016365806
-0.0017475728
2.653927E-4
0.0010902053
-1.8269522E-4
-7.721945E-4
-0.0011483298
-0.0016522543
4.305813E-4
0.0032603447
0.0028799993
0.0013626707
0.0019654403
0.002765098
0.0023279267
0.0025060617
0.0022038692
4.960065E-4
-9.3338476E-4
-0.0028083553
-0.0044174725
-0.0045090183
-0.0046971967
-0.0051032607
-0.004923888
-0.0017964469
0.0017209457
-6.20215E-5
-0.0014313803
5.0125E-4
3.1698888E-4
-0.002594305
-0.006690169
-0.0065211346
-0.0015371535
0.0012468116
0.0028807085
0.0042076334
0.0035459772
0.0030564491
0.0035734933
0.0042469106
0.0017944793
-0.002476542
-0.0038248831
-0.0031535835
-0.0016518013
-0.0014353287
-0.0023495026
-0.0021162885
-0.0022331795
-0.001712917
-0.0020041224
-0.0032201495
-0.0011677331
5.2234245E-4
6.883885E-4
0.002020344
0.0027262578
0.002084751
6.291214E-4
-8.046098E-4
-0.002298368
-0.0026327563
-0.001362474
-1.644875E-4
0.0012989275
1.7376279E-4
3.387023E-5
0.0029052054
0.0014942145
6.852554E-4
-1.8089975E-4
-0.0016913975
-3.3426262E-4
-0.0118179405
-0.01951469
-0.00422231
0.0032836208
0.0018436912
0.0053690714
0.0024338446
-2.5094955E-4
4.5609355E-4
-0.0010745538
2.0533851E-4
0.0019641183
0.0022507464
0.0022518586
0.0020001866
0.002503579
0.0013726493
3.5213903E-5
2.2673208E-4
3.2686524E-4
9.4979565E-4
0.0014734705
0.0018807885
0.0028087988
0.0022600016
1.4025174E-4
-0.0015098199
-0.0030630317
-0.0043029035
-0.003243373
-0.0024597233
-0.0021263838
6.9237384E-4
0.0015229698
-0.0010582587
-0.0024435667
-0.0020944036
-0.0020288343
-0.0031811025
-0.0024930974
3.7545786E-4
0.0012490997
9.802157E-4
7.2511676E-4
1.09117995E-4
-6.250215E-4
-0.0020775364
-0.002496702
-0.0017783719
-9.054972E-4
5.4133654E-4
0.0013791673
0.001058339
-0.0013776742
-0.0020740733
0.0028284513
0.004503132
0.0014703058
8.6776697E-4
-1.8481094E-5
-1.5785695E-4
0.0029033548
0.0043032574
0.0035567011
0.0016077481
-5.4485976E-5
-3.3488087E-4
-0.0022080382
-0.0031751143
-0.001966639
-0.0011123325
1.6693919E-5
-7.073428E-4
-0.0021761865
-0.0013399968
-0.001655557
-0.0034902082
-0.0037573855
-0.0029457198
-0.0025178657
-0.001020311
0.0016247125
0.0027129885
0.003328581
0.0029903466
0.0010874452
0.0012456849
0.001276007
-2.9977097E-4
-7.531802E-4
2.7234532E-4
0.0026091384
0.00253175
1.6602002E-4
-5.591448E-4
-0.0012171321
-0.001548966
-0.0020019333
-0.002764868
-0.0016250343
-0.0018847173
-0.002842636
-9.6001686E-4
0.0014037756
3.4460062E-4
-0.004029157
-0.004277533
-0.0012991112
-0.0016548377
-9.802518E-4
7.5187365E-4
0.0010998006
0.0022080475
0.0022114955
0.0022229182
0.0020032146
-7.1720526E-5
-5.747555E-4
-0.0010808856
-0.00129086
0.0015404817
0.003390429
0.0036377707
0.003370927
0.0017332252
8.0741954E-4
-1.5237849E-4
-0.00205643
-0.0026085814
-0.0021897573
-8.6047937E-4
0.0011561064
9.64122E-4
5.687812E-4
0.0016081757
4.4191556E-4
-0.0016858722
-0.0034096083
-0.0049208766
-0.0032961182
-0.0019432411
-0.0022019146
-6.6271436E-4
-0.0012782948
-0.0026370508
-9.4565284E-4
-0.0017201825
-0.00486657
-0.005239748
-0.0027732423
1.1578281E-4
0.0013009718
0.0020286883
0.0038917542
0.004238786
0.0024942185
0.002157164
0.0010663267
-0.0023688837
-0.0013832371
0.0023344199
0.0038148998
0.0058567887
0.005964329
0.004571544
0.0042378595
5.6080177E-4
-0.0018631986
3.5409414E-4
7.2697457E-4
-3.6732497E-4
-6.278875E-4
-0.0010600957
-0.0014018768
-0.001259465
-9.5694966E-4
-0.0021383443
-0.004645254
-0.0057114554
-0.003784373
-0.0012698212
-1.1876538E-4
0.0012779101
0.0013724221
3.2612542E-4
-1.6202375E-4
-0.0024886306
-0.0035121236
-0.0031699326
-0.004483771
-0.0021272528
8.638484E-4
-7.3321855E-5
-2.0338326E-4
-6.8328845E-5
9.762039E-4
0.0029853354
5.317989E-4
-0.0018140039
8.5743616E-4
0.0030071002
0.0028965366
0.002992014
0.0022610964
0.0011573925
0.0018423552
0.0032612039
0.003326492
7.492657E-5
-0.0041094664
-0.0029873631
6.015453E-4
0.0015279683
0.0027774146
0.0041716853
0.0032423735
0.0014860254
-2.1412449E-4
-0.0014572038
-0.003173039
-0.005103818
-0.0042865444
-0.002017267
3.3985195E-4
0.0020540927
9.6776505E-4
8.251453E-4
0.0016855384
-3.8464026E-5
-6.839807E-4
-8.0082717E-4
-0.0011587408
9.264568E-4
0.0013825605
5.1449466E-4
1.4103435E-4
-0.0016975779
-0.0015479978
-8.583986E-4
-0.002412649
-0.002368122
-0.0012324908
9.524794E-5
0.0021301887
0.0028474387
0.0016855813
-0.0010558825
-0.0035169504
-0.004088252
-0.0030934007
-8.197448E-4
7.471945E-4
0.0010906174
0.0016136856
0.0023551125
0.0025638246
6.5232546E-4
-0.0017319599
-0.0017063312
-0.0013028347
-7.2832784E-4
0.0021251582
0.0041643037
0.0035844594
0.003305491
0.0029725789
0.0016440712
-1.7350912E-4
-0.0032342083
-0.003592237
-2.8315847E-4
3.4146258E-4
-1.4157174E-5
0.0015233925
0.0010623923
2.677963E-4
0.0013913242
7.4497494E-4
-0.0016919312
-0.0016310893
4.0985274E-4
5.615402E-4
5.1007495E-4
0.0017042155
3.735848E-4
-0.0014955028
-5.253493E-4
-6.2859105E-4
-0.0017666232
-0.0011148686
-0.001377868
-0.0022695118
-0.0018919758
-0.0018805118
-5.569652E-4
0.00209542
0.0017535604
-7.514161E-4
-0.0020196072
-0.0014750565
-5.9107516E-4
1.5859504E-4
0.0016135591
0.0019520953
0.001668037
0.002478772
0.0018166485
1.5201258E-4
-0.0011399925
-0.0019401222
-8.505463E-4
-2.9051283E-4
-1.7624776E-4
0.0013583231
0.0013382137
8.7137736E-4
0.0014327114
4.3312268E-4
-0.0011252296
-0.0011592647
3.5162456E-4
9.140692E-4
-6.7023217E-4
-2.3999215E-4
0.0020324187
0.0022050617
0.0012827985
0.0011778526
0.0016289789
7.074355E-4
-6.131703E-4
4.6680876E-4
3.8519505E-4
-0.0010611422
6.276732E-5
2.7105384E-4
-0.0011213423
-0.0012776383
-0.0020310136
-0.0030914203
-0.003626586
-0.0036442627
-0.0013831954
0.0012266536
0.001029462
-2.4628156E-5
0.0012256538
0.0019430243
-3.3605273E-4
-0.0012427634
-6.19535E-5
9.023736E-4
0.0014197945
6.238103E-4
0.0014075805
0.004241993
0.004951674
0.003680873
0.0011296448
-8.004257E-4
-0.0010107004
-0.0016466352
-6.646841E-4
8.20353E-4
-3.953391E-6
-7.063279E-4
-0.002073346
-0.0027518987
-0.0018103623
-0.0035730058
-0.0043048365
-0.0017042094
-9.801984E-4
-0.0011300878
-3.6476507E-5
3.784344E-4
3.7762913E-4
0.0014013564
0.00183596
9.6184964E-4
8.3295046E-4
0.0014621562
0.003421659
0.005032404
0.0035328057
0.002789591
0.0023978783
6.6128344E-4
3.2439732E-4
-0.0012410334
-0.0033004112
-0.003378601
-0.0032382784
-0.0010129142
0.0020351892
0.0027428577
0.0013903362
-4.39992E-5
1.2691243E-5
-0.0020482754
-0.004166129
-0.0028175232
-0.001972968
1.5238998E-4
0.0028155174
0.0017586653
1.6556619E-4
-2.996793E-4
-5.9721683E-4
-0.0011529068
-5.008902E-4
3.6807143E-4
5.6525134E-4
0.0029940328
0.0016517073
1.6781119E-4
9.872499E-4
-0.0109412465
-0.015789762
-8.8811306E-5
0.005763182
0.004022741
0.007062683
0.0049606888
0.0029224316
0.0031199846
0.0021660605
0.0012830849
-0.0019320556
-0.0031591346
-0.0014451516
-7.629259E-4
8.635191E-5
7.8988314E-4
0.00152861
0.002066407
0.0012808022
-4.4866366E-4
-0.0017238474
-5.0413806E-4
-4.895179E-4
-0.0022526083
-9.693768E-4
7.563063E-4
4.471063E-4
-5.495785E-4
-0.0010292669
-4.3614945E-4
-0.0011950965
-0.0017589034
-1.6335172E-5
0.001020013
0.0011355402
7.2138786E-4
3.4064281E-4
0.0014291236
0.0014760405
5.7342876E-4
-3.6772797E-4
-0.0020554247
-0.0013750999
-5.4742235E-5
-6.832719E-4
6.920269E-4
0.0022734888
0.001176059
-6.02696E-4
-0.002112253
-9.834524E-4
5.305234E-4
-4.8539377E-4
3.2291466E-6
3.5205003E-4
-4.0487718E-4
0.0010127373
0.0015112022
0.0012453211
0.0011018204