0.101509914
0.091272146
0.08563857
0.068845354
0.047635596
0.017208392
-0.009092765
-0.021526257
-0.03888883
-0.04497687
-0.040975824
-0.042638656
-0.041325737
-0.042793937
-0.018594636
0.029813819
0.040323813
0.028514298
0.03262632
0.043739155
0.056337
0.06777029
0.08045921
0.09003062
0.09217191
0.09625262
0.09757819
0.08745176
0.06767159
0.043283038
0.011373597
-0.016250672
-0.021866059
-0.034219228
-0.06445821
-0.09275945
-0.11523329
-0.12322649
-0.13138679
-0.1444398
-0.15881035
-0.18345474
-0.1883222
-0.19827923
-0.23581149
-0.28124854
-0.35476005
-0.3233944
-0.11468387
0.065274954
0.15335411
0.21152496
0.22947551
0.23189193
0.21824859
0.19274566
0.17150158
0.1343095
0.104034126
0.08144988
0.05337385
0.036216013
0.024627645
0.045914024
0.11777726
0.18544649
0.19456011
0.14730825
0.0886168
0.03181001
-0.025947861
-0.06399469
-0.07960362
-0.08477079
-0.098204516
-0.11575658
-0.10760585
-0.08721743
-0.06683059
-0.03426312
-0.017617539
-0.019450821
0.0062570036
0.041831624
0.043628123
0.030851671
0.022377532
0.014372828
0.013379237
0.019477211
0.028779801
0.039022088
0.052757654
0.071746215
0.09711351
0.14198188
0.19356105
0.23230995
0.22046155
0.08525189
-0.103879765
-0.20311429
-0.22765099
-0.23412645
-0.22945812
-0.22399625
-0.21263099
-0.20163554
-0.20297451
-0.20677997
-0.20537633
-0.19635358
-0.17497882
-0.13151681
-0.08128882
-0.050598748
-0.032543324
-0.01677709
0.009374279
0.04935048
0.08794041
0.13310657
0.17993131
0.21330056
0.23488529
0.23331037
0.21396294
0.18784223
0.15177296
0.11498034
0.078611806
0.043075517
0.011869972
-0.019447677
-0.043896925
-0.055829983
-0.05500357
-0.046134494
-0.027519433
0.0045085293
0.026079424
0.04949261
0.10175487
0.14299415
0.15492113
0.15979818
0.15251213
0.12941414
0.10067154
0.06877336
0.033232607
1.830821E-4
-0.028348148
-0.055358294
-0.078684226
-0.10183794
-0.1261594
-0.1505937
-0.17141387
-0.17864315
-0.17632692
-0.17412739
-0.18770988
-0.21816073
-0.25030318
-0.29141393
-0.3358916
-0.3955347
-0.43357575
-0.3103064
-0.08352442
0.06572792
0.15724193
0.23115078
0.26504582
0.2775272
0.27378076
0.26170453
0.24642125
0.21652246
0.17739852
0.13769904
0.1133266
0.104963295
0.09754662
0.08850551
0.07745138
0.06417968
0.03808501
0.004043472
-0.014611887
-0.015834115
-0.0039738365
-0.0027314478
-0.024868164
-0.03247602
-0.014919943
0.003679712
0.013936131
0.023432659
0.039475877
0.04599466
0.054201454
0.08874263
0.1157405
0.12543401
0.1389995
0.14060259
0.13729185
0.13673726
0.13590276
0.13519548
0.047899064
-0.13789235
-0.27540603
-0.3315682
-0.35530403
-0.3426467
-0.3148529
-0.28273925
-0.24370427
-0.20273595
-0.15266645
-0.11158441
-0.07732438
-0.04128903
-0.02048704
-0.004548384
0.007926606
0.01788658
0.033293374
0.044807218
0.07444655
0.12132705
0.15135744
0.16614822
0.17124954
0.17330831
0.17398004
0.16556458
0.15636183
0.13457234
0.091534115
0.049096707
0.013669458
-0.018418724
-0.04739653
-0.073742904
-0.08991338
-0.09745973
-0.105063505
-0.101049155
-0.077461205
-0.05841773
-0.051560894
-0.04075378
-0.030507123
-0.025408939
-0.021593006
-0.022313775
-0.021996249
-0.017873844
-0.018007064
-0.015506151
-0.00318107
0.011767604
0.029484116
0.054251257
0.08352112
0.11459489
0.1476618
0.18370086
0.21733026
0.24258924
0.25879416
0.25857168
0.23125833
0.18139125
0.12559454
0.07134806
0.02089759
-0.02633849
-0.07394441
-0.110953994
-0.14088984
-0.17624408
-0.2052468
-0.23081021
-0.2549978
-0.27262703
-0.2950184
-0.31482965
-0.34066525
-0.37909994
-0.41575518
-0.47222728
-0.4943563
-0.4110476
-0.30536506
-0.23380546
-0.158086
-0.06181054
0.06814629
0.20022495
0.27467322
0.30893016
0.33990973
0.36317214
0.39367583
0.45886198
0.5039109
0.47786015
0.46007833
0.47959223
0.45661986
0.42129365
0.42986056
0.41037872
0.33220038
0.2666726
0.23777471
0.19489819
0.12944938
0.08925002
0.06529351
0.035247844
-0.028773548
-0.21870477
-0.4712043
-0.61532015
-0.6620955
-0.6640909
-0.6219424
-0.5654315
-0.4997511
-0.4316861
-0.37316108
-0.32118633
-0.280295
-0.23858842
-0.19886918
-0.1608979
-0.10631696
-0.04673591
0.011276807
0.06875727
0.12227778
0.17326352
0.21709275
0.25663316
0.2869026
0.30658597
0.3213269
0.320198
0.3054723
0.277047
0.23594137
0.19313277
0.13738246
0.07612875
0.025913011
-0.013375234
-0.036523145
-0.053450227
-0.064701706
-0.061688628
-0.053499017
-0.03990652
-0.025851656
-0.02055647
-0.019208413
-0.02208991
-0.027405934
-0.030759105
-0.035231426
-0.049947
-0.06960137
-0.079425074
-0.08296435
-0.074245274
-0.05221827
-0.022901332
0.026779922
0.074097574
0.111906044
0.16386758
0.2052357
0.22981812
0.2467631
0.24520579
0.22723669
0.1907415
0.15137267
0.11173638
0.056261674
6.38626E-4
-0.053648096
-0.10441703
-0.14804786
-0.18977903
-0.21947819
-0.24336945
-0.25366813
-0.25510925
-0.26913685
-0.283742
-0.31602818
-0.364789
-0.4152369
-0.4899816
-0.54402006
-0.49183804
-0.3393679
-0.20975953
-0.11938757
0.03302643
0.15584654
0.20064774
0.26823494
0.30023012
0.2915984
0.3246774
0.3623914
0.38956153
0.4142045
0.4280796
0.44567803
0.4542888
0.43267313
0.39602703
0.36105624
0.32716295
0.32940677
0.33670396
0.26641467
0.1882613
0.16661629
0.17356747
0.19069906
0.16707805
0.06669103
-0.15430374
-0.4387534
-0.5979431
-0.64344317
-0.65500695
-0.6173059
-0.5704
-0.5190088
-0.46040666
-0.41609612
-0.3661504
-0.32190797
-0.28264645
-0.23766781
-0.19658855
-0.14797415
-0.09515745
-0.0361531
0.03284778
0.09984847
0.16834559
0.23634559
0.2998035
0.35211048
0.38632685
0.40502658
0.40422505
0.3888236
0.35992858
0.31545871
0.2617781
0.20035407
0.14381827
0.09141818
0.035144925
-0.013435886
-0.05587777
-0.09155715
-0.11581381
-0.13391447
-0.1410025
-0.13513924
-0.12305956
-0.11003761
-0.09881167
-0.08982527
-0.08722489
-0.0861196
-0.06966553
-0.044271667
-0.034321453
-0.034921546
-0.036305793
-0.046490163
-0.06320252
-0.08392602
-0.097233675
-0.09471682
-0.09270684
-0.08207817
-0.050634053
-0.016232813
0.012863105
0.044594914
0.0809298
0.10921378
0.1344661
0.16611539
0.1864306
0.19452363
0.19194835
0.17813493
0.16895333
0.15313017
0.12802458
0.09952738
0.059635494
0.024355788
-0.012660301
-0.05763466
-0.09187115
-0.12435168
-0.15097894
-0.1666327
-0.18183887
-0.1968349
-0.21787877
-0.23820686
-0.26386413
-0.29477915
-0.32157993
-0.36438864
-0.33472347
-0.15919475
0.018890051
0.10728545
0.15564877
0.17860962
0.17828105
0.1611137
0.13289769
0.12637328
0.1399071
0.13833053
0.13335864
0.14343564
0.15132822
0.16088562
0.17289692
0.16977848
0.15820104
0.14703526
0.13980392
0.12690756
0.10582954
0.09544724
0.081088126
0.05877211
0.045411713
0.039832816
0.048906773
0.06816085
0.10108782
0.1375577
0.1642966
0.19502385
0.123735234
-0.0850774
-0.24683703
-0.31531626
-0.35486162
-0.35738438
-0.34819221
-0.3349853
-0.31172127
-0.2980273
-0.28043264
-0.26054862
-0.24576595
-0.22560653
-0.20168157
-0.1694509
-0.12628715
-0.07769475
-0.028707122
0.021340461
0.07506522
0.12002678
0.15559922
0.19079284
0.21925901
0.2402939
0.2543313
0.25145116
0.23098621
0.20257302
0.1695718
0.13553637
0.10532956
0.0734284
0.04390714
0.025975803
0.01352127
0.005828214
0.0058600553
0.00975535
0.017381495
0.031464186
0.051290743
0.0694623
0.08463162
0.0987887
0.10768844
0.11176556
0.105854005
0.085529
0.056505818
0.019105108
-0.019310549
-0.051879916
-0.08204942
-0.10504813
-0.121918485
-0.14014386
-0.1574491
-0.1748885
-0.19458592
-0.20878929
-0.21534775
-0.22114927
-0.22962084
-0.23826922
-0.23153922
-0.20856014
-0.19189398
-0.16587046
-0.1066164
-0.031949397
0.04772145
0.1234402
0.1766158
0.20416607
0.20548421
0.1947456
0.19113973
0.19342308
0.19637547
0.19209257
0.17983772
0.16861269
0.16179344
0.16260177
0.17185111
0.17761172
0.16233951
0.13687162
0.11563222
0.080949
0.04092877
0.005294109
-0.0346197
-0.05320531
-0.06476455
-0.104692645
-0.14847043
-0.1928245
-0.24581411
-0.27741197
-0.2807745
-0.27567244
-0.26676992
-0.24223217
-0.20229535
-0.16166048
-0.12228934
-0.079856895
-0.0354629
0.005364275
0.038119726
0.06693378
0.09798985
0.13215593
0.16547649
0.20001705
0.23580602
0.26565146
0.29503453
0.3274729
0.35635015
0.36925137
0.35528633
0.31779087
0.22038938
0.035315227
-0.1520032
-0.26530617
-0.32455686
-0.35414213
-0.36002076
-0.35151276
-0.3326588
-0.3018248
-0.2650603
-0.23165672
-0.1985457
-0.1665674
-0.13958438
-0.11462133
-0.09101085
-0.06290869
-0.025855647
0.01699518
0.060320374
0.0973232
0.12879059
0.1569689
0.18333864
0.20691925
0.2190857
0.22152993
0.22429205
0.22859886
0.22626081
0.2145007
0.1970991
0.16852973
0.13387896
0.1020389
0.066771865
0.033120837
0.0050025303
-0.018523294
-0.034974027
-0.0518261
-0.06688848
-0.078778505
-0.092197165
-0.10725248
-0.1318597
-0.15944602
-0.18304302
-0.20670888
-0.2293642
-0.2590202
-0.2932986
-0.33346602
-0.3570661
-0.305684
-0.21968062
-0.14892851
-0.047940996
0.060727064
0.13425699
0.1992407
0.24673824
0.26393712
0.27092165
0.267123
0.24904034
0.22474639
0.20169093
0.18632986
0.17639054
0.16185534
0.14177655
0.11816776
0.08847123
0.061133273
0.033063307
-0.0042089266
-0.034335803
-0.05764292
-0.080721185
-0.096478246
-0.11508775
-0.13183968
-0.13834722
-0.14614414
-0.15092643
-0.15314893
-0.15195583
-0.13678224
-0.12053201
-0.10675059
-0.08950751
-0.07491482
-0.060734127
-0.048260946
-0.038146455
-0.024621364
-0.008988947
0.011509349
0.036886245
0.059632286
0.07623233
0.092158586
0.117752366
0.1467904
0.1642175
0.17048258
0.1773702
0.18879898
0.19711874
0.20232011
0.20487186
0.20398496
0.20269293
0.18676037
0.14360082
0.062476102
-0.055629417
-0.15357667
-0.19836918
-0.21859176
-0.22644208
-0.22232787
-0.20753735
-0.1885597
-0.18371432
-0.18454336
-0.17711522
-0.16584283
-0.14938049
-0.13085967
-0.117663324
-0.10250967
-0.07828054
-0.054088384
-0.03410775
-0.011758943
0.010879726
0.035765555
0.066143796
0.09099238
0.10474254
0.11228643
0.11734463
0.11569296
0.10358241
0.08828303
0.07045808
0.05103937
0.04364904
0.044818223
0.037952
0.023864873
0.011911567
0.009758966
0.019963402
0.031966954
0.040975716
0.053669553
0.0716972
0.090844974
0.0993509
0.09931745
0.104705684
0.10238341
0.08545389
0.065191984
0.038476598
0.010656102
-0.013458494
-0.039297175
-0.06424202
-0.09186475
-0.118881725
-0.137912
-0.15466791
-0.16893622
-0.17886677
-0.18131739
-0.17669246
-0.17689894
-0.18189603
-0.18656515
-0.19330072
-0.20431325
-0.20232771
-0.15692443
-0.08150556
-0.009101479
0.055309504
0.11115076
0.16435553
0.21281248
0.2417381
0.258698
0.27055454
0.27424785
0.27321675
0.26861364
0.26080155
0.25025317
0.23487654
0.2069742
0.16846257
0.12799452
0.07515127
0.016253047
-0.037860822
-0.101811476
-0.1585841
-0.19466546
-0.2354126
-0.27971476
-0.31052703
-0.31968936
-0.30988425
-0.29780182
-0.27525574
-0.228146
-0.16740236
-0.10452611
-0.048975617
0.0041129505
0.06224332
0.11030729
0.14860366
0.18128583
0.20106356
0.22256655
0.24699757
0.26620048
0.28655335
0.298667
0.31188968
0.33228442
0.34092826
0.34356087
0.28004268
0.08202209
-0.14357743
-0.27719003
-0.33810017
-0.3682746
-0.3768481
-0.36670575
-0.34942988
-0.33589813
-0.3205084
-0.29697326
-0.262742
-0.21646006
-0.1684829
-0.13336845
-0.1033473
-0.06588707
-0.03389746
-0.009477188
0.019196993
0.0597084
0.11932132
0.17190008
0.1984941
0.21803695
0.23084047
0.24100485
0.2544214
0.2516663
0.23814091
0.22958282
0.22158884
0.21171506
0.20022698
0.18453717
0.16054246
0.1345195
0.11092608
0.079830736
0.048036594
0.021504752
-0.011239092
-0.046296027
-0.07877521
-0.11078153
-0.1393864
-0.1712517
-0.20845193
-0.2428806
-0.2722638
-0.2963659
-0.32067353
-0.34324422
-0.36061028
-0.38434365
-0.3988622
-0.39036423
-0.37374404
-0.31687683
-0.19544728
-0.055242203
0.076990545
0.19169497
0.26357853
0.3029688
0.33729035
0.36090937
0.36292985
0.35476565
0.34461305
0.33383036
0.32707876
0.31712905
0.29836726
0.27227357
0.23402452
0.18669856
0.13244785
0.070544995
0.010900856
-0.04289856
-0.08821798
-0.122497045
-0.15424618
-0.18038125
-0.1917552
-0.19115578
-0.18089332
-0.16370529
-0.14451776
-0.119613215
-0.08679193
-0.059025645
-0.043839555
-0.037761677
-0.04371328
-0.06156827
-0.087543935
-0.11738254
-0.14839365
-0.17919236
-0.19266179
-0.19029394
-0.18339851
-0.15533903
-0.11344239
-0.06632389
-0.006116365
0.048172045
0.09653446
0.1426807
0.17610902
0.20820317
0.23555632
0.25313297
0.26518053
0.2704803
0.27153713
0.25432065
0.23129132
0.21981461
0.1948045
0.16511208
0.14676628
0.13031687
0.117582776
0.10548048
0.08701376
0.004627245
-0.18877183
-0.39329708
-0.50674576
-0.53882104
-0.5137396
-0.45463458
-0.37434995
-0.263657
-0.15527067
-0.07395902
1.8708149E-4
0.047283445
0.077536196
0.13439031
0.1658199
0.15742311
0.15450518
0.13222468
0.10322273
0.08146504
0.032529175
0.0080721965
0.049426537
0.11890503
0.18934643
0.23109849
0.2290144
0.20031236
0.15570539
0.096683614
0.025166338
-0.04849076
-0.10905059
-0.14117754
-0.14410229
-0.13639843
-0.119834594
-0.08861948
-0.05244614
-0.015744243
0.015618459
0.026479041
0.024310187
0.022803286
5.015871E-4
-0.044783264
-0.08004043
-0.11043066
-0.152216
-0.18986733
-0.19902655
-0.15651761
-0.06967511
0.017399525
0.06549214
0.07638861
0.07834407
0.0717342
0.05670345
0.052939717
0.05082259
0.04157926
0.032531694
0.019803222
0.008198417
-2.6401467E-4
-0.0081197675
-0.0037091973
0.002641466
-0.010248039
-0.028005745
-0.03521397
-0.03657526
-0.031142715
-0.021121498
-0.0067085023
0.02020356
0.055448845
0.08672566
0.09764781
0.090474375
0.08755908
0.097555235
0.12033327
0.11956407
0.0711753
0.036941588
0.029973501
0.011382755
0.018886786
0.06472346
0.094688356
0.09941346
0.09148139
0.043128185
-0.056420617
-0.15617813
-0.21045522
-0.20743637
-0.16440564
-0.1322944
-0.13500334
-0.15292236
-0.147863
-0.09990443
-0.044300355
-0.0065890546
0.012619758
0.00995884
2.001891E-4
-0.011484382
-0.032171603
-0.062627956
-0.086268686
-0.0798268
-0.057965342
-0.033141628
-0.0062105013
0.015177465
0.039390054
0.055285014
0.06898809
0.106503084
0.13575973
0.13613927
0.1272333
0.108191326
0.08138136
0.06977932
0.070964724
0.053259682
0.021708379
0.006872844
0.011460364
0.018983487
0.02198403
0.040481534
0.065770365
0.07079478
0.07034698
0.06602795
0.06796255
0.0866253
0.08708909
0.07579164
0.06654403
0.04903306
0.029871503
-0.0017434728
-0.028893908
-0.033853978
-0.050356444
-0.07157142
-0.07077485
-0.07337031
-0.108637735
-0.15449236
-0.17970131
-0.19381697
-0.20751218
-0.22143906
-0.23283483
-0.2372941
-0.23599175
-0.20478153
-0.14228685
-0.08263648
-0.039315764
-0.01654747
0.015194558
0.07594828
0.12986426
0.17196022
0.21549176
0.25439057
0.28286585
0.28986496
0.2748264
0.24009863
0.19571745
0.16226764
0.13942969
0.12398321
0.11054402
0.08727892
0.056769785
0.021218022
-0.022093862
-0.071389526
-0.12309712
-0.17317237
-0.20992619
-0.2233698
-0.22265469
-0.21777119
-0.21210176
-0.19984995
-0.17142305
-0.13500263
-0.09269449
-0.046438277
-0.006140124
0.037083145
0.08201091
0.11487736
0.1344551
0.14761692
0.15920967
0.16332456
0.1627919
0.16068263
0.15691675
0.16325854
0.1791115
0.19832198
0.21302205
0.2291198
0.22998017
0.12968196
-0.04970687
-0.18601418
-0.27055332
-0.32229018
-0.32869127
-0.316584
-0.30422068
-0.28770977
-0.26479948
-0.24040493
-0.21309534
-0.1846836
-0.16788258
-0.13477318
-0.08313452
-0.056649517
-0.049298823
-0.042713504
-0.01742231
0.043371066
0.10273235
0.123360984
0.11208359
0.11905175
0.16770801
0.21214074
0.23343115
0.24102157
0.23309298
0.21748872
0.20078151
0.18686643
0.17152046
0.16122955
0.16415836
0.15788467
0.14523438
0.13450396
0.11225511
0.08972702
0.06232446
0.020321663
-0.0067412895
-0.012276564
-0.030610159
-0.07404521
-0.117784105
-0.15497065
-0.1951414
-0.23172872
-0.26678446
-0.29475152
-0.30252525
-0.30448654
-0.31004894
-0.31975317
-0.32862532
-0.30344686
-0.23359206
-0.15560672
-0.08561697
-0.004044676
0.08230191
0.1456344
0.19059393
0.22688933
0.2426017
0.2393517
0.23129179
0.22341008
0.21845719
0.21168624
0.19738224
0.1867513
0.17792732
0.15629196
0.12671827
0.09095641
0.047922663
0.004608591
-0.041613743
-0.08994116
-0.13333094
-0.16531637
-0.18222843
-0.18927139
-0.18863241
-0.18003412
-0.1616867
-0.13369116
-0.10232425
-0.0680821
-0.033000622
0.003917482
0.04483765
0.08060885
0.10718035
0.12557083
0.13966054
0.14536105
0.13633493
0.12963742
0.13030745
0.13022363
0.13222466
0.14214297
0.15804148
0.15853675
0.14942068
0.120632336
0.024102509
-0.09247288
-0.16226603
-0.1931111
-0.19189276
-0.17526661
-0.16468717
-0.16430436
-0.1597284
-0.14522278
-0.14044735
-0.13374452
-0.13381746
-0.116128094
-0.029473852
0.01985201
-0.011583401
-0.03159943
-0.035822567
-0.030316288
-0.024710804
-0.010669528
0.04138935
0.07662989
0.105266556
0.13020393
0.093864225
0.06109019
0.046165954
0.008138415
-0.0022762052
0.016930263
0.030171337
0.036877193
0.047025934
0.064157695
0.07211522
0.0751366
0.07769753
0.07697498
0.08474089
0.092854
0.09529295
0.093515575
0.08631117
0.06757755
0.017724387
-0.0324858
-0.04385179
-0.041269045
-0.034436867
-0.020924473
-0.024545614
-0.04181117
-0.059306674
-0.07688318
-0.07989676
-0.07180823
-0.07542445
-0.08290666
-0.0801079
-0.07264922
-0.06441954
-0.05398408
-0.041164055
-0.03068
-0.024906289
-0.02316956
-0.027971769
-0.03446301
-0.039284457
-0.046969485
-0.055166043
-0.05754258
-0.053595617
-0.051267948
-0.056876287
-0.066194534
-0.07482594
-0.08725265
-0.10202799
-0.09744342
-0.058598105
0.0024068118
0.061156824
0.0985164
0.11919786
0.14016584
0.16857319
0.19442719
0.2007783
0.1960762
0.18991575
0.17868617
0.1721917
0.16441484
0.14841025
0.13608935
0.11940712
0.09533515
0.06933067
0.03476205
0.0011454107
-0.025865862
-0.053083695
-0.07345496
-0.08843684
-0.10856614
-0.12744235
-0.14206022
-0.165834
-0.1941182
-0.20575163
-0.1997843
-0.1828516
-0.15662396
-0.13287152
-0.116120145
-0.09779759
-0.07834797
-0.06114052
-0.04706446
-0.037442226
-0.027664058
-0.017568795
-0.0071512316
0.005980733
0.015313554
0.02960814
0.054727055
0.071740426
0.07977392
0.08504241
0.08469567
0.079480454
0.06667271
0.05845562
0.06247002
0.068373695
0.07621566
0.0765954
0.063895024
0.050262675
0.043057594
0.053608987
0.07454437
0.0858974
0.0904813
0.08812164
0.0752259
0.05886905
0.046827298
0.043067165
0.042370208
0.041585833
0.03946307
0.02862896
0.008077612
-0.014239802
-0.033026632
-0.0555441
-0.08193605
-0.09893484
-0.109707594
-0.12305182
-0.1362549
-0.14602123
-0.15326196
-0.16242188
-0.17422229
-0.19229808
-0.21111369
-0.20168914
-0.16338387
-0.12537496
-0.08924364
-0.046615236
-0.00516415
0.034342103
0.07788518
0.11684708
0.141122
0.1565634
0.16343626
0.16089088
0.16519615
0.17726772
0.18075018
0.17616792
0.17330012
0.173414
0.16674012
0.14789373
0.1282806
0.111791946
0.092101626
0.069989406
0.044920962
0.017405296
-0.009488628
-0.035960883
-0.059102517
-0.07971485
-0.09912873
-0.10825342
-0.10393139
-0.097602084
-0.09901217
-0.10315237
-0.102017045
-0.100100376
-0.10277147
-0.1053978
-0.10154494
-0.092139155
-0.08119779
-0.06979686
-0.061094444
-0.055437475
-0.048088755
-0.04007951
-0.034288738
-0.029783992
-0.025437038
-0.019015012
-0.0072582355
0.0052982136
0.011274071
0.016748432
0.025572067
0.03109215
0.033635825
0.034790862
0.03869046
0.050401457
0.063261196
0.07520112
0.08615189
0.091577195
0.0952152
0.098217756
0.09700301
0.092199296
0.08868589
0.09055904
0.08855794
0.07243605
0.048248455
0.028428355
0.015110084
-3.731322E-4
-0.017702628
-0.03182784
-0.044726975
-0.05163296
-0.051343653
-0.053909656
-0.060678456
-0.071483836
-0.09582353
-0.13028975
-0.15504184
-0.16512261
-0.16702041
-0.15710822
-0.13656151
-0.114469975
-0.09367937
-0.073955305
-0.054010294
-0.03336218
-0.012936966
0.0072530936
0.028370375
0.0521018
0.069548935
0.07469413
0.07937696
0.07998898
0.06518539
0.05187554
0.0545578
0.07194483
0.10454471
0.13921082
0.1624768
0.17436475
0.16722775
0.14126003
0.108998366
0.07277843
0.035836767
0.0028037154
-0.027294863
-0.0515466
-0.07146109
-0.09129106
-0.108739555
-0.12473422
-0.13953218
-0.14786342
-0.15128618
-0.15514119
-0.15697764
-0.15187995
-0.1391185
-0.12047059
-0.097866565
-0.07046137
-0.037262663
-0.004121166
0.01734243
0.02453731
0.03297186
0.052979235
0.079728834
0.116307706
0.16185671
0.19461015
0.20208158
0.19641231
0.18672255
0.16657665
0.13662466
0.10707104
0.083305426
0.06545166
0.043970965
0.017563341
-0.0019129013
-0.018332416
-0.035560284
-0.05170407
-0.06976131
-0.07846241
-0.074836224
-0.07193168
-0.07034976
-0.06915268
-0.06851307
-0.06855216
-0.071891874
-0.07173784
-0.06598565
-0.05856246
-0.04669656
-0.03239061
-0.022983875
-0.020383656
-0.01724588
-0.010842515
-0.008692111
-0.008221819
-0.004242523
0.0017414457
0.012756578
0.025976298
0.032579888
0.03347169
0.03406936
0.033875447
0.030487448
0.02629803
0.023728816
0.023569187
0.027264288
0.032122765
0.033913575
0.034262385
0.037119742
0.039061617
0.03517834
0.030291026
0.029338736
0.03313772
0.041042905
0.047352612
0.04715184
0.039375283
0.027786156
0.018513525
0.010795891
0.0025088482
-0.0072239777
-0.0155076
-0.015961627
-0.016055144
-0.021777503
-0.027349595
-0.03445268
-0.039959155
-0.048085738
-0.078256644
-0.11117737
-0.11561089
-0.10423733
-0.08906152
-0.0698198
-0.054976925
-0.04090961
-0.024977043
-0.012053346
-4.119752E-4
0.004750511
0.0041317698
0.007089471
0.009978274
0.009495944
0.0076300083
0.007174023
0.010029327
0.008179195
9.4619946E-4
-0.0035627095
-0.0052463254
-0.0033709053
-6.437618E-5
-0.002820895
-0.011086363
-0.020099308
-0.027383547
-0.03414267
-0.043542944
-0.049347483
-0.03667566
-2.218841E-4
0.04837731
0.09429587
0.13079268
0.15409286
0.16084205
0.15482056
0.14153011
0.122537896
0.10331676
0.08558497
0.064480275
0.041256636
0.017140822
-0.007618224
-0.03133391
-0.05774967
-0.08542447
-0.108132236
-0.12681158
-0.1433503
-0.15658663
-0.16625823
-0.1718583
-0.16770439
-0.15223962
-0.13409865
-0.11479986
-0.0898963
-0.059140004
-0.023774927
0.009693973
0.037632935
0.064522356
0.09001612
0.10935837
0.12130611
0.12759618
0.12854151
0.12465278
0.119162396
0.11406874
0.10810113
0.09650033
0.08099342
0.06862715
0.054501556
0.034469564
0.015604032
0.002736967
-0.00409906
-0.006993914
-0.006710193
-0.0062089856
-0.01119826
-0.017950304
-0.02215138
-0.028222924
-0.036784776
-0.043052956
-0.045685716
-0.04729053
-0.049928345
-0.05305593
-0.054885466
-0.056791954
-0.06260155
-0.07030637
-0.07464488
-0.07371248
-0.066392645
-0.054369047
-0.043602657
-0.036249597
-0.028749589
-0.018402517
-0.005772411
0.0065137926
0.016524035
0.027334694
0.041188233
0.053893715
0.0645996
0.074460246
0.0773909
0.07190193
0.0657554
0.061083823
0.056342084
0.055315804
0.057780065
0.05771088
0.05407207
0.045789253
0.029482706
0.011527743
-0.0011897632
-0.011658871
-0.018936148
-0.019198705
-0.01439243
-0.009020299
-0.004380909
0.004412545
0.011666043
0.009606327
0.006724616
0.0030123647
-0.0012215176
3.0618475E-4
5.13058E-4
0.0019713803
0.0013717813
-0.0077712834
-0.009786573
-0.013265953
-0.022419332
-0.021562919
-0.027521512
-0.036174394
-0.03087852
-0.032684263
-0.045405466
-0.05793842
-0.06858939
-0.07394963
-0.07215125
-0.06034699
-0.04777006
-0.041449845
-0.031367246
-0.01036331
0.02300616
0.053801518
0.068742424
0.07274873
0.064820714
0.052694563
0.04742745
0.043323047
0.036361836
0.024703367
0.009372181
-0.0063697463
-0.022485977
-0.034422066
-0.03992821
-0.042399414
-0.04342479
-0.035756703
-0.014868052
0.0066783503
0.022262726
0.03523794
0.041288897
0.034975022
0.022480505
0.01908605
0.024619022
0.033191167
0.049154736
0.06579079
0.08179132
0.10536973
0.12631622
0.12724012
0.109649725
0.09312918
0.07538584
0.049662277
0.023391178
-0.037259243
-0.13029301
-0.18413477
-0.1985728
-0.20848075
-0.20836113
-0.20719442
-0.2020614
-0.17444387
-0.1395646
-0.11606815
-0.09985597
-0.08053039
-0.058270413