0.002335787
0.00107478
5.981279E-4
-3.875365E-4
-1.7192643E-4
-2.754253E-4
3.211544E-4
6.574309E-4
-0.0010242098
-3.5445974E-4
0.0010803082
9.862605E-4
4.3818832E-4
-2.0740571E-4
9.3465997E-4
0.0018255576
0.0019251856
0.0020832838
-4.1177186E-6
-8.475675E-4
5.748688E-4
-4.6855124E-4
-0.0023712153
-0.0014878579
6.002577E-4
0.0011519784
4.9585203E-4
-6.000641E-4
-0.0011623224
-1.1081641E-4
0.0011159416
0.0013657307
2.8018784E-4
4.9159666E-5
0.0013378169
4.428022E-5
-0.0011593876
-6.57686E-4
-0.0015218308
-4.59637E-4
4.158339E-5
-0.0024133495
-0.00212962
-0.001216872
-0.0016044781
-0.0012211727
-9.1217796E-4
2.7719614E-4
9.291395E-4
3.9497402E-4
0.0015449711
0.0025055488
0.001184331
-2.9239556E-4
-1.9686166E-4
-1.0520552E-4
-3.1339354E-4
0.001077701
0.0017738296
0.0017743398
0.0031911128
0.0024544965
6.2907755E-5
-0.0017335486
-0.0034830056
-0.0024807048
-5.865943E-4
3.4969687E-4
0.0018769337
4.3715397E-4
-0.0011728731
-1.3115937E-4
-0.0013627093
-0.0014655351
1.9739008E-4
-1.0012138E-5
3.8102522E-4
-0.0015699134
-0.0031751778
7.4620394E-4
0.0020276443
-1.8918027E-4
-5.207812E-4
1.5853546E-5
-3.1048974E-5
-9.241838E-4
7.6661474E-4
0.002756264
0.001154906
8.125653E-4
-7.46712E-6
-0.00190499
-5.6440925E-4
7.5643964E-4
0.0016699772
0.0024265852
0.0016487417
8.069616E-4
-0.001067861
-0.001848417
-7.205017E-6
5.1636837E-4
-5.1031663E-4
-2.4365081E-4
0.0010144262
0.0011407721
0.0013012876
5.7302753E-4
-0.0013048445
2.7611965E-4
5.212117E-4
-0.0021623026
-0.0013860995
-0.0012056552
-0.002223675
-9.66118E-4
1.3694844E-4
-4.675813E-4
-0.0028833963
-0.0016615656
0.002096074
0.0011887796
1.0228134E-4
-2.5277492E-4
-8.9726935E-4
7.613122E-4
5.082768E-4
-3.9293224E-4
-2.535122E-4
-0.0013455935
-2.0639124E-4
0.0013839433
3.5882753E-4
4.1922653E-5
0.0013062559
0.0020530447
0.0013680261
0.001013053
0.0011944
6.653954E-4
-5.055649E-4
-0.0017899609
-5.356697E-4
0.0013879495
6.23959E-4
3.5120058E-4
4.225236E-4
-8.4326835E-4
-0.0010285698
-3.177235E-4
-2.4060048E-4
4.4332446E-5
0.0010802492
0.0010297339
1.6104299E-4
-5.186007E-4
-0.0012358265
6.957107E-4
0.0014899848
-0.002051213
-0.0024082065
-0.001033959
-0.0017754979
-8.961867E-4
-1.598701E-4
-5.510397E-4
-8.0715126E-4
-3.8817714E-4
0.0013777461
7.888179E-4
-0.0010715711
-8.276312E-4
5.2414685E-5
0.0014292496
0.001096157
-7.44883E-4
-4.657945E-4
4.3808445E-4
0.0019491331
0.0032099818
0.0011430405
-9.552986E-4
-6.5385475E-4
3.481553E-4
9.511767E-4
0.0012113801
0.0022994392
0.0021653126
-4.6228294E-4
-0.0011794167
-1.3354277E-4
-0.0013418046
-0.0021754175
-8.282922E-4
-7.616077E-4
-7.1151374E-4
1.5144511E-4
-0.0012107702
-0.0016246912
-3.2905555E-5
-3.000462E-4
-7.6125626E-4
-0.0010138417
-0.0013134169
1.635239E-4
4.9678824E-4
-1.05084604E-4
6.0679065E-4
6.9891365E-4
1.02844824E-4
-8.083024E-4
-5.4677116E-4
0.0010103213
9.3315315E-4
0.0010905025
7.6839887E-4
-8.971551E-4
6.1749696E-4
0.0020903582
5.683317E-4
-3.5835642E-4
1.1861009E-5
0.0012571238
0.001175216
-4.632451E-4
-0.0016200353
-0.0027003249
-8.7225693E-4
0.0024007326
0.0027617393
0.0024081627
0.0014259093
4.96094E-4
4.1535775E-5
-0.0012862768
-5.272427E-4
-2.3901479E-4
-0.0020064628
-0.0017693209
-0.0014718903
-0.0013252994
-4.2352665E-4
-4.7193645E-4
4.1336595E-4
7.262776E-4
-0.0014078222
-7.090148E-4
0.0022991525
0.0010555206
-7.469162E-4
4.5316244E-4
-2.980849E-4
-0.001471377
-0.0014446494
-0.0019176194
-0.0012788099
-0.0022231466
-0.0018726013
0.0021486701
0.0016171889
-1.4649359E-4
2.7588225E-4
-6.8670604E-4
0.0014942549
0.0035163348
9.790823E-4
3.8103395E-4
0.002347904
0.0025893378
4.3911432E-4
2.7702423E-4
0.0014663936
-0.0010100079
-5.539911E-4
0.0025046368
3.5424903E-4
-6.7932357E-4
1.5689286E-4
-2.9094666E-4
0.0014837611
0.0013183303
0.0010538107
0.0033721132
4.7562545E-4
-0.0010705605
-2.7762094E-4
-0.010325245
-0.015143115
-0.0028091087
0.0028781744
-3.727212E-4
8.6866063E-4
-1.272144E-4
-0.0013761258
0.0014464959
0.0019720185
0.0018400396
6.1860745E-4
3.8870206E-5
0.0027612841
0.0022522202
0.0024651212
0.0031619554
0.0021664652
0.0049062273
-0.0022599748
-0.011626882
-0.0021798012
0.005131944
0.003078665
0.0037836437
0.0019320637
0.0012064675
0.0018804993
-9.745316E-4
-0.0016646641
-8.42599E-4
7.900178E-5
7.6210644E-4
-4.360179E-4
-0.0011255128
-0.0013679216
-0.0013120852
-0.0016241411
-0.0020366502
-5.5989134E-4
1.3510871E-4
-3.3274604E-4
-0.0013269543
-0.0022028668
-6.765318E-4
1.4576412E-4
-6.7169167E-4
-9.4543415E-4
-0.0013806906
-0.001235491
-4.841538E-4
-4.804184E-4
-8.616356E-4
-6.5248855E-4
-6.765933E-4
-0.0013870533
-4.8796297E-4
0.0016534057
0.0030030888
0.0034194735
0.003718671
0.004239617
0.0030645218
0.0024874485
0.003924359
0.003221554
0.0017924089
0.0010884296
0.0015378492
0.0025936249
-8.176635E-4
-0.0047051297
-0.0053483094
-0.005258524
-0.0031910765
-0.0019227117
-0.0011511074
9.769449E-4
6.3892105E-4
1.3575338E-4
-8.989452E-4
-0.0031883307
-0.0020861519
-0.0019905327
-0.0035037778
-0.001398537
3.904183E-4
2.012168E-4
2.9489856E-5
4.9665954E-4
0.0023684076
0.0031686248
0.0031962325
0.00314293
8.71825E-4
1.6057589E-4
0.0016071042
3.7512626E-4
-0.0013033431
-9.975096E-4
-4.622558E-4
-6.868822E-5
-1.33687845E-5
1.9991292E-4
9.4007736E-4
0.0012401049
8.619798E-4
-1.652864E-4
-0.0012375824
-0.0013315564
-0.0010167807
-0.0014885177
-0.0012592435
8.0320874E-4
0.0017433264
0.0011616872
-1.4419764E-5
-0.0021268548
-6.1700883E-4
0.0028625985
0.0017088319
8.2098297E-4
7.115674E-4
-0.0026860428
-0.0017601218
0.0025577908
0.0020206599
5.59213E-4
7.081145E-5
-5.3596054E-4
8.3992566E-4
1.7661724E-4
-0.0019311631
-3.3759707E-4
6.5571343E-4
-6.7890785E-4
-0.001298665
-0.0013494593
-2.2579632E-4
3.0700755E-4
-3.7848478E-4
-1.2419764E-4
-2.0450176E-5
3.7172457E-4
-1.2788751E-4
-0.0026110641
-0.003044599
-0.002498986
-0.0021787866
-3.8705723E-4
1.6862413E-4
1.6434204E-4
0.0016639435
0.0033183773
0.004520517
0.0034873593
0.0014271119
8.556293E-4
7.429727E-5
-3.7494308E-4
-1.0203546E-4
-1.5362111E-5
5.7443074E-4
6.2591245E-4
0.0011180604
0.0020455199
5.711313E-4
-5.950244E-4
-9.003974E-4
-0.0027278585
-0.0035834848
-0.0025972081
-3.3327128E-4
0.0014245064
4.5224495E-4
-4.3514493E-4
-0.0017901676
-0.0035626134
-0.0025693004
-0.00158794
3.8451244E-4
0.0037962506
0.0035749439
0.0018056236
8.236647E-4
4.8821679E-4
0.0012229368
8.9740544E-4
-4.1054716E-4
-9.0273505E-4
9.8262E-4
0.0023050897
4.927204E-4
7.339561E-4
0.0021182192
0.00167778
2.132891E-4
-0.0030666199
-0.0042713997
-0.0035789628
-0.0024448175
-2.2271414E-4
-0.0010418413
-0.0011570203
-5.643484E-4
-0.0024434153
-3.5990198E-4
0.00234919
0.0023481315
0.0022418078
0.0014816632
0.0027427666
0.0033644754
0.002047978
0.0012430229
-3.2762616E-4
-0.0011283401
-0.002501957
-0.0023789606
6.588641E-4
0.0018228404
0.00303895
0.0024205965
5.66895E-4
-5.626554E-4
-0.0022168588
0.0013057721
-0.0038343067
-0.016164178
-0.007593025
0.004100844
0.0018854724
0.0020972728
0.001396281
-0.001159489
7.5865287E-4
0.0020405476
0.0018027842
0.0011377896
0.0016492403
0.0028760391
0.0024351906
0.0015623517
3.0203024E-4
6.110004E-4
0.0016936932
6.4768887E-4
-2.6189836E-4
-8.2221476E-4
-3.0077872E-4
7.3740626E-4
-8.050814E-5
3.9500283E-4
6.6978525E-4
-0.0024301214
-0.0046868594
-0.00446099
-0.0034989517
-0.0013532577
0.00116396
0.0014523582
3.9986012E-4
7.139878E-4
0.0016095684
0.0012950024
5.964927E-4
0.0011270298
9.6204004E-4
-5.990718E-4
-3.476102E-4
2.9489724E-4
1.0597006E-4
9.2166435E-4
0.0018312361
0.0020354334
-1.445795E-4
-0.0015326042
0.0010221726
8.8822836E-4
-6.0266914E-4
-3.465902E-4
-4.1313787E-4
0.0026435575
0.0028555936
-0.001786475
-0.0014753289
-3.2514337E-5
-4.151757E-4
-3.3538078E-4
-0.0024081548
-0.0031180235
-0.0015793043
-0.0010160605
-3.0186336E-4
0.0010608725
0.0017135165
-4.2586896E-4
-0.0013477079
2.8812853E-4
-0.0018249772
-0.0036497056
-0.0011111506
0.0018201724
0.0033274628
0.0013063372
-0.0012892543
-9.840217E-4
-3.034471E-4
6.712854E-4
0.0010425203
0.0011845038
0.00263706
0.0023084425
0.0014383369
0.00143747
-5.38125E-4
-0.0020968583
-2.8386337E-4
0.0024571526
0.001388984
-0.0028237859
-0.003015919
5.2307016E-5
0.0015197007
0.0026660184
0.002020033
5.7400594E-5
-2.688893E-4
-0.001138604
-6.7010405E-4
0.0010305869
8.520936E-4
0.0012806591
2.2456235E-4
-0.0017718719
-0.001313306
-0.0015186623
-0.0011830806
-9.2024E-4
-0.001995715
-0.0023352464
-0.0045164116
-0.0042193565
-4.612498E-4
0.0011197557
0.0037588167
0.0051169973
0.0031891405
0.0015626026
-5.9224106E-4
-1.4843726E-4
0.0010732162
-7.3583284E-4
-0.0013460886
-2.9434398E-4
0.0011802264
0.0020186522
0.0025272963
0.0034100492
0.0015589519
-6.80057E-4
-0.0010272872
-0.0012341507
-0.0025936149
-0.0043573505
-0.0019788393
-7.292207E-4
-0.003939017
-0.0041390285
-0.0031144437
-0.0011427416
0.0014464968
7.1016705E-4
0.0022496828
0.003111395
-2.2905009E-4
-7.863657E-4
-2.0380632E-4
-7.372979E-4
-6.581649E-4
1.7927127E-4
0.0013033695
0.0019507095
0.0042567477
0.005412003
0.0039374903
0.0030296335
7.5110824E-5
-0.0017351446
-1.7047151E-4
-1.2824923E-4
-1.13942784E-4
-3.7986544E-4
-4.128051E-4
0.0015130509
0.0015119876
7.208384E-4
-9.326343E-4
-0.0041452562
-0.0026434911
0.0012793964
-8.9463734E-5
-0.004208321
-0.0044854674
-0.002082956
-0.0015993955
-0.0014033854
-4.541734E-6
7.880374E-4
0.0016880224
0.0025581764
0.001714565
4.0702702E-4
9.8211E-4
0.0025667981
0.0021112848
-4.3685807E-4
-0.0019339018
-7.8139314E-4
0.0012152339
0.0014110114
-3.2190996E-4
-0.0018717402
-0.0024924863
-0.0019067879
-6.869572E-5
2.9921699E-5
-0.0015210408
-0.0021710515
-0.0025233212
-0.0026688857
-0.003536186
-0.0026212116
0.0019157582
0.0033336487
0.0035699175
0.0054571675
0.004365553
0.0031357256
0.0014955327
-7.81872E-4
-9.5222174E-4
3.0559025E-4
0.005327483
0.0071897786
0.005891435
0.0046596993
-0.0073668603
-0.011737801
-7.079851E-4
-0.0012832728
-0.004371898
-9.4721484E-4
-0.001223822
4.5030809E-4
-0.003156645
-0.012379657
-0.011659431
-0.0048016007
0.0017318687
0.006343406
0.006417072
0.0043357653
0.005220961
0.010120768
0.009191912
-2.0511176E-4
-0.0025356757
0.0067379517
0.010323092
0.0033220365
-0.001493035
-0.0054486906
-0.009147848
-0.005498385
-0.0029770683
-0.0044308575
-0.0033254267
-0.0011000925
-8.5827644E-4
-0.0027744486
-0.0020870357
-0.0021275356
-0.00597794
-0.004221638
1.3474023E-4
0.0012125017
0.0016450358
0.0010942667
0.0018640207
0.0049465857
0.008142996
0.0075748833
0.0053424463
0.0075790365
0.0059499405
7.023919E-4
-1.928766E-5
-0.0015312666
-0.0031854603
-0.004060105
-0.005245273
-0.005280407
-0.007876883
-0.009208172
-0.008177358
-0.008118494
-0.006897032
-0.0054224376
-0.0028389022
-0.0026407142
-0.0028344914
0.003992712
0.0071712052
0.005531678
0.0076085464
0.009810718
0.011091636
0.009860051
0.0072666025
0.006484045
0.0060754702
0.0083539225
0.009214831
0.0061202566
0.0035309156
5.3878524E-4
-0.0013035045
-0.002310087
-0.004668507
-0.0075688832
-0.010033343
-0.006132698
2.6556614E-4
-1.6147773E-4
-0.0039104023
-0.009656441
-0.016684208
-0.01836773
-0.015116014
-0.009862575
-0.0039211106
-8.210936E-4
8.3824503E-4
0.004038467
0.0049500144
0.0029160865
0.0024002977
0.005223643
0.010514675
0.014075105
0.013240538
0.0085082725
0.0028069518
0.0018693916
0.0030552957
-3.3635276E-4
-0.008038244
-0.0142977135
-0.012661308
-0.007139145
-0.0041206274
-0.0025675371
-0.0021959038
-0.0023447669
-0.0018831482
0.0013544683
0.0058364184
0.0036958992
-0.0018103498
-0.0036688612
-0.0034734432
1.2367187E-4
0.00766667
0.012175547
0.010611761
0.0090603875
0.008737726
0.009285891
0.015052766
0.020442968
0.02257983
0.018905839
4.3923856E-4
-0.015276083
-0.017162707
-0.021218514
-0.022633906
-0.01756477
-0.014711396
-0.012173111
-0.014414562
-0.016540851
-0.009420294
-0.0075222477
-0.01001351
-0.0032904153
0.0039937156
0.006494847
0.0066970517
0.0053630443
0.009634874
0.016107338
0.018595366
0.014365533
-0.0038810887
-0.0182907
-0.018721394
-0.022164186
-0.02167658
-0.021477995
-0.033558108
-0.03659836
-0.028490929
-0.019379642
-0.008184035
-0.0012450252
0.0028646588
0.0064694253
0.015792683
0.037583668
0.055608504
0.063661724
0.07162903
0.0817935
0.08592418
0.0732315
0.054969765
0.044399552
0.04021456
0.031782363
0.0076440373
-0.008985777
-0.011409769
-0.02341751
-0.031134654
-0.037818708
-0.061611295
-0.0759058
-0.0706333
-0.06414928
-0.067378215
-0.07234313
-0.063528664
-0.055262163
-0.05633643
-0.051706918
-0.03840567
-0.028958322
-0.039578687
-0.050673153
-0.039018393
-0.023495493
-0.0030131992
0.020694546
0.018616766
-0.0012592316
-0.029659903
-0.06911194
-0.10138023
-0.12006636
-0.1266043
-0.12365068
-0.11513697
-0.09741564
-0.07370631
-0.041278873
0.013759251
0.10124157
0.18546338
0.2168369
0.21507578
0.19918068
0.18968363
0.2103262
0.2132235
0.21669385
0.26151922
0.32801098
0.39743227
0.3365243
0.13511509
-0.0050846343
-0.02917755
0.025015043
0.014859151
-0.13128969
-0.17603868
-0.16194914
-0.27412462
-0.3195445
-0.23891874
-0.1939576
-0.22396432
-0.331877
-0.46769765
-0.5059917
-0.41857952
-0.28892103
-0.106655575
0.12767398
0.23967177
0.21362416
0.2022651
0.22708823
0.21960738
0.14042471
0.071648605
0.06622757
0.04681976
0.057133175
0.18376015
0.34536064
0.42258927
0.40518066
0.32443953
0.16757473
-0.044878755
-0.24848992
-0.33064774
-0.24477574
-0.16811852
-0.16509445
-0.14925681
-0.16059093
-0.17552392
-0.15088852
-0.12806882
-0.08344148
-0.03572055
-0.019644048
-0.006527177
-0.030477414
-0.076484546
-0.0036933431
0.14573823
0.19850223
0.26591313
0.40704125
0.39309305
0.24582054
0.13550192
0.08496532
0.06987969
-0.004520575
-0.07839632
-0.016649162
0.09777465
0.18728364
0.20296104
0.117482126
-0.00825332
-0.17082086
-0.31762293
-0.3892844
-0.42020583
-0.39023945
-0.33114716
-0.28333837
-0.20037197
-0.15387157
-0.17686172
-0.15339577
-0.09678201
-0.033632
0.10094803
0.1937686
0.14293748
0.07129211
0.01212186
-0.0513605
-0.021370586
0.077156104
0.15003406
0.19520375
0.1975044
0.17059366
0.17126188
0.18655382
0.18318939
0.16118707
0.1266373
0.09234156
0.06883332
0.05157374
0.03617029
0.021393338
0.0055576297
-0.007905491
-0.022637315
-0.040213242
-0.04723134
-0.04273421
-0.038804434
-0.039474543
-0.04225603
-0.047664773
-0.057333212
-0.06587027
-0.074000254
-0.08391164
-0.089664005
-0.09552085
-0.102789596
-0.103142686
-0.10001312
-0.09717272
-0.09138703
-0.08379209
-0.072845966
-0.05605667
-0.039618533
-0.025341708
-0.008630493
0.006814585
0.016982233
0.023076203
0.024796298
0.025090892
0.027240459
0.029368289
0.029221188
0.028009497
0.02683925
0.025545618
0.027293127
0.030280491
0.029407721
0.028910594
0.030658994
0.033175528
0.035778414
0.03548724
0.035031915
0.033772256
0.030253401
0.029872978
0.02940404
0.026996741
0.024817085
0.020467043
0.017133093
0.015124264
0.011681447
0.007983392
0.0036245256
3.3397056E-4
-0.0025168862
-0.005975219
-0.008172024
-0.012018713
-0.0155104855
-0.01458015
-0.013878042
-0.015522277
-0.016953176
-0.01866701
-0.021906324
-0.024805702
-0.026097573
-0.025924554
-0.022824189
-0.014965966
-0.002862675
0.0062631704
0.009849259
0.015457586
0.021708233
0.02526786
0.02897947
0.03113509
0.030968184
0.027767798
0.02301221
0.022730788
0.0240672
0.022507535
0.019394537
0.016849684
0.016086843
0.014288921
0.009692604
0.0036809656
-5.4859783E-4
-0.0029715737
-0.00875618
-0.013559141
-0.014544445
-0.017112864
-0.017933305
-0.018337307
-0.01958147
-0.015836356
-0.012554974
-0.011117651
-0.008499547
-0.0078031514
-0.007170213
-0.0068260557
-0.0064323912
-0.0037145072
4.865718E-4
0.0056072776
0.00461027
3.3171324E-4
0.001793217
0.002219123
0.0023243648
0.0056306547
0.0063210223
0.0072897845
0.008946904
0.008127722
0.008628169
0.008868636
0.0047435258
0.0013823046
0.0024928642
0.002956068
0.0029111225
0.0029490532
-2.5515177E-5
1.4143738E-4
0.0038811462
0.005824137
0.0055695586
8.85844E-5
-0.006038355
-0.0071480935
-0.0063737547
-0.00588064
-0.0054794946
-0.0023821753
4.655629E-4
0.0013593736
0.0018392913
-0.0015197346
-0.0036042016
-0.006192108
-0.008417974
-0.0032780706
-0.0095289415
-0.017406031
-0.004896657
0.0032476524
0.0031537488
0.005983669
0.004932538
0.004724253
0.002567115
-0.0026330224
-0.004227612
-0.005834045
-0.004690253
-0.0013530958
0.0011733129
0.0041216225
0.0037087467
0.00474924
0.009176796
0.009778637
0.007079907
0.0035349047
-2.1742342E-6
-0.0032310241
-0.0047820318
-0.0051527033
-0.008759281
-0.011447905
-0.009899029
-0.008303039
-0.0066144248
-0.0051906346
-0.0038870664
-0.0020062095
-0.0024073021
-0.0026675635
-0.0011687011
-0.0012536455
-0.0015229442
-3.7713847E-4
1.157723E-4
-0.002269032
-0.0057709734
-0.0044290866
-6.7653053E-4
-4.9077946E-4
-8.710436E-5
0.0019610454
0.0023341142
0.002048108
0.002092758
0.001916692
0.0017694472
0.0013734889
-4.71393E-4
-0.0023179085
-0.0032182971
-0.0048195487
-0.003724275
-0.0010092547
-9.4379846E-4
0.0012874558
0.0034984602
0.003067006
0.0046151807
0.0034113636
7.826204E-4
0.002186826
0.002555659
0.0023543132
0.0028500762
3.880908E-4
-0.0030355793
-0.004265286
-0.003972147
-0.004154634
-0.004488434
-0.0038331472
-0.003606665
-0.004017401
-0.0030687079
-0.0020778556
-0.0031488945
-0.0013822151
0.0023853555
2.9506168E-4
-0.0021484785
-0.0013054684
-0.0021430631
-0.0012270628
3.3932173E-4
-6.85392E-4
4.4025073E-4
0.0028930786
0.0033450152
0.0012904551
-0.0013927667
-4.8434673E-4
0.0017031623
0.0019326189
0.0022872265
0.0022253764
5.0581584E-4
-6.958802E-4
-2.9814546E-4
1.9389433E-4
5.0021925E-5
3.3519694E-4
5.759726E-4
-7.966079E-4
-0.0014986435
-3.791182E-4
-4.3273714E-4
0.0010062973
0.0034596496
5.579211E-4
-0.0021308758
-0.0018723313
-0.0028288744
-0.0011768653
-1.2413845E-4
-0.001553427
-1.5881144E-4
-6.8860105E-4
-0.0019338696
5.416415E-4
8.392591E-4
-6.3589535E-4
-2.6672918E-4
6.7497283E-4
6.4586994E-4
-2.83224E-4
6.732209E-4
0.0018614796
9.4253395E-4
0.0011743762
0.0015708179
1.4661891E-4
-4.816574E-4
-3.5217262E-4
-0.0010286635
-0.0013786328
-5.2892126E-4
-2.8959056E-4
-0.0016358113
-0.0015914458
-1.0333397E-5
-0.0010156991
-0.0031170282
-0.002842399
-0.0019478587
-0.0014093202
-6.278599E-4
3.0445232E-4
8.2513364E-4
5.256147E-4
0.0014552363
0.0023085424
9.140551E-4
5.6490174E-4
0.001171937
0.0012175431
0.0020505749
0.0028967133
0.0026258247
0.0013984453
0.0010875898
0.0010289467
-6.2617316E-4
2.7202475E-5
0.002031276
3.6243902E-4
-0.0013471306
3.2828812E-4
3.4609006E-4
-0.0035079278
-0.003834215
-7.032798E-4
-0.0015977885
-0.0020358523
1.4543858E-4
-5.194452E-4
-9.661235E-4
-1.8856148E-4
-0.0016248433
-0.0026174567
-0.0017727374
-0.0020713757
-0.0019999638
7.328515E-4
0.0013757988
8.6748885E-4
0.002609267
0.001557654
9.979823E-4
0.0027936501
-9.066563E-5
-0.0013937966
0.0015132513
9.483829E-4
2.1605621E-4
0.0014597331
0.0010550495
2.397283E-4
2.925826E-4
0.0011364307
0.0014581889
3.7491183E-5
-7.6883414E-4
-4.3203818E-4
-6.5015905E-5
8.1561925E-4
5.5454485E-4
-2.5825578E-4
5.4551195E-4
1.06550084E-4
-8.6481334E-4
-4.281164E-4
-0.0011619035
-0.0015335906
-0.0012460451
-0.0013083031
2.6838847E-5
8.04337E-4
0.0018016696
0.0021669394
-6.968418E-4
-9.396276E-4
3.7559136E-4
-5.9813063E-4
-0.0010142442
-0.0014419236
-4.6305684E-4
6.5992057E-4
-9.272074E-4
-0.001351088
-0.001599147
-0.0012382938
8.3587243E-4
2.8638617E-4
1.3850076E-4
9.5162215E-4
-2.4064831E-4
-4.1980887E-4
9.8609664E-5
0.0012531158
0.001897483
7.44003E-5
6.363811E-4
0.0013978063
-6.9128565E-4
1.998159E-4
0.0020501353
0.0016316477
0.001959967
8.676412E-4
-0.0018455874
-0.0016734134
-7.7415735E-4
-0.0011875542
4.0098446E-4
0.001815524
-9.9555604E-5
-0.0015738719
-0.001532302
-0.0013512775
-5.899456E-4
-0.0011430604
-0.001472491
4.976666E-4
6.118745E-4
-3.272378E-4
-2.0985592E-4
-0.0011878001
-2.832225E-4
0.0012311563
-1.1472669E-4
6.722652E-4
0.002143804
0.001552584
0.0013000554
-0.0010957391
-0.0021681427
9.101948E-4
0.0018937946
0.0013175177
0.0013085604
6.8856496E-4
-5.3705304E-4
-0.0023415273
-0.0024773714
-6.857999E-4
9.940946E-4
-2.7417054E-4
-0.0027176114
5.069079E-4
0.00334395
0.0011581527
-1.4528468E-5
-0.002084146
-0.0025720524
6.158501E-4
0.0012499791
0.0016958277
0.0019521705
8.8118145E-4
0.0015519385
7.300082E-4
-8.464685E-4
-0.0011212567
-0.0012768436
-4.0476047E-4
4.4201774E-6
6.019974E-4
0.0011744556
8.6115484E-5
-3.3314677E-4
-7.52076E-4
-7.821E-4
-0.0011538283
-0.0034875367
-0.0024908078
-2.4676934E-4
-0.0010382853
-0.0012045123
-9.581428E-4
-5.483703E-4
1.4165633E-4
6.088705E-4
0.002556332
0.0016158163
-0.0011539464
1.8526278E-4
0.001440071
0.0029348216
0.005198866
0.0017556398
-0.0016724141
-4.530086E-4
-5.173744E-4
-9.439005E-4
-7.0572266E-4
-0.0010577546
3.871663E-4
0.0016709424
0.0013903301
0.0018808281
0.0014371633
-6.706075E-4
-0.0011678265
-5.697721E-4
-0.0012896565
-9.996188E-4
2.808895E-4
-0.0014186548
-0.0036266982
-0.0018326913
0.0019149781
0.0024309761
1.7076309E-4
1.4292322E-4
-4.204628E-4
-0.00237637
-1.962927E-4
0.0015092237
3.5938385E-4
7.43756E-4
0.0013135953
0.0016489537
6.98616E-4
-0.0013538684
-0.0010063896
-6.8065606E-4
-0.0018971512
-0.0033360783
-0.003099951
5.6000246E-4
0.0028927962
0.0018724396
8.330215E-4
4.594249E-4
8.4387447E-4
0.0014417336
5.899712E-4
-4.2636998E-4
0.0010109296
0.0013887825
-1.9363314E-4
8.736421E-4
5.775166E-4
-0.0014952321
-9.4023556E-4
5.031536E-4
0.0035448638
0.004115015
0.0016913763
0.0017673371
-2.4627754E-4
-0.0022716864
-0.0022181645
-0.0029941082
-8.512487E-4
-4.2650924E-4
-0.0021990333
-0.0016019673
-0.0010737417
-5.7931677E-5
-4.4232522E-4
0.0022248675
0.0024022614
-0.010667002
-0.011121978
0.002924036
0.0034987973
9.428002E-4
0.0026634515
8.848391E-4
3.3315775E-4
7.964396E-5
-2.5088707E-4
0.0015341407
0.0027259248
0.001743509
0.0010206307
0.0035587586
0.004058761
0.0012446075
-6.931403E-4
-0.002041366
-6.9917116E-4
9.96211E-5
-0.0012836253
5.493544E-4
0.0020720493
0.0014300564
0.0013163104
3.1465697E-4
-0.0010081887
-9.287535E-4
-4.7023443E-4
-0.0015724786
-0.0016976248
-3.3832027E-4
-0.0011428937
-0.0011098584
2.2991295E-5
-4.5166767E-4
-4.5957626E-4
-5.79583E-4
-8.0944505E-4
-6.2863575E-4
8.410033E-5
0.0012634437
9.21588E-5
-0.0014016886
-0.0015478147
-2.9065885E-4
0.0019884382
8.423771E-5
-0.0014993318
4.5530213E-4
-1.6789486E-4
-8.2918885E-4
-2.4790072E-4
3.0988813E-4
0.001230308
6.7098165E-4
9.25182E-4
1.6064913E-4
-0.0018441908
4.817559E-4
0.0030176057
0.002208022
6.037176E-4
2.1870465E-4
0.0014823345
5.829798E-4
-0.0013759107
-5.405256E-4
1.748256E-4
-3.232002E-4
7.673656E-5
-6.666619E-5
-0.0011942035
1.039956E-4
0.001936719
1.8927267E-4
-0.001967577
-0.0017027713
-7.135534E-4
-7.7360636E-4
-9.717575E-4
-7.4112497E-4
-0.0010167306
1.9346493E-4
0.0011408922
5.424613E-4
8.9372136E-4
2.3008275E-4
0.0011486743
0.0025279827
-9.026069E-4
-0.0031317035
-0.001723903
9.685166E-4
0.0019022651
0.001221927
0.0031766875
8.4360293E-4
-0.001964464
5.2684033E-4
0.0011596595
0.004737413
5.355998E-4
-0.012133475
-0.00578638
0.003898807
7.688647E-4
0.0010733341
9.716713E-4
-8.6534274E-4
1.8624713E-4
-0.0010419325
-0.0012016438
2.5979927E-4
1.0745202E-4
6.217022E-4
0.0017443326
0.0013652571
0.0013429805
0.0031627123
0.002430988
5.897672E-4
0.0015067926
0.0012875439
-0.0010913038
-0.003465756
-0.003697946
-0.001848486
-3.964995E-4
0.001008012
-2.2417934E-4
-0.0028777085
-0.001515076
8.145427E-4
0.0013996984
3.1878077E-4
-0.0011016766
-1.3879656E-4
2.0708526E-4
-8.89256E-4
-5.268095E-4
4.9681356E-4
4.5146595E-4
-2.1000233E-4
0.0011962951
0.003006228
0.0021841899
0.0016692488
0.0022868614
0.0016795208
-3.81878E-5
-4.021659E-4
-5.310182E-4
-0.0019093624
-4.59037E-4
2.183238E-4
-0.0018116008
-3.32045E-4
-0.0012497704
-0.0039041503
-4.148331E-4
2.8256426E-4
-0.0021204099
4.4326534E-4
0.0020812
9.860734E-4
9.0436917E-4
-1.6943026E-4
-0.0010144195
-1.7123485E-4
-3.3526262E-4
-3.504159E-4
5.361389E-4
2.0982475E-4
-7.5164565E-4
-0.0018519125
-0.001243586
5.268474E-4
-7.2608935E-4
-7.5491914E-4
0.0019894422
0.0020301568
0.0011303107
4.7519483E-4
-8.9761015E-4
-0.0019427835
-0.0023291588
-3.3472697E-4
0.0014050513
1.8741858E-4
1.628751E-4
0.0021246963
0.0018811391
3.275229E-4
0.0011061986
5.021788E-4
-0.0010236612
6.215974E-4
0.0011243625
0.002382893
0.0026421875
1.7220674E-4
0.0033478264
-0.0023479157
-0.01474205
-0.0074634883
0.0031982472
0.002774866
0.0019838975
-1.04407554E-4
-6.580588E-4
3.9348291E-4
6.0494733E-4
9.949707E-4
-0.0012435259
7.476785E-5
0.0019948639
-0.0015241962
-0.002620125
-0.0020801441
-3.9214274E-4
0.002525176
0.0018528696
0.0018486058
0.0032036554
0.0024456168
-9.451065E-5
-0.0016251589
-5.6009035E-4
-0.0012536768
-6.6351227E-4
0.001992955
1.6898145E-4
-6.621632E-4
4.5044447E-4
-9.749584E-4
-7.4918213E-4
7.147554E-4
5.800264E-4
-0.0014823907
-0.0032263577
-0.0017149583
-0.0015993397
-0.0028966183
-0.0017354622
-0.0014562682
-0.0011395321
6.897753E-4
5.7583244E-4
-2.265247E-4
3.9845984E-4
0.0015821664
0.0018935055
0.0015857101
0.0019734316
0.0013023738
8.8377047E-4
0.002187081
0.0019591106
0.002271384
0.0031317547
0.001627567
0.002035916
0.0037612773
0.0031156861
0.0012787239
-4.0928228E-4
-9.418917E-4
-0.0024410435
-0.0033925434
-0.0026325025
-0.0046440177
-0.004881301
-0.0020508103
-0.0017451169
-0.0011145773
-7.4838276E-4
-0.0027510014
-0.003728224
-0.0032326921
-0.0027594245
-0.0031128088
-0.0014356646
0.00205598
0.0024739346
0.002166838
0.003034643
0.0026489426
0.0015633209
0.0010491956
0.0013297565
0.0019072143
0.0029481712
0.0033564658
0.002825129
0.0033332428
0.0032131786
0.0021215016
5.7701085E-4
-9.7348413E-4
-3.4076633E-4
-0.0012552585
-0.0018146142
0.0016763037
0.0020873465
-1.778947E-4
-0.0018509293
-0.0039042663
-0.003830728
-0.002665192
-0.001050019
-1.819577E-4
-0.0021067243
-0.0026340655
-0.0019258473
-0.0020028953
-0.0012701481
-5.757763E-4
-8.1224233E-4
-0.0014902797
-7.4033067E-4
8.476918E-4
0.0010172374
0.0015001963
0.0030436919
0.0035564585
0.0013349124
-9.922422E-4
-5.1399904E-5
0.0014286294
0.001056049
-8.048592E-4
-0.0015327705
8.861194E-4
0.003131055
0.0033486895
0.0016601537
6.7966955E-4
0.0017711225
4.2887847E-4
-0.0011007112
-0.0015128092
-0.0025568986
-2.028771E-4
5.3865183E-4
-0.0020517649
-0.0010682709
-6.5176777E-4
-0.0015672136
-2.1306094E-4
-2.2339588E-4
-2.7988228E-4
0.001446878
2.3576578E-4
-0.0016856577
7.159571E-4
3.6928846E-4
-0.0036034863
-0.0013086745
0.0013576961
-0.0016152886
-0.002284906