7.2742015E-4
5.3923775E-4
0.0012247864
0.0010541329
0.0013153051
9.901647E-4
-1.2821143E-5
-0.0013153858
-7.169378E-4
8.718043E-4
1.42914E-4
0.0018095224
0.0040524714
0.0027212335
0.0019411761
5.6015956E-4
-0.001553651
-0.0020057587
-4.494663E-4
0.0017567772
5.0411032E-5
-0.0016551041
-0.0018713404
-0.0033035213
-0.0022603925
-0.0042666197
-0.0069084726
-0.0017563943
0.0010124017
7.564971E-5
0.0012686405
8.483345E-4
-1.8826986E-4
1.633562E-4
0.0010451466
8.210015E-4
-5.067447E-5
6.892861E-4
4.2622483E-5
-7.028244E-4
0.0013871285
0.002472316
0.0022077418
0.0025771486
0.0019047175
-5.13986E-4
-4.017022E-4
0.002247147
0.0014241749
-4.6556164E-4
1.2740793E-4
5.306853E-4
4.8471603E-4
6.484695E-4
7.2568236E-4
-6.274545E-4
-0.0023947658
-0.0022071516
-0.0019969002
-0.0016945914
-7.3055E-4
6.8476377E-4
0.002181899
9.173443E-4
-2.2656146E-4
-3.7879482E-4
-0.0015016194
-1.906148E-4
3.0214147E-4
-0.0018033866
-0.0017521755
-1.1864413E-4
0.0012100954
4.3399702E-4
-5.6917267E-4
2.3462823E-4
-6.573814E-4
-6.765451E-4
0.0011464438
1.02276266E-4
-5.563174E-4
8.986171E-4
2.0108568E-4
-6.8829424E-4
3.974587E-4
4.434795E-4
1.753016E-4
-3.2310624E-4
-0.0018818523
-0.0010175001
-2.1023204E-4
-6.068521E-4
7.320462E-4
5.198633E-4
5.176985E-4
0.002272578
0.0015943131
-2.2986537E-4
-7.004279E-4
9.90408E-4
0.001477364
8.7785145E-4
0.0034323833
0.002306868
-0.0013923962
-0.0014673775
-0.0031440705
-0.0024101273
0.0011484827
1.0514197E-4
7.1654056E-4
0.0035494731
0.0014834295
-0.0013003881
4.329695E-4
0.0019436408
-8.222663E-4
-0.0023069065
-0.001629689
-0.0023200372
-2.8085744E-4
0.0027419622
0.0013790493
-7.7173486E-4
-0.0018827041
-0.002540092
-0.002361332
-0.003285994
-0.0028514222
-6.453927E-4
-0.001851881
-0.0029175302
-0.0011793979
-0.0011981454
-0.0015363246
-7.03549E-4
2.3067334E-4
0.0017779814
0.0025572255
0.0020444607
4.3234485E-4
9.430182E-5
0.0021218583
0.0015155993
-6.7861844E-4
9.414469E-5
0.0034233327
0.007040133
0.007753253
0.0072117457
0.0065079457
0.0034162982
0.0014732459
1.0911497E-5
-0.00415663
-0.006761683
-0.007377646
-0.0074049784
-0.0050291065
-0.0024091138
-0.0014120381
-0.0010987369
-0.0010271331
-3.0056378E-4
3.3585502E-6
-0.0017356125
-0.003326199
-0.002954311
-0.0017651841
-9.946041E-4
-7.661259E-4
1.0118271E-4
0.0021149414
0.0028006106
8.885504E-4
1.7441218E-4
0.0020717843
0.0028045005
0.0026043863
0.0028182494
0.0021787225
0.0026565297
0.0029674028
8.2359405E-4
9.075912E-5
-2.3960872E-4
-0.0019292204
-0.0014271743
-6.266654E-4
-0.0016032559
-0.0013338386
-2.6079433E-4
-7.9867686E-4
-0.0017730911
-0.0016639607
-9.2610635E-4
-4.066779E-4
-8.7063696E-4
5.1828606E-6
0.003309687
0.0034332492
-9.965119E-5
-8.303937E-4
0.0011122106
7.4225577E-4
-0.0016385817
-0.0020382558
-0.0012264824
-0.0012369961
-6.2207435E-4
7.243831E-5
-3.4142958E-4
-9.276085E-4
-2.5871965E-5
0.001218195
5.039233E-4
0.002696171
0.00759382
0.0077791023
0.0048735673
4.4490577E-4
-0.0037093577
-0.0034563001
-0.0033814728
-0.0033460082
-0.0015468805
-0.0016201996
8.6841313E-4
0.0035252986
-8.6017704E-4
-0.005853275
-0.007845065
-0.008187654
-0.0053542615
-0.0018570478
-4.6148605E-4
7.970733E-5
0.0013023587
0.0013390109
3.9774115E-4
0.0018913621
0.0024944227
0.0010165786
0.001057573
0.001007372
0.0020309652
0.004989156
0.00610329
0.0053341314
0.00344522
0.0033329946
0.006584994
0.006729604
0.0030313844
7.9011155E-4
-3.694035E-4
-2.2539742E-5
9.2473836E-4
-0.003320892
-0.0069125267
-0.0033322594
-5.606665E-4
6.520564E-4
0.0015514576
-0.00184349
-0.002506721
-2.7740822E-4
-0.0016775928
-0.0028846224
-0.00261274
-0.001794392
-0.0013978727
-0.002011624
-0.0026728183
-0.005370413
-0.005503426
-0.0036005727
-0.0041227853
-7.213041E-4
0.0011953932
-0.0027655242
-0.0037069663
-0.00226336
-3.1275157E-4
-8.251979E-4
-0.003574913
7.6624376E-5
0.0041955314
0.0052729878
0.009574342
0.01286983
0.016227394
0.01941168
0.0107658645
-0.005054269
-0.013667082
-0.0147747435
-0.011054001
-0.0012019173
0.008500361
0.010460687
0.007119742
0.0032899883
0.0029231356
0.004000154
-0.0021404354
-0.009268056
-0.009420409
-0.011459756
-0.0123366555
-0.0046907146
0.001956968
0.0065534976
0.0116802445
0.010423329
0.006805406
0.0067297933
0.0035911473
-0.0055817193
-0.01418496
-0.015217025
-0.00960689
-0.0046530934
-0.0017656204
6.480818E-4
-6.6964887E-4
-0.0030787375
-0.0021748203
-0.0010459574
9.2188804E-4
0.0028451602
0.0022743288
0.0020327389
-3.2713625E-4
-7.0869114E-4
0.004126249
0.0037419272
0.0013276734
0.001833423
0.0026667137
0.0063857893
0.0060161985
0.0022153754
0.0033382769
0.002974146
9.51116E-4
-1.9582652E-4
-0.0031670725
-0.0050611463
-0.005522318
-0.0039748
-0.001503857
-0.0019840146
-0.0017054235
1.7271022E-4
4.9976126E-4
5.9551274E-4
8.938823E-4
7.695202E-4
0.0013022067
0.0017449354
0.0012341203
0.0033306105
0.0074129016
0.007788256
0.0053407694
0.0023303274
-0.0021935834
-0.0063198204
-0.0076581473
-0.008188782
-0.008684818
-0.005646839
-0.0019578503
-0.0014395767
-8.675959E-4
-7.12275E-4
-9.600566E-4
1.4980682E-4
4.785164E-4
2.801651E-4
4.3174342E-4
8.086713E-4
0.0012378809
0.0022190385
0.0031769772
0.0012889366
9.405732E-4
0.0027035603
0.0017958198
0.0023030478
0.0023902121
4.091439E-4
0.0012851835
9.441368E-4
-0.0010983582
-0.0011572534
-2.6291804E-4
-3.8077842E-4
-0.0032922092
-0.0043104705
-0.0023700313
-0.0013171561
5.2090426E-4
1.4074354E-5
-0.0037311905
-0.003378246
2.9729327E-4
8.596473E-4
5.5823236E-4
0.0029790674
0.0032295329
0.003979236
0.007678032
0.005946742
0.0037066587
0.0025311897
-0.0034896152
-0.003353748
-5.882534E-4
-0.00562239
-0.004495873
0.0044263094
0.0071406574
0.0061991625
0.0065924902
0.0026390457
-0.0044362256
-0.008538056
-0.010186395
-0.006796116
1.4841366E-5
0.0015160058
1.1778062E-4
-3.7445707E-4
-0.0017501686
-0.00284414
-0.002413338
-0.0017260199
-0.004065575
-0.00598495
-0.0033337446
-0.0017102344
-0.0010169818
0.001132845
0.002241562
0.0028364707
0.0022175824
0.0020257616
0.004436309
0.006327498
0.0066363867
0.0040651886
6.039989E-4
0.0016351677
0.0031390234
0.0011913604
4.2484188E-4
0.002172509
0.0034479238
0.0045774123
0.006307721
0.006712556
0.0028289973
-0.005046649
-0.008125109
-0.005338468
-0.006343167
-0.007822324
-0.0067893458
-0.0077948803
-0.005369507
-4.240452E-4
2.8987243E-4
1.1668858E-4
2.2504335E-4
-7.052114E-4
-0.0020786661
-0.004074388
-0.0032859098
0.00105629
0.003868801
0.0046762335
0.006019295
0.0055152285
0.0025197067
0.0018670302
0.0032155027
0.0021965741
5.0976867E-4
0.0014052031
0.0023740067
0.0011005842
6.8343384E-4
0.001663549
2.2612767E-5
-0.002802334
-0.002476283
-9.298004E-4
-1.7479E-5
9.1976684E-4
-7.6874153E-4
-0.0029260998
-0.001670325
-0.0022614447
-0.004128161
-0.0018332021
1.7649673E-4
-2.2052694E-4
-8.945033E-4
-0.0017994602
5.5950513E-5
0.0026165098
6.5287325E-4
-0.0017233259
-0.0015667906
-0.002012901
-0.002131134
-2.4219535E-4
0.0018074698
0.0021181898
0.0018870359
0.004846919
0.0074574896
0.004420334
0.0013794776
7.41953E-4
-2.695262E-4
3.4955217E-4
1.061147E-4
-0.0029284863
-0.0041877525
-0.0028187437
-0.0012367864
-0.0014324643
-0.001254123
0.0020835013
0.0039702533
0.0034743948
0.0024340092
-0.002836663
-0.0066321474
-0.0020291554
0.0023252815
7.400756E-4
-0.003219481
-0.00550366
-0.0034271292
-0.0013135417
-5.77273E-4
0.002029083
0.0032296127
0.0035275538
0.0036713886
5.429458E-4
-7.6967664E-4
-7.631197E-4
-0.006157771
-0.010389084
-0.006638452
-7.1433303E-4
0.002995523
0.0057801018
0.0068361037
0.004659966
-0.0010949307
-0.0067434898
-0.006643635
-0.0036884216
-7.449507E-4
0.00400168
0.00979638
0.01630321
0.01994336
0.017976189
0.008969564
-0.006430104
-0.0125502655
-0.008006363
-0.0067063165
-0.005049638
-0.0038271723
-0.0047557885
-0.002006708
-0.0031923219
-0.0070279194
-0.005431068
-0.0040712343
-0.0034034585
-2.460474E-4
0.0019391873
0.00326768
0.005574465
0.0029630836
-0.005622023
-0.009100408
-0.0058531812
-0.0033606372
-0.0017818369
9.627918E-4
0.0037286577
0.005668357
0.0076511926
0.007072886
0.0039716456
0.0035264718
0.0028578888
4.0942774E-4
-3.1476823E-4
-3.092647E-4
4.5258572E-4
0.0010174918
0.0018638459
0.0033716606
0.0024294218
9.422401E-4
-0.0016563484
-0.0043653455
-0.0025718547
-5.716787E-4
2.186518E-4
0.0014700304
0.0010045229
-5.3059286E-4
-0.0022580277
-0.0038002052
-0.004808832
-0.004896694
-0.004110015
-0.0027619665
-9.1220594E-5
4.2709344E-4
-9.798426E-4
5.835721E-4
0.0026000969
0.0013175282
-0.0018828212
-0.001971556
0.0015648094
0.004984596
0.007767539
0.0055944575
0.0015286468
0.0038410658
0.0037704755
-0.003257281
-0.0077635776
-0.0067567625
-0.0042376164
-0.003864834
-0.003468601
1.720438E-4
0.0026591646
0.0011584002
3.1061855E-4
2.1255574E-4
-0.0023381289
-0.00416736
-0.004777477
-0.003331928
0.0024057243
0.007276172
0.012510196
0.015521002
0.008807324
0.0019143957
-0.0011923377
-0.004176606
-0.0053216536
-0.006178775
-0.004278097
-0.0015644376
-0.0015054453
-4.138878E-4
-7.6725567E-4
-5.52158E-4
7.7890255E-4
-0.0016025824
-0.0014225449
8.9344714E-4
-0.0010964548
-0.0036783922
-0.0029713342
-0.0010916692
-6.275351E-4
-2.1192885E-4
-0.0017280832
-0.0038561672
3.889296E-6
0.0039971108
0.0037340892
0.003361348
0.004044826
0.005555107
0.0039358204
8.065802E-4
4.5710735E-4
7.5135636E-4
0.0019902007
0.0015899512
2.192704E-5
0.0016375069
0.002722532
0.0027944485
6.8937754E-4
-0.0048673805
-0.0062553436
-0.0041569415
-0.0046710405
-0.0073045143
-0.00934663
-0.008116464
-0.0049364185
-0.00179499
0.0018523227
0.0035052106
0.0012343299
-0.0010160907
-7.6449587E-4
-9.3345245E-4
-0.001628849
-9.83239E-4
1.6941126E-4
0.0010209659
0.0015410288
0.0050642397
0.012859725
0.018039756
0.015644306
0.009068621
0.007140266
0.0120597305
0.011832065
-3.8832464E-4
-0.012421321
-0.014676696
-0.0137219075
-0.012313508
-0.008231865
-0.006024756
-0.005055402
-0.0030570517
-0.002636354
-0.0016399582
-5.6194654E-4
-0.0022794255
-0.004071019
-0.0033293883
-2.884725E-4
0.0011839434
0.0010048841
0.0020562138
0.0014950262
0.0021732978
0.0056356145
0.0049797776
0.004090085
0.0063886447
0.005423579
0.0018342905
-0.0015957897
-0.0032276697
-8.2704565E-4
-9.052332E-6
-0.003131511
-0.0051931064
-0.005794483
-0.0043292153
-0.0016631791
-0.0031163732
-0.005356547
-0.0021435085
0.0025054892
0.003702419
0.0040887133
0.0069738673
0.010119632
0.008929994
0.0036748883
-0.0011532134
-0.0028906397
2.6359607E-4
0.0053058704
0.0052586645
0.004334552
0.004094209
-0.0022304486
-0.006632116
-0.006433979
-0.008592341
-0.006870684
-0.0030988408
-0.0027930993
-0.0013361569
-0.0014313296
-0.003932912
-0.0050760843
-0.00507538
-0.003956096
-0.0026067384
-8.565497E-4
1.7688722E-5
9.517602E-4
0.004608794
0.0053868797
0.0030272047
0.001627418
8.9437043E-4
0.0012640182
-5.726516E-4
-0.0015785423
0.002490766
0.0037964866
0.0019417387
0.0014963397
0.0011495842
0.0010450749
0.0012044698
5.3769856E-4
-5.529656E-4
0.0012876488
0.003932861
0.003326682
0.004974568
0.006692597
0.0049965037
0.005289902
0.0039553843
9.064165E-4
-4.259699E-4
-0.0026875164
-0.0017645011
0.0021092524
0.0031586066
-1.2467043E-4
-0.0059709107
-0.007900324
-0.0073984577
-0.008049863
-0.0061116107
-0.0031617745
-0.0014763458
-0.0019907726
-0.0045037284
-0.0055534495
-0.0063989125
-0.006299866
-0.004987306
-0.007687032
-0.012222274
-0.012628832
-0.0072371364
-0.0010824772
5.539071E-5
-1.2328319E-4
3.5491932E-4
0.0015131719
0.0061003272
0.008687786
0.007021274
0.0065878527
0.0075909803
0.009683349
0.011697563
0.012927828
0.015579837
0.014275708
0.009987509
0.01113085
0.01306964
0.014551945
0.017129611
0.015928255
0.01625546
0.016823743
0.009662929
-0.0017168293
-0.015554358
-0.025555464
-0.026920466
-0.025930114
-0.022930892
-0.021219015
-0.020815289
-0.015157375
-0.010262205
-0.007030197
-0.0042962986
-0.007227247
-0.008625258
-0.00553767
-0.0036334665
-0.002382798
-0.0033254726
-0.0061091334
-0.006855733
-0.0072405557
-0.006861924
-0.0026947875
7.236208E-4
0.0016018266
0.0047396426
0.005803799
0.002321203
4.143275E-4
-0.0010847201
-0.0016237814
0.0016747003
0.0034059298
0.0039969306
0.008817105
0.015538905
0.022109833
0.027425777
0.024705147
0.015991079
0.010817957
0.008900858
0.012205379
0.020404467
0.025493853
0.032564275
0.04109362
0.04080157
0.029950902
0.008453308
-0.014918821
-0.035098292
-0.05072761
-0.051264573
-0.047646966
-0.04734395
-0.04060782
-0.038270656
-0.042146705
-0.045873653
-0.05350093
-0.05191868
-0.03781547
-0.025697902
-0.016068038
-0.004700252
0.011637977
0.030211264
0.04451067
0.05828977
0.07330192
0.08474309
0.08317519
0.067058876
0.052024875
0.03822156
0.01839272
-0.0023218729
-0.024385601
-0.044749703
-0.061375886
-0.07502989
-0.076921195
-0.06650395
-0.047304112
-0.025213085
-9.1857987E-4
0.03581896
0.06892709
0.08578954
0.10092982
0.11416523
0.12109407
0.11976559
0.107061036
0.0841662
0.048297904
0.009785321
-0.024780225
-0.0600225
-0.09285391
-0.13040392
-0.16163409
-0.16735739
-0.16319902
-0.15089215
-0.12846133
-0.11577906
-0.10348707
-0.07385599
-0.03494181
-0.003519279
0.0037127633
-0.008258723
-0.01226008
0.013176556
0.058440942
0.08594962
0.100976944
0.13727379
0.17512514
0.2052758
0.25100917
0.28647164
0.2643676
0.18071027
0.09381389
0.037903953
-0.04390353
-0.15636614
-0.23362781
-0.26601115
-0.28124282
-0.29645744
-0.28469893
-0.2250381
-0.14330827
-0.028110128
0.09004866
0.14542443
0.16972671
0.16858493
0.13520294
0.1183073
0.084133714
0.020696865
4.729604E-4
0.015455621
0.0392498
0.071135536
0.052547533
-0.023750255
-0.06572974
-0.04055109
0.0016018248
0.026883116
0.022512835
-0.0071163927
-0.030867036
-0.053619526
-0.110715054
-0.16448721
-0.139016
-0.05776572
0.00545945
0.050526064
0.09155162
0.11051514
0.10748131
0.083869085
0.055786196
0.04871341
0.03685655
0.027014067
0.05023352
0.045389693
-0.008382247
-0.04824132
-0.08110203
-0.13206334
-0.18218529
-0.21456482
-0.2053185
-0.15296024
-0.09540792
-0.051854283
-0.008169771
0.033858776
0.055880677
0.06500017
0.060866266
0.053097486
0.07794081
0.11878508
0.15975851
0.20139296
0.21637525
0.210542
0.16555083
0.08479139
0.05715055
0.07269801
0.08628146
0.11663975
0.11646402
0.032755174
-0.11546796
-0.25737092
-0.3219824
-0.3264119
-0.28715742
-0.19156225
-0.088959806
-0.026733756
-0.0040838085
-0.0031331158
-0.011712759
-0.020764733
-0.0126986485
-0.0037295579
-0.013387587
-0.01904894
-0.00544722
0.020131484
0.041961625
0.05911172
0.08069178
0.091224074
0.086854
0.084207274
0.08460426
0.07748678
0.055787817
0.028110342
6.808762E-4
-0.025847541
-0.042477157
-0.04987933
-0.052573986
-0.04967523
-0.041358553
-0.028609466
-0.013581519
0.0037140728
0.01853822
0.03099557
0.04401969
0.05153902
0.059174653
0.062779
0.050001133
0.033558335
0.017529845
9.759681E-4
-0.0017969663
0.013067799
0.030966312
0.032838594
0.019939374
-0.004934469
-0.041388996
-0.06406019
-0.07139135
-0.07400984
-0.056404587
-0.035781242
-0.03340505
-0.029996512
-0.016987935
-0.004074068
-0.0029443076
-0.012803547
-0.016043968
-0.01472495
-0.015475512
-0.010902203
-0.006582939
-0.0016849393
0.011346721
0.02197999
0.02614353
0.025879933
0.022616485
0.018952666
0.008751087
0.002338956
0.0075792163
0.014686162
0.026253339
0.030450115
0.022306727
0.009030097
-0.026428506
-0.05586649
-0.047104444
-0.0352849
-0.030140027
-0.019831946
-0.012041433
-0.0017435505
0.011232722
0.01891046
0.022087002
0.028390078
0.03220004
0.015242646
-0.0029859128
3.3053642E-4
0.007097608
0.00917003
0.019065125
0.04550063
0.07623142
0.090545475
0.08647226
0.056817178
0.0050567547
-0.044256143
-0.080931135
-0.08674726
-0.060269617
-0.039516218
-0.03497385
-0.034428984
-0.029236684
-0.009430717
0.010347775
0.011765158
0.0019244335
-0.009097226
-0.017002676
-0.021004405
-0.019801965
-0.013616056
-0.013225214
-0.01730067
-0.012995398
-0.005846007
9.3589355E-5
0.008102902
0.0121277
0.015997611
0.020636348
0.018893743
0.018709058
0.017334318
0.010267632
0.008813944
0.0071194926
0.0019038159
0.0028741022
0.0061111758
0.009858673
0.01342201
0.0105578145
0.0058588893
0.003742442
0.0010930306
-0.0016993133
-0.0013191652
0.0017422618
0.0043549114
0.0049314657
0.001675429
-0.003041146
-0.006136391
-0.012059145
-0.017549766
-0.016628638
-0.01679676
-0.018593578
-0.014898986
-0.0076988405
9.723894E-4
0.0050525777
-8.6239044E-4
-0.005369636
-0.0027412467
0.0020991515
0.0076815346
0.011014393
0.0154693695
0.018893277
0.010534064
0.0018352795
0.002634679
0.0020367075
-0.003475123
-0.010074562
-0.014104314
-0.014464615
-0.012918356
-0.008313877
-0.0042341277
-0.002284026
0.0014720117
0.0052377153
0.0077454797
0.009068377
0.009850016
0.011019618
0.0078001185
0.0014803478
-0.002264222
-0.003861703
-0.003326849
-0.0016854169
-6.6150795E-4
-2.8401907E-4
-8.441404E-4
-4.351075E-5
0.0022676578
0.00488861
0.0073943986
0.006052484
0.0030152244
0.0022147815
-0.0013056067
-0.007847656
-0.010180532
-0.007446414
-0.005135482
-0.0042447792
-4.0284515E-4
0.0050242124
0.007190516
0.007834607
0.008634967
0.0084836995
0.009173771
0.009670532
0.0060572824
4.0607643E-4
-0.0044300198
-0.009208902
-0.01195374
-0.012421931
-0.013283401
-0.01160733
-0.0069093523
-0.0032351809
-2.2265657E-4
2.5186065E-4
-0.0018813967
2.9855318E-4
0.0052099996
0.0073132906
0.008000575
0.0061840285
3.9191727E-4
-0.0033402068
-0.0015107269
6.533137E-4
7.904712E-4
0.0020723545
0.0033934144
0.0027972276
0.0014960498
-5.315231E-4
-0.0021849517
-8.996543E-4
0.001524669
0.0012769188
-9.5582556E-4
-0.0030997351
-0.005347147
-0.0068451744
-0.0070935367
-0.0062460825
-0.0031687084
-2.774697E-4
-0.0011111954
-0.0025050684
-1.6250086E-4
0.003152841
0.004880041
0.006932185
0.008944851
0.012758432
0.017419968
0.014287825
0.008049044
0.0036311017
-0.006582048
-0.014118221
-0.011084287
-0.0067430167
-0.003737815
-0.0036900572
-0.0061207716
-0.0055058794
-0.0048920624
-0.004216323
-0.0021310213
-0.0013896085
-0.001257622
-0.003162622
-0.0039570434
-7.2062097E-4
0.001410445
0.002984601
0.0046075466
0.0048687905
0.0048875073
0.0040283157
0.003965198
0.00465273
0.0049231853
0.004562925
0.0015140438
-0.0014104471
-0.0029413982
-0.003305732
-0.0018193625
-0.0030859096
-0.004739384
-0.004328003
-0.006157439
-0.0063914116
-0.0044678706
-0.0048581413
-0.0043944377
-0.0026357064
-0.002423063
-9.5526956E-4
0.0028282797
0.004876891
0.005267013
0.0061569805
0.006845434
0.007824687
0.007946098
0.0073464126
0.008328342
0.008343637
0.006639122
0.005823286
0.006446939
0.0036839324
-0.0056330124
-0.011658582
-0.011838193
-0.012919064
-0.011611631
-0.008357173
-0.0055502476
-0.0020959184
-0.0011485658
-0.0013037369
-0.0021423476
-0.003019135
-6.886687E-4
-2.1104456E-4
-6.116787E-4
0.0011996304
7.7128684E-4
3.1438665E-4
0.0016839171
0.0034849776
0.0054882453
0.005769481
0.0059899027
0.006720628
0.006550126
0.0060714264
0.0044239894
0.0030967852
0.0025455556
-5.0124643E-5
-0.0028199987
-0.0032280518
-0.0040730922
-0.006533426
-0.006956221
-0.005682437
-0.00516271
-0.00441954
-0.004485449
-0.0047559617
-0.00261059
1.07523905E-4
0.0014712978
0.0026692322
0.0042474545
0.0032097148
0.0012374866
0.0033802697
0.004254201
0.0016572413
0.0013135697
0.001375092
1.1573786E-4
-7.890193E-4
-2.8693475E-4
0.0018504241
0.002465994
0.002671437
0.0036015552
0.0025964552
0.0024520566
0.0039312835
0.004718077
0.004485394
0.0011008115
-0.0040334216
-0.005765619
-0.0016140923
0.002128526
-0.0029414883
-0.007030223
-0.0027797846
-0.0030362576
-0.0064933947
-0.00217715
0.002888255
0.0036086761
0.004667083
0.0055783023
0.0051391
0.0027125573
-0.004303717
-0.011568492
-0.013037747
-0.011022645
-0.007946286
-0.0039513055
-0.0010778011
0.0013934149
0.0051618246
0.008078108
0.008717662
0.008367293
0.00590033
6.263484E-4
-0.002111936
8.3303405E-4
0.0065125357
0.009511869
0.005997913
5.183977E-4
-0.0032228373
-0.005598704
-0.003125155
9.6642855E-4
0.0014666285
8.1992673E-4
8.300947E-5
7.812747E-4
0.0016560514
-9.966465E-4
-0.0037157629
-0.0048074094
-0.0054704724
-0.005702
-0.0056817173
-0.0040205223
-0.0026459473
-0.0019010548
5.7106223E-5
7.102345E-4
0.0014053918
0.0026441205
0.0023510163
0.002719107
0.003131474
0.004088553
0.005689885
0.0037708252
0.0015405733
0.0017114313
0.0013782786
0.0011091843
4.987492E-4
-9.573147E-4
-0.0015308455
-0.0016765981
-7.066815E-4
0.001470249
0.0022194819
0.0021518813
6.98102E-4
-0.0026509094
-0.002291919
-7.743535E-4
-0.0021706219
-4.6568824E-4
-7.347004E-4
-0.005850533
-0.0040720436
-4.162095E-4
-0.0039541293
-0.006002757
-0.002118759
0.0018132046
0.0020564727
5.059617E-5
-0.0015892556
-7.291736E-4
0.0015962346
0.0020302734
0.0032702405
0.0041509937
9.292028E-4
-1.4817214E-4
0.0016356474
0.0032912313
0.0047431057
0.0028958705
0.0016071713
0.0018560255
-1.3748003E-4
-2.2550064E-4
6.6994585E-4
9.4277016E-4
0.0022339665
0.0014244907
3.9544853E-4
6.511798E-4
5.843613E-5
-2.9228033E-5
-1.388969E-4
-6.365943E-4
-9.385961E-4
-0.0020055082
-0.0035760864
-0.004650356
-0.003923877
-0.0027090537
-0.0026047837
-0.0023226242
-0.0026576384
-0.0032168508
-0.0018584107
-1.2238153E-4
0.0010510175
0.0024215134
0.0018508639
-0.0017745658
-0.0046726367
-0.004862825
-0.003576757
-0.0011497433
0.001690215
0.0041363123
0.0050775968
0.005931181
0.007660631
0.005454728
0.0027812228
0.004249329
0.0034870985
0.0026133184
0.005192148
0.0047756103
0.0017930722
9.68467E-4
0.0019955668
0.001429341
-0.00244841
-0.0064756423
-0.009025759
-0.008760201
-0.0043578567
-0.001377784
-8.7185414E-4
0.0012668932
-1.306403E-4
-0.0043213293
-0.002456302
4.9691505E-5
-0.0019732744
-0.004033585
-0.0051970333
-0.003975266
-0.0018022074
-1.5036586E-4
0.003377715
0.0045463676
0.003699464
0.0038579842
0.0030921604
0.0032667883
0.003050255
0.0027006033
0.003463814
0.0011769643
-5.87683E-4
-5.7363854E-4
-0.0020276466
-0.0025804485
-0.0022819692
-8.7599276E-4
4.6667125E-4
5.248162E-4
0.0014083105
4.573278E-4
1.12469E-4
0.0027878128
0.0020857619
-0.001131472
-0.0019129345
1.5628253E-4
0.0016398566
1.0035242E-4
-3.048226E-4
6.9110666E-4
0.0011201841
0.0019894266
6.077234E-5
-0.002327359
1.8925998E-4
0.0012303521
-0.0019472276
-0.0025897152
-0.0016819652
-0.0021492266
-0.0019998767
-0.0015243004
-4.2097605E-4
-0.0011600395
-0.005219271
-0.004196803
0.0019120731
0.0043251286
0.0025764322
8.083727E-4
0.002309495
0.0035479644
3.595535E-4
-0.0016004512
-0.0012309037
-0.0020458049
-0.0016583297
4.1894786E-4
0.001966351
0.0021541691
0.0023205671
0.003948799
0.0038762114
0.0011288769
-6.349739E-4
-1.3055468E-4
0.0025452494
0.0048500635
0.004087675
0.0019384854
-4.5014435E-4
-0.0016018399
-0.0014352953
-0.002770273
-0.0036916784
-0.003576913
-0.0041805063
-0.0035806417
-0.003145094
-0.0034632958
-0.0030148048
-0.0044090804
-0.0056510754
-0.0036101846
-0.001793903
-0.0012462838
-9.1272226E-4
-0.0017657529
-0.0016896734
1.0653689E-5
3.935591E-4
9.832515E-4
0.0018961441
0.0033336764
0.008371143
0.01078638
0.011282034
0.013256862
0.007356601
0.002431109
0.0070824143
0.010589678
0.011344485
0.004381725
-0.008586657
-0.013074799
-0.011364972
-0.0075549856
-0.005597173
-0.007836734
-0.005323953
-0.0010040177
4.9649992E-5
-0.0020989736
-0.0077418024
-0.009118072
-0.0070073367
-0.0056519806
-0.0031998027
-0.0019031401
-7.446666E-4
6.8267493E-4
0.0020123343
0.004789379
0.005693352
0.0059550866
0.0075572864
0.0073489086
0.004820431
0.0015826294
4.901207E-4
0.0018688712
0.0028875486
0.0015622212
-4.8742312E-4
-6.383906E-5
-4.4122263E-4
-0.001265457
1.5791903E-4
-0.0012693409
-0.0019554142
7.939905E-4
-3.1738164E-5
-0.0015065536
-0.0011181461
-0.0010791245
2.712884E-4
8.678421E-4
1.52056045E-5
-5.903876E-4
-9.3476096E-4
3.10746E-4
0.0012675371
2.310133E-4
-9.724657E-4
-0.0015321064
-9.950369E-4
-6.971698E-5
5.994726E-4
6.1754734E-5
-0.0025068847
-0.0026434693
-5.8782485E-4
-0.001438395
-0.001751294
4.957578E-4
7.675918E-4
-5.3867965E-4
2.0160405E-4
0.001552012
4.514416E-4
4.583154E-5
0.0015124767
0.0014764384
0.0015265532
0.0014049298
2.9747945E-4
0.0011445007
0.0010783189
-9.381952E-4
-9.859629E-4
3.2082212E-4
0.0013885854
0.0014579317
2.5544254E-4
-5.388756E-4
5.3408585E-4
0.0016420016
5.435654E-4
-4.1120808E-4
-0.001337788
-0.0020412698
4.589291E-4
0.0017930601
0.0014616605
2.1040127E-4
-0.0043876204
-0.0033630743
0.0013041195
1.9830518E-4
3.4786545E-4
0.0012875892
-0.0011102676
-0.003226229
-0.0052345563
-0.0045028226
-0.0019192171
-7.0419454E-4
3.351455E-4
-1.00347526E-4
0.0011865667
0.0029195496
9.6878136E-4
0.0016558031
0.0033681865
0.0028240178
0.0042383755
0.0040934137
9.0509746E-4
-7.694798E-4
-3.149995E-4
0.0010850697
0.0021293398
0.002112597
0.0010643285
-2.3017438E-4
-9.088485E-5
0.002025878
0.0028169435
-4.612998E-4
-0.001741499
4.387124E-4
-2.783547E-4
-0.0020208966
-0.0033841415
-0.0049604834
-0.0048622168
-0.005437627
-0.0040932004
-4.4320725E-5
9.6540584E-4
7.369184E-4
2.3443319E-4
-4.7782672E-4
6.771322E-4
5.3504936E-4
1.088717E-4
0.0010159026
2.460874E-4
-5.722519E-4
2.1707728E-4
9.5815863E-4
0.001280164
0.0019770418
0.0021130731
7.548389E-4
4.733941E-4
8.032459E-4
6.1597925E-4
0.0022608556
0.0029361385
0.0017280746
0.0017284267
5.390673E-4
-0.0013583791
-7.553392E-4
-8.4064806E-5
-0.00143762
-0.0026290477
-0.0019523322
-0.001404919
-0.0013467413
-7.92044E-4
-0.001144904
-9.900891E-4
-5.5960374E-4
-0.0013295371
-4.3418055E-4
6.512936E-4
5.167849E-4
7.1183906E-4
4.089564E-4
0.001982137
0.002809095
-5.3194334E-4
-2.7439205E-4
0.0027220366
0.0018936823
4.9381127E-4
-0.0011609962
-0.0023356646
-1.5064035E-4
0.0010424433
0.0013368925
0.0022592903
0.0013283432
0.0018599904
9.687397E-4
-0.0045006988
-0.0040297373
5.9024984E-4
3.6022507E-4
4.9624803E-5
-3.929665E-4
-0.0024783274
-0.0017635232
-7.630323E-4
-5.9695554E-4
-2.454272E-4
-8.1257365E-4
-2.2742525E-4
1.452277E-5
-8.9629105E-4
-2.6937135E-4
2.882932E-4
5.233834E-4
5.632131E-4
-5.252033E-4
5.5971137E-5
0.0017242485
0.0016182031
0.0012170351
8.995475E-4
6.177166E-4
0.0024513341
0.0033291413
4.493749E-4
-9.987563E-4
1.5370551E-5
8.995302E-5
3.2132427E-4
8.253587E-4
0.001129559
0.0013285552
2.332322E-4
3.9483278E-4
0.0023010392
4.9337995E-4
-0.0035059706
-0.0033222854
-0.0016077539
-0.0019551117
-0.002129896
-0.002309777
-0.0019181835
-2.832749E-4
3.7229445E-4
6.649522E-4