-0.0030926554
-1.17983276E-4
0.0016773872
0.0026265276
0.0032505803
0.0032591117
0.0013368605
-0.0023222708
-0.0034185036
-0.0010179129
1.7708888E-5
-0.0024287314
-0.005654763
-0.0049662082
-8.383588E-4
-1.2865302E-4
-0.001243031
0.0018082907
0.004399722
0.0033941744
0.003682468
0.0042176023
0.0016348149
-9.466132E-5
0.001057781
0.0018557558
3.4841313E-4
-0.0020544138
-0.0011925714
7.223085E-4
-1.9680671E-4
3.0344387E-4
0.0021612549
0.0031146563
0.002910652
-2.2612004E-4
-0.0018945539
-0.0017024201
-0.0021110266
-0.0018190452
-0.00458265
-0.0063153096
-0.0045346017
-0.005545101
-0.004377781
-7.3363056E-4
4.424779E-5
4.083253E-4
9.764987E-4
0.0020674602
0.0028736948
0.0028999967
0.0025231626
0.0022162131
0.004830851
0.0050141746
0.0027386227
0.0019423743
-0.0029270432
-0.0040057446
0.002289807
0.0047164275
0.0052680094
0.0062433425
0.0057923747
0.004881659
0.0016696131
-0.0022425489
-0.005172668
-0.0067302086
-0.0066398145
-0.006355921
-0.0048594493
-0.0033210954
-0.004282877
-0.0067177713
-0.008104403
-0.006927396
-0.0031149718
0.0022947802
0.0041434513
0.0024882709
0.0030696748
0.0052389754
0.007529464
0.0059402953
-1.4756864E-4
-0.0028084086
-0.0034361663
-0.0035534648
7.327583E-5
0.004203443
0.006920236
0.008009852
0.009582421
0.012311014
0.009844246
0.0021645222
-0.0050388044
-0.008775436
-0.009675634
-0.008595399
-0.0034707105
0.0019191926
0.00312256
0.0026169964
0.002624873
0.002779
-0.0012207965
-0.0088039795
-0.012093243
-0.01043645
-0.007750645
-0.00499889
-0.0012490147
0.0022101423
6.612232E-4
-0.0032854972
-0.0026445633
-3.53489E-4
-9.0455334E-4
-3.8421396E-4
0.0030926608
0.00714001
0.008481625
0.0030891064
-9.5456126E-5
0.007031311
0.012096351
0.010707128
0.009693618
0.0067888927
0.0014416995
-7.956937E-4
0.0023814717
0.0034021456
-0.0018761073
-0.0036993066
-0.0019695829
-0.0045018145
-0.00862448
-0.009151433
-0.006201773
-0.0049402085
-0.005864077
-0.0061683427
-0.0070925187
-0.0073314123
-0.0070751393
-0.0060506067
-0.0028179607
-2.0403419E-5
0.002769258
0.0040597077
0.0058772913
0.0108491955
0.010034656
0.00660789
0.006583926
0.004254122
0.0020477374
0.0017136078
0.0025437213
0.004372096
0.0034216112
0.0015999753
-0.0025602272
-0.009048027
-0.009123505
-0.0043092757
-0.0031957857
-0.007583516
-0.009446462
-0.0034324653
0.003459084
0.006826132
0.0064987782
0.0029124336
6.862038E-4
0.0011303576
0.0016193638
0.0032895033
0.008416849
0.009972261
0.003982068
-8.0438686E-4
-0.0033788027
-0.0050072493
-0.0025453595
-1.4532477E-4
8.266373E-4
6.771999E-4
-0.0015436251
-0.0037470583
-0.0067207017
-0.0075187557
-0.0048647835
-0.0049307914
-0.007015543
-0.0062317206
-0.0032252928
-0.0018270505
2.6894492E-4
0.0065062996
0.010211226
0.00859668
0.0059777023
0.004139091
0.004113356
0.003968134
0.0032475085
0.0023056017
-0.0013017858
-0.0026995982
0.0020961473
0.006089804
0.004295998
6.989428E-4
-0.0012834322
-0.0050582835
-0.011539452
-0.014655322
-0.011177683
-0.005007203
-0.0013647297
-3.674417E-4
0.0017078372
0.0049100774
0.0054241987
0.004386388
0.0037229008
3.5082345E-4
-0.0013746641
0.001810934
0.0030035821
0.005400566
0.009521287
0.0058974586
0.0017977348
0.0027183408
4.0129578E-4
-0.0030877176
-0.0031180934
-0.0019304756
-0.0013923092
-0.0014036255
-8.527694E-4
-0.0018499636
-0.005116177
-0.008402998
-0.010677728
-0.009967434
-0.009613041
-0.011567375
-0.008793537
-0.0013633486
0.005891801
0.011464972
0.013458857
0.012353722
0.0071329935
-2.732933E-4
-4.361755E-4
0.006559008
0.010943502
0.0100231385
0.007660502
0.003510956
-0.0015551371
-0.0032850944
-0.0052731256
-0.005831782
4.8081184E-4
0.00561326
0.0061571654
0.004645803
9.6339715E-4
-0.0052035884
-0.014977421
-0.018235087
-0.016160596
-0.018588305
-0.013699628
-0.007510822
-0.006804417
0.0040770867
0.012497245
0.012550003
0.014772944
0.00837924
0.0020618
0.00589992
0.00627967
0.0051111802
0.0068004434
0.008738872
0.010417905
0.008225085
0.006256249
0.006318442
0.0013167148
-0.006260253
-0.008585246
-0.0066450485
-0.005051183
-0.0033177678
-0.003358906
-0.0055877366
-0.0029204472
4.1146527E-4
-0.0027488356
-0.0066397777
-0.0078104557
-0.007642654
-0.007056735
-0.0051920796
-0.0019490031
-0.002868353
-0.005656747
-0.003127407
8.1893784E-5
-0.0014129402
-0.0047490224
-0.004442175
3.9268186E-4
0.005018334
0.009958042
0.014705289
0.011288648
0.003984479
0.0013567068
-0.0034282866
-0.009838836
-0.0073509165
6.2747154E-4
0.00856601
0.015071464
0.016691178
0.016732536
0.0153168915
0.010808579
0.0106654875
0.011097649
0.0053586527
-3.889333E-5
-0.0064457585
-0.016232843
-0.020771578
-0.018794844
-0.015982792
-0.013412064
-0.009430254
-0.007889851
-0.011147371
-0.009516414
-0.0035740011
-0.0040866537
-0.004093329
0.0012706488
0.0018308847
-0.0010474749
8.9353666E-4
0.0035348411
0.0032926947
0.0069476194
0.012013019
0.009816183
0.005493528
0.0036326274
0.003597255
0.005601056
0.005872014
0.0072503956
0.008828853
0.003408846
-8.753219E-4
8.116461E-5
0.0013194819
0.0014438668
-0.005377864
-0.014182799
-0.013762686
-0.0063504553
0.0033688352
0.00972232
0.009411397
0.0059822327
0.0014033216
-0.0011232813
-0.001571725
-0.0031721552
-0.0034867832
-0.0020427827
-3.387947E-4
0.0010168778
-7.71853E-4
-0.005373178
-0.0104812225
-0.013464753
-0.012625783
-0.009764147
-0.003335173
0.0054608565
0.010174197
0.012219105
0.014372282
0.012487469
0.0025579424
-0.009235532
-0.012210114
-0.010788394
-0.009761413
-0.0037302282
0.0029512171
0.0072614267
0.01083625
0.010755133
0.011822792
0.01568034
0.016079813
0.0105854655
-0.001218936
-0.011790721
-0.01377015
-0.01125853
-0.009026616
-0.008216164
-0.0064222957
-0.0011725482
0.0037345944
0.0014822232
-0.007138563
-0.010430181
-0.0032340118
0.0063619427
0.010216572
0.009034167
0.00955395
0.009822594
0.0048117843
-0.0018619825
-0.007998891
-0.012025629
-0.011007506
-0.0067226957
-0.0046230713
-0.0069673215
-0.0073588723
-0.0041169524
-0.0010100064
0.005084958
0.013215647
0.01650884
0.012705221
0.0071477005
0.004583777
9.3557715E-4
-0.0031676642
-0.006396034
-0.0116484715
-0.0105910245
-0.0037511785
-0.0022658464
-3.1179038E-4
0.005327076
0.0066080815
0.0050496897
0.0044589476
0.0052909674
0.008803161
0.010984045
0.007579226
7.3318527E-4
-0.0048227953
-0.0055891704
-0.0042806375
-0.0043759686
-0.0054954556
-0.008224171
-0.008880758
-0.0046028574
1.1641628E-4
0.0032432775
0.005458017
0.008460017
0.009060752
9.21108E-4
-0.0073940945
-0.0071933814
-0.0047699166
-0.006105775
-0.011684413
-0.013850704
-0.0064225863
2.336742E-4
-4.7813033E-4
-0.0014730095
-7.3650875E-4
-3.1801732E-4
0.0016690755
0.0060462533
0.010188171
0.011257095
0.013198223
0.019009676
0.018774232
0.010157805
0.002182777
-0.0050380207
-0.011271677
-0.013681253
-0.012522976
-0.0064823646
0.001747859
0.0072799935
0.006834803
0.0012530255
-0.005080877
-0.009665802
-0.00752239
-0.0041067125
-0.0073554665
-0.007365275
-0.0031894618
4.3651284E-4
0.004518962
0.0021774904
-0.0016235047
8.206645E-4
0.0031824764
0.004331855
0.004865124
0.0044134744
0.0053901416
0.008603186
0.01251776
0.012715338
0.0066479486
-0.0058907107
-0.01462471
-0.0090814065
-0.0030571434
-0.0032430927
0.0015677586
0.0061533973
0.0022455808
-0.0035158917
-0.007325937
-0.011704333
-0.012407796
-0.007714407
-0.0050843116
-0.003399685
0.0012909971
0.005803326
0.006546106
0.0038802202
0.0022487806
-0.0026623285
-0.00766082
-0.00217403
4.066595E-4
9.750188E-4
0.009112735
0.005739051
-0.0010444722
0.006890238
0.010495245
0.0054693585
0.0034211795
0.0013646426
-5.052382E-5
0.0017569661
0.0022576684
0.0016534987
0.0041203913
0.0061600083
0.003114096
-0.0022952766
-0.00797337
-0.012321422
-0.011392327
-0.0052026487
0.0015084625
0.0031980446
-1.03006074E-4
-0.0026932028
-0.0031641724
-0.0048147473
-0.0070500565
-0.0074766334
-0.0077673676
-0.0074270656
-0.0036922097
2.440114E-4
0.0033539736
0.008705046
0.011796813
0.010263384
0.00937494
0.007836709
0.0037507329
4.941846E-4
-0.0015184878
-2.9247557E-4
0.0030764423
0.0014567211
-0.002599312
-0.0042421944
-0.005196986
-0.0043502105
-0.0025228777
-0.0030252377
-0.0031057626
-1.1211435E-4
0.0024607142
0.001041921
-0.0016737193
-0.0011226275
0.001581485
0.0025338703
0.0026914673
0.0037986618
0.0037977153
0.005625155
0.00833116
0.0031985429
-0.004140344
-0.0068051103
-0.008630999
-0.0072283484
-0.004334743
-0.004418847
-0.004239726
-0.0034033055
-3.5115264E-4
0.0028849286
1.9002178E-5
-0.0048381453
-0.0078784255
-0.008325727
-0.0047274414
-3.3481605E-4
0.003965724
0.007880164
0.00983181
0.010075291
0.009025847
0.009500388
0.009055112
0.0049965875
0.003131593
0.0036246553
0.0055005327
0.009081588
0.006074741
-0.003954309
-0.010627552
-0.010626096
-0.008300633
-0.0076385746
-0.008900319
-0.010097451
-0.007791696
-0.0017945947
0.0022162057
0.0026297614
0.0016199956
-0.0011993002
-0.0031861302
-7.684775E-4
0.0015054448
6.663392E-4
0.0010719704
0.0016566741
0.0026068434
0.005876895
0.005821811
0.006666098
0.01011047
0.006453665
-4.091211E-4
-0.0076085366
-0.011246885
-0.0031009256
0.0016722699
-0.002809849
-0.0044173254
-0.0061533256
-0.008851713
-0.009723619
-0.010003108
-0.0054078638
0.002797195
0.0092050405
0.013898087
0.014999549
0.0077013024
-0.0015731351
-0.0036204774
-0.004786158
-0.0066932193
-0.0040944153
0.0012630644
0.009298748
0.0125563
0.008482392
0.007086941
0.004449767
-0.0016248337
-0.005397324
-0.005787757
-1.9140159E-4
0.004809345
0.0039704726
0.002586765
1.5705261E-4
-0.002041555
-0.001752088
-0.0025744562
-0.0053707696
-0.007544997
-0.0075379238
-0.0069951382
-0.0033009355
0.0046236548
0.007112482
0.0022528532
-0.0028991764
-0.00657551
-0.010141381
-0.012211271
-0.00971071
-0.004816092
9.6619077E-4
0.007570783
0.009074961
0.0054525137
0.0028082232
0.0027807897
0.0031611316
0.0031580727
0.0049587437
0.006421029
0.007028747
0.0076016383
0.004490627
3.4992487E-4
-0.0033543198
-0.007599679
-0.010169791
-0.012149282
-0.009679414
-0.0040409407
-0.001736696
0.002314183
0.0059670173
0.0046335184
0.0030039977
9.714975E-4
0.0019953633
0.00732098
0.006271605
-9.167539E-4
-0.0025949883
0.0010642663
0.0023837625
0.00375739
0.006586032
0.0046418086
0.001588956
0.0049448037
0.010524819
0.008559562
-0.0033534567
-0.014462445
-0.0159382
-0.0130774565
-0.010682067
-0.007026493
-0.0027161262
-6.661845E-4
-0.002581682
-0.003906646
3.721745E-4
0.0042329063
0.003053752
-0.0012203312
-0.004784895
-0.0011252214
0.0047634286
0.0062349485
0.00644664
0.0060640927
0.008650468
0.010112715
0.004070662
-0.0029641192
-0.012850885
-0.01692867
-0.0055764853
-3.4284257E-4
-0.002389313
0.0036073406
0.008452336
0.008000057
0.0063232114
0.0011255998
-0.00483424
-0.00637628
-0.0069167577
-0.008318868
-0.0038084665
0.0032231477
0.008147096
0.01314924
0.011233794
0.0047373776
0.002507551
0.0014962072
-2.1575883E-4
-0.0034311884
-0.006453053
-0.0067567034
-0.0041747172
0.0011631589
-4.6618303E-4
-0.0066747614
-0.005759102
-0.004528865
-0.004249703
-9.804651E-4
0.0012292069
0.0036622866
0.005652282
0.0062959716
0.006161597
0.002421922
-0.0036018456
-0.009241997
-0.010383492
-0.0075151226
-0.0066106105
-0.0046556736
0.0010541807
0.00717832
0.008913969
0.0021256714
-0.0068003475
-0.00942107
-0.0062153856
-0.0017130574
1.6705487E-4
8.0042804E-4
0.00332708
0.007228043
0.00988641
0.009733521
0.0067311646
0.0015129029
-4.2656253E-4
0.001379756
1.4194933E-4
0.001693328
0.010500457
0.01508838
0.012604451
0.009762585
0.0061480114
1.9252184E-4
-0.0052768467
-0.008437337
-0.008708383
-0.0050535104
-6.0487376E-4
8.432093E-4
-0.0021128664
-0.01082785
-0.018199753
-0.017859437
-0.018449564
-0.026947618
-0.03666844
-0.0365903
-0.026160328
-0.0140225915
-0.0037554016
-0.0013867518
-0.0077000977
-0.009626011
-0.009615517
-0.011893128
-0.006752787
-7.466146E-4
-0.0021746797
-0.003037831
0.00163913
0.009205626
0.017311102
0.023963682
0.024832655
0.027044673
0.04117473
0.060037456
0.07128672
0.06564824
0.0500213
0.042544972
0.03713008
0.016145186
-0.01654371
-0.033310138
-0.027880214
-0.022197384
-0.011934804
0.0035623368
0.011630639
0.016818263
6.5253256E-4
-0.043315567
-0.08161753
-0.10581487
-0.122457705
-0.12249843
-0.100963265
-0.07212247
-0.05120459
-0.031324994
-0.009123865
0.009509371
0.026834691
0.038007487
0.046196528
0.07491591
0.1143619
0.117857605
0.09150779
0.079478845
0.08065949
0.09215265
0.11143802
0.10929622
0.100205876
0.09410458
0.045738135
-0.047774494
-0.14561594
-0.21297838
-0.21373369
-0.15046164
-0.058631897
0.03600268
0.0914989
0.09298975
0.06273637
-0.015059813
-0.12036365
-0.18377912
-0.18420988
-0.1430967
-0.10271785
-0.057691015
0.00998656
0.07688009
0.17520382
0.24673465
0.18739833
0.11657467
0.1245301
0.14234637
0.11615593
0.015446742
-0.086924165
-0.10925358
-0.10739419
-0.11466736
-0.10393886
-0.11298731
-0.1745466
-0.17657065
-0.07586051
0.016231824
0.10039721
0.15893154
0.15579163
0.15627277
0.07668379
-0.046109293
-0.041048788
-0.017171068
-0.008908554
0.03379379
0.010516273
-0.042857334
-0.067449
-0.073434174
-0.03357141
0.051667713
0.18600015
0.274281
0.23594941
0.1622989
0.06523688
-0.068939395
-0.16898009
-0.21159513
-0.22535558
-0.25808486
-0.28784126
-0.25757962
-0.18235165
-0.08568293
0.027144285
0.14666578
0.19856806
0.1487855
0.1147117
0.13135566
0.12899283
0.08131295
0.02938061
0.025910811
-0.03362729
-0.16341873
-0.17217238
-0.07095041
0.023108779
0.09545821
0.14143133
0.17992742
0.20027398
0.18523091
0.14859
0.090549245
0.037521705
-0.028775709
-0.15455781
-0.2852593
-0.31844258
-0.23325707
-0.11947692
-0.03923122
0.009875313
0.028281847
0.059107844
0.12124279
0.14055847
0.06111882
-0.061501276
-0.12497137
-0.11953756
-0.085446924
-0.036567595
0.00272557
0.03573172
0.075010546
0.08014752
0.03618835
0.014888483
0.060910568
0.090189315
0.052161586
0.023172589
0.029304557
0.027399262
0.020289995
0.00802498
-0.031629026
-0.029625107
0.04623344
0.053051636
-0.02456415
-0.053994868
-0.04263192
-0.021122592
-0.014308144
-0.06985077
-0.10471115
-0.07724236
-0.046702128
-0.013708939
0.0055248635
0.007302764
0.024259211
0.03232239
0.028193744
0.026905872
0.0084412955
-0.020381061
-0.034479767
-0.017552031
0.023224272
0.065158166
0.103812665
0.09999291
0.03434591
-0.014460193
-0.015365664
-0.008591536
9.0777257E-4
0.005741573
-0.0043819887
-0.013368942
-0.012960195
-0.008407504
-0.010413645
-0.013297809
-0.008292315
-0.0073681967
-0.0093378695
-0.008616847
-0.007897961
-0.003977313
7.392659E-5
0.004602595
0.01043051
0.012859782
0.014910256
0.010846251
0.001274424
-3.0257137E-4
3.987921E-4
-0.0024565393
-0.004339403
-0.0048791566
-0.0049847113
-0.009258282
-0.014612241
-0.016227487
-0.018713351
-0.017204471
-0.010864023
-0.007950445
-0.004697695
3.5995082E-4
0.005099402
0.0112642795
0.013814162
0.012220769
0.012582001
0.013115405
0.01055371
0.007447583
0.0064043626
0.0090735145
0.015863689
0.017814728
0.012050318
0.00948172
0.004680655
-0.0062596016
-0.0069463556
-0.0019055287
-0.0049583847
-0.010393247
-0.011950164
-0.007465729
-0.0031100588
-0.007806792
-0.0128321415
-0.010299459
-0.0067107566
-0.0053315773
-0.0032993585
-5.579484E-4
0.0015016708
0.0032567207
0.0034009626
0.0019024026
0.0013217565
8.8836247E-4
-2.0732498E-4
-0.0012008098
-9.6447574E-4
0.0011437587
0.003204678
0.0048183855
0.0049351687
0.0035928234
0.0031729226
8.23267E-4
-0.0018856056
-0.0011680349
-3.1534265E-4
6.199463E-4
0.0011132016
4.683806E-4
0.0011254073
6.998829E-4
-5.549725E-4
-4.4498887E-4
3.593114E-4
0.0017054072
0.0018454968
0.0017584966
0.0030929171
0.0064511187
0.010094274
0.007932033
0.0052965283
0.006392201
0.0029022985
-0.0023401822
-0.0048449603
-0.0071376446
-0.0073738527
-0.0066404375
-0.0067663477
-0.007369337
-0.0075969603
-0.007388435
-0.010763117
-0.012277644
-0.005748985
6.9381105E-4
0.003499579
0.0045738365
0.004010259
0.003894095
0.0036268465
0.003542689
0.004307859
0.004488547
0.005802747
0.006937342
0.006908388
0.009226295
0.01051654
0.008195099
0.006092837
0.0026467876
-0.0021588493
-0.0037200784
-0.0049218494
-0.007434694
-0.006626608
-0.0047380966
-0.005724994
-0.007000648
-0.0075320625
-0.008416918
-0.008239348
-0.0064504296
-0.004811728
-0.0024406805
0.0020028106
0.0046519362
0.003962423
0.0034259036
0.004023438
0.0047176867
0.004821434
0.0061028544
0.008568113
0.00862049
0.009467575
0.011550487
0.009245024
0.0057988237
0.0018587498
-0.0033812828
-0.0042608734
-0.0033195154
-0.0017061876
0.0020539062
0.001193276
-0.0036684826
-0.0075079273
-0.009324022
-0.008923317
-0.009266818
-0.009228174
-0.007645809
-0.0067998986
-0.0048485952
-0.0013447312
0.0025245012
0.0039426354
0.0014924003
5.648547E-4
5.5712636E-4
-9.881989E-4
-4.7437666E-4
0.0012980356
0.003437891
0.0071747587
0.009295946
0.007859196
0.006041984
0.0052827615
0.0036509337
0.0021771102
0.0021965099
0.002673998
0.003732362
0.0049139257
0.004337123
0.0011719698
-8.9901057E-4
-0.0010984652
-0.004586113
-0.0075418283
-0.0065721646
-0.006550897
-0.005538075
-0.00192075
9.209246E-4
9.3649625E-4
-0.0027049107
-0.004615251
-0.0027611793
-0.003168981
-0.0036188138
-7.694758E-4
1.2308196E-4
8.094282E-5
0.0019446666
0.001563892
4.5232355E-4
8.8362914E-4
0.001632815
0.0038357992
0.005019863
0.0048177894
0.0050498294
0.007637419
0.012259882
0.0057066125
-0.0055083027
-0.0021666023
0.0016810542
-0.0015477876
-0.0017359763
-0.0035325342
-0.0065874653
-0.0059443205
-0.00279053
-3.9087172E-5
-0.001307584
-0.0029081688
-0.0032523773
-0.0034610482
-0.0022219014
-0.0021939387
-0.0017595135
5.80507E-4
0.0021804492
0.0018990757
-3.5074956E-4
-2.8959327E-4
2.3498813E-4
-0.0013063949
9.995067E-4
0.0040754373
0.0049711117
0.006834377
0.007249539
0.006001969
0.004549154
0.0015286431
-0.0027214978
-0.004282697
-0.0018587826
-3.8324707E-4
7.69413E-5
0.0013173271
0.0021143395
0.0021019909
-0.0016950432
-0.005775003
-0.005526664
-0.0050995788
-0.0039629387
-0.0024019766
-0.0023252806
-6.0900574E-4
0.0012649581
0.0024948898
0.0028794515
-3.560388E-4
-0.0033767566
-0.0036218362
-0.0028244823
-8.425716E-4
4.0341244E-4
7.4067886E-4
0.0030743747
0.0048733875
0.0027610578
2.670966E-5
-2.0567326E-4
6.707361E-4
0.0011750653
0.0011592206
0.0011742554
0.0022460455
0.0033941008
0.0022349267
7.586394E-5
-6.649223E-4
-0.0013452498
-0.0016562408
-0.0011390129
-0.0023043703
-0.0020926674
0.0015872559
0.0036285503
0.0031192475
0.0012527438
-0.002678491
-0.0050784987
-0.0032155733
-0.0013816355
-0.0025138224
-0.0024581263
5.077917E-4
0.0025682333
0.0022672145
8.535267E-4
-8.0643495E-4
-0.0020020264
-0.0016569963
-7.17289E-4
-6.983663E-4
-4.2010786E-4
3.6731962E-4
0.0019666825
0.002869134
3.8037717E-4
-6.3638383E-4
1.4462344E-4
-0.0018187175
-0.0020385676
-2.737248E-4
2.4683002E-4
0.002018634
0.0035849689
0.003256473
0.0021264944
6.69639E-4
2.7689408E-4
-5.86294E-4
-0.0023958469
-0.0019273831
3.4272653E-5
0.0016621004
0.0036364738
0.0037230994
4.4035152E-4
-0.0011611694
-4.1181277E-4
-0.002651679
-0.0047909394
-0.0027444523
-9.623143E-4
-4.3985478E-4
0.0016104487
0.0034287826
0.0019572272
-0.0013168105
-0.0018546612
-5.6166685E-4
-8.806343E-4
-0.0014253287
-0.0014398266
-9.402772E-4
4.5357872E-4
5.0691614E-4
-7.3686434E-4
-0.0013108025
-0.0012547285
-8.341548E-4
-2.1810415E-4
-5.040257E-4
-0.0013946067
7.9739623E-4
0.0036478785
0.0019763105
0.0012546501
0.00169975
-4.2652918E-4
-1.11849615E-4
-6.1675296E-6
-0.0018737935
-5.2047835E-4
0.0018218044
0.003683904
0.0038501509
0.00205338
0.0014066627
-3.9694624E-4
-0.0021279932
-0.0017308965
-5.189667E-4
0.001428915
1.7715733E-4
-3.528122E-4
0.002330967
6.843578E-4
-6.8687275E-4
-1.9661528E-4
-0.0021038833
-0.001079381
1.19780256E-4
-0.0010863964
-7.532135E-4
-0.0012990944
-0.0019038125
-0.0013319502
-4.3883326E-4
9.460912E-4
-0.0019320175
-0.005753057
-0.0039557014
-0.0015769273
2.502604E-4
0.0026029728
0.0017606628
4.07918E-4
7.645785E-4
5.3636264E-4
6.5904326E-4
0.0011734839
5.861065E-4
-4.2692296E-5
0.0010326989
0.0034235993
0.004159701
0.0023543716
4.261607E-4
-3.5600743E-4
-5.39047E-5
-8.1562204E-5
-0.0011617532
-9.2557643E-4
3.6375437E-4
0.0015760743
0.0033197545
0.0026955954
2.4445425E-4
1.0880832E-5
-2.695103E-4
-0.0020391818
-0.0032300309
-0.0029428068
-8.4414793E-4
9.494478E-4
0.0016887876
0.0018520372
-2.2732935E-4
-0.002594984
-0.0027715694
-0.0018212151
-9.901751E-4
-0.0010896343
-9.22871E-4
2.8411E-4
0.0010816745
8.6869515E-4
1.799118E-4
1.4587611E-4
-1.2182325E-4
-0.0018530013
-0.0034460255
-0.003255196
-6.980441E-4
0.0021148054
0.003189107
0.0031762065
0.0019942792
8.908383E-4
7.740954E-4
-2.1175509E-5
-9.210497E-4
3.0101565E-4
0.002205027
0.0021990607
0.002640778
0.0031404467
3.206447E-4
-0.001820674
-8.7169954E-4
4.6468212E-4
8.316671E-4
-3.0745252E-4
-6.751878E-4
-2.0298778E-4
-0.0016464888
-0.0029727453
-0.0019598156
-0.0011795239
-0.0024248913
-0.0033661022
-0.003332886
-0.00222093
-1.86519E-4
2.9631934E-4
0.0018399493
0.0033742145
0.0021351906
0.0021407132
2.4228569E-4
-0.0017881896
6.200351E-4
0.0014169447
0.0022824814
0.0040889457
0.005488761
0.006277263
7.437827E-4
-0.0022396788
5.784798E-4
1.5284512E-4
-2.6165604E-4
-0.0026733945
-0.0053065373
-0.0014811284
0.0027655207
0.0032811845
-0.003109803
-0.00919434
-0.0054690572
-9.94195E-4
-1.488085E-4
-0.003688859
-0.006273933
0.0010767955
0.0049768123
0.0016986927
5.97467E-4
-0.0015847182
-0.0019722872
6.0042145E-4
8.9293724E-4
9.201298E-4
0.0015318854
0.003165902
0.0044215918
0.0022568812
0.0011101067
0.0022192404
0.0011726555
1.8624561E-4
0.0011601751
9.2826603E-4
0.001103987
0.0025321126
0.0022457652
0.0013687583
-3.967016E-4
-0.0027125347
-0.0029504492
-0.0035015985
-0.003438488
-9.152053E-4
1.7060968E-4
-1.178072E-4
2.0179193E-4
4.985757E-4
7.015796E-4
6.9043715E-4
3.7350963E-4
-6.4668356E-4
-0.0022506632
-0.0022482004
-3.543474E-4
0.0010585045
0.0015086421
0.0013527295
5.735688E-4
2.1315554E-4
-1.5522122E-4
-7.911551E-4
-8.70526E-4
-0.0010569937
-7.152042E-4
5.9773395E-4
0.002058626
0.002334393
3.4002814E-4
-0.0011554634
-0.0025636156
-0.004645178
-0.0034086935
-0.0012331035
5.0924733E-5
0.0020881882
0.0025316367
0.0014153016
-5.7145854E-4
-0.0020643815
-0.0017278455
-0.0016237095
-2.619982E-5
0.0021669588
0.0016489836
0.00261832
0.0049971584
0.003838414
0.001593091
6.585222E-5
-0.0026414965
-0.002890109
-2.7716754E-4
9.459909E-4
0.002635532
0.0030384362
4.1933806E-4
-2.6771042E-4
-1.6504612E-4
-5.818294E-4
-0.0010050129
-0.0014445512
5.2918716E-5
-1.6508879E-4
-4.691344E-4
0.0020551104
7.6921005E-4
-0.002796158
-0.0030894987
-2.3163238E-5
0.002653477
0.0018174002
0.0014219469
5.343456E-4
-9.941848E-5
0.0019712434
7.1465323E-4
-3.46167E-4
-0.0032504383
-0.011327779
-0.0090175085
-0.0018003703
-0.0028100337
-0.002800525
-0.0010746446
-0.001245236
5.683103E-4
0.0031038122
0.003213086
8.851326E-4
-4.2420067E-4
5.2303367E-4
0.0010473008
9.755324E-4
0.0024695823
0.0052872496
0.006250154
0.005971114
0.0057665003
0.0033868747
4.042851E-4
-3.00355E-4
3.8552476E-4
3.906105E-4
0.0013496893
0.005069621
0.006066653
0.0028022828
-0.0016177736
-0.006777412
-0.008089173
-0.005585948
-0.004967125
-0.005275355
-0.0041652857
-0.0016776108
9.919857E-4
0.0018676135
-5.9594086E-4
-0.003839704
-0.003114235
-0.0022364615
-0.0029676203
-0.0017718454
-8.6707016E-4
0.0015393676
0.0045507485
0.00349861
0.003069065
0.0023987025
-1.3611885E-4
-2.8448583E-5
-2.9174908E-4
-8.9409656E-4
9.581892E-4
0.0026245196
0.003736015
0.0029363357
1.406105E-4
-0.001114518
-0.0011552155
-9.3042187E-4
-9.7513763E-4
-0.0011926334
2.9253148E-4
7.0818694E-4
-5.2569265E-4
8.998217E-4
0.0012452755
-0.0019767128
-0.0018562493
0.0010786701
0.0010806903
-4.1496067E-4
-0.0012158806
-2.4630697E-4
0.0029352794
0.0033384096
-5.587137E-4
-0.002256332
-4.884872E-4
3.5871414E-4
5.5682965E-5
3.1744604E-4
0.0011755503
0.0019183329
0.002706458
0.0030916887
3.9872652E-4
-0.002950168
-0.0032753244
-0.0034358753
-0.0033890642
-0.0019740027
-2.6470324E-4
0.0025172671
0.0030366362
4.892629E-4
-0.0015380798
-0.0028383168
-0.0018065961
-6.941236E-4
-0.0018064115
-0.0016390185
-0.0025473519
-0.0035294509
1.7877512E-4
0.0036917094
0.0035059361
0.0022286419
0.0013809409
-5.16633E-4
-0.0024807642
-0.0010902015
6.0427666E-4
0.0023645398
0.004846811
0.003114951
0.0016726576
0.0021926262
-3.8279503E-4
-0.0016755259
-0.0010672467
-0.00139383
-0.0012732929
-7.6598837E-4
0.0012444151
0.0027320704
0.0017561689
0.0010204217
4.9503916E-4
-8.140477E-5
-0.001227018
-0.002329046
-0.0012599189
-4.1606967E-4
1.15581526E-4
0.0014338306
7.228737E-4
-0.0019375113
-0.0032881438
-0.0023328648
-0.0021741276
-0.0025892155
-8.909222E-4
8.6927565E-4
0.0023831066
0.0034621996
0.002335022
6.57965E-5
-0.00169
-6.3017634E-4
6.1865663E-4
-6.1847427E-4
-2.6691094E-4
7.437336E-4
6.6415366E-4
3.3951123E-4
-7.802702E-4
-1.7545641E-4
5.3117277E-5
-0.0019086975
-0.0013728192
-6.75435E-5
3.0918763E-4
0.0018000447
0.0021743358
0.001190658
4.30799E-4
-1.208978E-4
-8.3824864E-4
-0.0025370296
-0.0030262442
-0.0021619115
-0.0019539408
7.8157353E-4
0.0043836073
0.004261696
0.0030243476
0.0011234118
-4.516877E-4
3.9136704E-4
-3.7171968E-4
-0.0010041033
8.35791E-4
6.3426484E-4
-5.055102E-4
4.0095526E-4
0.0016034263
6.897788E-4
-8.3596125E-4
-0.0015165051
-0.0032388838
-0.0030421729
-5.3400575E-4
0.0013231417
0.0031289486
0.0021464638
7.285641E-4
3.4899876E-5
-0.0022011776
-0.0011180603
-0.0040288004
-0.010398148
-0.004861846
0.0028940078
0.0035634004
0.0038497774
0.0028961452
8.1590796E-4
-3.6580712E-4
-4.7142417E-5
0.0010529361
4.6334637E-4
3.7291372E-4
0.0011192993
0.0015866064
0.0017617203
7.6402555E-4
-4.4686164E-4
-0.0020859337
-0.0017293581
1.3807014E-4
-9.628303E-4
-3.6916364E-4
0.0022597956
0.0028866453
0.0047558853
0.005093208
0.0016955305
-1.597497E-5
-7.8233663E-4
-0.0036024055
-0.006298149
-0.0051091528
-8.287465E-5
0.003073793
0.002369467
0.0011899943
-8.1656745E-4
-0.0041689384
-0.005909922
-0.005143755
-0.0033432527
-0.0015650355
2.3961178E-4
0.0014178532
0.0011960805
8.5377885E-4
9.052213E-4
4.1240233E-4
-4.0240528E-4
5.8487087E-4
0.00233348
9.781803E-4
8.6657594E-5
0.0020149613
0.0035192503
0.005359283
0.0050875694
0.0036015494
0.0056772297
0.006143869
0.0029734524
-0.0016208099
-0.0057557756
-0.00596673
-0.004502323
-0.0023985044