-0.0023575039
-0.0035521549
-0.003848857
-0.0037006312
-4.381017E-4
0.003821674
0.00515686
0.006337697
0.005798498
9.080743E-4
-8.3181536E-4
0.0015059405
0.0010490104
9.816248E-6
0.0010263041
0.001257679
8.920494E-4
0.0011832507
8.2599133E-4
-8.750584E-4
-0.0020164202
-0.0013482721
2.6510464E-4
0.0016401614
0.0016117058
0.0014621551
0.0017394442
2.1717127E-5
-0.0019852424
-0.0036733781
-0.006455162
-0.004963901
-0.0012291706
-0.002535488
-0.002143176
0.0022399141
0.0033561666
0.0030477184
0.0025637632
3.041576E-4
-9.880873E-4
-9.4040757E-4
-0.0011765981
-0.0028461155
-0.0036159214
-9.422392E-4
0.002051748
0.0039236653
0.0035138547
5.594541E-4
-8.856933E-4
-6.5974385E-4
2.5326357E-4
0.0012538849
0.0017406777
0.0034461303
0.005003131
0.0053682355
0.0031212983
-0.0013796153
-0.0021340232
-0.0019122935
-0.0034392432
-0.0031117327
-0.0033397416
-0.0021592525
0.0011198199
0.0010797802
5.3789973E-4
-3.1470985E-4
-0.0029635334
-0.002560598
-0.0019051214
-0.004557923
-0.004397999
1.8198093E-4
0.0029609117
0.003271116
0.0029701006
-0.0012760427
-0.005448392
-0.002633179
9.7647257E-4
0.0014755623
0.0026473822
0.0034666033
0.0055558323
0.008717089
0.004368904
-0.0027674015
-0.0028095928
-0.0022711284
-0.0035740538
-0.0025569075
-0.0028746347
-0.0030314384
-1.0896001E-4
0.0021482627
0.0035934388
0.00335859
-7.500941E-6
-0.002095112
-0.0011861748
-1.2539772E-4
3.980736E-4
0.00133924
0.0010433268
-0.0011149996
-0.0020242909
-0.0017699313
-0.0018322245
-0.0013541869
-1.8340164E-4
0.0018050924
0.0022847326
3.4623255E-4
6.896925E-4
0.002702233
0.0020898366
-8.093923E-5
-0.0015678201
-0.0021747863
-0.0029375397
-0.0032571042
-0.002067439
-0.0011538714
1.6259704E-5
0.0021721579
0.0024503334
0.0013137637
8.294013E-4
2.6529394E-6
-0.0012706798
-0.0016731546
-0.0011490542
-1.0791159E-4
0.0014728019
0.0025060012
0.0024115385
0.0022744394
0.0019853613
0.001510233
0.0010037172
1.6731437E-4
-4.2674996E-4
-0.0010009038
-5.717006E-4
0.001221852
0.0015039961
4.659165E-4
-7.0198666E-4
-0.0018633091
-0.0017422715
-0.0010446752
7.0466823E-4
0.003348767
0.0034884724
0.0022971688
0.0011702701
-0.0013006655
-0.00305278
-0.003185464
-0.0030094609
-0.002634537
-0.0028743285
-0.0031653235
-0.002094623
-9.217831E-4
-0.001840528
-0.004001729
-0.0037445654
-0.0023592054
-0.0029014642
-0.0020286993
2.5012088E-4
8.68988E-4
0.0011157632
0.0010136039
6.5584626E-4
-4.1193888E-4
-0.0021561238
-5.218275E-4
0.002383763
0.004025062
0.007936859
0.012627023
0.014455079
0.012179962
0.0073188944
0.0040531787
0.0029585173
0.001787725
-0.0017961535
-0.00463857
-0.002313688
-9.837309E-4
-0.0031373478
-0.0033818672
-0.0033441605
-0.0051872074
-0.0067817494
-0.008256406
-0.009684932
-0.008349646
-0.005218976
-0.00407894
-0.0032329233
-0.0016705397
-0.0014512943
-0.002349011
-0.003558798
-0.0030322548
-0.0014429598
-3.0650492E-4
0.0022323579
0.0047278074
0.0071680667
0.009337051
0.0076960023
0.005036373
0.0045186314
0.005755432
0.006659568
0.004038974
8.431963E-4
7.706654E-6
0.0010415909
0.0029823473
0.0019899628
-0.0015285988
-0.0040514856
-0.004829341
-0.0035454454
-0.002471574
-0.002501444
-7.640621E-4
0.0013855163
8.251804E-4
1.6210813E-4
7.047114E-4
-0.0010975352
-0.0030601914
-0.0020461753
-0.0017560285
-0.0034009046
-0.0040822546
-0.0022688992
3.708935E-4
0.0017900948
0.0017034402
-1.8678763E-4
-0.0011281186
-1.9269224E-4
1.374322E-4
4.9969257E-4
-2.0235834E-4
-0.0010048641
2.6840137E-4
9.691371E-4
0.0013773368
-3.636619E-5
-0.002730614
-0.0011758019
4.3177675E-4
-1.6618517E-4
0.0010636987
0.0031971992
0.005621946
0.006059531
0.0023893667
-0.0016647663
-0.0032990933
-0.0030047756
-0.0021993762
-0.0020139946
-0.0017237223
0.0020711345
0.006823064
0.0053713205
0.0013823406
-2.649766E-4
1.03182145E-4
0.0018159936
3.0766928E-4
-0.0021022311
-0.0027204251
-0.0029957725
9.5965207E-4
0.0015281648
-0.003906649
-0.0036460178
-0.0026959898
-0.0036540343
-0.0014204889
-0.0014967044
-0.0010708802
0.001824979
0.0013411372
9.5827266E-4
8.4853545E-4
-0.0022332382
-0.0035605389
-0.0011297022
5.871199E-4
-0.0014419508
-0.0030775226
7.460778E-4
0.005148666
0.0044004424
0.0021272092
0.0012409758
3.0260632E-4
-9.1613544E-4
-0.001857105
-2.307358E-4
0.0034128511
0.0049344134
0.005796763
0.005775813
0.0025202848
-4.7145344E-4
-0.0030772234
-0.004284218
-0.002109363
-0.0024004187
-0.0033732965
-3.248033E-4
0.0019741724
0.003057258
0.0040086387
0.0020787038
-0.0011642288
-0.0023269812
-0.0020573335
-0.0034890373
-0.0046175807
-0.0032674028
-0.0030508987
-0.0026148479
-8.1373827E-4
-6.2953786E-4
-7.0954015E-4
-0.0014224822
-0.0012453742
0.00159427
0.0010239312
1.0445569E-4
0.0035941068
0.004193961
0.001861567
8.689319E-4
-1.5034716E-4
-5.370961E-4
-3.575408E-5
0.0011732752
0.0017803377
-1.9176387E-4
-6.340744E-4
0.0012510673
0.001529637
0.0011077294
3.9398353E-4
-0.0010326853
-0.0013994613
-5.1896437E-4
3.221902E-4
3.6069725E-4
9.928455E-4
0.001899301
3.3136812E-4
-0.0017043935
-0.0019134651
-0.001977377
-0.001786863
-0.0011515759
-0.0013189798
-4.8580303E-4
0.0018639795
0.001620875
-2.2318407E-5
2.8998274E-4
-2.8605066E-4
-3.034557E-4
0.0012696317
1.133162E-4
-3.5825433E-4
8.710772E-4
-2.937479E-4
-0.0012807306
-9.2602323E-4
3.6761127E-4
9.689775E-4
-0.001990336
-0.0036089562
-0.002323377
-0.0010752429
0.0016817385
0.0039572706
0.004950674
0.005532735
0.0023286978
-0.0014857807
-0.0019224791
-0.0016787879
-4.3055223E-4
0.0010532126
2.788705E-4
5.5078133E-5
3.6059957E-4
-7.419499E-4
-0.0016832566
-0.002627425
-0.0022815876
-9.084319E-4
-0.0015600434
-3.6480167E-4
0.0025799354
0.0021187682
7.616723E-4
-1.7315106E-4
-0.0013795191
-0.0011290667
-0.0014269898
-0.004209395
-0.005852069
-0.0037842023
-7.270655E-4
0.0029316342
0.005122584
0.0024282967
0.0014403887
0.002234343
-6.583009E-5
-8.309463E-4
-6.969006E-4
2.1695945E-4
0.003497344
0.0045866026
0.004483166
0.0040966696
0.0034045693
0.0025703046
-0.0010036066
-0.004183301
-0.0045436453
-0.0012780811
0.002725296
0.0035133897
0.0055327374
0.0027649046
-0.005053757
-0.005456689
-0.005435611
-0.0069697252
-0.0045454837
-0.004638157
-0.0037457044
-2.3025266E-4
-6.7396315E-5
-4.5176942E-4
-2.1137032E-4
-3.3904528E-4
-6.330389E-4
-0.0016104743
-0.0014666899
3.311827E-4
0.0021272479
0.0042172526
0.005656038
0.0033508146
9.3625404E-4
9.0729404E-4
3.1126227E-4
7.662085E-4
-3.301672E-4
-0.0028205318
-8.556203E-4
0.0016473277
0.0035223234
0.0045283767
0.0031509013
0.003675658
0.0022190253
-0.0014180605
-0.0016739153
-0.0012650783
-8.206562E-4
-1.4187145E-4
4.3907092E-4
-4.6512682E-4
-0.0033594554
-0.0034643302
-0.0032231268
-0.0026676985
-1.3324198E-4
-3.2456857E-4
9.7450643E-4
0.0017182055
-0.0015007753
-8.57884E-4
1.4542966E-5
-7.390825E-4
6.494563E-4
7.6230784E-4
8.9941866E-4
0.0013737978
0.0018835721
0.004400978
0.005182496
0.0023049524
-0.0018468989
-0.0033487866
-0.0031349002
-0.00508011
-0.005883388
-0.004951773
-0.0030478546
6.270288E-4
8.675037E-4
-0.0023464356
-0.00409704
-0.0038484042
-0.0032032004
-0.0032268055
-0.0023128074
-3.684552E-4
0.0021988596
0.0051082475
0.0056137023
0.005416263
0.0059751715
0.0062478473
0.007255495
0.008063222
0.009080974
0.008787607
0.0063329386
0.0076772594
0.008377205
0.0031197006
-3.4511584E-4
-0.0034446018
-0.010883805
-0.0151341595
-0.012932825
-0.009117649
-0.0052691363
-9.85323E-4
-5.2701787E-4
-0.0066305245
-0.011360074
-0.009696368
-0.00803976
-0.0076345764
-0.005325835
-0.0034259502
-7.9890306E-4
0.0038231432
0.0059610303
0.0065315394
0.007647504
0.0070401714
0.0062142387
0.006941549
0.0085007055
0.0092740115
0.005758303
9.845224E-4
0.0015932984
0.0042006304
0.0032677893
9.2727155E-4
-9.236678E-4
-0.0021059879
-0.0016295986
-0.0018474315
-0.0027371556
-0.0014694785
-0.001141161
-0.0029847065
-0.0038419133
-0.003599417
-0.0025841042
-0.0018273082
-0.0017597307
-2.7362985E-4
0.0015909072
0.0022703581
0.0021853698
0.001514847
0.0011795928
8.531415E-4
-3.0449464E-4
-0.0020215765
-0.003050798
-0.002266338
-0.0020987159
-0.002205842
8.750678E-5
0.0012500811
3.913238E-4
-6.6619116E-4
-0.0037490153
-0.005656548
-0.0046634
-0.0040743374
-7.9536624E-4
0.0039112912
0.0034690727
0.0010722156
-0.0011386933
-0.0039999513
-0.0027860755
8.029577E-4
0.0018823277
0.002502196
0.005100965
0.009173765
0.010069539
0.0071966904
0.0057017794
0.0029466148
-0.0011833858
-5.0573295E-4
0.002556268
0.0032436831
7.1499543E-4
-0.0024634534
-0.0026481035
-0.0018841216
-0.0030309178
-0.005367781
-0.005376279
-0.003384134
-0.0037316666
-0.0029882425
-0.0020698407
-0.005321423
-0.0063864277
-0.005260603
-0.0050893817
-0.0046268906
-0.0049573677
-0.002873836
1.2374994E-5
0.0010863155
0.0035880653
0.005317567
0.0076378435
0.008981524
0.006271645
0.006864427
0.0074833925
0.004497263
0.0032942386
0.0019614685
0.0014076731
0.0022139547
0.0020959023
0.0032534068
0.0034464307
6.431217E-4
-0.004209569
-0.0091095995
-0.010267321
-0.009104801
-0.007272747
-0.004249781
-0.0016905008
-0.001887063
-0.004484037
-0.0044852835
-0.0026067668
-0.002723587
-0.0024523155
-0.0022163203
-0.0017391103
0.0013167685
0.0045735217
0.0073604453
0.007796596
0.005658942
0.0063712676
0.008020148
0.008371082
0.00940494
0.0076850643
0.004973385
0.0043566674
5.038902E-4
-0.0031394092
-0.0017307323
-0.0022067858
-0.003363732
-0.0010645663
-0.0024917338
-0.0067175347
-0.0068600634
-0.0072254147
-0.008972777
-0.007240325
-0.0059043174
-0.007014643
-0.0067378357
-0.006137984
-0.0039761215
9.641114E-5
0.0018645601
0.004674291
0.0083896695
0.006754052
0.003356468
0.0026334026
0.003570581
0.0049960185
0.0036354526
8.664633E-4
0.0025712452
0.006258043
0.007771218
0.008343914
0.0054542013
1.3733294E-4
-5.861539E-4
3.7033032E-4
-0.0027678744
-0.0076862606
-0.009005336
-0.0053069196
-0.0017192164
5.577563E-4
0.002355514
0.0017162437
5.474936E-5
-0.0038065887
-0.006645988
-0.00401303
-0.003147053
-0.0023985668
0.0016242549
0.0010203191
-9.3552127E-4
0.002194719
0.0056856885
0.005334464
0.0019103939
-0.0036935739
-0.008029876
-0.0053405617
-0.0021926712
-0.002863108
9.169854E-4
0.0029148187
-2.5835625E-4
3.7309463E-4
-1.6848589E-4
-0.0020912094
0.0021324991
0.007384275
0.0088004
0.008831334
0.008776609
0.0056233653
0.0012088642
1.6659047E-4
4.3100357E-5
0.0026931611
0.006926682
0.004958098
6.8764423E-4
-0.0040091667
-0.009972022
-0.011509043
-0.01112684
-0.0099913385
-0.0071839583
-0.007517848
-0.0057226853
-4.7962714E-4
-3.1073854E-4
-0.0019418374
-0.0018252953
-0.0018788556
-2.9295494E-4
0.0014025461
0.0010004968
1.1282117E-4
0.0021212182
0.006799957
0.007918078
0.0073904595
0.0073546213
0.0032153307
0.0023236226
0.0063925507
0.004053909
-0.0011192226
-0.0014619398
-9.55237E-4
-0.0026818935
-0.004183394
-0.004238448
-0.0036752236
-2.3844845E-4
0.004373781
0.005567377
0.0042508123
-4.643753E-4
-0.004816355
-0.0043759085
-0.0053333975
-0.005324913
-0.0014669625
-0.0012668584
-0.0016686699
0.0023370322
0.006138951
0.005531049
0.0011487219
-5.5496657E-4
0.0011624634
-0.0010290217
-0.00493897
-0.0042631547
-0.00334693
-0.0063385223
-0.007874035
-0.004303766
8.479657E-4
0.004048198
0.003560652
-8.50153E-4
-0.004386651
-0.0030061763
2.2116932E-5
0.0023847818
0.0043728733
0.004428776
0.0020373056
-0.0022653975
-0.0041222037
-0.001963502
5.8671366E-4
0.0071193045
0.011881718
0.0064613214
0.0022281401
0.0010437641
-7.4522826E-4
0.0017478798
0.003043673
0.0039396244
0.007028842
0.005012527
0.0022633143
-9.4991985E-5
-0.007460518
-0.012658062
-0.011158156
-0.008592134
-0.008617255
-0.009326471
-0.010730576
-0.013251476
-0.012086669
-0.008846645
-0.006980103
-0.0029552963
0.0019189224
0.0054694796
0.008072177
0.006895018
0.0037159445
0.0014945015
-0.002452103
-0.0053551034
-0.002631766
7.0834544E-4
0.0018349144
0.0032718298
0.0035816517
0.0011422379
-0.004023857
-0.008903088
-0.011441064
-0.013480265
-0.011231459
-0.0075592147
-0.010523519
-0.01233729
-0.005750912
0.005075839
0.015760679
0.027069418
0.041108
0.05128371
0.054118
0.05287324
0.048793588
0.04667925
0.04021847
0.02052652
3.6881174E-4
-0.0128402235
-0.022703612
-0.028457439
-0.035662476
-0.045259293
-0.048787177
-0.049457908
-0.0518467
-0.0478337
-0.03679456
-0.025071882
-0.012068082
-0.0025090093
0.002444354
0.0077381865
0.007498825
0.0013634661
-0.0077981865
-0.021994732
-0.029121894
-0.020419443
-0.008127624
-0.004415047
-0.004604681
0.00453282
0.027796298
0.06050673
0.09165066
0.10372224
0.08125558
0.035500113
0.004935969
0.009114414
0.028156755
0.01990658
-0.024034439
-0.05632308
-0.061382037
-0.052320287
-0.020998668
0.020440215
0.05684504
0.07638426
0.067566596
0.043773785
-0.0019549767
-0.0671604
-0.1249977
-0.17061968
-0.1896303
-0.2000011
-0.2196046
-0.18226649
-0.08481409
-0.0054787896
0.048905473
0.10570208
0.16205047
0.21817371
0.26076087
0.2350737
0.1338595
0.055232033
0.052327167
0.051293284
0.03470793
0.07648975
0.13571529
0.12788178
0.07305815
-0.010574146
-0.07780479
-0.0794624
-0.0776258
-0.08474745
-0.10050736
-0.2003514
-0.30769014
-0.28636014
-0.20035483
-0.1679982
-0.16848193
-0.14668064
-0.103140585
-0.017976025
0.086228244
0.12381071
0.109266244
0.12191419
0.14830455
0.10683157
0.020411968
-0.019918844
-0.0022758704
0.09653315
0.23329483
0.2694631
0.23023006
0.19658235
0.16071382
0.11402972
0.05385995
0.0034368047
-0.04473705
-0.098196924
-0.1098274
-0.10379955
-0.1046163
-0.10209228
-0.12563944
-0.1446114
-0.10127944
-0.023397107
0.006907294
-0.028073657
-0.068052635
-0.10351042
-0.11789466
-0.09025317
-0.09527232
-0.1218466
-0.094445445
-0.04705807
4.547515E-4
0.052537583
0.09904003
0.17146781
0.21622048
0.15493757
0.070318595
0.04585407
0.05905291
0.07294947
0.07614918
0.09355981
0.10861223
0.07705401
0.015159359
-0.07149196
-0.1700883
-0.23088518
-0.23739462
-0.17596021
-0.07858424
-0.043142866
-0.059511323
-0.0074877315
0.12728342
0.22707413
0.2249177
0.15697524
0.08795269
0.032337524
-0.065206476
-0.18559876
-0.21346305
-0.10235606
0.06335707
0.15662362
0.19495565
0.23947899
0.20737103
0.11537396
0.03728859
-0.102025695
-0.2415887
-0.2587976
-0.2332872
-0.21243288
-0.16966577
-0.12116503
-0.06448643
3.9975275E-4
0.07418812
0.12410775
0.09319717
0.04276497
0.021624312
-0.0053551355
-0.0073800045
0.029262388
0.064751185
0.082792915
0.07286636
0.05632911
0.043497235
0.027312439
0.050664835
0.09052297
0.07678435
0.062666364
0.07231212
0.0041653374
-0.11326619
-0.16457397
-0.15657043
-0.08952043
0.028553575
0.10058283
0.10286722
0.07008795
0.017082809
-0.045224775
-0.111427814
-0.1338909
-0.09123294
-0.042398855
-0.026729468
-0.03261655
-0.027186172
-0.0065237666
0.009791901
0.021999199
0.02935076
0.03275879
0.02883156
0.01776146
0.013845477
0.007298064
-0.0013209543
9.045913E-4
0.0053689266
0.011328843
0.018748969
0.026445186
0.037973225
0.046410214
0.04705972
0.041328788
0.032206055
0.022400256
0.015552634
0.009954875
-7.1993825E-4
-0.008837083
-0.01487339
-0.021627976
-0.016817337
-0.010775713
-0.015630212
-0.018507598
-0.012788092
-0.007599727
-0.0119272685
-0.017603705
-0.016096797
-0.013119684
-0.014957046
-0.02288094
-0.025371362
-0.018417226
-0.020181453
-0.04073941
-0.05957402
-0.04695331
-0.027005373
-0.041823335
-0.06724601
-0.071734175
-0.05430649
-0.010824033
0.044500433
0.08609462
0.10656159
0.1063565
0.08899685
0.06528374
0.04086401
0.010460907
-0.012601282
-0.0012814826
0.03374826
0.056889124
0.05118392
0.01972736
-0.0073159537
0.007846033
0.04180902
0.040880464
0.021613408
0.024839306
0.03364133
0.021717349
-0.010390174
-0.04823674
-0.06704284
-0.07542369
-0.108005285
-0.13113815
-0.08860352
-0.025813753
-0.0043364908
0.0029867466
0.022366071
0.0322285
0.021976218
0.0068980535
-0.0028180233
-0.017147979
-0.035466656
-0.04497362
-0.046104576
-0.037389524
-0.021043194
-0.003374603
0.020285567
0.041044675
0.04763063
0.04537224
0.039096624
0.036513634
0.03742827
0.032600768
0.029779764
0.033685505
0.03376055
0.030751713
0.030516632
0.027001983
0.014506489
-0.0041634096
-0.02149785
-0.025408484
-0.011942443
0.0059103775
0.016284812
0.01645448
0.005410552
-0.013959172
-0.030272009
-0.030528296
-0.021609196
-0.020639313
-0.023103906
-0.022850705
-0.023728238
-0.018809782
-0.008355079
-0.0025644724
-0.002577948
-0.006101048
-0.008002951
-0.0064078444
-0.0028835267
0.0027833828
0.004557927
0.005123701
0.009703515
0.008326401
9.754792E-4
-0.0034703508
-0.0064186496
-0.00920868
-0.0073632193
-0.0010102595
0.0032264409
0.0075902953
0.014394188
0.01585201
0.013122952
0.010707502
0.010471195
0.013361577
0.011860249
0.0074141896
0.0080843475
0.011802105
0.014050743
0.010664877
0.0035211286
-0.0013277648
-0.0032575973
-0.004453086
-0.00591434
-0.004610513
-0.002222819
-6.8661175E-4
0.00264206
5.3528417E-4
-0.0059845163
-0.00824772
-0.010690454
-0.010722728
-0.0055171987
-0.0024439213
9.255991E-4
0.0069650374
0.010344734
0.009165391
0.004920411
9.987503E-4
-1.4203486E-4
2.3913762E-4
0.0013057888
0.0036096438
0.0048086816
0.0052888636
0.0072156633
0.005203804
1.3910829E-4
-0.0019035919
-0.0040802993
-0.0058372263
-0.00424625
-0.0010097014
0.0043990794
0.0098635955
0.011295765
0.0076702945
0.0021385355
-5.1359204E-4
-0.0017139884
-0.0035405783
-0.0041510654
-0.0018851723
0.0021526956
0.0044926535
0.006061269
0.006002849
0.0010779531
-0.0025852057
-0.0020302718
-0.002102222
-0.0024552024
-0.0014565118
-3.627155E-4
7.724154E-4
0.0017203182
-8.468494E-4
-0.0059451913
-0.007927921
-0.008264362
-0.008406513
-0.005736046
-0.0021409476
0.0012502124
0.004738395
0.006750764
0.005221252
3.8560273E-4
-0.0023936124
-0.0026625372
-0.0035945775
-0.0031884057
-0.0015797087
4.884832E-4
0.004336506
0.006715359
0.0040070866
-2.76123E-4
-0.0023775017
-0.0043551545
-0.0050432603
-0.0031291125
-0.0012075168
0.0019515478
0.004765371
0.005229321
0.0051765707
0.0035182196
0.0019803885
0.0013075505
8.8472836E-5
-2.3234531E-4
-7.297979E-4
0.0014154587
0.0069775856
0.008473589
0.0053748027
0.0023445892
0.0011938764
2.2981534E-4
-6.913948E-4
6.113293E-4
4.938797E-4
-3.357043E-4
0.0020607866
0.002812366
2.6382407E-4
-0.0022084313
-0.0037129398
-0.0045543993
-0.0058040293
-0.0068648467
-0.00620193
-0.0034341244
1.07260166E-4
0.0025206208
0.0022235867
-0.0013216828
-0.0039328695
-0.0043674284
-0.0046361275
-0.0025315324
-5.0546124E-4
-3.100818E-4
0.0024048532
0.005934658
0.006120169
0.0030047104
1.1425277E-4
-4.3113178E-4
-0.0012131397
-0.0018183449
-9.999711E-4
5.011226E-4
0.0044833324
0.008881372
0.008782964
0.004524564
-7.601546E-4
-0.0030883723
-4.0484147E-4
0.002935631
0.0028877784
0.0020766237
0.0033699467
0.0045775683
0.0032261664
0.0013204702
-4.6951763E-4
-0.0032202427
-0.0038647905
-0.0034309162
-0.0041739293
-0.0028157143
-7.7045255E-4
5.7864055E-4
9.910571E-4
-0.0019701584
-0.0047347876
-0.0062880744
-0.007385364
-0.0057480996
-0.004283877
-0.0034421815
-0.0010959096
0.0020603728
0.004349148
0.0036994996
0.00285183
0.0021226904
2.984617E-4
4.1485325E-4
6.454711E-4
0.0020572175
0.00549887
0.0052022017
0.0040695104
0.0040004007
8.811094E-5
-0.0049448805
-0.0058765025
-0.0030318035
-1.18823125E-4
0.0012727601
0.0017891875
0.0013351681
0.001400073
0.0018351095
0.0011490161
2.4979428E-4
-0.0013576989
-0.0032876988
-0.0031797555
-0.001860317
1.0329272E-4
0.0031325796
0.0037070694
0.0012042915
-5.454387E-4
-0.0018382659
-0.002780183
-0.0022034757
-0.0012366874
5.097122E-4
0.0017919017
0.002318947
0.0031623726
0.0012463473
-8.033643E-4
-8.7824673E-4
-0.003211397
-0.004351908
-0.0024748272
-0.0015474005
7.959584E-5
0.002576488
0.0027216836
6.040848E-4
-0.0019667728
-0.0033858526
-0.0022518435
-4.887461E-4
-0.0011582599
-0.0012155866
7.3789706E-4
0.0030502023
0.005943819
0.0038239984
-8.875949E-4
-3.4684734E-4
-0.0014563788
-0.0038538983
-0.0021669206
-0.0010495841
7.9682807E-4
0.002115537
0.0010277829
0.0014944837
-2.6749322E-4
-0.0022286237
-9.1723213E-4
-0.0025870823
-0.004828673
-0.0031629135
-7.962537E-5
0.002134495
0.0023450372
0.0016454866
4.0120166E-4
-2.6194516E-4
1.503814E-4
-0.0014513195
-0.0028090966
-9.489461E-4
0.0021413865
0.0037579057
0.0018565122
-5.183425E-4
-6.2143215E-4
2.1911164E-6
1.4743682E-4
-0.0012791796
-0.0018711722
-6.7281607E-4
-5.673176E-5
0.0015895709
0.002404975
5.8721664E-4
-9.979076E-5
-4.0567835E-4
-8.705229E-4
-5.047926E-4
-7.855388E-4
-8.1346E-5
0.001440733
0.001796368
0.0015899326
-1.2470123E-4
-0.0021075325
-0.0022783333
-0.0019300049
-6.596424E-4
6.263643E-4
-3.5564892E-4
-8.3595427E-4
0.0014756102
0.0034803122
0.0026165778
8.8302296E-4
-8.546959E-5
-0.001433201
-0.002691027
-0.0027126381
-0.0015476143
1.01852165E-4
8.260118E-4
0.0012588903
0.0011045217
-0.0012085907
-0.0024548701
-0.0013812714
-0.0013238094
-0.0012653933
7.687439E-5
3.3995073E-4
6.4078404E-4
0.0020996758
0.0015073823
9.5482756E-5
5.9134245E-4
-2.9142454E-4
-0.0022446974
-0.0012220417
0.0010854603
0.0021090966
0.00259397
0.0025499435
8.946579E-4
-7.1434036E-4
-5.459964E-4
-8.8397024E-4
-0.0011187016
5.9998006E-4
9.772396E-4
4.5798346E-4
0.0016957849
0.0021199042
0.0015316248
0.0019416704
0.0010185088
-0.00219944
-0.0033280544
-0.0013731712
-8.964611E-4
-0.0014735133
9.5099495E-5
0.0018472974
0.001004982
-0.0024861377
-0.0042033023
-0.0010369788
6.670859E-4
-0.0014113111
-0.0017525022
-0.0018926351
-0.0030200935
-3.963113E-4
0.002959168
0.002693827
0.0020830927
9.1215945E-4
-0.0014393319
-9.852323E-4
2.595455E-4
4.2357657E-4
0.0020895929
0.0023626524
6.916398E-4
9.382859E-4
0.001394742
1.9651647E-4
-9.3686394E-4
-0.0010444124
-0.0012804479
-8.287147E-4
0.0026000398
0.004541683
0.002433276
5.1239535E-4
-0.0011139681
-0.0016605263
-6.058075E-4
-0.0019513866
-0.0035888301
-0.0013237954
0.002243383
0.0028000537
8.2754483E-4
-9.715932E-4
-0.002338008
-0.0020409797
-6.069156E-4
-7.905939E-4
-0.0016425247
-0.0015552923
2.9822395E-4
0.0013721265
-3.992424E-4
-7.399897E-4
3.471444E-4
0.0013072316
0.0025862714
0.0011266868
-0.0011184079
-4.795264E-4
0.0015044877
0.002410768
5.752212E-4
-0.001991513
-0.0026582305
-0.0014941249
-4.037437E-4
-7.858718E-4
-0.0010178665
-0.0016308487
-0.001155866
0.0022455084
0.0031852105
0.0018215162
8.334635E-4
-8.162916E-4
-1.8045589E-4
6.2751025E-4
-0.0010515056
-5.5984047E-4
7.2179997E-4
3.173077E-4
0.0012737291
0.0010904379
-0.0025007634
-0.0029207373
6.206914E-5
3.6786366E-4
-2.1797515E-4
-3.4775402E-4
-1.7248104E-4
0.0014188021
8.6546614E-4
-6.115722E-4
-2.3872696E-4
-4.4343737E-4
-6.4940064E-4
-1.4663288E-4
0.0013502991
0.0026864593
0.0023213758
0.0030208693
0.0023173487
-3.9623442E-4
-6.082511E-4
-0.0013765874
-0.0026473321
-0.001140792
4.0273162E-4
5.9623254E-4
6.044971E-6
-2.5785514E-4
1.9896198E-4
-4.2980355E-5
-0.001581548
-0.003924791
-0.003807816
-0.0018440081
-0.002160269
-0.0017045826
8.714147E-4
0.002087318
0.0024311396
0.0016388241
-6.6779775E-4
-0.0012044224
-4.1297538E-4
-5.580135E-4
5.1745353E-4
0.002015281
0.0012369904
0.0019943335
0.004296895
0.002463325
-6.074053E-4
-7.127374E-4
-0.0012865888
-0.0016905848
-7.990688E-5
-6.845849E-4
-0.0011111897
0.0013958112
0.0013657508
0.001090796
0.00224277
-1.324262E-4
-0.0022717786
-0.0021649755
-0.0020593794
-8.766825E-4
1.7307559E-4
0.002216023
0.0039740195
0.0015802429
-5.8735907E-4
-0.0012597108
-0.0022044124
-0.001414158
-5.720225E-4
1.1116136E-4
0.0014602417
8.48723E-4
1.482899E-4
2.158562E-4
-0.0019528599
-0.0032014018
-0.0013602631
-7.331447E-4
-0.001484864
-7.3294726E-4
8.759964E-4
0.0015627511
0.0016246408
0.0019349298
3.879334E-5
-0.0024883945
-8.2486286E-4
2.4149186E-4
-9.1715716E-4
8.4999553E-4
0.002464195
0.002384931
0.0027231101
0.0011500202
-0.0014493167
-0.0015590497
-3.230504E-4
-9.3011337E-4
-0.001320487
5.9978984E-4
0.0015434946
0.001897021
0.0017133222
-3.1567994E-4
-9.7164075E-4
-0.0015097455
-0.0020461606
-8.026751E-4
-0.0014272566
-0.0016381062
7.4291317E-4
0.0023923
0.0033116927
0.0025621513
4.748941E-4
-9.889443E-4
-0.0020017931
-0.0017084016
-0.0019780037
-0.0022175359
0.0012456581
0.0042341533
0.0033384452
8.9843554E-4
-0.0014320585
-0.0017825143
-0.0016942957
-0.0034633086
-0.0026861469
4.324062E-4
4.3775118E-4
0.0013487788
0.004593938
0.0025999255
-0.0010624455
-4.55169E-4
-8.2027726E-4
-0.0026407216
-0.0019706276
-3.509772E-4
5.245496E-4
0.001227683
0.0023075524
0.0019859213
-5.869637E-4
-0.001775267
-9.76746E-4
-8.8712154E-4
-0.0010036222
-2.8548235E-4
0.0017672639
0.004428776
0.0038429012
3.2279504E-4
-0.0016986321
-0.0023433606
-0.00237579
-8.991685E-4
3.5199517E-4
0.0010812862
0.002206784
0.0025862039
0.0022726676
0.0019670962
8.1441714E-4
-0.0013233979
-0.0020029277
-0.0012047036
-0.0020431099
-0.0022585564
-7.415996E-5
0.0010585468
0.0011194204
2.0283373E-4
-0.001487577
-0.0018701691
-0.0026858845
-0.0034131538
-0.0026437996
-0.0020890497
-6.884622E-4
0.0010294036
0.0015397348
0.0014252621
8.136746E-4
0.0014051296
0.001126703
-0.0018720403
-0.0020614013
3.8711872E-4
8.935224E-4
8.3689933E-4
0.0016811088
0.0020964837
0.0010258765
-8.8067725E-4
-0.0015498009
-1.8298379E-4
5.108588E-4
-0.0012430588
-9.3817356E-4
0.002290482
0.0036367024
0.003304961
0.0012200688
-0.0013532247
-6.378103E-5
6.629084E-4
-9.039031E-4
-2.1069714E-4
2.7797912E-4
4.8606956E-4
0.0018892171
0.00134638
8.318813E-4
9.799243E-4
-7.963001E-4
-0.0018861204
-0.0018588392
-0.0019638008
-0.0017403598
-0.0025045925
-0.001966088
-9.751044E-5
-0.0014539077
-0.0023957936
-0.001644045
-0.0028691322
-0.0023483168
-8.6459034E-4
-8.2914054E-4
0.0012849435
0.0025279603
0.0013326799
6.5247645E-4
-3.3061943E-4
-4.4594292E-4
6.1579776E-4
9.138387E-4
7.9596165E-4
0.0015171649
0.003546469
0.004494635
0.004652961
0.0045517804
0.0016560726
-1.9938653E-4
5.0520943E-4
4.8356483E-4
4.8037105E-5
-0.0020168703
-0.0035151856
-0.0018918238
-0.0010098435
-0.0018639731
-0.0031484687
-0.0027030886
-0.0013960446
-0.0027787245
-0.002714017
-2.0283835E-4
8.588669E-4
0.0019251046
0.0026553727
0.0020709499
9.7258575E-4
-6.1165687E-4
-0.0010608272
-7.4749795E-4
-1.5109466E-4
0.0019645842
0.0038406719
0.0042973054
0.0040394743
0.0020163069
-9.988137E-4
-0.0012731634
1.3575575E-4
-4.357049E-4
-0.0020171932
-0.0032134727
-0.0021608046
6.51037E-4
-1.1322992E-5
-0.0013665525
-6.8780594E-4
-0.0028826485
-0.004544788
-0.0025009378
-0.0011226574
1.3138834E-4
0.0017106533
0.0016757034
0.0011275344
0.0012210882
0.0013917721
1.869828E-5
-9.961654E-4
5.407908E-4
0.0012156614