-0.033551026
-0.02787444
-0.02143737
-0.01634812
-0.016262773
-0.016733129
-0.013766749
-0.013068683
-0.016582564
-0.020852657
-0.019965326
-0.010559423
-5.3455867E-4
0.0056666704
0.010449046
0.013764381
0.017791374
0.021206735
0.02052819
0.019505752
0.022174869
0.027615743
0.031199755
0.029777423
0.023335084
0.012979156
0.0026994161
-0.008161892
-0.021135354
-0.028394897
-0.02601551
-0.017787877
-0.007979588
-0.0012724074
0.0020456356
0.0022734473
-0.0015231235
-0.004878206
-0.0060607395
-0.0074415784
-0.006211523
6.779139E-5
0.0059995437
0.0062427376
0.0048470777
0.005675065
0.005475179
0.0040611364
0.0018254418
-0.003374272
-0.0067413114
-0.003115482
0.0031503574
0.0056408597
0.0037695845
-5.195798E-6
-0.004554816
-0.0086308
-0.011191414
-0.013249742
-0.014074872
-0.010386292
-0.00380773
-8.009402E-4
-7.8406284E-4
0.0012751324
0.00400148
0.0050212545
0.003090009
-0.0010182254
9.13804E-4
0.0092672985
0.014017532
0.015903097
0.016965145
0.0118179275
0.005485202
0.0031961487
4.6985288E-4
-0.0011400778
-1.5252005E-4
0.0016230085
0.0046661687
0.004355513
0.0017314769
0.0010764796
-0.001633905
-0.004099634
-0.005935006
-0.010452891
-0.011156002
-0.008876008
-0.006155999
-7.066848E-4
0.0013861501
8.098154E-4
0.001003703
-2.95662E-4
-4.0762493E-4
-0.0019652061
-0.0045990036
-0.0018285298
8.186476E-4
7.2941475E-4
4.0939916E-4
-7.6758664E-4
-5.322423E-4
-0.0027524629
-0.00842801
-0.012527579
-0.014628372
-0.009221135
-0.0032497481
-0.007366618
-0.0054344707
0.0029630424
0.0030683584
0.003204968
0.003167055
-0.0035821507
-0.008458759
-0.0067611523
0.00193112
0.010650796
0.01262373
0.014995728
0.018656293
0.020612046
0.020396683
0.014975395
0.010111881
0.01090335
0.014387397
0.016258584
0.011443892
3.9534504E-4
-0.012614615
-0.02081212
-0.022381784
-0.025414983
-0.028025586
-0.024671664
-0.01847468
-0.011219574
-0.006103135
-0.00508898
-0.004596757
-0.0016948894
8.558856E-4
-5.878418E-4
0.0016506633
0.008443525
0.01041572
0.011893223
0.013782445
0.011093452
0.008430985
0.0057640825
0.0028935485
0.0028374444
0.004321562
0.008514511
0.012073035
0.01035785
0.0074509364
0.004123728
-0.0011741403
-0.0070349146
-0.015227747
-0.025303934
-0.030570028
-0.02711415
-0.017651467
-0.0060858317
0.0025380205
0.00414408
0.003588858
0.004238516
0.0031177786
0.0023387994
0.0015681536
-4.636123E-5
0.0029313008
0.0064606606
0.006310501
0.006094659
0.0040990477
0.003557239
0.005681093
0.0021528206
-0.0015519535
0.003043859
0.012088314
0.019845558
0.021524297
0.01959438
0.017321078
0.011411992
0.004214783
-0.0024981776
-0.008278417
-0.006273471
-9.3339867E-4
-0.004334927
-0.013065399
-0.01869288
-0.021597443
-0.021339243
-0.017212179
-0.014319
-0.012893891
-0.008811788
-0.0043813847
-0.002781857
-0.0028142342
-8.789485E-4
0.0047825016
0.009166454
0.009272867
0.009036917
0.008330263
0.006512962
0.008732722
0.013684497
0.015358411
0.014474154
0.012375316
0.0075528803
-9.841622E-4
-0.012200467
-0.020719271
-0.022902431
-0.020481715
-0.015994683
-0.01205546
-0.009946194
-0.009662647
-0.010423956
-0.009348557
-0.0053348
-0.0012009139
0.0018390339
0.009238714
0.02105662
0.02753252
0.028903535
0.029329373
0.027815403
0.027636023
0.025440903
0.019104766
0.017039312
0.0168049
0.014761059
0.013350584
0.006204723
-0.008123352
-0.022494294
-0.032081574
-0.03478752
-0.03514693
-0.033958342
-0.027388472
-0.021182671
-0.018646875
-0.016384438
-0.0153764365
-0.016152062
-0.015648657
-0.012761482
-0.0096730655
-0.0047181565
0.0043880553
0.012886159
0.019590324
0.023556516
0.021596279
0.020533778
0.022633249
0.02167942
0.018695883
0.01886525
0.022421904
0.021485182
0.014552998
0.007770516
2.297327E-4
-0.006473217
-0.01138706
-0.018450439
-0.024869718
-0.026880726
-0.024390647
-0.021654435
-0.019268053
-0.015078549
-0.012615737
-0.0075181318
-0.0023563367
-0.0020415676
-0.0011647256
-0.009520519
-0.014335542
-6.902609E-4
0.002302201
0.001064389
0.013399234
0.02127265
0.027974514
0.033258032
0.032282945
0.03564037
0.034875248
0.029518543
0.028185867
0.025640238
0.017532574
-9.0962363E-4
-0.021407802
-0.034503352
-0.045520466
-0.04729731
-0.03475547
-0.020817805
-0.013890954
-0.012500594
-0.0134080285
-0.014354179
-0.014131442
-0.015307842
-0.017531773
-0.015132615
-0.006990824
0.0044557876
0.012588904
0.014157077
0.015298789
0.016625615
0.015112952
0.011962103
0.010065592
0.0109332325
0.012219165
0.013534384
0.013711845
0.010699306
0.007857936
0.0053454805
-2.345831E-4
-0.008313342
-0.013686954
-0.011551384
-0.0047689686
-5.08395E-5
1.723491E-4
0.0010428572
0.0038809096
0.0027084814
8.3935703E-4
0.0010578579
-3.3036576E-4
5.3485145E-4
0.0052597616
0.009640086
0.011762567
0.011523131
0.009509587
0.0060195397
0.0012899147
-0.0071767927
-0.015460841
-0.015141182
-0.011917038
-0.009245648
-0.0048633646
-0.004666218
-0.0056824316
-0.005165052
-0.009770972
-0.014238928
-0.012070712
-0.0071671866
-0.0013308002
0.0049766344
0.008255531
0.005873299
9.633391E-4
5.5654626E-4
0.0024372572
-0.0014276688
-0.0060841097
-0.0049048415
-8.2614564E-4
0.004558817
0.0069245915
0.005767868
0.007225286
0.007657585
0.004862477
0.0013804822
-5.6670955E-4
0.0042782077
0.012168267
0.018746791
0.022793723
0.020131877
0.016524596
0.015537036
0.011180483
4.615003E-4
-0.011064644
-0.012148722
-0.0068469984
-0.004688374
-0.0054885233
-0.011245944
-0.016812418
-0.018919243
-0.022392329
-0.023137249
-0.022020357
-0.021395747
-0.015936272
-0.009251743
-0.006892793
-0.0055155675
-0.0028327154
-0.0020929163
-0.0013938632
-5.2434636E-5
-0.00328854
-0.0021068628
0.009272104
0.022284117
0.034749236
0.042893678
0.04598904
0.045324095
0.03604983
0.024388073
0.013375714
0.0014213102
-0.00591963
-0.011433244
-0.01724669
-0.021235816
-0.022058494
-0.01813145
-0.014566159
-0.012599771
-0.012605153
-0.013622818
-0.0076404647
-2.4785846E-4
0.0030312287
0.0059851473
0.005264008
0.0025376074
0.0013390604
-0.0016754386
-0.0064193397
-0.008182308
-0.0051987083
-0.0038234359
-0.0059237136
-0.0070632175
-0.008414853
-0.01269515
-0.019396184
-0.023547512
-0.025168313
-0.025713691
-0.017612107
-0.0044801636
0.0048738634
0.009060189
0.0075988793
0.009597959
0.01468038
0.013882844
0.014283805
0.01909878
0.027515594
0.03790566
0.041410614
0.04276079
0.046694804
0.048560448
0.049470823
0.042635664
0.024323408
0.00863406
9.935971E-4
-0.007266329
-0.020812314
-0.036188237
-0.04846118
-0.056787457
-0.060406946
-0.057893887
-0.05372023
-0.05067641
-0.043139946
-0.03083274
-0.019928643
-0.012371072
-0.008262299
-0.004389918
0.0015376646
0.00335312
0.0016587209
0.00502678
0.013408745
0.023069143
0.031025985
0.033771176
0.03445863
0.034928802
0.03159181
0.02716396
0.023999464
0.019739924
0.015482637
0.011895059
0.007815354
0.0031593489
-0.0011088651
-0.003991151
-0.0064145955
-0.007859806
-0.008876172
-0.010514519
-0.008719392
-0.004209591
-6.914392E-4
0.0023137627
0.0019435409
-0.0020003326
-0.005731965
-0.010596299
-0.016222937
-0.019000871
-0.017700378
-0.0130634885
-0.010113891
-0.011424285
-0.010582453
-0.007431046
-0.0077880663
-0.007878671
-0.0065709795
-0.00613704
3.9280854E-5
0.009807348
0.014876327
0.01622688
0.0121284295
0.0052953316
0.005721721
0.0088761225
0.007573247
0.006993971
0.009936209
0.014415636
0.017078174
0.013533106
0.008728935
0.0080015585
0.0058309194
-4.13007E-4
-0.010334266
-0.02063989
-0.020875271
-0.012627266
-0.005845436
-0.0017125523
-4.3429463E-4
-9.14834E-4
-0.0017208601
-0.005270043
-0.008665128
-0.0100366045
-0.010508593
-0.006250196
-2.5802018E-4
5.3556345E-4
1.7075546E-4
0.0021904714
0.0054886243
0.0083655175
0.0057215025
0.0025158809
0.00674331
0.013581844
0.018829033
0.019774158
0.016222492
0.0128578
0.00881253
0.0027909235
-0.006623286
-0.015209897
-0.015047729
-0.013482061
-0.014402423
-0.014126853
-0.01396335
-0.011103591
-0.009152001
-0.012157196
-0.014716832
-0.014499476
-0.010035434
-0.004874987
-0.0032384752
-0.0022872547
-8.4894284E-4
0.0021907275
0.0046951906
0.007317821
0.013750107
0.017415725
0.021645164
0.032209195
0.036237333
0.033983115
0.03548774
0.032730203
0.023077961
0.012100386
-0.0034064106
-0.018453313
-0.027357996
-0.030231895
-0.020449515
-0.00717632
-0.002434086
-0.0044948007
-0.016103724
-0.024947366
-0.02277607
-0.021044232
-0.015254472
-0.0044227755
0.0027162984
0.0019583334
-0.0076839407
-0.0138642
-0.012734959
-0.007809823
-0.003818265
-0.009503064
-0.009658651
-0.0014800164
-3.309109E-4
5.894249E-4
6.658623E-4
-0.0016409773
-0.0033542481
-0.007933877
-0.002688054
0.008396131
0.01248031
0.021813352
0.032465998
0.030668374
0.022495577
0.017676918
0.018029036
0.016045133
0.007604853
0.0023629696
0.010286791
0.024908954
0.033898786
0.036614213
0.031152984
0.016334448
0.0025976375
-0.00655207
-0.01785779
-0.03453609
-0.04971912
-0.05353439
-0.048965573
-0.044882886
-0.04025499
-0.028385065
-0.012687082
-0.0053775283
-0.0061685387
-0.0048649404
0.0015868605
0.0106883785
0.016948843
0.016734704
0.013617533
0.010150311
0.006867701
0.0053042183
0.002679991
-0.0022383989
-0.0041138865
-0.0026455482
-0.001699686
-0.0015361797
-5.738859E-4
0.0026587
0.006171193
0.0064180563
0.0023029223
-0.0031107715
-0.0032506604
2.661404E-4
0.0029138222
0.00878892
0.016814047
0.02272154
0.027059048
0.025052078
0.016728712
0.011058895
0.010783382
0.015087938
0.018434523
0.013738054
0.008010489
0.0072667305
0.0052067386
-0.0019677863
-0.014531185
-0.026544798
-0.027569162
-0.021797694
-0.020590438
-0.02390087
-0.02526085
-0.022361135
-0.019826308
-0.020440081
-0.022115333
-0.023379367
-0.020041527
-0.011244889
-0.0033837073
0.0013424912
0.0035010192
0.004135975
0.005723624
0.0055755842
0.002114864
7.79459E-4
0.0039190124
0.0085410485
0.014505105
0.020336924
0.02122282
0.020181632
0.019375
0.01524381
0.012622176
0.014356251
0.018549373
0.027339501
0.032615114
0.025567792
0.017560111
0.0177668
0.016451277
0.007134467
-0.0056207557
-0.01732272
-0.023896364
-0.028154265
-0.03435368
-0.035061587
-0.029419651
-0.02571997
-0.024559263
-0.02533124
-0.028387407
-0.03103107
-0.031410262
-0.026671307
-0.014681333
-0.0025751672
0.0026258663
0.007612866
0.016050277
0.022069478
0.025457883
0.02602935
0.026502296
0.034666963
0.04432591
0.04660522
0.04301018
0.0341106
0.023142837
0.013404009
-4.931703E-4
-0.016998393
-0.025729075
-0.026406296
-0.02747643
-0.033976093
-0.041385427
-0.042435624
-0.03821382
-0.030532593
-0.021660618
-0.011812081
0.0057245023
0.02356568
0.035217583
0.04311207
0.037136715
0.025794748
0.022582568
0.017002983
0.0107430825
0.0017293837
-0.01552302
-0.024579259
-0.02537297
-0.026134282
-0.026696071
-0.03070146
-0.030037384
-0.024721138
-0.022644507
-0.0166219
-0.00979983
-0.0050872387
0.0063965917
0.020294463
0.029263489
0.02910833
0.022276664
0.023442091
0.03210395
0.04066844
0.05214016
0.06077359
0.06128276
0.05608575
0.04521629
0.030564964
0.00967016
-0.016078725
-0.039280266
-0.06227916
-0.07786961
-0.07486212
-0.060377717
-0.041813098
-0.025633512
-0.016090037
-0.00713651
-0.0018823843
-0.009037412
-0.025879573
-0.03991097
-0.039509363
-0.033267695
-0.03380074
-0.030722184
-0.021142753
-0.016348649
-0.009762197
-5.2744686E-4
0.0034859802
0.014058992
0.03151976
0.04603134
0.06036541
0.07129017
0.07847628
0.07835965
0.06415218
0.049492076
0.036186907
0.017145734
0.0023673202
-0.0031255556
-0.0015828686
0.0056462674
0.02041797
0.039807986
0.049010668
0.038361546
0.014221019
-0.0013092273
-0.008906213
-0.025721129
-0.026917703
-0.012586402
-0.029973097
-0.07386591
-0.1102463
-0.12967567
-0.12930387
-0.11007683
-0.07112655
-0.022473935
0.009914735
0.0249774
0.03444678
0.030371899
0.021519179
0.026860293
0.027407203
0.0052397703
-0.03172465
-0.07621096
-0.11051039
-0.11252788
-0.079430155
-0.030316249
0.02202403
0.08458753
0.13577023
0.15338308
0.15843418
0.16283998
0.16547482
0.16468671
0.15369987
0.12439078
0.057007845
-0.02584871
-0.07069973
-0.083452985
-0.08291748
-0.053800758
-4.0904E-4
0.042601343
0.046720702
0.016327506
-0.025750972
-0.07932762
-0.15711863
-0.2461437
-0.310488
-0.30222884
-0.19952391
-0.060266595
0.04222569
0.094653845
0.116442494
0.13201815
0.14093728
0.12537377
0.09109619
0.038341083
-0.03784703
-0.100055106
-0.10229028
-0.062239617
-0.023950895
0.021171298
0.078265734
0.11352554
0.13033393
0.15937473
0.18670724
0.16911496
0.10823793
0.023845393
-0.09111919
-0.1812988
-0.17447503
-0.10814751
-0.03863583
0.01722842
0.039250676
0.03331402
0.026199143
0.027623909
0.029057859
0.010831387
-0.025799436
-0.042251118
-0.020623546
0.003951022
0.007154502
-0.0035268005
-0.029465623
-0.07108939
-0.121505745
-0.16449662
-0.16167463
-0.11332706
-0.056498792
0.0069039096
0.055600286
0.072458744
0.11992083
0.19756356
0.23635747
0.23172756
0.1766662
0.06305338
-0.069295295
-0.17535752
-0.19292957
-0.11980423
-0.045650143
-0.009282641
-0.0025266113
-0.03291908
-0.06098587
-0.02840939
0.034229215
0.068237685
0.07174322
0.048952263
0.018826405
0.0020595128
-0.02680346
-0.055282023
-0.05424573
-0.04709715
-0.056129254
-0.08845006
-0.10689644
-0.061317425
0.019482112
0.100302696
0.17267379
0.20748731
0.2039558
0.18630959
0.16174112
0.13756028
0.09668094
0.010071794
-0.09497131
-0.18840048
-0.26159436
-0.27152306
-0.21782583
-0.1526074
-0.088688284
-0.035731208
-0.008934724
-0.0019723296
-0.01574536
-0.036912955
-0.03959602
-0.030259803
-0.026295658
-0.016517028
0.020180669
0.07673186
0.1258827
0.15879953
0.18590263
0.1996514
0.19321807
0.1801348
0.15219714
0.105966054
0.053408902
-0.011016359
-0.073218144
-0.12481861
-0.16450515
-0.16143748
-0.12883916
-0.09662453
-0.0654179
-0.05196815
-0.04858305
-0.039047282
-0.040707294
-0.053491514
-0.062232714
-0.05653417
-0.035120126
-0.014384331
-0.0050378195
0.0041239443
0.034813106
0.078465484
0.104540035
0.114034206
0.11497602
0.103112176
0.081732295
0.047367934
1.0115808E-4
-0.040738184
-0.068800345
-0.105137505
-0.14969862
-0.16016176
-0.12303185
-0.06856734
-0.011253849
0.041293163
0.08069831
0.11335148
0.14025046
0.15868755
0.1628148
0.1497393
0.13557774
0.12074488
0.08242614
3.5193792E-4
-0.107904755
-0.17247182
-0.1758122
-0.16212936
-0.12725012
-0.070305094
-0.030325165
-0.014482026
-0.013133742
-0.023559196
-0.03763133
-0.049064174
-0.0548327
-0.051735923
-0.038191874
-0.020047067
1.7580642E-4
0.025715845
0.0498967
0.066724375
0.07485507
0.07555878
0.07720273
0.0782561
0.06999045
0.05666795
0.049034625
0.04267189
0.025825754
0.003957856
-0.017381854
-0.040111165
-0.058183514
-0.06550349
-0.060400154
-0.05181028
-0.045322783
-0.032359798
-0.018261392
-0.008256192
0.0026059246
0.012920057
0.027115742
0.043714575
0.05427242
0.057307508
0.048384912
0.031216994
0.012743065
-0.0071956166
-0.023798697
-0.035391454
-0.04092875
-0.03689977
-0.029322054
-0.02423322
-0.019549018
-0.014169435
-0.010838501
-0.007989215
-0.0063828086
-0.0075613195
-0.0017275661
0.007438138
0.009941027
0.01259014
0.013397562
0.010115797
0.006854152
-7.054008E-4
-0.005844263
-0.0034921675
-0.0023501173
-0.0015580127
0.0034557728
0.009231383
0.012203095
0.015779441
0.01854593
0.0124438135
0.0020339044
-0.00418519
-0.0013556487
0.010724729
0.018606294
0.01666102
0.012000293
0.0064591737
-2.2412089E-4
-0.00903928
-0.018736476
-0.023203809
-0.020361032
-0.013744702
-0.0071618576
-0.0022061507
6.9327094E-4
0.0028488524
0.005020414
0.0036112377
-0.00473669
-0.014618366
-0.015347998
-0.008809275
-0.0037202395
5.2328458E-5
0.004586146
0.011397925
0.019084554
0.027044298
0.034087285
0.029804407
0.021553254
0.018520074
0.0046969177
-0.01580952
-0.025996566
-0.026954759
-0.020728173
-0.014253306
-0.01480101
-0.017683933
-0.014757539
-0.0039543095
0.005413459
0.00844745
0.007647841
0.0026465543
-0.0022653677
-0.0038666683
-0.0055820486
-0.008937294
-0.009571618
-0.0024844238
0.007727318
0.014304342
0.017053567
0.017623713
0.017192442
0.014889992
0.009375717
0.001611324
-0.0016169534
0.0046042865
0.011240725
0.009829481
9.000325E-4
-0.010700803
-0.015548771
-0.015530864
-0.021324057
-0.029745711
-0.030535197
-0.01942018
-0.0017525504
0.009408434
0.011612862
0.012406917
0.011347425
0.0068487744
4.2034438E-4
-0.006488781
-0.0064314534
0.0013957386
0.009495212
0.014846766
0.01456317
0.0117914025
0.010003026
0.005424927
-3.512485E-4
-0.0063940776
-0.009220678
-0.004677762
3.6295598E-5
0.0029346747
0.0028683797
-6.3691195E-4
-1.8772145E-4
-0.0013902473
-0.010207696
-0.020831399
-0.02435336
-0.013708805
4.5568837E-4
0.008337041
0.012802805
0.011675343
0.0069390275
0.0026320256
-0.002050741
-0.005551486
-0.005115777
5.114871E-4
0.0047038062
0.0040238784
0.0034833346
0.00415349
0.006431553
0.005426315
-4.1471672E-4
-0.004373683
-0.008773568
-0.007682229
0.0034206407
0.009563334
0.010302313
0.009847139
0.004130542
2.9500484E-4
-0.0037781296
-0.012539211
-0.013249557
-0.0054885154
0.0012069767
0.0055694464
0.0052258363
0.0024746829
0.0022061733
4.6103308E-4
-0.003519522
-0.0062264414
-0.008439263
-0.01008801
-0.010303978
-0.009611707
-0.008683835
-0.008217301
-0.0069961194
-0.0047615906
-0.0018760577
0.003602366
0.01292706
0.023452694
0.026365971
0.018825345
0.011681086
0.0067012454
2.6514538E-4
0.0017641294
0.007599278
0.004645442
0.0018114843
0.0077476865
0.014512546
0.01625282
0.011997545
5.190839E-4
-0.015590975
-0.026378486
-0.028016582
-0.028345618
-0.028231326
-0.022058483
-0.010897871
-0.0019804335
0.0011510758
0.0033406918
0.004562099
0.0027275614
6.174272E-4
-0.0031328346
-0.0051577184
0.0013554838
0.012781491
0.019974187
0.019934539
0.017359216
0.0120418575
0.0065518827
0.0051412834
6.3300243E-4
-0.0013512084
0.0044314824
0.0061351806
0.0033912875
-7.71784E-4
-0.0044429395
-0.007425745
-0.015679449
-0.021812858
-0.022266367
-0.016855525
-0.0035569503
0.0017652253
-7.6825434E-4
-5.303734E-5
0.0011824621
0.00595884
0.006803158
-0.0012330964
-0.002934993
0.0027991824
0.009226001
0.0138538275
0.013373837
0.010425206
0.006782819
0.0022497692
-0.003020757
-0.00936717
-0.011807954
-0.0063937907
0.0028287016
0.009253215
0.0098782955
0.007979804
0.0068432237
0.0021803426
-0.0067263227
-0.011782489
-0.011098243
-0.0061019305
0.0027538957
0.008791803
0.008848468
0.0065663713
0.0037506924
-9.4887905E-4
-0.0071751545
-0.011278711
-0.013670308
-0.012935296
-0.0068426537
-0.0023333344
-6.110097E-4
3.6403467E-4
-0.0031388763
-0.007094081
-0.009458808
-0.014783442
-0.016723597
-0.009876361
-0.0020797476
0.0029337972
0.00632865
0.006408148
0.006929209
0.008559028
0.0056545213
0.0012560647
0.0031452042
0.015014347
0.029493742
0.035381403
0.03500713
0.033166565
0.028587779
0.016579978
-0.0040877727
-0.018853227
-0.020450339
-0.017456098
-0.013409649
-0.011033719
-0.010157535
-0.008092641
-0.0076200664
-0.008716465
-0.01227253
-0.019591743
-0.024208046
-0.020501472
-0.0111163845
-0.0042291484
-0.0042106723
-0.007961173
-0.010102898
-0.006764911
-0.0019297092
-0.0022110092
-0.0026359118
0.0032848625
0.011332282
0.017073506
0.019503633
0.01869424
0.017510224
0.015082359
0.009249726
0.0014986176
-0.0048516304
-0.002432915
0.0070568547
0.012872347
0.013014794
0.008442654
0.0030059915
0.0015298146
5.360861E-4
-0.0010367846
-0.0020379014
-0.0011763686
0.002178216
0.002236419
-0.0012627685
-0.005173922
-0.007884276
-0.008421657
-0.012116376
-0.016774653
-0.018715328
-0.019114127
-0.012651882
-0.0026507243
0.0062462934
0.012603445
0.013911259
0.018170472
0.013823866
-0.0051992643
-0.011725174
-0.007781865
-0.0034971365
0.004872043
0.004767398
4.103211E-4
-5.413918E-4
-0.0021743188
-0.0029961301
-0.008836719
-0.011508156
-0.0068084435
-0.0034820833
0.004729328
0.004900278
-0.0021656165
0.004714162
0.007099828
-6.5498595E-4
-0.00569744
-0.010968146
-0.008873781
-5.4033764E-4
0.0066327318
0.012984914
0.017694458
0.02605591
0.02918677
0.01863878
0.0053215623
-0.0053860825
-0.0064653098
0.003248842
0.010196861
0.010470227
0.008266473
0.0014714234
-0.013675801
-0.025785593
-0.026411049
-0.025668135
-0.023177136
-0.015637089
-0.00760975
-6.2486605E-4
0.0015578173
0.0034345842
0.006721103
0.0035365226
-0.0024230273
-0.0073012193
-0.0074060755
-0.0016128478
2.309749E-5
5.2852265E-4
0.0048042857
0.006765694
0.00732678
0.006028645
0.0020984337
0.0018035406
0.0046544326
0.006593045
0.008530759
0.009283264
0.0060069207
0.0012808127
-0.003106553
-0.0070712874
-0.00904917
-0.010967832
-0.009390944
-0.0011787207
0.005271289
0.008805093
0.01233184
0.011178608
0.00671938
0.0035267035
0.0012634468
-1.9953946E-4
-2.730021E-4
0.0014584388
0.0036819645
0.0034407086
8.4373204E-4
-0.002020259
-0.0047812345
-0.0062053846
-0.005535221
-0.0043305596
-4.3615073E-4
0.0053839865
0.006666582
0.0049061286
0.0023452318
-0.003779281
-0.009905304
-0.01316878
-0.015833491
-0.017066361
-0.015959382
-0.012971387
-0.00865574
-0.0050106477
-0.0014506403
0.0029187046
0.007549824
0.012547714
0.011112688
0.0016620738
-0.0036531067
-0.002843569
0.001347364
0.010522204
0.01744571
0.019830914
0.020736333
0.016574116
0.008262712
0.001666337
1.0303715E-4
0.0022838435
0.0068469434
0.0104097305
0.007041127
0.0019395835
-0.0049250824
-0.015790561
-0.018361928
-0.018015608
-0.021026378
-0.016348924
-0.009855806
-0.0073421095
-0.005642168
-0.0057623913
-0.004300454
-0.0035807425
-0.0058772718
-0.0070668766
-0.006455499
-0.0016087951
0.004750741
0.006999248
0.00890092
0.013951755
0.017919516
0.016176175
0.011352187
0.005490406
7.081912E-4
0.0032992647
0.008890597
0.010734992
0.010686557
0.009842609
0.008299904
0.0022418443
-0.008256095
-0.014380909
-0.015642269
-0.012030347
-0.003089403
-0.0013095504
-0.0059279054
-0.0039213654
-0.0017533811
-0.0057402602
-0.009893088
-0.01217333
-0.00956287
-0.003652827
-4.595518E-5
0.0035530624
0.006140602
0.0053223707
0.0024287554
-0.0021737837
-0.006008683
-0.008360733
-0.0067246095
3.3031212E-4
0.0054649506
0.008054816
0.011192204
0.011528807
0.009111452
0.0067034643
0.003983419
2.2452597E-4
-3.083961E-4
0.0042981394
0.007652552
0.007745577
0.0070102825
0.006203731
0.0045472537
-7.1204486E-5
-0.004453937
-0.0064497734
-0.0067218216
-0.0033460972
-0.0015120269
-0.0037300873
-0.0042215968
-0.004253619
-0.00645694
-0.010669692
-0.016544137
-0.019923719
-0.018045055
-0.010050981
0.0024052605
0.010422627
0.00879206
0.003543037
0.0012563068
8.8214775E-4
-0.0016069367
-0.004536606
-0.00232035
0.004858439
0.011014412
0.012541309
0.0107142
0.0091348635
0.01001173
0.008720411
9.08364E-4
-0.005172513
-0.004223247
-0.001495806
0.004649663
0.011840288
0.012142992
0.010087926
0.0072230804
0.0015295629
-0.004046272
-0.0102958605
-0.011736193
-0.006590929
-0.0035212801
-0.0013496074
-0.0012437139
-0.0044333013
-0.003133403
-0.002690862
-0.006696863
-0.007951142
-0.009803472
-0.012032524
-0.007970213
-0.0023663302
4.1746997E-4
0.001955067
0.0019177888
2.6481092E-4
-0.0050478657
-0.011733894
-0.012137502
-0.00925431
-0.0033887965
0.0075357575
0.012546537
0.014360029
0.017217364
0.012590022
0.009111248
0.006418419
-3.9425812E-4
0.0041881762
0.01281795
0.015046934
0.017348858
0.013025918
0.0073965513
0.0070703076
0.0016108709
-0.0035993676
-0.0045727617
-0.0075340485
-0.007259319
-0.0038350504
-0.0062966803
-0.011165971
-0.010296454
-0.009204039
-0.013036707
-0.018673856
-0.02214312
-0.016758427
-0.008487451
-0.0067612813
-0.00462518
-0.0016434427
-0.0010062573
7.0367975E-4
0.002982276
0.0060237497
0.007999876
0.009705788
0.012891859
0.010025606
0.0030625171
0.0012772811
0.005544548
0.010015429
0.0069370414
-1.9012754E-4
-0.0029968205
7.029075E-4
0.00945301
0.015109301
0.012833781
0.006027216
-6.7661674E-4
-0.003926214
-0.0066521415
-0.010445644
-0.011044605
-0.0064219413
7.781941E-4
0.0044576763
0.004173365
0.0043434445
0.00477446
0.0043050162
6.1362423E-4
-0.0073051592
-0.011556547
-0.0063683693
-9.839568E-5
-9.501179E-4
-0.0028974053
-0.0021448713
-0.0032696049
-0.0046692207
-0.0054052593
-0.007923626
-0.009171398
-0.0071961866
-0.003055079
0.0010179145
0.0020285095
0.0026086902
0.005370664
0.0064886142
0.0032463213
-0.0024445904
-0.0054946714
-0.0020499155
0.0036600095
0.007308504
0.0106418915
0.011328689
0.008329282
0.0065950644
0.004536932
4.3607235E-4
-0.0013626959
2.6824843E-4
0.0030666261
0.0038967268
0.0033488376
0.004171198
0.0041683083
0.00294703
-2.2486923E-4
-0.0076874113
-0.012128134
-0.00880226
-0.004444966
-0.0020982544
0.0011529404
0.0037141943
0.0014819091
-0.0033292219
-0.008679512
-0.014547804
-0.016619248
-0.015135069
-0.010799966
-0.0029233126
0.001024465
-1.2557782E-4
-7.2820357E-4
2.7950335E-4
0.0015434804
5.503014E-4
0.002923224
0.011052857
0.017301667
0.021170154
0.018000176
0.0076912553
0.0028294222
0.002358941
0.0023271726
-8.079258E-4
-0.009066619
-0.008385116
1.3066981E-4
0.0052327816
0.008293612
0.006157596
0.002361787
0.0011299105
-0.00449014
-0.010507304
-0.012401042
-0.01128134
-0.0053843106
0.0011247746
0.0048003257
0.006156634
0.003763031
-1.6339532E-4
-0.0022246325
-0.0062851543
-0.012203548
-0.009966309
-0.0027241155
5.3592585E-4
0.003356339
0.005788886
0.0066382275
0.0066368836
0.004098329
1.2043547E-4
-0.006213072
-0.008270831
-0.0018130472
0.0027382926
0.004186794
0.0037208349
0.0012214219
1.6190243E-4
-0.0037864263
-0.00851969
-0.010604811
-0.0106837815
-0.0049258214
0.0014037096
0.004331435
0.005223499
0.0047121206
0.006351349
0.004152089
-0.002951024
-0.005797172
-0.003442541
0.0028903012
0.009617486
0.0126487715
0.012376137
0.010816739
0.009854695
0.007992596
0.0074440767
0.0070065283
0.005593889
0.009907793
0.010647231
0.0016338032
-0.0068583894
-0.013639557
-0.017548537
-0.016912682
-0.01585443
-0.017611478
-0.018571714
-0.010816615
-0.005274576
-0.008256017
-0.0056661186
-0.0021153053