-0.004724025
-0.00318744
1.9156162E-4
0.0012340035
0.001370383
0.0029821536
0.005758711
0.0039014795
-2.483451E-4
-0.0012150344
-0.0026544463
-0.0034125652
-9.705834E-5
0.002684881
0.002127614
0.0012570505
7.836382E-4
-0.0018012419
-0.0024472903
-4.7242164E-4
-0.0037292975
-0.0054252227
-6.808035E-4
-6.1406783E-4
-0.0014848169
0.001806737
0.0018715691
0.0012126904
9.806392E-4
-0.0015858453
-0.0010544872
0.0017026906
0.0015333022
7.940083E-5
4.1581676E-4
0.0030722897
0.004101151
0.0016533951
1.254621E-4
-8.713125E-4
-0.0028502494
-0.0015564163
9.940186E-4
8.5759535E-4
0.0010386353
6.87333E-4
-5.117109E-4
-1.609923E-4
-0.0015478224
-0.003119459
-0.0019266502
-0.0011346262
-4.887402E-4
1.1498459E-4
6.952823E-4
0.0017304682
6.8450073E-4
3.7567702E-4
0.001338506
-3.5925757E-5
-4.2323503E-4
5.5490533E-4
-6.675141E-5
-9.7893E-4
-8.9597335E-4
5.494023E-4
0.0017382241
0.0016622713
0.0012694693
-2.49064E-4
-0.0021498518
-0.0029655274
-0.0018593492
7.90914E-4
9.3109783E-4
-5.953044E-4
8.349739E-5
4.9031596E-4
-9.478222E-4
-0.001378722
3.258058E-4
0.0013621694
0.0014311989
0.003649086
0.004564614
0.0023050467
4.9197924E-4
-0.0011093256
-1.6556408E-4
7.7963783E-4
-0.0027250433
-0.0033503443
-0.0021991644
-0.0020493923
0.0010490126
0.0017658088
0.001066989
4.5469266E-4
-0.0028069175
-0.0017488207
-6.155045E-4
-0.0031108393
-0.0015645506
-5.103787E-4
-0.0014388842
-1.9976529E-4
3.205229E-4
1.0317805E-4
8.1202434E-4
0.0027140037
0.00404089
0.00443055
0.0032309084
-0.0020555612
-0.0030649956
0.001196261
0.0014858607
7.4008666E-4
-9.598615E-4
-0.0024226296
2.6330268E-5
-0.0011105828
-0.0025713663
-8.112096E-4
-0.0010074757
0.0012771371
0.0033774718
0.001846135
0.0016453388
2.2462798E-4
-0.0015681839
-0.002211659
-0.0027959177
3.0971E-4
0.0022562374
0.0012581892
0.002773008
0.002792701
5.92511E-4
-0.0011994978
-0.0034010666
-0.0023713522
9.136398E-4
0.0016976602
0.0014595885
0.0013110437
6.541237E-4
4.944618E-4
-2.1958738E-4
-0.0021163162
-0.0018348563
-0.002362573
-0.0063361903
-0.0044144513
0.0010859922
0.0011571059
0.0021907426
0.003471839
3.9724668E-4
-4.560874E-4
1.04830935E-4
-7.93146E-4
-4.254456E-4
8.603031E-4
0.0022003313
0.0014438422
-3.9303984E-4
9.5169764E-4
0.0024706074
9.895806E-4
-0.0014316888
-0.0022282314
-2.7804237E-4
0.0015395649
0.0016785255
0.0025831875
0.0033618063
0.0017277936
2.1045817E-4
1.0862358E-4
-0.0017237357
-0.003466279
-0.0031423552
-0.0043492033
-0.0042154677
-0.0014456891
-0.0014588232
-0.0012629873
-9.266049E-5
-0.0017450305
-0.0014489436
8.332086E-4
0.002128098
0.0052238205
0.0068627982
0.005183253
0.00347081
-4.936506E-4
-0.0056863637
-0.0070697754
-0.0048443377
-0.0016221534
5.461901E-4
0.002067081
0.003927346
0.0062360433
0.009271317
0.008994383
0.0040939227
8.739405E-5
-0.0023605037
-0.0057145413
-0.009713439
-0.011750189
-0.008552244
-0.0022541443
0.0030105948
0.005727571
0.006231602
0.005193047
9.090243E-4
-0.0023773399
-2.7016102E-4
1.6188135E-4
-0.0025283
-0.0021994552
4.516133E-4
0.0010288465
-0.0010376576
-9.7146275E-4
0.0017517379
0.0032738587
0.0036010202
0.001851314
-0.0013625234
-0.0019315148
7.76273E-4
0.0021549705
-4.680182E-4
-0.001743039
-0.0018970185
-0.0041851676
-0.0037931993
-0.0032696465
-0.004953431
-0.0037255804
-0.001727467
-8.580308E-4
-0.0010483031
-0.001635095
9.1052614E-4
0.0017147731
-0.0025012193
-0.0048719477
-0.0041931067
-0.00370785
-0.002196142
-3.607851E-4
-1.3490413E-4
0.0017782067
0.004992521
0.0048142453
0.0035044998
0.0047043655
0.006566902
0.0063087814
0.006102733
0.0091992505
0.011759048
0.0115600545
0.011975207
0.013940024
0.016044319
0.014995878
0.009399607
0.0024673585
-0.0020002974
-0.0018673089
5.928674E-4
0.002049602
2.518371E-4
-0.007267797
-0.016383419
-0.01948963
-0.017789783
-0.018378437
-0.021509282
-0.022139916
-0.020176323
-0.018760199
-0.018517558
-0.016869208
-0.012679187
-0.00829039
-0.0074599436
-0.012321797
-0.013341187
-0.0041508926
0.0021215864
0.0010411337
0.002483877
0.0077387136
0.011613025
0.012863138
0.0145436255
0.014930326
0.012060205
0.009148786
0.005948446
0.0049676322
0.008859081
0.015180358
0.020966044
0.02104168
0.017814992
0.013428301
0.0071545606
0.0075207492
0.011372175
0.0141375
0.021277633
0.025276061
0.023177156
0.018829726
0.010758629
0.0040513407
-0.0020423462
-0.014412715
-0.031577583
-0.045072537
-0.051105592
-0.054968167
-0.05224788
-0.042516634
-0.035490733
-0.0260992
-0.015601689
-0.009493883
-0.001604461
0.0062742434
0.014782726
0.02486546
0.027350454
0.022487545
0.021652851
0.027900603
0.030072162
0.025927806
0.017503088
0.0045997924
-7.98679E-4
-0.006117498
-0.023466438
-0.037857044
-0.039928813
-0.02994684
-0.0149637
-0.0019695594
0.0013488041
-0.016752599
-0.036306303
-0.039048385
-0.024863377
0.007548031
0.037831444
0.066993125
0.10701257
0.140586
0.15822318
0.14955516
0.11707072
0.08951544
0.08342327
0.083816014
0.0582806
0.017673323
-0.013088027
-0.046242926
-0.08960995
-0.13896978
-0.17097898
-0.18250386
-0.2071561
-0.23419416
-0.23857257
-0.21709083
-0.17995343
-0.15176174
-0.12717171
-0.09460401
-0.05696101
-0.01997043
0.021753015
0.093967445
0.1570078
0.17188992
0.18784344
0.20497568
0.19623359
0.19861846
0.22197792
0.22758394
0.21348648
0.21952544
0.24582769
0.24828352
0.19953625
0.10743973
-0.0029947818
-0.117486216
-0.19713053
-0.20630467
-0.18828683
-0.18088211
-0.17706384
-0.17326434
-0.17755061
-0.20175748
-0.210346
-0.17606975
-0.12535937
-0.06557848
-0.020188082
-0.008465767
-0.01693551
-0.053036306
-0.064884685
-0.003682132
0.056709442
0.0673965
0.066656396
0.08083273
0.090954974
0.08540718
0.088784
0.080611184
0.0326776
0.004387828
0.035994332
0.064736605
0.02222149
-0.047623597
-0.059514944
-0.01611676
0.0492017
0.09852817
0.10831476
0.111685246
0.08710919
0.023877373
-0.009638535
-0.022347897
-0.027230801
0.021167036
0.100656904
0.13977681
0.09719754
0.013877193
-0.053076096
-0.1074415
-0.12618259
-0.08749233
-0.048100024
-0.068914704
-0.13395153
-0.17176087
-0.16877629
-0.16117406
-0.15129514
-0.13035971
-0.084066026
-0.004367642
0.089969575
0.17058285
0.19021106
0.13206182
0.0667274
0.059318673
0.058858108
0.013524312
-0.0068112174
0.039664302
0.106963925
0.15422821
0.13836662
0.057700027
-0.036000308
-0.094890304
-0.0877473
-0.062210027
-0.075952776
-0.09579622
-0.10455118
-0.11217691
-0.09894079
-0.06959001
-0.042433687
-0.015203802
0.015995467
0.043871414
0.05803725
0.06414387
0.060309548
0.045763098
0.052714862
0.08000335
0.09092579
0.08577073
0.07152349
0.044375837
0.018184988
0.0011487675
-0.011893196
-0.02126562
-0.028994193
-0.037313968
-0.04166274
-0.044905305
-0.04882592
-0.04638457
-0.043388493
-0.041595403
-0.035912786
-0.030226897
-0.02195035
-0.014918712
-0.0039471956
0.018421972
0.029610435
0.042370837
0.07378192
0.08940252
0.08110419
0.054190572
0.005205024
-0.039541148
-0.049575925
-0.024508527
-0.002968952
-0.001274909
-0.010066662
-0.049383722
-0.084866315
-0.06565957
-0.03255482
-0.014303505
-1.0961284E-4
0.003228278
-0.0013895336
-0.0047387695
-0.0013736386
0.0045187427
0.005015708
0.011256195
0.020528724
0.022297118
0.024878193
0.023304405
0.016744923
0.016211966
0.012515118
0.013652113
0.03493665
0.05776112
0.06649882
0.04390339
-0.008718087
-0.03621367
-0.028987769
-0.02914057
-0.031317864
-0.014852848
0.007334275
0.015092306
0.011392767
0.0057007917
-0.0074205813
-0.0155557385
-0.009370107
-0.009824991
-0.018075788
-0.021204542
-0.016209165
0.003575939
0.032365326
0.049242128
0.03819045
-0.002127047
-0.042649716
-0.044672392
-0.02039919
-0.009029957
-0.011800162
-0.018329006
-0.022917049
-0.015321161
-0.006107116
-0.008317548
-0.016190026
-0.017997088
-0.014267871
-0.01675026
-0.010053063
0.018155238
0.04196496
0.04637593
0.03384347
0.01221685
-0.003424173
-0.006665798
-1.3411598E-4
0.0047797044
0.0045871637
0.0065651224
0.009936988
0.013938054
0.010826428
-0.0012034454
-0.005610726
-0.0010970853
0.008703922
0.024063734
0.031268403
0.021433853
0.0029859273
-0.008947104
-0.012844177
-0.019579737
-0.026246812
-0.025477404
-0.021638762
-0.019057527
-0.015612997
-0.010693169
-0.0074741854
-0.0054829805
-0.0041133296
-0.0029645732
-0.0014498102
-0.0045891325
-0.008055483
-0.0049559586
-0.0020288434
-0.0017398257
-0.0016379751
-4.4610054E-4
0.004241504
0.008895052
0.011702763
0.014950792
0.016538274
0.01447431
0.012588445
0.013471669
0.012242928
0.009413517
0.00773269
0.002142124
-0.0058818646
-0.010944433
-0.011487486
-0.01127054
-0.016550187
-0.018945824
-0.013469323
-0.007978597
-0.0025041585
1.2188773E-4
4.0275254E-4
0.0046605063
0.006878569
0.008846993
0.013321606
0.012456981
0.01295063
0.01789742
0.017708663
0.011053509
-0.004694415
-0.025551574
-0.03534325
-0.032870766
-0.026120724
-0.016820772
-0.008224691
-0.0013652351
0.0062299385
0.014517116
0.02204088
0.02416849
0.02196565
0.021057028
0.015188906
0.002552133
-0.0047025117
-0.0032621536
1.5567223E-4
0.004810054
0.011170307
0.006929503
-0.007748096
-0.008309578
8.7153964E-4
-0.0033238844
-0.009716207
-0.0086894
-0.009464706
-0.009319602
-0.011347163
-0.022853838
-0.03194791
-0.033585697
-0.036523066
-0.039211098
-0.034018543
-0.012563128
0.02681225
0.061010092
0.06345989
0.043284517
0.0333164
0.038390562
0.033760194
0.015115057
-3.3073488E-4
-0.0051697367
-0.004934242
-0.0056584
-0.004598975
-0.0031880569
-0.006217702
-0.007748005
-0.007732852
-0.008858752
-0.008229236
-0.009772522
-0.012366419
-0.011186286
-0.010498358
-0.013675875
-0.017610267
-0.015519491
-0.008534924
-0.0055449978
-0.0044237045
0.0022841422
0.009613651
0.011184653
0.012621001
0.013070715
0.007322952
0.004322118
0.004437616
0.0012925229
0.0018411127
0.005883715
0.0060850433
0.0034682075
0.001620393
-0.0010095937
-0.007592646
-0.011928152
-0.008996307
-0.0018597138
0.0053882967
0.0074148756
0.00834795
0.0111051565
0.00941707
0.00667722
0.0036241414
-0.0013385366
-0.0023311675
-0.0027818156
-0.0056431605
-0.0077537303
-0.007498151
-0.0027344488
-8.145909E-5
-0.0017476737
6.947765E-4
0.0046161893
0.006455301
0.0074574533
0.0051017753
0.0033687986
0.004561135
0.00218405
-0.0035303314
-0.008142772
-0.012475526
-0.01664452
-0.016206177
-0.013043513
-0.014909636
-0.017910449
-0.016532453
-0.013652047
-0.007911441
-0.0013949487
0.0015436494
0.004431575
0.00842181
0.009443277
0.0047860052
0.005126899
0.017184336
0.026567027
0.033512443
0.039966565
0.03574414
0.03233584
0.030359047
0.021143872
0.016124306
0.0101145245
7.5940427E-4
-4.776377E-4
-0.0030047083
-0.011166786
-0.018704647
-0.024332779
-0.02689025
-0.032457054
-0.03953219
-0.039779563
-0.03644305
-0.030711757
-0.024078777
-0.022047076
-0.023443937
-0.027578298
-0.027964655
-0.016385248
-0.0025745311
0.0055054002
0.010725237
0.013743783
0.013837922
0.00736449
9.004434E-4
0.0028829027
0.004142806
0.0054646814
0.0124070775
0.018067138
0.02192735
0.023802325
0.025025455
0.026401564
0.021235054
0.01939195
0.027692184
0.034866292
0.039424773
0.04211116
0.042916704
0.04244633
0.03277218
0.016569052
9.3184324E-4
-0.01791722
-0.036027893
-0.048063245
-0.05791693
-0.06399028
-0.06501626
-0.062477425
-0.053872585
-0.045559507
-0.039663
-0.027286679
-0.011559309
0.0048007127
0.022602184
0.036699258
0.049239866
0.058733426
0.059917185
0.055138916
0.04424042
0.029352566
0.012830866
-0.007988358
-0.031646088
-0.054622244
-0.07323791
-0.08716003
-0.0976809
-0.10056633
-0.0916888
-0.072137214
-0.043882564
-0.0036221007
0.043470696
0.08594253
0.12566347
0.15640098
0.16808984
0.17134352
0.17384788
0.16752307
0.14046863
0.101406306
0.078397185
0.06856384
0.044399682
0.0017940402
-0.04821345
-0.095954716
-0.13015091
-0.15253063
-0.17394261
-0.19458535
-0.2119167
-0.2184215
-0.21059972
-0.20369805
-0.19222793
-0.15759751
-0.1173512
-0.08985622
-0.05662654
-0.009974819
0.031605415
0.08781961
0.17955178
0.2541732
0.2827639
0.3113537
0.3530194
0.35244042
0.27952954
0.1970744
0.15279026
0.07771389
-0.08377054
-0.23718387
-0.2680426
-0.23453715
-0.2144608
-0.1543553
-0.08029417
-0.05589796
-0.002555717
0.07866113
0.08344656
0.055398226
0.080098376
0.10551423
0.06750977
-0.0057523036
-0.07715079
-0.1311371
-0.15215456
-0.16372861
-0.18617138
-0.18270552
-0.13130073
-0.04672781
0.05254576
0.13479799
0.15926133
0.095363386
-0.0026060669
-0.004206418
0.07569984
0.091739744
0.044947427
0.03609766
0.061856747
0.08229223
0.10291509
0.092983626
0.028706433
-0.007695133
0.022738673
0.041883625
0.019910194
-0.012647636
-0.05090096
-0.111082
-0.19366036
-0.2505362
-0.24703173
-0.21469726
-0.18476631
-0.13904202
-0.0672779
-0.02249281
-0.012817015
0.027972184
0.095124215
0.15266463
0.2151323
0.27663663
0.31389746
0.34523064
0.39017498
0.39996788
0.337523
0.24670321
0.13766865
-0.006379255
-0.13936579
-0.23680362
-0.32466933
-0.3883476
-0.38872042
-0.34821332
-0.31710267
-0.2902387
-0.24714473
-0.19736874
-0.14956082
-0.10396349
-0.05334481
0.00357887
0.04228986
0.061584122
0.09428596
0.1355976
0.15851109
0.16741659
0.17498337
0.1869844
0.1946303
0.179498
0.1486072
0.11795773
0.095065854
0.08067961
0.05743625
0.021280386
-0.012937486
-0.052177347
-0.10289094
-0.13980241
-0.14975555
-0.14817052
-0.13679703
-0.11588552
-0.09689713
-0.073458314
-0.039912507
-0.005895738
0.022013903
0.044764373
0.063012116
0.06645875
0.06098256
0.065570526
0.066593595
0.051208597
0.032361288
0.013532211
-0.0039425273
-0.009590736
-0.0049648215
-0.001284713
0.0019358131
0.0069519626
0.0111435745
0.017399397
0.022522224
0.030241078
0.042778835
0.040850062
0.03118702
0.02467403
0.009033793
-0.004658816
-0.0162615
-0.036967356
-0.050469678
-0.055510733
-0.05731718
-0.055972014
-0.057688423
-0.04840843
-0.032060664
-0.029898146
-0.027781416
-0.0187543
-0.014589222
-0.010652594
-0.0061379257
-0.0063000885
-0.009969246
-0.017902678
-0.023113687
-0.0171078
-0.011589293
-0.010162259
-0.0017153801
0.014922614
0.055205952
0.107426606
0.10666344
0.056643788
0.021223718
0.012834384
0.019883538
0.030186556
0.028369434
0.02687614
0.037764862
0.051092338
0.05916896
0.052715912
0.026527664
0.0042261113
0.0029143079
0.004043649
0.0022475242
0.003195947
-0.009003854
-0.033317234
-0.04872414
-0.04708538
-0.0369809
-0.036928244
-0.045355592
-0.046620622
-0.0472046
-0.05596369
-0.059791397
-0.04580099
-0.028279198
-0.026186971
-0.03049331
-0.02630045
-0.015877517
-0.008813049
-0.0040898654
0.0064873905
0.01718801
0.022814287
0.026713476
0.027627464
0.027873171
0.026882445
0.022594359
0.019802418
0.017713564
0.017596368
0.020571038
0.020993687
0.019850416
0.021116635
0.024831502
0.022811806
0.012856708
0.007994796
0.006745772
0.0028895237
9.784737E-4
-9.94542E-4
-0.0011664911
7.1611E-5
-0.0043925354
-0.007658697
-0.006535864
-0.008218849
-0.009697989
-0.0062438776
-0.0031761462
-0.005531599
-0.008529677
-0.00861749
-0.010147277
-0.013105215
-0.014265073
-0.014806908
-0.01476589
-0.013145266
-0.0107464595
-0.008294765
-0.007404146
-0.0072973873
-0.006990771
-0.007865951
-0.005832867
-0.0037425503
-0.008867965
-0.013247403
-0.012284806
-0.007678687
-9.050813E-4
0.001772343
0.0037781794
0.0067465603
0.007964806
0.010686833
0.011537528
0.01099925
0.008869426
0.004171258
0.0038896704
0.0016161479
-0.0010266514
0.002686231
0.0028567286
0.002286645
0.0013345917
-0.0026613914
7.276758E-5
0.0056868023
0.011901926
0.017484222
0.011406739
-0.0023749375
-0.013583404
-0.016290165
-0.010305698
-0.0023783871
0.0017954066
-0.0020230645
-0.008224369
-0.0106170345
-0.011148333
-0.009690982
-0.009390706
-0.008418433
-0.0023909446
8.779961E-4
-0.0020360898
-0.00459702
-0.0028215684
-0.0016369163
-0.005186333
-0.007963237
-0.007804717
-0.0065181577
-0.0053165965
-0.0039038463
6.0567766E-4
0.0051506404
0.009235673
0.014863785
0.019378744
0.024300922
0.028012281
0.028418655
0.02781974
0.026666153
0.02663765
0.02140241
0.008543586
-0.0013546358
-0.007643429
-0.009500599
-0.0032661837
0.0018253869
-5.147013E-4
-0.0052680923
-0.0075276406
-0.007787351
-0.006903334
-0.008863541
-0.01780278
-0.024195133
-0.024469368
-0.026322072
-0.027248116
-0.023988977
-0.017639188
-0.010436722
-0.0057849674
-0.0013993554
0.004707962
0.01083713
0.013482293
0.012834289
0.013486232
0.0130130835
0.010725385
0.008788958
0.0061682686
0.005068983
0.003572352
0.0026303171
0.0054125777
0.0059276596
0.006026534
0.0076298593
0.0060111717
0.0055221147
0.007536346
0.008135108
0.007235275
0.0052592
0.0030363773
0.0010484565
8.070509E-4
0.0013368488
-5.2336964E-4
-0.0021698182
-0.0016074745
-7.8410597E-4
-0.0024533153
-0.0060735336
-0.0054535666
-0.001562867
-5.5170734E-4
-0.001653565
-0.0028694319
-0.0033739866
-0.0039280616
-0.0058235894
-0.005862005
-0.0048944177
-0.0065614283
-0.006856888
-0.0048669158
-0.0042026117
-0.002878003
-9.961302E-4
-2.5486224E-4
8.8882964E-4
0.0011137323
6.6986785E-4
0.0018551997
0.0028330493
0.002929244
0.0029854313
0.0017178449
8.464014E-4
0.003203254
0.005161177
0.004155833
0.0031392137
0.0031242806
0.0045430968
0.005682828
0.004460265
0.0047058184
0.0042859092
-6.0305983E-4
-0.0041132076
-0.0044840677
-0.0044639735
-0.0033352813
-0.0015064967
-0.0014097011
-0.0035379506
-0.004744124
-0.004133829
-0.0033964252
-0.00233341
-0.0020380898
-0.0023228796
-7.168892E-4
0.0011876144
5.633342E-4
5.603267E-4
0.002636674
0.0029525245
0.0052510006
0.007621343
0.0034402353
0.004146347
0.00816637
0.0048074382
0.0068760873
0.012043614
0.0066177687
-8.611405E-4
-0.004812022
-0.006674456
-0.0066270074
-0.007776422
-0.00827234
-0.008138811
-0.009415049
-0.00833797
-0.00561788
-0.004349261
-0.0031200482
-0.0011892808
0.0012105228
0.0012545673
-0.002014703
-0.0011478795
0.0038936369
0.0048585767
0.0036425965
0.004278075
0.005137883
0.0053786132
0.0044315592
0.0041104467
0.004547486
0.0028544215
0.0023511525
0.0035256497
0.0023449562
0.0014727635
5.724189E-4
-0.0028596623
-0.004165149
-0.0026018855
-0.0015804279
-0.0020819495
-0.0034703102
-0.0024192962
-1.7600304E-4
6.0666027E-4
0.002312029
0.0033067146
0.0025675565
0.0023669016
0.0012681745
-6.105075E-4
-0.001021588
7.669772E-4
0.0013552097
-0.0013774371
-0.0021948349
-0.0017942287
-0.0037954103
-0.0042488007
-0.0024458885
-0.0012610883
-0.0016257043
-0.0019103346
2.2385306E-4
0.002932509
0.0038262769
0.002960264
0.004039484
0.0074254936
0.007195798
0.006220904
0.006536611
0.0031916068
3.1841543E-4
6.632498E-4
5.7408557E-4
-7.7795563E-4
-0.004652059
-0.011366663
-0.01696907
-0.017153444
-0.014156854
-0.010970713
-0.0057095783
-0.0012463183
2.5559292E-4
0.0013107813
9.626319E-4
-3.1126552E-4
-8.1516017E-4
-9.022675E-4
0.0014227993
0.0076445197
0.0147351185
0.019343304
0.020386651
0.01761942
0.014701665
0.012539873
0.008573912
0.009129097
0.012768749
0.010862939
0.0059198844
-0.0043014544
-0.014542718
-0.0127827
-0.012028345
-0.017030649
-0.016425943
-0.016814657
-0.020495381
-0.018614456
-0.011343095
-0.004246965
-0.0027670178
-0.003999832
-0.00324766
-0.0028335846
-2.9548633E-4
0.0035268902
0.003926627
0.006650006
0.010158193
0.00800324
0.0075436775
0.009731707
0.0071545467
0.004398627
0.0061317463
0.0071884743
0.0054484247
0.0039335727
0.0024848308
-8.340447E-5
-0.001526714
-0.0012223476
-0.0014062042
-0.0024031345
-0.003087315
-0.0023792814
-3.8545704E-4
6.7977404E-4
7.737945E-4
0.0019718928
0.0027866263
0.0018697458
0.0012142686
3.013389E-4
-0.0020003726
-0.0036039997
-0.0032931976
-0.0026289404
-0.0026875346
-0.0020747131
-0.0015102142
-0.0039048786
-0.007758633
-0.009342566
-0.008154413
-0.00621366
-0.00463211
-0.0031106074
-0.002667785
-0.0013860568
0.0038834745
0.007906135
0.006903727
0.006015012
0.0064425883
0.0057590585
0.0055140783
0.007496175
0.009746616
0.009625278
0.008170427
0.005639327
0.0017070215
7.491039E-5
1.9288594E-4
-0.0015560236
-0.0042333854
-0.0051465114
-0.002466891
6.787269E-4
0.0019206034
0.0034543131
0.004150927
0.0041930676
0.0045662853
0.003710357
0.0019288422
-9.7129797E-4
-0.0035522664
-0.005621628
-0.007671034
-0.007797614
-0.0102743115
-0.0150035955
-0.017055232
-0.01706059
-0.014856862
-0.013762631
-0.012544077
-0.008250227
-0.007237916
-0.005537085
-0.0033535103
-0.0056143464
-0.0030134462
-2.3045797E-4
0.0015900029
0.012577357
0.019369898
0.019439256
0.02462077
0.028266378
0.029195387
0.031202601
0.029925123
0.02875791
0.030830659
0.03034735
0.025526809
0.016388852
0.0022729982
-0.009642831
-0.017999949
-0.028353298
-0.034123935
-0.032904893
-0.032668542
-0.03280446
-0.030318774
-0.026831562
-0.024555318
-0.023273218
-0.022155715
-0.020726977
-0.0147530725
-0.0074767265
-0.0040453253
7.1371795E-4
0.005289431
0.0084466385
0.013608395
0.016138403
0.017048921
0.017760236
0.015486299
0.015978968
0.019518778
0.02129481
0.02216814
0.022273982
0.02104904
0.015366888
0.0047128107
-0.0034567784
-0.0061901724
-0.006257318
-0.0062346905
-0.007382869
-0.007523652
-0.0047730575
-0.0022454094
-0.002873367
-0.0026921134
-0.001299997
-0.0038775578
-0.007047606
-0.0069015934
-0.006027598
-0.0055157053
-0.0045804093
-0.002142292
-0.0013237545
-0.004354002
-0.0070484662
-0.008260308
-0.007809256
-0.006017039
-0.005383475
-0.0044969944
-0.0019386997
0.0018304586
0.004216811
0.0037814288
0.0035142621
0.0032448238
0.0024391634
6.519505E-4
-0.0014838494
1.0501405E-4
0.0012582025
-3.060002E-4
5.4525625E-4
0.0028477134
0.0043832767
0.0041070515
0.00352303
0.0041888272
0.0046273717
0.0076573393
0.010478054
0.011336724
0.015208374
0.014883649
0.008591185
0.004448304
7.9700735E-4
-0.0033644505
-0.008745036
-0.014572337
-0.014097974
-0.010443967
-0.008999998
-0.008191681
-0.0069218203
-0.0035895607
3.5015235E-4
0.0032720952
0.00630432
0.0076780417
0.01055896
0.013936782
0.008720322
0.0024989068
0.0014212072
-0.004402812
-0.010544355
-0.010674659
-0.013166278
-0.017705431
-0.018616311
-0.01853309
-0.019827506
-0.019859523
-0.016760059
-0.012176751
-0.007935513
-0.004795596
-0.0017731473
0.0012564961
0.002706541
0.003968899
0.0052699465
0.0067968466
0.010140353
0.014545674
0.02344056
0.035262562
0.042218667
0.047516745
0.05271204
0.052054495
0.047211193
0.044473145
0.042195007
0.029778458
0.0067654136
-0.020068878
-0.049499694
-0.07166321
-0.07797491
-0.070886925
-0.053968616
-0.039317213
-0.03181268
-0.023277663
-0.017540244
-0.017459607
-0.016235096
-0.013747054
-0.009868178
-0.0027205974
0.0031484077
0.0066309506
0.012169598
0.017486544
0.019172126
0.020430867
0.022137241
0.023492184
0.025620332
0.026693057
0.026494594
0.025489574
0.02000726
0.012217825
0.0070092464
0.0022887264
-0.0035429245
-0.0094064055
-0.01345995
-0.014465639
-0.014177053
-0.01156869
-0.008178438
-0.008047669
-0.006117106
-1.05507555E-4
0.0049676765
0.0074617406
0.00901545
0.011638926
0.01267882
0.010997358
0.007908824
-5.986963E-4
-0.010185239
-0.013299517
-0.01220541
-0.008971116
-0.007874162
-0.010585707
-0.012451694
-0.013911188
-0.012962334
-0.0091605885
-0.0076455423
-0.0051243836
-7.101214E-4
0.0016809385
0.004451582
0.0063291336
0.0051423735
0.0043313345
0.0036059672
0.0017201992
5.664715E-4
0.0010330706
0.002936315
0.004377827
0.005387663
0.007321178
0.0064373887
0.0034889097
0.003010492
0.0024611587
0.0019568542
0.003281812
0.0039903545
0.004052654
0.0031774912
0.0019326814
8.9796656E-4
-0.0012480917
-0.0013257411
-5.06535E-4
-0.002180303
-0.0014733204
0.0024120712
0.0034670685
6.054702E-4
-0.0011586183
-0.0014654903
-0.0034342417
-0.003532104
-0.0024423203
-0.0036601808
-0.0039802417
-0.0035417024
-0.0028155844
-0.0021355376
-0.0032664035
-0.0032017315
-0.0031072267
-0.004165066
-0.0042586224
-0.005267957
-0.004868721
-0.0029602959
-0.0028451933
-6.2088796E-4
0.0031188577
0.0034528803
0.0018055784
0.0013334932
0.0026283504
0.003923003
0.0044146394
0.0060244673
0.009927156
0.012685053
0.011499963
0.009385651
0.005424111
-6.33069E-5
-6.597253E-4
6.429408E-5
-0.001430324
-7.005624E-4
0.0018792453
0.0041605593
0.0017193345
-0.004538378
-0.005787034
-0.0054980833
-0.006683016
-0.0075276117
-0.013090086
-0.016253274
-0.01145583
-0.006766217
-0.0026233129
3.982299E-5
0.0015986927
0.004666759
0.003691664
0.0027431336
0.0036528078
-3.122643E-4
-9.490671E-4
0.0046793288
0.0068356055
0.0049662217
0.0025920656
8.9286E-4
9.861854E-4
0.0015791758
-0.0011973201
-0.0049035875
-0.002749813
0.0014229427
0.0022387502
0.0016955175
0.0015248129
0.002866594
0.0035808499
0.0023694704
0.0019936364
0.0011693176
-0.0011350763
-0.0020177236
-7.6113595E-4
-2.5045872E-4
1.4164236E-4
0.002672497
0.0035780773
0.0040032673
0.004560454
-1.5792859E-4
-0.003879903
-0.004175839
-0.0061300052
-0.004960741
-0.002537849
-0.0040858327
-0.0054604188
-0.0047416934
-0.0032844222
-0.0024040784
-0.0013444823
8.541689E-4
0.0025318265
0.0042860107
0.004653336
0.0017243632
-7.0409983E-4
-0.0016689601
-0.0016430322
0.0017143409
0.004436435
0.0036352715
0.0051180352
0.0051751873
-9.5211755E-4
-0.0028760557
-0.00118785
-0.0037202446
-0.005356764
-0.0050473716
-0.004103634
-0.0014047937
2.4634498E-4
0.0012772077
6.1671896E-4
-0.0014651873
5.4856133E-5
0.0026476893
0.0019619667
3.3422382E-4
0.0031790673
0.007511751
0.0043799262
-4.5545105E-4
6.664181E-4
0.0022474874
0.0012886298
4.110352E-5
-3.633427E-4
-0.0020525744
-0.002988157
0.0015538394
0.005100714
0.00418682
0.00141343
-0.003738252
-0.005412035
-0.003013515
-0.0013211484
8.05965E-4
0.001601582
0.0021776191
0.0030909576
9.991731E-4
-0.0016146452
-0.004748785
-0.006608268
-0.0050818017
-0.005601483
-0.006692751
-0.006721103
-0.007822618
-0.006276578
-0.002938047
-0.0018125781
-0.0018700081
-4.997594E-4
0.0024316893
0.0038339535
0.0031001137
0.0021342319
0.0027340096
0.0050977604
0.0072436
0.00841973
0.0072685718
0.0074930144
0.013540598
0.016212523
0.011685737
0.009303988
0.010069193
0.008744991
0.005054886