-7.9090043E-4
0.0012390891
0.0020608352
0.0034654252
0.0035405657
0.0017329184
-0.001857156
-0.004268661
-0.0031520627
-0.0010010006
0.0012309432
0.0036888272
0.0044310647
0.0035487583
0.0030100085
0.0016632975
-0.0017780456
-0.004624214
-0.004360645
-0.0010683624
0.001871018
0.0022015658
0.003113843
0.0041986103
0.0040417556
0.004952252
0.0030177073
-0.0029526567
-0.005197835
-0.0029371295
-0.0018394729
-0.0012734088
0.0016513134
0.003222625
0.0012676928
-0.0016052658
-0.0047778017
-0.007015882
-0.0074601695
-0.0049797227
-6.741834E-4
3.0784804E-4
0.0012966294
0.003765873
0.0034227485
0.0022137421
-0.0014538468
-0.004601672
-0.001999945
-3.216054E-4
9.0204476E-4
0.0035945561
0.0037650233
0.004637959
0.005639565
0.0025999092
-0.0025010307
-0.0052283504
-0.0037576044
-0.0017881055
-3.4510722E-5
0.002990357
0.0039045205
0.0028998638
0.0032316057
0.0020646644
-0.0032107453
-0.007035097
-0.0056698667
-0.0017219906
0.0017603762
0.0030104488
0.0049144765
0.006144728
0.0038222815
0.0032742778
0.0016988751
-0.0016304259
-8.1480655E-4
-0.001140231
-0.0015788027
0.0012120267
0.0019479633
-0.0017793743
-0.008297705
-0.0064554876
-0.0011585016
-0.006580754
-0.006758853
-4.5726076E-4
-8.0398E-4
0.0034541704
0.008995672
0.005680321
0.0011173583
-0.0015736357
-0.0037696722
-0.0068625594
-0.005896632
6.954783E-4
0.0028135513
0.0036472725
0.0054828455
0.004016908
0.004598842
0.0027578152
-0.0015829218
-0.0015955803
-0.004032767
-0.0036667604
0.0031636136
0.0045310226
0.0036435283
0.005445667
0.0056010643
0.0018762179
-0.005243233
-0.008830957
-0.0074816844
-0.0042942744
0.0011881964
0.0034235278
0.002855507
0.0043165726
0.0031927756
-1.8665665E-5
-0.0011979748
-0.0027633111
-0.00454386
-0.0032845335
-6.260944E-4
7.5503933E-4
0.0028682519
0.004657458
0.0023751578
-0.0012360635
-0.003379875
-0.0054531754
-0.0069698966
-0.0052221166
-4.8823774E-4
0.0026574892
0.0030345076
0.0033866742
0.0027376835
6.7686095E-5
-0.0015650558
-0.0022953001
-0.0041946913
-0.0031471245
0.0018906572
0.005841252
0.008140192
0.0076462566
0.00523459
0.0058827717
0.004191256
-0.0034089538
-0.008772869
-0.007621612
-0.0014970861
0.003546408
0.003279016
0.0031565577
0.0036239678
6.7262247E-4
-0.003249141
-0.0074359723
-0.009812967
-0.006998327
-0.003582349
-4.5213898E-4
0.0040878453
0.0055452078
0.0040616672
0.0013143361
-0.0026558405
-0.0050053964
-0.005245898
-0.0023794856
0.0017859626
0.0030965456
0.004199809
0.0056400467
0.0058779344
0.0030109761
-0.0033149018
-0.004518894
-0.0024860066
-0.0025379835
0.0014900897
0.004146027
0.0021987
0.0029356875
0.0035782168
0.0038852845
0.0027516114
-0.004422156
-0.008626273
-0.004751732
-1.3859087E-4
6.880448E-4
-2.557693E-4
3.4978375E-4
0.0010668917
0.0012784391
3.9980633E-4
-0.0023450782
-9.3188375E-4
0.002466826
0.0016951486
0.0016174318
0.0018497523
-7.537524E-5
3.109799E-5
4.3492022E-4
-0.0016595583
-0.0052895867
-0.008339387
-0.0052751796
0.0013344421
0.0027738449
0.002262601
0.0037470853
0.0032198175
0.0017883065
-0.0010425403
-0.006471909
-0.005982595
-8.7610557E-4
0.0011117706
0.0037967744
0.006253597
0.0054290127
0.005050781
0.0038513776
0.0015696877
-5.054291E-4
-0.0034604764
-0.0037807727
-0.0011958407
0.0013092863
0.0029400697
0.0017338898
4.201761E-4
3.918541E-4
-0.0026411524
-0.006425506
-0.006998051
-0.0043166364
-2.3030817E-4
0.0015264738
0.0020971203
0.0028184373
0.0027200603
0.003161289
7.2744925E-4
-0.0041362247
-0.0048616547
-0.0032550043
-0.0012238085
0.0010299246
9.262319E-4
9.934626E-4
0.00288431
0.0042173816
0.002493154
-6.994908E-4
-3.4339412E-4
5.0723917E-5
-0.0017015613
-4.6735964E-4
0.0021747698
0.0045114704
0.004467646
-1.3573267E-4
-0.0020581058
-0.0024016423
-0.0058925105
-0.0042901845
0.0011751297
0.0015396775
0.0014505974
0.0053502116
0.0070289555
0.0024642462
-0.0045732455
-0.008973247
-0.008416967
-0.0034939684
0.002195386
0.005150883
0.005641802
0.0054388414
0.0040451554
0.001137187
-0.0020613796
-0.0061438815
-0.008595485
-0.005514497
-0.0018397896
-6.020129E-4
0.0013730478
0.0036192322
0.005707105
0.005380953
-3.4803775E-4
-0.0064757424
-0.0073361993
-0.002333309
0.003938431
0.005885769
0.0053471215
0.003955974
0.0016804542
0.0015892385
8.541933E-4
-0.0026454846
-0.0035223183
-0.0011092304
0.001721572
0.003367417
0.0020826792
-1.8318908E-4
-8.5296266E-4
-0.0010485239
-0.002776144
-0.0054926863
-0.0058157914
-0.0033471345
2.0106338E-5
0.0025947439
0.0017649019
0.001281465
0.0037279374
0.0024325834
-0.0020711627
-0.0036806897
-0.0031380467
-0.0028143935
-0.0019136473
0.0014421111
0.0045958087
0.005780446
0.0062280083
0.0032636381
-9.707268E-4
-0.004252994
-0.0069193486
-0.004316909
2.98516E-4
0.0055142273
0.009063906
4.8973906E-4
-0.0042996714
0.004199544
0.0053430214
1.8307575E-6
-0.0057532364
-0.01154508
-0.0063115736
0.001098887
0.0012124854
0.0025536048
0.00460273
0.0039091557
-7.097837E-4
-0.006330293
-0.005954552
-0.002593737
1.0401352E-4
0.0031387114
0.006162008
0.0076052193
0.006580496
0.005653794
0.002035392
-0.005315424
-0.007941055
-0.004897056
-0.0015312916
-5.2236053E-5
0.0012406684
0.0035041969
0.0035878497
0.0014058448
-0.0024636043
-0.005142956
-0.0049734614
-0.0057094875
-0.0016699693
0.0013094514
-0.005426087
-0.0034556468
0.005390496
0.00525922
0.003611507
0.0010063231
-0.0025774175
-0.0012938043
0.001426029
0.0045046867
0.0042443224
0.001325022
0.0025399963
0.0026652392
3.320059E-4
-0.001226557
-0.0031532638
-4.646501E-4
0.0054453057
0.0047361585
-2.773241E-4
-0.0010989006
7.628905E-4
-7.121621E-4
-0.0049004564
-0.0064312406
-0.0048877336
-0.004450907
-0.0035706228
-3.6391002E-4
0.0010073264
9.7469776E-4
0.0013842321
0.0013829139
0.0012597621
-0.0011681027
-0.0043479325
-0.0035551672
5.547053E-4
0.004638611
0.005682632
0.0048352596
0.004223787
0.003836581
0.002883366
-0.0010855108
-0.004748265
-0.005243591
-0.004405821
-3.3994156E-4
0.003117058
0.0024801607
0.0024602937
0.0021094312
-0.0010856749
-0.0058992887
-0.008240655
-0.0041146246
0.0014406256
0.0040794206
0.0048391805
0.003461224
0.002703723
0.0039655715
0.0036599399
9.2615996E-4
-0.0036159498
-0.0081017045
-0.0062088785
0.0011085164
0.0035654216
7.339806E-4
0.0010270508
0.004727361
0.0048848977
-2.6715748E-4
-0.004908648
-0.0067328727
-0.006343437
-0.0022995926
0.0018993736
0.0034164207
0.0039111804
0.0035103403
0.0024716565
-8.1343774E-4
-0.005247654
-0.005158422
-0.0023286801
-4.774824E-4
0.0020209283
0.003953567
0.003580448
0.0035765455
0.0026374343
-0.0026563737
-0.0062079136
-0.0032989949
0.0010993308
0.004105364
0.0044014915
0.0025506904
0.0019395202
-1.2458849E-4
-0.0031701406
-0.0033194115
-0.0043967557
-0.0050198017
-7.6275505E-4
0.0030600305
0.0041358923
0.0042568045
0.0023465767
9.49453E-4
-3.3590314E-4
-0.0050293556
-0.007819656
-0.00494342
-5.319186E-4
0.0029242444
0.005685525
0.007329713
0.0055697258
0.001870533
-7.4718794E-4
-0.0034264557
-0.0039283936
-0.0029059278
-0.0036380144
-0.0013520333
0.0024801923
0.003084692
0.002946271
0.0016891576
-8.3996233E-4
-0.004437797
-0.008160278
-0.0070607793
-0.0028217346
0.0019217294
0.0057100654
0.005378605
0.0049618925
0.0042730453
9.969166E-4
-5.9596513E-4
-0.0021059983
-0.001761798
0.0017202493
4.7697796E-4
-8.6649373E-4
0.0013540192
4.9958896E-4
7.963558E-4
0.0025937245
-7.528536E-4
-0.004802399
-0.003908227
5.014756E-4
0.0031411084
0.0028565337
0.0034101608
0.0030686595
6.349833E-4
-0.0022780749
-0.005401423
-0.006621962
-0.0061135297
-0.0031561167
0.0012884877
0.0022524514
0.002953777
0.004377829
0.0035515113
0.0017574196
-0.0026465615
-0.004671053
-0.0019633328
-0.0019972513
-0.0012968502
0.0015350889
0.002795246
0.0041483473
0.003025657
0.0013793304
1.2908028E-4
-0.0039441
-0.0050065676
-0.0030103386
-3.024737E-4
0.003676824
0.0043554916
0.0040184967
0.0038475054
0.0026989651
0.0029271392
-0.0015529768
-0.0078190155
-0.0063221003
-0.002123673
0.0012493418
0.0040257727
0.003711689
0.0014274112
-0.0010277623
-0.0026446718
-0.0039231107
-0.0031493974
8.051808E-4
7.7263906E-4
-0.0024344525
-6.898564E-4
0.0029436077
0.003246818
9.553E-4
-0.0019316158
-0.004255893
-0.0051147225
-0.0017845117
0.0030354203
0.0052873623
0.0075795786
0.0057689645
2.8006308E-4
0.0019808295
0.0029299033
-0.0038990988
-0.0067656115
-0.0048900857
-0.0022381335
3.5991648E-4
-2.2877226E-4
9.464172E-4
0.0035349177
0.0013847435
-0.0029084443
-0.006258477
-0.005973232
-0.002198516
0.0013232135
0.004108957
0.0055471053
0.005680068
0.004667261
0.004542305
0.004396342
-0.0030020643
-0.009732293
-0.007151935
-0.0032996074
1.008445E-4
0.0027094749
0.002190547
0.0025731407
0.0024299168
-0.0013603867
-0.0048266044
-0.0028638178
8.2544703E-4
0.0015132381
0.0030137096
0.004212821
0.004557573
0.0050824317
0.0010784076
-0.003018071
-0.0058296835
-0.008087926
-0.0022594577
0.0033424872
0.0024469295
0.0032278153
0.004660253
0.0050181486
0.0027654893
-0.004790929
-0.01013071
-0.007671707
-0.003421389
-0.0034059165
-0.0016701032
0.0043924283
0.005311235
0.0024158957
6.1042374E-4
-0.003335006
-0.005822539
-0.0038651484
-0.0011648185
0.0014222327
0.0038897218
0.005498644
0.0060417415
0.0050022686
0.002864171
0.0012265766
-3.0189642E-4
-0.0024174266
-0.0023750036
-5.1552703E-4
9.370941E-4
0.003981818
0.008817247
0.010562676
0.003447829
-0.0080154445
-0.012943147
-0.011073625
-0.005940929
-9.40245E-4
-2.5262986E-4
-9.911234E-4
-2.7832878E-4
0.0023799816
0.0042866305
-8.995296E-6
-0.005206183
-0.005014977
-0.0025534458
-1.6089687E-4
0.0027269067
0.0055230292
0.005116847
0.00316468
0.0030898517
0.0012887444
-0.0023577644
-0.0038669596
-0.0023766395
8.207867E-4
0.0026643798
0.0024955329
0.0021477127
0.002481287
0.0016007421
-9.896207E-4
-0.0033348422
-0.0064717145
-0.005914569
-5.0025794E-4
0.0012353725
0.0023083212
0.005240997
0.0054895314
0.004875402
0.0029242733
-0.0014494742
-0.006296195
-0.005372106
3.336671E-4
-0.002651865
-0.0040147295
0.0069133765
0.0106492955
0.0033088
-0.0045726183
-0.009974999
-0.008921637
-0.0035599745
9.349046E-5
9.477617E-4
0.0028502597
0.0051366445
0.0037347586
0.002119345
-7.240726E-4
-0.0047049974
-0.004857171
-0.003529807
2.6397058E-4
0.0038380248
0.0039075464
0.0051694834
0.0039011885
8.8315684E-4
-5.288559E-4
-0.004297834
-0.0058043534
-0.0020991326
0.0030967905
0.0051797843
0.0026432492
0.0018237233
0.0024799877
0.0012218243
-0.0020755786
-0.0066071325
-0.006615825
-0.0035369592
-1.2674881E-4
0.0043605044
0.0045724087
0.0019528728
1.0377583E-4
-0.0016559351
-0.0022572188
-0.0032606437
-0.0033024747
-0.0013732949
4.7761848E-4
0.0031804435
0.006634609
0.008447989
0.0038190414
-0.0022729896
-0.001422251
-0.0016241464
-0.0047120024
-0.004239114
-0.003008478
-0.0026675183
-0.001376762
0.0023939037
0.004508519
0.0023917293
1.9489422E-5
-0.003947398
-0.0049556135
-0.0014760798
-7.073174E-4
0.002445308
0.0058020297
0.0039414437
0.0021862146
-3.3685678E-4
-0.0013652457
-0.0019855495
-0.005152152
-0.0032403106
9.5988833E-4
0.0029370615
0.004275637
0.005522271
0.006644378
8.8956434E-4
-0.0059634508
-0.005938779
-0.0062253196
-0.004392937
-4.0379708E-4
0.0011895843
0.0040784013
0.005433055
0.004644548
0.002730258
-0.0015974868
-0.0043722526
-0.006292036
-0.005885182
-0.0013203948
0.0012570731
0.001526756
0.002545089
0.004091457
0.003937685
0.0010307855
-0.0022602181
-0.0041718427
-0.0020919922
0.0022267525
0.0051140063
0.006912497
0.0056216274
0.0048754863
0.004333242
-0.0034550335
-0.009199018
-0.007595154
-0.0071499026
-0.006378966
-0.0025140035
0.0011160772
0.001456888
0.0011473473
0.004105819
0.0036896695
-8.646803E-4
-0.002541993
-0.0036460536
-0.0047973115
-0.0033017455
1.1104814E-4
0.0031272313
0.0021757476
8.0013653E-4
0.0022111658
0.0014712318
-9.5331015E-5
0.0024508499
0.0076347566
0.009581746
0.0052275094
0.0018547641
0.0027554205
0.0014323508
-3.9792026E-4
-5.114718E-4
-0.0039017599
-0.008290096
-0.008190819
-0.0050942716
-0.0026166537
-0.0012527053
-1.9208588E-4
7.423352E-4
0.0011317973
-0.0013436809
-0.0032608928
-6.0066365E-4
-0.0013770505
-0.005330515
-0.0048746634
-0.0037720753
-4.1080944E-5
0.006588664
0.0048951986
-0.0034846833
-0.0091314735
-0.0059981816
0.006143263
0.01563415
0.016894445
0.014277682
0.009089722
0.0031779937
-0.0028256923
-0.008454916
-0.00997558
-0.007996432
-0.0036538546
0.0020428265
0.0014179242
-0.0063602086
-0.010207395
-0.0067142746
-0.0026926077
-0.002018142
-0.0038681328
-0.004832742
-0.0030760276
-0.0010029462
2.4082499E-4
8.9183784E-5
-0.0022762425
-0.004810508
-0.0066061923
-0.008163176
-0.0077731567
-0.0023655826
0.0069695027
0.013440406
0.016498154
0.020716619
0.024920288
0.026051076
0.020618662
0.00968755
0.002044057
0.0025582523
0.006821773
0.004018461
-0.0043214513
-0.00586381
-0.005053159
-0.007865566
-0.010073866
-0.012996553
-0.015304472
-0.013701529
-0.011539609
-0.010019992
-0.008155074
-0.007960264
-0.007595656
-0.0043819863
-0.004069082
-0.0078004994
-0.008198438
0.0011785389
0.017806469
0.032395013
0.04944551
0.06349528
0.05638474
0.036436863
0.015426546
0.001053773
-0.0066219736
-0.0174499
-0.025844663
-0.046105463
-0.07384527
-0.07444116
-0.073249295
-0.08061677
-0.06579968
-0.044522926
-0.03709673
-0.03697616
-0.035262056
-0.033126734
-0.02136323
0.016176919
0.044536978
0.043692436
0.058620892
0.09809277
0.11868218
0.11421736
0.11388617
0.10805604
0.09001022
0.07013789
0.035025366
0.01075752
0.011947775
0.026494259
0.0625999
0.06865733
0.031849124
-0.016340572
-0.08665202
-0.1322107
-0.16157585
-0.20553617
-0.18465309
-0.119603135
-0.08053441
-0.05799405
-0.04556068
-0.022645097
4.290408E-4
0.0040480373
0.01079223
0.01257833
0.011422724
0.018785272
0.02585716
0.04025799
0.053436924
0.057354074
0.061695315
0.06440356
0.064602174
0.060447652
0.05322294
0.044250168
0.026937136
0.012299076
0.009127438
0.0053188168
0.0026608056
0.007949066
0.0071798353
-0.0035883468
-0.014625519
-0.024146745
-0.025357269
-0.01919621
-0.016075442
-0.012729381
-0.006965194
-0.002197654
-0.0018527616
-0.0060566836
-0.00856698
-0.0117300935
-0.016551124
-0.017526057
-0.01667368
-0.01728802
-0.019002344
-0.018367978
-0.016255802
-0.015613808
-0.015180604
-0.016899075
-0.015455041
-0.007137412
-8.5189834E-4
0.004927304
0.013876624
0.01955963
0.020454053
0.020345906
0.019730642
0.015851041
0.01014556
0.0067452015
0.007285385
0.009386934
0.0071296375
0.0036961436
0.0033951658
0.0016030249
-7.08E-4
-0.0033353847
-0.006886268
-0.007069677
-0.004355574
0.0031486447
0.009803988
0.007540117
0.004831206
0.003410742
0.004050125
0.0046114163
-0.005010084
-0.010974669
-0.009283861
-0.00663395
-1.01223195E-4
-0.0053207306
-0.008806271
0.0050632153
0.009176318
0.0062381933
-0.0020406772
-0.019344397
-0.019162398
-0.011992856
-0.009142493
-4.8700947E-4
7.680203E-4
0.002108563
0.012068018
0.011374132
7.924913E-4
-0.0032950484
3.285547E-4
0.0035820426
0.006278355
0.0027055447
-0.0019380795
0.016462827
0.033024162
0.021635188
0.014202926
0.016267918
0.012696983
0.009394208
0.0017441852
-0.012846899
-0.025767248
-0.029362071
-0.021217814
-0.012473516
-0.0112752095
-0.012896469
-0.011045606
-0.0050970395
1.4652995E-5
0.0017844627
0.0012155148
2.0016942E-4
-0.0011942367
-0.0049097617
-0.008050732
-0.006901567
-0.0020141343
0.0046180226
0.00877577
0.0084598735
0.008288525
0.0093813455
0.007831248
0.0052625723
0.0029508085
4.8063684E-4
0.0019743002
0.004244415
0.003149304
0.0026975048
0.0018040648
-9.360903E-5
-1.1635568E-4
-9.257098E-4
-0.005066867
-0.009405137
-0.00798855
-0.0025306786
0.0010969582
0.0032001187
0.003701348
0.0038710956
0.005051317
0.00243122
-0.002838041
-0.0038229777
4.1723048E-4
0.0043539866
0.003888016
0.0018262897
0.0018808669
0.0039979927
0.0041538947
-3.003502E-4
-0.004910581
-0.005843672
-0.0048127673
-0.0047021974
-0.0038145455
-0.0011771955
-0.0013861539
-0.0019162019
-4.1570983E-4
-0.0018396684
-0.004379405
-0.00493461
-0.0033163915
-0.0020121664
-0.0044956356
-0.0075648897
-0.013019685
-0.018377293
-0.011585357
0.00390518
0.016495343
0.01769897
0.011381059
0.010083953
0.008972301
0.011294941
0.022985239
0.024387565
0.012701992
-3.191098E-4
-0.008716364
-0.0059562237
-0.0033677851
-0.0057873265
-0.0049703834
-0.00553046
-0.006250563
-0.0073249955
-0.01115928
-0.0102230385
-0.009365026
-0.010527091
-0.0059640077
2.8844443E-6
0.0024002625
0.0017265743
0.0025581513
0.0064147203
0.0051388294
2.5473328E-4
0.0014672778
0.008264579
0.011044683
0.008184558
0.009277545
0.008006695
-0.0018437511
-0.004180683
-0.0023059521
-0.008990002
-0.012053628
-0.0076509197
-0.0034115065
0.0010332854
0.001557693
-0.001904774
-0.0034083887
-0.008396586
-0.01640718
-0.015547243
-0.0091986265
-0.004357391
0.003955229
0.01259217
0.014233927
0.009399153
0.00393461
0.007384916
0.0146903405
0.014066624
0.009155894
0.0038054946
0.0020747634
0.008090937
0.008498429
-0.0014107352
-0.0033995805
0.004021065
0.0026958617
-0.005698558
-0.0072513497
-0.002931396
0.002931911
0.0033332056
-0.007158013
-0.014284688
-0.011311638
-0.008703701
-0.010036344
-0.0141249355
-0.014567783
-0.007875488
-0.0025653637
-8.3892455E-4
4.456302E-4
0.003107504
0.0058247317
0.0031506498
0.0019546906
0.0040913676
-0.0012095448
-0.0040371423
0.0036375897
0.008685022
0.009941111
0.012470212
0.011059693
0.0042479057
-0.002293625
-0.0042561884
-0.0017878584
0.0016438845
0.003477243
0.0066120503
0.008808492
0.0069377967
0.011039432
0.011624396
-0.0034386776
-0.0070679183
-0.0019082269
-0.017060189
-0.027257264
-0.011169913
0.007266208
0.01359424
0.010895457
0.00795181
0.0053445213
-0.0068366937
-0.019224983
-0.01882739
-0.012187005
-0.0056144595
-0.0010623197
7.463526E-4
0.0013579055
3.5875413E-4
-0.0011721228
-0.005169112
-0.010375718
-0.0056194896
0.0047029806
0.008317939
0.01137296
0.01388577
0.005575567
-0.004326041
-0.002883448
0.0021787658
0.0032928733
0.006519682
0.012356158
0.013045814
0.009867256
0.012230705
0.01699088
0.007777462
-0.011963569
-0.021767216
-0.02057361
-0.016310945
-0.009089915
-0.0014968598
0.003592826
0.006198188
0.0071277358
0.0054360437
0.0011668983
-0.002428573
-0.009974139
-0.017450795
-0.010762317
-0.0010290977
3.4731327E-4
0.001503099
0.0017761063
0.0028822988
0.007863768
0.0067561786
7.5683626E-4
-0.0010829067
4.0182704E-4
0.002656823
0.0041485624
0.0029115079
2.3810318E-4
-5.0259223E-5
5.972104E-4
-0.0017034857
-0.0033897187
-0.0029848611
-0.0033221797
-0.0014392644
0.002916371
0.005010254
0.004293024
0.0031347242
0.0026368652
9.874449E-4
-0.002292044
-0.003833085
-0.0018296994
9.24783E-4
9.708849E-4
9.296204E-4
0.002262076
9.0035086E-4
4.2541556E-5
9.522085E-4
-0.004023594
-0.010583092
-0.008923252
-0.0021404326
0.004085727
0.008612088
0.009891014
0.008083367
0.0048483335
6.8231235E-4
-9.617874E-4
-8.5954927E-4
-0.004859815
-0.007947239
-0.005940085
-0.0046775034
-0.0036045453
-5.388249E-4
0.0013069557
3.9594632E-4
-0.0018550756
-0.0026457263
-0.0014174866
0.0026646375
0.008108508
0.0062582227
-0.0024697876
-0.006666674
-0.0036435507
-0.0010488828
-0.0026339202
-0.0038483194
-0.0024385601
2.7596857E-4
0.003750603
0.0052515795
0.005184199
0.0055094585
0.004359909
0.0017541661
-0.0012255884
-0.0018784625
1.5030556E-6
-0.0010420551
-0.0015072671
0.0038485867
0.009661673
0.011723986
0.008726942
6.071227E-4
-0.008837789
-0.014227246
-0.011327334
-0.0044699158
-8.287221E-4
-2.4269253E-4
-4.862442E-4
5.893957E-4
0.0017655907
-0.0010808717
-0.004577625
-0.004253433
-0.0025698135
-5.472862E-4
0.0023991931
0.0038922473
0.004084582
0.0046242434
0.0035351815
8.8307564E-4
-0.0014251673
-0.0031909633
-0.00163588
0.0031746074
0.0055217952
0.0035590483
-4.2321417E-4
-0.0033148883
-0.0025550283
-0.0021347064
-0.0067079808
-0.009964119
-0.0071743648
-0.002989984
0.0020473255
0.0063291495
0.0053597125
0.0033755258
0.0026604438
4.1988457E-4
-0.0021155716
-0.0037346652
-0.0037636517
-0.0012179153
0.0025762983
0.0056907907
0.008198356
0.010656382
0.01111344
0.008092029
0.0025518981
-0.002068305
-0.003947003
-0.007344553
-0.01115171
-0.008799125
-0.0021564926
0.0020197288
0.0016386538
6.923545E-4
-5.7547324E-4
-0.00563554
-0.008065173
-0.0042038714
-0.0013250242
-4.7450176E-5
0.0022428066
0.002722622
0.0011350332
-7.9506414E-4
-0.0033914319
-0.005093573
-0.0033787515
0.0011947211
0.0063052513
0.010086431
0.011270936
0.008993804
0.005073975
0.0015796265
-0.0022019667
-0.004530783
-0.004124736
-0.0024201756
-1.9351573E-4
4.015856E-4
4.1538198E-4
1.54531E-4
-0.0019107094
-0.00296279
-0.005971326
-0.0090578785
-0.0057241507
-0.002507557
1.0694354E-4
0.004391246
0.0059024408
0.0057412325
0.0026841788
-0.0011099915
-0.0031494715
-0.0069890837
-0.0071014217
-0.0021120366
0.002725174
0.005457338
0.0047874046
0.0056874896
0.007432612
0.00540891
0.0033887234
0.002117855
-9.188966E-4
-0.006127663
-0.007691155
-0.002407898
0.0023448737
0.005233064
0.006008362
0.0028262746
-0.0010414831
-0.005738173
-0.0073980633
-0.0041656536
-7.062643E-4
0.0027611372
0.0020340716
-0.0017922844
-0.0018588877
-0.0012777487
-0.0020012509
-0.0045402143
-0.0069872267
-0.0031611712
0.002310058
0.004341695
0.005164064
0.0045677684
0.0031823586
0.002190964
6.260848E-5
-0.003340486
-0.0038230773
1.2560487E-4
0.002406017
0.0015351668
0.0023754837
0.0044045127
0.0041308287
0.0014703767
-0.00223492
-0.0057284217
-0.006433821
-0.0032702854
8.092145E-4
0.002952878
0.0025450385
8.887406E-4
-3.085039E-4
-0.0011323818
-0.0025145658
-0.004638589
-0.005438
-0.0036099176
-3.6539976E-4
0.0027048504
0.0022035227
4.539889E-4
0.0020389806
9.369441E-4
-0.0027606303
-0.0022453335
-0.0011553688
0.0011094342
0.0077438275
0.010570162
0.008219714
0.00868088
0.00996166
0.0063400497
4.7931998E-4
-0.0057174996
-0.0123444
-0.014134004
-0.009385201
-0.0035353706
2.0985832E-4
0.0024040125
0.0036752834
0.0033281867
-3.413258E-4
-0.006614516
-0.008827568
-0.0035891677
0.0017398427
0.0027445762
0.002682663
0.0028744042
0.0028619147
0.0014328595
-0.0021118743
-0.004816017
-0.004239286
-0.001247411
0.0029258947
0.0057022525
0.003948302
0.0013613589
8.5604674E-4
-0.0014907041
-0.0043255156
-0.0061537917
-0.008118776
-0.005341779
0.0013342402
0.0051689
0.0054834727
0.0044923974
0.003040731
8.104629E-4
-8.4579637E-4
-0.0014309683
-0.0013006957
0.0015253748
0.005839886
0.009226236
0.008263137
0.0025619518
5.439209E-4
0.0024947706
0.0035931421
0.0038262268
6.1390013E-4
-0.0038712136
-0.0071775056
-0.009398659
-0.0056112465
0.001439413
0.003998899
-1.8626062E-6
-0.006951165
-0.009646539
-0.008389234
-0.006332001
-0.0030679603
2.471727E-4
0.0025859566
0.0020932662
5.706003E-4
7.255123E-4
-9.0456114E-4
-0.003224021
-0.0029364384
-2.9121843E-4
0.004353716
0.007670691
0.0083566215
0.008236928
0.0077042338
0.0058585173
6.003346E-4
-0.004677814
-0.0053458377
-0.00342992
-0.0012715912
-3.075228E-4
1.12102325E-5
6.033721E-4
-2.1659952E-4
-0.0012717801
-0.0036683676
-0.00803
-0.008497627
-0.00486069
2.0994732E-4
0.005107567
0.006904279
0.007284598
0.0057731937
0.0024471905
-1.03171646E-4
-0.0051641795
-0.007186812
-0.0019059575
0.0012350216
0.0038277383
0.008163311
0.0083674
0.0073752273
0.0055051167
-4.3608577E-4
-0.008180206
-0.012409836
-0.006915545
0.0030536356
0.008179424
0.0070799342
-4.000409E-4
-0.0074391947
-0.008438921
-0.009016566
-0.00869905
-0.004651343
-0.0012971851
0.0021723441
0.0072639915
0.006473235
-1.21252466E-4
-0.001601297
9.010944E-4
-9.197415E-4
-0.0044886186
-0.005065989
-0.0019439217
0.0024935629
0.0046283924
0.0061639915
0.0068237134
0.0050233565
0.0036456385
4.1340787E-5
-0.0050852364
-0.004548324
-0.0013442656
7.9486606E-4
0.0020835982
7.9146866E-4
9.0471E-4
0.0025882698
5.7764474E-4
-0.0026486705
-0.0051332
-0.0057556694
-0.001923986
0.0021694745
0.004314244
0.0060914536
0.00567807
0.0033806828
0.001346619
-9.416356E-4
-0.0046323542
-0.006671082
-0.004252268
-0.001991496
-6.642936E-4
0.0023886592
0.0032810986
0.0023339498
0.0011619818
-0.0029468362
-0.006707719
-0.0066593937
-0.0037773703
1.2898673E-5
0.0029092045
0.0056137443
0.00587288
0.0038753122
0.003134616
-5.8749015E-4
-0.005937019
-0.0065234536
-0.004031705
2.4911473E-4
0.0036701462
0.0036329576
0.0024647738
9.911273E-4
9.852079E-4
1.246574E-4
-0.0039393767
-0.004282166
-0.0016445885
-4.0746309E-4
0.0027837793
0.00612532
0.006284647
0.004959444
0.002554745
-0.0010572732
-0.004672115
-0.0065957117
-0.005174325
-9.914311E-4
0.0013905835
8.50645E-4
0.001980025
0.002893136
8.5394346E-4
-1.4452015E-5
-8.0234825E-4
-0.0025250358
-9.145038E-4
0.001676031
0.0023339698
0.0019078327
-0.0010708943
-0.003783225
-0.0033737384
-0.0033889683
-0.004865071
-0.0068132835
-0.005246697
0.0031841896
0.008038165
0.003940835
0.001327006
0.0028618814
0.003995401
0.0029651944
-0.001914245
-0.0060441103
-0.0042161783
-0.0013417922
8.8490295E-4
0.004624923
0.004034826
4.9393205E-4
0.0010213424
0.0025362116
0.0035757371
0.003731492
0.004387418
0.006857128
-3.5701093E-4
-0.010450453
-0.007232307
-0.0030832607
-0.0029848996
-6.8580866E-4
-0.0024977522
-0.0056631523
-0.0036430936
2.0303148E-4
0.0030131736
0.006042846
0.008178945
0.0045950753
-8.155556E-4
-0.0036761211
-0.0072519956
-0.008426144
-0.004910013
-0.0010964017
8.522377E-4
0.0022772423
0.004458753
0.0045048334
0.0022033418
3.256686E-4
-0.0018277023
-0.003333042
-0.0021191062
0.0010097219
0.0030566342
0.003870965
0.004903088
0.004245042
0.0027721103
4.2737534E-4
-0.0035826082
-0.00486151
-0.0029380189
-2.9499843E-4
8.590926E-5
-0.0014321536
2.847397E-4
0.0030296354
0.0035325587
3.135918E-4
-0.0053858217
-0.0063518505
-0.004598828
-0.0017541122
0.0033982305
0.004229618
0.0033650673
0.0045429845
0.0038931055
0.0012527258
-0.0026879266
-0.004926028
-0.004286004
-0.0017108262
0.002202573
0.002770421
0.002157142
0.0027427103
0.0010256999
-0.0014754107
-0.0048039807
-0.0074863248
-0.0052693225
-6.53694E-4
0.0028241002
0.0040988913
0.0048494753
0.0050213705
0.0023347086
-5.6067394E-4
-0.0033742704
-0.006081807
-0.004299702
5.77168E-4
0.003159024
0.0010517293
-0.0012049397
8.34343E-4
0.0016534611
-7.7481323E-4
-0.0025841726
-0.0034245432
-0.0016702575
0.0011526982
0.0014347703
0.0021654146
0.0042206026
0.004488187
0.0018497399
-0.0022083858
-0.0038089617
-0.0033626424
-0.0028153874
6.2770484E-4
0.0049624317
0.00602102
0.0059473026
0.0071882755
0.009053608
0.0056034178
-0.005830791
-0.013570057
-0.011196698
-0.0062468136
-6.523208E-4
0.0046471157
0.003615265
1.5030756E-4
-7.78958E-4
-0.0025544195