-0.19253823
-0.16425546
-0.06709696
-0.08574746
-0.15264772
-0.08200165
-7.191775E-5
-0.018225549
-0.088033855
-0.17530385
-0.14069599
0.02476792
0.14315414
0.21077411
0.27216387
0.26460233
0.20115362
0.18355231
0.14641659
0.0026597462
-0.052788712
-8.636697E-4
-0.00508798
0.024104644
0.061126873
0.017511949
-0.0463938
-0.15294336
-0.20973377
-0.13600917
-0.04949835
8.047025E-4
0.02106097
0.03666974
0.045108713
0.043446906
0.06972993
0.053913683
0.041328534
0.078420386
0.0027242925
-0.07758033
0.012494257
0.119560234
0.14877944
0.105234295
-0.023526572
-0.11653263
-0.08593419
-0.02809977
-0.05211657
-0.13637748
-0.1499273
-0.08402345
-0.06910929
-0.0621927
-0.0068763862
-0.010333904
-0.07639409
-0.15881284
-0.19354075
-0.089451075
0.043774363
0.096042685
0.09839544
0.078629605
0.08421222
0.10167806
0.1071942
0.13461062
0.15383746
0.16004147
0.15286371
0.08289087
0.0015131077
-0.0452339
-0.09148843
-0.111648664
-0.097148925
-0.090084516
-0.075672194
-0.059346776
-0.052819774
-0.013427606
0.031435076
0.05704887
0.09168215
0.10284071
0.07174331
-0.010891041
-0.09302616
-0.033728633
0.05005173
-0.016788362
-0.057168055
-0.012693473
-0.041845676
-0.05267077
-0.0053202133
-0.022112155
-0.022398384
-0.019328253
-0.10246194
-0.103620425
-0.010120173
0.013287399
-0.022512322
-0.080791526
-0.08603112
0.040946983
0.18670547
0.24738121
0.20983766
0.08566035
-0.016688421
-0.02697919
-0.009574239
-0.021250414
-0.023086563
0.043436013
0.11209748
0.108184755
0.08096703
0.033437718
-0.05323418
-0.13225245
-0.1735506
-0.16172937
-0.15720716
-0.16100955
-0.080557264
-0.04946742
-0.10705605
-0.054785088
0.035512395
0.062267747
0.11685212
0.17273168
0.17631945
0.15351525
0.12690432
0.08953338
0.04022741
0.009063463
-0.044145234
-0.101047
-0.07162301
-0.054871846
-0.14003134
-0.20586582
-0.14592293
-0.02537224
0.037586935
0.06151331
0.080072254
0.025449121
-0.06167868
-0.038797636
0.060730886
0.082059026
0.062455494
0.09417073
0.10512984
0.092486426
0.09640568
0.06856582
0.04874602
0.08421076
0.09057594
-0.002498533
-0.113167465
-0.11584308
-0.0600468
-0.07581476
-0.15140761
-0.15495929
-0.07397862
-0.08299036
-0.15933692
-0.116144255
-0.016608635
0.04676118
0.10913144
0.11319486
0.016550716
-0.08947755
-0.09191765
7.1023987E-4
0.08528683
0.14365302
0.1699879
0.14515543
0.13886145
0.12489427
0.025195006
-0.0681166
-0.052691266
0.017140457
-0.0072651077
-0.12881286
-0.16446769
-0.09430151
-0.0077855466
0.0915308
0.104870304
-0.008437118
-0.07001508
-0.04148663
-0.074531704
-0.117651545
-0.017949294
0.09627313
0.07981229
-0.004307291
-0.0894239
-0.07439744
0.03115796
0.03653688
-0.060669433
-0.103217475
-0.030724127
0.06684284
0.10414925
0.1027882
0.022860702
-0.06470121
0.009045907
0.13703758
0.15613098
0.06683679
-0.011091592
0.03315495
0.072730385
-0.00631251
-0.09819424
-0.07841068
-0.003583269
-0.043242097
-0.09421983
-0.014955313
0.04806896
0.031992014
-0.040127784
-0.124276124
-0.08307895
0.04272593
0.07888815
-0.011196292
-0.072258726
-0.015218029
0.016331257
-0.034631107
-0.09909276
-0.114957295
-0.019078834
0.08334663
0.054163296
-0.024939546
-0.004193726
0.08079585
0.097968265
0.06045167
-0.01715589
-0.098678745
-0.052727543
0.029394014
-0.0040778895
-0.08982622
-0.0886102
0.025608009
0.08828435
0.09896453
0.17670959
0.18429326
0.071073
-0.04378909
-0.10670852
-0.08701825
-0.037946295
0.0103957
0.06250944
0.069653206
0.07955826
0.0999719
0.052237447
-0.0438731
-0.11850149
-0.1083521
-0.052608255
-0.071218655
-0.123901635
-0.067639485
0.086944684
0.18541488
0.13492145
-0.0071102837
-0.08432107
-0.025910405
0.015580941
-0.059243195
-0.13871814
-0.12836531
-0.0290014
0.041637793
-0.013147772
-0.048836004
0.042997684
0.10435367
0.028844498
-0.026676593
0.02196305
0.005898157
-0.08850165
-0.08218753
0.019971171
0.08924884
0.051863704
-0.060968973
-0.110458285
-0.030427467
0.07042594
0.08750042
0.07057377
0.03353407
-0.052637387
-0.06024208
0.025592607
0.075617984
0.09953851
0.120814085
0.121374525
0.05926958
-0.029293006
0.022354547
0.09103206
-0.01056281
-0.07767397
0.014377127
0.11722087
0.12038412
0.033843506
-0.082471564
-0.19505024
-0.22423181
-0.12890121
-0.020516625
-0.0030500437
-0.07038236
-0.11827626
-0.13129023
-0.15716916
-0.13088451
-0.11237601
-0.12717558
-0.0253434
0.06337884
0.013106003
0.021901041
0.124899425
0.15820166
0.12736244
0.13940199
0.12357744
0.023453645
0.035314336
0.15539348
0.1537099
0.10460984
0.111667894
0.04759201
-0.025062473
-0.005825707
-0.037503734
-0.053040657
0.076949924
0.11416015
0.007358142
-0.068947725
-0.15331753
-0.16511264
-0.038009603
0.014887286
-0.056793213
-0.1283542
-0.09986487
0.0074301865
0.011304312
-0.036461506
0.031770986
0.08151551
0.014778689
-0.03772404
-0.0112230815
-0.00618418
-0.08397239
-0.11765752
-0.07913431
-0.1079303
-0.15282637
-0.11983198
-0.09304279
-0.045968015
0.10547481
0.2248144
0.2028161
0.10833885
0.00560959
-0.0032431001
0.09928457
0.11030726
0.023218507
0.03988084
0.13713346
0.18573865
0.13636833
0.040420678
0.036941957
0.062355638
-0.008380592
-0.06345147
-0.061430328
-0.055223513
-0.03170387
-0.036368947
-0.052429896
-0.057268392
-0.09625881
-0.09840102
-0.094989695
-0.15237705
-0.1490832
-0.102262825
-0.061449435
0.023082847
0.048762374
-0.017630247
-0.03914512
0.032916177
0.08248545
0.056468453
0.1075679
0.16727903
0.08974786
0.045688126
0.01900724
-0.07609839
-0.121340744
-0.14322256
-0.12891887
-0.09629587
-0.109725304
-0.027869781
0.04106625
0.003119435
0.048028126
0.08245404
0.047470473
0.07446963
0.12837847
0.16926992
0.18712635
0.20974955
0.21231344
0.11234448
0.032755125
-0.0121409455
-0.08798313
-0.037309535
0.07718484
0.03974297
-0.07949211
-0.13792913
-0.13698004
-0.13191772
-0.118743226
-0.09879483
-0.11637179
-0.16133662
-0.2163568
-0.23290794
-0.17013974
-0.1371999
-0.12552485
-0.015738267
0.06399991
0.055585187
0.10719898
0.13224307
0.087183125
0.16017914
0.26255223
0.25071728
0.2120987
0.14271434
0.09681637
0.15865608
0.16311383
0.070663676
-0.022634313
-0.12765144
-0.1636917
-0.1188414
-0.10492524
-0.09486245
-0.08468193
-0.09528494
-0.052547913
0.015373519
0.018453768
-0.025097238
-0.053073473
-0.07289982
-0.10257779
-0.06942351
0.032284092
0.100489095
0.0838941
0.018105412
0.015986545
0.052341864
0.007906033
-0.010639374
0.014910014
-0.040083867
-0.054899704
0.008661279
-0.004881324
-0.04390111
-9.1129687E-4
0.032536335
-0.024527887
-0.059290808
-0.005420775
0.010629684
-0.056112774
-0.09266431
-0.03678978
0.024611263
0.0030007595
-0.022629775
0.03363701
0.11093555
0.10550584
0.053999364
0.091892324
0.12011634
0.030079184
0.019438809
0.09865421
0.05488003
-0.0387029
-0.0040252153
0.064341694
0.029756662
-0.023947177
-0.07264006
-0.11732611
-0.03471956
0.027617663
-0.044866033
-0.060919784
-0.052069463
-0.08813752
-0.089609526
-0.07577548
-0.04989055
-0.00980059
0.04908232
0.11557956
0.09699376
0.004849587
-0.06607481
-0.056615032
-0.026584009
-0.0395887
-0.02839625
-0.05087127
-0.081582524
0.0314015
0.108568884
0.052732635
0.032290753
0.022598693
-0.008029316
0.019080866
0.030703332
-0.030430622
-0.021989958
0.046170577
0.034264747
0.022334125
0.021827834
-0.010783567
0.0014745992
3.2849074E-4
0.017921882
0.09737435
0.07521582
0.0075360434
0.026632069
0.0571902
0.01838588
-0.049245693
-0.046940412
-0.008325833
0.015891401
0.03265591
0.0063041244
-0.027400995
-0.042310752
-0.043107726
-0.048346747
-0.087182425
-0.07415156
-0.051498547
-0.060342606
1.01807214E-4
0.02700374
0.032857664
0.10112038
0.0622778
-0.02222658
-0.034267064
-0.0719391
-0.08401106
-0.05891287
-0.0693059
-0.05531192
-0.049596872
-0.07820827
-0.052228507
-0.0023745752
0.0395484
0.053025577
0.011436295
0.06382342
0.14782079
0.0777043
0.051575255
0.12169034
0.10167924
0.049322985
0.022353023
0.011268654
0.025557278
0.036060773
0.07646372
0.11795435
0.064794935
-0.046633206
-0.08600748
-0.037206363
-0.026357593
-0.017221138
0.051833104
0.023125676
-0.085112065
-0.1434035
-0.1963644
-0.19729133
-0.1306547
-0.104363576
-0.055393185
0.004034702
-0.00634411
0.037082814
0.09200471
0.07532683
0.08079407
0.04386528
-0.0028324663
0.020607654
0.008276017
0.02229594
0.060245626
0.052548274
0.07502641
0.046407755
8.7069016E-4
0.034247767
0.018714985
-0.026207263
-0.056000844
-0.0688986
-0.0016898266
0.028030977
-0.015263341
-0.016000535
-0.025651248
-0.07311616
-0.07014347
-0.023546036
0.0056654443
0.023759875
0.019692056
-0.009833735
0.0038234391
0.058245093
0.12361955
0.16180892
0.1052874
0.030479046
-0.020825043
-0.082079805
-0.0659905
0.0069654956
0.037832823
0.022215866
-0.03836665
-0.06196723
-0.035558708
-0.08189066
-0.10430823
-0.008169586
0.023137055
-0.025824077
-0.0047641057
0.025574835
-0.0054036346
-0.053565707
-0.07555479
-0.033111885
0.007004882
0.013237191
0.061246764
0.06131068
-0.012518373
-0.013872242
0.002875205
-8.880441E-4
0.07059765
0.13090035
0.10243332
0.037077293
-0.042702165
-0.08526319
-0.08685538
-0.0963312
-0.066654876
-0.004739252
-0.009841607
-0.05750277
-0.042761777
0.03760152
0.119526215
0.15468697
0.13027127
0.09743343
0.06699173
-0.006960867
-0.061992507
-0.038639374
-0.015630465
-0.035069957
-0.038181048
-0.022866879
-0.035244882
-0.019481497
0.045351166
0.059715107
0.022652837
-0.013878304
-0.044499397
-0.048349585
-0.040647358
-0.035156723
-0.027210414
-0.03797541
-0.04654196
-0.023099182
0.005954234
-9.723829E-5
-0.027543172
-0.031389937
-0.010234895
0.013708339
0.013151703
0.012572455
0.049578197
0.046675324
0.0015438352
0.02014803
0.05539744
0.008246563
-0.07078851
-0.06662406
-0.00821762
-0.004094918
0.0019298922
0.036573853
0.02591267
0.04805472
0.107809104
0.08634276
0.022264877
-0.042402413
-0.086979575
-0.036828052
0.061309762
0.10205732
0.025556719
-0.078130856
-0.042113446
0.00679839
-0.03733576
-0.025737545
-0.0018957985
-0.012466056
0.027409256
0.02948157
-0.031144897
-0.06043489
-0.05216657
-0.0026986648
0.045886915
0.011992471
-0.057615
-0.05531418
0.018964775
0.0699625
0.028245147
-0.046952303
-0.037592594
-0.0033832802
-0.031733073
-0.028538411
-0.008957022
-0.03261399
-0.009643797
0.029725585
0.027253428
0.028412336
6.772461E-4
-0.026783358
0.011953297
0.020482793
0.0016573318
0.036336754
0.020660268
-0.021676404
0.021645935
0.022911875
-0.013860775
0.010380975
-0.0029301755
0.011537818
0.10743979
0.098385274
0.031361755
0.044323154
0.028013423
-0.049761865
-0.05931923
-0.01117069
-0.0028280353
-0.016296258
-0.023337852
-0.024832089
-0.0148155335
-0.017439626
-0.0015367356
0.01695986
-0.031665962
-0.063669115
-0.038055196
-0.025770029
-0.033573627
-0.056768406
-0.08071783
-0.08831771
-0.06097589
0.010062536
0.04740506
0.049499355
0.05994681
0.04138308
0.023914829
0.03066614
0.03473775
0.04231071
0.04632989
0.077022895
0.11121387
0.07415644
0.016438494
-0.02246458
-0.043850925
-0.037191417
-0.038382445
-0.028486924
0.0037891977
-0.0065240553
-0.048660517
-0.06044958
-0.04637755
-0.03813949
-0.02604721
-0.010782004
-0.0020012406
0.00659792
0.0071753855
0.029707553
0.044854347
0.016067611
0.017703433
0.0137309665
0.014977288
0.065205134
0.026923982
-0.014988658
0.02471341
0.022734018
0.03648361
0.033532757
-0.01836771
-0.025097163
-0.07549392
-0.10925336
-0.06088395
-0.04756358
-0.032821655
-0.023581006
-0.025968712
0.0013020998
-0.002986706
-0.020530438
-0.023675049
0.029182242
0.09534135
0.06822737
0.08305351
0.104409486
0.027298216
-0.0090167895
-0.01857227
0.010567944
0.06353931
0.029655538
0.020708216
0.005852568
-0.050914343
-0.041666
-0.042276
-0.03812986
-0.010752502
-0.022813028
-0.022905994
-0.034136705
-0.05066219
-0.041466855
-0.029328031
0.0037925192
-0.0051870276
-0.041024104
-0.02760187
-0.0037165645
0.027052768
0.037613437
0.029543849
0.06803168
0.09520957
0.05394251
-0.0077582495
-0.024856513
-0.021322716
-0.025668522
0.0074180253
0.016339147
-0.0024275002
0.029611193
0.028310902
-0.010822393
-0.012081879
0.009852937
0.030485522
-0.012145531
-0.07129078
-0.05893208
-0.03323348
-0.003210188
0.018915342
-0.00462128
-0.020890249
-0.013778917
0.019312091
0.033473693
-0.017540904
-0.017071964
0.031121219
0.016785717
-0.008516583
-0.015074033
-0.023066578
-0.020946644
-0.020389693
-0.00615702
-0.0019697286
-0.014734852
0.059928834
0.15227422
0.0986284
1.4776745E-4
-0.026594812
-0.028359659
-0.014322179
-0.0069777723
-0.018967936
0.0086877635
0.031763665
-4.307589E-4
-0.018097062
-0.013689606
-0.03877525
-0.046855114
-0.0063508754
0.0022102704
-0.020086555
-0.014314458
-0.015154519
-0.014198624
-0.006961726
-0.049026202
-0.07278719
-0.013330917
0.04916598
0.031139579
-0.03352878
-0.043310847
-0.020707527
-0.021674456
0.014051962
0.051949207
0.025036076
0.016819475
0.03350369
0.0146552455
0.024044327
0.05695691
0.03108618
-0.004694657
-0.0064613153
0.004470617
0.035525292
0.05018721
0.024852041
0.008870596
0.034037862
0.07762739
0.05104567
-0.04357249
-0.04649458
0.047013313
0.06759722
0.0062896856
-0.026738346
-0.030578796
-0.07230118
-0.13842748
-0.12495842
-0.053064223
-0.06433955
-0.114042394
-0.10875564
-0.08317637
-0.03672943
0.0023465778
0.039559275
0.119551264
0.119363025
0.048669104
0.035342254
0.0060966536
-0.02803749
0.013982683
0.051700436
0.06085709
0.078454465
0.08514698
0.08337106
0.08074677
0.06591447
0.045749553
0.019667044
-0.017801022
-0.037904423
-0.029383762
-0.016144762
-0.01908522
-0.070572086
-0.13336046
-0.11410124
-0.06472734
-0.07487157
-0.07497214
-0.018108325
0.009090508
-0.017915152
-0.020307876
0.016601752
0.04906877
0.0732061
0.0783322
0.041964106
-0.0037593977
-0.0071252375
0.035019662
0.06677525
0.048252765
0.007888092
-0.022632211
-0.043005154
-0.05962259
-0.0629923
-0.030156078
0.033544306
0.08552619
0.06827948
-0.007208444
-0.05714434
-0.07353498
-0.083481
-0.07630061
-0.047337305
0.025329331
0.098895416
0.09382236
0.040805887
-0.0037061148
-0.009118441
0.025713513
0.06275103
0.09104557
0.096048966
0.065266326
0.024708107
-0.0062493635
-0.037692986
-0.086161576
-0.09236677
-0.030423671
-0.013876637
-0.04798846
-0.04355427
-0.04233501
-0.058422986
-0.03558884
-0.029322714
-0.05347761
-0.009646794
0.062433608
0.06334516
0.01771853
-0.036156453
-0.066672064
-0.033690482
0.035021614
0.08040156
0.08356104
0.060040645
0.024816416
0.017382963
0.05490957
0.06478478
0.029405024
-0.0042506238
-0.038327266
-0.06751066
-0.08512312
-0.078668274
-0.0355311
-0.019382615
-0.03733825
-0.029404024
-0.014681568
-0.011667873
0.00799102
0.04766609
0.06319315
0.035285518
0.034170445
0.06680344
0.053684298
0.023232494
0.037724778
0.062069844
0.068669446
0.08051046
0.06831324
-0.013974566
-0.0769264
-0.05748108
-0.060997643
-0.08157189
-0.060844235
-0.068443954
-0.057081576
-0.009038493
-0.05359184
-0.117874116
-0.090482175
-0.029825252
0.007066317
-0.030184759
-0.09150664
-0.062923685
0.013834878
0.07564948
0.10047237
0.061822124
0.029334938
0.06412808
0.122004114
0.1398846
0.09542529
0.037373453
0.006786268
-0.0047440305
0.01672111
0.056829795
0.051382747
0.0067249294
-0.019397354
-0.03062493
-0.047097728
-0.063405104
-0.078432
-0.06134547
-0.019438025
-0.02814178
-0.047955357
-0.019631473
-0.03207369
-0.06501056
-0.01973179
-2.9545092E-5
-0.043648552
-0.02757014
0.02689896
0.05841587
0.06597306
0.04273603
0.024218654
0.011214781
0.008372393
0.046032693
0.0740493
0.0726607
0.043937664
-0.010974504
-0.0335078
-0.034245722
-0.047756184
-0.05964879
-0.060240116
-0.046229057
-0.039366484
-0.022755038
0.012132504
0.02155135
-0.0029238102
-0.062116254
-0.09029953
-0.059371516
-0.043112393
0.003538832
0.06062918
0.05279503
0.06612596
0.088761784
0.07177277
0.054780185
0.030140504
0.04642244
0.0849623
0.02027391
-0.05455384
-0.022327688
-0.009835158
-0.04856122
-0.036652323
-0.007799651
0.0075908615
-0.015599097
-0.07355509
-0.029379869
0.034887422
0.00850737
0.008975269
0.010989844
0.017102141
0.066539414
0.04977063
8.2222134E-4
-0.047133464
-0.07578719
-0.02662386
-0.026069572
-0.03139106
0.06602009
0.08190429
0.0077933976
0.009608343
0.022780258
-0.036621734
-0.072566
-0.055545293
-0.077989735
-0.10633555
-0.08312038
-0.044821825
-0.008786416
-3.4342025E-4
0.012065906
0.043067273
0.024564324
0.013065629
0.03937665
0.04606619
0.06454284
0.08026456
0.056766823
0.023470867
-0.016210612
-0.029207379
0.012549371
0.04158486
0.020077398
-8.3912566E-4
0.024869911
0.07395551
0.071872026
0.02825845
0.030704955
0.043854486
0.021788271
0.023294766
0.030481111
0.005818094
-0.037189808
-0.08045421
-0.073239505
-0.051178884
-0.054916196
-0.03196691
-0.020868393
-0.034506995
-0.020547187
-0.026452525
-0.059851784
-0.08651729
-0.11386474
-0.10882834
-0.05817988
-0.0020434032
0.019370515
0.007596432
0.019996598
0.058074158
0.078959495
0.070137955
0.028183037
0.0050387345
0.036390018
0.054843504
0.032888353
0.031988516
0.06592325
0.07280559
0.04090475
0.008060203
-0.020219063
-0.031985164
-0.03254525
-0.034259
-0.016531877
-0.011601748
-0.030031843
-0.04262925
-0.058789037
-0.033556703
0.03333729
0.053310793
0.034529053
0.03331885
0.051093545
0.04748509
0.028383944
0.046221416
0.04773709
0.0051273233
-0.005460509
-0.003760127
-0.01833183
-0.02587972
-0.048248354
-0.043210793
0.012035772
0.018974282
-0.009879179
-0.018666172
-0.049415138
-0.06825681
-0.065936886
-0.09178248
-0.0941905
-0.07234569
-0.052244402
-0.016759023
0.0062100897
0.025453035
0.01834009
-0.009962132
0.024068281
0.041727614
0.0025711139
-0.004646293
0.015721418
0.05278654
0.06902097
0.053607732
0.061913814
0.03994652
0.004062852
0.02177504
0.031364836
0.024431605
0.027825931
0.050384536
0.07518808
0.03154794
-0.0027542142
0.019960022
-0.006926436
-0.019176384
0.021083282
0.006646075
-0.010808124
0.012972067
-0.005700774
-0.06953649
-0.10002369
-0.08225827
-0.07949156
-0.07440876
-0.025979642
0.005785785
0.0038063554
-0.0048538586
-0.009274148
-0.017332574
-0.052908197
-0.06679665
-0.055419944
-0.054780103
-0.028135693
-0.0032252262
0.015577164
0.04221203
0.027945675
0.0313936
0.06375154
0.062635615
0.05510823
0.03449184
0.010331006
0.007298357
0.010000181
0.043868393
0.07198251
0.06600042
0.07885212
0.081410564
0.03999894
0.002752124
-0.005148889
-0.0066308654
-0.012871496
-0.01326469
-0.022895873
-0.04433905
-0.04326044
-0.032327026
-0.042421173
-0.044729568
-0.031777084
-0.0469793
-0.07164985
-0.059219517
-0.03198145
-0.022282554
-0.02233025
-0.013964876
0.0018645363
0.012646205
0.017526874
0.023855193
0.037933536
0.056086615
0.07263971
0.0663572
0.029814864
0.020150393
0.02857601
0.0068390667
0.004707449
0.02292835
0.026846204
0.026699165
-0.013703592
-0.06277227
-0.060041044
-0.0702631
-0.11000655
-0.10969168
-0.061269213
-0.00556526
0.031275354
0.048666637
0.04596808
0.031961717
0.018760739
0.0021378729
0.0077351057
0.031581767
0.034611803
0.042364236
0.046396635
0.017341718
0.007365448
0.032924987
0.06883696
0.08895379
0.06282919
0.0015005888
-0.07866648
-0.11302376
-0.07784461
-0.06619125
-0.055383336
-0.025152458
-0.035937708
-0.02185387
0.019405402
0.019646494
0.016905112
0.027955992
0.029497294
0.018862018
0.027565591
0.03636315
-0.0016936135
-0.010312871
0.0066991323
-0.016183421
-0.031342532
-0.04259413
-0.03356229
0.008696154
0.010447467
-0.0036175642
-0.0046768677
-0.0117409015
-0.03309328
-0.06281141
-0.049140256
-0.032497965
-0.03395765
0.0026288813
0.028741714
0.03848376
0.05985568
0.06863042
0.060768988
0.033530407
0.0407053
0.06621331
0.041118383
0.025307806
0.018574234
0.006296973
0.026421038
0.013707487
-0.024016617
-0.0016455749
0.03535563
-1.2535625E-4
-0.0843416
-0.12475549
-0.09328822
-0.045821186
-0.046836395
-0.056433327
-0.018188532
0.0017974465
0.010193528
0.040165886
0.04230493
0.050001413
0.04970775
0.012758901
-5.468818E-4
-0.020883175
-0.04317121
-0.0192687
0.011036182
0.033895627
0.030865015
0.007405824
0.0127310995
0.014703199
-0.008147053
-0.015917057
-0.012209903
-0.024302885
-0.031452164
-0.022266785
-0.019837357
-0.012218712
0.0051358766
0.027440133
0.039208043
0.0024908492
-0.02786133
-0.02700054
-0.04437007
-0.030690368
0.026442762
0.06926396
0.095240965
0.10435401
0.08073748
0.020079691
-0.022509417
-0.010166517
-0.0048749973
-0.017777959
-0.024486234
-0.036207046
-0.036224287
-0.03325077
-0.04953564
-0.045688212
0.0057712523
0.04893627
0.03075888
-0.010588464
-0.023176916
-0.0088255135
-0.007216745
-0.030874895
-0.032835487
-0.022421423
-0.030706836
-0.022557843
-0.010099435
-0.011565086
0.011996112
0.041987944
0.037968323
0.027835097
0.041109312
0.04342782
0.007356227
-0.006718666
0.024076868
0.016806709
-0.016205225
-0.008009837
0.0026171692
0.014370984
0.025367528
-0.01008622
-0.022304649
-0.0019264042
-0.021997858
-0.039857842
-0.016772145
0.026309628
0.027010411
-0.021450425
-0.011395322
0.017029284
-9.691315E-4
0.0062738685
0.0033969104
-0.023003709
-3.448624E-4
0.025548015
2.2177723E-4
-0.03420514
-0.013657249
0.03742564
0.04381871
0.02010904
-0.0010127113
-0.0124275405
-0.0046873163
-0.0028729166
-0.005050037
0.012679891
0.016574455
-0.01502906
-0.027461894
-0.0072562424
-0.007787437
-0.007959421
0.012643809
-1.5435404E-4
-0.033032127
-0.029782142
-0.011009964
-0.023215562
-0.022140797
0.013439546
-0.0036468566
-0.027911188
0.004970544
0.006619486
-0.0028964544
0.010599207
0.008523162
0.02111844
0.011386687
-0.0271657
-0.018947845
0.0030386169
0.012748241
0.02600831
0.042558413
0.060079288
0.045616794
0.027364722
0.031758264
0.011374663
-0.019789616
-0.03376219
-0.030681526
-6.3887204E-4
0.024708565
0.023032382
0.007549012
-0.01656544
-0.027515037
-0.033107728
-0.057957273
-0.059983
-0.036921535
-0.016761247
0.017192416
0.012317298
-0.021369813
-0.0022622677
0.00408639
-0.006572129
0.012504673
-0.0041035237
-0.011161095
0.020443175
0.013751085
0.013786723
0.032000277
0.0048297904
-0.009637361
0.020929882
0.013040857
-0.012468463
0.008222069
0.008537677
7.56599E-5
0.027349396
0.017534155
0.008370053
0.03502514
0.023306485
-0.0072049526
-0.018494558
-0.004277658
0.010719235
-0.0030009584
0.0012106573
0.0053752623
-0.004736164
0.0058147493
-0.017047022
-0.047821183
-0.02691183
-0.010581984
-0.011195886
-0.008646471
-0.022295797
-0.038900416
-0.025119426
-0.0134537
-0.02911942
-0.012191377
0.010279998
-0.017802969
-0.028254578
-0.011880319
-0.0042474982
0.0142968735
0.027397327
0.023415068
0.025849031
0.046221174
0.06510119
0.056911528
0.044758324
0.040727448
0.029019266
0.021603184
0.025689438
0.023104964
0.0012783793
0.0017098177
0.034500215
0.019578334
-0.027743863
-0.04369342
-0.050245184
-0.03660276
-0.0259109
-0.057291258
-0.056308746
-0.032265235
-0.03917568
-0.031419184
-0.019599449
-0.024195429
-0.019033771
-0.01594187
-0.02860718
-0.045858204
-0.024438586
0.024468906
0.037537776
0.03799963
0.052416157
0.06479131
0.052855395
0.017619537
0.02692796
0.054922234
0.042372108
0.033904657
0.018325996
-0.012773762
-0.012258712
0.012571064
0.020860212
-0.015371759
-0.039094113
-0.019460617
-0.01178711
-0.004366914
-0.007393002
-0.029250735
-0.018035572
-0.020926954
-0.043314435
-0.029358407
-0.03229808
-0.04341761
-0.0021647147
0.04020857
0.062756285
0.08944823
0.06460671
-0.023190018
-0.07950864
-0.06217503
-0.022838917
-0.0155708175
-0.030735992
-0.03492472
-0.036451105
-0.016330335
0.037330028
0.050948534
0.02451809
0.019890575
0.011258811
5.8885483E-4
0.013218136
0.00211977
-0.014437083
0.010677935
0.036311988
0.042431675
0.04079734
0.042014647
0.049881365
0.03806892
0.04136146
0.06529132
0.04780515
0.034139976
0.022922322
-0.03815142
-0.05414043
-0.027184661
-0.073840246
-0.12105876
-0.077129625
-0.048314434
-0.094923586
-0.119176656
-0.08459786
-0.021832973
0.04397419
0.036189504
-0.040860385
-0.08114102
-0.07177864
-0.035359133
0.029717552
0.07270065
0.0775944
0.06497271
0.038176768
0.05204387
0.07989703
0.05373413
0.057512727
0.08252946
0.062321883
0.06504142
0.06619839
0.0419678
0.027565744
-0.007818455
-0.0077301124
0.014676018
-0.03740351
-0.08472472
-0.07748129
-0.07341863
-0.06976134
-0.043433163
-0.025136665
-0.042477902
-0.034156248
0.021110587
0.04300318
-2.2454507E-4
-0.049657475
-0.03624105
-6.5191946E-4
0.014339475
0.038437236
0.024269564
-0.018349681
-0.01769928
-0.009064266
-0.013625748
-0.018122375
-0.0026723938
0.042591926
0.05847081
0.029646961
-0.002865307
-0.019208433
-0.028965812
-0.0337047
-0.009307975
-0.0025054456
-0.02571669
-0.009935171
0.02039544
0.042786747
0.057436995
0.027686583
-0.00462447
0.005882508
0.045258477
0.07143747
0.043285076
0.012227373
0.010237323
-0.008467535
-0.02749654
-0.018653974
-0.01488401
-0.01881389
-0.01405141
-0.038647376
-0.053867284
-0.009677562
-0.01950694
-0.055115614
-0.0077599213
0.016505312
0.017425586
0.0243118
-0.027189683
-0.029542303
0.005811177
-0.012207992
-0.0049563874
-2.4470477E-4