0.005446154
0.0030728376
-7.295514E-4
-0.0036904379
-0.0070426594
-0.0036241517
0.0039245076
0.0014132109
-0.0011216854
0.0013987276
-0.0013822115
-0.002831057
-0.0038833227
-0.007012115
-0.0023302448
0.004455102
0.005584961
0.0052006408
0.010799248
0.024177872
0.032561757
0.025295062
0.008883403
-7.718678E-4
-0.0072381464
-0.024983758
-0.036711343
-0.032566577
-0.029625718
-0.023513034
-0.010013574
-9.031495E-4
0.0021004947
0.0015882418
9.458933E-4
0.0017498801
0.0013194189
9.494236E-4
0.0021223952
0.0025467484
0.0015436314
0.002830723
0.0046722246
0.0039370707
0.0061475947
0.011846487
0.019943513
0.031152168
0.037741512
0.036148578
0.02701386
0.009504726
-0.00983555
-0.020886881
-0.019934833
-0.015521843
-0.015944883
-0.017870544
-0.016784063
-0.013300706
-0.012378879
-0.013227442
-0.01152597
-0.011788303
-0.013012372
-0.010712014
-0.009227677
-0.00805262
-0.003246135
0.001925459
0.0041781645
0.007169586
0.01125823
0.011593928
0.0102366535
0.007054669
0.002223448
0.0026468467
0.0052531236
0.0069225933
0.008792198
0.0074650533
0.005764336
0.0049790596
0.0027584594
0.0018465368
0.0028592087
0.004039755
0.003815181
0.0026545678
0.0011614427
-2.1609046E-4
4.2646608E-4
2.1527657E-4
0.0010821932
0.0031528063
-9.794362E-4
-0.0027704954
0.001528828
0.0028221202
0.0034968772
0.002015168
-0.0030734497
-0.006667316
-0.010436264
-0.01249113
-0.012553877
-0.012994976
-0.0109567
-0.008751205
-0.006922694
-0.0035256024
-0.0011412766
-0.0010219971
-0.0032553975
-0.003563622
-5.354216E-4
2.458594E-4
0.0012606073
0.005152448
0.0064478554
0.005269986
0.008179512
0.014069027
0.01464905
0.012236357
0.012044839
0.008160272
0.001064996
-0.00231058
-0.0038607547
-0.0068184217
-0.009615164
-0.008874058
-0.0034803876
0.0013318373
0.0010134123
-7.839653E-4
-0.0022261448
-0.0063614775
-0.0070024086
-5.4599564E-5
0.0032973702
5.3604244E-6
-0.0011624933
0.0021111814
0.00727501
0.010373994
0.010122867
0.011435045
0.015612577
0.016958453
0.010899151
-0.0011316852
-0.009875604
-0.007642654
-0.0043889396
-0.008576892
-0.011013091
-0.011881244
-0.013670295
-0.009789462
-0.00843396
-0.01237794
-0.010743462
-0.0065164915
-0.005248164
-0.006130415
-0.0070031113
-0.0054498473
-0.003161343
-6.179847E-4
9.0222334E-4
0.0017749141
0.006171868
0.011689309
0.016060235
0.018296326
0.01660607
0.013010592
0.009239835
0.008982298
0.009997808
0.006073575
0.0029651162
0.0037019933
0.0023275386
-0.0025713982
-0.005071287
-0.0026027425
-0.0026485184
-0.0045920005
-0.0034247853
-0.0026431829
-0.0021546148
-0.0036223668
-0.007292659
-0.0077943616
-0.008259286
-0.0099959895
-0.01057834
-0.009630486
-0.0059742923
-0.005474695
-0.008864568
-0.007076039
-9.7037584E-4
0.004403349
0.0092108445
0.011470669
0.009935943
0.007231104
0.003290473
5.839692E-4
0.0027569856
0.0030790924
6.683602E-4
0.0027776838
0.0062095765
0.008811257
0.010993163
0.008166762
0.0031697992
0.0022741635
0.0025897836
-0.003887186
-0.013765324
-0.014510176
-0.009387719
-0.0072075943
-0.0034852056
0.0021088088
0.002679545
-3.537871E-4
-0.001606839
-0.003354753
-0.007163424
-0.006534637
-0.0025709614
-0.0010519784
3.111209E-4
4.166096E-4
-0.0023264186
-0.003311368
-0.0018264903
0.0018622042
0.0066509256
0.009144388
0.01048715
0.0061328704
-0.0070457268
-0.011036792
-0.0022215804
-0.0038061743
-0.01055747
-0.0047933855
7.842737E-5
4.8273505E-4
0.0066074124
0.011494169
0.014385572
0.01781084
0.016093347
0.011885993
0.0065106074
2.1597653E-4
-0.002059131
-0.002469849
-0.0035753902
-0.0046285475
-0.0041736467
-0.0014239328
-1.3202627E-4
-2.424445E-4
-3.8636127E-4
1.0227001E-4
0.0022700466
-0.0032790173
-0.014742366
-0.0155695565
-0.011882293
-0.0151887555
-0.018771686
-0.018952385
-0.015630407
-0.0072752694
0.0010912801
0.005084662
0.0064987387
0.008006388
0.010783533
0.013649494
0.013026291
0.009145559
0.008158239
0.011772166
0.013983315
0.011818224
0.007925235
0.0034202717
1.9806634E-4
0.0014608467
0.0022840442
-0.0021141097
-0.0059445603
-0.004967613
-0.0027591288
-0.0034364236
-0.0045354567
-0.0032171002
-0.0037779335
-0.0054791607
-0.005606932
-0.0062102703
-0.0062744524
-0.0074666473
-0.0073286053
-0.0024188543
-5.308687E-5
0.0025697232
0.0064721615
0.005124776
0.0066432203
0.008159919
0.0034912438
0.0025886146
0.0017639297
-1.3213324E-4
0.0034146148
0.0015113455
-0.0057085664
-0.0072713373
-0.007498782
-0.008364834
-0.007351279
-0.006045551
-0.001389351
0.0047024325
0.00533881
0.0042356197
0.0043405774
0.0032422065
0.0026862568
0.0036494066
0.0067651393
0.008922155
0.003896786
-0.0028647948
-0.002764752
0.003373949
0.0067180074
0.0021026128
-1.929012E-4
0.0016205551
-0.0028189889
-0.0057737855
9.1226236E-4
0.005482969
5.9043244E-4
-0.0055116126
-0.0063203047
-0.0049481546
-0.00612253
-0.012609181
-0.017760968
-0.011155898
-4.6203434E-4
0.0041551194
0.006882819
0.007556582
0.0041500754
0.004520373
0.010454449
0.012674578
0.007229292
-0.0015382428
-0.0070725665
-0.006376689
-0.0034244927
1.075844E-4
0.0032090398
7.2277774E-4
-0.0046523716
-0.0065018376
-0.0049225027
-0.0024182622
-5.4655847E-4
0.0015910084
0.0037325835
0.0041792793
0.0032877421
0.001363326
-0.001124992
-0.002104238
0.003875087
0.013241957
0.010962541
0.0023311297
0.0010277719
-3.1865778E-4
-0.0024403904
0.003343955
0.009932916
0.009428692
0.005695102
0.0022598049
-0.0029644808
-0.0079852035
-0.007948419
-0.009240679
-0.017084977
-0.023122776
-0.019014
-0.005279551
0.0051723025
0.0043936265
0.001912883
-0.003851303
-0.016851941
-0.018511584
-2.0908278E-4
0.021231895
0.027936533
0.016228959
-0.0052398588
-0.023785101
-0.025913257
-0.011064503
0.0057523
0.01417395
0.01698944
0.02244762
0.023235142
0.013297938
0.0077530136
0.0062938514
0.0045689037
0.0051640524
-0.0045369463
-0.016233115
-0.017079975
-0.01588009
-0.0070885364
0.010045959
0.02627856
0.032997627
0.016822709
-0.004188579
-0.009907832
-0.011300323
-0.00959296
-0.0070372326
-0.011547872
-0.014251524
-0.011968628
-0.010548428
-0.01072059
-0.010344017
-0.0071981093
-0.004146987
-0.0046575833
-0.0051457766
-0.0024644942
3.7504418E-4
0.0035212422
0.0084939115
0.008885395
0.004776174
0.0036740964
0.0025870525
-0.0025453425
-0.0059168497
-0.0017430966
0.0070659905
0.013189136
0.014147964
0.010014042
0.0043627266
0.0031952055
0.0036577738
0.002075251
-7.306708E-5
-0.0024267307
-0.0037460602
-0.007292924
-0.014810896
-0.014810227
-0.0027398414
0.009202129
0.01401224
0.014744693
0.011041574
0.0050843973
0.0014648399
-0.0061095566
-0.016742868
-0.020962678
-0.017720575
-0.0031397454
0.012576901
0.012527771
0.008658904
0.007261101
0.003828596
0.0022827352
-0.0048957486
-0.015740765
-0.01775553
-0.012899695
-0.0050297836
0.0012698933
0.0054316586
0.008715433
0.0051009227
-0.002550321
-0.0097957775
-0.015111295
-0.014123726
-0.00859975
0.0021957222
0.018486576
0.032226775
0.03441588
0.01882447
-0.005182113
-0.0181837
-0.014390469
-0.0052985833
-0.0026228759
-0.0037846782
-0.0034939793
-1.500038E-4
0.005227557
0.006851643
0.006296657
0.005214704
-2.7880992E-4
-0.005825151
-0.0077781514
-0.007884223
-0.006134119
-0.003721483
-0.0013225737
0.004289656
0.008738674
3.4166418E-4
-0.011419984
-0.009921397
-0.0037518137
-0.0014640791
4.7825402E-4
0.0027569477
0.004546109
0.0051297476
0.0049749734
0.0023916694
-6.8705594E-5
0.0035562736
0.009157072
0.014106557
0.015833449
0.010753187
0.004337694
-0.002932544
-0.008716253
-0.0065653827
-9.830663E-4
0.0036541745
0.0053579295
0.0038171813
0.002522989
0.0019459648
1.7823151E-4
-0.004314798
-0.0076053874
-0.007366088
-0.0076714926
-0.009193928
-0.011311914
-0.011806591
-0.010480219
-0.009878057
-0.008791041
-0.008487638
-0.0062755467
-8.394763E-4
0.002543002
0.0063959514
0.009380056
0.007929053
0.0053379433
0.0025899347
-9.606757E-4
-0.0076447907
-0.011460217
-0.0069007818
-0.0028609647
-4.182516E-4
0.0051664677
0.01413951
0.020795329
0.018198628
0.013384432
0.0053901374
-0.008792253
-0.014220079
-0.0070063327
0.005562048
0.014668693
0.0153906485
0.01527721
0.016071524
0.011859939
0.0013349323
8.1068167E-4
0.016195755
0.015377486
-0.0036798662
-0.015240846
-0.023369823
-0.025746632
-0.017741209
-0.013920812
-0.012731307
-0.0035527498
0.0026341775
-0.00823282
-0.019928124
-0.018382732
-0.015661467
-0.01443844
-0.014012636
-0.011714849
0.0023449312
0.016091434
0.018027306
0.013590315
0.0088991895
0.012052968
0.016855108
0.012499017
0.0059136036
0.0012906458
-0.0041941646
-0.0049546454
0.0018229681
0.0048909876
0.004299152
0.00978869
0.009950488
0.005452822
0.013354221
0.016693423
0.0024506566
-0.008683853
-0.008480736
-0.0024622092
0.0014077292
-0.004250295
-0.0065688933
-0.0021605708
-0.005414878
-0.0068867523
0.001089365
0.0034655782
-0.0033813815
-0.009992711
-0.0091936495
-0.007094791
-0.009913852
-0.0067932
-0.0010586982
-0.0034271881
-0.0049444437
-0.0042011677
-0.007831096
-0.010273092
-0.0049842685
0.0021224192
0.0047819964
0.008073048
0.010412311
0.010612038
0.012819833
0.011160536
0.012232401
0.019917661
0.019409481
0.011860916
0.0017043629
-0.0107652545
-0.020034324
-0.02318537
-0.014402691
-0.0031568303
-0.0010994951
-0.0013116141
-0.0052198987
-0.008283028
-0.0042240503
-0.0026818663
-3.0602532E-5
0.006465592
0.009457936
0.0096948845
0.0062926174
0.0022099996
0.001992406
-3.3827488E-5
-0.0042555467
-0.0036651136
7.775499E-4
0.001776035
2.2711365E-4
0.0027834112
0.007806159
0.007945831
0.0037694974
0.0029273217
0.003666318
5.364649E-4
-0.0052269874
-0.014189393
-0.019455608
-0.012566329
-0.0040174024
-0.0018901171
9.162087E-4
0.0054472373
0.005147648
0.002275059
0.0019170146
0.0023749294
0.0052318526
0.008250196
0.005876467
0.005387315
0.008880024
0.0079645645
0.0011812625
-0.0038043591
-0.0021398668
-0.0070243278
-0.018176906
-0.013095083
3.0481798E-4
0.003048123
0.0022116606
0.0037484495
0.004278401
0.0024555624
6.440735E-4
5.942902E-4
-5.404951E-4
-0.0036978046
-0.008099662
-0.011126139
-0.009328411
-0.004477503
9.4297633E-4
0.0044065197
0.0056118355
0.0058599054
0.0016151328
-0.0042066486
-0.0033663008
0.0028183877
0.006732485
0.0054785726
0.0037801773
0.0018950645
-0.0011234717
0.001870554
0.008794203
0.01085852
0.0065857302
-9.138256E-4
-0.003174579
2.5789218E-4
8.781425E-4
2.9454905E-6
1.6538898E-4
6.629959E-4
0.0017671459
-4.5727185E-4
-0.0051027504
-0.0077211414
-0.008808782
-0.008425123
-0.0073710494
-0.005068954
-0.0012817258
-8.4735715E-4
-0.0015143723
5.0677895E-4
0.0025967332
0.0051884195
0.004718077
-5.2287156E-4
-0.0012976676
3.181017E-4
-0.003706317
-0.0075366707
-0.0067993724
-0.0034116919
0.0024831754
0.0063851187
0.00475089
0.0016961317
-8.2653237E-4
-0.0011501788
0.003532761
0.0065409774
0.0038450807
0.0024138577
0.003216085
0.0028709893
0.0031620252
0.005518811
0.0073384917
0.0068080667
0.0069048186
0.0069662156
0.004907695
0.004235837
0.0029758152
0.001177356
0.0032952689
0.0029944188
-0.0013621409
-0.0056021935
-0.011385424
-0.013235382
-0.009821927
-0.012068164
-0.019126497
-0.019332541
-0.012870691
-0.009217744
-0.0068543404
-5.335993E-4
0.0038093925
0.004886151
0.007677492
0.0077663446
0.002689428
-6.64006E-4
-2.798193E-4
0.002214319
0.0071771196
0.010604839
0.012165509
0.015437092
0.014793839
0.009891798
0.0075159683
0.0055792616
0.0048658624
0.0077907974
0.008046292
0.004599307
4.6874082E-4
-0.00782417
-0.01857104
-0.023275454
-0.025243988
-0.029880382
-0.02991418
-0.02676182
-0.024952268
-0.0177713
-0.010041204
-0.0062512355
0.0015026802
0.009624728
0.013993311
0.019900545
0.025224824
0.026033742
0.024921475
0.020675657
0.01088482
0.0042253817
0.004656327
0.005014008
0.005640741
0.0039914213
-0.0025906865
-0.0037735996
-0.0029172662
-0.010221286
-0.019519048
-0.021806024
-0.010989904
0.0069933943
0.018769303
0.027894376
0.0404796
0.05241694
0.059883106
0.05795968
0.046894446
0.032491133
0.013760085
-0.0067753103
-0.024651749
-0.045038775
-0.06458122
-0.076325804
-0.08523285
-0.08956107
-0.08250826
-0.068382345
-0.05572221
-0.042469203
-0.019584512
0.0050587836
0.019848052
0.03422726
0.052245457
0.064832814
0.077616155
0.09505343
0.1020446
0.09538942
0.086569756
0.07764308
0.06617629
0.04287721
0.0047305026
-0.029732618
-0.050873365
-0.06517567
-0.08068556
-0.09940304
-0.11599321
-0.13111143
-0.14118725
-0.1394116
-0.12572065
-0.0932841
-0.04314127
0.0045538787
0.03728669
0.073465385
0.12602459
0.17076693
0.20064822
0.23019807
0.25571176
0.25944743
0.22854754
0.17843923
0.09760745
-0.028579945
-0.13600571
-0.19785482
-0.22942924
-0.22922508
-0.23896137
-0.2506599
-0.23696548
-0.23633018
-0.225229
-0.1693606
-0.09082137
-0.006189123
0.0590769
0.113268845
0.18466471
0.26068592
0.30585283
0.27267718
0.1929577
0.15355831
0.1377341
0.101695456
0.06447054
0.023923839
-0.032297745
-0.07815776
-0.09568838
-0.08315504
-0.053757336
-0.043163817
-0.060516056
-0.12158263
-0.22996141
-0.2974275
-0.29132158
-0.26279256
-0.21278861
-0.14879405
-0.081717774
0.009895883
0.13345642
0.27848676
0.39055195
0.44041473
0.4465793
0.3905565
0.2847467
0.1717591
0.06682528
-0.02385987
-0.120604426
-0.21136281
-0.2547862
-0.26341572
-0.26132995
-0.23428355
-0.15748142
-0.07043801
-0.024199782
0.009352943
0.023767548
-0.02363367
-0.10117685
-0.15568626
-0.1620274
-0.11992578
-0.04962364
0.02132112
0.07409363
0.110614054
0.13062596
0.13877451
0.13969654
0.12908524
0.1176208
0.096047975
0.05990822
0.03518111
0.019474268
0.0017833457
-0.017791532
-0.024063617
0.002552164
0.030933538
0.03284418
0.02747543
0.030160466
0.03543666
0.039560985
0.03755725
0.0021784722
-0.05004288
-0.06528164
-0.05655935
-0.0461782
-0.03339177
-0.035513915
-0.050906733
-0.07346281
-0.095581226
-0.09574393
-0.07951661
-0.06533617
-0.056089886
-0.044113267
-0.031987987
-0.030342802
-0.02399503
0.003296307
0.04006246
0.069855176
0.082031354
0.073763944
0.06179355
0.0651123
0.070735216
0.06345841
0.051821377
0.040801793
0.03538168
0.029965091
0.008854841
-0.009683928
-0.0064314012
1.2527504E-4
-0.0014322841
0.002043087
0.009435758
0.008842966
0.008167248
0.007761782
1.9840304E-4
-7.2253397E-4
0.003927858
0.001010573
-0.0034235315
-0.00735726
-0.011979927
-0.012563135
-0.010884679
-0.008950008
-0.005859586
-0.002302331
-0.0026003271
-0.013444458
-0.026281575
-0.027887821
-0.030997565
-0.03889953
-0.02814284
-0.009695679
-0.008463929
-0.0068807746
0.0040563443
0.0073844227
0.008973879
0.015973497
0.015223863
0.008716319
0.007359414
0.008875259
0.009885512
0.008725178
0.007222132
0.0053136176
0.0011972173
0.006327875
0.022269206
0.033827145
0.036131795
0.03761889
0.03661486
0.016282134
0.0021018719
0.01548812
0.0023649153
-0.038905095
-0.059197996
-0.06912568
-0.06848807
-0.04781557
-0.028039351
-0.016931582
-0.018571438
-0.022698022
-0.01784856
-0.016773906
-0.016361285
-0.0104001295
-3.6122173E-4
0.01756453
0.03606657
0.04534224
0.052583564
0.0721329
0.08759256
0.08351896
0.0751258
0.05770405
0.044572625
0.04192189
-0.0070714033
-0.073195495
-0.07266604
-0.038701966
-0.02343989
-0.01697989
-0.013175219
-0.012291283
-0.017410178
-0.041729942
-0.071248345
-0.07567757
-0.06622781
-0.062977105
-0.052909523
-0.03911883
-0.038806282
-0.038850956
-0.021105316
0.007069496
0.032581847
0.055952653
0.07283903
0.07772034
0.07883749
0.07123768
0.047766335
0.014641294
-0.023898872
-0.044314895
-0.03195668
-0.012433776
0.0032375006
0.017311485
0.019701859
0.013966333
0.0067935386
-0.004323061
-0.015926452
-0.018734667
-0.0084532015
4.489324E-4
-0.0035292967
-0.0073053534
-0.0064089466
-0.011271227
-0.023102002
-0.035930257
-0.03785875
-0.020389132
0.0037688876
0.014623714
0.010165685
0.0022735053
-0.0012451048
0.0029462536
0.012962078
0.022793163
0.02967848
0.027377442
0.019110195
0.01507463
0.0019344378
-0.020320904
-0.021271903
-1.3309851E-4
0.017630776
0.019890247
0.0084861405
-1.0770045E-4
0.009027509
0.024555808
0.021526916
-0.0025527568
-0.02566071
-0.039872497
-0.039036367
-0.013055155
0.0048529557
-0.0037985006
-0.008695206
-0.01618867
-0.035477243
-0.03674074
-0.01855659
2.503618E-5
0.0124715455
0.017866846
0.021007655
0.024930848
0.026969308
0.01684343
-0.0048582642
-0.019494137
-0.01644926
0.0032323643
0.018668799
0.014322579
0.008786106
0.008821004
0.008538473
0.009858812
0.012176453
0.015586339
0.010798595
0.0049514896
0.014496084
0.018674538
0.0051525277
-0.010619198
-0.0145791955
-0.007985519
-0.009579122
-0.009248288
0.005112909
0.011633552
0.009256815
0.0061169295
0.0055702766
0.010175908
0.0030352622
-0.00837673
-0.008213951
-0.008027513
-0.005505188
5.163386E-4
-0.0012449583
-0.008937461
-0.017474025
-0.021575185
-0.021361563
-0.020887142
-0.015110402
-0.0034175254
0.008334273
0.017972397
0.020553138
0.0125609245
0.0049072914
0.0019378129
-0.0055599106
-0.008726909
-0.0020945116
0.0014456445
0.0033741072
0.004981741
0.0042627854
0.006990542
0.010432432
0.012263809
0.010352145
0.006725306
0.010099047
0.010722381
0.0018648241
-0.008531754
-0.017446179
-0.019195609
-0.014704996
-0.01283231
-0.012286997
-0.008981098
-0.0066956654
-0.009443544
-0.0091382
2.395254E-4
0.009272094
0.011911932
0.013032228
0.014026717
0.011338428
0.01020309
0.010792489
0.0025211717
-0.006840516
-0.007246721
-0.0032293175
0.0022586475
0.006229432
0.011703804
0.0154211465
0.0072687375
5.8237024E-6
0.0016944986
-8.264834E-5
-0.007858102
-0.012047731
-0.008267416
-0.004280594
-0.00470428
-0.008750936
-0.013865065
-0.0123497555
-0.007903009
-0.005261268
-0.0031137296
-0.0054476666
-0.008035166
-0.0074865264
-0.00621797
-0.0043985755
-0.0033617641
7.654717E-4
0.0046176156
0.0041995035
0.0051629255
0.005048782
0.005627133
0.008236221
0.008337189
0.007894361
0.004377882
0.0033641122
0.0078087337
0.0074641095
0.007974304
0.012094619
0.015121027
0.016194474
0.011606757
0.007661793
0.0018212493
-0.008712814
-0.011467202
-0.014241667
-0.018913284
-0.0122476565
-0.0039081513
-0.003035656
-0.005798996
-0.008677057
-0.009079253
-0.007966488
-0.0058925864
-0.0040390883
-0.0025489258
-0.0014425524
-0.002336853
-0.001998211
-0.002057434
-0.0038200698
-0.0022702096
-0.001185352
-0.0024342982
-4.226755E-4
0.0049202433
0.009454696
0.011319137
0.012157296
0.009704652
0.003613839
0.0012244337
0.0012144435
-0.0018410127
-0.0034893735
0.0014225368
0.008638819
0.008971439
0.0052902387
0.007916491
0.007602894
-0.007107315
-0.017544476
-0.0095897885
5.6339276E-4
0.0052380655
0.008929063
0.00704448
9.726052E-4
-0.0026843024
-0.0047020414
-0.0064651584
-0.0052309055
5.9523703E-5
0.002321111
-0.002706923
-0.008527195
-0.008518209
-0.004522266
-0.004580806
-0.0069281016
-0.0058087064
-0.0057559554
-0.0047261133
-1.865812E-4
0.002598461
0.0051001213
0.004471133
-6.326156E-6
8.111809E-4
0.002988831
0.001783228
3.3212532E-4
-0.0025012866
9.7561075E-5
0.0098214075
0.010915899
0.0055871177
0.01155588
0.021828433
0.017622543
0.0014524424
-0.010149341
-0.006897848
0.00189573
-0.001974251
-0.013646619
-0.015880438
-0.008514973
-0.0018196355
-0.002999809
-0.0067081996
-0.006074488
-0.0076345284
-0.010341587
-0.008738014
-0.008053266
-0.0078206565
-0.005240209
-0.0019733866
0.0018539537
0.0053143604
0.005896201
0.002182527
7.1851583E-4
0.0030375642
0.0018337197
0.0016936929
0.0035503742
0.0026388876
0.0033408075
0.0037491692
0.003745227
0.00671016
0.007834127
0.0080014495
0.009138065
0.009182913
0.009389976
0.009668893
0.010187305
0.011954735
0.012882893
0.010244991
0.0068399026
0.007376445
0.007966416
0.0046578343
-0.0011869746
-0.01100589
-0.02129237
-0.01974007
-0.0075089014
-0.0022033288
-0.0071854983
-0.013904603
-0.018021613
-0.016106257
-0.016979452
-0.023622574
-0.023231855
-0.020924045
-0.023777938
-0.024895016
-0.017197983
0.0024479253
0.018229866
0.019719344
0.017950526
0.015933959
0.01531043
0.017433543
0.01751674
0.017621176
0.01771104
0.016012631
0.01461521
0.014719968
0.014659666
0.00995931
0.0050410125
0.0031461525
-5.435142E-4
-0.0027399145
-0.0041938997
-0.0069823717
-0.0053899023
-0.0033800725
-0.003961179
-0.0036480546
-0.003692394
-0.0034470612
-0.0015026885
-2.0609456E-4
-0.005887354
-0.018912874
-0.026170917
-0.021877252
-0.010849821
0.0017935362
0.0104844235
0.016026132
0.016951527
0.012042103
0.008700997
0.004599141
-0.004248392
-0.014490662
-0.019094976
-0.00750152
0.006114702
0.0051355213
0.003666958
0.0033778867
-0.002308081
-0.0033104387
-0.0013387474
-0.0015190446
0.0021775682
0.007513966
0.0060110646
-0.0016629507
-0.0069506415
-0.006559456
-0.004274873
-0.0020970807
7.58236E-4
0.00263808
9.883218E-4
4.7610776E-4
0.003337911
0.0032311736
0.0017733575
0.0026702168
0.0025408021
0.0033258596
0.006281377
0.0064214976
0.0050838715
0.005191239
0.0046067066
0.005004781
0.0058326246
0.0019652522
-0.0027875584
-0.005091589
-0.006702611
-0.004261737
-7.111721E-4
-0.0014768392
-5.4075033E-4
0.0010562055
-0.0045631486
-0.007901864
4.6388635E-5
0.008490557
0.0075474596
-0.0031282674
-0.011253081
-0.004295925
0.0015834924
-0.0035620246
-0.008932625
-0.015630236
-0.0176797
-0.012116656
-0.005940845
0.0077359783
0.016999025
0.014514497
0.01367678
0.0025685458
-0.012481208
-0.0108620785
-0.007551652
-0.006956634
-0.0017124164
0.0019790002
0.0040720454
0.0058866376
0.005421515
0.00440452
0.0072629247
0.012132113
0.01266563
0.010780042
0.0059359493
-0.0015985412
-0.00339722
-0.0014215045
-0.0029341986
-0.005896137
-0.0040539885
-0.0015075621
-0.005545672
-0.006601669
-0.002512942
-0.003244099
-0.004015319
-0.0022035497
-0.002143994
-0.0013505052
8.7822584E-4
0.0018811423
7.9176585E-5
-0.0018395499
-0.0011208941
1.1917838E-6
5.583387E-4
4.54037E-4
1.34574E-4
0.0014232674
0.0043965112
0.0063944664
0.005141419
0.004038914
0.004154541
0.0040105754
0.00527832
0.004056849
-4.1017908E-4
-0.0022830276
-0.0014243601
-2.6087792E-4
-0.0013347573
-0.0026892312
-0.0015382536
-0.0023587218
-0.0057627126
-0.0070429514
-0.0014185146
0.0054144287
6.226548E-4
-0.0065310365
-0.004202513
-4.5807005E-4
0.0011427596
0.0015976942
6.387922E-4
-4.7405087E-4
-0.003048603
-0.004330882
-0.002197215
-4.6262925E-4
-6.906605E-4
-0.0011668353
-7.28245E-5
4.932067E-4
-0.0014265471
-0.0019098257
2.0770672E-4
4.7493662E-4
6.799221E-5
0.003983534
0.007638597
0.006084098
0.0046522166
0.005517149
0.004572839
0.0025490317
0.0023455152
-0.0011769576
-0.0078122565
-0.007080581
-0.004102479
-0.001697007
0.008588367
0.011744951
0.0036306556
0.0027919565
0.0022654675
-0.004952423
-0.008187346
-0.0068016346
-0.0046895244
-0.004209576
-0.0046056644
-0.0026177627
3.2809723E-4
0.002448479
0.0020015298
0.0010312089
0.001540522
-1.6276649E-4
3.0772608E-5
0.003624789
0.004514747
0.0049764444
0.0038777129
-0.0015225259
-0.0051722284
-0.0058013964
-0.005019242
-0.0029810078
-0.0013317892
0.0010231719
0.0034187597
0.0013286801
-0.0048397104
-0.008332457
-0.006620066
-0.0018886281
0.0041539017
0.005550358
0.0037593946
0.006010603
0.0052129203
6.9071066E-5
-0.0010453977
-1.0226797E-4
0.00195218
0.0049751475
0.006071459
0.0048010056
0.0015442441
0.0021278444
0.0051641488
0.004270739
0.0016491287
-0.002744509
-0.0021489295
0.004420185
2.0949713E-4
-0.009845169
-0.012244967
-0.010593473
-0.006699444
-0.0032677827
-0.0011813187
0.0014339059
4.0293753E-4
-0.0010659054
1.333891E-4
1.4430366E-4
5.6321314E-4
0.0013171128
4.6201708E-4
-1.0542028E-5
7.839661E-4
0.0024350209
0.0029223
0.002302964
0.0028723974
0.002346577
-7.4657524E-5
2.2958529E-4
0.0031642127
0.0023796896
-3.6104416E-4
7.782478E-4
-4.8341575E-5
-0.0036645154
-0.00388024
-0.005154548
-0.0070958626
-0.0063370443
-0.005119013
0.0011716213
0.009579946
0.010650037
0.007053352
0.0039546387
0.0014893111
-0.001497237
-4.6552834E-4
0.0030526014
-0.0016915775
-0.0066551077
-0.0030220135
0.0034666036
0.011956173
0.013924421
0.0055144248
-1.4722122E-4
-0.001295793
-0.0044161323
-0.009288991
-0.009480174
-0.0035213009
6.040517E-4
0.0010705879
-0.001280648
-0.0039660754
-0.002987608
-0.0036601452
-0.0047211465
-0.0013560469
8.5143757E-4
-6.516032E-4
-0.0025365625
-4.894981E-4
0.00296727
0.0023684686
0.0016552865
0.0022052678
0.002479619
0.003257333
0.00143655
-0.0012219565
-1.7969281E-4
0.0021931645
0.003851389
0.0063161063
0.0074965656
0.0049980464
0.0031317123
0.0016485002
-0.0035357221
-0.009159962
-0.012447626
-0.011219939
-0.0049066874
-2.6748836E-4
3.7798975E-4
1.8935281E-4
-0.0011468183
-0.0028136375
-6.4586697E-4
0.001050873
-0.0034707382
-0.003434855
0.0038433012
0.004095468
-0.0016206994
-0.0023193802
0.0029366629
0.0062005334
0.0046270955
0.0061801462
0.009623065
0.010859582
0.012945392
0.009700408
-0.0023750423
-0.011165194
-0.00581583
0.004017718
0.0041915784
0.0021015473
-2.266895E-6
-0.0069548204
-0.009052842
-0.0078032236
-0.008817926
-0.009201976
-0.011409369
-0.009788779
-0.0027093105
1.3793445E-4
-0.0010871365
-0.003758404
-0.004458687
-0.0032870593
-0.0054957913
-0.004397435
6.194073E-4
0.002033978
0.0042808405
0.008166841
0.010262855
0.010299617
0.0065601696
0.0037814646
0.00258835
-0.0032784885
-0.0072233686
-0.0027107208
0.0034488724
0.0054120654
0.0041080173
0.0021959136
-1.6619687E-4
-0.0014019064
8.2262844E-4
0.0014522119
-8.8352687E-4
4.227535E-4
0.004021569
0.003712837
0.0021450894
0.0040243375
0.004797254
0.0024274478
0.0022032617
0.0030431265
0.0026606848
0.002071213
9.84933E-4
-9.0866895E-5
-0.0010084088
-2.3331972E-4
0.0022265902
0.00776591
0.015171898
0.0068686414
-0.016900877
-0.032706063
-0.035135213
-0.026208922
-0.010431931
7.7936443E-4
0.005567341
0.005048589
0.0034230216
0.0024678267
-0.0016632729
-0.0020205725
0.002223632
0.0038731059
0.0044305036
0.0041229953
0.004273103
0.007124396
0.009025138
0.009201282
0.01018654
0.011325284
0.0093239015
0.0061231037
0.0048521524
0.0021622537
9.5998366E-5
0.0016651043
9.1302255E-4
-0.0024345713
-0.004311258
-0.005685107
-0.005872579
-0.005698012
-0.007827662
-0.008566651
-0.0069162645
-0.0066774827
-0.0066370117
-0.0054045664
-0.0027673459
0.0015435866
0.004970342
0.007434871
0.008195051
0.0054717097
0.0029497482
0.0011574588
-0.002053487