-0.0016287979
-0.00187712
-0.002330887
-0.0024943114
-7.889191E-4
-6.54866E-4
-0.002692214
-0.0031268795
-0.002067462
-6.625167E-4
-7.106134E-6
-8.802511E-4
-0.0021524697
-0.0029132296
-0.0017592458
1.06086336E-4
-1.4611779E-4
-5.817942E-4
-4.510737E-4
-0.0012391058
-8.863062E-4
1.0526775E-4
-3.8964572E-4
1.775121E-4
0.0014734357
6.9977745E-4
7.937594E-4
0.0027093606
0.002462632
8.661164E-4
2.4169817E-4
-5.360719E-4
-5.724014E-4
0.0013319142
0.0027358208
0.0025470746
0.002228746
0.001821477
0.0011323191
0.0011051274
5.640277E-4
-7.3526916E-4
-0.0012697661
-0.0013540192
-6.834827E-4
1.03944345E-4
4.0861443E-4
0.0014906899
0.0018720776
6.9449097E-4
-9.1191183E-4
-0.001863208
-0.0017471133
-0.002686738
-0.0033857347
-0.0016613115
5.039065E-4
0.0019815324
0.0013207638
-6.638444E-4
-0.001433461
-0.0021872963
-0.0018741615
-4.109388E-4
-0.0010334755
-0.0016877353
-0.0014420585
-0.0017424112
3.5573196E-4
0.0013571193
-0.0017355984
-9.901986E-4
0.0012583982
8.106384E-4
0.002705365
0.0026268002
0.0019665905
0.004136981
0.001851596
-1.7874355E-4
-1.7610946E-4
-0.0013771313
1.6407698E-4
3.4882533E-4
2.8355236E-4
6.9389446E-4
-9.790439E-4
0.0012145941
0.0031349435
0.003998539
0.0033816595
-0.0011189111
-4.662397E-4
-0.007816466
-0.018410968
-0.005256958
0.007462119
0.004530001
0.00370149
0.0027231404
0.0018569089
0.0021481912
-1.2862633E-4
-0.0013576793
-0.0027502095
-0.002948462
-9.51571E-4
-1.2128355E-5
0.0010726043
0.0021933247
0.0017902828
1.5876166E-4
1.17630516E-4
3.0497412E-4
-0.0017731786
-0.0011049695
8.187685E-4
2.0315623E-4
-3.344541E-4
-7.128096E-4
-4.620107E-4
-3.7759668E-4
-0.0011983879
-5.992016E-4
6.680823E-4
0.0018375204
0.0018009741
2.016751E-4
8.5285305E-5
0.0011525792
8.604523E-4
-2.6941075E-4
-6.491124E-4
-0.0015664756
-0.0021075797
-1.409334E-4
4.5436513E-4
-2.632439E-4
4.025024E-4
5.8448385E-4
1.0224558E-4
-0.0015690291
-0.0019951728
3.1801887E-4
-2.0006522E-4
-0.0012392529
-1.2783963E-5
-3.9109346E-4
3.6722113E-4
0.0026071668
0.001803273
4.5442476E-4
0.0010515924
5.782852E-4
-0.0013084889
-0.0018513069
-0.0013142175
-1.6180953E-4
0.0012365599
9.651943E-4
0.0011605271
0.0024577742
5.276399E-4
-0.0017839101
-3.5481335E-4
1.1500495E-4
-0.0014970098
-8.1070187E-4
0.0010274235
6.863576E-4
-7.627558E-4
-8.702991E-4
1.177136E-4
5.965238E-4
4.3995967E-4
6.142572E-4
0.0013888892
0.001254825
5.8338814E-5
2.1586115E-4
0.0017682617
0.0025433742
6.510581E-4
-0.003197462
-0.004391388
-0.002218353
-8.1287517E-4
-0.0010198008
-8.942537E-4
-2.2210822E-4
-6.2827364E-4
-8.2208955E-4
-2.9215138E-4
-0.0016523007
-0.002027376
-0.0015293402
-0.0019754877
0.0014668745
0.003348741
8.8637415E-4
0.0023282464
0.0031821306
7.787869E-4
-9.5322546E-5
-4.075106E-4
-2.2574778E-4
-0.0010850976
-0.0011375927
9.862507E-4
4.7180988E-4
-9.492179E-5
-3.5691363E-4
-0.001128039
2.3493537E-4
0.0010826323
0.0024532166
0.003027289
0.0027402465
0.0033378173
-1.5618352E-4
-6.6916074E-4
-0.0024269684
-0.012875685
-0.010058761
0.0020420458
0.0035345932
0.0028904588
0.003234985
0.0019429118
0.0011886394
0.0014154306
0.002409629
0.002308798
0.0023295823
7.0897484E-4
0.0013862895
0.0026026603
-0.008155961
-0.01146173
2.190983E-4
0.0022948985
6.1572285E-4
0.0017236961
-3.1577054E-4
8.6682785E-4
7.4700173E-4
-0.0015511055
3.953475E-4
0.0012539249
-1.8195655E-4
-4.883264E-4
-8.5621583E-4
-0.0027906494
-0.003840226
-0.0024915263
-9.315963E-4
7.3192106E-4
0.0017022737
0.0022266426
0.002459223
5.033938E-4
-1.204895E-4
0.001240204
0.0017324957
0.0013516102
8.6100504E-4
0.0016390398
0.0016102374
0.0017726752
0.0018169171
-0.0022185675
-0.003621446
-0.0022526444
-0.0022540404
4.072581E-4
5.407747E-4
-0.0015609013
1.3867946E-4
0.0011395857
0.0016391271
0.0023469944
0.0016134866
5.923888E-4
-0.0011934906
-0.0011772474
-8.984421E-4
-0.0022922214
-0.0010601013
-2.2509236E-4
-0.0010439806
-3.1579697E-5
6.462259E-4
4.8586808E-4
-6.492878E-4
-0.0020689634
-5.6824036E-4
0.0013696749
0.0013784831
6.4692774E-4
-1.5780296E-4
2.3075771E-4
5.8470113E-4
-2.543556E-4
-4.9619226E-5
-9.50453E-6
-0.001523036
-0.0011509852
-1.8469158E-4
-8.8705786E-4
0.0012912004
0.0027374225
-7.650449E-4
-0.0014575704
-4.5850096E-4
-6.8133045E-4
0.0013766602
0.0016369268
0.0020738204
0.0037331341
3.5973237E-4
-0.0022295155
-0.0012675643
9.681691E-5
0.0011130722
-9.117877E-4
-0.001221664
-9.151308E-4
-0.0038098635
-0.0022771815
6.2546274E-4
7.73042E-4
0.0023614843
0.0022657835
-3.690809E-4
-0.0016303255
-1.3296315E-4
9.1022404E-4
-9.692206E-5
6.086169E-4
4.7128802E-4
-8.0425164E-4
-4.5385055E-4
-0.0010562324
-2.799942E-4
6.266314E-4
-4.0894747E-4
-1.5320968E-4
-2.1435684E-4
0.0010904211
0.0027473746
0.002292539
0.0027704523
1.6721994E-4
-0.0031566736
-0.0027925577
-0.0028385853
-0.0010082705
2.6550455E-5
-0.0013368852
8.901286E-4
0.0016164224
-2.0980522E-4
8.97265E-5
-4.8217413E-4
-0.0012422772
2.7020375E-4
0.0021775956
0.002301195
3.449479E-4
-0.0010103345
-8.132855E-5
0.0011899279
3.773376E-4
-0.0013669665
-0.002033681
-0.0013552185
0.0011327144
0.0018349207
-7.8015536E-4
-0.0011555628
4.586613E-5
4.3861146E-6
0.0010239313
7.037433E-4
-0.0022531818
-0.0023788454
3.8541573E-5
-4.133021E-5
-0.0016456308
-0.0014127227
5.832577E-5
0.0012212936
0.0016285166
4.164882E-4
-6.7691045E-4
7.0664403E-4
0.0021004872
0.0024484452
0.002545171
0.001049183
-2.4642367E-4
-4.0225527E-4
-9.904788E-4
-9.6673187E-4
-7.9128373E-4
-7.1942393E-4
-2.2946199E-4
-8.216989E-4
-0.001215394
2.5174266E-4
0.0020052134
0.0016688311
-6.506745E-4
-0.0015945454
-0.0013990527
-0.0018590887
-6.9008506E-4
0.0017509195
0.0017972102
-1.9474399E-4
-7.364407E-5
0.0015573495
7.750417E-5
-0.0021816164
-9.0394623E-4
0.0011874936
9.982386E-4
4.154416E-4
6.432224E-4
-3.257137E-4
-0.0010689253
8.2295424E-5
-1.7532532E-4
-0.002314419
-0.0033396885
-0.001722168
8.791242E-4
0.0011391011
6.0793717E-4
8.8563166E-4
5.2702555E-4
7.758457E-4
7.740047E-4
-2.858525E-4
-1.6156674E-4
-5.1935826E-4
-0.0011209924
-5.3197477E-5
-1.7019627E-5
-1.6190641E-4
0.0010633616
0.0015072378
0.0023642902
0.0023844617
-1.4876014E-4
-4.930534E-4
2.8497033E-4
-0.0011939734
-0.001115337
6.562437E-4
0.0012842991
0.0016925912
0.0014681593
-5.667066E-4
-0.0016382093
-8.732739E-5
3.9574708E-4
-0.001123437
-0.0019881206
-0.0014659563
-5.9132476E-4
-0.0020238857
-0.0022615846
0.0012137783
0.0012724664
3.533749E-4
0.0011504903
-0.0025477442
-0.004854129
-0.0025996394
-0.001332555
9.7348023E-4
0.0027726411
0.0016763011
0.0016933102
0.0030800859
0.0033777845
0.0023753773
0.001367643
3.3718775E-4
5.989666E-4
0.0025706326
0.001710383
-2.7234253E-4
-6.4619497E-4
-0.0014768636
-0.001159561
-0.0010078328
-6.425857E-4
0.0010546003
-8.561731E-4
-0.0020780321
-8.5612264E-4
-0.002851267
-0.0039194077
-0.003169564
-0.0023951759
-7.4081495E-4
-0.0014445549
-0.0014834991
6.5361115E-4
5.2052946E-4
-9.041077E-5
3.510676E-5
7.6595484E-4
0.0028572688
0.0043003284
0.00385513
0.0022312552
0.00202815
0.0024358376
4.8078824E-4
-3.4592272E-4
0.0015591485
0.0023400132
0.0014917597
0.0014027358
5.691328E-4
-0.0028030626
-0.0032755334
-0.0010002811
-9.5337565E-4
-2.4064195E-5
3.318082E-5
-0.002519047
-0.0023849597
-0.0010260581
5.143974E-4
0.0016104549
-4.989541E-4
-0.0016906911
-9.106129E-4
-0.001313531
-0.0027697184
-0.0034183718
-0.0023956324
-0.0027762488
-0.0030582915
-7.8253634E-4
7.728244E-4
0.0025941213
0.0039042886
0.0021590306
0.0016686798
0.0049442174
0.00843926
0.008087093
0.0069956356
0.006599992
0.0026333989
2.555452E-4
8.450835E-4
-0.001456494
-0.004029026
-0.0050468207
-0.0037770018
-0.002396183
-0.0053944993
-0.006382617
-0.0045192395
-0.0050945347
-0.0059244637
-0.008401823
-0.011422587
-0.009552202
-0.005865715
-0.0028326581
0.0012715589
0.00400003
0.0044508046
0.0068581766
0.00959689
0.009822592
0.012304605
0.013829326
0.010420883
0.010449228
0.012842407
0.011111474
0.0065984796
-7.1296387E-4
-0.0063929176
-0.0074625313
-0.008145149
-0.006833584
-0.0048018717
-0.0059840125
-0.007922578
-0.010909951
-0.012876502
-0.009501505
-0.0059016435
-0.0062927906
-0.0067743985
-0.006088668
-0.006816902
-0.005355253
7.6901866E-4
0.0058262805
0.009331619
0.012085019
0.011836856
0.012797251
0.014772656
0.012119841
0.005837908
-1.8772391E-6
-0.002600824
-0.0032350714
-0.0038276236
-0.0036045574
-0.0034596971
-0.0027888808
-0.0015333231
-0.0025868078
-0.0038702923
-0.0018099187
4.996123E-4
-6.7476754E-4
-0.002101978
-0.001167679
-0.0010027083
-0.0023581153
-0.0023327055
-5.410276E-4
-6.5007526E-4
-0.0015349953
0.001237082
0.0029538558
0.0020710346
0.0038018986
0.0053785825
0.0041589346
0.0017301693
-8.2544045E-4
-0.0013909237
-5.133824E-4
-8.820078E-4
-0.0020196023
-0.0010602227
-8.107823E-4
-0.0030497971
-0.0024808152
-0.0022193615
-0.0032351676
-0.001084878
-0.0014332399
-0.0015846819
0.0013221083
4.5780427E-4
0.0010621028
0.0037333393
0.0028929953
0.0025861484
0.0023697643
0.002236785
0.0045169177
0.0054544634
0.0047618886
0.0048127486
0.004613093
0.0026285264
-4.476701E-4
-0.003298737
-0.0042656027
-0.0019598315
-1.6309573E-4
0.001034648
0.0040449672
0.004089047
0.0018244197
-4.8323424E-4
-0.0040944675
-0.006383159
-0.010746699
-0.016499577
-0.015897943
-0.014453085
-0.01578798
-0.0140581075
-0.009446409
-0.0037084657
0.0016689535
0.006260046
0.012739542
0.01671623
0.01549851
0.014467151
0.011604
0.0068069394
0.0051458776
9.205531E-4
-0.0046855095
-0.0044785733
-0.0032282926
0.0030071586
0.016581252
0.023499016
0.021880547
0.016788917
0.008550429
1.3092313E-4
-0.0079036625
-0.013957625
-0.017853485
-0.018697869
-0.012833548
-0.0094286045
-0.0102639245
-0.0043531377
0.0025359315
0.0029276903
-2.3943627E-4
-0.005715293
-0.010377431
-0.011441469
-0.009377235
-0.007531204
-0.007837529
-0.004921828
-4.9162586E-4
-9.3950715E-4
-0.001506546
4.7392494E-4
0.0020570052
0.0045666834
0.007106431
0.008105289
0.0097915
0.01137352
0.011218002
0.01074921
0.010823031
0.010127058
0.006357726
0.0016469423
-1.0331467E-4
-7.829205E-4
-9.420348E-4
-2.2532544E-5
-0.0012286853
-0.002451066
-0.0010818011
-0.0014162326
-0.0032155225
-0.002748188
-0.0018155611
-7.519764E-4
0.0019381966
0.0027197637
0.0018067781
0.0032019364
0.0040937155
0.003508735
0.00406318
0.0038723287
0.004119178
0.0054584327
0.003792846
9.5422595E-4
-9.033435E-4
-0.004164773
-0.010863925
-0.020203086
-0.025227066
-0.024953263
-0.023341421
-0.016865587
-0.01123752
-0.012824401
-0.0121352365
-0.009335522
-0.010129821
-0.009612488
-0.0067153517
-7.0744264E-4
0.008297272
0.01357992
0.019301906
0.03147195
0.041469812
0.04292103
0.038001783
0.031883474
0.029217174
0.026238205
0.01955726
0.010946387
6.750058E-4
-0.006605777
-0.008725589
-0.011328962
-0.015241909
-0.018303953
-0.019900441
-0.020042047
-0.020720294
-0.026170665
-0.03556547
-0.037150666
-0.030869374
-0.026078178
-0.019620176
-0.014244703
-0.010462812
1.5327451E-4
0.010497606
0.015224969
0.017233558
0.01848973
0.021690654
0.022670196
0.02249949
0.020623306
0.012534299
0.0102613205
0.015027313
0.013919401
0.0060144947
-0.0024486666
-0.0035691129
-0.0029194136
-0.009586531
-0.013984219
-0.011671478
-0.009003883
-0.006681049
-0.0031477162
0.0010022387
0.0045111342
0.007840509
0.01003235
0.010978718
0.011627126
0.008232146
0.0016910401
-0.0027253826
-0.004771995
-0.0069571626
-0.011040095
-0.0144493645
-0.015979772
-0.01705255
-0.015174679
-0.011871783
-0.009487376
-0.003730508
0.00468964
0.010084042
0.01462135
0.02219585
0.026346205
0.023041865
0.016914142
0.0075106733
-0.0036578074
-0.009715242
-0.011654911
-0.012909392
-0.013818716
-0.014600431
-0.0148428865
-0.014680428
-0.01269883
-0.009723997
-0.014576546
-0.024244247
-0.01804917
0.0022557105
0.012045585
0.009371666
0.0062230853
0.0048017045
0.0028417355
-0.007875121
-0.02056305
-0.015179533
0.0023367587
0.021294354
0.04668592
0.071171075
0.07734251
0.06262904
0.042386543
0.019428156
-0.017895479
-0.05206217
-0.06036703
-0.058694348
-0.058486957
-0.04058499
-0.0077534895
0.007744109
0.002967441
-0.002714068
-0.001170355
0.01240318
0.02057348
0.010674407
0.012383448
0.02716276
0.02693038
0.022706078
0.030610545
0.041326333
0.041727576
0.022089299
-0.008025884
-0.03314112
-0.05922905
-0.08100726
-0.07998503
-0.06101332
-0.039249502
-0.029148605
-0.03187733
-0.029961262
-0.015680231
0.017022092
0.052399002
0.05724537
0.04298657
0.025650593
0.012335584
-0.0040339646
-0.052693922
-0.07616382
-0.038972583
-0.0120267095
0.01280411
0.055329096
0.085519426
0.12677701
0.16519669
0.15370429
0.10512424
0.051932197
0.0046671
-0.05179682
-0.11301521
-0.14511694
-0.12910694
-0.08001906
-0.043447793
-0.047215216
-0.06856698
-0.046705674
0.021501398
0.055663925
0.044377647
0.016717516
-0.014469922
-0.016968986
-0.035436537
-0.083864264
-0.0940007
-0.089541405
-0.07833437
-0.021107338
0.06675307
0.14860922
0.13452016
0.031493157
-0.017996347
-0.014398486
-0.0066006295
0.04410621
0.09755081
0.09496322
0.0716311
0.031988073
-0.06166911
-0.14054713
-0.14331783
-0.16848412
-0.21329515
-0.14932673
-0.041418124
-0.0015497333
0.024026675
0.08657537
0.1320387
0.09147893
-0.0020698265
-0.0662346
-0.07496261
-0.035719864
0.051460456
0.19254968
0.27225792
0.20687982
0.14897753
0.09261885
-0.043273337
-0.09860684
-0.093610115
-0.13639665
-0.14709964
-0.11007497
-0.04640637
-0.020528765
-0.06493518
-0.073995955
-0.09407177
-0.16519345
-0.17867227
-0.15037984
-0.12007978
-0.06314661
0.016543658
0.08391708
0.10331574
0.0830156
0.019981107
-0.042137712
-0.01744331
0.054606557
0.12524387
0.19951808
0.2413113
0.22478646
0.14425972
0.032819357
-0.024875518
-0.026170291
-0.05229433
-0.09698323
-0.1046537
-0.095717356
-0.07130348
-0.028784864
-0.013837535
-0.001573129
0.036282912
0.07609487
0.09317323
0.060324065
0.03027604
0.03602386
0.014015177
-0.014938675
-0.005063457
0.008646107
0.004938705
-0.009912331
-0.029556831
-0.053387564
-0.081395306
-0.10532962
-0.12194889
-0.12160684
-0.101169184
-0.08115361
-0.07202245
-0.070268616
-0.07521825
-0.07675806
-0.061236735
-0.031947296
0.0012238942
0.031663127
0.055020917
0.07400125
0.08882117
0.10334628
0.124784395
0.1452592
0.15883699
0.16351712
0.15450771
0.13723183
0.11860467
0.10104496
0.08271004
0.061558414
0.040304366
0.018049762
-0.0018049378
-0.013750488
-0.022720609
-0.031947028
-0.03927233
-0.042828355
-0.042338047
-0.038454235
-0.033692084
-0.031218551
-0.027077477
-0.018827148
-0.008952944
5.1360147E-4
0.0066027087
0.013691955
0.02386703
0.030108228
0.032080565
0.03180096
0.029531224
0.025084391
0.01580068
0.0033375144
-0.009530717
-0.023087557
-0.037819453
-0.053897187
-0.069065705
-0.081416994
-0.08995591
-0.09310099
-0.0933982
-0.09367026
-0.091669545
-0.0876199
-0.084290974
-0.08128225
-0.07913073
-0.07528464
-0.06552388
-0.05405479
-0.04377501
-0.03252442
-0.017024383
0.00606602
0.03656537
0.076029025
0.11867841
0.16163874
0.21327843
0.24435596
0.22818042
0.20672703
0.2088323
0.21576177
0.21637487
0.20095791
0.15944521
0.08946898
0.0021921284
-0.057735313
-0.067159384
-0.052667905
-0.030557435
-0.010412214
-0.007508409
-0.026376853
-0.07575242
-0.14653604
-0.21381547
-0.27064216
-0.30573392
-0.31404722
-0.3055932
-0.27968302
-0.24294108
-0.20184644
-0.15461959
-0.1089621
-0.06534719
-0.025059035
0.0047379127
0.027763247
0.0466975
0.06290078
0.07569654
0.08481449
0.096928515
0.107980564
0.11669353
0.12937048
0.13836916
0.14082108
0.14092232
0.13599035
0.12671283
0.115246765
0.10291412
0.09036313
0.074974135
0.05753288
0.039343636
0.020922143
0.0048484625
-0.010721454
-0.026747448
-0.03895719
-0.04786031
-0.0553727
-0.058174238
-0.055318557
-0.050377302
-0.045947537
-0.041636795
-0.036417715
-0.034190584
-0.038394865
-0.043314308
-0.04391187
-0.043489534
-0.044525407
-0.045147296
-0.043694474
-0.04120958
-0.03961811
-0.03543161
-0.026105253
-0.017513003
-0.010233911
6.810681E-5
0.009271017
0.013790654
0.016631478
0.020716485
0.02608228
0.028404642
0.025490535
0.022038536
0.022045802
0.02420913
0.024965737
0.024667067
0.025921892
0.0261181
0.022955423
0.020361848
0.019988649
0.01836169
0.016685663
0.017991437
0.018513499
0.016764937
0.015973076
0.016266111
0.015855355
0.013733497
0.013324379
0.015703753
0.016415099
0.017580869
0.018077765
0.014019478
0.01319417
0.014992945
0.012193744
0.010386232
0.011717331
0.011880877
0.011344668
0.010519278
0.009613691
0.009892164
0.01050209
0.010258243
0.00943469
0.007997641
0.005923893
0.0040722927
0.0031217828
0.004190064
0.005399817
0.0031558748
0.001242435
0.002617969
0.0029475524
0.0018251187
9.0641755E-4
-7.3802803E-4
-0.0019809136
-0.0017078537
4.9352116E-4
0.0035321743
0.0041556587
0.0035807234
0.003079999
0.0012451122
0.0010875543
0.002196339
0.0010188641
9.164773E-4
0.0022776683
0.001895899
0.0025564167
0.0042378083
0.0021260926
-0.0013232093
-7.4266625E-4
3.0757213E-4
-8.168215E-4
-6.2131486E-4
-0.0017035058
-0.004414591
-0.002824528
3.6094178E-4
0.0014055504
0.0010719512
-8.7185367E-4
-0.0013348067
3.7675025E-5
3.715128E-4
4.2261867E-4
-4.505299E-4
-0.0012808215
-4.4021153E-4
-1.13679314E-4
3.3703205E-4
3.3234828E-4
-8.661413E-4
-1.2623364E-4
-2.6996233E-5
-7.6333113E-4
6.9793215E-4
2.3409548E-4
-3.7874075E-4
9.4365765E-4
-3.7858653E-4
-8.6511695E-4
-3.9276906E-4
-0.0022470886
-0.0016674591
1.7115696E-4
8.600231E-4
0.0014422334
4.157822E-4
2.5986056E-4
1.2214358E-4
-0.0014604785
-3.9163165E-4
9.5713715E-4
0.0014657665
0.0019929192
-7.180392E-4
-0.0029741996
-0.002609408
-0.0025822646
-0.0022667677
-0.0025308814
-0.0024093862
-0.0012432239
-0.0014048779
-5.496644E-4
-4.5867098E-4
-0.003110459
-0.0023726707
-4.8845173E-5
-3.5827194E-4
-6.0657464E-4
-0.001608082
-0.0023926895
-6.1840605E-4
0.0010387219
0.0019569197
0.0016943312
4.3186566E-4
4.091081E-4
5.1377155E-4
1.2695085E-4
-6.45657E-4
-4.3041605E-4
0.0024251807
0.004019898
0.002830514
-1.2053383E-4
-0.0038946741
-0.0042933673
-0.0029154257
-0.0033789508
-0.0035921514
-0.0022037115
-4.4882068E-4
-5.071474E-4
-6.491448E-4
8.082375E-4
9.828E-4
8.251203E-4
9.030544E-4
5.958239E-6
1.076624E-4
9.6498337E-4
0.0010166997
-2.9040826E-4
-9.7605895E-4
5.0946913E-4
5.0069933E-4
-9.124725E-4
-6.1674754E-4
-2.771806E-4
-0.0018560302
-0.0031373021
-0.0019087909
-7.2049955E-4
-8.6499684E-5
-4.3166225E-4
-0.0043018227
-0.005877825
-0.0032086796
-0.002267488
-0.0028941622
-0.004350693
-0.004327371
-7.668834E-4
0.0012215788
0.0016168313
0.0028880408
0.003316206
0.003740735
0.0033457289
3.347236E-4
-0.001418099
2.342308E-4
0.0024946823
0.0037102138
0.0029224853
0.0015715796
0.002488489
0.0024729522
5.1355193E-4
-3.157989E-4
-0.0017084784
-0.0032586022
-0.0030212968
-0.0029655453
-0.0032404915
-0.0022181745
-6.2239094E-4
-0.0013156822
-0.00371767
-0.0048517236
-0.0045339707
-0.0026743682
-0.0015197808
-0.0023072779
-0.0012510438
3.6390225E-4
5.4820957E-5
-3.2907896E-4
-5.6722516E-4
-2.6959233E-5
0.0011964571
0.00106815
4.51768E-4
5.133365E-4
8.466409E-4
0.0016632897
0.0025341918
0.0023388616
0.0015348609
0.0013852722
0.0012734364
-1.6213239E-4
-6.4857944E-4
0.001934877
0.0035693443
0.002116166
-8.848294E-4
-0.005000604
-0.0057180054
-0.0029546514
-0.0027200442
-0.0029683164
-0.0023174747
-0.0026779533
-0.0019927328
-7.2854105E-4
-2.579666E-4
-0.0010206543
-0.0017619804
-2.3519903E-4
-4.7899885E-5
-0.0013165887
-3.4425472E-4
6.6798436E-4
0.001097602
7.555306E-4
-5.8944867E-4
7.079815E-4
0.001930864
4.043751E-5
-2.1823656E-5
0.001605822
0.0014698574
0.0012482863
0.0010562445
-2.9326533E-4
-0.0013596012
-0.0014099984
-5.80006E-4
-1.7414878E-4
-0.001583313
-0.0025201328
-0.002110464
-0.0012526842
0.0012400222
0.003317155
0.0026990762
-3.456816E-4
-0.0046518655
-0.004712922
-0.0016152894
-8.595129E-4
9.0015447E-4
0.0018858793
-1.250879E-4
5.462234E-4
9.2931313E-4
4.9610815E-5
7.329681E-4
-0.0015593207
-0.0033588056
-0.0014441021
-6.725623E-4
2.0661986E-4
0.001018671
2.6613777E-4
8.1772613E-4
0.0015122141
4.3264212E-4
-3.1352232E-4
8.5724685E-5
-9.6273504E-4
-0.0021668738
-3.65709E-4
4.112951E-5
-0.0015460026
-5.363101E-4
2.7082287E-4
-4.7669915E-4
-7.901289E-4
-0.0014817568
-0.0015549631
-5.107133E-4
9.042721E-4
0.0025063509
0.0022249164
1.4117679E-4
-0.0013442743
-0.0019149841
-0.0010371042
7.841884E-4
7.878537E-4
3.241793E-4
8.4931636E-4
1.19756514E-4
2.8159868E-4
0.0020118994
0.0017506912
-1.0777112E-4
-0.0035416572
-0.0054474114
-0.0019376625
8.988048E-4
9.275131E-4
7.031598E-4
-8.5195986E-4
-0.0013475621
-0.0015526883
-0.0020395634
-7.4151394E-5
-4.0577975E-4
-0.0016598862
4.8744143E-4
0.0011938442
0.0015241142
0.002295435
9.0268755E-4
3.6464623E-4
-4.3560818E-4
-0.0011902683
1.19686265E-4
-0.001170626
-0.0025394103
5.5125856E-4
0.0027729634
0.001765004
0.0012570225
0.001356726
3.478171E-5
-0.0010351517
-0.0014104479
-0.0016092933
-1.3282696E-4
7.783829E-5
-0.0012538744
-8.948374E-4
-8.969676E-4
-0.0010744979
-4.3125317E-4
4.639756E-4
9.960971E-4
-5.27195E-4
-5.008486E-4
-2.6751073E-5
-0.002223567
-0.0015341009
9.486528E-5
1.377151E-4
3.5819117E-4
-0.0016005368
-0.0018630284
-0.001047761
-0.0017160196
0.0010056327
0.0021158692
6.30897E-5
3.7829293E-4
5.178771E-4
2.0544622E-4
5.915537E-5
9.7252073E-4
0.002967476
0.0014739779
7.9345435E-4
0.0026540756
0.002705821
0.0031785166
0.0011498576
-0.0018969459
-2.9490742E-5
-8.4213197E-4
-0.00442108
-0.0037679528
-0.0024502836
-0.0015762424
-7.90968E-4
-0.0013058769
-5.714316E-4
-3.158423E-4
-0.0016117676
-0.0012998419
-0.0011057137
-0.0019328665
-9.993833E-4
8.7618816E-4
0.0012254011
5.774688E-4
2.9002022E-4
-6.073045E-4
-0.0010984696
5.1539444E-4
0.0011721316
9.201718E-4
0.0016702522
0.0014110724
0.0010955788
0.001436659
0.00177482
0.0026341185
0.0013767972
-3.0093404E-4
-2.1084421E-4
-0.0025796872
-0.0038547986
-7.9290784E-4
2.6383385E-4
-2.9812107E-4
0.0011008676
0.0013032956
-7.4823113E-4
-0.0018798454
-0.0017101675
-0.002110667
-0.002143062
-1.9213093E-4
0.0014788316
6.078028E-4
-7.265369E-4
-0.0012317334
-0.002006993
-0.0016102415
1.7394045E-4
6.578094E-4
1.1675333E-4
1.3922973E-4
9.991588E-4
0.0018653056
0.0014359873
4.426083E-4
-2.5439094E-4
-9.587913E-4
-7.085065E-4
9.647665E-4
9.874003E-4
-8.126566E-4
1.18132746E-4
0.0011243663
-6.0540665E-4
-8.272406E-5
0.0012415242
8.5470296E-4
0.0013718897
0.0019088753
0.002068352
0.0013904386
-2.0014476E-4
-9.658707E-4
-0.00190007
-0.0014204078
-7.297884E-5
-0.0010742695
-0.0013568248
-4.203337E-4
-2.6005294E-4
0.0010862775
0.002916336
0.0010136246
-0.0011123726
0.0017835725
-0.0028132582
-0.015042435
-0.011580772
0.0010288435
0.004132986
0.0039044113
0.0031747294
9.2052534E-4
4.2436057E-4
4.502608E-4
2.4374682E-5
-5.219875E-4
4.02261E-4
5.713678E-4
-0.0011141468
4.6838328E-4
0.002062236
0.002067263
0.0035906015
0.0028433092
0.0017311231
0.0021558
0.0012926739
9.700764E-4
3.6160083E-5
-0.0017954468
-0.0019688143
-0.0011730508
-2.46818E-4
-0.001757732
-0.0042210333
-0.003219527
-9.2818134E-4
7.0053013E-4
0.0015078594
0.0012443924
3.8332542E-4
-8.7281334E-4
-3.5067872E-4
-9.865659E-7
-0.0014218026
-1.9499671E-4
0.0013750806
0.0010852857
0.0016098482
0.0012189405
8.2743505E-4
7.100761E-4
-9.2113105E-4
-8.127032E-4
-8.3849975E-4
-0.0028109215
-0.0018952283
0.0010559688
0.0023500016
0.0013773387
0.0011034587
0.003140706
-0.0013424788
-0.0125733735
-0.014671502
-0.004997651
0.004191107
0.005950679
0.0043748454
0.0058453153
0.0058891554
0.0020567293
0.0012127082
0.0014449232
-2.7303357E-4
-0.0012526541
-0.0017987152
-6.058406E-4
6.386541E-4
3.2102558E-4
0.0024511777
0.0037199552
0.0015388338
-1.513706E-4
-0.0010846355
-0.0015104904
-0.0018936457
-0.0023013363
-0.0015791135
-0.0013199197
-0.0015370357
-0.0011176881
-4.5160254E-4
-1.7697511E-4
-8.21343E-4
-9.0234005E-4
2.9192778E-4
0.0012556422
7.1840384E-4
-2.9379086E-4
2.6666292E-5
8.210223E-5
-4.6452074E-4
-5.8840273E-4
-0.0014575182
-0.0012410047
7.22054E-4
8.7694754E-4
-3.277044E-4
7.806602E-4
0.0026501336
0.0022438727
0.00180005
8.234106E-4
-0.0015347397
-0.002910717
-0.0053835623
-0.0049422286
8.3528145E-4
0.002414178
0.0014082935
0.0023656776
0.001756069
0.0017294581
0.0015613083
-3.6789614E-4
-2.8918317E-4
4.5659498E-4
7.187161E-4
0.0014245575
6.416121E-4
-7.543725E-4
-7.4599066E-4
-0.0010255227
-0.0016122945
-7.431891E-4
-4.4004509E-4
-4.3581298E-4
0.0012505538
0.0016373676
4.4076273E-4
-9.239835E-4
-0.0021656076
-8.920799E-4
3.7288675E-4
-4.7880792E-4
-1.6848733E-4
1.8626988E-4
-8.017162E-4
-4.2693355E-4
7.0903817E-4
3.2024953E-4
3.3171932E-4
0.0011332235
-3.4328015E-4
-0.002202607
-0.0016160393
-8.8205175E-5
4.2588226E-4
-3.6961868E-4
2.1797785E-4
0.0019222811
0.0015197796
-4.2415362E-5
-0.0014605501
-0.0020304904
-9.826092E-4
9.361357E-4
0.0019038417
8.5826445E-4
6.8006275E-4
6.830891E-4
-0.0011006618
-6.9668127E-4
9.1671164E-4
0.0012090814
0.0012793579
8.619787E-4
0.0012813208
0.0014250897
4.3102482E-4
7.791362E-4
5.2778126E-4
-0.0015075987
-0.0031270075
-0.0031281298
-0.0016403702
1.8786226E-4
0.0014701465
4.8889243E-4
-0.0016196227
-0.0015113017
-1.989514E-4
-4.4842582E-4
-0.0016173953
1.9967328E-4
0.0015482351
-0.001850004
-0.0021849775
0.0013637037
0.0029365306
0.0024800438
-6.2766374E-4
-0.0024538022
-0.0018068863
-0.0020508347
-6.12998E-4
5.9038756E-4
5.972414E-4
0.001932014
0.0024950465
0.0026982685
0.0019289469
3.9451272E-4
1.0011633E-5
-0.0012821791
-0.0016204101
-9.2207995E-4
-5.58173E-4
0.0014042424
0.0013079798
-3.6390623E-4
3.1223957E-4
4.7226896E-4
-2.5474062E-4
-5.5363664E-4
-9.55541E-4
-9.1063255E-4
-5.078614E-4
1.474975E-4
3.9770218E-4
-4.438224E-4
-0.0010820096
-6.026214E-4
5.850001E-5
-6.1073096E-4
-0.0021497274
-0.0017355549
7.757225E-4
0.001824099
0.0015083007
0.0013362018
-1.07865686E-4
-0.0010024154
-6.1503425E-4
-6.9136213E-4
6.977684E-5
7.6305436E-4
0.0016287153
0.0028360297
0.0012467048
-1.1454636E-4
3.3411037E-4
2.7800558E-4
-3.725211E-4
-0.0035086165
-0.0049603153
-0.0010095815
0.0015409071
8.0092956E-4
4.4591242E-4
6.7742507E-4
0.0016661197
0.0022134767
4.1626897E-4
-0.0013018498
-0.0012938702
-4.7274423E-4
0.0010974766
0.001265221
2.602369E-4
5.858268E-4
2.937994E-4
2.3598819E-4
0.0010475722
-6.294443E-4
-0.0020849367
-0.0011511084
-8.5730787E-4
-0.0011638217
-4.7968508E-4
3.1291755E-4
-1.3260886E-5
-0.0014817703
-0.0029750152
-0.0026915662
-0.0024661159
-0.0013492574
0.002592572