0.005282435
0.0010480636
0.0015231858
3.6293137E-4
-0.004252556
-0.008291112
-0.01079951
-0.007420775
0.0015753527
0.009672352
0.012244276
0.009844019
0.0088844085
0.01005916
0.008965073
0.0049771243
0.0028677108
0.009341935
0.019419717
0.023756133
0.022399342
0.01836498
0.015785513
0.0138858175
0.006784124
-0.0026265918
-0.006690383
-0.0053620855
-0.004448211
-0.0061332276
-0.010747362
-0.01820519
-0.02101361
-0.016606411
-0.01258817
-0.012435102
-0.012422473
-0.008309442
-0.0065716594
-0.012587508
-0.01705616
-0.01710511
-0.014296172
-0.0053377063
0.0035101473
0.0051798974
0.002507085
0.003843201
0.011662445
0.015046333
0.014003469
0.017502785
0.019280506
0.015432183
0.010514474
0.0060067168
0.003188499
0.0018240374
0.002848741
0.005443975
0.005142586
0.0028008493
-3.606285E-4
-0.0036586148
-0.005945664
-0.008670504
-0.00963763
-0.008675938
-0.009409417
-0.0104398485
-0.008918151
-0.0058527165
-0.0066861794
-0.011519812
-0.014094085
-0.015172574
-0.01573811
-0.01254889
-0.0045137284
0.005904008
0.0108557595
0.011813749
0.016226534
0.018787056
0.018350346
0.018256497
0.014691722
0.013107058
0.018455
0.022002477
0.019282674
0.01271635
0.004546749
-0.0016459242
-0.0039923713
-0.0048147324
-0.006886132
-0.009196858
-0.009338507
-0.009594968
-0.012655214
-0.015033095
-0.015626961
-0.016494859
-0.015763212
-0.017524706
-0.024731448
-0.026848791
-0.018512094
-0.0065528373
4.6556626E-4
0.0030228782
0.0067636715
0.006630946
0.004038422
0.0053852983
0.0046037184
0.006238075
0.013709289
0.016361898
0.015710177
0.016141437
0.015525124
0.012657199
0.008468061
0.006212539
0.0038333524
0.00240716
0.0048399763
0.0049774656
3.9550159E-4
-0.0047547054
-0.0043541687
-6.912246E-4
-0.0029964678
-0.0072431993
-0.007858878
-0.0050990824
-0.0011531919
-0.0013796915
-0.0013310454
-8.241773E-5
-0.0023720392
-0.0028207337
-0.003047499
-0.0067065954
-0.008424241
-0.006166858
-0.0017019432
8.4270694E-4
0.001755018
0.004741799
0.0061669806
0.0034143354
-4.2418283E-4
-0.002623219
-0.0033510837
-0.0036693295
-0.0018677621
0.002249366
0.004995611
0.004492511
0.0014301514
-0.0034242945
-0.006979036
-0.007825454
-0.008731631
-0.0074214926
-0.0025250965
4.5839077E-4
6.6681375E-4
6.8227353E-4
0.002209548
0.004373412
0.0021486105
-0.0028193716
-0.0025691057
0.0032249813
0.0071667745
0.0075835814
0.008618828
0.0102656465
0.010684918
0.0076209554
0.0024797542
-4.2887364E-4
-0.003067371
-0.0031196477
0.0018574705
0.0053199288
0.006333554
0.0058796722
0.0032581016
0.001189496
-1.9707793E-4
-0.004229339
-0.010155581
-0.01125435
-0.012018934
-0.01346647
-0.0037021902
4.8453282E-4
-0.009807933
-0.010043083
-0.005558546
-0.0089676045
-0.008912419
-0.0026438232
0.0062463474
0.011860705
0.0109516
0.009626816
0.007901675
0.0039920663
6.4229616E-4
-0.0028163127
-0.006273832
-0.0045162295
7.3659414E-4
0.0035803863
0.007371426
0.009604561
0.0066500083
0.006089565
0.004257045
-0.0023206254
-0.004396313
-0.0029619222
-0.001282875
0.0036896877
0.00712958
0.0044442164
0.0033722392
0.0068744696
0.0055774725
-0.0012523951
-0.0065958286
-0.008319288
-0.005121746
7.8453845E-4
0.0021002216
-0.002608172
-0.0062423185
-0.00869326
-0.0138997575
-0.014740431
-0.011694682
-0.012969696
-0.014016781
-0.008231507
0.0010902907
0.003393105
0.0014263671
0.0024722898
-0.0049827406
-0.012187297
-0.0025383711
0.009303725
0.01866599
0.027744945
0.02964205
0.030891081
0.03197985
0.026087893
0.015671458
0.004602873
-0.0040162574
-0.012075177
-0.020313596
-0.023412082
-0.020001369
-0.013304281
-0.007471026
-0.003969667
-0.0055292947
-0.013026878
-0.016011687
-0.009643869
-0.0024478093
-2.7569127E-4
-0.0015293472
-0.0015240691
0.0010168082
0.0012976925
-0.0022630084
-0.0031437913
1.6573223E-4
0.0034578454
0.008668935
0.014315084
0.01574909
0.01327243
0.007952135
0.005055806
0.002274539
-0.0062382543
-0.010696604
-0.007597893
-0.0025564593
0.0022244889
0.001578315
-0.0016045455
-0.001963089
-0.0014888068
-9.5004897E-4
-0.0019502493
-0.002620988
-0.0014273521
-2.5139094E-5
0.004334236
0.007757067
0.0068589016
0.0060674245
0.004428707
0.0018841843
-0.0018500811
-0.007042795
-0.0070943753
-0.004392919
-0.0033637944
-1.40845E-4
0.0016484291
-0.0012839992
-0.0037903348
-0.0037556342
-0.003441142
-0.003946108
-0.0025757297
2.113852E-5
0.0012449478
0.004260857
0.0064215874
0.003195809
-2.8049285E-4
-0.0017264374
-0.002455221
-0.0026138981
-0.0031220133
-4.554027E-4
0.005992036
0.010119975
0.009460008
0.0053420095
0.001392871
-8.8802143E-4
-0.0045603747
-0.0078788055
-0.00800988
-0.005470566
-3.6541355E-4
0.0039515696
0.005891463
0.0076407227
0.0067093945
0.0017200283
-0.0032037268
-0.0062037613
-0.00884742
-0.00929444
-0.0040052645
0.002626147
0.0051141367
0.0057693208
0.005306688
0.00244262
-0.0011862247
-0.004417322
-0.005054824
-0.0024792545
2.5939304E-4
0.0013218534
7.1394537E-4
0.0031402067
0.009100601
0.008745041
0.0026536915
-0.0031323677
-0.008443978
-0.005446011
0.0017023034
-8.9046755E-4
-0.0023560112
0.0026466683
0.0018285477
-8.1799255E-4
-0.0025742939
-0.00784453
-0.008079021
-9.291247E-4
0.004989296
0.0061427974
0.0033311136
0.0011458918
0.002720378
0.003981276
9.875395E-4
-0.0034840116
-0.0037893474
-7.672635E-4
0.0014526682
0.0027216105
0.0036103025
0.0036403087
0.0013969579
-0.0020141208
-0.0040661287
-0.0066965665
-0.007502999
-0.0028574357
9.469536E-4
8.5684966E-4
5.706058E-4
0.0014243185
0.0030268938
0.002799287
7.332766E-4
-2.129072E-4
5.3083326E-4
0.00390756
0.0074366075
0.006121921
0.0020280427
9.345369E-4
0.0026149391
3.5148545E-4
-0.0046029743
-0.004371704
-0.002096222
-0.0010523552
0.0014848815
0.0012688279
-0.0027143427
-0.0039354293
-0.0034647596
-0.007144635
-0.011133858
-0.009206186
-0.006312255
-0.0033751645
0.0039525847
0.008098374
0.0060067074
0.0045438535
0.0035571803
-3.8601342E-4
-0.0048344424
-0.0022544318
0.004122022
0.0046869046
0.004148504
0.0051508127
0.004501908
0.0047315317
0.005291527
0.004914293
-0.0020392034
-0.013930867
-0.011796076
7.066508E-4
0.0066102124
0.007853559
0.005749092
0.0035571912
0.00503012
0.002988667
-0.0016243543
-0.005379127
-0.008362014
-0.006688266
-0.0025386757
0.001028442
0.0028310276
0.0016198256
0.0021915347
0.0029012712
-0.0019093654
-0.008374157
-0.01029294
-0.005494676
0.0016141982
0.0064116246
0.0070656077
0.002234777
-0.0013239178
-0.0026459612
-0.007220721
-0.008866348
-0.0072774244
-0.0059501375
-5.029246E-4
0.005574552
0.009844863
0.012690886
0.009903552
0.0048875795
-4.6415828E-4
-0.008397011
-0.011682378
-0.005394067
0.0019464579
0.0036486022
0.005703179
0.01074425
0.013256943
0.010475774
0.0018750868
-0.00827144
-0.014866249
-0.014314929
-0.006105056
-0.0033095344
-0.00706134
-0.0047386717
-0.0014821445
6.6204247E-4
0.0045413654
0.003744725
0.00366645
0.0076052877
0.009795358
0.011771034
0.009736263
0.0011080063
-0.0057901135
-0.0076365387
-0.0062540886
-0.005070989
-0.007780928
-0.007557317
0.0024485018
0.01112025
0.007779247
5.470501E-4
-0.0010041056
-5.114772E-4
-0.0048879012
-0.0117906295
-0.01308514
-0.006554864
0.0010333683
0.0035481614
0.0026400345
0.002963959
0.005204019
0.0048510553
0.002032347
0.0025056128
0.0045382082
0.005731115
0.007751935
0.005852483
-5.167832E-4
-0.0023459296
-7.132799E-5
-0.0025960323
-0.0071944133
-0.0081850905
-0.008936475
-0.0067712213
-0.001149759
-1.4629607E-6
-2.1144573E-4
0.0029049213
0.0047655418
7.2330754E-4
-0.0062270123
-0.00776976
-0.005071401
-0.0029273566
4.6380213E-4
0.007350406
0.013859887
0.013202251
0.009700822
0.0062596384
0.0018650268
5.8701594E-4
-0.0027770423
-0.0051427935
-0.0027099245
-0.001211868
0.0053226184
0.00788407
0.003757783
0.002335585
-0.009817591
-0.019716073
-0.01267853
-0.0035552452
0.00533865
0.006086277
8.609711E-4
-0.0024027852
-0.0090689575
-0.0041666017
0.0045722094
-3.7187754E-6
-0.0013385197
0.002363319
0.0060078446
0.00803434
0.0052926457
0.0050153565
0.0048807873
0.0035700947
8.8395E-4
-0.0065404526
-0.009155255
-0.004593572
0.003982229
0.010884367
0.008200635
0.003628944
-0.0011065878
-0.00853718
-0.011252199
-0.010990042
-0.012344811
-0.012779054
-0.0091819195
-0.0026924137
0.003183755
0.0076616416
0.009055454
0.0061866813
4.674497E-4
-0.0036479523
-0.0019279543
0.0017023523
0.0038878086
0.0053747334
0.0070648193
0.00971547
0.009781894
0.005047856
-0.0027518626
-0.00793955
-0.0049084765
0.0019391077
0.007906517
0.010638241
0.009645955
0.009899975
0.008200958
0.001469654
-0.005976794
-0.013452244
-0.017878007
-0.017724203
-0.015187201
-0.01042755
-0.0067912675
-0.0035561863
0.0011931546
0.00232935
1.4996556E-4
-0.0030630245
-0.007959646
-0.008619269
-0.0026580067
0.0038563388
0.0076337494
0.00854155
0.0076220753
0.0043318016
-0.0014311007
-0.0020481355
0.0034381931
0.0061873947
0.008846629
0.013632812
0.012414195
0.008371755
0.005743564
8.262147E-4
-0.002969743
-0.0057097273
-0.008666641
-0.0055631176
0.001543492
0.008348795
0.013816199
0.012965236
0.006870622
0.0015962
-0.0020967694
-0.0062831496
-0.009927276
-0.009727012
-0.006595886
-0.0055398676
-0.008929378
-0.011827726
-0.010762612
-0.009069335
-0.0078110006
-0.010557162
-0.018269164
-0.01946836
-0.010841207
-5.188997E-4
0.0063584517
0.008972167
0.008514165
0.0051554744
1.384586E-4
-0.0063379062
-0.011200415
-0.007956252
-3.409452E-5
0.009724973
0.01841583
0.020126311
0.022106573
0.026457138
0.028072799
0.026447583
0.019926848
0.015007815
0.01219326
0.008634768
0.0059345234
-0.008242592
-0.023499643
-0.018960107
-0.012499591
-0.014307166
-0.014672694
-0.014775729
-0.01320808
-0.007664632
-0.003083198
-0.0025233482
-0.0032154685
-0.0021814387
-0.0027184947
-0.0074425163
-0.013911177
-0.01930889
-0.020335328
-0.015972508
-0.01034851
-0.0029562972
0.009190079
0.017106565
0.014263499
0.007372811
0.0025537678
0.0028147206
0.006393548
0.00945532
0.0112292105
0.010359547
0.008932054
0.007833574
0.00388388
-0.0033221568
-0.011337617
-0.01217352
-0.0027573565
0.006485577
0.00860938
0.010218846
0.013493628
0.008671894
-7.1628956E-4
-0.006925279
-0.010385088
-0.0048407656
-6.271994E-4
-0.0036335168
0.0047202846
0.014173894
0.011417182
0.0087509295
0.008836914
0.011175659
0.0151696345
0.01942098
0.02412315
0.023160994
0.015899159
0.0042854887
-0.006331608
-0.0103524355
-0.015309881
-0.026173515
-0.04229271
-0.0562604
-0.060332123
-0.058989085
-0.05244873
-0.04427128
-0.03693409
-0.024496254
-0.015343449
-0.012389639
-0.011220034
-0.008698213
0.006732383
0.025907189
0.03546961
0.04114036
0.04602288
0.058210492
0.07387853
0.077377096
0.07612594
0.07447134
0.06824496
0.06348952
0.057035025
0.041665964
0.020210523
-5.0224614E-4
-0.02011869
-0.049139522
-0.085651025
-0.113134325
-0.12206125
-0.10748351
-0.07827935
-0.053851686
-0.03927528
-0.03487663
-0.035225954
-0.029336086
-0.021272985
-0.0110398205
0.006830805
0.024446873
0.03886863
0.054089755
0.06914356
0.08019863
0.08389159
0.07851761
0.0643259
0.052134696
0.04790257
0.041176967
0.02943101
0.013257024
-0.010256614
-0.032851093
-0.046382204
-0.05280147
-0.057774078
-0.06265574
-0.06235227
-0.056420576
-0.05150142
-0.049075805
-0.04384932
-0.03457465
-0.024952406
-0.01955122
-0.017669573
-0.010147866
0.0050241556
0.023957174
0.041779403
0.047041167
0.043143734
0.040289123
0.036082584
0.03587095
0.043855976
0.051198184
0.05070281
0.03998888
0.02176261
-0.0010712774
-0.02056965
-0.021946557
-0.008763856
-0.0016643004
-0.008386315
-0.02031005
-0.030079387
-0.031866934
-0.025503581
-0.019844893
-0.010267855
0.0071225264
0.018740656
0.017135438
0.004494326
-0.008209924
-0.01694615
-0.029818919
-0.041812908
-0.05426757
-0.06746382
-0.06558791
-0.04812093
-0.01981619
0.00752441
0.025029715
0.050099064
0.07922303
0.09795564
0.10912458
0.10834678
0.0956575
0.070852615
0.033657745
-0.005282023
-0.041373186
-0.058023456
-0.042838816
-0.017975718
-0.0065604523
-0.01564962
-0.03746032
-0.060941607
-0.08276521
-0.09665129
-0.10425849
-0.1086683
-0.103369884
-0.08694876
-0.061976973
-0.039125156
-0.013693641
0.039173514
0.10090633
0.13503633
0.14722534
0.14882512
0.13841137
0.12246519
0.108602725
0.092633374
0.06511763
0.023352662
-0.025500061
-0.0606786
-0.07038676
-0.06786187
-0.058524672
-0.040744063
-0.023610944
-0.016269337
-0.03211475
-0.07310204
-0.11510509
-0.14195897
-0.15221183
-0.12769513
-0.060334686
0.005628316
0.041545823
0.07029037
0.095009685
0.10729721
0.1103565
0.097909406
0.075579815
0.054666378
0.04379618
0.048631724
0.052846663
0.052206397
0.056753013
0.052277286
0.018235749
-0.034703527
-0.064317815
-0.057329208
-0.04078307
-0.025896052
-0.018675983
-0.026772251
-0.036733374
-0.03334206
-0.017829062
-0.0067596454
-0.0025243924
0.0029178145
-0.013187803
-0.06359586
-0.13012417
-0.18966855
-0.19293904
-0.12113603
-0.038720034
-0.006060991
-0.017807955
-0.022831969
0.0018516536
0.027144816
0.061332263
0.110465705
0.12969437
0.13300572
0.15459715
0.18467517
0.22993381
0.26887465
0.2515883
0.17497787
0.063588895
-0.034434278
-0.08330151
-0.107612625
-0.11448276
-0.09265718
-0.08239814
-0.10404345
-0.12280962
-0.11652845
-0.0905226
-0.087493174
-0.13423128
-0.17026722
-0.15853757
-0.13031016
-0.094373845
-0.056375034
-0.022500832
0.020756545
0.060329806
0.08342744
0.101211056
0.11484557
0.12235492
0.116919056
0.097763896
0.09673292
0.12575357
0.14094208
0.098535195
0.029151395
0.011237542
0.019121254
-0.03024876
-0.098830625
-0.14921974
-0.20053981
-0.19416146
-0.10990008
-0.013303026
0.06614977
0.10701118
0.08885079
0.017139276
-0.058442716
-0.054679103
-0.0077238106
-0.017112039
-0.04214563
-0.016677324
0.016040612
0.01689977
0.016214218
0.04688337
0.09538672
0.12918817
0.14519031
0.13090055
0.047411855
-0.06530876
-0.13818373
-0.18848903
-0.1873206
-0.07117033
0.06867507
0.1278099
0.14142461
0.1442764
0.12305261
0.07857107
0.025391791
-0.005069064
-0.0020564713
-0.007682762
-0.058456656
-0.1533981
-0.24357836
-0.24896793
-0.15691598
-0.032658488
0.059223562
0.083779275
0.045842536
-0.02319237
-0.082371734
-0.08923667
-0.043431208
0.013501794
0.042750772
0.021874653
-0.030907955
-0.049551852
1.6992983E-4
0.06939815
0.10954019
0.1318716
0.14802316
0.1498712
0.1414889
0.12391508
0.097764455
0.07705352
0.042135533
-0.037229005
-0.10806468
-0.104973264
-0.067868866
-0.049841933
-0.028226446
-0.0013932659
-0.021666117
-0.088085115
-0.147283
-0.17555578
-0.16095081
-0.09634253
-0.016915247
0.038715392
0.07669986
0.12853505
0.19142859
0.21862598
0.19190651
0.1273968
0.031095708
-0.078309625
-0.16993125
-0.21841374
-0.19539516
-0.11170703
-0.025317168
0.02625355
0.044029612
0.04616704
0.044466514
0.031266395
0.009556327
-0.007015416
-0.01937332
-0.025279317
-0.020109681
-0.011783641
-0.0021082521
0.012649593
0.023245718
0.024686977
0.031194527
0.04616602
0.059086483
0.069353364
0.07014833
0.055583935
0.03640269
0.013597523
-0.0100971265
-0.023726933
-0.03472908
-0.047438264
-0.053191762
-0.050812352
-0.04415094
-0.038384795
-0.034047697
-0.027393578
-0.018032763
-0.00786115
8.417554E-5
0.013510923
0.032930695
0.04055731
0.04400312
0.052573238
0.046326064
0.022933861
-0.006439317
-0.037145294
-0.058162067
-0.058849398
-0.038157266
-0.013465969
0.00306518
0.015815815
0.01558581
0.005329641
0.0015705562
0.0033218614
0.013290097
0.025578985
0.028824031
0.027540818
0.012624032
-0.011218394
-0.018511867
-0.018043106
-0.028306125
-0.04208957
-0.04159671
-0.026168361
-0.0116269495
0.00328466
0.013786349
0.0056466055
-0.0029557808
0.0030190693
0.017535573
0.03484787
0.04295158
0.03995559
0.03443169
0.031374276
0.03445237
0.036831114
0.031236313
0.020773591
0.010226621
-0.0014559083
-0.015236048
-0.020635871
-0.017119322
-0.015756344
-0.017300304
-0.018526305
-0.017433057
-0.021050883
-0.027554374
-0.027915632
-0.03805975
-0.05052179
-0.05016006
-0.05477099
-0.047200955
-0.017755378
0.0057768147
0.0259893
0.03640211
0.029917121
0.026238222
0.021506162
0.019115968
0.029758576
0.03680669
0.033304654
0.022955863
0.008452512
-0.002125927
-0.0052448567
-0.0015307075
0.0071112304
0.015725575
0.017966311
0.01661415
0.012904521
7.3951785E-4
-0.0069339336
-0.0062627625
-0.012947511
-0.020089108
-0.018532148
-0.012875605
-0.0088029085
-0.00845516
-0.007818292
-0.016529828
-0.03215099
-0.030824743
-0.017231058
-0.004708957
0.006471547
0.01398715
0.017426366
0.012601401
0.0033151137
-0.0012235442
-0.005262928
-0.008221288
-0.006827962
-0.002601764
0.0055209445
0.013943283
0.018691229
0.018961221
0.018266821
0.01839156
0.0104264645
2.4665883E-4
6.099457E-4
0.0035643235
0.00526447
0.008260805
0.0086209355
0.0076437476
0.0050405026
-0.0011376302
-0.010118491
-0.022259776
-0.03008221
-0.02856447
-0.024789343
-0.021313237
-0.013638533
-0.0068813753
-0.010101261
-0.007638662
0.007429179
0.0072563225
-0.0016670115
0.0021499447
0.0020378614
0.0020596958
0.01066963
0.008842189
0.0022495806
-8.157634E-4
-0.003596474
0.003726975
0.0175119
0.029701889
0.04243192
0.05143965
0.05387052
0.04883572
0.033836152
0.00832062
-0.025511825
-0.054694757
-0.06178361
-0.046631146
-0.029091971
-0.019310068
-0.01198122
-0.0096388655
-0.009947182
-0.0056725848
-2.1813074E-4
0.0048078247
0.0032231358
-0.0064246804
-0.010300735
-0.009339137
-0.009770113
-0.009205092
-0.008529263
-0.004135893
0.0040016877
0.010153629
0.016180784
0.022565015
0.025361588
0.020917773
0.010966162
0.0036561512
0.0018975068
0.003201668
0.0033924095
-2.0663667E-5
-0.0045689037
-0.007801181
-0.004875733
0.002578564
0.0052886982
0.004553971
0.002438024
6.4327364E-4
0.0054434016
0.010724262
0.009501238
0.0027867919
-0.006020189
-0.009396221
-0.007499628
-0.0016816898
0.004335129
6.242916E-4
-0.004544353
-0.0074249823
-0.016507251
-0.02161793
-0.016988115
-0.010142743
-0.0058570546
-0.005211247
-8.9451583E-4
0.0046164785
0.004316116
0.007138122
0.013123291
0.0141086085
0.014215532
0.016701406
0.017346982
0.0141556915
0.008924665
0.002319427
-0.004798641
-0.011733289
-0.01686036
-0.012831948
-0.0013471177
0.0060183136
0.007397267
0.007087223
0.0076286914
0.008097598
0.0058144885
4.4248803E-4
-0.0068699117
-0.010883648
-0.010594646
-0.00858971
-0.0040474394
-0.0043102372
-0.010600528
-0.014094237
-0.016645985
-0.019927785
-0.023173535
-0.022911733
-0.012088011
-4.0385028E-4
0.0036231477
0.0064496556
0.009459249
0.012189054
0.01481337
0.01378537
0.00731991
-6.491522E-4
-0.002984478
6.411235E-4
0.0075234943
0.01784906
0.026428431
0.028084274
0.02859082
0.030460991
0.025723664
0.02010725
0.023920137
0.027508292
0.022369178
0.005390683
-0.023056807
-0.04644968
-0.053359956
-0.045494914
-0.032829273
-0.027701663
-0.024877867
-0.019107042
-0.014089817
-0.008826641
-0.005547628
-0.0032282348
5.2730297E-4
0.0018789008
8.448417E-5
-0.0030967712
-8.8106707E-4
0.0064253914
0.009038457
0.00888406
0.007829007
0.005005752
0.0051110946
0.0073653124
0.009398229
0.01099434
0.013399082
0.01616596
0.016954858
0.015763775
0.0066660633
-0.004095524
-0.0013751516
0.004450827
0.0036540679
-4.3427144E-4
-0.010350417
-0.017694654
-0.011085079
-5.446626E-4
0.0012583956
0.0011506242
0.0047588544
0.0048266533
0.0021494816
-8.8566856E-4
-0.002523035
0.0032594872
0.00962337
0.008931319
0.0022434955
-0.006422165
-0.011639488
-0.016349982
-0.021089958
-0.023909334
-0.02273092
-0.011420669
6.983252E-4
0.0066944277
0.009844624
0.007352656
0.0051633315
0.0025678042
-0.0018714136
0.003450185
0.009222865
0.008799994
0.0112344315
0.0119613595
0.010554679
0.009732683
0.00780128
0.008803803
0.0076317913
-0.001532385
-0.008851542
-0.0059649497
0.0014469576
0.004764033
0.003956182
3.4203654E-4
-0.0053168815
-0.008473851
-0.009639002
-0.011657525
-0.011982009
-0.0111311
-0.0115493415
-0.009458759
-0.005384674
-0.004598374
-0.0034271262
4.33973E-4
0.0022486413
0.0019920368
0.002328712
0.0059031188
0.011856055
0.015505731
0.016864086
0.014778251
0.009474187
0.0062873727
0.0036154396
7.245211E-4
-6.2289415E-4
-0.003527401
-0.0054107816
-0.005123505
-0.005215482
-0.0017654866
0.004202366
0.007471223
0.0048728585
-0.0017568881
-2.1821246E-4
0.005914324
0.0016121799
-0.0049354495
-0.0059938314
-0.0070257755
-0.006710559
-0.006764992
-0.0089017
-0.007924913
-0.008262425
-0.013918484
-0.014936911
-0.0077261063
-9.5229084E-4
0.0033779345
0.0067519797
0.0046707457
-0.0026599534
-0.008346768
-0.00664392
0.0012605946
0.008573487
0.014464187
0.019152194
0.01754609
0.011298884
0.005741529
6.4019277E-4
-0.003296395
-0.0034298375
-1.4103368E-4
0.0057348744
0.010114516
0.006271986
-3.181939E-4
-0.001807424
-0.0046973466
-0.011458779
-0.015814872
-0.01523342
-0.007435943
0.0037404574
0.00988746
0.01298072
0.014611665
0.010097217
0.0023229031
-0.0040251096
-0.009156911
-0.01055351
-0.007743532
-0.0039493097
0.001085177
0.0054456503
0.00499477
0.0016824922
-0.0011995655
-0.0052345186
-0.010124883
-0.010847692
-0.008395277
-0.007176482
-0.0063749426
-0.0067882836
-0.008708333
-0.009717232
-0.011139127
-0.011652376
-0.007526839
0.0012343846
0.013263943
0.023586141
0.028196018
0.028158586
0.021964747
0.011309242
0.0026459543
-0.004874451
-0.010439498
-0.007627466
0.0017558731
0.01166059
0.015722713
0.011825177
0.008031174
0.0039018188
-0.0053607286
-0.012508639
-0.014403557
-0.013753961
-0.010640615
-0.0061695236
-0.0047039925
-0.008899144
-0.0096301865
-0.0055322214
-0.006589421
-0.00886108
-0.010167408
-0.009700398
-0.0017098074
0.0040958845
0.0051928842
0.00908582
0.011014388
0.010115164
0.007863722
0.0016147004
-0.0045133536
-0.0046952832
-7.0025295E-4
0.002447251
0.0073090172
0.013397606
0.012314391
0.005416868
-0.002264792
-0.008186364
-0.00832933
-0.0049300534
-0.0014935401
0.002119392
0.00406732
0.0032594833
0.0019311397
0.0015387615
6.735978E-4
-0.0017425268
-0.0050385147
-0.006791093
-0.004126974
0.001100109
0.0034827658
0.0019078229
0.0017689881
0.005012866
0.006820027
0.0039594993
-0.003212808
-0.006574622
-5.229385E-4
0.004577615
0.0026154048
-0.002422199
-0.0072474163
-0.009585399
-0.012125874
-0.012857223
-0.0078559015
-0.0035260818
0.0012505498
0.011308048
0.016053522
0.009858087
0.003819064
0.0022000377
0.0010556383
6.73703E-4
-0.0030061111
-0.0092500355
-0.008578706
-0.0023762377
0.0058231163
0.013449547
0.014039263
0.0112305395
0.008942316
0.004860114
0.0012010103
-5.759128E-4
-0.0030375498
-0.008504626
-0.013588604
-0.012975607
-0.0090159625
-0.0058215684
-0.0047771963
-0.0058225053
-0.006582134
-0.005354432
-0.0021538034
0.002791478
0.008681221
0.011306656
0.008009448
0.004185352
0.0028018742
9.087536E-5
-0.005210591
-0.009030312
-0.0063784514
4.8647865E-4
0.005066077
0.007229924
0.009505908
0.009836049
0.0065350123
0.0019114695
-0.0031454337
-0.0055563883
-0.001140381
0.003716968
0.0035091522
0.0023819522
0.001535839
-0.00130968
-0.0053494964
-0.00820207
-0.010432756
-0.009490823
-9.0725184E-4
0.006783251
0.0066997777
0.0036377443
3.791011E-4
-1.4079163E-5
-2.461259E-4
-0.0044787917
-0.006355539
-0.0065405113
-0.005771905
0.0020567898
0.009790696
0.009399121
0.004009622
-0.00157782
-0.003820304
-0.0047964016
-0.00783629
-0.010149663
-0.0068708574
0.0018451965
0.009592891
0.012718157
0.010537936
0.0027730023
-0.0036001673
-0.0039012325
-0.0041248514
-0.0044470197
0.0020051952
0.01070522
0.012720562
0.008588242
0.0025526765
-3.8520443E-6
-1.7530701E-4
-0.0038139035
-0.0061136377
-0.0063727186
-0.007879131
-0.0047174795
-8.0902677E-4
-3.262248E-4
0.0015209158
8.9694874E-4
-0.0016455904
-0.0040478613
-0.00917253
-0.008948444
-0.0028719192
3.3188675E-4
0.0032496562
0.0073122233
0.010332407
0.011871293
0.007879197
4.2849226E-4
-0.003022663
-0.004884006
-0.006458243
-0.001414028
0.0052028284
0.0069624223
0.006976944
0.0027085047
-0.0033958345
-0.0047849393
-0.006534594
-0.009769479
-0.010318146
-0.00794206
-0.0035203244
7.0187316E-4
0.0030199075
3.1279802E-4
-0.0056328517
-0.007335604
-0.006421952
-0.0052700914
-5.8202226E-5
0.0071811667
0.010449782
0.01142779
0.014422069
0.015291013
0.012822792
0.007516888
-0.003974677
-0.012021108
-0.008314932
0.0016597048
0.009896161
0.010118867
0.008052223
0.005306084
-0.0012885254
-0.0038701112
-0.008113841
-0.013285847
-0.006113727
3.0443835E-4
-0.0021546872
-0.005710551
-0.009070605
-0.0072839726
-0.0028067455
-0.0030111237
-0.0068528964
-0.008597703
-3.8487127E-4
0.00994925
0.011495
0.010154449
0.008452408
0.0057650674
0.0032817328
-0.0022260407
-0.008398019
-0.010083199
-0.008152146
-0.004132493
-1.7384671E-4
-1.5132577E-4
-0.0010831228
0.0014349688
0.0013267214
-0.0045307246
-0.009492813
-0.00965349
-0.005788354
-2.5826914E-4
0.0061317086
0.012008588
0.012683843
0.0074234796
9.713116E-4
-0.0010490483
-7.2125615E-5
-9.0155E-4
0.0011750006
0.0077088503
0.012826018
0.015624718
0.014614772
0.009358223
0.0036232942
-0.001687892
-0.0060236845
-0.0075222496
-0.0053121313
-0.0022111102
-0.0016433138
-0.0025015252
-0.005093303
-0.008944267
-0.011210236
-0.012584866
-0.01192492
-0.009390773
-0.0076167127
-0.0030289185
0.0033590987
0.0046245144
0.002506635
0.0011377751
-6.6543766E-4
-0.0040322817
-0.006391233
-0.005108039
-0.0019479679
0.0026392723
0.007977007
0.008713489
0.007525671
0.009610091
0.010057509
0.0069611054
0.0018215076
-0.004991426
-0.007935744
-0.004954461
1.3210311E-5
0.0044837836
0.008893904
0.013465503
0.013131204
0.0065828697
-0.0024415443
-0.010831288
-0.011473373
-0.005777742
-0.0014656447
0.003297948
0.008842283
0.010141733
0.0045814165
-0.0012546433
-9.726159E-4
-0.002360866
-0.005721343
-0.005624955
-0.0064548054
-0.006498604
-0.0050316155
-0.0051666284
-0.0042180717
-0.003304276
-0.005410333
-0.009786827
-0.009358142
-0.0020928483
0.0019464653
0.0033125887
0.006825664
0.009178442
0.008113028
0.0018847852
-0.0032672675
-0.0021253931
2.6921492E-5
0.0030234342
0.0067304852
0.007258952
0.0047580274
0.0033589394
0.0054862476
0.0049003125
7.60878E-4