0.0030448786
0.0023989675
0.0017675919
8.694225E-4
4.280336E-4
-2.6251208E-5
-2.3123284E-4
-7.099797E-4
-3.6312464E-5
9.59934E-4
-0.0013410695
-0.00293635
-0.0011038651
1.7214606E-4
-3.7727856E-5
-0.0018289848
-0.0043129507
-0.0037409698
-0.0022049742
-0.0023511394
-7.440802E-4
9.799807E-4
1.2404627E-4
1.2204511E-4
-2.083343E-4
-0.0018582338
-0.0013293781
1.7523425E-4
0.0011523576
0.001455606
8.6008204E-4
0.0010177841
0.001148349
0.0012952413
0.001888054
4.875237E-4
-0.0013086993
-8.989018E-4
9.3817513E-4
0.0024510545
0.002382707
0.0023855069
0.0021941632
5.065896E-4
-7.4358446E-5
-7.609023E-5
-0.0014264074
-0.0020269065
-9.165063E-4
1.5158292E-4
-6.753928E-4
-0.001532026
-2.3609056E-4
-2.1879988E-4
-0.002230678
-0.0024131287
-8.102875E-4
-2.1636335E-4
-8.919536E-4
-6.3322036E-4
-3.4586107E-4
-0.0017585766
-0.0015263873
4.3841655E-4
-9.8818775E-5
-0.0015252696
-4.795273E-4
0.0010564328
0.0012072152
0.0012940672
0.001768704
0.0022435545
0.0018930013
0.0013985534
0.0031226745
0.0030640182
-5.871297E-4
-0.0014193407
-3.0385266E-4
-1.2209169E-4
5.9013977E-4
-8.063172E-4
-0.0021022079
7.150304E-4
0.0023441643
8.2385854E-4
-7.195625E-5
-0.0010522221
-0.002687291
-0.0023052997
-7.7305816E-4
-3.5024772E-4
-1.9175812E-4
3.7683574E-5
1.07788845E-4
-4.8742993E-4
-0.0019324196
-0.0023107622
-0.0017510167
-6.9279544E-4
7.131035E-4
4.1427813E-4
1.8399405E-4
0.0015211729
0.0018084128
5.867961E-4
-2.9024927E-4
1.4980513E-4
-1.8863517E-4
-0.0013760205
-2.0783287E-4
0.0013904367
0.0016401291
0.002120798
0.0017187259
2.7194826E-4
-8.3726394E-5
0.0010175847
0.0016858655
0.0017341251
0.0024326236
0.0017934511
-1.4730869E-4
-4.146883E-4
-1.9105161E-4
-0.0016356573
-0.003091988
-0.0025185116
-0.0016205712
-0.0010649307
-2.0515075E-4
-0.0012124699
-0.0019776467
-6.139527E-4
-9.315794E-4
-0.002052956
-0.0017335766
-9.943515E-4
2.5075095E-5
9.76906E-4
0.0013281193
9.124077E-4
0.0011101617
0.0021003988
0.0011649579
-3.458713E-5
7.811932E-4
0.0012931211
4.5563083E-4
7.832105E-5
0.001221693
0.0013528625
-7.108366E-4
-0.002431902
-0.001865718
6.046065E-4
4.4429535E-4
-0.0017003347
-7.5934833E-4
-1.4807572E-4
-8.7518437E-4
-1.8742724E-4
5.309107E-4
0.0016129684
0.001775831
2.874668E-4
-4.311772E-4
-1.6948191E-4
6.545574E-4
3.456284E-4
-3.1352814E-4
7.399602E-4
0.0017044517
0.0020501285
0.0014774577
9.524282E-4
7.9455174E-4
-0.0016664853
-0.003591489
-0.002296571
4.536191E-4
0.0011835408
-0.0011923217
-8.879086E-4
-7.4284116E-4
-0.0047717276
-0.004723582
-0.0020209325
-0.0021732117
-0.0013183148
0.0013932138
0.0036042528
0.0032878756
8.7286404E-4
-5.5093155E-4
-1.227006E-4
0.0015093314
0.0028653087
0.0028245046
0.0014810136
4.369956E-4
8.7126816E-4
0.0011804906
0.0013896169
0.0014936527
8.8161445E-4
2.6217985E-4
-6.60686E-4
-3.0741107E-4
4.9293536E-4
-6.1796687E-4
-0.0012088696
-0.0011876186
-0.0012304728
-0.0016063751
-0.0033619208
-0.0035215311
-0.0025360219
-0.0027795092
-0.002525048
-0.0013042566
5.720128E-4
0.0018126587
0.0018255609
0.0020317817
0.0013194385
-4.124997E-4
-5.5432634E-4
0.0012165183
0.001724213
3.5866493E-4
9.5838535E-4
0.0022576542
0.0010034872
2.620698E-4
9.05105E-4
-2.8344276E-4
-0.00149178
2.1784204E-4
0.0019527402
0.0019126349
0.0014655528
0.0014905885
0.0022299672
-6.054838E-4
-0.0052967835
-0.003472106
-0.0011100234
-0.0027265598
-0.0011097888
0.0011193424
0.0010487413
0.001297749
2.8272212E-4
-7.8781805E-4
-0.0012933532
-0.0018937626
-8.4694254E-4
9.640972E-6
2.5155544E-4
5.635512E-5
-9.217104E-4
5.2611757E-4
0.0014796476
-3.0912735E-5
7.115583E-4
0.0012225038
-9.414539E-5
-5.9569207E-5
-1.3258417E-4
-4.7942862E-4
-1.2693737E-5
2.1451044E-4
-4.7471572E-4
-6.047351E-4
0.0016339844
0.0021146487
3.079195E-4
9.35723E-4
0.0010972801
1.2353059E-5
-3.1288556E-4
-0.0011011093
-1.51911345E-5
0.0014219936
9.148563E-4
3.5328552E-4
-0.0012219106
-7.8794284E-4
0.0016222852
8.9606154E-4
8.5941974E-5
-2.9379525E-4
-0.0012890679
2.9121335E-5
2.0220617E-4
-0.0014716333
-0.0011438113
-4.8541278E-4
-7.181096E-4
-7.0592697E-4
-5.4668816E-4
-7.6608424E-4
-5.2671006E-4
-4.1489958E-4
-0.0018859743
-0.0010939197
0.0010765569
-1.350354E-4
-5.515863E-4
1.9989748E-4
-0.0011174738
-0.0010767268
6.9310603E-4
0.0020019999
0.0018106957
8.1241224E-4
0.0019303114
0.0026829366
0.0016209172
0.0016855826
0.0011275965
-5.7317945E-4
-6.371876E-4
6.561046E-4
0.0011359837
-3.811377E-4
-0.0017383455
-0.0012111055
-3.5456353E-4
-4.9751636E-4
-0.0017289793
-0.001737323
3.7787846E-4
9.248519E-4
-4.7227915E-4
-0.0014361722
-0.0024795209
-0.0032155844
-0.002271856
-5.0046376E-4
4.288914E-4
3.3713807E-4
0.0018207916
0.0035639007
0.0019249798
6.829956E-4
0.0013666138
0.0011662007
0.0013654081
0.0018506465
0.0017620139
8.675117E-4
-2.4879436E-4
6.260194E-4
9.272072E-4
-8.384836E-4
-0.002205128
-0.0018026744
-8.793117E-4
-0.0024301573
-0.0024281053
-7.336113E-4
-0.001961843
-0.0016092298
-0.0017920185
-0.003378448
-0.0015789786
-0.0013091333
-5.429651E-4
0.0023558561
0.0022731586
0.0013458948
6.295627E-4
0.0015728152
0.0022449503
6.509E-4
0.0018751628
0.002857398
0.0023821758
0.0028239968
0.0027434602
0.0025910793
2.690558E-4
-4.8538484E-4
0.0012911074
9.42969E-4
0.0012176199
2.7694626E-4
-9.982614E-4
-0.0017266504
-0.002038955
-7.768699E-5
-0.008723409
-0.015724469
-0.004259902
0.0019083588
0.001033361
0.0025189344
2.5212197E-4
0.0012248014
0.0019774002
1.0006758E-4
0.0015714244
6.162479E-4
-5.414787E-4
9.52076E-4
0.0019508973
0.0013810622
-1.406796E-4
0.0016782535
0.003011098
0.0019918324
0.0020650188
8.2212343E-4
4.9671234E-4
4.33669E-4
-0.0015549308
-0.0019747657
-0.0016799498
-6.1389414E-4
2.7673593E-4
-4.0237023E-4
-1.1871854E-4
-6.2510755E-4
-0.002099636
-0.0020505998
-0.0012010526
-7.3704356E-4
-0.0010770553
-0.0010987095
-1.20601246E-4
0.0016125708
0.0020930562
7.4558886E-4
6.0263457E-4
7.1447976E-5
-4.8639296E-4
0.0011772182
6.794894E-4
-2.0297808E-5
0.002643639
0.0027219595
-3.803722E-5
3.103849E-4
5.412388E-4
-0.0025296886
-0.003134917
-0.0019764493
-0.0014303608
8.031031E-4
0.0010739501
0.0013412774
0.003160036
8.176107E-4
-5.286953E-4
2.5215934E-4
-8.306817E-4
-5.860149E-4
-9.1284286E-4
-0.0011948667
-3.1758088E-4
-0.0011316244
-1.612352E-4
5.8146217E-4
-4.5003727E-4
3.8865014E-4
4.620151E-4
6.617881E-4
7.094382E-4
-0.0010047685
-2.5262343E-4
9.933474E-4
0.0010177611
8.4706355E-4
-5.142188E-4
-9.038251E-4
-0.0016431974
-0.0026666215
-0.0010239072
-3.0118928E-4
-5.810922E-4
7.1419246E-4
0.0018721581
0.0023031936
9.3157485E-4
-0.0016850908
-0.0017396531
-5.9736605E-5
6.0644845E-5
-5.693402E-5
5.966501E-4
-0.0012284694
-0.004002742
-0.0022282442
9.3836256E-4
3.79502E-4
-4.8029373E-4
3.6091218E-4
5.440233E-4
8.620787E-4
0.0023714767
0.0037625642
0.0029987842
0.0012668251
0.001996005
0.0018717477
-4.231162E-4
4.0976063E-4
0.0025088498
0.0018424579
-2.1553432E-4
-0.0013131725
-0.0011561903
-8.9801464E-4
-5.365486E-4
-0.0015842377
-0.0021410552
-7.071913E-4
-0.0014850894
-1.20727185E-4
0.0027731424
0.0020751723
0.0025079455
-0.002813548
-0.011967217
-0.012053209
-0.010310364
-0.0044883853
0.0054517523
0.005105596
0.0036417781
0.0057808096
0.004082522
0.0034673088
0.0028670172
0.0013414357
9.0683927E-4
-0.0012447432
-0.0014734021
4.3670373E-4
9.3958457E-4
0.0014410787
0.001364859
0.0013784752
0.001780656
4.8181938E-4
-6.7632805E-5
6.4368115E-4
5.6698434E-5
4.1541495E-4
0.0017349883
-5.5950145E-6
-0.0022270908
-0.002023798
-0.0025516269
-0.002772233
-9.6992846E-4
-2.5844027E-4
-2.5943987E-4
6.191857E-4
0.0016223593
0.002739499
0.0031677885
0.0023405538
0.001279374
0.0010465734
4.369565E-5
-0.0030532468
-0.003544103
-0.0019186116
-0.002632298
-0.0019795417
-9.0149837E-4
-0.001892947
-0.001322523
-0.0013154967
-0.002110087
-0.0014934555
-0.00123339
-0.0012765124
-0.002255586
-0.0014256968
0.002454902
0.003459517
0.0019491029
0.0010325179
0.001114435
7.640189E-4
-3.215769E-4
0.0024479416
0.004707996
0.0033545233
0.0032604197
7.695237E-4
-0.0010837095
0.0017308472
0.0016915959
7.302218E-4
0.00159278
6.9623283E-4
-1.8049934E-4
-3.765309E-4
-0.0012529708
-0.0022950505
-0.0025725071
-0.0024563933
-0.002489608
-0.0013392534
-5.005856E-4
-7.300072E-4
-2.8114277E-4
-4.4477652E-4
-4.5075358E-4
4.094864E-5
-7.1337126E-4
-0.0011077108
-0.0017002344
-0.0019650708
-8.4621846E-5
1.8245881E-4
5.830857E-4
0.00339189
0.0022663479
-2.2063569E-4
8.7698805E-4
-9.6209704E-5
-0.0021921017
-0.0011590568
-3.5937066E-4
-1.723001E-5
4.891727E-4
-9.1350265E-4
-0.0018197472
-3.8409838E-4
8.6033717E-4
4.9991143E-4
-1.8774276E-4
4.357909E-4
0.001468053
0.0015994196
0.0015802071
0.0014133826
0.0017507822
0.0028030612
0.0015490105
-7.1515725E-4
-0.0010062415
-0.0015040559
-0.0016509357
-7.228858E-5
8.395779E-4
0.0013791742
0.0028060328
0.004259736
0.003326693
-0.0010024188
-0.0045928964
-0.0047096387
-0.002589959
-6.288103E-4
-9.3529426E-4
-0.0011981417
-3.2966066E-4
-9.175176E-4
-0.0020336981
-0.0015976069
-2.779431E-4
2.926185E-4
2.4522666E-4
8.610828E-7
-0.0010376363
-9.2732627E-4
2.5461137E-4
1.9474281E-4
3.752525E-4
3.7295904E-4
-0.0011495675
-0.0018427717
-2.1180547E-4
0.0027267681
0.0039987643
0.002841785
7.352506E-4
-0.0016338098
-0.0019906627
-0.0010821257
-0.0013897043
-0.0015308876
-4.160248E-4
0.0015574064
0.0014792586
-5.438309E-4
4.6998015E-4
0.0022414199
0.0014187131
2.5109953E-4
-0.0013660575
-0.0029514178
-0.0016085705
0.0013210744
0.0014465617
5.6921144E-4
0.0024989226
0.0039230324
0.0029937665
7.496753E-4
-9.504733E-4
8.2704274E-4
0.0013505408
-8.1277516E-4
2.9773792E-4
0.0029329013
0.0027961722
2.6389674E-4
-7.559701E-4
1.5859786E-4
-8.905507E-4
-0.0011104096
-1.7050334E-4
-0.0014849735
-0.001878459
-0.0015702059
-0.0025661178
-0.0029569361
-0.0022554481
-0.0010889935
-0.0012892472
-0.0028059545
-0.0034365125
-0.0026191946
-0.0011775031
-0.0016250968
-0.0023038152
1.4120393E-4
0.0015034144
-1.9779308E-4
-5.252453E-4
-6.0102964E-5
-6.9975783E-4
6.837747E-4
0.0032669764
0.00430042
0.0051510707
0.0050885924
0.0035706244
0.0025488758
0.0028674887
0.004824777
0.005476792
0.0014674
-0.00555014
-0.009753738
-0.006507867
-6.1678526E-4
0.0019796265
0.0022697812
0.0020437562
0.0012115166
-7.147983E-4
6.6087954E-4
0.0039332584
0.0012659035
-0.0015456242
-0.0019512204
-0.0055378852
-0.008485799
-0.009082534
-0.0058525596
8.368932E-4
0.0036377185
0.0052885236
0.007457977
0.005101469
8.47614E-4
-0.0022454923
-0.0035485157
-0.0034900832
-0.0031045466
-0.0020102107
-0.001816858
-5.2471657E-4
0.0038141778
0.006454508
0.00391365
-0.0012888811
-0.0014049324
0.0020488277
0.0023672113
0.0053520002
0.009022016
0.0063384036
0.0010188406
-0.0047521787
-0.00333181
-0.0011003764
-0.013248122
-0.016502667
-0.002770014
0.0032295464
0.0021270043
-0.0034275271
-0.005219625
0.0063778483
0.00759988
0.0026123798
0.0049926694
-0.0069275736
-0.017699437
-0.006560329
0.0012618103
-7.0091354E-4
3.272873E-4
0.0017240103
0.0021904376
0.004261147
0.0048583853
0.0026073835
0.0015881669
0.0025022028
0.0029007017
0.0029723062
0.004653245
0.0075854342
0.007946139
0.00687775
0.005823378
0.0025361453
0.0015618368
0.002509811
-7.972297E-4
-0.004448513
-0.005879257
-0.008257944
-0.0084402785
-0.003709892
0.0010131412
0.0053509856
0.010249715
0.00895624
0.0026743228
-0.0019067016
-0.0047380975
-0.0069684847
-0.00946898
-0.012456972
-0.018038744
-0.020643953
-0.013386634
-0.00791936
-0.005576262
-0.004817623
-0.014389194
-0.013136706
0.00730613
0.019545007
0.022967055
0.027368823
0.025704859
0.016185464
0.003931498
-0.004300723
-0.006207919
-0.006365247
-0.006697496
-0.0023625654
0.007617948
0.01283621
0.012534183
0.018998237
0.024379618
0.012503895
-4.894047E-4
0.0019485222
0.0053027654
0.0030153156
-0.004206175
-0.016944332
-0.021466058
-0.021962285
-0.02813494
-0.031699248
-0.03215265
-0.025734602
-0.014374196
-0.0071700783
0.0018327927
0.0045148614
-0.0014420046
0.0025415467
0.008762605
0.010388083
0.022682603
0.031572044
0.015239415
-0.00439838
-0.011958004
-0.017071
-0.006806428
0.015097627
0.021744698
0.021124821
0.023439018
0.021218183
0.023253115
0.03413559
0.030753937
0.006178577
-0.014994518
-0.02870775
-0.035694152
-0.029544989
-0.031671688
-0.03982804
-0.03245556
-0.0211772
-0.012998644
-0.008501336
-0.009175083
-0.00640654
-0.0020288858
4.8563015E-4
0.0066896756
0.023201564
0.0347872
0.02049182
0.004980037
0.0075052106
0.011436661
0.019163249
0.040897302
0.059418205
0.050724085
0.019118734
-0.016883573
-0.048711754
-0.068640634
-0.07433437
-0.0696665
-0.06673315
-0.073004134
-0.07688081
-0.08105642
-0.08945809
-0.08916046
-0.064940706
-0.015302952
0.01816665
0.028548976
0.057448577
0.085459694
0.08273837
0.060394075
0.032761965
0.019048005
0.023365945
0.03238607
0.029014183
0.014425443
0.009083775
-0.010142255
-0.055679142
-0.07728872
-0.04975669
0.0065254993
0.054094348
0.071376495
0.07100013
0.06740706
0.06807407
0.039277937
-0.03189387
-0.06474513
-0.040230878
-0.005162215
0.018842135
-0.0062956293
-0.042634383
-0.046512406
-0.069236085
-0.065838285
0.015300287
0.097274184
0.13051163
0.10909568
0.042066567
-0.04674835
-0.12980889
-0.17756261
-0.22203702
-0.2536611
-0.21354248
-0.15352766
-0.1244253
-0.10680663
-0.052853968
0.07745864
0.20681797
0.30360502
0.39317277
0.33622715
0.12330173
-0.033078246
-0.09079368
-0.1255751
-0.1389944
-0.08807609
0.0460393
0.17176561
0.23818749
0.27139276
0.22628173
0.13075978
0.03867354
-0.060954645
-0.0899324
-0.06846673
-0.11722442
-0.16385771
-0.11721582
-0.05157395
-0.04024618
-0.049224462
-0.06977779
-0.14051752
-0.19226308
-0.19208677
-0.19141857
-0.1494373
-0.06655363
-0.024216691
-0.04076226
-0.04713854
0.01976288
0.08642325
0.119927704
0.1684692
0.15168768
0.082793355
0.090356596
0.12530884
0.13476487
0.1639739
0.18539624
0.16890417
0.1355457
0.091582835
0.051168036
0.042129498
0.06291674
0.048144203
-0.058508724
-0.17114909
-0.18323997
-0.13645732
-0.11809511
-0.13049151
-0.11532445
-0.071471445
-0.041122563
-0.019877058
-0.023672448
-0.07900364
-0.13665228
-0.11335956
-0.0121789565
0.07073646
0.12931706
0.18082641
0.16231477
0.098636694
0.0152912
-0.06096213
-0.019268667
0.0714997
0.08324504
0.053756893
-0.0011383805
-0.07254233
-0.10378306
-0.11027846
-0.1141683
-0.07835629
-0.018145677
0.019771159
0.053789373
0.059790436
0.006555934
-0.027173547
-0.033003453
-0.061808012
-0.08091629
-0.07516615
-0.022793293
0.07996853
0.13017999
0.12232358
0.11678156
0.06839746
0.01696112
0.041487627
0.052377805
0.0077975816
0.006297557
0.03709985
0.014318369
-0.015289338
-0.006550771
-0.008950019
-0.01419202
-0.015344901
-0.019064961
0.006477826
0.0033119097
-0.03667998
-0.04428804
-0.070730396
-0.12088828
-0.12904014
-0.10578827
-0.077403314
-0.06782104
-0.0735207
-0.06921952
-0.033482883
0.028835472
0.046155386
0.017769398
-0.008697598
-0.04201712
-0.051314153
-0.027350754
-7.013343E-5
0.039540388
0.07631652
0.091925964
0.094463795
0.080851115
0.044402733
-8.000597E-4
-0.025932053
-0.028950755
-0.022753872
-0.016261868
-0.0019828458
0.021884162
0.021253018
0.019563384
0.03416294
0.014069743
-0.015312095
-0.023844521
-0.032848835
-0.038440112
-0.048189934
-0.050488517
-0.033425134
-0.022380985
-0.015469061
-0.009984811
-0.006898246
0.0046171458
0.01625328
0.022741087
0.026162218
0.027601685
0.029863166
0.03023219
0.027793963
0.02492562
0.025671534
0.024569955
0.014458925
0.004998285
0.0045315307
0.009353411
0.0077065323
-8.954896E-4
-0.0014512112
0.0036008146
0.0014114847
-0.009175679
-0.0226717
-0.032640744
-0.039119396
-0.048620075
-0.06246959
-0.0735325
-0.08036142
-0.0803511
-0.065636985
-0.04895868
-0.038012076
-0.024718488
-0.01201384
0.0036406892
0.022016969
0.03466653
0.0413542
0.035771135
0.025276301
0.024351472
0.028904218
0.03880467
0.05373535
0.06934934
0.086391866
0.09887161
0.100282624
0.09331682
0.081657305
0.06429583
0.047126636
0.037064385
0.027052522
0.014888975
0.0029538388
-0.011673129
-0.030459858
-0.050885152
-0.059883352
-0.056275878
-0.052490782
-0.049265526
-0.049692627
-0.04931812
-0.04147488
-0.038766913
-0.040482283
-0.040877223
-0.044061117
-0.041547254
-0.026794853
-0.0067797964
0.009077341
0.016251734
0.018128898
0.023136338
0.03103616
0.032225788
0.03349317
0.039142475
0.040245242
0.036600832
0.01855947
-0.0027920587
-0.002715802
-0.003700075
-0.013823406
-0.017626861
-0.020390773
-0.010696492
0.012044103
0.026205534
0.031985063
0.033769637
0.033804506
0.033259172
0.02885686
0.024645569
0.020668637
0.015736587
0.013809518
0.013454338
0.012463186
0.0115970615
0.011099623
0.010078144
0.0074248863
0.0018037814
-0.006534497
-0.014122245
-0.019221902
-0.02208634
-0.024997441
-0.028683478
-0.029718803
-0.030828057
-0.03391601
-0.034453653
-0.031015094
-0.024382843
-0.019477917
-0.01684815
-0.011218995
-0.0068052933
-0.004258887
-3.4594297E-4
0.0010726297
0.0023913032
0.0064980807
0.009924813
0.011685967
0.011994335
0.009579278
0.003945717
2.7981948E-4
0.0016615418
0.0021983432
-4.7797844E-4
-0.0016687084
0.003430954
0.0138674155
0.026233561
0.036864486
0.038867112
0.038919427
0.046087943
0.05043509
0.04959311
0.05052326
0.05219998
0.054320276
0.057450328
0.06228085
0.06686348
0.068666734
0.06889423
0.06287164
0.05148353
0.042079642
0.032913752
0.02366502
0.015192763
0.005021647
-0.005496979
-0.0145740835
-0.022400657
-0.030278575
-0.03782471
-0.04462698
-0.051939394
-0.05760556
-0.061488267
-0.06453952
-0.06717096
-0.07348426
-0.08125175
-0.089475416
-0.103045754
-0.11729299
-0.13056062
-0.14624822
-0.15839924
-0.16355425
-0.16062132
-0.14865729
-0.13263139
-0.1117489
-0.084831685
-0.05308724
-0.013254687
0.030643443
0.07500817
0.11985225
0.16220552
0.20379123
0.24391843
0.28029445
0.30676997
0.32343784
0.3411803
0.33314574
0.28918055
0.25915742
0.2549947
0.26422992
0.26880744
0.21860856
0.122940876
0.029323384
-0.056097314
-0.13838422
-0.22707714
-0.31555703
-0.3797676
-0.41401115
-0.4182805
-0.40265965
-0.37861836
-0.34840503
-0.32170942
-0.29480967
-0.25792497
-0.21243091
-0.1599016
-0.10721347
-0.05591155
-0.00396361
0.04411394
0.08850812
0.12663786
0.15543889
0.17832378
0.19633427
0.20959555
0.2161429
0.21546826
0.21128492
0.20365913
0.19247809
0.17713593
0.15621392
0.1342429
0.11230317
0.08402865
0.05138136
0.02482761
0.0065381927
-0.007827061
-0.0161677
-0.016247462
-0.01389885
-0.013237915
-0.014751887
-0.022560267
-0.03568559
-0.046865754
-0.056741573
-0.06833392
-0.07877204
-0.086707525
-0.093345225
-0.09818336
-0.099328555
-0.09751308
-0.09535894
-0.09158951
-0.08371496
-0.0723437
-0.05851703
-0.042428814
-0.0259415
-0.011867962
0.0017240384
0.015796443
0.025473705
0.031325176
0.036683768
0.04037851
0.043511394
0.04664499
0.048551656
0.04934623
0.047895946
0.04505823
0.041268244
0.036495745
0.032495778
0.026544794
0.020417346
0.019345459
0.019086186
0.017787168
0.01730051
0.014440258
0.008579265
0.0024378877
-0.0016648688
-0.0035754517
-0.0051282262
-0.0049993154
-0.0024785935
1.2160617E-4
0.002149102
0.0036146876
0.005268972
0.008035485
0.0101500265
0.010050655
0.009312832
0.01046283
0.012554066
0.013107524
0.013520022
0.015146876
0.016553575
0.017043078
0.016097613
0.01434639
0.01344575
0.013476829
0.014566265
0.015100308
0.013511281
0.011931916
0.009951268
0.0066802134
0.0047304765
0.003421342
0.001338749
8.833915E-4
0.002214502
0.0020986348
4.4365873E-4
-3.5992553E-4
-5.758701E-4
-5.5778146E-6
3.962136E-4
-0.0022206604
-0.004176915
-0.0042689773
-0.005415938
-0.0030711999
0.0016419938
0.0014165536
-0.0019332753
-0.0031301482
-0.0014973171
-0.0017942511
-0.0038028876
-0.003099118
-0.0040305215
-0.0055634035
-0.0032748345
-0.002106573
-0.0016535384
-0.0016694122
-0.0044848425
-0.0050315806
-0.0032947618
-0.0015948224
8.1074744E-4
0.0021141632
0.0023099931
0.0015660785
9.726871E-4
0.001743651
0.0013405071
-3.0286852E-4
-0.0019621048
-0.0023001428
-8.439111E-4
-2.4071927E-4
-1.4507883E-4
-4.8602196E-5
-4.5993144E-7
6.764258E-4
-2.1624149E-4
-0.0018811087
-0.003436906
-0.0044500753
-0.002004313
2.5613923E-4
-4.1339823E-4
-0.0015432722
-0.0026674706
-0.002204996
-0.0016962327
-0.004063956
-0.005229657
-0.003376652
-0.0029466872
-0.0038260086
-0.0026795252
-0.0016791649
-0.0013927976
-3.219918E-4
-0.0012393534
-0.0031523868
-0.004288911
-0.004417222
-0.0022372357
-0.0014929649
-0.0013803166
2.9588485E-4
-0.0011778475
-0.0025321841
-8.8637555E-4
-6.430541E-4
-0.0010754159
-7.9910085E-4
-3.7929253E-4
-7.0064113E-4
-0.0011913063
4.7584894E-5
1.2973756E-4
-7.0994E-4
-1.898807E-4
-0.0015248294
-0.0031826352
-0.0024790831
-0.0021215237
-0.0015448201
2.7924118E-4
5.041874E-4
-0.001100999
-0.0018668873
-0.0021300085
-0.0037389847
-0.0048854495
-0.0042336225
-0.0038409617
-0.0036277706
-0.0028753493
-0.002342157
-0.0013982712
-0.0013677815
-0.0029509554
-0.00338816
-0.0035657587
-0.0037522037
-0.0018945009
-4.2394275E-4
-5.725889E-4
-0.0010698545
-0.0012532646
-9.4869576E-4
-0.0015136043
-0.0014830173
-5.325534E-4
-3.974718E-4
0.0018371699
0.00482834
0.004006198
0.0012597347
2.6303998E-4
6.7603093E-4
-0.0013482034
-0.0035444894
-0.0030120777
-0.005196496
-0.0063619814
-0.0017844383
3.720255E-4
-5.0347147E-4
-7.8577816E-4
-0.0014551283
-0.0012615534
-0.0022144204
-0.0035653259
-0.0023326632
-0.0029070964
-0.004235385
-0.00250545
-0.0012571616
-0.0013261822
-0.0011099711
-0.0011798138
-0.00116361
-3.3978804E-4
5.6308403E-4
4.3773148E-4
5.1546894E-4
3.8475337E-4
-5.487995E-4
5.2656524E-4
7.574262E-4
-9.576356E-4
-5.489914E-4
-0.0010042458
-0.0017963772
-5.771226E-4
-6.553981E-4
-1.7129623E-4
3.1674933E-4
-6.4799073E-4
-7.1061316E-7
-4.1611516E-4
-0.0021800075
-0.0038678271
-0.005653913
-0.003931783
-0.0013091307
-7.169205E-4
-7.9528714E-4
-0.0016714722
-9.040719E-4
-0.001021765
-0.0033866626
-0.0027264452
-0.0013033819
-0.0016581772
-0.0019097165
-7.9978333E-4
9.2719204E-4
-9.0568945E-5
-9.032596E-4
-4.2337837E-4
-0.0016977008
-0.0011465907
4.6259203E-4
0.0013304534
0.0026198335
0.001707424
6.5515004E-4
6.27205E-4
2.4586226E-4
1.0570027E-4
-0.002411931
-0.003971792
-0.0017859397
-6.673795E-4
-1.2539365E-4
2.096616E-5
-9.3234115E-4
-7.308919E-4
-4.2375558E-4
3.486297E-4
8.3570037E-4
-0.001139785
-0.0022837487
-0.0019154421
-0.0019964036
-0.0010518362
1.9473025E-4
-4.214168E-4
-0.0012034059
-0.0011493473
-9.858457E-4
-6.117119E-4
-0.0025991134
-0.0046984274
-0.0019581465
-2.0696475E-4
-4.0087925E-4
9.024076E-4
-0.0020328453
-0.00550957
-0.0031151876
-5.4686756E-5
0.0012820556
6.440697E-4
-0.0010935118
-0.001289479
-0.0011656046
-3.105423E-4
5.7707616E-4
1.5386111E-4
4.0597885E-4
2.68115E-4
-1.8700093E-4
3.2105256E-4
2.4993517E-4
4.650027E-5
-8.924814E-5
-1.0678308E-4
7.886569E-4
0.0011494894
7.0953026E-4
1.3374105E-5
-8.7378954E-4
-9.437901E-4
-7.956822E-4
-8.96475E-4
6.277224E-5
8.853015E-4
-2.6750678E-4
-0.001517257
-0.0016229379
-0.001768249
-0.0015746705
-0.0014250082
-0.0019860007
-0.0018647898
-0.00131093
-5.0097285E-4
9.4854084E-5
-6.801469E-4
-4.7012154E-4
-2.0693633E-4
-0.0013642155
-3.9607027E-4
7.819555E-4
3.5560966E-5
-5.2933407E-4
-0.0010689098
-4.1049163E-5
1.4393536E-5
-0.0033106508
-0.0029373828
1.8287243E-4
7.0677494E-4
0.0014383072
0.0015008919
1.972428E-4
3.5962174E-4
4.8792473E-4
-2.5490313E-4
-0.00133285
-0.002324559
-0.0018189293
-0.0011360113
-0.001255492
-1.6365643E-4
0.0018770456
0.0017617996
-1.6605447E-5
1.2763063E-4
7.255629E-4
-1.5789304E-4
-8.438112E-4
-0.0017429842
-0.0015446179
-8.389412E-4
-0.002973957
-0.003321024
-0.0014961754
-0.002049445
-0.0014742899
-1.3282249E-4
-2.0086557E-4
3.528489E-4
1.9870307E-4
-1.1659276E-5
5.87185E-4
6.860164E-4
4.9068884E-4
-4.0884266E-4
-0.0010393348
-0.0014519038
-0.0012286671
2.9863458E-4
3.4052055E-4
9.763681E-4
0.0027577467
0.0019118449
6.949684E-4
0.0017217477
0.0024404335
-1.6914918E-4
-0.0012966782
7.459465E-4
7.644287E-4
0.0016873197
0.001740276
4.5175522E-4
-0.002384739
-0.01178314
-0.0074995826
0.006432289
0.0055263923
0.0036321331
-0.004536463
-0.012056331
0.0017814229
-0.002205018
-0.014074192
-1.7487719E-4
0.005099676
0.0038035985
0.004579246
-0.009366665
-0.011473768
0.0019138074
0.005838488
0.004455466
0.0033082082
0.0022794006
0.0016679359
9.783496E-4
0.0018066748
0.0022297972
0.0018154697
0.0012059964
6.463994E-4
0.0011250842
0.0016845791
0.0017266897
8.7326317E-4
-6.6098373E-4
-0.0023831318
-0.0028948304
-0.0010106205
-2.3012847E-4
-0.0013374357
-0.0012905108
-4.992946E-4
-8.897599E-4
-0.0024101022
-0.003203746
-0.0028154019
-0.0011070969
4.4784395E-4
-7.011992E-4
-0.0012264625
-4.094316E-4
-4.911721E-4
5.551042E-4
0.0010224278
-3.0378418E-4
-8.128011E-4
-3.4156663E-4
2.7694748E-4
-9.556276E-5
7.8034485E-5
9.732816E-4
-1.2931516E-4
-8.4093044E-4
-6.8103836E-4
-8.074486E-4
1.0245169E-4
5.0959392E-5
1.6536137E-4
9.207484E-4
-7.764382E-4
-0.001117073
3.1176544E-4
-2.9852113E-4
-1.3796033E-4
4.181123E-4
-6.616892E-5
0.001360683
0.0023597016
0.0011719586
3.6463566E-4
-4.2791598E-4
-2.3098158E-4
0.001183006
5.875767E-4
-3.4254612E-4
-3.2230752E-4
-7.0052524E-4
1.3138785E-4
-2.4442837E-5
-0.0017739681
-6.5362337E-4
4.3922753E-4
-4.708159E-4
-1.4590601E-4
-3.9166765E-4
-0.0016345554
-0.0021004265
-0.0019997612
-6.124389E-4
3.2141124E-4
-3.817228E-4
-0.0013088281
-0.00224963
-0.002032016
-0.0011977938
-5.626133E-4
6.720233E-4
2.6694848E-4
-6.776517E-4
7.9914124E-4
0.0018108962
0.0010985337
3.1084378E-4
-4.0015767E-4
-5.5285414E-5
0.0012117208
0.0012496233
9.132778E-4
0.0013490969
6.7136786E-4
6.53343E-4
0.0024078125
0.0017855035
-6.361829E-4
-0.0023844512
-0.002660893
-5.232065E-4
2.6717177E-4
-6.126795E-4
-3.3628658E-5
-2.663113E-4
-9.819968E-4
-0.0010865391
-0.0020775401
-0.0020591589
-0.0010325649
-8.316856E-4
1.473011E-4
0.002118724
0.0022035968
5.801375E-4
-8.0004014E-5
-6.206742E-4
-0.0014959105
-0.0010291863
-9.0123525E-5
-9.215125E-5
-8.012614E-4
-6.6515076E-4
-3.852943E-4
-0.001188374
-4.626811E-5
0.0016593928
2.5761855E-4
-0.0011657844
-5.9456995E-4
1.6397658E-5
-1.4742599E-4
3.511231E-4
0.0013412572
6.442319E-4
1.0589892E-4
7.751847E-4
3.7519555E-4
-1.7997451E-4
2.6954655E-4
7.356966E-4
3.3521673E-4
-8.69473E-5
9.3261956E-4
0.0014221467
-4.4001103E-5
-9.916689E-4
-0.0011781813