0.0070440904
0.0066435975
0.007186168
0.0058212043
6.9888413E-4
-0.008301918
-0.017185347
-0.013758556
-0.003688762
0.0054850425
0.013745503
0.013891745
0.0101568755
0.0057737804
-0.001139536
-0.006318723
-0.012730743
-0.01433735
-0.004808935
0.005159331
0.010000771
0.009507477
0.006976351
0.0054728854
0.0015874854
-0.0070081106
-0.018802872
-0.019802077
-0.006206469
0.005595139
0.0120312935
0.013290832
0.009167628
0.0058507104
4.126101E-4
-0.007876026
-0.013789228
-0.013470254
-0.005748675
0.0024514378
0.0066511855
0.0071829404
0.006513254
0.0067609954
0.0029959902
-0.0050796815
-0.011674827
-0.010997144
-9.696402E-4
0.009518374
0.01374706
0.012660005
0.0078102625
0.002803007
-0.0011925015
-0.0067286254
-0.013142598
-0.013656162
-0.0058083995
0.0032170804
0.0075786915
0.0066913194
0.005066466
0.003124136
-0.003156985
-0.009316854
-0.013616423
-0.013214353
-0.0028656318
0.0075885616
0.013027146
0.014740272
0.010319464
0.005807346
0.0015735128
-0.0057539474
-0.011807843
-0.013556217
-0.0076219174
0.0015240085
0.0055782753
0.0066780583
0.0073926016
0.008589606
0.006955073
-0.0030258868
-0.014185019
-0.016010767
-0.0077290684
0.003581788
0.009520307
0.009810811
0.008324685
0.0049280287
-6.250002E-4
-0.0070474814
-0.013900867
-0.016037956
-0.006850529
0.0052964217
0.0088058505
0.008694426
0.009971487
0.009039745
0.0048094466
-0.004042574
-0.013998332
-0.01483362
-0.0066446913
0.003827473
0.011967057
0.013171276
0.009816656
0.005734738
2.6678154E-4
-0.004897622
-0.009834676
-0.012688325
-0.007714089
0.0014466591
0.006508102
0.006986921
0.006831709
0.0057269908
0.0021246579
-0.0044541247
-0.014760215
-0.01851667
-0.008358001
0.0038219227
0.010583378
0.012794927
0.010482009
0.007112233
0.0027425764
-0.0044974014
-0.012090578
-0.013906522
-0.006687715
0.0018503497
0.0058713513
0.00722872
0.006644864
0.0056481143
0.0032732666
-0.0036094896
-0.011876443
-0.015109386
-0.010150457
0.0016546665
0.0138181895
0.016621504
0.009890707
0.003944863
0.0016592896
-0.0026113575
-0.010214489
-0.0146966
-0.010532642
-0.0013767378
0.0060480945
0.008688905
0.00849558
0.0087185465
0.006124502
-0.0026040808
-0.01154211
-0.013157139
-0.0069970256
0.002957719
0.01099517
0.012814752
0.010480232
0.0066648168
7.4341806E-4
-0.007610572
-0.015174449
-0.015395854
-0.008969787
-3.925279E-4
0.0064929714
0.0052708047
0.0044974927
0.009168684
0.004170285
-0.0064685596
-0.011482509
-0.01341865
-0.00820187
0.0018712647
0.009119926
0.013245597
0.010782899
0.0049124546
0.0015534823
-0.0032374337
-0.009544596
-0.0116464095
-0.006808255
0.0019184249
0.008166768
0.009279384
0.0075273826
0.0060995757
0.0037734136
-0.0033432979
-0.012384412
-0.014312277
-0.007395529
0.0015752246
0.009516159
0.013465892
0.01075989
0.006541073
0.0020748493
-0.004264684
-0.0105059445
-0.014761376
-0.010539875
2.7283095E-4
0.0057638017
0.0067540524
0.0080034
0.007547091
0.0038636776
-0.0036041436
-0.012493832
-0.016877724
-0.01025594
0.00274162
0.009694409
0.011212249
0.010427367
0.0067203306
0.0024516105
-0.0045783143
-0.01199468
-0.01471873
-0.011539167
-6.7273533E-4
0.0077322093
0.008399968
0.009813813
0.009259452
0.005034055
-4.814197E-4
-0.009891698
-0.015795663
-0.009822146
0.0031003526
0.011503916
0.012227868
0.010968189
0.0067993705
8.725104E-4
-0.0033258596
-0.009623346
-0.014409937
-0.011804992
-0.0038006734
0.0042296094
0.0070187342
0.00761697
0.0077614184
0.0049314545
4.511693E-5
-0.0086669335
-0.014295519
-0.008373404
0.0011046915
0.0088701965
0.013570844
0.012130907
0.008813355
0.004114235
-0.0039861817
-0.011006892
-0.015083737
-0.013737619
-0.0033227836
0.006788345
0.007642878
0.0063611395
0.0054968
0.0014528679
-0.0034322522
-0.01104601
-0.017402159
-0.012114499
-3.8288368E-4
0.008713463
0.012925123
0.012599047
0.0100004785
0.0048889825
-0.0012734751
-0.007869511
-0.01327315
-0.009509473
-1.852466E-4
0.0055998038
0.008349911
0.008205477
0.0065798135
0.005447421
8.1143907E-4
-0.009068421
-0.016099755
-0.011890145
-0.0016757565
0.0071425424
0.012725112
0.011540804
0.006919987
0.0040756357
-8.7264285E-4
-0.008787685
-0.01340585
-0.010102638
-9.792582E-4
0.0054597156
0.0050487625
0.0043642544
0.006113693
0.0051771775
2.7524366E-4
-0.0085201785
-0.014938743
-0.010461625
-0.0013776723
0.0063220565
0.010473543
0.008048191
0.0064178975
0.0061245235
-6.253459E-4
-0.010043383
-0.014826835
-0.0117383385
-0.003300246
0.00326838
0.005489759
0.0067422832
0.008490807
0.0067800377
7.114248E-4
-0.0068483553
-0.012652928
-0.010290851
-6.7622855E-4
0.0072359666
0.010357641
0.011508754
0.010835981
0.0052898386
-0.0027077575
-0.009372534
-0.013732477
-0.011170619
-0.0025094994
0.004139468
0.006220867
0.0066596563
0.0071179965
0.0063691055
0.001527315
-0.007926306
-0.013727828
-0.010158885
-0.0020808112
0.007519352
0.012680163
0.010329205
0.007591912
0.0033421204
-0.0029697884
-0.008652696
-0.014329438
-0.012445608
-0.0032478375
0.004345778
0.008214664
0.007289814
0.006083098
0.0066232476
7.8503444E-4
-0.011127495
-0.017241832
-0.012102198
-0.0029486541
0.0056942883
0.012444809
0.013547967
0.010525046
0.0044896803
-0.0022468204
-0.007460126
-0.013334142
-0.013343307
-0.0046660984
0.0040819054
0.008072962
0.00801358
0.00812981
0.0071184197
0.0012517233
-0.00705088
-0.013742357
-0.011200194
-0.0019691074
0.005184012
0.011497753
0.012590283
0.008402171
0.005793824
6.172392E-4
-0.006534753
-0.011934009
-0.0137537755
-0.0063323397
0.004099309
0.0080908155
0.0079487255
0.006928626
0.0045338855
-4.524839E-4
-0.007901372
-0.014592695
-0.01294137
-0.0029875394
0.0037983803
0.0063626203
0.008247208
0.0066443416
0.0047327885
0.002095735
-0.0053679664
-0.012040664
-0.012209321
-0.004530346
0.0055444185
0.008279731
0.006662079
0.0077436254
0.0076373187
0.002420724
-0.00538378
-0.011574157
-0.012162787
-0.0056751664
0.005490099
0.014765753
0.015428163
0.010050832
0.004971711
-6.079531E-4
-0.008116411
-0.014794374
-0.015385125
-0.007209696
0.002204935
0.0059914715
0.0060328855
0.0045342115
0.0035531328
0.0018551707
-0.0049456446
-0.012086306
-0.011547038
-0.004367865
0.004022965
0.009577383
0.011521347
0.010791039
0.0066408487
2.3053908E-4
-0.0061527784
-0.011653016
-0.011526393
-0.004346373
0.003911156
0.010064361
0.01092842
0.006731834
0.005661795
0.005606527
-0.0020606902
-0.0124680605
-0.015718725
-0.010444016
-2.672301E-4
0.009183968
0.010460509
0.0052782004
0.0026987395
8.9761935E-4
-0.005943704
-0.013138508
-0.013152567
-0.0054116226
0.0038138756
0.008144959
0.0073915627
0.0070093484
0.007710165
0.003104779
-0.005973169
-0.0130275795
-0.013273534
-0.003367905
0.008803833
0.013071764
0.012742599
0.0115749715
0.007460465
-3.3843232E-4
-0.01099297
-0.020307655
-0.02181839
-0.013737355
-0.0014449143
0.0065615475
0.0072957906
0.005848347
0.0057233293
0.0043053175
-0.0014903015
-0.008876907
-0.008795522
-9.705736E-4
0.0059462935
0.011030862
0.012623399
0.008717356
0.007968461
0.008593632
0.0025093816
-0.0030466986
-0.006096279
-0.00837867
-0.0024619773
0.0050490294
0.0050300136
0.0015704046
-0.003870616
-0.007017376
-0.008883657
-0.014489909
-0.011785207
-6.235385E-5
0.007841995
0.01222722
0.0118646985
0.006514235
0.0015097335
-0.004144372
-0.010072168
-0.014802012
-0.016378192
-0.010112113
0.001573388
0.010935625
0.015063574
0.016882747
0.017425198
0.013956211
0.004680548
-0.008762813
-0.017803337
-0.014627285
-0.003983469
0.0034344634
0.0040009855
5.427765E-4
-0.0030333542
-0.0050028795
-0.011271126
-0.01980162
-0.01882169
-0.0108150765
2.8236894E-4
0.009703735
0.012943991
0.02179289
0.023294965
0.0052544703
-0.0049840123
-0.0071269986
-0.009546992
-1.4863857E-4
0.0081609255
0.009728781
0.012913454
0.012227774
0.010186374
0.0058609047
-0.0032351876
-0.0072047412
-0.0050333114
-7.2885293E-4
9.81357E-4
-0.0030772912
-0.005898567
-0.005267694
-0.0036997385
-0.00644734
-0.019002527
-0.028018994
-0.0218458
-0.00882318
0.0024071324
0.009136126
0.014734311
0.019702194
0.017099217
0.008710409
0.0013788369
-4.890594E-4
0.0021480392
0.0037338913
0.004196472
0.0011883233
-0.0024625468
9.0004597E-4
0.0022936456
-0.0033657183
-0.011009388
-0.01454112
-0.005432346
0.0074898317
0.013965441
0.016258784
0.012866103
0.0051514194
-0.0041850535
-0.012169625
-0.017632704
-0.021354401
-0.017299285
-0.008984642
-5.9010385E-4
0.0073313033
0.008290722
0.0096164495
0.010962137
0.0028606567
-0.007016172
-0.013710087
-0.013166292
-0.0029365087
0.009445077
0.017883936
0.018664487
0.014530565
0.006777934
-0.0014128039
-0.003681717
-0.0056677996
-0.005997775
-9.951299E-4
0.003990765
0.006003733
0.0049832673
0.0072255973
0.0046816804
-0.007902217
-0.014465662
-0.013850326
-0.0016212261
0.015460922
0.011721528
-0.0017765703
-0.01464347
-0.023111714
-0.01031527
0.006853279
0.010566217
0.006666466
-2.685483E-5
-3.6014538E-4
0.005398462
0.0105757285
0.011462567
0.003203128
-0.007940508
-0.017643314
-0.025376072
-0.018467812
0.0052194702
0.027830921
0.04130881
0.0461964
0.033012938
0.011438548
0.004833566
0.0022898559
-0.0058376933
-0.0068581156
-0.008872765
-0.010463388
0.001488303
0.009406649
0.007937203
0.0020531951
-0.012223001
-0.022545414
-0.040479764
-0.07313258
-0.076772384
-0.047895987
-0.027698256
-0.019160181
-0.010056269
0.0015557177
0.022325935
0.033205125
0.012603535
-0.006937726
-0.006011681
-0.001567797
0.012041122
0.04272594
0.091461875
0.12597552
0.09437403
0.03960396
0.023376768
0.027701149
0.03581461
0.04435864
0.048566744
0.05205587
0.050885007
0.03303982
-0.016109161
-0.07609059
-0.09202031
-0.05394737
-0.03991283
-0.08873305
-0.10807342
-0.08240149
-0.07134822
-0.048585244
-0.045534592
-0.07461924
-0.068448775
-0.06913503
-0.076073974
-0.036028076
0.014550929
0.055283345
0.06692254
0.054550223
0.036490455
-0.014421646
-0.05640945
-0.05815225
-0.016924381
0.06470317
0.09953735
0.11093223
0.14408885
0.112002626
0.06167197
0.07475157
0.08512157
0.07028848
0.07419036
0.06433494
-0.0010117783
-0.048520677
-0.05617635
-0.070553645
-0.044565886
-0.011059306
-0.043061364
-0.07585825
-0.065703556
-0.042128265
-0.04414698
-0.035827007
0.027547332
0.04058366
-0.031526558
-0.10518947
-0.15537515
-0.14788999
-0.081572756
-0.0021724883
0.071188524
0.11328609
0.12063932
0.080972284
-0.007709408
-0.070769005
-0.0684309
-0.022324625
0.05129964
0.11260214
0.10915689
0.06475816
0.038413007
0.020018289
-0.008837617
-0.044033587
-0.08278287
-0.10185869
-0.0899833
-0.041896015
0.016064426
0.038846333
0.05219237
0.058914002
0.040658098
0.027111916
0.010980884
-0.004089405
0.004391696
0.01402725
0.017677303
0.016891362
0.00802552
-0.0023110753
-0.00720696
6.0019498E-5
4.1493506E-4
-0.012626252
-0.01171927
0.00282079
0.012724004
0.011513852
0.003894789
-2.9284923E-4
-0.005895942
-0.020362576
-0.03815075
-0.05181825
-0.057987474
-0.053845737
-0.03835298
-0.018171443
-1.4847216E-4
0.019283945
0.039605737
0.047504112
0.038280427
0.01861859
-0.0069193994
-0.023297647
-0.014006463
0.012787314
0.038219273
0.04309222
0.024765888
0.013809554
0.017286621
0.007947845
-0.009741442
-0.013765054
-0.0019425362
0.010113481
-0.0022195117
-0.02892052
-0.036789365
-0.029438261
-0.028626183
-0.036943596
-0.03151203
3.698709E-4
0.03193952
0.048589807
0.059433166
0.056427475
0.030817319
-0.0026313371
-0.019782038
-0.018757232
-0.0130131915
0.0017788071
0.025084073
0.036988724
0.03247934
0.02185002
0.009265547
-0.0028182787
-0.010445004
-0.015580946
-0.018803647
-0.019918961
-0.021971822
-0.017350635
-0.008992857
-0.015172578
-0.026965365
-0.03336413
-0.042417023
-0.043983817
-0.032692105
-0.023817476
-0.020611677
-0.017456496
-0.006036794
0.011087349
0.014388375
0.0067661298
0.001931271
-0.004628095
-0.010505583
-0.007470687
0.0037383498
0.01885893
0.031354997
0.038425274
0.038069014
0.028222663
0.018514907
0.020416446
0.031105075
0.041859973
0.055795297
0.069872335
0.052878596
0.0060932925
-0.010946618
0.00572218
0.0079501225
0.016932586
0.03958508
0.017947227
-0.032569528
-0.061438378
-0.07523124
-0.093065925
-0.10604161
-0.07259553
-0.020310827
-0.030998867
-0.06849202
-0.071793646
-0.066838734
-0.06579214
-0.053122606
-0.023938313
0.0062508737
0.0179791
0.020690067
0.023223884
0.027376365
0.037612293
0.050645255
0.058693994
0.056131646
0.05659123
0.05357642
0.030623225
0.022800704
0.03812117
0.050628234
0.06609305
0.07507054
0.067564026
0.055795833
0.044179212
0.0327341
0.009355223
-0.023945473
-0.04902933
-0.060978483
-0.047802377
-0.017591216
-0.0025195736
-0.008035826
-0.023152476
-0.039538763
-0.054484397
-0.06847051
-0.07832748
-0.08400984
-0.08184602
-0.06877459
-0.055672135
-0.052087847
-0.051032268
-0.03997816
-0.022507373
-0.0067388173
0.008668669
0.020365883
0.030270739
0.046798218
0.06115977
0.058962844
0.043845598
0.031102363
0.018071149
0.008017255
0.052647784
0.14557107
0.1768631
0.11968543
0.05370261
0.010533772
-0.009597092
-0.010301203
-0.023097243
-0.04110941
-0.048881434
-0.05875877
-0.054770783
-0.051046368
-0.041364882
0.033377264
0.08272691
0.029174924
-0.014865437
-0.02735371
-0.05112812
-0.057097908
-0.05827252
-0.055683613
-0.0436409
-0.042243373
-0.035618655
-0.032915168
-0.027997294
4.9710274E-5
0.0155264335
2.3482255E-4
-0.02910325
-0.026974775
-0.008817905
-0.020268785
0.027074272
0.10145425
0.07660184
0.033868544
0.0055313637
-0.043263443
-0.044297647
-0.0018014982
0.047985695
0.08995113
0.09729241
0.09475819
0.08822394
0.06295984
0.030561404
0.0011035021
-0.011744098
-0.014221816
-0.018535646
-0.02840671
-0.047182016
-0.061016515
-0.06534573
-0.058802243
-0.044436708
-0.036834646
-0.029294582
-0.020264862
-0.0142479325
-0.008861565
-0.005429892
0.0010666763
0.0025959641
-7.6380064E-4
0.00298999
0.006456415
0.010868695
0.017699165
0.021856464
0.021665452
0.011573193
0.0014952093
-0.0053655263
-0.015070174
-0.02083179
-0.022904066
-0.020616645
-0.01489492
-0.009661634
-0.0026278212
0.0015174845
0.0024471967
2.9885236E-4
-0.0025060554
0.0014096979
0.004850789
0.011194556
0.026591463
0.040178575
0.046372995
0.040189557
0.025825573
0.013483619
0.0017963471
-0.0021968617
0.0067643346
0.02141452
0.031491663
0.024604049
0.0066283513
-0.0036217642
-0.0033865715
-0.011426447
-0.040083937
-0.06410985
-0.06026919
-0.039561074
-0.015056957
0.0027017046
0.00453182
-0.004049221
-0.013036332
-0.017490901
-0.017915484
-0.012229519
0.0033279145
0.016845291
0.016097497
0.0071477625
-0.007108442
-0.023039447
-0.022336647
-0.008028541
-0.0038048811
-0.0073416717
-0.002515686
0.009837224
0.021107296
0.027026346
0.029547844
0.03002898
0.026123334
0.02033073
0.01448284
0.004202054
-0.005704043
-0.0028569556
0.008319882
0.015724953
0.021110235
0.02227381
0.015233338
0.009624475
0.0016329014
-0.012525518
-0.013321358
-0.0054784394
-0.009458926
-0.013902656
-0.011599328
-0.015370239
-0.02400856
-0.030152185
-0.033739142
-0.03213046
-0.022851521
-0.011958208
-0.0060337936
-0.0029275238
0.0014511172
0.006362988
0.008320576
0.0052633267
-0.0012998257
-0.0058582984
-2.69497E-4
0.013054481
0.022484228
0.026504662
0.028407838
0.028901713
0.025522776
0.013661304
0.0018221235
-0.0027944662
-0.0052836863
-0.0036731788
0.0012868679
0.0051437933
0.008259054
0.0070399405
0.004254707
-3.572772E-4
-0.012717107
-0.02074372
-0.01741689
-0.008978298
0.0026830253
0.0091473805
0.0073548025
0.004224075
8.67187E-4
-0.0012658181
-0.005195906
-0.011964973
-0.011537239
-0.004487016
0.0028391997
0.009573607
0.012972175
0.014319316
0.013669712
0.008010122
-0.0011551068
-0.0132599855
-0.016595565
-0.0022047712
0.008655361
0.008287862
0.010924035
0.011092444
0.0076163462
0.0050805304
-0.0072438424
-0.022328718
-0.02686549
-0.024644993
-0.015125535
-0.0029369714
0.0022297297
0.00428267
0.0062392317
0.0043438873
-0.0028897144
-0.010504174
-0.008637076
0.0032675057
0.013294881
0.015375022
0.015150323
0.014923575
0.013644587
0.011846781
0.00759879
0.004035041
0.0069028833
0.019230537
0.031243984
0.018107263
-0.00893891
-0.016695872
-0.013870953
-0.014760264
-0.016974984
-0.023160135
-0.02514006
-0.014962299
-0.0015631015
0.0053898585
0.0063129757
0.0051794946
0.0012977889
-0.0032573226
-0.0083098225
-0.014509526
-0.012985771
-0.0027128875
0.008075064
0.01202564
0.010285135
0.013468904
0.016965346
0.013238078
0.0057301326
-0.0049881088
-0.009578257
-0.002827615
0.0057663354
0.01012872
0.008395606
0.0062339203
0.004394443
-0.0029015485
-0.011006671
-0.017333228
-0.018718706
-0.011976852
-0.002744099
0.0060745454
0.009347694
0.0078025055
0.008530632
0.0064650015
-5.8354484E-4
-0.0083685685
-0.011313635
-0.005338303
0.002313265
0.008143594
0.011238517
0.008370401
0.004241801
-7.975282E-4
-0.0077120713
-0.013369807
-0.015731443
-0.009034203
0.002825012
0.00929764
0.0097992625
0.007867952
0.007610149
0.006568508
-9.4737305E-4
-0.010692432
-0.015522387
-0.010914017
3.3768272E-4
0.0084270565
0.010784178
0.009980459
0.005935545
-2.798481E-4
-0.005880884
-0.010282278
-0.011867759
-0.0053886995
0.00523587
0.0098276865
0.009136621
0.007764622
0.0072037764
0.0066054277
4.7784753E-4
-0.009952046
-0.014479742
-0.009144281
5.380868E-4
0.008243291
0.011328109
0.009178233
0.0050120503
0.0010797431
-0.00678923
-0.014569598
-0.014858113
-0.011184587
-0.0043777674
0.0034589467
0.0057219435
0.006100898
0.0067575187
0.0049797907
-5.073535E-4
-0.011131925
-0.015507313
-0.0043617934
0.009953878
0.016380705
0.017036822
0.01566729
0.012400656
0.008147763
0.002562472
-0.007042736
-0.014006112
-0.012209367
-0.005515026
-3.215293E-5
-0.0012758997
-0.0016467159
0.0030865946
3.8140998E-4
-0.0076922583
-0.012922907
-0.01459764
-0.009257472
-2.1688617E-4
0.007911536
0.01147677
0.009488511
0.008847919
0.005794064
-0.0019252207
-0.0068154917
-0.00883656
-0.0056469203
0.0025750399
0.007905054
0.008907157
0.00849963
0.009333739
0.008557864
0.001109928
-0.010973348
-0.019091034
-0.013484568
5.080992E-4
0.008946545
0.010142989
0.008439631
0.0063882507
0.0028061704
-0.0035351946
-0.0105960835
-0.015891714
-0.013491371
-0.005859247
-0.0019112533
5.472365E-4
0.003191225
0.0051719574
0.00640056
0.0012378779
-0.008649056
-0.013439354
-0.0076480918
0.0041529937
0.010573007
0.0108396895
0.010725924
0.00867043
0.0040404024
-0.0018437031
-0.008292703
-0.0104278205
-0.0049061314
0.004714083
0.012257918
0.014105502
0.012547947
0.011339684
0.00816627
-2.9438687E-4
-0.010072819
-0.014341908
-0.011795783
-0.0068981247
-0.003300716
-0.001375442
-0.0023620334
-0.0040010856
-0.0016275829
-0.0019663747
-0.008766701
-0.011371684
-0.0074818023
8.7793844E-5
0.008805693
0.008144932
0.003045908
0.004050223
0.0018081063
-0.005243822
-0.007238439
-0.0029639986
0.004104247
0.010127441
0.014135075
0.014621181
0.011518387
0.008746776
0.0025779663
-0.007651235
-0.014676201
-0.017863996
-0.01507234
-0.0040557683
0.004371313
0.0047306344
0.0068057626
0.009557051
0.0054816194
-8.42845E-4
-0.010328457
-0.018907527
-0.01371469
-0.0018613371
0.008191468
0.014305024
0.011540813
0.0072894315
0.0056434358
0.0010857119
-0.006434226
-0.012433565
-0.010570711
-0.003191498
0.002833225
0.0059482516
0.005362034
0.0039602253
0.0025572013
-0.0022436979
-0.009177438
-0.013997777
-0.012405022
-0.0034241055
0.007996578
0.014175107
0.013397145
0.009787065
0.005738295
0.0015902539
-0.0055459733
-0.011092081
-0.0072714593
5.274861E-5
0.0070593213
0.010700015
0.0077599077
0.005661133
0.004077488
-0.0017557458
-0.0120034665
-0.018778488
-0.012391128
-0.0032067425
0.005733766
0.014314588
0.0106112845
0.0061326544
0.006074471
-1.3819599E-4
-0.01095843
-0.022460653
-0.020312464
-0.007716224
-0.0027197835
0.0033354457
0.009735007
0.0090367645
0.0080493
0.004427464
-0.00362327
-0.010847503
-0.008870279
0.002052466
0.009940822
0.013420498
0.012224577
0.007590733
0.0059068757
0.0022138697
-0.0048377537
-0.010574705
-0.011378711
-0.004472135
0.0028334192
0.0060531753
0.007635451
0.0075032604
0.0047961865
-0.0011344951
-0.0077562104
-0.013974258
-0.016059786
-0.007178032
0.0047091176
0.008992357
0.008460877
0.007592073
0.005065738
-0.0010382124
-0.007265451
-0.010824379
-0.01124481
-0.0052366494
0.004485336
0.008831618
0.0076744054
0.0076826396
0.0073153856
0.0033375116
-0.0028502322
-0.010868858
-0.01247323
-0.0030570421
0.0058838157
0.0097212335
0.009599485
0.005062963
0.0021391243
-1.1341233E-4
-0.00834695
-0.016538179
-0.014723542
-0.00633563
-3.6861944E-5
0.0033345872
0.003721465
0.0012502774
-8.1442494E-4
-0.0039912015
-0.011362818
-0.018143961
-0.015504728
-0.004975217
0.0045178235
0.011224495
0.014163072
0.011915047
0.0077763996
0.0028254956
-0.0030617772
-0.008481581
-0.009058243
-0.0027362204
0.0036208015
0.00767104
0.011162431
0.011851443
0.010401771
0.0059416005
-0.0021598062
-0.0068151145
-0.0044674766
0.0030096387
0.014909339
0.0245336
0.02547746
0.023029035
0.019353895
0.012394973
0.0054358146
-0.0020803167
-0.006119921
-1.1213749E-4
0.006887241
0.007359775
0.0045598764
0.0012282098
-0.003596628
-0.013172312
-0.02418758
-0.03242995
-0.03642876
-0.03134752
-0.02205487
-0.018460289
-0.019360106
-0.022371024
-0.02850002
-0.035104573
-0.039488714
-0.04313178
-0.04369751
-0.032318696
-0.0074862335
0.01886977
0.036344655
0.046467032
0.049392495
0.04148685
0.030428328
0.025714159
0.028862301
0.039515655
0.049769826
0.050722256
0.04577432
0.039034013
0.03080717
0.0236698
0.015657505
0.005657717
0.0011155311
0.00532643
0.010685151
0.00243718
-0.019254334
-0.032914706
-0.037478704
-0.04501834
-0.049627922
-0.051140424
-0.05047067
-0.041530456
-0.03022194
-0.020357473
-0.011893753
-0.008776663
-0.009441579
-0.010887042
-0.012112895
-0.013318131
-0.012008999
-0.0031563044
0.009362286
0.01719715
0.018254159
0.017603323
0.018805206
0.017396918
0.010737232
0.0023849967
-1.951966E-4
0.007148436
0.017896352
0.025087196
0.02609389
0.022376392
0.018049635
0.011948322
0.0039407355
-0.0037288216
-0.0085262535
-0.0049028196
0.0030378506
0.007004007
0.008181132
0.007854561
0.006126169
0.0028411206
-0.0044982834
-0.012690431
-0.014984567
-0.009459473
-8.4278476E-4
0.0043445337
0.0060970397
0.005398458
7.900705E-4
-0.0056156954
-0.01355782
-0.022832343
-0.02799378
-0.023735922
-0.009480754
0.0027905395
0.0038863325
0.0037029197
0.005108924
0.0022943595
-0.003002351
-0.010680981
-0.014789744
-0.007298985
0.003997311
0.010394473
0.012367412
0.011838329
0.009670054
0.0057176566
-3.290807E-4
-0.007696565
-0.011821368
-0.008232004
0.0010010614
0.008259388
0.008560981
0.0068901847
0.0069506
0.0055644554
2.7249413E-4
-0.009301588
-0.013389408
-0.0058021545
0.0035737155
0.011104248
0.014453498
0.010472135
0.0071907225
0.0037162604
-0.0037501138
-0.009596663
-0.012029709
-0.008126691
9.852715E-4
0.005847762
0.0049646734
0.0040914803
0.0054460736
0.0034931179
-0.0038565404
-0.010622428
-0.013613116
-0.009370171
2.7622285E-4
0.007955454
0.012997177
0.01163736
0.005087981
0.0016617241
-0.0033069535
-0.01029871
-0.011500708
-0.0068622553
0.0014423907
0.006691234
0.0067867218
0.008702921
0.0095684305
0.005088083
-0.002439214
-0.011290279
-0.015238769
-0.009790206
1.64086E-4
0.007943218
0.011007321
0.010783691
0.00799274
0.0021601422
-0.0054891626
-0.012819873
-0.016567934
-0.012583084
-0.0022583662
0.0054281806
0.0072072153
0.007333598
0.006812326
0.0057053347
6.9127465E-4
-0.009479775
-0.0136326
-0.0077224695
8.3366846E-4
0.0080146
0.012022706
0.012573855
0.009364471
0.0045606527
2.5814647E-4
-0.006348071
-0.010362639
-0.0078543415
-0.0015230238
0.0069327704
0.00869785
0.0058523584
0.0060903323
0.0015887902
-0.0055172644
-0.011507809
-0.017880453
-0.014015545
-0.002444502
0.0053181746
0.008495621
0.007885794
0.0063197385
0.002734277
-0.0040718783
-0.010441365
-0.01370683
-0.008163846
0.0015069105
0.005488157
0.0076558376
0.00995066
0.009827397
0.007752917
0.0024850343
-0.006131734
-0.011978756
-0.008234417
9.904765E-4
0.008918659
0.013361213
0.011797779
0.0072676055
0.0023143436
-0.00460447
-0.011906773
-0.016316906
-0.011947687
-0.0018264407
0.003983199
0.0064371927
0.005519062
6.2897854E-4
-6.02782E-4
-6.307298E-4
-0.0073821703
-0.014147835
-0.010761657
5.0034764E-4
0.010896353
0.014708404
0.013500763
0.010776677
0.0050481195
-0.0021409986
-0.009268109
-0.015752375
-0.013309808
-0.00323882
0.0047803987
0.008442322
0.007177934
0.0052689556
0.004550594
-5.2185636E-4
-0.00869471
-0.014441179
-0.011909818
-9.602541E-4
0.0084937345
0.011318256
0.011134952
0.008838389
0.0024986502
-0.002859536
-0.007065918
-0.0135727795
-0.010437182
9.787444E-4
0.0061620735
0.008766419
0.009702406
0.007039469
0.0042708516
-0.002524048
-0.011455226
-0.014929873
-0.010421969
-0.0013851481
0.0070596305
0.0128239
0.011228938
0.006001951
0.0023594326
-0.0042287866
-0.009718405
-0.012195917
-0.010322441
-2.1032052E-4
0.005310232
0.004317382
0.005329504
0.0057603046
0.0068165255
0.0035095438
-0.00756978
-0.013933742
-0.0103327
-0.0012933697
0.0068047037
0.010410933
0.010910241
0.00852075
0.0042658485
-0.001619622
-0.008208144
-0.012776558
-0.013277589
-0.0062609157
0.0026467305
0.006201428
0.0079707755
0.008391879
0.0064986697
0.0021294935
-0.006741989
-0.013433568
-0.011650336
-0.0037629488
0.006328144
0.012261688
0.010904774
0.0070178695
0.0038131755
-5.327207E-4
-0.007944123
-0.014374178
-0.012229559
-0.0026843604
0.0052827434
0.0080561275
0.008155516
0.007059356
0.0047411383
3.4244015E-4
-0.0075619295
-0.014548358
-0.012556655
-0.002797482
0.006595261
0.011611281
0.013106645
0.011216476
0.0053428872
-2.2203686E-4
-0.0052930787
-0.0131670525
-0.014032094
-0.004630621
0.0032571536
0.0063059595
0.0051578498
0.0028574746
0.003544348
0.0017454564
-0.00505547
-0.0128219025
-0.013780877
-0.0046254536
0.0049700146
0.010436876
0.011164541
0.0073338565
0.004783703
4.8237244E-4
-0.0071118977
-0.012180333