0.009765968
0.012262903
0.019515209
0.02146731
0.020760158
0.024589226
0.026874932
0.025473643
0.024872992
0.024186786
0.01927007
0.010595382
0.004801459
0.005784658
0.007731526
0.0049361833
4.5629358E-4
-0.0062782643
-0.01620867
-0.02099746
-0.023168452
-0.029078152
-0.034930915
-0.042715788
-0.04943324
-0.052997284
-0.06406296
-0.074346915
-0.07324719
-0.07254651
-0.07294883
-0.06511297
-0.05459085
-0.04785094
-0.038502157
-0.022746196
-0.005066786
0.011734597
0.022700628
0.024560345
0.027724737
0.037208978
0.04844918
0.06376574
0.07933814
0.09151143
0.103330925
0.11154178
0.11350399
0.09066659
0.042249843
0.012881616
8.7247987E-4
-0.023022315
-0.047762267
-0.06856594
-0.08421647
-0.09042499
-0.0892657
-0.075981066
-0.06000682
-0.04895257
-0.04306877
-0.04239044
-0.03338
-0.020306746
-0.014591251
-0.008765303
0.006759385
0.030174138
0.046883896
0.05842209
0.07237878
0.08531275
0.09676389
0.10382348
0.108180545
0.10401829
0.0902666
0.07244356
0.039939005
0.009606194
-0.012152713
-0.035919424
-0.055900626
-0.0833595
-0.10391381
-0.15003146
-0.20924406
-0.1359921
-0.05316757
-0.1336664
-0.18602185
-0.14913273
-0.15214188
-0.1444062
-0.08250209
-0.027831098
-0.001613911
0.017956113
0.035643127
0.05671165
0.097008534
0.1199511
0.10591529
0.09179389
0.08553795
0.07704294
0.08030225
0.13427657
0.21266021
0.2345646
0.21144295
0.17754105
0.13334961
0.09651109
0.061809473
0.025289118
-0.005315617
-0.032633767
-0.05287686
-0.07057647
-0.08503191
-0.093908645
-0.0997451
-0.100859836
-0.1069045
-0.11362489
-0.11268425
-0.10944293
-0.105092295
-0.10346109
-0.099260226
-0.09208419
-0.0866898
-0.07564759
-0.06536337
-0.054197315
-0.037676997
-0.023921866
-0.0024686519
0.023006434
0.03921014
0.05265393
0.06267921
0.06940942
0.0765221
0.082223654
0.085169904
0.08248642
0.07670148
0.069238044
0.06059819
0.0554647
0.052661285
0.050955676
0.049312573
0.04488869
0.039507963
0.034556545
0.029078227
0.019504594
0.009743729
0.007997647
0.0067253676
-0.0014701195
-0.015156766
-0.028893577
-0.03547901
-0.04231229
-0.046827562
-0.03488891
-0.020588148
-0.013678957
-0.0059703058
-0.0041789208
-0.008572474
-0.010479612
-0.01275661
-0.014195543
-0.013092105
-0.014745713
-0.014634605
-0.0060704066
0.004926491
0.010994433
0.0115890335
0.008305737
0.003312195
-5.618353E-4
-0.0022307097
-0.0036543605
-0.0044490923
-0.0027613465
-0.004540555
-0.011508685
-0.013532701
-0.011639437
-0.013737012
-0.014369445
-0.01296529
-0.016430153
-0.016982675
-0.01042736
-0.0098939035
-0.015360993
-0.015738592
-0.01422017
-0.012135653
-0.005776855
-7.5807865E-4
0.0015763175
0.0021029317
-4.9105906E-6
-0.0010531684
-0.004046767
-0.0082970625
-0.0066562
-0.0025286316
3.5666695E-4
0.0031372015
0.009361757
0.017163528
0.016911872
0.012824156
0.009013709
0.0014938959
-0.0047874465
-0.008073956
-0.0060487557
-0.0013548371
-0.0045326278
-0.0067137685
-0.0037703472
-0.003562795
-0.0035412663
-0.0046279286
-0.003106021
0.001984522
-6.557199E-5
-0.005044913
-0.00784781
-0.007169473
3.289308E-5
0.0035376716
0.0016861949
0.002465907
0.0037749328
0.0030558137
6.008879E-4
0.0011227867
0.0052450895
0.0063205324
0.006794883
0.0070845317
0.0039470624
0.0010323519
-0.0013452085
-0.001889481
-5.1725475E-4
-0.0016271828
-0.0024286313
-0.0020776584
-0.0025225412
-0.0027738472
-0.0040838774
-0.005437638
-0.0065349825
-0.008049364
-0.008504221
-0.0089663835
-0.0102166245
-0.013528884
-0.015380961
-0.01033844
-0.003935183
0.0011514805
0.0058964854
0.0067758136
0.0054891915
0.003675725
5.2970805E-4
-0.0013727486
-1.0912422E-5
0.0027737482
0.004694571
0.0070635607
0.007220314
0.003480935
0.0023246
0.0043458897
0.006971061
0.009174178
0.009472138
0.008225388
0.0026768981
-0.0015004488
0.0015309313
0.0027794386
0.003797284
0.0057470617
1.15157265E-4
-0.0042251456
-0.0027225735
-0.003102197
-0.0021337634
-7.09191E-4
-0.004834456
-0.009207923
-0.008777178
-0.0058935
-0.001645537
0.0020691014
0.0016133345
7.0244493E-4
0.0017355812
-5.056573E-4
-0.0050163656
-0.00784061
-0.011106889
-0.0149491895
-0.01431025
-0.008198991
-0.002448525
6.5803854E-4
0.003137279
0.0055647856
0.007479019
0.0065908665
0.0052809143
0.0069029513
0.006715188
0.0050172596
0.0051996163
0.0042970753
0.0021906712
0.0012096443
0.0037882826
0.009472256
0.012649572
0.011939465
0.006494873
-0.0024417804
-0.0055098813
-0.0028289875
-0.002986053
-0.0049174335
-0.0040124003
-0.0021616358
-0.0038494973
-0.00639756
-0.0027391277
0.0020029875
-0.0013852782
-0.0071770363
-0.009618243
-0.011770257
-0.011530059
-0.0069194487
9.873024E-4
0.0100886915
0.014037072
0.014286564
0.011779089
0.004064755
0.0019582692
0.0056939404
0.005854433
0.005347561
0.0015263621
-0.00587489
-0.0091822455
-0.008914743
-0.0066013043
-0.00463908
-0.0033188327
-0.0014660675
-9.601612E-4
0.0010595735
2.0056179E-4
-0.0047769938
-0.005102815
-0.004365757
-0.002049414
0.0017098441
-0.0023352373
-0.0051301178
-3.9054296E-4
0.0043749614
0.00832291
0.012508565
0.016682219
0.01493366
0.0074007255
0.0054701515
0.0065718237
0.003673389
-9.7115414E-4
-0.004732096
-0.0058962265
-0.0052535343
-0.003112423
-0.0021027138
-0.0033735684
-0.0016648233
-9.106797E-4
-0.0029796925
-0.0036018929
-0.0060340925
-0.006149003
-0.0031666765
-0.0034594953
-8.776643E-4
0.0028801018
7.783592E-4
-0.0017799161
-0.0019235925
5.4245134E-4
0.003899611
0.0036946468
0.0034746754
0.004327397
4.9700006E-4
-0.0035072158
-0.0010021537
0.0017921563
0.0012277892
-3.134094E-4
-0.0028147155
-0.0013065283
0.004240731
0.005831469
0.002316092
-0.002179087
-0.0020683308
1.8007975E-4
-1.923159E-4
0.0015348323
0.0026936175
0.0018302946
0.0034908964
0.002493442
8.4545324E-4
0.0026980557
0.002888397
0.0016382198
1.3920372E-4
-1.7571117E-4
0.001618218
0.002170747
0.00220661
0.0013464651
-0.001246323
-0.0029470944
-0.003022503
-0.0015312205
-0.0012101411
-0.0033858933
-0.0046701613
-0.004173797
-0.0038329337
-0.0038023877
-0.0018828707
-0.0011749007
-0.003007719
-0.0017793615
-5.925628E-4
1.4210325E-4
0.0041605965
0.0037877404
-1.8522092E-4
-0.0015509499
-0.0015258476
9.0334314E-4
0.0020247006
6.867958E-4
4.065163E-4
-0.0018626887
-0.0024922043
5.9111527E-4
0.0010045758
6.3642976E-4
0.001376779
8.495154E-4
-1.3612601E-5
-6.3666987E-4
-0.0013491281
-0.0018402172
-2.4646422E-4
0.0022762942
0.0016633231
4.6290312E-4
0.0013197655
0.0017607324
0.0023494135
0.004738323
0.008569996
0.012267378
0.0121543575
0.007527671
0.0028772177
7.9502445E-4
-8.0035726E-4
-0.0033203526
-0.006210487
-0.00853731
-0.0085490355
-0.005993066
-0.0025358198
-0.0021926463
-0.00576663
-0.0047295103
5.5313477E-4
0.0016953695
0.0022005488
9.388972E-4
-0.0061908104
-0.009707328
-0.008600041
-0.0066752657
-5.9808936E-4
0.0022215636
3.1175715E-4
0.0031204894
0.0042881696
0.002068991
0.004838992
0.005635695
0.002872038
0.0031044867
0.0013997499
-7.678158E-4
5.350898E-4
4.978538E-5
-0.0013682698
-0.0012546309
-0.0017574078
-0.0034641142
-0.0027643181
0.0021047161
0.004738761
0.0049084993
0.005312834
0.0021766573
1.6891025E-4
0.0022532083
0.0028077736
0.001770001
0.0014144975
0.0025600966
0.0017982749
-0.0019643821
-0.0023753385
-5.46463E-4
-2.119823E-4
-3.1954358E-5
-8.0847205E-4
-0.0021674465
-0.001678022
-0.0014434503
-0.0044506863
-0.004623244
-3.077359E-4
0.0017001532
0.004038479
0.0050981278
0.0025476408
0.0027899835
0.0015549411
-8.4293186E-4
-0.0024025023
-0.0061559035
-0.0023126598
0.0034188677
5.3011438E-5
-0.003402555
-0.004349581
-0.0034642983
-0.0023927018
-0.001969114
2.5098812E-4
-9.043284E-4
0.0020126228
0.00823911
0.0017991433
-0.005882586
-0.007396838
-0.011507171
-0.01204151
-0.006693516
-0.0014430198
0.0021990947
0.0048439065
0.007830867
0.009027123
0.0057795993
0.0027887675
0.0046619778
0.004895466
0.0019987938
0.0026532793
0.003782564
0.0037083686
0.0027548426
0.0010564538
0.0043125786
0.0057565174
7.3170435E-4
-0.0017463441
-5.669888E-4
0.0020799788
0.0047761947
0.0076337527
0.009299027
0.002166562
-0.0077006407
-0.010199605
-0.010487099
-0.010548049
-0.0062391222
-0.0028364952
-0.004313896
-0.0023948879
9.518658E-4
-0.0018365238
-0.0032197966
-7.8424247E-4
0.0010730063
8.1723253E-4
6.935853E-4
0.0042452873
-0.0015011469
-0.011616975
-0.0038629037
0.0056253527
0.005684825
0.007113318
0.0051171267
0.0018231252
-6.2489853E-4
-0.0036954496
1.5955966E-4
0.0043007266
0.0057870564
0.010084247
0.010261036
0.005461365
-0.0020308779
-0.009190811
-0.008037107
-0.005436848
-0.0060488572
-0.0026283283
0.0018999797
0.0035572844
0.0038164032
0.0043393234
0.006579696
0.006118827
0.0025497205
5.707068E-4
-0.0019366402
-0.0060819136
-0.009251848
-0.008928241
-0.00453318
-1.8848416E-4
0.0027382236
0.0043904395
0.0027129238
1.2806166E-4
1.3738355E-4
7.7401334E-4
-3.513182E-4
-7.891486E-4
-0.001613756
-0.005106115
-0.0048985383
-0.0019633963
-0.0024077804
-0.0022660126
-6.780638E-4
9.149061E-4
0.0032361208
0.0034110695
0.0033002999
0.004687852
0.0043519493
0.004888523
0.0071785245
0.0051645483
0.002744328
0.0070503424
0.01035059
0.0079827905
0.0034850938
-0.0032295978
-0.00626938
-0.0046252073
-0.0049831374
-0.0027615307
0.0018256729
0.0011197185
-0.002187323
-0.0055455663
-0.011063003
-0.01658743
-0.015916353
-0.009158142
-0.0042050076
-1.9028713E-4
0.0034960292
8.4810454E-5
-0.0028184687
0.0010478601
0.0039426647
0.005294083
0.004965334
0.0024891754
0.0028753246
0.0039873086
0.005487215
0.00897139
0.0084392475
0.004392884
0.0030401936
0.0027611572
8.870456E-5
-0.001079392
-6.6511985E-4
-0.0041892854
-0.0067231287
-0.004729689
-0.00398932
-0.0067013134
-0.010135662
-0.009140281
-0.006492434
-0.005338279
-0.002764023
-0.003025418
-0.0024110521
0.0014837662
0.002578481
0.006983854
0.010386205
0.009992641
0.010907233
0.0030724616
-7.4337446E-4
0.00869126
0.01035956
0.0076128095
0.008148031
0.0068295565
0.005179194
6.517382E-4
-0.0027685354
-0.0029151044
-0.0060273907
-0.007410781
-0.0056224763
-0.007114405
-0.010403266
-0.010032734
-0.008622206
-0.00947374
-0.008879352
-0.0078440495
-0.0073458944
-0.0063325115
-0.006638484
-0.0060155676
-0.00558079
-0.004697015
-0.001412127
-0.0019080199
-0.002138088
0.0032150692
0.009194833
0.013473019
0.014815344
0.016408328
0.018129073
0.013985824
0.008072662
0.0050229463
0.004661409
0.0071276464
0.009017544
0.0064804666
0.0018447215
3.489451E-4
1.553296E-5
-1.8996949E-5
0.0021849321
0.0014160443
-0.0023003914
-0.0076088393
-0.01410847
-0.014064573
-0.011468245
-0.012959768
-0.013772316
-0.013608338
-0.013047249
-0.012370842
-0.012077014
-0.0071057607
6.0050632E-5
0.0033833396
0.0065248953
0.009627575
0.0074529275
0.0059659914
0.009596594
0.010005241
0.0081032235
0.009135707
0.00936078
0.0085128825
0.0050662644
-6.529943E-4
-0.0019910927
-0.0020515912
-0.0043827235
-0.007117908
-0.007580308
-0.002164995
0.002899533
0.0061127883
0.011015277
0.010559226
0.008794061
0.009555893
0.005574231
0.0032299252
0.0045490507
0.0018018038
-0.0021968128
-0.002409154
0.0012355355
0.0027000045
7.8541785E-4
0.0012208475
3.3708804E-4
-0.0032020356
-0.0063019004
-0.011663017
-0.01661286
-0.018678147
-0.020209381
-0.01983109
-0.01831433
-0.020771224
-0.026622215
-0.027060209
-0.019550316
-0.0097509995
0.0012405055
0.010351016
0.014266921
0.017386768
0.018661981
0.01591754
0.01551364
0.018326903
0.020515159
0.021651387
0.019143311
0.014987577
0.013950841
0.011739005
0.0090897605
0.010252143
0.0096412115
0.004846216
-0.0020213868
-0.0069673434
-0.0079091415
-0.013059382
-0.020026246
-0.020289848
-0.019242475
-0.018719338
-0.015804188
-0.011122778
-0.006194194
-0.003032233
7.171091E-4
0.004787153
0.006941305
0.009231816
0.011242201
0.012502573
0.011038816
0.006382144
0.0035557626
0.0019809417
0.0018562769
0.0034263174
-5.8490452E-5
-0.0067828926
-0.009888267
-0.008693422
-0.004970881
-0.0034940352
-0.0060377163
-0.008769548
-0.0115782
-0.015379937
-0.01889066
-0.024090717
-0.02862546
-0.026391923
-0.01951009
-0.00747634
0.009041556
0.019334134
0.025718145
0.03426468
0.036470383
0.031145371
0.026946388
0.026553242
0.025286688
0.020300677
0.01589739
0.012285986
0.007565262
0.0057939454
0.006220229
0.0038729124
-0.0014017522
-0.0087342365
-0.017637637
-0.024025932
-0.027019314
-0.030621748
-0.033976577
-0.036215514
-0.03685411
-0.03358135
-0.028650459
-0.019687261
-0.0065821805
0.0032739385
0.011227867
0.020726085
0.027632423
0.030223384
0.030248731
0.02711662
0.021426687
0.014424179
0.0068568825
0.0011129907
-0.0024095634
-0.0030236975
-0.0015561562
0.0019357492
0.007405655
0.0065625794
0.005059837
0.010598379
0.014609502
0.018879628
0.023235394
0.027870128
0.036014047
0.033628836
0.019745855
0.0042027095
-0.007314522
-0.014273745
-0.024358911
-0.03232852
-0.039181996
-0.044461053
-0.043521296
-0.045398854
-0.0384908
-0.028013214
-0.023850689
-0.013439005
-0.010156828
-0.006102551
0.00202501
3.520551E-4
0.001466199
-0.0074875713
-0.018965736
-0.027602565
-0.04477642
-0.03793403
-0.00878795
0.05281459
0.14534089
0.24413982
0.34705195
0.2845367
0.049136087
-0.065705486
-0.06158002
-0.07027141
-0.05880854
-0.04925291
-0.04495398
-0.034603737
-0.035388585
-0.030422684
-0.033078965
-0.04031193
-0.044227585
-0.05563454
-0.060078338
-0.063362256
-0.06447653
-0.05872217
-0.054403268
-0.046130605
-0.042520076
-0.039026644
-0.027168171
-0.012282749
0.008706111
0.023861323
0.035007454
0.049951266
0.057675608
0.061477628
0.062173236
0.060072448
0.056691714
0.04566407
0.036062762
0.032408096
0.023996526
0.0064100735
-0.009855928
-0.015662096
-0.0163448
-0.010416478
-0.0016392027
0.0021900588
0.009702145
0.016963728
0.02013037
0.027536837
0.028343366
0.013388025
-0.0045166966
-0.01485828
-0.017793644
-0.014391232
-0.009175472
-0.00810648
-0.011502686
-0.014618032
-0.008307318
-0.0020442226
-0.012093215
-0.024545114
-0.030726062
-0.036315877
-0.038075794
-0.03893168
-0.037811194
-0.030355189
-0.024931846
-0.02066773
-0.013173497
-0.008269068
-0.0041526384
0.0036573887
0.011286685
0.015824884
0.019419692
0.024774149
0.03163445
0.0394661
0.047843497
0.052529357
0.052849963
0.053451423
0.053431325
0.05009736
0.044744477
0.036055095
0.020206556
-0.0017504089
-0.020599958
-0.029013693
-0.030432258
-0.031586148
-0.03860292
-0.049187597
-0.05193458
-0.047755305
-0.042399783
-0.03585065
-0.031951245
-0.02755992
-0.019932382
-0.014338005
-0.009027494
-0.008555191
-0.0155710075
-0.017131057
-0.013190193
-0.008957239
-0.0015832967
0.0056927535
0.013440822
0.022057159
0.025232853
0.024898589
0.022843743
0.018255007
0.01426453
0.01054503
0.009797145
0.008487413
-0.0068916883
-0.025179075
-0.029398637
-0.023835767
-0.009266853
0.008901839
0.022102663
0.033138324
0.04112669
0.047111113
0.045206897
0.024984898
-9.303467E-4
-0.021153217
-0.039781272
-0.05826609
-0.07283588
-0.0782875
-0.07438585
-0.06129452
-0.039761726
-0.016195986
0.0076551507
0.036164653
0.070005395
0.10257827
0.12698622
0.13913883
0.14210019
0.14092459
0.12857608
0.10452114
0.07145614
0.029282814
-0.011026764
-0.051940724
-0.09151313
-0.116423026
-0.13355161
-0.14415343
-0.14519829
-0.13548353
-0.11445144
-0.08789125
-0.053332843
-0.026000788
-0.006363155
0.01675573
0.022268439
0.016771223
-0.0071146376
-0.056747925
-0.10761737
-0.1735593
-0.16476595
3.5275758E-4
0.18259335
0.27683914
0.27453917
0.20514974
0.16750951
0.14945886
0.09003231
0.024141988
-0.01478041
-0.017919723
-0.0053669824
-0.0034744646
-0.005826723
-0.01274174
-0.022338286
-0.032771662
-0.050460868
-0.06581219
-0.058428388
-0.018717391
0.023216743
0.037054915
0.031981125
0.0195911
-2.9964471E-4
-0.036637843
-0.09402284
-0.14645587
-0.15609168
-0.1251535
-0.086931035
-0.05435166
-0.0331608
-0.025248643
-0.019409653
-0.018821701
-0.026689664
-0.033456948
-0.017877335
0.032413673
0.086734444
0.11534536
0.12207034
0.12244069
0.115422614
0.0827021
0.029297639
-0.020100547
-0.03730093
-0.016650885
0.012322736
0.033817712
0.040670298
0.03737207
0.034755327
0.021146828
0.0030797564
-0.011919856
-0.008059125
0.035790507
0.08174578
0.10298082
0.10227959
0.08674318
0.06709268
0.019113168
-0.0549293
-0.1280465
-0.17227091
-0.17158948
-0.16854621
-0.1656388
-0.16798943
-0.18676586
-0.1820737
-0.20245959
-0.16493155
0.047793075
0.19227122
0.15614277
0.10926785
0.07207934
0.037325766
0.027023247
0.027086806
0.048038717
0.07476106
0.10414296
0.13363604
0.14609818
0.15586185
0.1549405
0.13774692
0.11287735
0.07780689
0.038953092
-0.006705581
-0.052282825
-0.09023876
-0.12636887
-0.15265633
-0.16817927
-0.17028989
-0.15773608
-0.1371857
-0.106053025
-0.07462822
-0.04310003
-0.006655394
0.01844724
0.035600316
0.051672496
0.057888806
0.053844865
0.04386958
0.032956455
0.021368077
0.006052919
-0.010356115
-0.021843592
-0.027772067
-0.033308264
-0.035006043
-0.029878246
-0.021848017
-0.009168179
0.007973167
0.024023212
0.03518093
0.04302706
0.049275648
0.051629357
0.050643973
0.045917246
0.039021906
0.03129664
0.01968052
0.00928071
4.7815134E-4
-0.0092114145
-0.0155589515
-0.017931532
-0.015882945
-0.018198162
-0.025191525
-0.01744618
-0.004129572
-0.0043987622
-0.00971676
-0.010447947
-0.0063743377
-0.0032122282
-0.001157698
0.002188463
-8.804921E-4
-0.005806973
-0.008769072
-0.014743205
-0.013675738
-0.0076015578
-0.0064297705
-0.0020749217
0.00392977
0.0030308266
-0.0010867615
-0.0023261649
2.8110354E-4
0.0023546603
0.0025111428
3.4727706E-4
-0.004997325
-0.0089176055
-0.016060553
-0.029469619
-0.034558184
-0.02651099
-0.012803382
0.0015561706
0.01153987
0.016347615
0.01564945
0.010738549
0.006774334
0.005606462
0.010190757
0.014049029
0.008733426
0.0030271555
-6.8390963E-4
-0.0032014563
1.8258806E-4
0.003164035
0.004318501
0.0049779406
0.0015930203
-5.7965046E-4
7.1050925E-4
0.003031229
0.0031820002
-0.002056835
-0.004634332
-0.002927737
-0.006323192
-0.010874266
-0.007914234
-0.0023787245
-0.0020741841
-0.0044353306
-0.004240754
1.4303354E-4
0.00565163
0.0050013987
0.0017025506
0.002045216
-2.0655441E-4
-0.0038708402
-0.0019283202
-7.777031E-5
-0.002153895
-0.0030521734
-0.0030034208
-0.004460407
-0.0048701456
-0.0051658996
-0.0066856504
-0.0039866664
0.0024295913
0.0047448226
0.002985484
0.00366736
0.006888303
0.008246022
0.0085625565
0.008601732
0.0065966626
0.0045533376
0.003993862
0.00355081
0.0016110791
-0.0016875716
-0.0037620917
-0.0045416555
-0.0045795334
-0.0036156224
-0.0033263988
-0.0031590536
-0.0029811338
-0.003960965
-0.004848181
-0.0049489285
-0.0033923336
-0.0022526358
-0.0022901406
0.002465431
0.007710346
0.006405566
0.0054903384
0.007129076
0.0053134304
9.82706E-4
-7.1906514E-4
1.5670281E-4
5.2987627E-4
0.0014767568
0.002877146
0.0041918075
0.0062331734
0.0053268834
0.0025142413
-6.2438665E-4
-0.0044972044
-0.0032945734
-8.7255845E-4
-0.0035456584
-0.0065384335
-0.0067867767
-0.004622764
-0.0063534304
-0.01021152
-0.0035949596
0.005390156
0.0066352254
0.0072048996
0.0073170047
0.002408551
-0.00462741
-0.0071410537
-0.006375069
-0.0078353025
-0.008709795
-0.00902213
-0.009416649
-0.0061641093
-0.0021513605
3.9220092E-4
0.0016740847
0.002279187
0.0035053266
0.0026052692
0.0017373742
0.003111709
0.003919847
0.005521487
0.0060020965
0.004937962
0.007010487
0.008774083
0.008080856
0.0091251535
0.010694418
0.008981511
0.005757759
0.005287656
0.0067945668
0.006382425
0.003757893
0.0011485051
-0.0017080831
-0.0049701864
-0.0064371275
-0.007958429
-0.010914187
-0.011796702
-0.011104016
-0.011122759
-0.011030018
-0.010109694
-0.009530114
-0.010370237
-0.009476646
-0.0058486983
-0.002961513
-0.0012207408
-0.0011842075
-7.538576E-4
0.002890927
0.0021338682
-0.0027260003
-0.0014137849
8.1461895E-4
-0.001150695
-0.0010384211
3.8782615E-4
0.0027638855
0.0067261057
0.0080955895
0.0093582645
0.010270679
0.008585074
0.007271357
0.0042560915
0.00439741
0.009878347
0.008786188
0.0029162527
-0.0018461198
-0.0051466087
-0.0021955278
0.0027340706
0.0058206073
0.009161281
0.0109652635
0.0089297965
0.0014781678
-0.0025094827
-0.0026284538
-0.011240534
-0.017159814
-0.013152241
-0.010790943
-0.010549314
-0.010915502
-0.010008512
-0.008412706
-0.008043074
-0.0026317895
4.4591632E-4
-0.002646329
-6.1817636E-4
0.003988353
0.0067721154
0.008947681
0.01128066
0.011503733
0.0023448444
-0.00603858
-0.0035766938
-0.0015413077
-0.0031070341
-0.0033050964
-0.0025833359
-0.0023577055
-0.0022071553
0.0011642282
0.004425226
9.4428996E-4
-0.005664725
-0.007628033
-0.0059986953
-0.007752979
-0.01087704
-0.009973116
-0.0064101727
-1.5791976E-4
0.00818397
0.014608524
0.018222282
0.01973552
0.017884342
0.013550605
0.012107922
0.013247391
0.0115063945
0.0074887075
0.0032573137
-4.7758868E-4
-0.0032179446
-0.0066821757
-0.009038941
-0.0079258615
-0.00664285
-0.0076469695
-0.010284868
-0.013059711
-0.013853561
-0.012586221
-0.010431318
-0.007391791
-0.004349729
-0.0028678905
-0.002949082
-0.0018438464
0.0020373885
0.00450087
0.00578035
0.010314346
0.012552764
0.007942057
0.002369593
1.795008E-4
5.263806E-4
1.0576509E-4
-0.0019617304
-0.002279417
-0.0021992172
-0.006054966
-0.010298921
-0.009917178
-0.007883513
-0.0075322716
-0.0059661204
6.0622016E-4
0.0078037595
0.008228671
0.0075120837
0.010405752
0.008946882
0.0048353192
0.004396445
0.0041191815
0.003976481
0.006332728
0.009015334
0.010854125
0.012761057
0.014554705
0.014609085
0.011359881
0.0037937278
-0.0037972056
-0.008129796
-0.013306237
-0.016804863
-0.015991608
-0.016945824
-0.018393923
-0.015169551
-0.008772217
-0.002638103
0.0013143779
0.0016952764
1.6284216E-4
0.002083122
0.004707599
0.004514657
0.005881488
0.005334041
0.0016549219
-4.167554E-4
-0.003598579
-0.005557528
-0.004053051
-0.0020891407
0.002312932
0.0055326535
0.00416214
0.004530762
0.008139779
0.009683843
0.0070670964
0.0039313864
5.1591353E-4
-0.0072469637
-0.013054433
-0.010082899
-0.005592614
-0.0025195137
0.0024421227
0.006151582
0.009825451
0.012259656
0.0064498126
-4.5190504E-4
-0.0018424364
-3.9330058E-4
0.0031720041
0.0040174806
0.0028501875
0.0020114651
-0.0037575064
-0.009041914
-0.009714587
-0.0114189
-0.013461743
-0.012317625
-0.0052936454
0.0029843512
0.0041500675
0.001756182
0.0011220832
0.0019068172
0.0027139427
0.0014689843
-0.0017465781
-0.0039914143
-0.0013835429
0.003465549
0.0043815114
0.0028698894
0.0030919663
0.0059911655
0.00715153
0.003835916
0.0026130998
0.004143413
0.0034707037
0.0015252329
-0.0016773086
-0.005067284
-0.004955644
-0.0032192061
-0.0021466932
5.6982785E-4
0.0022855953
-9.3709404E-4
-0.0021686573
7.456525E-4
3.947405E-4
-0.0023923432
-0.0054624192
-0.008017381
-0.0061964598
-0.0026207964
5.4429844E-4
0.004118865
0.0048380243
0.0031992064
0.0016617872
-2.378619E-4
-0.0010988318
-8.2336296E-4
-0.002219488
-0.004508363
-0.0052820845
-0.004493213
-0.0018072103
-4.6277486E-4
-0.0018736395
1.7706383E-5
0.0014540012
-7.9707295E-4
0.0022648193
0.0056197
0.0034814356
0.0044200676
0.005842257
0.0052405586
0.006936523
0.0046318104
-0.0013057932
-0.0016451748
0.0037300035
0.009229009
0.010046128
0.0077909627
0.0054546166
0.002840039
0.002022118
0.0017162364
5.201452E-4
-0.002322372
-0.008793461
-0.010562826
-0.0070236307
-0.007012708
-0.0061003612
-0.0048350743
-0.007018096
-0.006663618
-0.0050814115
-0.004716108
-0.0052997745
-0.0074790716
-0.0059902295
-0.0014043136
0.0025221896
0.0060980166
0.003843668
-0.0010287676
0.0016578587
0.0042253374
0.0017578589
0.0018623301
0.0012492463
-5.6832476E-4
9.3823933E-4
0.001745454
0.0044582826
0.008684923
0.007959813
0.006819563
0.009081685
0.012981908
0.013213099
0.007820896
0.0035872457
0.0013743157
-9.854186E-4
-0.0042870576
-0.0052781664
-0.0016378809
-0.0026991272
-0.00567182
-0.0045275614
-0.00271031
0.0015834183
0.0022137684
0.0015490872
0.0061347736
0.008554558
0.0017318353
-0.030283554
-0.058155153
-0.032581773
0.0032392922
0.008225953
0.006550178
0.005306829
0.0023379624
7.670837E-4
0.0016633718
0.0048129135
0.0045378916
0.0079952525
0.015764087
0.017500188
0.015594522
0.011895555
0.007929338
0.0056282566
0.0040317965
0.004982992
0.0048489184
0.0017400786
-3.237355E-5
-0.0017979613
-0.005511885
-0.0057003065
-0.0039022146
-0.007134349
-0.004873001
0.0010976404
-0.0062869457
-0.013123953
-0.010933929
-0.010891139
-0.009256356
-0.008167156
-0.01055926
-0.010038157
-0.0049163746
0.0038936986
0.005238996
2.0168377E-4
0.004402834
0.011850822
0.015305054
0.015584161
0.011272484
0.009135949
0.008820145
0.005659657
0.0027591516
-5.605464E-4
-0.002999022
-0.002959737
-0.0025510238
-0.0011913108
-0.0020665394
-0.0046497122
-0.003561192
-0.002290088
-0.0031462056
-0.0037445193
-0.0037694091
-0.001856466
-4.3461856E-4
-0.002090885
-0.0024105727
-0.0015677209
-0.0031542832
-0.0057859486
-0.0083696125
-0.008409451
-0.0035236878
0.0028620122
0.007381002
0.009054211
0.008975226
0.007284567
0.0041067475
0.0043211407
0.00517484
0.0034326152
0.0037692299
0.0011964212
-0.0028047538
-9.359051E-4
-0.0013631898
-0.0022989477
0.0016004891
0.0015955187
-9.959444E-4
-0.0015836778
-0.003216003
-0.0037113393
-5.449361E-4
0.0018435363
9.145749E-4
-5.312159E-4
-0.0028315843
-0.0041318787
-0.0034981072
-0.0061683697
-0.006957165
-0.005332009
-0.0064115976
-0.0020366923
0.0045192237
0.0056650806
0.006354885
0.0067285886
0.00568458
0.003904172
0.0036910851
0.0054641915
0.0053255884
0.0064701485
0.005861776
-0.0022265916
-0.008180966
-0.0047375285
0.001481514
0.0011426171
-0.0014860837
-1.7607544E-4
-7.9377735E-4
-0.0016585686
-0.0011844116
-0.0036356982
-0.0038577109
-0.0021130596
-0.002790163
-0.001713026
5.0230476E-5
-0.0022282093
-0.0019994094
0.0026496404
0.0014206893
-0.0012805443
0.0014879736
0.0034048366
0.005052267
0.006338068
0.0060608843
0.0056669475
0.0022421447
0.0012619533
0.002297503
-0.0010543666
-0.0026074862
-4.9419556E-4
9.2597725E-4
-0.0013021346
-0.0017253169
6.2822604E-5
-0.011205902
-0.019883031
-0.008998987
-0.0024412477
-0.0029201566
4.4552993E-4
5.898069E-4
0.0013405529
0.004817235
0.004586708
0.0015356344
-9.6175604E-4
-0.0011693044
-4.967266E-4
7.51572E-4