0.038482066
0.034861814
0.034046717
0.02763428
0.019293893
0.01137537
0.0018191497
-0.010136674
-0.025410108
-0.03915357
-0.04837625
-0.05056216
-0.043020997
-0.03276953
-0.025619948
-0.01989961
-0.015634786
-0.016000047
-0.019585408
-0.023918198
-0.028149672
-0.024302125
-0.012776633
-0.0038537453
0.0024687825
0.00644688
0.007790669
0.009464229
0.007650606
0.0010472952
-0.0043474934
-0.002907015
0.005146949
0.015054754
0.024242084
0.028706864
0.026371494
0.021321809
0.014765527
0.0062853796
-0.0013388105
-0.0035909093
0.0011346798
0.00739417
0.010208177
0.01131582
0.012774413
0.012597251
0.009513424
0.004305918
-9.213531E-4
-0.0010140279
0.005298095
0.012987866
0.018460017
0.019974196
0.01547667
0.0055905124
-0.005784136
-0.017310632
-0.02943835
-0.03800156
-0.037538547
-0.030180348
-0.025939697
-0.026225815
-0.024169795
-0.023108093
-0.025582505
-0.029965186
-0.036573287
-0.03343183
-0.016085241
-8.789793E-4
0.0069913226
0.013100212
0.015173351
0.012562935
0.008264399
0.002158328
-2.940512E-4
0.006549459
0.025958192
0.070521556
0.120099396
0.12194162
0.08019871
0.038939796
0.0083291745
-0.014940139
-0.027577288
-0.030148292
-0.024483588
-0.013494672
-0.00268016
0.00159192
-6.182672E-4
-0.004988191
-0.013128234
-0.02607626
-0.03792665
-0.043296143
-0.04150332
-0.03320342
-0.0232421
-0.017411906
-0.01305517
-0.00844551
-0.0064802854
-0.0090739755
-0.014488995
-0.014274705
-0.0068210666
0.0035945477
0.014210618
0.01830643
0.018921139
0.019626861
0.0147080645
0.0071086544
-0.0011877652
-0.007776434
-0.0055975993
2.8055505E-4
0.0034867106
0.0048255557
0.007830824
0.01155494
0.008086653
2.0973764E-4
-0.0045713424
-0.005696368
-0.002875282
0.0053810133
0.016919121
0.020482752
0.016732562
0.01498567
0.008722774
-0.0010096031
-0.009253509
-0.015327696
-0.00877372
0.0030797245
0.008011793
0.013434128
0.020907875
0.02493669
0.020663705
0.007926851
-0.0073048673
-0.017806206
-0.014470673
-0.0047367923
-0.001313873
-4.4897824E-4
-0.002729388
-0.00960264
-0.0161715
-0.022728134
-0.028753538
-0.030427348
-0.024535064
-0.014846881
-0.008054924
-0.004584899
-0.0039599948
-0.0030155338
-9.6681475E-4
-0.004565781
-0.0132233845
-0.015067801
-0.0032622977
0.0108734025
0.019241074
0.026421145
0.02779219
0.02298244
0.01761493
0.007850162
-0.002793435
-0.00755538
-0.005416426
0.0022860204
0.008721459
0.012527669
0.016150607
0.018229261
0.01689232
0.008769237
-0.0020049533
-0.0054793516
2.8253434E-4
0.010633193
0.019185578
0.021693885
0.01918157
0.015686601
0.010408572
9.985451E-4
-0.007862758
-0.014112721
-0.016096253
-0.011894252
-0.009706743
-0.011160963
-0.012010959
-0.014128257
-0.016101232
-0.022772782
-0.037758157
-0.046464134
-0.042852927
-0.036237072
-0.029526016
-0.022445792
-0.01860526
-0.016961664
-0.0112636285
-0.0041129324
-0.0020991361
0.0015894828
0.013730377
0.028104533
0.03853775
0.04375826
0.045477107
0.045169346
0.039763447
0.02837371
0.014124513
0.0042747455
0.006103261
0.013123533
0.018815605
0.024340209
0.025087025
0.022011569
0.017253391
0.0068551255
-0.0033368652
-0.0091702975
-0.010951012
-0.008212912
-0.0083567435
-0.011664864
-0.0147462925
-0.021318197
-0.032247804
-0.049241014
-0.06103601
-0.05000832
-0.027955122
-0.00976211
0.005741815
0.012998251
0.010904703
0.006616824
-9.776552E-5
-0.0099611655
-0.021198506
-0.03368841
-0.038424622
-0.022489803
0.0019188044
0.014282647
0.021199994
0.02841618
0.029219016
0.026163695
0.019639717
0.013815888
0.017582024
0.024757894
0.030880721
0.034606393
0.030833542
0.024336759
0.017796567
0.0075453506
-0.004455542
-0.012565537
-0.012129258
-0.00668726
-0.004171939
-0.005256065
-0.006140383
-0.006773713
-0.009221432
-0.014188814
-0.023045434
-0.029327713
-0.026775029
-0.020785676
-0.011019177
-0.001322264
7.611708E-4
0.002470124
0.0035940667
3.812154E-4
-0.0046680765
-0.009213892
-0.006033699
-0.0011473234
0.0018869151
0.01089609
0.016182218
0.014231936
0.012170302
0.008612456
-7.4255664E-4
-0.014884093
-0.015035179
-0.0018117639
0.0025450115
0.003743742
0.007101052
0.0075126654
0.007946231
0.0041058776
-0.0047146035
-0.013472925
-0.016072473
-0.007986107
-8.538644E-4
-0.002866944
-0.004717881
0.0010141161
0.0067667477
0.0027053335
-0.005797521
-0.010338153
-0.010468307
-0.006771528
0.0020996998
0.011768054
0.014805516
0.016510013
0.016823983
0.009637208
0.0021863466
-0.007471585
-0.016622858
-0.01156866
-0.003665335
-0.0014472051
0.0027051552
0.004716271
0.002320848
-6.5013865E-4
-0.0061411527
-0.011973567
-0.010846709
-0.0032103285
0.0064627463
0.015336252
0.02005038
0.020806057
0.016000122
0.0068252897
-2.280233E-4
-0.007817625
-0.012693315
-0.010036967
-0.008167738
-0.007198719
-0.004773663
-0.001576324
0.002549374
3.6661844E-5
-0.008728381
-0.015790656
-0.01653216
-0.00829586
0.0024277098
0.008881087
0.010718063
0.009105678
0.003984906
-0.0068198796
-0.018999076
-0.027042095
-0.029243281
-0.024614673
-0.015910795
-0.0061756433
5.2992993E-5
0.0026029286
0.005480312
0.0053550466
6.933566E-4
-0.0071816477
-0.012353507
-0.0064510307
0.005014589
0.015574575
0.024005694
0.028745055
0.028580088
0.020750511
0.013177724
0.012387056
0.013623861
0.018334309
0.026686486
0.033825167
0.035125107
0.030330895
0.023434393
0.009383888
-0.009184524
-0.019827845
-0.026688416
-0.0338666
-0.031117698
-0.01887837
-0.011878932
-0.010103563
-0.0056843585
-0.003162616
-0.003902063
-0.011147189
-0.023202987
-0.022427734
-0.014164236
-0.012522987
-0.011105767
-0.0057934728
0.0015871841
0.001620519
-0.009554633
-0.018715601
-0.0226981
-0.021132616
-0.009907112
0.0032529286
0.011540871
0.016390162
0.021109818
0.02200564
0.012826566
-1.4901103E-4
-0.0061202794
-6.218495E-4
0.010675986
0.020770466
0.030741759
0.035977755
0.03166212
0.024009533
0.015607557
0.003002422
-0.007751865
-0.0067908308
-0.0011153155
0.0041572615
0.0127661545
0.014638454
0.0076232897
2.0741782E-4
-0.00845245
-0.018353341
-0.025280006
-0.021016646
-0.0126262335
-0.011976674
-0.009152293
-0.008170956
-0.01007056
-0.0027079454
-0.00245808
-0.014514545
-0.022031039
-0.016955527
-0.0022197575
0.0097548375
0.018901743
0.018569669
0.008164741
0.0038030401
-0.020203229
-0.06191305
-0.07530908
-0.06001651
-0.019506838
0.026888458
0.036749154
0.029096356
0.02938753
0.024966858
0.013673439
1.838776E-5
-0.011868067
-0.01044078
0.00639826
0.020336147
0.022406263
0.023799123
0.027192554
0.025090693
0.0131392535
0.0060788593
0.014032464
0.014876986
0.0074025784
0.0081151975
0.011240355
0.010830397
0.0037541909
-0.004369655
-0.011290795
-0.027554363
-0.03712755
-0.029403953
-0.022487996
-0.017404035
-0.00483951
0.0073932335
0.008509925
0.005360979
-0.0012744
-0.01758456
-0.02630739
-0.022660632
-0.019585595
-0.017429372
-0.01568973
-0.007680297
0.004903397
0.0075982255
0.0030102893
-0.002551674
-0.005868011
-0.00495361
-0.0016003038
0.008246151
0.023941437
0.03678006
0.038946357
0.033419933
0.02678481
0.011671355
-0.0089962175
-0.01845162
-0.014843971
-0.00924819
-0.005890694
0.0041273176
0.017015856
0.02059848
0.015532242
0.0029189608
-0.007688324
-0.0075761066
1.251063E-5
0.011047955
0.01380319
0.01152667
0.00883324
-0.0041345656
-0.012582109
-0.013648496
-0.024313482
-0.032586396
-0.026129184
-0.016244352
-0.014188013
-0.009066141
0.0014086613
-6.448199E-4
-0.005248803
-0.009223824
-0.021617444
-0.022995772
-0.013510858
-0.00313357
0.009530478
0.015985005
0.018829659
0.01938842
0.019819481
0.026255878
0.028008064
0.029841863
0.03675409
0.037757788
0.036166795
0.031481158
0.021740325
0.015663546
0.015303892
0.008567084
-0.015764862
-0.035515286
-0.031137453
-0.017580489
-0.0040572984
0.0034067498
0.0023813585
6.6082645E-4
-0.007949318
-0.024927944
-0.037874173
-0.039826848
-0.03649831
-0.033871315
-0.023274722
-0.0108752875
-0.005913356
0.0024312984
0.0034201925
-0.01173347
-0.02586647
-0.024879647
0.0010500518
0.028517757
0.024280986
0.008649469
0.010192401
0.021102348
0.024791742
0.022990992
0.020003183
0.011102196
0.009691716
0.020390999
0.025658976
0.02393964
0.018227091
0.0148771005
0.01221095
-0.003302765
-0.015643023
-0.015555727
-0.009884692
0.00670102
0.018823052
0.017165916
0.012903204
0.0032840467
-0.009998748
-0.021239148
-0.032809928
-0.040783
-0.034698926
-0.019014128
-0.013283932
-0.0130592575
-0.004183306
0.0045033647
0.0052605886
3.6555796E-4
-0.007839879
-0.016383968
-0.012321506
0.0038407915
0.0048182835
0.0014370822
0.011820025
0.005509847
-0.010096429
-0.0067233653
-0.002659126
-0.005971634
-0.0072127813
-2.7744134E-4
0.0150585985
0.022854334
0.023739055
0.025747102
0.021866817
0.012366391
1.256207E-4
-0.008229185
-0.0053802878
0.0037660983
0.017275153
0.03141862
0.038591936
0.034577504
0.014851027
-0.010257743
-0.025399132
-0.031798165
-0.029701555
-0.016833102
-0.0075861686
-0.007188156
0.0018918947
0.01317049
0.011732945
0.0049566906
-0.0066315406
-0.014890164
-0.014338603
-0.013218326
-0.0061451495
-0.005040849
-0.0062281517
0.011216107
0.019036118
0.004116959
-0.0149062285
-0.023937238
-0.018670691
-0.017149083
-0.0065097488
0.012588048
0.019275472
0.036445517
0.026190888
-0.025965843
-0.03786445
-0.021645566
-0.017622748
-0.0044304756
0.006792403
0.011186528
0.025291676
0.035639152
0.02078277
7.3616147E-6
0.0055318717
0.01585667
0.012205785
0.009513413
0.008210727
0.009617005
0.010314413
-0.0010163406
-0.016791774
-0.025874581
-0.027111908
-0.021363096
-0.008387215
0.004194592
0.011043505
0.01249051
0.0082948515
0.007749293
0.0036889107
-0.010626809
-0.016552038
-0.013850224
-0.0075443834
-4.1833418E-4
0.0023042196
0.009178265
0.011137094
0.0055906666
0.0019116295
-0.009259235
-0.016858099
-0.011406907
-0.003506308
0.0067528714
0.015043217
0.02070498
0.02539103
0.023175603
0.014732827
1.15709234E-4
-0.012097364
-0.011773446
-0.0076380684
-0.004475703
0.0014411353
0.006908373
0.009178972
0.0087157
-4.8036803E-4
-0.017359983
-0.027124705
-0.023413494
-0.012051102
-0.0070607527
-0.011956522
-0.011756644
-0.0030792747
0.0067413626
0.002894788
-0.020726047
-0.032394238
-0.018490138
-0.0017734298
0.008635849
0.010784302
0.0072293673
0.011565456
0.027431933
0.034306493
0.017312415
0.0047454573
0.012085488
0.017622625
0.018289538
0.017500738
0.019063253
0.028874649
0.030930407
0.02080442
0.008149171
-0.0046439497
-0.013508909
-0.018844137
-0.015806848
-0.008549495
-0.010528567
-0.0057355613
0.0016154952
-0.02019586
-0.048949093
-0.04590495
-0.025671586
-0.0161612
-0.01270704
-0.0036056826
0.00561155
0.01024675
0.0058771293
-0.0075124446
-0.016485943
-0.021828664
-0.02402319
-0.011044146
0.007840884
0.016946284
0.015632948
0.014075201
0.023415703
0.031425156
0.01996445
1.8253703E-4
-0.006571273
-0.0023426935
0.0044374475
0.016639713
0.025421169
0.028495034
0.034268565
0.029485509
0.013646664
-4.947483E-4
-0.009192379
-0.0047128103
-0.0020520468
-0.011926671
-0.016581057
-0.015045024
-0.013357947
-0.012367053
-0.012017862
-0.014286179
-0.02024918
-0.011040388
0.0023974592
-0.0050998162
-0.005446516
0.011447258
0.018889168
0.012577946
2.343777E-4
-0.008233322
-0.013565979
-0.019702394
-0.014641899
-0.0030340238
0.0026113384
0.0047483617
0.002241835
2.5565588E-4
0.004673705
0.0025906977
-0.005222922
-0.0069710757
-0.010736204
-0.011670563
0.0033632899
0.019957097
0.031190338
0.037919298
0.023711434
-0.0076019997
-0.026636273
-0.019889863
-0.0033452106
0.004251831
0.009875
0.021052232
0.024260635
0.014637951
0.003266761
-0.0028217095
-0.007774248
-0.018885234
-0.024331445
-0.011827199
1.7341893E-4
-7.08855E-4
-0.005211947
-0.00622444
-0.00862437
-0.02804719
-0.040907037
-0.01770042
0.007005109
0.01995799
0.028494064
0.016724525
0.017837657
0.03360333
0.0090089915
-0.026405541
-0.027151981
-0.01873602
-0.013249078
0.003914471
0.024180233
0.029376717
0.020204157
0.0031376455
-0.013748725
-0.020124609
-0.017669886
-0.0089837825
-5.426124E-4
0.005972018
0.018078424
0.014843471
-0.006544798
-0.015013494
-0.022857826
-0.040401295
-0.03203495
-0.0034050476
3.0793238E-4
-0.0081648175
0.00231399
0.00864752
0.007835522
0.014781458
0.009780918
0.0054436377
0.016388286
0.016044607
0.0043995753
-0.005522182
-0.010165708
-0.009901103
-0.011588467
-0.0030685205
0.010084541
0.0042448095
-0.00778606
-0.012918454
-0.012371189
-0.0032476548
0.005091382
0.0072151427
0.0104422085
0.01717153
0.023347134
0.021443926
0.015933255
0.022185085
0.033994988
0.03463179
0.028541805
0.023695385
0.019504631
0.013978052
-0.0020997676
-0.026911339
-0.0376318
-0.027642474
-0.015155136
-0.008098657
-0.005649732
-0.010531347
-0.013597713
-0.018474402
-0.039942697
-0.061782252
-0.07271405
-0.07539674
-0.07242211
-0.07959671
-0.06783464
-0.01051741
0.040767986
0.060427845
0.060374957
0.043256953
0.035859555
0.0457199
0.05296964
0.055538047
0.055187456
0.057503704
0.061528128
0.052146908
0.029896146
0.008567061
-0.0028545975
-0.005922553
-0.0064796354
-0.006516476
-0.0060916943
-0.0024742652
0.0017340162
1.0998223E-4
-0.009264364
-0.027106559
-0.04420831
-0.049194057
-0.04183604
-0.028065886
-0.018783493
-0.013404143
-0.0054327995
-0.001793645
-0.0044685956
-0.010143471
-0.013072299
-0.009014149
-0.0054516424
0.002406647
0.0094966665
0.0021379476
0.0015743485
0.0056875227
-0.0060439995
-0.012931629
-0.009257795
-0.0069810566
0.0012301957
0.013235643
0.021054516
0.025583807
0.027178705
0.023405282
0.013789903
0.0027363512
-0.0041472535
-0.0024403557
0.005513801
0.013031926
0.015628567
0.014625407
0.017434109
0.017701913
0.00601592
-0.00917618
-0.019940719
-0.022634074
-0.017226528
-0.0054192785
0.008189977
0.011163108
0.011775294
0.018388607
0.013914279
-0.0024256324
-0.01758346
-0.025212986
-0.02243943
-0.014617748
-0.007809983
-0.004101809
-0.0024932872
-0.0032896656
-0.009316993
-0.0225862
-0.041252177
-0.045063168
-0.022754006
0.004749075
0.01958772
0.023304598
0.028728487
0.028668975
0.008348118
-0.006860494
-0.008425964
-0.012816003
-0.007410682
0.004786603
0.0139109045
0.028265724
0.034338955
0.027407821
0.01726826
-8.339866E-5
-0.01378166
-0.014568742
-0.011402702
-0.0039728624
0.005817612
0.011137257
0.012281912
0.007868136
-0.0033801806
-0.01950802
-0.032820534
-0.033643242
-0.023918537
-0.01208838
-0.0024924513
0.005980628
0.012121406
0.011211694
0.0035222867
-0.010158196
-0.021352964
-0.019874163
-0.011642333
1.5963284E-5
0.011566514
0.017189223
0.020454548
0.016883187
0.009287655
0.0052956725
-0.002475294
-0.006826162
4.376507E-5
0.005473783
0.0055702487
0.008963226
0.0142933
0.0112734595
0.0012806567
-0.013288904
-0.023620455
-0.012279972
0.0011891676
0.0023485112
0.009621701
0.017898744
0.02012753
0.01718488
0.004174809
-0.010394792
-0.019684676
-0.018799016
-0.009217435
-0.0038372383
-0.00116939
0.0043058675
0.009176441
0.010706771
0.011071055
0.006575434
-0.005919277
-0.0089257145
0.002667147
0.0133833615
0.014901831
0.011097341
0.010437469
0.002661093
-0.005274527
-0.0052187718
-0.02258097
-0.028732631
-0.011894726
-0.015654424
-0.014655065
-0.003122577
-0.0033953672
0.010839671
0.017133286
-0.003915616
-0.020120833
-0.024727901
-0.016644739
-0.0026902943
0.006553577
0.017473137
0.022764834
0.021541417
0.021098739
0.01297355
-0.0019150854
-0.0071496554
0.0013688647
0.008910896
0.011677527
0.019027548
0.025036972
0.020197738
0.008421414
-0.007045617
-0.0215193
-0.020868009
-0.0078679025
2.3685904E-4
0.0043960963
0.007913161
0.007193097
0.0032733981
-0.004908902
-0.013688252
-0.017936196
-0.018068938
-0.012737138
-0.004704199
0.0028468405
0.009685707
0.011062074
0.0050176014
-0.0038043417
-0.013615584
-0.023291059
-0.024267612
-0.014644743
-0.0036379257
0.0058532488
0.014804968
0.021079121
0.020314435
0.012625999
0.0038141238
-0.0067452565
-0.010224129
0.0018046722
0.00957205
0.009955011
0.01776515
0.020889979
0.0123211
0.0013397727
-0.011781822
-0.020365609
-0.016420962
-0.0064614033
0.0041351756
0.012157348
0.015237555
0.017193971
0.0137704145
4.962888E-5
-0.013452192
-0.019450603
-0.019671919
-0.014238735
-0.007837448
-0.0043963236
0.0014487152
0.00904555
0.0096328305
0.0039310213
-0.001857469
-0.0068998346
-0.008660369
-0.0032449795
0.0049596126
0.010616285
0.01495956
0.018665718
0.019563988
0.012962456
-2.2174105E-4
-0.008994895
-0.013412635
-0.015918003
-0.008475647
7.705485E-5
0.0017510043
0.0067756297
0.008641349
-0.0030036638
-0.015193877
-0.017327266
-0.017401498
-0.018602276
-0.011549286
0.0023998385
0.012979653
0.01485884
0.008173624
2.5045334E-5
-0.0069420743
-0.012805843
-0.011865854
-0.0046605854
0.0046949536
0.016202727
0.026745636
0.02705738
0.01798932
0.010427734
-6.311796E-4
-0.014326309
-0.013176615
-0.001493285
0.009359812
0.019288657
0.025652112
0.026229503
0.017527994
0.0034551052
-0.006990343
-0.016689781
-0.023032608
-0.017974187
-0.008166816
-0.0040780283
-0.0048948806
-0.004175287
-0.0022755056
-0.005652732
-0.016306588
-0.02641245
-0.027637044
-0.020336328
-0.0070357625
0.0063014477
0.013360072
0.016453387
0.015386504
0.011127136
0.007333628
-0.0015188733
-0.008602256
-9.148914E-4
0.007981403
0.0077906353
0.009607041
0.014141824
0.014907551
0.009734564
-0.002760658
-0.015339716
-0.020084566
-0.014012278
-2.328608E-4
0.00953149
0.01601588
0.019843012
0.011216251
-3.423868E-4
-0.0077230316
-0.015562457
-0.015736401
-0.008621972
-0.0030985966
-3.2491412E-4
0.0039482755
0.014724615
0.020274235
0.013680778
0.0035995385
-0.010386008
-0.0174555
-0.010009748
-0.0034697836
0.0038220673
0.016248636
0.023118211
0.022087377
0.01180087
-0.0035189851
-0.013406599
-0.020527678
-0.024065705
-0.018357597
-0.011464159
-0.008521621
-0.0067391167
-0.0061465576
-0.002213008
0.0029603422
-2.5139152E-4
-0.004417169
-0.002909049
-0.0021699371
-3.785444E-4
0.0016810382
0.0016424686
0.008607518
0.014623788
0.0047528
-0.006109153
-0.0061836797
-0.004594086
2.0125485E-4
0.007087134
0.00887498
0.014941428
0.023977209
0.019842623
0.003750172
-0.012044108
-0.018311633
-0.011306599
0.0047816434
0.016369443
0.013883329
0.00975922
0.012088422
0.01069395
2.3158776E-4
-0.015380364
-0.019842835
-0.00962322
-0.0052134083
-0.0052366373
5.491676E-4
0.007450786
0.011576391
0.0028439723
-0.01594843
-0.027409403
-0.029539062
-0.022220757
-0.0077799065
0.0045639565
0.013335484
0.016593762
0.0135781625
0.009025844
0.0033655884
-0.00659583
-0.015594742
-0.010739604
8.879427E-4
0.005542968
0.011168691
0.017763035
0.017514434
0.0150183765
0.007990161
-0.007991352
-0.022319622
-0.017995441
0.002027821
0.013213066
0.013144423
0.015150644
0.015077219
0.011986864
0.007078189
-0.0071410416
-0.021369213
-0.020283245
-0.011301354
-0.005982931
-0.0017731349
0.0038650513
0.010574647
0.0138074355
0.0012294028
-0.019592665
-0.025634265
-0.01826916
-0.008467606
0.0037890195
0.0135518415
0.01656272
0.018058298
0.017887665
0.009254323
-0.007656612
-0.020870278
-0.017570924
-0.004109819
0.0049548508
0.009941777
0.009183335
0.0027561812
0.003686142
0.0028827281
-0.011457719
-0.021107389
-0.018346969
-0.009455148
0.004624439
0.015701486
0.020056505
0.021294296
0.017171774
0.0071236137
-0.0057543693
-0.015586873
-0.014497648
-0.0056565437
8.9447293E-4
0.005421475
0.0076595903
0.005869256
0.00937784
0.008426467
-0.012319411
-0.029746654
-0.02628818
-0.011930785
0.004881012
0.015719509
0.019590953
0.017769655
0.009079324
1.020105E-4
-0.01086512
-0.01994968
-0.015050552
-0.0036603692
0.0047285696
0.008765163
0.011281471
0.016772684
0.01728264
0.006275515
-0.010558165
-0.020448474
-0.017591879
-0.009162106
0.00512885
0.01630144
0.015084996
0.014603977
0.009599375
-0.003204211
-0.014282355
-0.03045375
-0.036040895
-0.022841254
-0.012534818
0.0024855314
0.02416252
0.031191383
0.027651742
0.01944464
8.80476E-4
-0.013033844
-0.010566332
-0.007336686
-0.0017381145
0.0121735325
0.013618453
0.009743532
0.013353082
0.0051517976
-0.009778872
-0.015802935
-0.016469233
-0.012020051
-0.0020781863
0.007835283
0.007399909
0.0028043545
0.005601136
3.1361182E-4
-0.015180562
-0.024390643
-0.02186862
-0.0076446105
0.003467124
0.006470424
0.012975044
0.01835974
0.01823948
0.010431736
-0.0033803042
-0.008431995
-0.0057718754
-0.0032603466
2.8009838E-4
0.003063175
0.0058968356
0.010637927
0.011477325
0.0017759787
-0.011901376
-0.020731095
-0.023988625
-0.015565706
-5.021244E-4
0.008947907
0.015296824
0.017747328
0.017095579
0.01340757
-4.072623E-4
-0.013704843
-0.015128914
-0.01020259
-0.0054110806
2.183582E-4
0.009116715
0.015496206
0.015740197
0.0060395747
-0.0116727725
-0.017871201
-0.010119252
1.8327835E-4
0.007539202
0.007670362
0.008472197
0.011426516
0.010192376
0.005102516
-0.0063757994
-0.017818017
-0.01973302
-0.01142084
-0.0020039554
-0.001297928
-0.001821661
-0.003964095
-0.0072218836
-0.006769803
-0.01612722
-0.018462244
-0.0013110122
0.0065303803
0.009483655
0.019301008
0.022088578
0.019579137
0.019371564
0.016423786
0.0051521673
-0.00582158
-0.013278439
-0.01922369
-0.01125717
0.0022001385
0.008496312
0.014943185
0.014944339
0.005337754
-0.0068844496
-0.018768093
-0.02333338
-0.016754627
-0.002557873
0.00663137
0.009863515
0.015430062
0.013912196
0.005949165
-0.005175765
-0.020500394
-0.021606147
-0.0099882325
-2.3838211E-4
0.008108344
0.009965388
0.010044903
0.013529404
0.008390684
-0.005297943
-0.016817633
-0.019413419
-0.013436632
-0.005724384
0.0047444496
0.016016122
0.016461696
0.011841884
0.010359262
2.390144E-4
-0.014031152
-0.01556908
-0.009418876
-0.0019099076
0.0042299605
0.007858343
0.01723273
0.021316433
0.009069527
-0.0059618433
-0.018019473
-0.018744947
-0.0061734384
-0.0023395196
-5.6945335E-4
0.011743864
0.016381556
0.012098125
0.005720012
-0.0048751873
-0.012454688
-0.013944126
-0.010612659
-0.005508411
0.0019560365
0.013141903
0.012264738
0.0040591406
0.0012916246
-0.0119521525
-0.026019843
-0.022898313
-0.013666831
8.385898E-5
0.013965262
0.018338297
0.019564696
0.019738585
0.014661357
0.0021933636
-0.012480866
-0.01811256
-0.01238544
-0.0028450277
6.904399E-4
0.0030623777
0.012318163
0.016004084
0.010432069
0.0025042782
-0.011799838
-0.024819655
-0.021728128
-0.0083597
0.0021258171
0.010174702
0.016123677
0.015676545
0.013891432
0.007609127
-0.006508099
-0.012903483
-0.010767424
-0.007806791
-0.0026631954
5.4904516E-4
0.004029438
0.00864163
0.009738019
0.006086577
-0.0066628833
-0.015523319
-0.010730002
-0.004268906
0.006211621
0.0152615355
0.011428654
0.0068605356
0.0014554489
-0.0093122795
-0.019306298
-0.028545601
-0.02667238
-0.010048872
0.005386066
0.015144805
0.022645397
0.025485411
0.017738584
-1.6478726E-4
-0.014963922
-0.017982712
-0.012112011
-0.0017463254
0.009893163
0.018299231
0.02049718
0.01740072
0.0091160145
-5.4306915E-4
-0.0104401205
-0.020029014
-0.013621512
0.0015326532
0.0023206298
0.0035185523
0.012174765
0.011473422
0.004239748
-0.0070689144
-0.021427197
-0.027075494
-0.0208688
-0.0086858
0.0024435287
0.01622699
0.028435644
0.019110503
0.0024790054
-6.737363E-4
-0.005129208
-0.014101674
-0.016644469
-0.011452012
-0.0016943848
0.003395305
0.0066865524
0.013764189
0.01038927
-0.0053667314
-0.016967108
-0.016971959
-0.007988441
0.0018471606
0.008714922
0.016722966
0.020199388
0.01587884
0.015950426
0.012470116
-0.008939751
-0.024954021
-0.018529112
-0.0071451464
-9.998945E-4
0.003269645
0.006666908
0.007807999
0.0057065655
-2.3511678E-4
-0.01047867
-0.018260483
-0.016091608
-0.0052997055
0.008288309
0.016964313
0.019013064
0.01703608
0.009079744
-0.0044410233
-0.01638003
-0.019866122
-0.015696755
-0.004219277
0.010492244
0.012035478
0.0070201433
0.013007932
0.0143882
5.6753626E-5
-0.015961941
-0.023330035
-0.020166924
-0.009744901
0.002482857
0.008783575
0.010845244
0.017998362
0.019104771
0.0079534305
-0.0037400357
-0.015059117
-0.01763761
-0.006319568
0.001292311
0.004226833
0.008606251
0.009418768
0.008466867
-0.0016996373
-0.022359293
-0.028434157
-0.013878669
0.0037245238
0.015300588
0.01908706
0.019001277
0.017168215
0.0067046327
-0.010807418
-0.020859525
-0.014946182
-0.0041447096
-0.0031982446
-0.0042918376
0.0037699284
0.012211846
0.01465019
0.010945319
-0.001081516
-0.012526367
-0.017172946
-0.016054532
-0.004076142
0.01032792
0.015699627
0.018508844
0.018304098
0.010578173
-0.0013146149
-0.014179914
-0.018822672
-0.015347434
-0.012291905
-0.0023260745
0.011911218
0.01600451
0.016372137
0.015714891
0.002553689
-0.014309789
-0.019942671
-0.018357556
-0.011687558
-0.0017965753
0.0014626909
0.0030718406
0.008934082
0.010636511
0.00950817
0.005242501
-0.010681541
-0.02273973
-0.014327061
-0.0017347034
0.004127905
0.010957248
0.014588694
0.012596811
0.0070806257
-0.007969152
-0.022273114
-0.021362102
-0.008644272
0.00820449
0.019388659
0.022406103
0.02019731
0.012959794
0.00497069
-0.007957435
-0.02041596
-0.016132453
-0.0060326685
-2.2905997E-4
0.004116345
0.0056915986
0.010597686
0.012816325
0.0039894837
-0.0071722255
-0.019227874
-0.024234243
-0.012765662
0.0017024727
0.0120510375
0.018867206
0.016425312
0.010573393
0.004890505
-0.008281543
-0.01900083
-0.01515687
-0.0060023377
-4.1489565E-4
-0.0016696871
-0.0038487955
0.00449704
0.012962849
0.009387641
-0.0021901547
-0.016269505
-0.021206064
-0.0091758855
0.008163081
0.016207479
0.018429972
0.02097542
0.015716912
0.0043163016
-0.006090088
-0.015100847
-0.015262219
-0.008044151
-0.0012553472
0.004045841
0.0075016147
0.011772947
0.010291343
-0.0028481784
-0.018834695
-0.02766321
-0.02050389
-0.003955727
0.008265709
0.016044246
0.01743018
0.013890105
0.01058208
0.001486817
-0.0132848825
-0.021418849
-0.018121595
-0.007938438
0.005325829
0.012970391
0.013185319
0.013357042
0.007601907
-0.0016150511
-0.007780764
-0.015030205
-0.012820803
-0.0022486658
0.0070796004
0.017071823