-7.5161067E-4
0.0013203615
0.0025887827
3.2960335E-4
3.2667756E-6
0.0025824595
0.0026886454
0.001093672
-0.0019649726
-0.004894896
-0.0013484275
0.0038667687
0.0034442248
0.0014361956
0.0019222846
0.0028574953
0.0015361945
-3.369544E-4
-0.0013878638
-0.001930738
-3.9467408E-4
2.810813E-4
-0.0014608785
-9.3272707E-4
0.0017573994
0.002091942
-4.2808146E-4
-0.0014098992
-0.0021723255
-0.0050851665
-0.003451571
3.1273696E-4
9.3766296E-4
0.0023685922
0.0016183809
-1.2825678E-4
0.0012294013
-6.7784457E-4
-0.0033727943
-0.0023936569
-0.0017835941
-4.711734E-4
0.0014523331
0.0014507886
0.0012367046
0.0016289088
0.002397265
0.002468331
4.068E-4
-0.0013328932
-1.5275298E-4
0.0010646832
6.7702174E-4
0.0013863324
0.0014608755
7.180005E-4
0.0020406614
0.0011748025
-0.0013009293
-0.001457164
-0.00229146
-0.0015209436
9.610371E-4
1.7931508E-5
-9.1994274E-4
-5.487133E-4
-0.0010947783
-0.0014594661
-0.0024522236
-0.0030850056
-0.0017364653
3.0177837E-4
0.0013966712
9.972386E-4
0.0017189126
0.0026909423
7.516403E-4
-0.0016581271
-0.0024584935
-0.0011792105
6.6346815E-4
4.497462E-4
7.525689E-4
0.0019463164
0.0014240574
4.0939183E-4
-1.8538213E-4
-4.8442915E-4
-0.0010416209
-0.0017044113
-7.507566E-4
9.0737356E-4
0.0018365028
0.0022077728
0.0022422022
0.0018764073
2.672615E-4
-0.0016349514
-0.0012119133
6.2318565E-4
4.7511832E-4
-3.19263E-4
1.9207291E-4
-1.8198651E-4
3.0590495E-4
0.0015837245
2.7620562E-4
-2.2490021E-4
-4.8179914E-5
-0.0010200648
-0.0012782029
-0.0020845435
-1.3876909E-4
0.0024402766
-6.202502E-4
-0.0017823387
-5.530874E-4
-0.001821159
-0.00212237
-0.0035369266
-0.0035776705
3.1709447E-4
0.0010157338
0.001094903
0.0026042697
0.001867196
0.0017747745
0.0013320525
-6.149886E-4
-0.0010006563
-2.602172E-4
0.0013196591
0.0018602624
4.1895293E-4
4.0718965E-4
0.0015520903
0.0016907884
4.913504E-4
-0.0012977399
-0.002091743
-0.001890115
-0.0010850658
-5.323982E-5
8.9639355E-4
0.0022184893
0.002772203
0.0014199673
-0.0010177877
-0.0025949758
-0.002660837
-0.0017937089
7.206774E-4
0.0024470512
0.0019885518
0.0028602313
0.0029863238
8.9911924E-4
1.2996432E-4
-4.4906916E-4
-0.0015559272
-0.0016654175
-0.0018866406
-0.0026723775
-0.0017463006
0.0010271539
0.0011736746
-9.448919E-4
-0.0024006509
-0.0040561846
-0.0032168338
-3.299943E-4
6.429694E-4
0.00112583
0.0011602655
0.0013868908
0.0026102243
0.0016258233
-5.8108405E-4
-0.0015434619
-0.0015518822
-3.2137515E-4
0.0019661658
0.002496386
6.501421E-4
0.0010195706
0.0020905572
9.83104E-4
9.288786E-4
-2.1430077E-4
-0.0020256655
-9.709731E-4
-3.685776E-4
1.7805897E-4
0.0016911827
0.001793684
6.1019155E-4
-9.0420694E-4
-0.0015450664
-0.0023710353
-0.002109834
4.3903844E-4
7.728355E-4
6.87527E-4
0.0023488214
0.0024165146
0.001319322
-4.3837182E-4
-0.0018605855
-0.0026833026
-0.0036502038
-0.0018475426
7.6357456E-4
0.0013280051
0.0015013405
-2.1671502E-5
-0.0016613163
-1.5385779E-4
3.475203E-4
-0.0019945868
-0.0027000133
-0.0016403943
-1.20008444E-4
0.0023078648
0.0029008754
0.0022667393
0.0020779686
0.0011189933
0.0012575999
4.5116563E-4
-0.0019419004
-3.699695E-4
0.0023368832
0.0021036267
0.0010129024
4.718464E-4
8.5610966E-4
4.3873198E-4
-8.8599935E-4
-0.0018197092
-0.0026677202
-0.0025250767
-0.002661253
-0.0029184541
-0.0010018318
2.7951034E-4
6.637954E-4
0.001874433
7.6365075E-4
-0.0015805451
-0.0011090339
2.810269E-4
8.011617E-4
0.0014330382
0.0011725875
9.667333E-4
0.0023930164
0.0021130734
5.89166E-4
7.041183E-4
-1.8945972E-4
-5.7254854E-4
0.0022410701
0.0035321976
0.0018902676
2.6041025E-4
-9.527103E-4
-0.0018555882
-0.0023540314
-0.0031307894
-0.0046962737
-0.0049673114
-0.0027051775
-6.4709585E-4
8.207646E-4
0.0020131723
0.0019238113
0.0019289863
0.001327762
-4.3461074E-5
-4.7036711E-4
-0.0010689917
-8.3064236E-4
1.9417105E-4
1.3961314E-4
8.946921E-4
0.001448747
9.428992E-4
0.0014264509
0.0015905938
0.00158702
0.0021139146
0.0012886741
-2.5170966E-4
-9.5269625E-4
-7.942708E-4
1.5085768E-4
9.940292E-4
5.2721403E-5
-0.0022893967
-0.0041815354
-0.0042316383
-0.0016780643
3.2359743E-4
5.798965E-4
0.0021707877
0.0027788281
0.0014115068
8.068527E-4
4.597015E-4
2.925719E-4
-0.0010047641
-0.0020056372
5.2260444E-4
0.0018920734
9.449503E-4
6.558957E-4
-2.1139724E-5
2.6193343E-4
0.0014173234
0.0013807392
4.821333E-5
-0.0016152373
-2.1080778E-4
0.0021580693
0.0019987924
0.0012793192
-0.0011344642
-0.0029687078
-0.0014201837
-9.083575E-4
-8.46483E-4
-6.407779E-4
-0.0010138412
6.33814E-4
5.8265886E-4
-9.3692954E-4
-4.8183836E-4
-0.0016543414
-0.002966174
-0.0026409286
-0.0024681971
-0.0015582434
-4.3068282E-4
0.0010829096
0.0011373747
9.3055354E-7
0.0016652544
0.0015703846
-5.296095E-4
-4.8868486E-4
-0.0013464649
-0.0012525796
0.0011661955
0.0023063393
0.0013336042
2.1321778E-4
0.0022380436
0.003865298
0.0031899093
0.0034855702
0.0027786973
0.0029838067
0.003974757
0.0029906672
0.0032031166
0.0010201201
-0.003088904
-0.0032385518
-0.0023336015
-5.2005204E-4
0.0019529293
0.0023617835
0.0020423261
0.002107831
0.0030583807
0.0011434957
-0.0034838198
-0.0056056767
-0.008329718
-0.012776189
-0.017234305
-0.018796558
-0.010373468
3.748474E-4
0.0028319578
0.0025696296
0.0055179317
0.010274931
0.009866198
0.001775745
-0.0065359273
-0.010424346
-0.006689893
0.0044584954
0.01266886
0.013937659
0.014223892
0.013542743
0.009143376
0.004232629
4.233011E-4
-0.0016944292
3.4940825E-4
0.002228892
0.0012507748
6.0048705E-4
-0.0015014786
-0.003952365
-0.0036929273
-0.004524703
-0.0064508016
-0.0065947897
-0.00669189
-0.005889585
-0.0016258946
0.0017220518
3.4589894E-4
-0.0010930591
-0.0021881284
-0.0056630536
-0.0057874965
-0.0028340658
-0.0026721668
-0.0015704765
0.0014826095
0.0024001726
0.0022429319
0.0019756241
0.0013831656
1.3702268E-4
-7.1807904E-4
0.001505835
0.0037996494
0.004661725
0.0057635214
0.0039374274
0.0017693767
0.0038032862
0.005738677
0.003230621
-0.0028609526
-0.0041454844
0.0025441437
0.0066051455
0.005492716
0.0027622906
-0.0018930683
-0.0038075866
-0.0025883142
-0.0030841744
-0.0049848473
-0.0055122334
-0.0018576756
0.002309278
0.001663766
0.0011147454
0.0037147868
0.003257046
-4.32903E-4
-9.485697E-4
-0.001872679
-0.0051149293
-0.003739982
-0.004317844
-0.009002863
-0.0073648077
-0.0049935495
-0.0041965973
-1.4717746E-4
4.0783334E-4
-0.0012006814
-3.92849E-4
0.0016324474
0.0048151347
0.0041269693
9.1971253E-4
-6.955506E-4
-0.0036400943
-0.002851988
0.003693866
0.007299427
0.006530374
0.0072574187
0.011275084
0.014330544
0.015815161
0.016068893
0.009942769
7.0051185E-4
-0.0045910683
-0.008051363
-0.010746029
-0.0107905725
-0.009577365
-0.0071864184
-0.0033557974
-0.0040312046
-0.0095623
-0.010393789
-0.0070782555
-0.0039045098
5.2409235E-4
5.2566495E-4
-0.0036870292
-0.003937049
-0.0020178
-1.602744E-4
0.0019662254
0.0024713047
0.0029478932
0.004930013
0.006947462
0.0069834953
0.006541535
0.0069569033
0.0035015193
-6.568137E-4
0.0012861597
0.002269849
-0.0010663916
-0.0018345001
-9.4460085E-4
-0.0020626148
-0.0031507544
-0.0035102486
-0.0032548087
-0.0010363512
8.153467E-4
-3.475018E-4
-0.0018809742
-7.309444E-4
0.002133092
0.0036288279
0.0032494618
0.0028403357
0.0027558475
0.00267868
0.0012157398
-0.002101139
-0.003895947
-0.00350487
-0.0029895692
-0.0018889791
-6.7964336E-4
-4.560174E-4
-3.4158293E-4
-2.7946947E-4
-5.2400265E-4
-8.090562E-4
-0.0020934108
-0.0029533575
-4.5961724E-4
0.0015626553
4.3244945E-4
0.0015021585
0.003439798
0.0016175001
6.421174E-4
0.0018553134
0.0012572098
3.6135866E-4
0.0011542002
0.002874473
0.0046860157
0.0045063426
0.0010622096
-0.0037320526
-0.005800205
-0.004159666
-0.003249758
-0.0037942256
-0.0029377656
-0.0020071696
-0.0011695361
0.0010394518
0.0026864647
0.002249731
7.55402E-4
-2.7379452E-4
-0.0011315111
-0.0018253999
-0.0010623991
1.4424561E-4
0.0014473133
0.0017329007
-1.6659424E-4
-3.6274586E-4
2.2885182E-4
-4.4049503E-4
1.8570395E-4
-8.8922295E-4
-0.0023994124
3.8282387E-4
0.002344721
0.0011704843
8.186416E-4
0.0020324264
0.002256422
0.0010129615
9.3026867E-4
1.1899182E-4
-0.0018765094
-0.0013833393
1.03601604E-4
0.0020102886
0.0037749286
0.0031080013
0.0031986898
0.0041371565
0.002532391
-5.3505274E-4
-0.0031842715
-0.0035826217
-0.0010094122
0.0014839639
0.001121768
-3.865909E-4
-0.0015000312
-0.0039586145
-0.0048319837
-0.0018600553
-8.8491215E-4
-0.0011588252
8.690103E-4
-0.0011107587
-0.004847834
-0.0022539706
2.4257507E-4
-0.0010281736
-0.0016869897
-0.0023878673
-0.0015257006
6.9553877E-4
0.0016134885
0.003459403
0.0037522414
0.0014792603
4.4911678E-4
-5.144563E-4
-0.0012915812
-0.0012018244
-6.3031854E-4
6.697804E-4
0.0010022713
0.0019958278
0.0036119707
0.0040063774
0.005395746
0.005361299
0.0028880537
0.0023249066
0.00259337
7.12051E-4
-0.002041968
-0.0018894003
-1.0407077E-4
-9.120042E-4
-0.002003486
-0.00296839
-0.0049344255
-0.004714945
-0.0038462025
-0.0030293425
-7.718571E-4
-7.725784E-4
-0.0018130355
-6.009057E-4
-6.974159E-5
-8.089333E-4
-0.001446553
-0.002326951
-0.0025671548
-0.0012414117
0.001649902
0.004281273
0.0046168864
0.0041082073
0.0036651774
0.002583531
0.002026354
0.0024463017
0.002344745
0.0012642329
0.0011249679
0.0015383395
-9.498034E-4
-0.0030232104
-8.73059E-4
-5.997517E-4
-0.0026981705
-0.0014016877
4.360634E-4
8.0025767E-4
0.0014536937
9.522754E-4
-8.9484645E-5
-0.0017116574
-0.004163655
-0.0043770513
-0.0029707
-0.0016351586
-0.0012356654
-0.0015810801
4.189692E-4
4.4992642E-4
-0.004180715
-0.004158728
3.8834356E-4
7.88737E-4
-5.941529E-4
5.597863E-4
0.0014363457
8.1992865E-4
8.7420765E-4
0.0020481509
0.0023133212
0.0012284631
0.0026464919
0.0069382754
0.008956676
0.0067285392
0.0015465437
-0.0017135815
-0.0010465309
-0.0022368103
-0.0018299714
0.004186527
0.00797639
0.007875884
0.0035580646
-0.004699345
-0.009220508
-0.010626261
-0.009187534
-0.0035870005
-0.0014133411
-0.0020069794
-0.0019006727
-0.003854917
-0.0063491724
-0.0069425004
-0.0038063354
0.0014297873
0.004327878
0.0053657917
0.0033813482
-4.6036748E-4
-1.13803486E-4
0.0028101401
0.004732232
0.0054195398
0.0037543722
0.0014043689
7.3081645E-4
-4.8382768E-5
-0.0014198377
-9.682696E-4
-8.022918E-4
-0.0023667784
-0.0011067829
0.0019322445
0.0037057514
0.004488459
0.0018818261
-9.774469E-4
-9.251457E-4
-0.0019788027
-0.0031487823
-0.0031980579
-0.0032989471
-0.0012729389
0.0025493416
0.005326186
0.0052912906
0.004956068
0.006660937
0.006487422
0.0041284
0.0026614473
0.0018013563
-5.6261077E-5
-0.003985205
-0.0072184545
-0.008043774
-0.00762105
-0.0077982186
-0.010283949
-0.009918782
-0.006062237
-0.0040086475
-0.003989519
-0.0072527225
-0.006370045
0.0034702166
0.008612231
0.004929421
-0.0018976633
-0.0076374365
-0.008909459
-0.00804934
-0.0027584264
0.005818987
0.01242604
0.01760203
0.017292336
0.01561715
0.016775774
0.013027062
0.007168653
0.0017639931
-0.0028294846
-0.0016181284
0.0020274983
0.007016783
0.00960871
0.0046930555
8.953226E-4
-0.001137179
-0.008796776
-0.018395629
-0.019119497
-0.010023
-0.0072189574
-0.013781452
-0.01558317
-0.011037953
-0.0055328947
-0.0020748207
-0.0016506283
-0.0014159245
-5.888407E-4
0.0017675015
0.004744979
0.004417193
0.0034188477
0.004152516
0.0049284305
0.007234625
0.008621215
0.0050299726
0.0027013773
0.005156135
0.0037901716
-0.0035943813
-0.0076375026
-0.0060663023
-0.0064808037
-0.009982774
-0.012355217
-0.015489971
-0.019284356
-0.01773633
-0.0107061975
-0.0031283377
0.003511299
0.008135351
0.0102180615
0.015179625
0.022218894
0.027118549
0.033713512
0.03612667
0.02864613
0.018366577
0.0067398753
-0.0030715426
-0.009482694
-0.016528314
-0.019246746
-0.019880548
-0.023297075
-0.024535837
-0.025513178
-0.02939948
-0.03407925
-0.036490973
-0.03469289
-0.03217742
-0.030993465
-0.028991949
-0.021548249
-0.009536483
-9.3950354E-4
0.008000646
0.02152107
0.031746518
0.038627706
0.04728199
0.055374496
0.058506835
0.05638704
0.053216267
0.0501204
0.041230615
0.02557453
0.014553877
0.012088714
0.00680238
-0.007017525
-0.024963725
-0.043088134
-0.06408534
-0.08232777
-0.082543
-0.072556205
-0.06449109
-0.050297163
-0.025746036
0.003510681
0.032658227
0.0627885
0.0899291
0.105938055
0.108474776
0.09862367
0.086263865
0.06870693
0.03732269
0.0023082257
-0.032534767
-0.067603946
-0.10882409
-0.15344924
-0.17572379
-0.17432196
-0.15732785
-0.13619736
-0.122589454
-0.101005174
-0.07928929
-0.05599312
-0.024910536
-0.020617759
-0.02275977
0.012564785
0.07723259
0.13274726
0.14590183
0.15995893
0.21993145
0.2729501
0.22888356
0.12665084
0.13623366
0.20450437
0.1692059
0.1359614
0.1815862
0.22557625
0.18130873
-0.0013405065
-0.13360304
-0.12253926
-0.20145686
-0.38431793
-0.48214728
-0.4450811
-0.31200916
-0.14386815
0.0137737915
0.08848448
0.062167324
0.013182235
-0.028782768
-0.025891945
-5.496157E-4
0.003641967
0.045577385
0.053502683
0.01485504
0.016369043
-0.044337694
-0.096840486
0.0050161644
0.1380462
0.2250418
0.23320277
0.11623585
-0.060294673
-0.17501867
-0.12401485
-0.048147395
-0.12044012
-0.19246052
-0.17361005
-0.14187989
-0.085820146
0.023806091
0.1668387
0.26600274
0.26749527
0.2326104
0.17579079
0.015602435
-0.18985301
-0.19179076
0.053517252
0.2700725
0.34602132
0.34708193
0.2764781
0.2384404
0.25260615
0.1825444
0.054178905
-0.083669744
-0.18863004
-0.22757651
-0.3217064
-0.38467267
-0.28029162
-0.1776784
-0.1553733
-0.18888403
-0.2666989
-0.29900455
-0.27842593
-0.214552
-0.1307998
-0.09523512
-0.08400075
-0.0845167
-0.08137909
-0.05771684
-0.01745244
0.10163295
0.23129721
0.27327228
0.2827053
0.27577645
0.24829836
0.20457405
0.17070606
0.19549075
0.20798245
0.175456
0.15295272
0.12697226
0.09023136
0.06784753
0.070704766
0.05057512
-0.04383728
-0.14623426
-0.20288332
-0.21635322
-0.17160729
-0.113686554
-0.082026795
-0.045298338
-0.012165316
-0.011765945
-0.032467972
-0.06975176
-0.105162136
-0.096302204
-0.061288826
-0.042464916
-0.033580918
-0.02332799
-0.022053994
-0.043509543
-0.07016821
-0.05905832
-0.014745464
0.020138854
0.033205975
0.037570152
0.04022919
0.04244996
0.045205973
0.046792056
0.04546415
0.04259908
0.041554626
0.04336992
0.04417774
0.040038567
0.03301136
0.027751718
0.024952058
0.02467258
0.026289375
0.026639875
0.025243338
0.020094601
0.009474364
-0.0013470037
-0.010290057
-0.01842649
-0.024630312
-0.026732676
-0.025705505
-0.027606305
-0.028072227
-0.024141584
-0.023500524
-0.022365035
-0.020329658
-0.020017657
-0.016858187
-0.015532657
-0.013839812
-0.00763489
-0.0043326276
-0.0025245056
-0.0011686846
-0.0016924528
4.139427E-4
0.0029952787
0.0036009653
0.0049348716
0.0092987
0.016374366
0.022474576
0.025348619
0.025112536
0.022203697
0.01861151
0.015188377
0.008874165
-2.786724E-4
-0.004803481
-5.5171456E-4
0.008787988
0.018921765
0.026789002
0.024852222
0.00929665
-0.0057099764
-0.012602193
-0.01953857
-0.022771023
-0.021559399
-0.020483
-0.010407009
0.0043309783
0.008741043
0.0038437753
-0.0031000488
-0.0062756
-0.0052620377
-0.00406526
-0.0036282477
-0.0044507715
-0.005486821
-0.0045634555
-0.0023920818
-0.002164397
-0.005282182
-0.0078310305
-0.0075998222
-0.006086162
-0.0046176915
-0.0038283297
-0.0023974956
-0.003019645
-0.0067717233
-0.0051505775
0.0015673109
0.0049003526
0.005885452
0.007517062
0.0104023
0.0138359545
0.012386816
0.008360281
0.009024285
0.009896028
0.008271441
0.0099096615
0.0132528
0.014724145
0.01498881
0.012260383
0.006875915
0.0012448999
-0.0045805112
-0.008039942
-0.009246883
-0.011051156
-0.009414228
-0.0062333466
-0.008674384
-0.011219781
-0.01037331
-0.009860494
-0.008978532
-0.009591955
-0.00980992
-0.004939873
-0.0012039944
-0.0017728263
-0.002161505
-9.375119E-4
0.0022251701
0.0067718416
0.01009718
0.0086216
0.0023477569
-0.003179772
-0.005545494
-0.005140208
-0.0014247908
0.0026310415
0.0042579104
0.0047045005
0.004785419
0.005006743
0.006618487
0.008155734
0.0072885416
0.005315699
0.004809448
0.0060181934
0.0063949446
0.0039944844
0.001251027
6.6991313E-4
0.0014608391
0.0019392704
7.351891E-4
-0.0012886294
-0.0018023743
-8.9455483E-4
1.7975384E-4
4.0430322E-4
-0.0010588728
-0.0020318034
-0.0014762869
-0.0022570023
-0.004092883
-0.0049599214
-0.0042783753
-0.0018034878
0.0010108026
0.0036808902
0.0052890275
0.004170428
0.0011343587
-0.002170182
-0.0019890133
8.505717E-4
0.0017961791
0.0028607647
0.0034410118
0.0015771737
3.8467557E-4
4.019229E-4
4.1329092E-4
-0.002529968
-0.0069993604
-0.0064829127
-0.002964863
7.1454846E-4
0.004065117
0.0046727895
0.0051226397
0.006611527
0.008068686
0.010350923
0.011385428
0.01009023
0.007901249
0.0063552377
0.0053824214
9.57576E-4
-0.007213999
-0.013113302
-0.013928163
-0.012085078
-0.010713251
-0.011575933
-0.011391836
-0.0066240374
-0.0025799412
-0.0035085087
-0.006422825
-0.0075403885
-0.0048353598
-0.0013968835
7.938858E-4
0.0031085135
0.0044453847
0.0067962785
0.010370998
0.011112103
0.010792817
0.012236935
0.013194602
0.012761834
0.015903702
0.020754365
0.01947481
0.016451374
0.012354411
0.0010716295
-0.010423888
-0.016784906
-0.019827973
-0.020980678
-0.021949498
-0.020778183
-0.018809829
-0.017765623
-0.01584397
-0.014888538
-0.013568541
-0.0107814185
-0.008766816
-0.0069091236
-0.0061362265
-0.005788294
-0.0035390074
2.7559852E-5
0.0039407257
0.007153337
0.010368795
0.012912039
0.0133704515
0.013567295
0.014049247
0.015776826
0.017668445
0.017540338
0.017939918
0.018133536
0.01817849
0.019543316
0.017629689
0.011782529
0.0036825598
-0.0050038323
-0.009411238
-0.0102268085
-0.00948617
-0.008183825
-0.00953878
-0.011752362
-0.0124745155
-0.013889235
-0.016527856
-0.017326832
-0.01551272
-0.014792229
-0.014664303
-0.013552362
-0.014067402
-0.014315771
-0.011761824
-0.007635586
-0.0033774518
-9.0748986E-4
0.0012675393
0.0037918044
0.004680064
0.006784205
0.010081211
0.011466792
0.013387954
0.015752131
0.015491448
0.013847907
0.012593287
0.011857873
0.010507704
0.008945445
0.008646978
0.00621673
0.0021911317
7.0170296E-4
-6.5371685E-5
4.270893E-4
0.0014585406
0.00114118
0.0021463225
-1.6107703E-4
-0.00518571
-0.0054424126
-0.0050130063
-0.0060413987
-0.007824898
-0.010147108
-0.009001854
-0.008746525
-0.009552943
-0.0064371666
-0.005067461
-0.005540667
-0.0036563622
-0.0026914878
-0.0028051853
-7.323586E-6
0.0035395743
0.0035600492
0.00467102
0.007009936
0.005437127
0.0047775814
0.0049259625
0.0032566837
0.0027857188
0.002037135
0.0026316736
0.003408134
0.001708204
0.0024186946
0.0029124767
0.002301935
0.002426655
-0.0015301857
-0.004959198
-0.0040385006
-0.0022527997
-2.5484973E-4
-7.299726E-4
-0.0017852637
-0.0011162374
-0.0015097888
-0.0010626938
-0.0011182633
-0.0029982538
-0.0017212081
0.0011414203
0.0028111706
0.0047158417
0.005394249
0.00485937
0.0047797393
0.0034455045
2.1085168E-4
-0.0020101184
-0.0012183292
7.5182336E-4
0.0016523347
0.002294579
0.0028616304
0.002235015
8.210648E-4
-0.0019557776
-0.0046576974
-0.0046794387
-0.004486966
-0.0028548548
9.5964177E-4
-5.264816E-4
-0.0049847546
-0.0048486036
-0.0030402553
-0.0023141033
-0.0020314495
-0.0014060893
-1.6705321E-4
-2.4651643E-4
-5.9875386E-4
4.593357E-4
0.0017639815
0.0028798082
0.0037123093
0.0026933819
-9.443996E-4
-0.002781681
-9.312739E-4
5.2854465E-4
0.001398701
0.0014428633
9.4830437E-4
0.00225088
0.0019854144
2.9571858E-4
-5.6117494E-4
-0.0019771287
-0.0013356503
7.8638614E-4
0.0011503109
4.1244496E-4
2.408099E-4
0.0020931934
0.0025494527
8.9203403E-4
-9.555157E-6
-0.0023039456
-0.003171972
-2.5050656E-4
0.0016696372
0.0012932491
-3.5787976E-4
-0.001311859
-0.0017467028
-0.0026660115
-0.0019602464
-0.002778009
-0.004861833
-0.00384508
-0.0031837197
-0.0027565253
-8.9405E-4
-4.4958355E-4
-1.210551E-4
4.8901077E-4
1.4674956E-4
-1.1769623E-4
1.8106993E-4
0.0018466879
0.004029693
0.004561374
0.0032337562
0.0023205637
0.003097731
0.002016155
-4.055622E-4
-6.844873E-4
-0.0015856688
-0.0026033726
-8.7597955E-4
8.235621E-4
7.18304E-4
-2.9210644E-4
-2.9012398E-4
2.635501E-4
-0.0010452005
-0.0016480865
-0.00133725
-0.0025792443
-0.00220423
2.0997203E-4
0.0017313451
0.0018748002
4.5865358E-4
-6.1119284E-4
-4.8828457E-4
-8.6371443E-4
-5.670172E-4
0.0016653357
0.003907382
0.0034439806
0.002075123
0.0025455547
0.0012445945
-9.1564277E-4
-3.1003458E-4
-0.001905148
-0.0050263074
-0.0040986105
-0.0017707137
-4.473353E-4
3.536288E-4
-2.2075354E-4
-0.0018621152
-0.0024580294
-0.0020159136
-0.0031876273
-0.0038201553
-0.0015882393
-1.9971927E-4
-9.541492E-5
0.0012502637
0.002809644
0.0023260072
0.0010613423
0.0013780659
0.0011886336
5.948556E-4
0.0011036468
-9.0600246E-5
-0.0020200296
-0.0016977574
6.9012603E-4
0.0027754952
0.0021464622
0.0014063346
0.0014179079
7.269021E-4
0.0012779603
0.0024679461
0.0034432337
0.0033996126
0.0010300891
-7.6367817E-4
-0.0018711545
-0.00309061
-0.0023618308
-0.0015509948
-0.0019768307
-0.0010487788
7.557858E-4
-1.325126E-4
-0.001871087
-2.7402648E-4
0.0013206908
-3.7695633E-4
-0.0025096647
-0.0026562293
-0.0017308147
-0.0012694094
-0.0011362393
-0.001794025
-0.0021930663
-8.187169E-4
7.419683E-5
6.5976795E-4
5.095486E-4
-0.0010887957
-2.42947E-4
0.0012443361
0.0016444391
0.0024872536
0.0016099248
0.0013237145
0.0016586552
-4.300201E-4
-0.0014077093
-0.0016657815
-0.00203231
2.5099242E-4
0.0018547105
0.0012787047
0.0012766807
0.0013332968
8.1363635E-4
-8.941511E-4
-0.0038703235
-0.00464433
-0.0026665456
-4.7757538E-4
0.0017896096
0.0023978911
0.0010364243
0.001266947
0.0021197204
0.0015112655
3.4717727E-4
2.2069835E-4
0.0017603702
0.0011277527
-4.3551467E-4
0.002425254
0.00466979
0.003054596
0.0016747477
-2.1443755E-4
-0.003038994
-0.004615173
-0.0045646187
-0.003255131
-0.0024876094
-0.0022726343
-0.0012432982
-1.3882726E-4
1.9411863E-4
-0.0016592533
-0.003468525
-0.0019488274
-7.8477926E-4
2.089088E-4
0.002683326
0.0024397569
0.0017721009
0.0021467095
1.8355137E-4
-0.002499559
-0.0044472567
-0.0031920322
2.630147E-4
7.142588E-4
2.7446923E-4
-7.2392443E-4
-0.0010239106
0.0028350684
0.003904648
0.0010270551
-3.1322357E-4
-0.0013353892
-0.0020898483
-0.0019602713
-4.2109817E-4
0.0024002276
0.0040122885
0.005508083
0.0060898676
0.00407088
0.0028043976
0.002561949
7.996067E-4
-8.9640234E-4
2.9952673E-4
0.0025397234
0.0032671639
0.0029553284
4.4888607E-4
-0.0040417444
-0.0077475104
-0.009452172
-0.00816054
-0.005134376
-0.0029258719
-0.0011945368
3.458367E-4
-9.985487E-5
-0.0018518763
-0.0020111857
-0.0026315567
-0.004209741
-0.0022742148
7.716897E-4
0.0012252277
0.0010441396
0.0017794765
0.0033695481
0.003659741
0.00217135
8.2217884E-4
1.8024536E-4
9.978692E-4
0.0023828489
0.003223789
0.0031068404
0.0023584305
0.0031849355
0.0026073311
-5.222627E-4
-0.001851436
-0.0025023718
-0.0024118875
-3.6408828E-4
3.515064E-4
-1.5203659E-4
-1.3216333E-4
7.0384186E-4
0.0015119369
4.2983482E-4
-0.0013840325
-0.0017633232
-6.936627E-4
-2.3120354E-4
-8.075013E-4
6.557582E-6
0.0011597448
5.2752026E-4
-0.0010529377
-0.0022650976
-0.0020281482
-0.0016532866
-0.0015373112
-5.6604593E-5
8.0938084E-4
-5.3099444E-5
-7.17106E-4
-7.5656193E-4
9.835766E-5
0.0015085735
0.0014434776
-4.0751256E-4
-0.0024190152
-0.0027105913
-4.6413773E-4
0.0012021714
2.7343494E-4
0.0010560054
0.003419347
0.0020922772
-6.727836E-5
2.4773917E-4
-5.495644E-4
-0.0021645369
-0.0019406541
-1.4224072E-5
0.002220309
0.002067318
0.0010171807
8.238721E-4
-8.4700005E-4
-0.0017512172
-7.6931843E-4
1.0539343E-4
0.0017092988
0.001963252
9.2395063E-4
8.962647E-4
6.795368E-4
6.247404E-4
-9.093803E-4
-0.0032345464
-0.0024079247
-9.179351E-4
-3.0960652E-4
-3.6537697E-4
-4.950401E-4
3.1374113E-4
-1.7568583E-4
-4.77702E-5
-3.1463584E-4
-0.0028335676
-0.0019973565
7.55896E-5
0.0014215757
0.0032852602
0.0021181207
4.4343967E-4
-6.1510055E-4
-0.0012433958
-5.045116E-4
-0.0016908089
-7.238614E-4
0.0015165521
3.0137552E-4
0.0015616268
0.0029799284
0.0014845281
0.0013935518
1.873627E-4
-0.0027544606
-0.004392811
-0.004008788
-0.0017404982
9.6638664E-4
0.0024324653
0.001481476
6.060723E-4
0.0011137066
1.8111261E-4
-0.0018620464
-0.0032639874
-0.002558363
1.3157677E-4
0.0023386425
0.0027937798
0.002206386
0.0026974818
0.0018318411
-0.0013661037
-0.0021326072
-0.0019832572
-0.0014141407
9.372559E-4
0.0015428067
0.0015476858
0.0019748409
0.0014346492
4.7108758E-4
-0.0012919658
-0.0029627248
-0.003991165
-0.00297966
-1.4496302E-4
6.199695E-4
9.7565615E-4
0.001403533
2.2889601E-4
-3.5092578E-4
-0.0016023137
-0.0028256036
-0.0015127988
-3.2650598E-4
6.8968313E-4
0.00208471
0.0023464407
0.002722531
0.0019740185
-9.494367E-4
-0.0012610408
2.2722666E-4
-8.838596E-4
-0.0013871825
-1.6982161E-4
8.884905E-4
0.0021965327
0.0019699954
0.001218078
8.4235275E-4
-8.446881E-4
-0.002089893
-0.003249652
-0.0037496823
-0.0015810431
6.409793E-4
0.0020914047
0.002425643
0.0010738604
1.5109284E-5
-5.018413E-4
-0.0013808889
-0.0023785941
-0.0014467243
1.1232249E-5
-4.947782E-4
5.96937E-4
0.0017725809
1.9430506E-4
2.5319445E-5
4.990093E-4
-2.6793557E-4
-4.5964614E-4
-5.940124E-5
0.0011434399
0.002131605
0.0012719086
2.1240315E-4
0.0013563829
0.0023128302
-5.8697286E-4
-0.003715847
-0.004043984
-0.0030984976
-8.18757E-4
8.1795955E-4
0.0010410968
0.0010743045
4.0150475E-4
9.5167593E-4
8.1853E-4
-0.0021932728
-0.0033252893
-0.002245902
3.4296703E-5
0.0029461891
0.0021950037
0.0012486405
0.0027539143
0.0017101114
-1.1320706E-4
-0.0011821658
-0.0025251387
-8.139136E-4
0.0013422753
0.001304143
0.002162416
0.001637862
-6.036764E-4
-2.8758508E-5
5.1681575E-4
-0.0017164756
-0.0030255637
-0.003957123
-0.0047130357
-0.0010989782
0.0030823192
0.0027464975
3.8768037E-4
-0.0011213076
-1.5686754E-4
2.769955E-4
-0.0016704362
-0.0010974602
0.001318836
0.002499526
0.002118246
8.463723E-4
0.0014764207
0.0013760902
1.903398E-4
4.3872988E-4
-0.0019871232
-0.003148003
5.081822E-4
0.0018783563
0.0017272686
0.0019081514
-8.5605046E-4
-0.0026920328
-7.785195E-4
-7.1919453E-4
-0.0032559806
-0.0027494167
-5.206377E-4
-6.545004E-5
6.776758E-6
6.121461E-4
0.0016375048
0.0014661025
5.15573E-4
-1.513186E-4
-0.0016592065
-5.522761E-4
0.002082554
0.002290449
0.002705224
0.0022633586
0.001617942
0.002198611
7.4426865E-4
-0.0010770016
-0.0034726637
-0.00500824
-0.0024927596
-0.0015340354
-0.001401346
4.781097E-4
4.25008E-4
4.5465518E-4
0.0011402208
3.7126997E-4
-0.0014228942
-0.0029521647
-0.0018451661
3.797218E-4
0.0020393187
0.0031909556
0.0027652187
0.0022982955