0.00817752
0.006812344
0.003049612
4.1799134E-4
-3.2617708E-4
4.6463386E-4
0.003878648
0.008145926
0.009732901
0.009516885
0.008432946
0.005573516
0.00474925
0.0026464881
-0.0020010055
-8.5415377E-4
0.0012613274
0.003317513
0.0076918765
0.0066909133
0.00449426
-6.642084E-4
-0.009701534
-0.009210454
-0.0070422483
-0.008153072
-0.004202897
-7.742164E-4
2.9299338E-4
-2.7271037E-4
-0.002131536
-0.0015731332
-0.0022324144
-0.005016003
-0.0084741805
-0.00971903
-0.00479074
0.0020459369
0.008482135
0.01156513
0.008820525
0.005151563
1.9472063E-4
-0.005566727
-0.008138969
-0.0069606714
-0.002513647
0.0013727224
0.0035749776
0.0044739703
0.0041701295
0.0055605145
0.0030703035
-0.0071063223
-0.014469889
-0.011931826
-0.0046355375
0.0024538066
0.009724815
0.013438735
0.011831107
0.009625126
0.006039791
7.8941E-4
-0.0050355154
-0.009766144
-0.005734506
0.0033255192
0.008405413
0.010393183
0.007411768
4.7024354E-4
-0.0035680616
-0.005146285
-0.007410246
-0.008157764
-0.0043605953
-1.5660246E-4
-1.3165011E-4
-0.0019029747
-0.002843996
-0.0022323155
-0.0024813716
-0.00608675
-0.008832242
-0.007389937
-0.002879723
0.0030496628
0.006174428
0.00535343
0.0056483718
0.006014133
0.002709313
-3.0193443E-4
-0.00325765
-0.0059854467
-0.0021682752
0.0034108888
0.0070828754
0.009569389
0.004437778
-0.0016478015
-0.001800879
-0.0038620196
-0.0051442147
-0.0011188741
0.0029367032
0.0049193865
0.0046660174
0.0032186334
0.003808836
0.0062939962
0.0065115015
0.0023236086
-0.0038817504
-0.0069648903
-0.002939977
0.0024739988
0.0037126157
0.0045901146
0.0046314755
8.891485E-4
-0.006043417
-0.01175966
-0.011823203
-0.0139919445
-0.016434262
-0.007671139
-4.7661582E-4
-0.0018335733
-6.406083E-4
-4.9064105E-4
-0.0017366108
3.786044E-4
2.4230193E-4
-1.3669013E-4
0.0012404526
0.0029436667
0.0076771914
0.0105983475
0.011928899
0.012043095
0.003766311
-0.0027465376
-0.0030813487
-0.0047677904
1.7528214E-4
0.007921893
0.008029666
0.0066958005
0.005175792
0.004836872
0.0050568404
-0.0028040414
-0.011058239
-0.010215113
-0.0052017826
-9.768895E-5
0.0019484619
3.456549E-4
4.0806457E-4
0.0051065017
0.009396966
0.006499763
8.053896E-4
-0.002521471
-0.0066748103
-0.008893608
-0.007652559
-0.007855397
-0.0066155707
-0.0033992098
-0.0031852361
-0.0048636952
-0.008191036
-0.011444438
-0.009378957
-0.0036076088
0.0012725979
0.0027642031
0.0020216703
0.002869971
0.005022757
0.0046031014
4.6134245E-4
-8.2526106E-4
0.0035285319
0.0064702644
0.007840016
0.009702912
0.01073881
0.011797532
0.007982793
3.041041E-5
-0.0034278024
-0.0024916749
0.0012886111
0.006637769
0.009497397
0.00873448
0.0035221577
-0.0048673186
-0.010725131
-0.012399442
-0.014342866
-0.01457323
-0.0069708438
0.0033875555
0.008471296
0.0069984025
0.0033799796
0.0047146864
0.008252636
0.0058321403
-0.0022998566
-0.009662199
-0.010291457
-0.004651511
0.002382336
0.005695249
0.0032507412
-8.5282273E-4
-0.0050452705
-0.010284553
-0.0127501665
-0.010791571
-0.006691721
-0.0018216803
-2.3081123E-4
-0.0037309288
-0.0047147707
-0.0010426332
0.0013903517
0.0021526376
6.9633423E-4
-7.736727E-4
0.00299463
0.0074745845
0.008674602
0.007821247
0.0063913227
0.0059092776
0.0051682424
0.0048869643
0.0027461965
-0.0019933854
-6.896715E-4
0.0046779173
0.0057097
0.003941272
0.0036390228
0.004272778
3.5040232E-4
-0.0068581756
-0.010142686
-0.0082739
-0.003280422
0.0027454363
0.008589247
0.01012095
0.0060026734
0.0038384416
0.0046587563
0.0037886768
-0.0013134484
-0.009273253
-0.011820502
-0.009574374
-0.008749099
-0.00652999
-0.00217988
7.8008557E-4
7.089397E-4
-0.0034977996
-0.011072843
-0.015098711
-0.009718285
-7.532279E-4
0.0052205306
0.0069190343
0.006153211
0.0066743316
0.0053570736
0.00202891
-9.1028924E-4
-0.0057715545
-0.004500934
0.004440617
0.007643579
0.0045925966
0.0033405619
0.005734047
0.0077949218
0.004276965
-0.00399327
-0.00971385
-0.006230851
0.0010836892
0.0037471557
0.0046663643
0.0051114517
0.0031569416
0.0029178436
0.0040299064
0.0021038018
0.0017317247
0.006593116
0.009402222
0.0074292677
0.0046375617
0.0024691243
0.002711261
0.002086271
-0.0028599945
-0.007824403
-0.011831045
-0.012157474
-0.0055083935
-2.255788E-4
2.4213691E-4
1.3356129E-4
-0.00188948
-0.0062667048
-0.012364883
-0.018468168
-0.018918213
-0.012405106
-7.1505643E-4
0.009036812
0.0073688617
3.1111934E-4
-0.0035342155
-0.004478504
-0.0024607023
-0.0010109657
6.418359E-4
0.006358976
0.009850923
0.010543053
0.013447606
0.014634069
0.010295145
0.00385325
-8.2942384E-4
-0.004986999
-0.0072579733
-0.004353693
0.0029218271
0.011776049
0.012770121
0.006683573
0.0051054517
0.0033719987
-2.4611864E-4
-0.0019843308
-0.005770907
-0.004148533
0.00363333
0.0055429847
0.0021822832
-8.6273864E-4
-0.0017009118
-0.003580856
-0.008386612
-0.011554287
-0.012983422
-0.012256734
-0.007848135
-0.00318464
-0.002639941
-0.0062346985
-0.007419773
-0.007192147
-0.009922676
-0.012374283
-0.013217923
-0.008254394
0.0013981892
0.0071213334
0.008844536
0.0068320893
0.005622287
0.008670817
0.008295263
0.005787844
0.00509697
0.00838917
0.018097425
0.023959449
0.021370295
0.018088717
0.016465582
0.012392844
0.0054792934
0.0020832263
-4.0244168E-4
-0.0049941614
-0.004945263
-0.0029327436
-0.003629261
-0.007291974
-0.01333654
-0.015369371
-0.0149297705
-0.018502679
-0.024339175
-0.025555355
-0.01805266
-0.010176713
-0.006853771
-0.0030344345
0.0012064722
0.004813455
0.0029766907
-0.006172815
-0.011429852
-0.008302118
8.972E-4
0.011802615
0.016581167
0.018199831
0.018835586
0.015061355
0.01142704
0.008725337
0.0082911905
0.012677597
0.012419038
0.00795844
0.0033597639
-0.0054947888
-0.0055499845
0.0047880127
0.004064647
-0.0056155925
-0.0095318
-0.0058647892
-0.0014776284
-0.003082962
-0.005264687
-0.0056189736
-0.007985525
-0.009357563
-0.009201334
-0.0064350055
-0.0024464664
-0.0033515021
-0.003883788
-0.0010451478
4.6986903E-4
0.0019638853
0.0032241556
0.0038108039
0.0041245697
-8.2177506E-4
-0.00807802
-0.00832272
-0.0026519888
0.004978369
0.013877493
0.020824725
0.022813108
0.01700126
0.005488974
-0.0029943886
-0.006367967
-0.006053013
-0.0033252116
-0.0012981296
0.0011088825
0.001534607
-1.983786E-4
0.0019511642
0.0023763233
-0.0040828655
-0.0116559565
-0.015390502
-0.013939587
-0.010798193
-0.0062151076
4.5791283E-4
0.001534384
-0.0028956041
-0.0054352754
-0.0076433294
-0.010688075
-0.008176731
-0.0012759323
0.0016186852
0.0022516362
0.0055928216
0.009897618
0.012676958
0.012316783
0.0106407935
0.009948253
0.01110451
0.015794573
0.019236846
0.017164713
0.01359423
0.01095623
0.0068636374
-0.0017618943
-0.012834931
-0.021637047
-0.026309054
-0.02459868
-0.017354291
-0.009196702
-0.0030900082
-9.2253834E-4
-0.0037499522
-0.009396872
-0.013385814
-0.014371568
-0.009438969
0.0021985734
0.008866293
0.007440198
0.006900625
0.0082032075
0.008905967
0.008151746
0.0074173887
0.0067595136
0.005354659
0.0077834614
0.0100328745
0.009023314
0.009440601
0.0061010956
0.0016874175
0.0012749543
-0.0028440054
-0.0073443186
-0.008517565
-0.010437642
-0.009415978
-0.0062689497
-0.005637241
-0.0047009964
-0.0019602894
-4.6427522E-4
-0.001084916
-0.0020197367
-0.0028029
-0.0023486505
-2.2021992E-4
0.0014483833
0.003687998
0.0069778566
0.0087556215
0.009693818
0.008324873
0.0012572855
-0.0056936727
-0.006094941
-0.0031624062
-0.0012300247
-0.0015281517
-0.002156329
-9.576335E-4
-1.2894644E-4
5.8265816E-4
1.10139285E-4
-0.0056166225
-0.009424669
-0.005299478
-0.0012348683
-6.4489053E-4
8.622179E-4
0.0017730589
-3.2128856E-4
-0.003273871
-0.007504973
-0.009213366
-0.002488928
0.0066786734
0.013754654
0.01625926
0.008475095
-0.0011262945
-0.0041007656
-0.0044041118
-0.0039991853
-0.0024623687
0.0031075529
0.0106983
0.013658245
0.014550844
0.013396101
0.005503263
-0.005067485
-0.012543457
-0.01756124
-0.017859014
-0.0072417343
0.0054600416
0.00889536
0.008823041
0.0076539707
0.003573224
-4.5048873E-4
-0.004578965
-0.009221917
-0.013856214
-0.013577842
-0.004875735
0.0038674185
0.0059801047
0.0027899577
-0.0014293181
-0.0045886105
-0.00820395
-0.009903698
-0.006045027
0.003403879
0.012500301
0.015787644
0.015828462
0.012935986
0.008327172
0.004632683
-3.2600493E-4
-0.005350633
-0.0089589525
-0.0060861195
0.003074566
0.0052357465
0.0021325934
-6.717467E-4
-0.006044778
-0.011882113
-0.020383297
-0.023908382
-0.015721846
-0.008538932
-0.001694139
0.005607543
0.006315831
0.0077388184
0.0067330967
-2.1104139E-4
-0.0023742109
-0.0016332169
0.0036464583
0.018782377
0.027950346
0.023203012
0.017110286
0.014907634
0.012513066
0.009769249
0.00941886
0.009345249
0.0067343623
0.0035967291
-4.4297284E-4
-0.0068186037
-0.016353441
-0.026610924
-0.027946625
-0.02481274
-0.027556023
-0.027305022
-0.022859614
-0.020892411
-0.014666
-0.005234955
0.0017003451
0.008098259
0.010177955
0.006702826
0.0037142243
0.0025994116
0.00466258
0.011749212
0.02002182
0.02568539
0.025624514
0.018280432
0.010710076
0.007202088
0.002383585
-0.0041462625
-0.007940221
-0.00928655
-0.01062573
-0.0122471135
-0.011640399
-0.00836707
-0.0061265766
-0.005843505
-0.0068512387
-0.010069962
-0.010667611
-0.004248874
0.0033040398
0.007944415
0.012030825
0.014820906
0.0146874925
0.014267686
0.015113254
0.013559137
0.011029653
0.0132855605
0.016808389
0.01611768
0.010494134
0.0029874116
-0.0015015547
-0.0067437403
-0.016300734
-0.026140647
-0.03060229
-0.023614137
-0.011399522
-0.0038961624
-3.7562637E-5
-2.3298485E-4
-0.0020816997
-0.0014061655
-0.0041029505
-0.0118916
-0.01677024
-0.015507046
-0.01197772
-0.0074312817
-0.0028668994
-5.7306414E-4
0.0021321874
0.004633591
0.004934973
0.0045970185
0.0029920258
0.0052228505
0.013149717
0.016667461
0.012632042
0.006051079
0.0017100495
0.0012275712
-6.1706605E-4
-0.004922083
-0.0046351627
7.084382E-4
0.005090653
0.009600644
0.017580811
0.026452247
0.032911316
0.033145938
0.027217481
0.019429134
0.009554603
0.0015788956
-0.0010385968
-0.0048307055
-0.007891635
-0.006595055
-0.009407148
-0.017668346
-0.026262794
-0.034594435
-0.040060326
-0.0400094
-0.033785604
-0.024757689
-0.019745782
-0.016713493
-0.011386822
-0.005933297
-0.004352425
-0.009772136
-0.014292658
-0.01116011
-0.0067012147
1.6546705E-4
0.01033374
0.017772406
0.024333829
0.030943869
0.038374953
0.047026303
0.048279688
0.042742696
0.039902292
0.03678329
0.02581325
0.0108691845
-0.002860058
-0.016391074
-0.027166814
-0.036055334
-0.042685308
-0.035422925
-0.016772404
-4.0736923E-4
0.007484998
0.0034858629
-0.0068088407
-0.016902959
-0.026416702
-0.032915305
-0.035723362
-0.030232092
-0.01514022
-7.7344954E-4
0.006950184
0.009161792
0.0132508725
0.02425038
0.03480903
0.03681013
0.03206278
0.033879496
0.04301221
0.04713583
0.04638273
0.03405771
0.0071365577
-0.01832713
-0.040281627
-0.061144102
-0.074670285
-0.07695655
-0.070990935
-0.064747296
-0.05347876
-0.037329614
-0.024603792
-0.009578521
0.004673941
0.015335645
0.027856717
0.038857818
0.051759124
0.061656233
0.06282217
0.06550467
0.061461452
0.04959694
0.045949705
0.04265605
0.032447793
0.022773312
0.015442208
0.005204775
-0.011705348
-0.026764294
-0.039550122
-0.054890476
-0.060665146
-0.061946526
-0.06690307
-0.058516063
-0.040639963
-0.023055691
-0.0046148514
-0.0031683745
-0.0112159215
-0.0012675303
0.013073441
0.009543006
-0.009679629
-0.02928742
-0.033474788
-0.022148175
-0.005532782
0.009233053
0.020303966
0.024415977
0.017988136
0.0031438298
-0.016691653
-0.031357136
-0.038353186
-0.034591764
0.0051631904
0.06157818
0.08426238
0.083383955
0.08755999
0.09917423
0.111424424
0.10819941
0.08681129
0.063719854
0.050024834
0.043050487
0.03125323
0.0066770897
-0.028698964
-0.06469728
-0.08999951
-0.097144686
-0.086630955
-0.06775128
-0.054051403
-0.06592359
-0.10376723
-0.14517565
-0.18573655
-0.21037073
-0.1947697
-0.15601312
-0.10721497
-0.039115127
0.038484585
0.107342504
0.15243247
0.17794801
0.20159478
0.20723599
0.18171218
0.14018832
0.08232909
0.033031795
0.03310171
0.055129003
0.059949577
0.057552874
0.05611124
0.04473555
0.028358202
0.025244327
0.036170326
0.050046906
0.043249626
-0.007738211
-0.08897107
-0.17529863
-0.2315194
-0.23383093
-0.21641827
-0.19543537
-0.17207387
-0.15522867
-0.11148097
-0.048067015
0.00600299
0.07005548
0.122732416
0.13093522
0.11044716
0.08971819
0.09023591
0.10630337
0.1289606
0.1480235
0.13573885
0.10081938
0.08206848
0.08316845
0.073347226
0.050348476
0.035295542
0.0065697418
-0.056252327
-0.11936879
-0.14207092
-0.12824175
-0.11226951
-0.094817586
-0.064043365
-0.0354575
-0.02006832
-0.031936485
-0.06817642
-0.08666237
-0.06353856
-0.01375812
0.037085697
0.07848739
0.092143536
0.04439458
-0.046243038
-0.11938624
-0.13472357
-0.09127637
-0.020769948
0.052404042
0.10557043
0.1174915
0.10066501
0.06846406
0.039962422
0.036632437
0.026779993
-0.017195953
-0.08094932
-0.1364931
-0.11935783
-0.011350535
0.09968415
0.16863412
0.2173249
0.23412457
0.22332738
0.21460979
0.19891463
0.16064349
0.08377023
-0.05789958
-0.23400423
-0.35091233
-0.35365412
-0.28820434
-0.21847159
-0.15017375
-0.08711385
-0.049228426
-0.031018062
-0.022545163
-0.020601468
-0.014835226
-0.0023548077
0.011646797
0.023623478
0.030791387
0.03439475
0.039669845
0.04951622
0.06034127
0.07055758
0.08187802
0.091994725
0.10436876
0.11264945
0.102226354
0.08823043
0.07694402
0.05311796
0.02391207
-0.0122498525
-0.054239716
-0.07447662
-0.0736569
-0.06695906
-0.058971345
-0.05640883
-0.052820105
-0.045559086
-0.040336203
-0.032409854
-0.020617021
-0.0055995937
0.0113955
0.02231273
0.027650643
0.035897344
0.042688243
0.037476458
0.026690567
0.011249422
-0.014489722
-0.030633831
-0.030313114
-0.02702976
-0.018080542
-0.007985779
-0.0029314181
0.004394983
0.012481266
0.018599622
0.023627993
0.026818106
0.026356274
0.016518215
0.0016370321
-0.0072895954
-0.010539951
-0.011369815
-0.010322229
-0.010191861
-0.006421416
0.0090724565
0.02278045
0.016256068
-0.0016593526
-0.0158645
-0.02545562
-0.03051057
-0.029749645
-0.027981075
-0.026697362
-0.020252232
-0.012393748
-0.0097975945
-0.0071580415
-0.002340533
-0.001100398
-0.0024826252
-8.4760506E-4
0.0032505773
0.010044749
0.023758784
0.037700515
0.04473959
0.048374277
0.048723027
0.046338473
0.04216735
0.033553258
0.02593446
0.02443989
0.023719674
0.014155561
-0.008077416
-0.02856401
-0.029517855
-0.01770557
-0.011970786
-0.019979458
-0.044612914
-0.073512256
-0.07660137
-0.054292616
-0.032284778
-0.018287921
-0.010798967
-0.00463553
0.0033275932
0.0057364553
0.0026024368
-6.657229E-4
0.0038028231
0.019798322
0.033007808
0.038153764
0.03991147
0.030783439
0.016120724
0.009396161
0.0044359644
0.001474422
0.0040114727
-0.004558003
-0.018037451
-0.014365332
-0.0039127693
0.0030297525
0.006743472
-0.001924802
-0.018647036
-0.028958356
-0.024277054
-0.006458729
0.0088332025
0.016755834
0.02470931
0.028905664
0.022407167
0.0067266226
-0.009153118
-0.012752078
-0.0041812444
0.0034775338
0.005854996
0.0048091915
2.8414433E-4
-0.0043838047
-0.0094966665
-0.0129155135
-0.009748185
-0.006181287
-0.0019633754
0.008346425
0.017514424
0.020354418
0.020713799
0.020269595
0.0134631805
0.001519725
-0.006664007
-0.012491725
-0.015097044
-0.011123739
-0.008322797
-0.011687767
-0.016657375
-0.016946008
-0.01825646
-0.02312663
-0.023748435
-0.028663835
-0.031390853
-0.016439568
-0.004319393
-0.0012528128
0.0048260223
0.007683491
0.0066806665
0.0012993239
-0.008711174
-0.0071863965
0.0154234115
0.046979636
0.06526453
0.0624081
0.051603153
0.04819802
0.05257418
0.05238692
0.041184984
0.01291108
-0.032629274
-0.06767527
-0.07304189
-0.061410595
-0.046515066
-0.03186646
-0.017802099
-0.009140375
-0.0063820216
5.5763905E-4
0.008858126
0.008595539
0.0023528857
-0.0048613907
-0.0060092392
0.0010575334
0.0037107763
-0.0014770591
-0.006458866
-0.010268456
-0.0084796725
0.00436267
0.018364437
0.023595443
0.024172397
0.023500666
0.018614579
0.011237123
0.0013562919
-0.012165668
-0.017444674
-0.0100293085
-0.0023032897
-0.0015837204
-0.008039036
-0.016876811
-0.022443252
-0.021869559
-0.01520785
-0.010352692
-0.004472412
0.009675571
0.02203763
0.028904883
0.03274601
0.030603912
0.02415917
0.0142653445
0.0024623778
-0.007404424
-0.011392109
-0.008793637
-0.008161357
-0.009076238
-0.006951509
-0.0070829843
-0.0086789
-0.010188607
-0.0090159
-1.6703753E-4
0.0093165105
0.018376494
0.025935533
0.018038984
9.821058E-4
-0.010285122
-0.020464573
-0.031037044
-0.036363296
-0.035898555
-0.026757265
-0.010538752
0.0047269985
0.015987348
0.020907171
0.02176267
0.02390561
0.023927307
0.02333028
0.023602651
0.017388593
0.0084722135
-3.0918443E-4
-0.012010807
-0.01731574
-0.013118315
-0.008266514
-0.0075081363
-0.011575648
-0.016361091
-0.015169204
-0.00541234
0.0051678736
0.0060284683
-5.529214E-4
-0.009489746
-0.01629216
-0.015302718
-0.013938372
-0.016555395
-0.01544038
-0.011335478
-0.0052826023
0.0065434147
0.018828219
0.024579387
0.025384137
0.027543882
0.031504747
0.030201435
0.026620634
0.029513774
0.034606013
0.036548577
0.031538714
0.013313849
-0.0076304553
-0.020410202
-0.031982124
-0.041226942
-0.04222116
-0.03705249
-0.02502043
-0.009584791
-0.001264839
-0.004301973
-0.012051474
-0.01726177
-0.022030676
-0.026724355
-0.024651946
-0.015343344
-0.0065274904
-0.0020357524
0.0022819624
0.0075852564
0.010112808
0.009236656
0.008100244
0.009644926
0.014972002
0.025477903
0.033668127
0.030662544
0.02305287
0.012881087
0.0059263967
0.01203721
0.010331119
-0.0048173503
-0.010183866
-0.0071725817
-0.0022954035
-1.5670258E-4
-0.006666553
-0.007429875
-0.0014238555
-0.0014675615
-0.0041679307
-0.0070215785
-0.008738677
-0.004458835
0.002187869
0.004133872
0.0011997486
-0.0037289395
-0.011633998
-0.018885555
-0.022534462
-0.025263507
-0.018608632
0.0011132907
0.019978506
0.02895947
0.02959437
0.026540177
0.019565806
0.007949845
-0.0012940284
-0.007905405
-0.015746828
-0.017562445
-0.008736943
-0.0012942646
-0.0038031337
-0.0048760483
-0.0012242233
-0.0020221733
-0.00425596
-0.008338516
-0.01572008
-0.015192576
-0.007419145
-0.0011411151
0.0031421785
0.005415564
0.0038272748
-0.0036335164
-0.011569511
-0.010737029
-0.0031381773
0.0056450223
0.013994148
0.019501338
0.020960072
0.022215316
0.026109507
0.027311102
0.022563836
0.014542891
0.006309705
0.00451624
0.008585994
0.009136704
0.0023263479
-0.0102176815
-0.021034805
-0.026492905
-0.030472541
-0.028794874
-0.020775443
-0.014976176
-0.011618738
-0.00640154
-9.218697E-4
0.0013693814
0.002417396
0.0013115994
-0.007294027
-0.016312461
-0.015876193
-0.006797924
0.0030900426
0.0065676947
0.010402749
0.016808286
0.019464808
0.022675948
0.02049628
0.009435859
0.0027680516
0.002269611
0.006580716
0.010052931
0.005050852
5.0673954E-4
-0.0017563542
-0.004446713
-0.0071362336
-0.01219614
-0.013161487
-0.012993228
-0.011865679
3.6839076E-4
0.010075609
0.0098166475
0.0068448186
-5.417969E-4
-0.006878235
-0.011429928
-0.015155252
-0.009169861
9.943489E-4
0.005277453
0.0045791664
0.0043330356
0.005947673
0.002238166
-0.0061895316
-0.012422064
-0.014245733
-0.009104164
7.392089E-4
0.010660123
0.018831423
0.02173808
0.017873617
0.010641304
0.0040613613
-0.0031159348
-0.010414244
-0.010804215
-0.0047980263
0.0013848617
0.0064708493
0.0118860435
0.017251065
0.018818583
0.015568936
0.006305944
-0.009243223
-0.02002292
-0.019615512
-0.0127055
-0.005124325
-0.0042883535
-0.0077929324
-0.008713974
-0.0093571935
-0.011199172
-0.013244198
-0.011565284
-0.0055040913
-0.0023015167
6.988221E-4
0.004399269
0.0029917888
0.0016957854
-0.0018322945
-0.010927139
-0.011886897
-8.610394E-4
0.012908505
0.021293307
0.021654392
0.019866284
0.016353136
0.010231287
0.007125651
0.0049872254
0.0023713158
0.004007438
0.005751567
0.0017612274
-0.0042804233
-0.0081474325
-0.010139264
-0.010140472
-0.00919124
-0.011079166
-0.013583479
-0.009078738
0.0013876993
0.008636408
0.008794917
0.004219446
-0.0022553992
-0.0077843387
-0.011445508
-0.013049505
-0.010543026
-0.004291356
0.0036320046
0.011642489
0.016867215
0.019653343
0.020771906
0.016235434
0.0071885446
-0.0010677259
-0.005732303
-0.0029874428
0.0016581359
-7.160903E-4
-0.002738541
-0.0035500254
-0.011891325
-0.019506702
-0.02168905
-0.022820007
-0.01736912
-0.0062735323
0.003564714
0.009232288
0.0064642113
-1.15324736E-4
-0.0030787664
-0.0031379117
-0.0020008965
-0.0030676203
-0.004206234
0.0023637302
0.014745269
0.025900045
0.031265534
0.028221976
0.017864274
0.004042222
-0.007997348
-0.013045302
-0.009645998
-0.0029054557
5.198437E-4
-7.8474754E-4
-0.004610806
-0.007045396
-0.005854812
-0.0038612406
-0.0057628434
-0.012148013
-0.014813747
-0.008072841
0.0021716086
0.010149591
0.012021687
0.0053195674
-0.0035481104
-0.0076392954
-0.009049807
-0.010188937
-0.007450963
0.0012319719
0.015020177
0.02735048
0.025572745
0.014043167
0.006013236
-0.0014765789
-0.010512691
-0.018557297
-0.024747595
-0.021584032
-0.008550597
0.005388231
0.013775676
0.013148064
0.00628214
-0.0014848174
-0.0073253387
-0.010427375
-0.010076293
-0.003930768
0.003543012
0.0058163805
0.005844112
0.006784198
0.007838345
0.010228567
0.012798894
0.008557395
-0.001075263
-0.0048046247
-0.0032260069
-0.0025467165
-0.0020033529
-0.0029875422
-0.003205533
7.7538984E-4
0.0036617983
0.0026197445
-0.0013147388
-0.005110598
-0.005139593
-0.0056836773
-0.007396502
-0.0060675326
-0.004986832
-0.004001223
-0.0028450375
-0.007119343
-0.010525704
-0.005506506
0.0029254989
0.010627219
0.014408054
0.0130661465
0.011629071
0.0121990545
0.010723251
0.0022784693
-0.008430976
-0.012476717
-0.010540012
-0.0053992285
-9.465122E-5
0.0018004392
0.0016470553
5.2930735E-4
-0.0014356099
-0.0064593395
-0.0128935715
-0.011575491
-0.00433492
0.0012947377
0.004764138
0.006094602
0.0064999997
0.0062006256
0.0055022826
0.004969269
0.0026598466
0.0029509154
0.008415753
0.012564821
0.011080919
0.005421397
9.74796E-4
-7.9817337E-4
-0.003149806
-0.006058284
-0.0071370415
-0.002959
0.005647564
0.01225717
0.012143395
0.005357831
-0.004092391
-0.014836782
-0.025222514
-0.03170125
-0.034453306
-0.028828911
-0.013544556
0.0013137328
0.010328796
0.012461543
0.009366283
0.0061394433
0.0032330782
-3.0243114E-4
-0.0029031422
-3.5192474E-4
0.009571785
0.020864656
0.024027338
0.016634088
0.008674672
0.0048874496
-3.0143696E-4
-0.0037773226
-0.0026475377
0.0011401889
0.00889763
0.017295454
0.021194369
0.015233803
0.0023373873
-0.004984348
-0.013251582
-0.027164942
-0.02917863
-0.01950571
-0.011505238
-0.005387291
-0.0012854345
-5.123216E-4
-0.0011759712
-0.0024298786
-0.0018708602
9.178353E-4
0.0012964074
-6.0248794E-4
0.0012284676
0.004360913
0.002463949
-2.0592254E-4
-8.032759E-4
-0.002163281
-0.0017697561
2.2908501E-4
0.0021318777
0.006398917
0.008435632
0.0062818383
0.007666587
0.010993803
0.009563405
0.0060192556
0.0024161136
-0.00390856
-0.009032772
-0.0068065524
-0.0010633274
0.0012488177
-9.39688E-4
-0.0040964247
-0.0042724707
-0.0031826298
-0.0031880524
-0.0022319162
7.339188E-4
0.004719096
0.0056520286
0.0027815425
0.0016918776
9.3903823E-4
-0.0031743702
-0.006927017
-0.007611389
-0.0068507837
-0.0071056727
-0.0077645737
-0.004046175
0.0052687232
0.011819048
0.010023785
0.0064871516
0.0035113075
-0.001862049
-0.006876404
-0.009268764
-0.005074955
0.0042999843
0.008249866
0.0067416243
0.004123878
8.043187E-4
-0.0015875202
-0.004108327
-0.004857166
-0.0025562448
-0.001045085
0.0012484944
0.0057161637
0.007961
0.005101168
6.5714336E-4
2.4751035E-4
7.4954913E-4
-0.0019937684
-0.0036944407
-0.002584594
-0.0015119143
-6.4976665E-4
4.8425706E-4
9.0374856E-4
0.0011964447
0.0029805524
0.005842316
0.005903048
-1.6159283E-4
-0.005544163
-0.0037325555
-0.0023023265
-0.0044751796
-0.0034937272
2.2869614E-4
8.02788E-4
-0.0036698002
-0.009060946
-0.011473361
-0.009468791
-0.0011670706
0.0068333764
0.006553688
0.0020544291
-0.0018973862
-0.004351382
-0.005927242
-0.0079306
-0.008914881
-0.00814389
-0.0022636482
0.008323995
0.014933366
0.017286755
0.017279446
0.012997174
0.0067232093
-0.0010407261
-0.008193944
-0.009615531
-0.0040028645
0.0049496675
0.01241312
0.018237336
0.016446436
0.007118258
0.0010983368
-0.009127381
-0.020127283
-0.015176529
-0.0073945224
-0.0055444282
-0.003180466
-0.0011239457
0.0025488534
0.0054371413
0.006457058
0.004056461
-0.0067013176
-0.012638053
-0.008962419
-0.0048856675
0.0011029479
0.005896915
0.006671778
0.0053183017
2.323033E-4
-0.0051076137
-0.010523974
-0.015353115
-0.012764221
-0.004817412
0.002537885
0.0067884573
0.008201822
0.008491283
0.005499632
-0.0020272448
-0.009813977
-0.010820129
-0.0035954718
0.005414588
0.011752994
0.013570086
0.011439222
0.009338952
0.008712179
0.009114155
0.0072020004
0.0014864854
-0.0014316728
-0.0011646344
-0.0025682193
-0.0033333744
-0.0024589652
-0.0012394488
-6.0485397E-4
-0.004461279
-0.01085747
-0.012933998
-0.008218594
0.0015549232
0.008673325
0.007082036
0.0023059875
-3.335317E-4
-0.00373067
-0.008640988
-0.011673001
-0.011435728
-0.0049450644
0.0067099533
0.012944577
0.012057434
0.008054814
-1.0677785E-4
-0.0064491904
-0.010335395
-0.017738175
-0.019066997
-0.008150166
0.0056600794
0.016545469
0.02200695
0.01948587
0.010961463
0.0017072313
-0.005246596
-0.011425349
-0.014045121
-0.008684951
-8.352777E-5
0.007358405
0.013477033
0.0165354
0.017682714
0.016477387
0.008249368
-0.004020029
-0.012419485
-0.014779273
-0.013470286
-0.011286398
-0.007897033
-0.0029743537
-0.0020595714
-0.0073526786
-0.012555953
-0.014951492
-0.015508423
-0.011890271
-0.0045015016
0.0028322444
0.0070090774
0.008121165
0.011595151
0.015628738
0.011289668
0.001650514
-0.004286728
-0.004457483
8.327905E-6
0.0062635983
0.010297844
0.011205259
0.012676209
0.015056534
0.013951204
0.010150455
0.005237669
-3.626619E-4
-0.0033870596
-0.0060726833
-0.010628644
-0.012317578
-0.010385255
-0.00889295
-0.009148682
-0.009005821
-0.0060899085