0.0011261526
4.9139104E-5
-3.7658153E-4
-0.0024246734
-0.0033245499
-0.0024734263
-0.0016025126
-9.761101E-4
-0.0014696098
-0.001562062
5.341358E-4
0.0031765297
0.0030827143
0.0011019862
4.4294342E-4
-1.0690681E-5
3.551236E-4
0.0010436317
2.485216E-4
0.0016970226
0.0018509926
-0.0013530678
-5.661738E-4
7.7245396E-4
-9.587255E-4
-7.2878366E-4
3.4393283E-4
-1.2204642E-4
-4.9886126E-5
0.0014012295
0.0017276388
7.924024E-4
0.0016598031
0.0019259398
-5.9221394E-4
-0.0024370025
-0.0023144756
-0.0010401345
5.642239E-4
0.00136738
0.0015067749
0.0016400876
0.0013652986
2.6845577E-4
-0.0012863919
-0.0031223167
-0.003300416
-0.0015632141
-0.0010295733
-5.2943054E-5
0.0012930814
-9.132068E-4
-0.0023267514
-2.746948E-4
1.643797E-4
-5.9028063E-4
9.7962184E-5
9.0464146E-4
0.0016600852
0.0011341827
-3.844738E-4
0.0011180746
0.001339048
-0.0023821732
-0.0027172125
-0.0010646405
-2.4821208E-4
0.0021245764
0.0028331107
0.0025238076
0.0028150333
0.0018931151
0.0016886288
3.431196E-4
-0.0024283803
-0.0019091506
3.348672E-4
0.001349409
0.0012779947
-1.7140472E-4
-0.002072722
-0.0013224427
5.1581714E-4
-9.96046E-4
-0.0023866205
-0.0015427241
-7.945471E-4
3.3821765E-4
-1.7013292E-4
-2.2903546E-4
0.001471267
-4.0059014E-5
-0.0011851749
-0.0012321357
-0.0025905622
-8.887166E-4
-1.4830746E-4
-0.0015638326
0.0011537005
0.0032347934
0.0016946514
0.001689028
0.0022452315
7.858051E-4
5.552148E-4
0.0019215433
0.0013105387
4.171971E-4
-2.4953805E-4
-0.0022385821
-0.0014875965
4.7369592E-4
-0.0010191827
-0.0017355786
4.8551045E-4
0.0012922226
-3.4008932E-4
-5.7219254E-4
0.0010406603
3.319157E-4
-0.0016894001
-0.0017498316
-0.0013756945
-0.0016634632
-0.0014645678
-7.6527457E-4
1.1182506E-4
0.002351818
0.0041604424
0.0024976628
8.7480183E-4
4.8582122E-4
-8.468144E-4
-9.81962E-4
-0.0017213975
-0.0031332031
-5.0850905E-4
0.0017688435
5.5670715E-4
4.0098812E-4
0.0010719146
8.8306033E-4
7.4361643E-4
7.172484E-4
6.064977E-4
1.06053725E-4
-1.5381639E-4
1.2913201E-4
-6.92924E-4
-0.0017179629
-0.0011267758
-7.6997513E-4
-0.0014909849
-0.0018212242
-0.0011676536
-1.7479378E-4
2.9735488E-4
0.0013490167
0.0022148092
0.001038896
2.4390507E-4
4.4232997E-4
4.9706385E-4
4.3824496E-4
-4.640681E-4
-2.693857E-4
2.9149462E-4
-7.527647E-4
2.3806015E-4
0.0017516848
3.7266273E-4
1.2363073E-5
0.0015990465
0.0010798427
-6.2081916E-4
5.319199E-5
1.19814475E-4
-0.0011749407
6.1926444E-4
0.002066507
0.0010126703
4.933809E-4
-0.001280274
-0.0033693684
-0.0033575622
-0.0024583796
-0.0012015188
-4.0614262E-4
9.369665E-6
-1.5874954E-4
-6.2863843E-4
8.081806E-4
0.0019376453
0.0010655712
4.771298E-4
1.7721772E-4
-5.7174434E-4
-0.001429786
-0.0013769588
6.884762E-5
0.0016322568
0.0020988542
0.0012902061
6.6746224E-4
5.6387915E-4
2.3122641E-4
9.005245E-4
0.0016440476
0.0014022054
0.0012522127
6.195677E-4
0.0010507139
0.0019255664
-2.5950556E-4
-0.0020766403
-0.0025902838
-0.0041385144
-0.0041023013
-0.0036417888
-0.0026439577
3.5271794E-4
4.7934573E-4
-9.1192825E-4
-0.0019617009
-0.0035489525
-9.1560656E-4
0.0015991039
7.8673515E-4
0.0030195701
0.0047868686
0.004284406
0.0041501876
0.0024484985
0.001182507
-2.743274E-4
-0.0015273296
3.0096027E-4
9.134997E-4
7.8287453E-4
0.0017454091
0.0012008471
3.660449E-4
1.9044025E-4
6.248566E-4
-5.679734E-4
-0.003590757
-0.00404897
-0.0044028168
-0.0046950066
-0.0026813154
-0.0027751292
-0.0023964415
2.625133E-4
0.001269216
0.0018154635
3.6927153E-4
-0.0022671255
-9.028193E-4
0.0017316171
0.0026567096
0.00272025
0.0025266611
0.002424981
0.0013913818
0.0010275698
0.0021194564
0.0014311245
-5.291157E-4
-0.0010333442
-1.7389432E-4
-5.187309E-5
-7.022748E-4
-1.5270144E-4
-8.156507E-4
-0.0024460102
-0.0012610479
-7.357588E-4
-7.901236E-4
0.0014095058
0.0010267599
-1.780681E-4
0.0013086541
0.0015024239
0.0016278918
0.0019054087
-2.7786626E-4
-0.001454476
-3.1961565E-4
0.0012823248
0.0015648744
-1.6329197E-4
-0.001038199
-6.5402343E-4
-7.199635E-4
-0.0017297557
-0.0028556897
-0.0022031209
-0.001084743
-3.8201368E-4
5.5426126E-4
3.4366993E-4
-7.224214E-4
-0.0010489492
-4.1863447E-4
-0.0010306048
-0.00181533
2.2038899E-4
5.4567377E-4
-5.23392E-4
2.6327066E-4
-5.547462E-4
-8.223795E-5
0.0024199039
0.00333201
0.004630664
0.0045752865
0.0032296423
0.0023456358
1.7398203E-4
-9.862954E-4
-0.0012031746
-0.001207384
6.077058E-5
-7.6366717E-4
-0.0026801697
-0.0020119436
-0.0010363571
-0.00202886
-0.0031527753
-0.003961559
-0.005221684
-0.002644069
0.003132216
0.0050417488
0.0037275236
0.0020522182
0.0011590673
0.0017806948
0.0010343401
-1.5012486E-4
0.0011424148
0.0030083319
0.003321513
0.0019503238
2.874824E-4
-7.109712E-4
-0.0019591765
-0.0038243441
-0.004194962
-0.0019984564
-8.988664E-4
-0.0014979346
-0.001052516
-8.9513726E-4
-4.2443787E-4
9.6368714E-4
8.965233E-4
0.001476363
0.0018772995
-0.0012413015
-0.0027508484
-5.609441E-4
6.010042E-4
0.0015375743
0.0027189215
0.001458172
9.6840515E-5
-1.8614085E-4
-4.508144E-4
6.689191E-4
0.0016903982
0.0013134958
2.5779032E-4
-0.0015279431
-0.0017775418
-6.723328E-4
-7.896781E-4
-0.0014914478
-0.002428401
-0.002965733
-0.0018717658
-3.6387783E-4
4.6279392E-4
0.0013458728
0.0022610768
0.0019425454
0.0018334757
0.0027868992
0.0025769153
0.0016928455
4.0117546E-4
-6.9907174E-4
6.5147725E-4
0.0016701351
0.0014555063
0.0018540587
5.062138E-4
-0.0015509152
-0.0015861178
-0.0026159894
-0.0061330446
-0.007320357
-0.0045086998
-0.0020120824
-3.2343672E-4
0.0017068735
0.0038779385
0.0067289164
0.006395626
0.0026618508
-2.5374838E-4
-0.0038048117
-0.005800878
-0.0037078622
-0.0021261752
-0.002286515
-0.0016926618
0.0012104011
0.004252662
0.0053817066
0.0063544903
0.0049299146
9.2055E-4
-0.0024583954
-0.005550566
-0.0045829155
-8.641513E-5
0.0012947313
8.0476224E-4
-7.987858E-4
-0.002908606
-0.001730829
2.7091557E-4
0.0015802566
0.0025297843
6.629256E-4
-0.0015709506
-0.0011109746
5.066789E-4
0.0014584537
0.0012924096
0.0015125464
0.0015476946
-1.6176123E-4
-8.3323196E-4
-2.9512096E-4
-7.437724E-4
-7.3807454E-4
-9.900376E-4
-0.0015665368
1.5605536E-4
0.0010545462
-7.1355083E-4
-9.6357765E-4
-2.461184E-4
-0.0016276496
-0.00209043
3.9178212E-4
0.0012199538
-8.811426E-5
2.3090054E-4
-3.2274194E-5
-7.6807226E-4
0.0010292936
0.001495443
-1.7418875E-5
2.9304813E-4
0.0016644177
0.0021850471
0.0011019083
5.6519546E-4
0.0018386877
0.0017997897
3.372824E-4
-0.0014035773
-0.0022386191
-0.0015067161
-0.0017461979
-4.5398917E-4
0.0021686587
0.0017341861
0.0018890697
0.0018173923
-0.0011425497
-0.0026558356
-0.0028404156
-0.0023704239
-0.0013268659
-0.0011117205
8.406252E-5
0.0015816477
0.0017566092
7.669529E-4
-0.001062569
-0.0025834902
-0.0031950753
-0.0020354474
-4.3923265E-4
1.6124519E-4
3.9587106E-4
1.305504E-4
0.0010905669
0.0017614494
4.9502304E-4
6.706321E-4
0.0011998364
0.0011151086
0.0013499524
0.00198622
0.003779333
0.0033399381
0.0010720985
2.9280598E-4
4.4198535E-4
9.435751E-4
-9.817128E-4
-0.002015663
2.1462372E-4
-9.167787E-4
-0.0021539219
-0.0011472921
-0.0022019525
-0.0022434718
-0.0016000523
-0.0017834603
-2.3438488E-4
4.5301486E-4
-4.9607013E-4
8.043728E-4
0.0021039336
-3.619477E-4
-0.0020567568
-8.856017E-4
2.6190075E-5
9.5936295E-4
0.0012228881
0.0016498676
0.002600288
0.0015661858
0.001486462
0.0012864268
-0.0011655005
-0.0014325145
-2.8338158E-4
1.9960343E-4
3.3381436E-4
5.4154126E-4
8.8670466E-4
-8.395074E-4
-0.0021106591
-0.0012609289
-0.001391895
-0.0017025752
-0.0010780297
-3.7700025E-4
-0.0010717881
-0.0020016711
-2.640321E-4
0.001259587
9.379449E-4
6.7174167E-4
8.142206E-4
0.0015703532
0.0015135792
6.4747303E-4
-2.7899412E-5
-7.716583E-4
-2.2983868E-4
8.473027E-4
0.0011455322
9.711039E-4
1.0269423E-4
-4.6750685E-4
-2.5974342E-4
5.13708E-4
3.2318564E-4
-0.0011767584
2.0486901E-4
0.0023959025
0.0011304895
3.051821E-4
8.284483E-4
3.506794E-4
-4.976432E-4
-0.0014289571
-0.0016107509
-0.001388929
-0.0015161522
-0.0011893224
-0.0017425147
-0.002529341
-0.0010586751
7.831558E-4
0.0010321222
0.001191875
0.0012446194
-1.6817721E-4
1.11362475E-4
0.0018691887
3.7128947E-4
-8.643725E-5
0.0019099145
0.0010540388
2.9369854E-4
8.8961876E-4
6.8875024E-4
1.1008242E-4
-0.0011796482
-0.001053853
-1.6455019E-4
-2.1064121E-4
-3.376021E-4
-0.001199238
-9.772769E-4
-8.536153E-5
0.0014278727
0.003043178
-3.0094248E-4
-0.0032815344
-0.0028203044
-0.0022942927
5.43408E-5
-1.4826895E-4
-5.928803E-4
0.0024626367
0.0018477066
9.7154005E-4
0.0012427133
-0.0010187811
-0.0022933225
-0.0027188284
-0.0016690264
-1.18808224E-4
6.489661E-4
0.0021599196
0.0013764348
0.0017401442
0.0027817334
-5.079158E-4
-0.002054467
-0.0012569472
2.7350982E-4
0.0019920436
5.9462147E-4
4.548424E-4
7.8529306E-4
-8.748168E-4
-0.001997433
-0.003369626
-4.083931E-4
0.004976342
0.005538335
0.0056837806
0.006428063
0.004475485
-0.0011957419
-0.00809128
-0.008445899
-0.004882768
-0.0037087076
-0.002879905
-0.0015854875
0.0010944878
0.0027797048
3.350294E-4
-2.901638E-4
1.9251603E-4
-0.0030340345
-0.0038750384
-0.0012652212
-4.828222E-4
-1.8387061E-4
5.284347E-4
7.093975E-4
0.0010457393
0.0015300942
0.0017783978
9.20489E-4
0.0010227368
0.0024297165
0.0012459728
0.0012832615
0.0038774444
0.0027396583
0.001092999
0.0021180254
0.0011959639
-0.0014653387
-0.0028061415
-0.0025993632
-0.0014326593
7.050678E-4
0.0018622935
0.0010596463
0.0010159431
-4.6825298E-4
-0.003852246
-0.0033198106
-3.2993362E-4
0.0016227326
0.0023476798
0.001712496
0.0014677776
-3.2142525E-6
-0.0025984002
-0.0024855714
-0.0028438102
-0.0047978708
-0.0038599726
-0.001746665
-0.0013091653
-0.001124388
-6.8889686E-4
-4.1521285E-4
-7.493438E-4
-5.6530896E-4
0.0022721337
0.003808913
0.0021230741
0.00250215
0.003259221
0.0016589457
9.501013E-4
8.032281E-4
2.9025137E-4
-2.7226665E-4
0.001029873
0.0050870744
0.00644666
0.00484636
0.0017662299
-0.003559339
-0.004402856
-8.726897E-4
-1.1472192E-6
-0.0010764623
-0.0016653097
-8.18289E-4
-8.979234E-4
-0.0034089426
-0.0043811616
-0.0045274426
-0.0048557394
-0.0027062641
-9.183164E-4
-8.314902E-4
4.8176546E-4
3.3261869E-4
-0.0016392592
1.0078563E-4
0.0019507422
-9.236451E-5
-4.231836E-4
6.913689E-5
-4.1016555E-4
0.0021627902
0.0044985022
0.003976996
0.0035582166
0.0026617488
9.58002E-4
2.5467767E-4
1.02283615E-4
-8.543668E-4
-5.2841264E-4
0.0022265178
0.0033304195
0.0028023706
0.0026588
2.992628E-4
-0.0016645135
3.9610946E-5
0.00131047
0.0013345096
6.828907E-4
-0.0025444815
-0.0049714786
-0.0051482134
-0.0054879594
-0.0038227725
-3.5765563E-4
0.0012697947
9.266442E-4
8.3657546E-4
0.0020991631
0.0021408512
-4.870398E-5
-0.0018635469
-0.0019306031
-1.4525821E-4
0.0014921332
0.0015110945
-3.627558E-6
-0.0018205215
3.2174834E-5
0.0031053463
0.002301524
-5.005379E-5
-4.976112E-4
0.0018925667
0.0032064812
0.0014831573
-1.6184269E-4
-0.0029283834
-0.0042205662
-0.0024011305
-0.0036178355
-0.006352373
-0.008552104
-0.010662129
-0.008596174
-0.0040359017
0.0010473788
0.006060538
0.0048514265
0.0014908701
0.0055222213
0.010666217
0.009348415
0.004033286
-0.001227639
9.5284614E-4
0.0071227415
0.006454645
0.0071563763
0.0111196805
0.008158168
0.0038051938
0.0017910481
0.0010789857
0.0015237527
-0.0032784343
-0.009236917
-0.010217804
-0.009565247
-0.00836771
-0.008682203
-0.009677161
-0.0075534456
-0.005951108
-0.0073765144
-0.007289064
-0.0038976837
-4.376911E-4
0.0030628743
0.0060520098
0.006368058
0.006475008
0.005956096
0.0039486964
0.0031744782
0.0053270888
0.010193231
0.011277672
0.0067357835
0.0012000671
-0.0048596123
-0.007568373
-0.0067942324
-0.0059151314
-0.0033850165
-0.0025361427
-0.0036330665
-0.0039322646
-0.0047449376
-0.0048373337
-0.0044029094
-0.0019210114
0.001364271
-5.4907793E-4
-0.0020382712
0.0023485098
0.008219773
0.011919099
0.012614608
0.0097712455
0.0030157538
-4.6909397E-4
0.0012057899
-0.0015318391
-0.005093434
-0.0044059795
-0.0044043595
-0.0045488067
-0.00599949
-0.0076770727
-0.0047200336
-0.0027115103
-0.0031183818
-0.0016464738
-0.001348001
-0.0031178873
-0.0071733585
-0.013256809
-0.01324547
-0.008268664
-0.007603049
-0.00930201
-0.0105928285
-0.012248418
-0.008527175
0.0016915571
0.00977498
0.011677194
0.006806876
-0.0055246246
-0.014562239
-0.0124626085
-0.0086959535
-0.008097385
-0.009097011
-0.010743869
-0.008106579
-0.003942601
-0.0029546202
-4.796817E-4
0.00793578
0.022525055
0.03886229
0.05412618
0.0679387
0.06994835
0.049911864
0.022652995
0.0153275775
0.021208586
0.019736081
0.012815569
9.928641E-4
-0.0067625367
-0.0047136135
-0.010970501
-0.022371005
-0.031161979
-0.04149396
-0.04920654
-0.051241886
-0.042182848
-0.036583293
-0.04113579
-0.028399961
-0.004738105
0.010393773
0.01593924
0.013796122
0.014420197
0.014778711
0.014039898
0.009682504
-0.0051548686
-0.018101934
-0.035256106
-0.05933334
-0.085619174
-0.1117215
-0.11769086
-0.11942024
-0.12689118
-0.124547765
-0.10972999
-0.067255706
-0.021627245
0.011689676
0.059786934
0.11415572
0.16661564
0.19506261
0.19911067
0.217851
0.23285347
0.22922789
0.21300566
0.20393488
0.21577467
0.21512666
0.25063083
0.32010353
0.27865583
0.111245796
-0.07445044
-0.2127515
-0.3419071
-0.5106059
-0.63003194
-0.6252439
-0.51022726
-0.33959955
-0.22222234
-0.19790092
-0.20230702
-0.15696588
-0.064035624
-0.0012269098
0.02403052
0.06248883
0.13666633
0.2093773
0.25198358
0.31595963
0.36851093
0.34810334
0.31525823
0.2776154
0.20034268
0.12785272
0.11022359
0.14804599
0.20421065
0.23077673
0.15512335
-0.018577775
-0.1565296
-0.24870081
-0.37839046
-0.45328608
-0.39104143
-0.30654475
-0.26655775
-0.21576752
-0.13343711
-5.1730394E-4
0.16285826
0.24697334
0.22829345
0.17403771
0.14491594
0.15710978
0.117191255
0.0032158187
-0.067644596
-0.09048325
-0.09274223
-0.04457188
-0.04886037
-0.13796042
-0.14681081
-0.0754862
-0.033272553
-0.013548213
-0.02062105
-0.026626095
-0.006543025
-0.030489719
-0.060848415
-0.039149113
0.015740013
0.13514468
0.247517
0.26079145
0.22196585
0.12260308
0.013733799
0.009596433
0.037251312
0.06323413
0.13672008
0.1881194
0.20522907
0.21568932
0.11981013
-0.11099242
-0.30350244
-0.3275378
-0.24800093
-0.14371043
-0.075407445
-0.122589126
-0.24755509
-0.37978837
-0.4633682
-0.39900032
-0.18983802
0.053715162
0.20582828
0.24088438
0.24637152
0.19564584
0.1045567
0.1131609
0.15421586
0.12565261
0.089010894
0.0651573
0.050781358
0.06632944
0.09350321
0.11027585
0.11695295
0.118169755
0.11160108
0.0903821
0.047684707
5.040158E-4
-0.026091672
-0.04556831
-0.06799501
-0.08474953
-0.096322
-0.09988198
-0.098366186
-0.09190225
-0.07668499
-0.06077191
-0.04302216
-0.024021234
-0.0105438735
-0.0013588739
0.0040362533
0.0065486664
0.004790533
-0.0017655801
-0.008136223
-0.014800018
-0.023360321
-0.031479992
-0.037831645
-0.04378503
-0.04673355
-0.040292926
-0.027735278
-0.015828425
-0.0036994538
0.011531297
0.027071947
0.038144253
0.04610686
0.050714117
0.05149551
0.051882256
0.048132032
0.039437547
0.031211393
0.02336667
0.015821392
0.010233868
0.0072103967
0.0055759186
0.00397102
0.002553058
-0.0013564014
-0.0059092
-0.0047325273
3.0734288E-4
0.0048795557
0.009922386
0.01520732
0.018999457
0.021942586
0.021014614
0.01218505
0.0018932145
-0.0034389142
-0.0055509014
-0.00456221
-0.0044336864
-0.013964698
-0.027422957
-0.03325025
-0.03685382
-0.041328132
-0.037719276
-0.029017147
-0.022463063
-0.017502313
-0.015412938
-0.016129317
-0.017449344
-0.016948678
-0.0124834655
-0.006902496
-0.0018771883
0.003919905
0.009840831
0.013781975
0.015420763
0.018286059
0.023020454
0.027661495
0.030053115
0.026750635
0.023092808
0.024176441
0.02428627
0.021851776
0.017724006
0.010384063
0.0025923394
-0.004091687
-0.010737061
-0.015262693
-0.013267394
-0.0073983395
-0.0048724273
-0.0012767615
0.0047826725
0.0024333417
-0.005098479
-0.008812826
-0.011072865
-0.010970237
-0.008348664
-0.0077532157
-0.007329084
-0.0057739937
-0.0051634493
-0.0049212663
-0.005217084
-0.0070839985
-0.008097522
-0.0055236174
-0.0027418078
-0.002754653
-0.0015200066
0.0027726248
0.0067961337
0.008125903
0.007445907
0.0063242037
0.0036108326
9.461649E-4
0.0012238364
0.002228025
0.004622176
0.008129017
0.0088322405
0.009195312
0.009542147
0.0069294707
0.0040851682
0.003326081
0.003948009
0.002692106
-9.573401E-5
-8.5117375E-5
8.0764126E-5
1.4077488E-4
0.0011234723
-0.0016109196
-0.0043433607
-0.0041552745
-0.00397456
-0.0029453668
-0.0033553927
-0.004121359
-0.002487067
-0.0018629184
-0.0014807241
-0.0017159597
-0.0031327067
-0.0018034496
0.001218204
0.0039175022
0.0056603123
0.007418378
0.0103304675
0.010208643
0.0068545192
0.0036682908
0.0016922248
0.0017377144
0.002949206
0.0049544196
0.0063105854
0.007304539
0.009742196
0.009898224
0.008739757
0.009104052
0.009689398
0.009652466
0.0034132595
-0.0068385093
-0.013257268
-0.01718762
-0.016249452
-0.011843624
-0.011855509
-0.013683061
-0.013586248
-0.011034036
-0.006840845
-0.004037801
-0.0017416396
5.575574E-4
0.0024626772
0.0044859983
0.004944472
0.004188774
0.00424261
0.0051014507
0.0056123864
0.0058719185
0.0070042764
0.008285524
0.009496285
0.010856457
0.0104880445
0.008448343
0.0058672493
0.0024680586
1.9796558E-5
-8.181674E-4
-0.0026068669
-0.0045295497
-0.004861035
-0.0038761534
-0.0024126554
-0.0045020827
-0.00765719
-0.005757327
-0.0036840928
-0.0037333905
-0.0033264356
-0.0026139582
1.8809074E-4
0.0013719405
-9.56074E-5
6.030052E-4
7.917218E-5
-0.0014628064
-0.0017725655
-0.00324923
-0.0037138022
-0.004354308
-0.0049999044
-0.0020791746
-5.8424287E-4
-0.0016560063
-0.002628948
-0.003979037
-0.0020243349
0.0019364756
0.0028346886
0.0031818922
0.0041412762
0.0049410723
0.0074476334
0.007930754
0.0041302205
0.003372552
0.0058509735
0.0037565005
1.0228735E-4
0.0025774217
0.00867919
0.012825448
0.013685354
0.0071788686
-0.0069103856
-0.015641615
-0.014114408
-0.010916452
-0.007977613
-0.0048348582
-0.0030273492
-0.001722929
-0.002449751
-0.004496302
-0.0061107827
-0.0078472495
-0.006212935
-0.0023446348
-0.0012976831
-3.5158778E-4
0.0026577073
0.0053796326
0.005369944
0.002461635
8.2691154E-4
4.987157E-4
-8.3323097E-4
-7.2477927E-4
3.8854947E-4
0.0014839644
0.0039057867
0.006279826
0.007577058
0.007596377
0.0063772663
0.0039650365
0.0015900143
0.0031577342
0.0043484345
9.648923E-4
-1.3874953E-4
-0.0014976024
-0.006583878
-0.006157921
-0.002741137
-0.0037917057
-0.004815491
-0.0033588721
-0.0010899004
-4.474998E-4
-0.0010655193
9.775752E-4
0.0013064893
-0.0019840882
-0.0025067008
-0.0024153683
-0.0043074153
-0.0044288645
-0.0028449616
-8.6771767E-4
0.0016455586
0.004535198
0.006036609
0.0035862685
-8.053507E-5
4.1096075E-4
0.0035078924
0.0032961252
0.0018312959
0.0030534896
0.0022499384
-1.0671938E-4
-5.5785506E-4
-0.0024966605
-0.0043450724
-0.0043045874
-0.00418672
-0.002424846
-0.0011164537
-0.0017856857
-0.0010383257
0.0013808932
0.0029367625
0.0015053223
-0.0016918343
-0.0033922384
-0.0028220264
-0.0014579402
-5.587997E-4
2.5612177E-4
9.349247E-4
0.0029163396
0.005252338
0.0026775727
-8.1974984E-4
-0.0015556569
-0.0033573315
-0.002601871
3.9838027E-4
7.7734445E-4
0.0018543142
0.0029115994
0.0024199546
0.0021813028
7.951882E-5
-0.0020699876
-0.0022642
-0.0022185142
-0.0015731083
-9.174712E-4
2.3985721E-4
0.0013546483
2.2858931E-4
-3.276075E-4
-2.70053E-4
-0.0015974984
-0.0022652887
-0.0019949821
-8.014085E-4
1.2327189E-5
-6.0856243E-4
9.0980827E-4
0.0023828929
8.68495E-4
6.992142E-4
0.0012926285
8.61264E-5
-4.1841873E-4
1.13187025E-5
2.8742745E-4
0.0018029917
0.0030840784
6.6838134E-4
-0.0018072911
-9.927273E-4
-0.0014275791
-0.003137969
-0.00337292
-0.0031885684
-0.0012563881
7.896164E-4
5.257251E-4
0.0017553879
0.0026384888
-3.6817807E-4
-0.0019878545
-7.5288885E-4
-8.5506785E-5
2.1511494E-4
-7.9271523E-4
-0.00202083
-8.501472E-5
0.0024108724
0.0028619547
0.0011878833
-0.0010744772
-0.0010742197
-9.758886E-4
-0.001038398
-3.8764338E-5
1.6968678E-4
0.0018868494
0.0026210914
1.2249059E-4
-1.4253662E-4
-6.565818E-4
-0.0020455073
-8.8927086E-4
-9.301311E-4
-0.001402299
-4.1132543E-4
8.271929E-4
0.0013914704
-9.0567645E-4
-0.0015943727
6.029835E-4
4.5847747E-4
7.690305E-5
-3.1726395E-5
-3.763957E-4
0.0010982368
6.297716E-4
-0.0019870342
-0.0027112975
-0.0018812459
-0.0013417193
-0.0014759961
-7.8206984E-5
0.0023105543
0.00266624
0.0018105818
0.001409958
0.0017185049
9.525666E-4
2.659745E-4
0.0019400093
0.0011534613
-9.752183E-4
-8.630035E-4
-0.002683976
-0.0030060352
-1.7666668E-4
5.4743874E-4
0.0013919879
0.0019815313
0.0010138752
3.0737996E-4
-0.0018548991
-0.0024981287
-6.839345E-4
-1.6853191E-4
1.5519478E-4
-4.6127068E-4
-0.0019313863
-0.001961103
-0.0018868808
-0.0016705717
-5.713412E-4
0.0012202533
0.0019004376
8.3794317E-4
0.001767141
0.002776408
0.0013549156
7.9770735E-4
7.075027E-4
-9.309111E-5
-0.0014481598
-0.0027387638
-0.0029857627
-0.0033893536
-0.0018552899
-3.787027E-4
-0.0029524579
-0.0028613554
-1.2508481E-4
1.2704091E-4
7.220989E-4
0.0012194203
0.0011760078
7.119877E-4
6.068351E-4
0.0041493988
0.0050449874
0.00279848
0.00326624
0.0016330054
-1.009881E-5
9.7148435E-4
-5.1161414E-4
-0.0016540156
-0.001584908
-0.001046232
0.0020458233
0.0034444432
0.0015120513
-2.6886322E-4
-5.5328454E-4
-0.0011115193
-0.003377755
-0.0045173233
-0.0038621284
-0.0031029086
-0.0019713056
-0.0013006837
-0.0012111947
-0.0011945614
-0.0011762788
-1.2560668E-4
0.0018587318
0.003172756
0.0026054427
0.0014183541
2.1025182E-4
-0.0013300119
-0.0014318192
-0.001408319
-0.0016340546
-1.2328486E-5
7.643673E-4
7.2320114E-4
0.0014351187
8.3969685E-4
1.3128029E-4
5.4028233E-6
3.3897697E-4
0.0014197313
7.5016933E-4
8.989922E-4
0.0027507583
0.0020575055
0.0017898616
0.0010891154
-0.0027204175
-0.003012982
-0.0015978584
-0.0019171059
4.1960466E-5
2.1621589E-4
-0.0019619125
-8.546583E-4
8.3844375E-4
5.669315E-4
-2.4142404E-4
-3.421707E-4
-1.9897643E-4
-5.4137065E-4
3.5569727E-4
7.665969E-4
-9.654883E-5
-2.575765E-4
-0.0011598044
-0.001232403
-4.8173955E-4
-0.0010953895
-4.954325E-4
3.0980143E-4
1.700946E-4
6.888495E-4
9.6677925E-4
0.0013748398
0.0013472121
7.3171133E-4
0.0010789844
8.600067E-4
-1.9452903E-4
-0.0013920163
-0.002427481
-0.0015092005
4.385192E-4
0.0016799128
0.002325403
0.0015459746
9.8978526E-5
5.5793824E-4
0.0014657065
6.5875944E-4
3.2619435E-5
-1.5986252E-4
-0.0012108443
-0.0022914133
-0.0021501293
-0.0012791244
-0.0017869729
-0.0020322192
-9.253875E-4
-0.001215558
-0.001291582
-0.0010112771
-0.0014726212
-4.3089458E-4
6.139107E-4
0.0017256896
0.0028249659
0.0014332198
2.634072E-4
-2.0862053E-4
-7.9290126E-4
-3.0122497E-4
6.197373E-4
0.0019818887
0.0020674167
0.0023744649
0.004474581
0.0028463085
-1.3910035E-4
-1.4789496E-4
-0.0010142927
-0.0020031433
-0.0015505183
-0.0011179693
-2.4356158E-4
-1.2909198E-4
-0.0010013477
-0.0013153557
-0.0016916312
-0.0016977283
-0.0011730393
-0.00131645
-1.093929E-4
0.001502675
-8.862868E-5
-0.0011338093
-1.04339255E-4
-3.81448E-4
9.7447926E-5
8.6215866E-4
-9.743393E-5
2.5359628E-4
0.0013764064
0.0016189263
0.0014836955
8.251081E-4
5.3559575E-4
1.3860964E-4
-0.0011302315
-0.002481209
-0.0028968407
-0.0019401406
-0.0011094194
4.185836E-4
0.0025445907
0.0020343186
0.0012452705
0.0011674798
-0.0010285634
-0.0026130942
-0.0017489459
-3.5098815E-4
-1.1485208E-4
-0.0011112523
-5.2176905E-4
6.861787E-4
0.0013359917
0.0031256073
0.0026617255
7.859423E-4
0.0014777438
0.0017880672
0.0018723628
0.0024335135
0.0014626447
4.07196E-4
-0.0010291411
-0.0023302187
-0.0024405187
-0.0036725695
-0.0046469076
-0.0037774234
-0.0026967954
-0.0020161842
-5.193949E-4
0.0021772084
0.0022804928
9.4119355E-4
0.001503659
-2.857598E-4
-0.0027425843
-0.0011481253
0.0011333869
0.0023574005
0.0033347094
0.0028083741
0.0011396098
0.0011122869
9.0581796E-4
-0.0020225644
-0.0026206987
-5.8090535E-4
6.004402E-4
0.001908529
0.0019117204
0.002515556
0.003871825
3.8953446E-4
-0.004483446
-0.0060971337
-0.0055611073
-0.004847154
-0.004009912
-4.9397734E-4
0.002393395
0.0032679134
0.004188338
0.0020475788
4.4007244E-4
0.0018330842
0.0019419782
0.0019692231
0.0011061381
-9.1190485E-4
-5.530025E-4
4.8476632E-4
7.71807E-4
0.0011004296
7.889445E-4
-7.1931875E-4
-0.0014002658
-3.9491683E-4
-0.0010052064
-0.002205687
-0.0023289074
-0.0028414326
-0.0020564436
-9.142784E-4
-8.0751104E-4
-0.0010053917
-0.0013147532
2.714863E-4
8.638779E-4
-1.3979743E-4
0.0014713667
0.0022072145
0.002287372
0.0041698692
0.0034699738
0.0015300511
0.001133926
7.637482E-4
-1.45130925E-5
-0.001239604
-0.0014801209
-7.1228656E-4
-4.7955525E-4
-5.735468E-4
-0.0010804912
-9.35148E-4
1.12511014E-4
-6.997303E-4
-0.0036444126
-0.0045008534
-0.0011655756
5.132459E-4
-0.0013299942
-6.288711E-4
7.2203454E-4
-3.7273276E-4
-2.2334924E-4
8.1575074E-4
0.001417607
0.001628034
0.0010823667
0.001900545
0.0027714653
0.0018369178
0.001732891
0.0019476941
5.3047616E-4
-3.4079948E-4
5.175725E-4
4.782956E-4
-9.804799E-4
-0.0019867353
-0.0024721937
-0.0023590806
-0.0021730992
-0.0020156996
-7.3987426E-4
-1.66926E-4
-4.1021392E-4
2.8847024E-4
0.0011162563
0.0021793842
0.0026023344
0.0010244548
-5.167344E-4
-6.608229E-4
-6.001648E-4
-9.5958356E-4
-8.3271746E-4
-4.6452103E-4
5.350084E-5
0.0011970215
0.0014032947
5.4748193E-4
-9.5150375E-4
-0.002056345
-9.9661E-4
1.8293707E-4
0.0011329561
0.0014359063
2.9539391E-5
4.4610695E-4
0.001440874
6.541268E-4
-4.283813E-4
-0.0018397894
-0.0018448629
-5.199395E-4
7.056319E-4
0.0013103434
7.800319E-4
0.0018924756
0.0025486955
0.0014574983
0.0014577061
-0.0016463076
-0.0053453543
-0.003947734
-0.0022614182
-0.0018115886
-0.0011309267
-0.0012670738
-0.0013309646
-2.7417514E-4
9.910922E-4
0.0015796429
0.0022385116
0.0016449746
2.2755969E-5
4.8446812E-4
0.0024137993
0.0044191335
0.0032484408
-1.492297E-4
0.0012325824
0.0030974774
6.1087287E-4
-0.0020690162
-0.0037676329
-0.0032091364
-0.0015716838
-0.0016418791
-2.7368678E-4
0.0024756456
0.0031322143
0.001956806
8.5627125E-4
-6.0740067E-4
-0.003741331
-0.005406505
-0.0032524387
-5.291374E-4
-1.8722154E-4
-0.0015201017
-0.0021268306
-9.278235E-4
0.0016003067
0.0036225456
0.0033406676
0.002016676
0.0017549482
0.002566204
0.0031931342
0.003047003
0.0016708581
-8.2274794E-4
-0.0025926046
-0.004166974
-0.004747706
-0.0019588051
4.094727E-4
1.3417545E-4
-6.545637E-4
-0.0013315497
-0.0012475235
-0.0010539548
-2.1327396E-5
0.002124513
0.0016374137
5.316763E-4
0.0016002066
7.96469E-4
-0.0013156398
-4.4386988E-4
5.980959E-4
-0.0014459073
-0.0023347973
3.1114128E-4
0.0027195893
0.0020483714
-8.430344E-5
7.49214E-4
0.0023609824
6.138039E-4
3.3009655E-4