-0.0046230787
-0.0046032798
-0.0021479372
0.0014222516
0.006386248
0.0102927545
0.0074032526
8.2876504E-4
-0.004170521
-0.005708124
-0.0042909323
-0.005062093
-0.004878741
0.0014003738
0.007327531
0.00970143
0.007817286
4.61465E-5
-0.0076624737
-0.009941707
-0.00886826
-0.008884391
-0.005930312
0.0014162994
0.005605641
0.010483511
0.008805307
-0.0063840686
-0.008976319
-0.001541972
-0.0040616887
-0.0026798937
-0.0013996845
-0.005311574
0.0049348897
0.016801456
0.01156636
0.0017136651
-0.0037511508
-0.0068752705
-0.0075084195
-0.005644391
-0.002158223
0.0034137077
0.009278928
0.011242382
0.008723151
0.0017414382
-0.005353375
-0.005306362
-0.004164655
-0.006056752
-0.0042947424
-1.5840871E-4
0.0055894833
0.011582684
0.008657431
6.1901036E-4
-0.005034581
-0.009319444
-0.009121844
-0.0062637297
-0.0047643795
9.381486E-5
0.0070181354
0.009930877
0.007848311
0.0016522307
-0.004502394
-0.005975544
-0.004394712
-0.004426225
-0.00492784
-1.6311755E-4
0.0074760728
0.010402504
0.008162757
0.0022184344
-0.0053650048
-0.008624066
-0.007742458
-0.0064445427
-0.003796332
6.0725765E-4
0.0064396593
0.010445106
0.008095589
0.0026323984
-0.0029922698
-0.008102506
-0.009462934
-0.007940757
-0.0049501015
1.491552E-4
0.0067977337
0.011918877
0.009819993
0.0025946482
-0.0029508632
-0.0059024575
-0.006819705
-0.006443455
-0.0044424753
8.2142826E-4
0.0076540574
0.011367737
0.008647362
0.0032733919
-4.7573808E-4
-0.00336583
-0.0046099327
-0.004395372
-0.0038980304
-6.9066713E-4
0.0069255694
0.013373869
0.009436848
-0.001749236
-0.009369223
-0.012277462
-0.012319148
-0.00884332
-0.0050033163
-0.0020458915
0.004530099
0.011282992
0.0099296905
0.0045315917
7.316375E-4
-0.002473217
-0.0055739256
-0.007925175
-0.00567136
7.470613E-4
0.006867457
0.010949758
0.008674686
0.0022908086
-0.0028208946
-0.008039771
-0.010100596
-0.0071526356
-0.0031721282
7.993223E-4
0.0049814917
0.008846585
0.008683375
0.0033586011
-0.0019765163
-0.005056049
-0.0060999417
-0.0053222687
-0.0040183025
-0.0011395158
0.005202843
0.0106642805
0.009571011
0.0033587248
-0.0044340286
-0.009282355
-0.00928594
-0.0077072787
-0.003911729
0.0013766408
0.006802412
0.011999412
0.010483197
0.0039968155
-7.8034133E-4
-0.004077497
-0.0055030226
-0.0061014593
-0.0054072393
-0.001067539
0.006158275
0.012865819
0.012019232
0.0043175854
-0.003712664
-0.008429197
-0.008799989
-0.009933628
-0.009102656
-0.0022936433
0.003975115
0.009204268
0.010009383
0.0035157355
-0.0023520514
-0.0062547605
-0.008004074
-0.00818373
-0.008286168
-0.0022668352
0.006429891
0.0107111735
0.010571871
0.0045225457
-0.0035522252
-0.007881205
-0.008345055
-0.006844827
-0.004935392
-9.4833475E-4
0.004969933
0.010171328
0.011930243
0.0070828283
-2.3175901E-4
-0.0031834408
-0.0030943418
-0.0042636665
-0.004275911
0.0014554664
0.008933361
0.01373971
0.013920103
0.006616103
-0.0020505528
-0.008131541
-0.012255445
-0.009552656
-0.0051184264
-0.0018290955
0.004809608
0.008623638
0.01074525
0.0076363054
-0.008667331
-0.016788865
-0.01090933
-0.009397773
-0.008420515
-0.004004252
0.0017085294
0.008923413
0.009419429
0.0029631688
-0.004303559
-0.008241585
-0.006806194
-0.0052374224
-0.0040180827
-1.7764833E-4
0.006466207
0.01443659
0.016657744
0.011455293
0.0046326607
7.9060544E-4
-1.500204E-4
-0.002730774
-0.0050406964
-0.002872004
0.0023533003
0.007632016
0.0076511386
0.0012635898
-0.0053647417
-0.0081075635
-0.0090751685
-0.008774882
-0.0053817825
-0.0025196967
0.0011232113
0.006787879
0.0076348414
0.0042693503
-0.0016553036
-0.007412857
-0.00879784
-0.009261732
-0.006257995
-0.0010923063
0.0029990387
0.0104147345
0.012356851
0.00579694
-6.050557E-4
-0.0048699495
-0.005032352
-0.002763996
0.0011611627
0.0012219787
-0.0042169853
0.002144927
0.011718036
0.006658387
-0.0010949103
-0.0041950545
-0.004754285
-0.0059343996
-0.0064762365
-0.0010165914
0.0037863953
0.0077547203
0.010550341
0.0051725134
-0.0017272858
-0.007153683
-0.010068649
-0.008425507
-0.00788597
-0.0058921822
-1.4016553E-4
0.0071519157
0.013016565
0.010797029
0.0038890964
-3.8087432E-4
-7.3260645E-4
-6.8387453E-4
-0.0035927314
-0.004344074
-1.2599328E-4
0.0066112615
0.010256452
0.005357399
-0.0033000307
-0.009409669
-0.009401816
-0.007176807
-0.007829532
-0.0041421526
0.0031884143
0.009418028
0.012939554
0.007817246
0.0011733479
-9.416616E-4
-0.0017744575
-0.001098146
-0.0018094871
-0.0014959807
0.0011722181
0.0042524547
0.008790983
0.004694868
-0.0059952075
-0.009495957
-0.009533515
-0.008479237
-0.0051741544
-0.0026059793
0.0019547406
0.007796787
0.009111862
0.0038576254
-0.0031727224
-0.0061983475
-0.007334801
-0.0074608186
-0.004262972
1.3810856E-4
0.006309014
0.013605347
0.013615816
0.0054162433
-0.00304519
-0.008167151
-0.009353722
-0.0077969334
-0.006110872
-0.0037236202
0.0017988043
0.010746931
0.016568968
0.012469153
0.0020381392
-0.004865677
-0.0036409704
-0.0013192425
-7.8697194E-4
0.0024821549
0.0073092296
0.015726786
0.01988199
0.006556115
-0.008382229
-0.012667378
-0.015096873
-0.014051778
-0.007818574
-0.0023288901
0.0021668898
0.006911691
0.008396579
0.0022151654
-0.008741806
-0.01691489
-0.019360801
-0.016224913
-0.007936401
-4.3211607E-4
0.0042884806
0.012663268
0.016162258
0.007203652
-0.0019404625
-0.007842716
-0.010888371
-0.008706095
-0.006624879
-0.0025358193
0.0047519775
0.011131479
0.016312432
0.0148609895
0.0066522816
9.383307E-4
5.966156E-4
-5.9067586E-4
-0.0046417066
-0.0020217928
0.0075749434
0.0134492405
0.014137326
0.011311782
0.0036767186
-0.0054049757
-0.009596238
-0.00870692
-0.0053341608
-7.7099254E-4
0.002123485
0.006136906
0.01011598
0.006128444
-0.002209236
-0.009231297
-0.01325758
-0.015162628
-0.01657128
-0.01278181
-0.008922464
-0.0065321615
0.0023229413
0.006028002
5.7435234E-4
-0.003195648
-0.0066442876
-0.0069646933
-0.001660282
0.0026634983
0.006523229
0.010189643
0.010438873
0.00857605
0.006058217
0.003824857
0.0015327767
-0.0038789609
-0.008743189
-0.00705328
-3.7924376E-5
0.010608707
0.01778726
0.013989574
0.005009886
-0.004716151
-0.013010694
-0.015640376
-0.014218568
-0.009447998
-0.002078757
0.0072844895
0.016136037
0.015734175
0.009732088
0.0057477085
0.0012547664
-0.0025384969
-0.0038891693
-0.0028972214
0.0010741991
0.0066379476
0.011003311
0.0073273517
-0.0035578143
-0.011914204
-0.015179631
-0.0146523435
-0.01264308
-0.010412103
-0.00441842
0.0037827417
0.008183265
0.0064428365
1.769592E-4
-0.0053759688
-0.0071162214
-0.007520645
-0.0068585565
-0.00386613
9.723847E-4
0.009911887
0.018109743
0.015722891
0.006244941
-0.0028046158
-0.007889488
-0.0076672584
-0.0058419765
-0.0025652512
0.0035221141
0.010139733
0.014523013
0.012128468
0.0033627555
-0.0048109563
-0.0059767268
-0.003855244
-0.0074475347
-0.009217734
-0.0017085549
0.0081492
0.015182881
0.012875331
0.002692895
-0.0061294353
-0.0129458085
-0.013235293
-0.0076951752
-0.0046847686
3.1558008E-4
0.008790549
0.013287836
0.009505765
-5.0326117E-4
-0.0071466314
-0.008507432
-0.009673098
-0.009723121
-0.007847411
-0.0020828324
0.008701232
0.015436555
0.011473036
0.0029301238
-0.004254006
-0.009106583
-0.008380797
-0.004583874
-0.00321972
0.0014803061
0.009597649
0.012417637
0.010657287
0.0047638067
-0.0033466236
-0.006502112
-0.0075384565
-0.008320285
-0.0066468823
-0.0023522214
0.007759315
0.014516782
0.00998937
0.0029620517
-0.005394744
-0.012223815
-0.011767512
-0.01004393
-0.0067422986
-2.3036003E-4
0.006701238
0.012979458
0.013136501
0.0066967914
-0.0026014554
-0.009196037
-0.00841365
-0.007891683
-0.00732628
3.8608373E-4
0.010347485
0.016637225
0.014004502
0.0039061499
-0.005144393
-0.011046265
-0.012435479
-0.0099263955
-0.0059554446
-1.6157726E-4
0.006523566
0.012312675
0.010513027
0.0013905757
-0.00469477
-0.0072295982
-0.00820505
-0.0077257343
-0.0064578606
-3.0987072E-4
0.00948129
0.016569924
0.015651627
0.0073613864
-6.4263295E-4
-0.0068679038
-0.010859296
-0.009874952
-0.0057900897
4.6450403E-4
0.0064576105
0.009351803
0.008788462
0.0036278986
-0.0041398243
-0.009764133
-0.010314907
-0.009713282
-0.0097588105
-0.00422442
0.0052342243
0.01177015
0.01010206
0.0011245364
-0.004390831
-0.006486698
-0.0088025555
-0.006704103
-0.0026840956
0.0013327417
0.0073500616
0.013698948
0.015441783
0.009241053
7.622221E-4
-0.005379503
-0.0065096966
-0.004310556
-0.004835479
-9.908644E-5
0.008663075
0.011741301
0.012915545
0.004499427
-0.010562795
-0.013432863
-0.011118234
-0.010058874
-0.005103908
3.0377432E-4
0.0052781957
0.010272369
0.011433768
0.005366106
-0.0025851168
-0.0055974005
-0.008287459
-0.010166309
-0.007946943
-0.004598
0.0020964984
0.009707275
0.01089099
0.004674895
-0.0049291183
-0.011385311
-0.013581238
-0.012098742
-0.007239759
-0.0012550845
0.0076876124
0.016044004
0.018166594
0.014409108
0.005903575
-5.9344934E-4
-0.0029306
-0.0047595305
-0.00457612
-0.0021150317
0.0064248727
0.0167919
0.015162314
0.0054181404
-0.006259492
-0.017613772
-0.019776456
-0.014233072
-0.0071182926
-0.0015769637
0.0015114375
0.006383851
0.009047363
0.0032846031
-0.006399095
-0.010477476
-0.0065260413
-0.0025848113
0.0017963096
0.008571525
0.012707367
0.015654666
0.011342687
-5.480228E-4
-0.0078186495
-0.014046102
-0.016408777
-0.008875274
-0.0038062194
-0.0016202338
0.00481535
0.012042225
0.013869946
0.008444004
0.0033753503
0.0011881421
-0.0011878668
-0.0030679381
-0.0048938575
-0.0035418435
9.498052E-4
0.005234468
0.008178962
0.003888068
-0.004647475
-0.009330923
-0.011535763
-0.011870391
-0.010002818
-0.005472084
0.0022734236
0.01008714
0.013374628
0.0082154395
-5.861513E-4
-0.0054755714
-0.0065642484
-0.006620308
-0.0063016424
-0.0012643592
0.007739544
0.015056292
0.018110309
0.011346196
1.1651642E-5
-0.0057092165
-0.008136091
-0.0071313577
-0.0045246207
-0.0014908947
0.0058218604
0.009740279
0.007785326
0.0027139192
-0.006433412
-0.011537244
-0.011866228
-0.012540655
-0.010805097
-0.006608336
4.1046864E-4
0.009731718
0.015000862
0.010384876
-1.1165934E-4
-0.0056979815
-0.0076394156
-0.0071749953
-0.0015539671
0.0024816536
0.0070680003
0.012394004
0.009789922
0.003927237
-0.0020960034
-0.007196945
-0.0059211035
-0.0038573977
-0.006800531
-0.008822527
-0.0016329784
0.009939001
0.013854016
0.009974342
0.002628733
-0.0050073024
-0.010392692
-0.010919427
-0.0028127923
0.006060745
0.012237585
0.02296977
0.029901313
0.021416454
9.6061896E-4
-0.01645723
-0.018341316
-0.010533071
-0.004668076
-0.003938144
-0.0044059
-0.008429931
-0.02051433
-0.023660917
-0.010314557
0.0014005979
0.0056997607
0.006692666
0.0036059192
-0.0031348641
-0.005871213
8.7715976E-4
0.006674125
0.00560796
6.376362E-4
-0.0040938696
-9.787576E-4
0.0038064846
0.007126534
0.014954537
0.02183643
0.025539858
0.020325642
0.002015181
-0.019144326
-0.03629119
-0.0388703
-0.030400213
-0.025212111
-0.015940098
-0.0036140187
0.0105247535
0.029495923
0.033612806
0.023292825
0.013765414
0.0045731636
-0.0011290084
-0.0026092601
0.0029312524
0.019171974
0.039491944
0.052771647
0.04095188
0.007975077
-0.024966097
-0.047834616
-0.04732341
-0.030958869
-0.016655307
-0.0020246094
0.00399084
-0.0016012847
-0.010774105
-0.025825491
-0.035883922
-0.03563345
-0.033557113
-0.02981773
-0.018639877
0.0044089574
0.02006431
0.021214176
0.029025776
0.028593194
0.01087743
6.9307664E-4
-0.0024044015
-6.699698E-4
0.00744292
0.01579344
0.033523574
0.04863556
0.03649994
0.010072414
-0.008494367
-0.015589377
-0.014369778
-0.011439787
-0.012003699
-0.009315987
-0.0030776896
-0.008310584
-0.023282547
-0.035556406
-0.041960124
-0.035351936
-0.0121409865
0.010309937
0.010824113
0.0045539755
0.0109288
0.00901768
5.791777E-4
0.0014350764
-0.0078009553
-0.021796824
-0.028889365
-0.043885097
-0.053470757
-0.03705363
6.586134E-4
0.032287672
0.029130423
0.016324848
0.023518773
0.027833307
0.019246975
0.015594483
0.021884907
0.033943605
0.04337506
0.04102622
0.025618644
0.0065910835
8.1283774E-4
0.007697538
0.015860721
0.029563019
0.046643946
0.059109293
0.07181539
0.079069056
0.06357898
0.018693404
-0.039818253
-0.08303163
-0.10125924
-0.10488889
-0.10270183
-0.08970569
-0.069391064
-0.0646889
-0.06905918
-0.0682399
-0.066476546
-0.05521618
-0.039591674
-0.020163657
0.008461339
0.02291471
0.026687093
0.01876867
-0.01467939
-0.029628076
-0.007944751
0.012369232
0.012610677
8.2866783E-4
0.009979881
0.053854883
0.08924313
0.09257481
0.08711997
0.07290953
0.061284196
0.08370638
0.095652424
0.07084546
0.050076634
0.015300896
-0.031227456
-0.033827905
-0.013076223
-0.025897548
-0.08294718
-0.13861495
-0.12280871
-0.017776705
0.113078415
0.16947041
0.12183608
0.04583527
-0.013343614
-0.07582756
-0.0993992
-0.02483799
0.10187417
0.19101985
0.17365147
0.05064698
-0.07210257
-0.13734376
-0.181704
-0.21610099
-0.20693389
-0.13793878
-0.090102196
-0.091006175
-0.019133912
0.123458065
0.2325017
0.27777174
0.21939373
0.036280777
-0.19607306
-0.33864516
-0.31569916
-0.21272434
-0.12078318
-0.0034571958
0.15193672
0.2432998
0.2636258
0.2801104
0.24141343
0.124444135
-0.047490086
-0.19946091
-0.20537615
-0.16723478
-0.17424783
-0.13678582
-0.06654466
0.014452447
0.08741664
0.14576904
0.17799942
0.08059343
-0.022229485
0.032712184
0.1369006
0.15855181
0.07291332
0.025877174
0.061483998
0.07659416
0.13787343
0.21868664
0.23205464
0.16676006
0.02172964
-0.08630568
-0.22819972
-0.37530902
-0.29010853
-0.24829154
-0.34804052
-0.20996715
0.004473784
0.005180166
-0.039454136
-0.023890348
-0.0022856162
0.008840532
-0.057493906
-0.1973708
-0.22665206
-0.10440854
0.027849497
0.13574687
0.21309806
0.2048987
0.14787745
0.13399848
0.15534951
0.15349713
0.1318615
0.076552324
5.353094E-4
-0.032464437
-0.037197243
-0.029217526
-0.013126782
-0.007458671
-0.0026804118
-0.01974219
-0.03892582
-0.03128006
-0.027121874
-0.009891506
0.02050532
0.03834598
0.04479795
0.026277216
0.0050630155
0.0028890728
0.0017967732
-0.0022544453
-0.005715306
-0.0013325906
0.0074809953
0.009014281
-0.0010343062
-0.021269953
-0.04074381
-0.057863697
-0.066210516
-0.06391364
-0.06037787
-0.044051327
-0.019916605
-0.0011599056
0.01148122
0.006712672
-0.0054736533
-0.008655026
-0.0074505857
-0.0070559364
-0.0052710865
0.002485566
0.017348189
0.03418491
0.037393756
0.023710754
0.008678228
-0.0023058667
-0.0066561075
-0.0061225696
-0.0041584224
0.0026244407
0.011538632
0.020263735
0.022956517
0.013659494
0.0023614988
-0.0034932697
-0.0051881406
-0.0044575264
-0.0020923682
0.003942447
0.015097388
0.026789818
0.025839055
0.00955707
-0.008185261
-0.018924242
-0.021645188
-0.019116016
-0.013434805
-0.003717467
0.007968984
0.020441456
0.02580292
0.017573887
0.0057278285
-0.0026938622
-0.0068383417
-0.006804553
-0.0066361255
-0.0028950456
0.010057805
0.024510998
0.026808983
0.014100422
-0.0029255892
-0.012268806
-0.013985238
-0.012755618
-0.0065530976
0.002151372
0.012293434
0.024094088
0.025979245
0.0168618
0.0011835604
-0.014737495
-0.014536011
-0.008923373
-0.0099395495
-0.0045202635
0.006735797
0.018964846
0.024007313
0.011785443
-0.005826554
-0.018821053
-0.02390116
-0.020011932
-0.015265347
-0.008985424
0.002222727
0.012991425
0.01688755
0.00964639
-0.004659402
-0.014049919
-0.014859246
-0.016244888
-0.016394004
-0.006252158
0.008794359
0.021498976
0.023847373
0.012656884
-9.5878344E-4
-0.011611653
-0.016824069
-0.015397263
-0.0119314995
-0.004128887
0.008618441
0.021512147
0.027997537
0.022473617
0.011636634
0.0041476903
5.730563E-4
-0.002596441
-0.0067190807
-0.007771911
-0.0031889211
0.0065362593
0.010944074
8.8461005E-5
-0.01521966
-0.023669777
-0.024612451
-0.020576872
-0.014049238
-0.0028023983
0.009688557
0.019225264
0.024400037
0.01883416
0.0087652365
0.0020908231
-0.005785844
-0.0107515035
-0.008896362
-0.0035800831
0.009042204
0.026325613
0.032184888
0.020139296
5.2594056E-4
-0.016685849
-0.027396515
-0.029220914
-0.02601659
-0.020030132
-0.006391771
0.0091846455
0.014315305
0.008640224
-0.0014514762
-0.007963229
-0.006932589
-0.005425323
-0.006316396
-0.004368814
0.00389156
0.017592736
0.024369093
0.015598659
0.0013424874
-0.009782693
-0.015563386
-0.013760929
-0.007662924
-1.2087583E-4
0.011455901
0.024613842
0.028951386
0.01991094
0.0048545073
-0.005300468
-0.007685951
-0.009835028
-0.012314216
-0.008910583
4.957643E-4
0.015085387
0.023539728
0.013741755
-0.0032825118
-0.015984172
-0.022244478
-0.020642724
-0.01563126
-0.009169631
9.2941034E-4
0.013027155
0.020792363
0.015357653
-7.299479E-4
-0.011981541
-0.013458562
-0.014751003
-0.017636022
-0.014404328
-0.0016101685
0.01669637
0.027167447
0.020773485
0.005328053
-0.007875648
-0.014506562
-0.015420673
-0.011202355
-0.0036636346
0.005481813
0.018129235
0.026294854
0.02038949
0.0055968654
-0.007941825
-0.013247803
-0.013674146
-0.013482881
-0.008083382
0.003932319
0.019734489
0.027985979
0.019158063
0.0014903276
-0.0143734375
-0.021863826
-0.021526389
-0.01715071
-0.0072869617
0.0048908917
0.01531227
0.018698886
0.010656166
-0.0022830337
-0.011833652
-0.013445224
-0.013060053
-0.015348427
-0.012145773
0.0020380735
0.023607234
0.029093165
0.012613453
0.0020147974
-0.005261895
-0.01599009
-0.017422529
-0.013552384
-0.0057719285
0.004066351
0.014441625
0.025870984
0.0218215
0.0051732906
-0.008196694
-0.015543906
-0.015803292
-0.015688708
-0.012603853
6.939148E-4
0.017465824
0.029016107
0.023931561
0.006350957
-0.00776529
-0.016130555
-0.017018018
-0.0119922
-0.0061998754
0.003063339
0.0146421045
0.021202885
0.01685852
0.0028945252
-0.011264572
-0.017259844
-0.017790068
-0.018548597
-0.014550264
-0.0026913513
0.013249646
0.025268862
0.02153777
0.006491629
-0.0073124976
-0.01603454
-0.017156413
-0.013301754
-0.007616514
0.0013582845
0.013726313
0.024431383
0.02080924
0.003394511
-0.010089931
-0.01399356
-0.015782207
-0.016844999
-0.012780574
-0.002513322
0.013411948
0.02632563
0.0223147
0.0064364453
-0.007944141
-0.01593646
-0.016325012
-0.013198919
-0.007341738
0.003315319
0.014474791
0.021259965
0.018601542
0.006654349
-0.0053527295
-0.010941324
-0.012698965
-0.01476587
-0.013202091
-0.0034004457
0.012447261
0.024497617
0.021084249
0.006627203
-0.007519709
-0.01596763
-0.016459819
-0.013902059
-0.008813569
6.057966E-4
0.009963327
0.01784089
0.017809972
0.0068539814
-0.004719392
-0.010361615
-0.011147096
-0.012492874
-0.01301919
-0.005059231
0.008679789
0.019467294
0.018276803
0.005790375
-0.0059556104
-0.012653208
-0.01531406
-0.01395955
-0.008616996
8.512898E-4
0.011255055
0.018221982
0.01577437
0.0056887064
-0.0020047366
-0.006879353
-0.009880625
-0.009667779
-0.008334854
-0.002728548
0.008393426
0.017753417
0.016778225
0.0051648123
-0.006855569
-0.01285806
-0.013291687
-0.009955025
-0.0057543223
7.1361946E-4
0.010376689
0.017141445
0.01611083
0.007310437
-0.004273631
-0.008697938
-0.007010384
-0.008912481
-0.00965078
-0.0051127314
0.0016840256
0.012543564
0.014952773
0.0022066764
-0.008527258
-0.012996
-0.015100291
-0.013261626
-0.008670486
-4.1867208E-4
0.008184864
0.013992441
0.016383342
0.010558458
0.0013863196
-0.0031624471
-0.004531873
-0.0055774483
-0.0058753984
-0.001571034
0.007215368
0.014702164
0.014801343
0.005545022
-0.0061751124
-0.013304862
-0.014205678
-0.011107991
-0.007513239
-0.0019970518
0.005249526
0.010831213
0.012239212
0.007967835
0.0024177514
-0.001879076
-0.005599635
-0.006272417
-0.005947102
-0.0046244226
0.0029487896
0.011353077
0.01041731
0.002390303
-0.0047605247
-0.0089599015
-0.010667084
-0.010901608
-0.009554007
-0.0041410583
0.0035723164
0.009881555
0.011685476
0.0073824185
0.0019227716
-0.0012706821
-0.0029761905
-0.0030519
-0.0032057445
-0.0030880573
0.002061754
0.010303346
0.010615479
0.0026917877
-0.003661272
-0.008620092
-0.011333342
-0.0090366565
-0.0064432947
-0.0017535621
0.0050363047
0.008832129
0.010338325
0.00751426
0.0017906141
-0.0012730152
-0.002960006
-0.004719512
-0.005640059
-0.003235161
0.0026981023
0.007951655
0.009412683
0.0048262593
-0.002865989
-0.008235096
-0.009828943
-0.008111516
-0.005852891
-0.0013782353
0.00571888
0.01006004
0.011286251
0.007211112
6.203588E-4
-0.0014656102
-0.0040407004
-0.006161097
-0.004660191
-0.0034813974
3.1026886E-4
0.0056841997
0.0076483064
0.0033333553
-0.004883337
-0.0066846632
-0.0069214753
-0.009355847
-0.005419659
-9.406922E-4
0.0032681862
0.006847731
0.0016004789
-6.606332E-5
0.0035253374
2.0390464E-4
-0.0018132256
-2.0586695E-4
-0.0012001368
-8.228176E-4
0.0039441357
0.010101046
0.011115987
0.0069605606
0.0023216915
-0.0041142614
-0.009119562
-0.006753488
-0.0021427646
-0.0015791852
-3.0387373E-4
0.0048091817
0.007228938
0.0050779404
8.126421E-4
-0.0044659036
-0.0066516935
-0.005649983
-0.004776949
-0.0035811404
-1.4585393E-5
0.0058726724
0.0072496613
0.0010285655
-0.0048972107
-0.006948725
-0.0074987714
-0.0066287033
-0.004357822
-9.3456474E-4
0.0035865798
0.0072491937
0.007909934
0.005051614
0.0010384909
-1.3850804E-5
1.0783588E-4
-0.0015945836
-0.0023507294
-0.0021953562
-6.077286E-4
0.003984822
0.0065295165
0.0053692227
0.001545394
-0.0036970263
-0.0054552746
-0.0050159413
-0.004314936
-0.0016487511
0.001394922
0.0050187013
0.008350335
0.007916547
0.0037620505
-4.3080523E-4
-0.0013172223
-0.0020121227
-0.003187002
-0.0016115805
6.173209E-5
0.0024599105
0.0046868008
0.0010104143
-0.003910613
-0.006970273
-0.010851125
-0.010749713
-0.006831801
-0.004315151
-7.3087116E-4
0.0039404356
0.006583772
0.0068197562
0.0029905282
-0.0012164487
-9.251075E-4
-4.7508997E-4
-0.0019923304
-0.0021312227
8.5313426E-4
0.0063025374
0.0089652045
0.0055279885
0.001076635
-0.0012323349
-0.004586241
-0.006526113
-0.0034971987
-0.0011107691
9.394593E-4
0.005658431
0.0071971277
0.005391105
0.0023494193
-0.0015726223
-0.0026104273
-0.0031223707
-0.0042584855
-0.00321445
-4.6208428E-4
0.0042639403
0.006604072
0.0038267258
3.8389142E-5
-0.0036833829
-0.0056014396
-0.006065277
-0.007892214
-0.0071673817
-0.0026035411
0.0012865223
0.0043016435
0.0053253416
0.0020217746
3.9992624E-4
2.9412349E-4
-0.0026455356
-0.001782217
-0.002480662
-0.0066203405
9.952664E-4
0.009123259
0.0059979376
0.0032358672
3.4338293E-5
-0.0042114886
-0.004878675
-0.004230057
-0.0019559835
0.0011993829
0.005434453
0.008649953
0.0066332226
0.0027119282
-0.0014038534
-0.0036486625
-0.0031343205
-0.0040368456
-0.004767304
-0.002404147
0.0034501653
0.007792526
0.005623216
0.0019948147
-0.0022873743
-0.006639134
-0.0061222026
-0.00414626
-0.0019186111
0.0013621578
0.004105895
0.0075057736
0.007087927
0.0011989777
-0.0032065215
-0.004721515
-0.005181727
-0.0045795855
-0.0028093613
5.3593033E-4
0.004446747
0.0069323163
0.005388584
2.6129957E-4
-0.0035287791
-0.005979291
-0.008047943
-0.0066914707
-0.004355818
-0.0014085629
0.004430612
0.008140955
0.008427142
0.0048232004
-0.0020039391
-0.0029096627
-3.932013E-4
-0.0010019622
-8.6918817E-4
6.6587253E-4
0.004259122
0.0088777
0.008662677
0.0029761025
-0.003927659
-0.007260943
-0.008231384
-0.008156143
-0.005037924
-0.0017800074
0.0018400387
0.0054682074
0.0052671633
0.003821361
0.00149776
-0.0017629983
-0.0032635361
-0.0041902135
-0.0037899346
-6.0976186E-4
0.004288193
0.0068621095
0.00398603
7.8141384E-5
-0.0037066848
-0.007129116
-0.0060483366
-0.0045144614
-0.0045672003
-0.00141446
0.004187108
0.007835039
0.0061555966
0.0019562976
9.1416805E-5
-7.4167654E-4
-0.0021549517
-0.004023247
-0.0041176244
-4.3571895E-4
0.0040935804
0.006985957
0.006587151
0.0027751264
-0.0020821763
-0.0068117855
-0.007995118
-0.005091351
-0.0017065918
0.0019339226
0.005299899
0.007993186
0.008672521
0.0053529823
1.4597729E-4
-0.0049845083
-0.0069215093
-0.0059421933
-0.004726334
-6.830843E-5
0.005586795
0.0089915935
0.009135986
0.0027192894
-0.0033411449
-0.008286732
-0.01574974
-0.01421818
-0.004657545
-1.9945402E-4
0.0013878224
0.0065481057
0.008974348
0.004132766
8.303264E-4
-0.0025431227
-0.009055749
-0.007402777
-0.0022759535
4.295121E-4
0.007568249
0.012358505
0.010009532
0.00486116
-0.0015422484
-0.0051542465
-0.0058233603
-0.0056637973
-0.003595035
4.3455788E-4
0.00573313
0.008835307
0.007428466
0.0031227623
-0.0021568062
-0.005251084
-0.0051490166
-0.0046394425
-0.004716467
-0.002643623
0.0031814307
0.009202201
0.010113228
0.0041459147
-0.0041256133
-0.009125255
-0.010884421
-0.009875946
-0.0064649023
-0.003007136
0.0022567064
0.00915145
0.010693696
0.00512922
-0.0022053735
-0.005907591
-0.0049218475
-0.003672981
-0.003160293
-2.655547E-4
0.0057118847
0.0119664185
0.011315408
0.003510483
-0.003275219
-0.0076819565
-0.0101970965
-0.008743104
-0.0049416036
-1.980624E-4
0.0057022474
0.010852017
0.011037413
0.005470544
-0.0017972094
-0.0069951145
-0.008410544
-0.00797086
-0.007102094
-0.0033735954
0.004367384
0.011813623
0.011802848
0.0056239516
-0.0013609411
-0.007719639
-0.009481067
-0.0072490023
-0.0053743008
-0.0015929797
0.005470657
0.01143018
0.011095864
0.0055085104
-9.7644643E-4
-0.005344382
-0.006014417
-0.0069057103
-0.008222849
-0.004750355
0.0036968829
0.0112820575
0.010804215
0.0058648298
3.064489E-4
-0.0077590425
-0.010894322
-0.007839617
-0.004706576
-0.0012423043
0.003476214
0.009108542
0.010093262
0.0054577896
4.9021194E-4
-0.0042359596
-0.006811533
-0.007891192
-0.0072118496
-0.0025148834
0.0051838956
0.014994244
0.01623384
0.0073081935
-0.0020728628
-0.0103490865
-0.011006666
-0.011048128
-0.015196352
-0.0066809445
0.0051940666
0.010410373
0.014903925
0.009877741
-7.423354E-4
-0.0059401384
-0.00814337
-0.008983401
-0.008159253
-0.0035834003
0.0039922493
0.012244663
0.016064864
0.008648066
-0.0014971218
-0.0067267963
-0.009264401
-0.007787666
-0.0049661133
-0.002242163
0.0040545436
0.010131471
0.009450573
0.004019515
-2.5438814E-4
-0.0037264866
-0.0075495797
-0.009745613
-0.008538322
-0.0030517797
0.00439721
0.012359738
0.01542254
0.008169115
-9.3721016E-4
-0.0067693186
-0.00978518
-0.008064247
-0.006094436
-0.0028732254
0.0040188315
0.009374335
0.011841267
0.007535978
-0.0021475947
-0.0072463043
-0.009591154
-0.010857816
-0.008360656
-0.0058317636
9.184375E-5
0.010497326