-0.005051601
-5.52423E-4
0.0025080421
0.0042829
0.0041268705
0.0015368176
9.784121E-4
8.478877E-4
3.790706E-4
-1.5548312E-5
-0.002763042
-0.0051588314
-0.0041836193
-0.0015620847
6.938672E-4
0.0013118117
8.596435E-4
0.0012028718
9.7372534E-4
-1.20424265E-4
5.0156715E-4
2.7779E-4
-0.0016809955
-0.0011316944
6.0953613E-4
6.9369684E-4
8.5067225E-4
0.0023739014
0.0023225988
-5.5628916E-4
-0.002421898
-0.0038117832
-0.0047180667
-0.0021540711
-1.6254936E-4
1.1859227E-4
0.0011832281
0.0019895192
0.0021311543
5.219775E-4
-7.427152E-4
-5.484028E-4
-0.0015107444
-8.261919E-4
0.001213137
0.0024707671
0.0036851224
0.0021849687
8.635592E-4
0.0020408593
0.0011535208
1.3266379E-4
0.0010159435
0.0014432414
0.0022220367
0.0036974233
0.004769725
0.0038495597
-6.1852555E-4
-0.0051599094
-0.006843059
-0.007538455
-0.0064849923
-0.003730154
-0.0025377264
-0.0017991279
-1.9782477E-4
0.0010071609
0.0012223825
3.9538482E-4
4.0733503E-5
-4.5503446E-4
-0.0017308326
-0.001611004
-0.0010308871
-4.9571187E-4
6.572332E-4
0.0013300274
0.0016531235
5.1107194E-4
-0.0016666454
-4.1696778E-4
0.0037544111
0.005282492
0.003952571
0.0037931262
0.0045250123
0.004225632
0.0028754734
0.0017401397
0.0011775506
-5.0368265E-4
-0.0010371672
-6.50871E-4
-0.002048252
-0.0021466801
-0.002392906
-0.0013802657
0.0024364693
0.0019972809
0.0011510792
2.5057784E-4
-0.0016524694
0.0010021392
-0.0061083655
-0.016566556
-0.008198642
0.0013593739
0.001899062
0.0023726844
-3.6138808E-4
-0.0033158555
-0.0035555959
-0.0022998306
5.5452675E-4
0.0028359937
0.005708029
0.0059839957
0.0030726737
0.0013429596
-0.0011327041
-0.0012367532
0.0012456488
0.0013074728
0.0023095119
0.0033259818
0.0021735893
0.0022956345
0.0023502563
0.0015708738
0.0019643165
0.0021408997
5.092487E-4
-0.0017381182
-0.0031102656
-0.0030934056
-0.0014257848
-1.19390024E-4
-3.9516823E-4
1.9812322E-4
0.0011809715
3.8266645E-4
-4.765554E-4
-5.962955E-4
-0.001666622
-0.0023194242
-0.0011066544
-5.2589306E-4
-7.5650733E-4
-9.1011147E-4
-0.0016837675
-0.0012567049
-0.0012343931
-0.0029357453
-0.0017815309
3.7377942E-4
5.059946E-4
6.339466E-4
-4.3101067E-4
-7.8568776E-4
0.001531336
0.0025079935
0.0021315136
0.0019654317
0.0018468865
0.0021518415
0.0019067951
0.0013799198
-2.5709215E-4
-0.0029566805
-0.0026929574
-0.0014240651
-0.0016759004
-6.996384E-4
1.9346285E-4
8.3427825E-5
8.0819393E-4
0.0016138175
0.0015418455
7.822236E-4
4.6498887E-4
-4.4283885E-4
-0.0028280416
-0.002797738
-2.8085627E-4
0.0016422297
0.0028343163
0.0034594196
0.0040347553
0.003917945
0.0039138487
0.003864518
-3.7338556E-5
-0.0033754024
-0.003017639
-0.0028770897
-0.0011453943
-1.76087E-5
-0.0028831358
-0.004573495
-0.0027817255
-5.7067815E-4
-0.0013749291
-0.0025779817
-0.0023661999
-0.0039968938
-0.0026195867
4.160358E-4
-3.1485248E-4
0.0015474102
0.001982664
-0.0017945251
-1.2710564E-4
0.002916308
0.0026158881
0.0028750899
0.0027155292
0.0021978389
0.0020553665
0.0011312374
1.4745592E-6
-2.1859468E-4
7.4854126E-4
0.0022328356
0.0034448924
0.0022327306
-0.0012256689
-0.0034602846
-0.0039680726
-0.0029524013
-0.0013148506
-6.726354E-4
6.4096545E-5
0.0012228912
0.0023706132
0.0024538871
3.612967E-4
-0.001020159
5.156563E-4
8.592739E-4
-0.0029938503
-0.0046252715
-0.0014325033
7.633679E-4
0.002371538
0.0033498209
0.0017542273
7.4695033E-4
4.8756967E-5
-3.43441E-4
-2.4004214E-4
-0.0019194918
-0.0031736882
-0.0026597853
-8.1881095E-4
-8.214189E-4
-0.004056605
-0.0029440797
2.6721376E-4
1.1535423E-4
0.0013894772
0.0018335291
-7.460926E-5
4.5463466E-4
0.002225862
0.0024516615
0.0011852415
0.0015962463
0.0032109562
0.0025995683
0.0010948959
-0.0013053452
-0.0021375222
-1.3742764E-5
-6.6760083E-4
-0.0022512798
-0.0017502133
-8.758424E-4
7.9615356E-4
7.054783E-4
-5.638863E-4
-9.182538E-5
-4.177875E-4
-0.0015410817
-9.7319315E-4
8.5578096E-4
0.0013877965
4.211639E-4
-7.7598925E-5
-4.0446332E-4
-3.7541927E-4
-3.9664764E-4
-1.12172675E-4
0.0018925169
0.0023039214
0.0016995248
0.002788691
0.0030578054
0.0020227628
-6.090295E-4
-0.0042971787
-0.005581426
-0.0038759166
-0.0012087874
5.3614634E-4
0.0018440929
2.4214224E-4
-0.0041352506
-0.002918409
7.7545317E-4
3.967254E-4
6.963608E-5
3.100197E-4
9.415765E-4
0.0017529682
0.0013210508
0.0020108945
0.00166017
8.8874454E-5
-4.1447536E-4
-7.888015E-4
-1.7484355E-4
-4.5920972E-4
-0.001184389
-2.6982737E-4
8.7163615E-4
0.0026014121
0.0010390491
-0.00226367
-1.9770853E-4
0.0015469718
-2.856706E-4
-6.4334634E-4
-5.245508E-4
-0.0013786783
-7.6736853E-4
2.5992008E-4
-1.9319057E-4
3.8883166E-4
6.736015E-4
-0.0011813152
-0.002284455
-0.002726403
-0.0020667515
-7.6068775E-4
4.1249912E-4
0.0026571725
0.0029904544
0.00222739
0.001150299
-6.4201106E-4
1.6087508E-4
4.2779229E-4
5.8047165E-4
0.0017849754
8.589731E-4
8.798515E-4
9.055482E-4
7.1606226E-4
0.0010094589
-2.7672822E-6
-8.553516E-6
-0.0014854479
-0.001280795
0.0016520766
0.0023839576
0.0037045574
0.0010397091
-0.0010632288
-0.0012503685
-0.005896977
-0.0019153713
-0.004964911
-0.017957203
-0.007864386
0.004418594
0.002591682
0.0034810016
0.0022243392
0.002575901
0.0045979926
0.0022035178
0.0014936229
6.4479397E-4
8.712882E-4
6.624706E-4
-0.0012323317
9.933435E-4
0.0024752975
0.0024791192
0.0017038673
-4.991155E-4
1.5736373E-4
5.02883E-4
4.953207E-5
-8.8705774E-4
-0.0020335405
1.9212443E-4
0.0010951054
5.6446885E-4
-2.5981132E-4
-0.002364212
-0.0014780452
-0.001594963
-0.002288949
7.4314297E-4
0.0016094265
4.8489534E-4
5.4018175E-5
1.4923194E-6
6.707329E-4
2.3214312E-4
1.2746306E-4
-1.9074929E-7
-0.0011588222
2.0185494E-4
0.0020747774
0.0011633649
-4.5791196E-4
-6.950845E-4
-2.0680812E-4
-0.0012441606
-0.0018313155
-7.9718267E-4
-0.002390929
-0.003577403
-0.0010148563
-3.6626935E-4
-5.0321675E-4
0.0012446329
0.0016215448
0.0019024134
0.0018384098
7.00197E-4
6.3189905E-4
5.595674E-4
0.0011493891
0.0014036794
3.3024212E-4
-1.1331194E-4
-0.0014984513
-0.0022613776
-0.0017579275
-0.0021183775
-6.496745E-4
0.0015503527
0.002340665
0.0020066327
2.6353003E-4
-4.6847043E-5
1.7307159E-4
-8.276101E-4
-7.1034994E-4
-2.2854978E-4
3.0130914E-5
-3.4660308E-4
-0.0015339417
-4.9729826E-4
0.0017742931
0.0017785269
-9.9478486E-5
-0.0015472281
-9.797632E-4
0.0010061929
0.001610539
6.08412E-4
0.0016207768
0.0029840672
0.0014902187
5.4528797E-4
2.7836845E-4
-7.576841E-4
-8.1822876E-4
-0.0018152703
-0.0031113776
-0.0014470351
4.5595967E-4
3.0561138E-4
-2.0630355E-4
-5.8634905E-4
-8.0714753E-4
-7.161228E-4
-0.0010199597
-5.102008E-4
2.5562354E-4
-6.004072E-4
-3.2001373E-4
6.757647E-4
5.0154637E-4
7.7344326E-4
-4.7559377E-5
-0.0013536743
-0.0012676017
-6.520355E-4
1.1818995E-4
-9.912265E-4
-9.7270287E-4
0.0013137915
3.823025E-4
3.457044E-4
0.0023012697
8.1352086E-4
-9.272113E-5
0.0012467661
0.0020752747
0.0015285191
-0.0010373044
-0.0018340528
2.810984E-4
0.0011581744
6.2510784E-4
4.5224468E-4
-3.1687203E-4
-0.002184835
-0.0020544475
8.7923E-4
0.002681796
0.0025798369
0.0024177837
0.0017706804
5.037929E-4
-0.0010359222
-0.00271192
-0.0024888082
-9.618644E-4
-6.3489383E-4
0.0011684186
0.003584043
0.0023899158
8.830834E-4
-5.0435778E-5
-0.0028404836
-0.004437837
-0.0034816398
-0.001973954
-0.001014061
-4.8768305E-4
-1.4088211E-4
-9.606238E-5
2.717328E-4
-1.5835141E-4
-0.0020479278
-0.0027512717
-0.0018219735
-6.730541E-4
9.2458853E-4
0.0020212769
0.0011605914
0.0015959375
0.0040043956
0.0033104243
0.0015750238
0.00153802
8.7399833E-4
0.0012631139
0.0016725113
0.001083363
0.0018297684
0.0015467297
-1.957774E-5
-0.001528874
-0.0011184498
0.001780407
-1.1697242E-4
-0.0037147983
-0.0011669027
0.0015400697
0.0014612037
3.042579E-4
-0.0019508698
-0.0026294827
-0.0019425172
-0.0014729064
-9.623919E-4
-5.250332E-4
-4.6416753E-4
-3.0505194E-4
5.274836E-4
-1.0305249E-7
-8.7936316E-4
-2.452882E-4
-0.0015937117
-0.0026202982
-3.221666E-4
2.8301572E-4
1.5523752E-4
0.0013460817
-6.351068E-6
-8.331358E-4
5.6618114E-4
-1.00886245E-4
-4.959473E-5
9.0196513E-4
1.6011934E-4
0.0013158461
0.0032497444
0.003832924
0.0027618823
0.001155829
0.0032110603
0.002497047
-0.0021350656
-0.0023448018
-0.0011797812
4.7349674E-4
7.448014E-4
-0.0011278474
0.0014130699
6.866622E-4
-0.002871714
-9.075476E-4
6.836217E-4
0.0015936972
0.0011817259
9.471877E-5
-0.0022738539
-0.012436879
-0.012858538
-1.9218214E-4
0.0036477852
0.0022729514
0.0025726843
0.0035367287
0.0042025563
3.9131707E-4
1.8274062E-4
0.0033484844
0.0028601608
0.0037520295
0.0034923106
-2.7342024E-4
-0.0028680675
-0.0034660145
-0.0020870806
-3.8301514E-4
8.4040314E-4
0.0014350311
0.0013843823
0.0015576107
4.9599254E-4
-4.797002E-4
-0.0010479828
-0.0018549456
-7.253172E-5
0.0013011426
-0.001000642
-0.0030454064
-0.0021893682
-6.566414E-4
-8.308483E-4
-0.0014777742
-0.0012779258
-5.9644046E-4
-2.2859733E-4
-1.3950095E-5
0.001504305
0.002943234
0.0030398378
0.0022940873
0.0015101325
0.0013095894
-0.0010369469
-0.0025095672
2.3182864E-4
5.115351E-4
-0.00158714
-0.0015472973
3.6265792E-5
0.0025777887
0.003429866
0.0026907458
0.0022346517
0.0011798401
2.727953E-4
3.932859E-4
0.0016624684
8.863576E-4
-0.002542762
-0.0029368338
-0.0013901092
-6.7676965E-4
-7.5584586E-4
-0.002890006
-0.0040300293
-0.0031453685
-0.002185606
-5.282121E-4
8.862575E-4
0.0013595244
0.0012708297
0.0011119148
6.402075E-4
1.0961821E-4
0.0014282301
0.001124944
-8.3960645E-4
8.460363E-4
0.00153292
-9.274326E-4
-6.455287E-4
0.0013031899
0.0013638444
-4.9016307E-5
-3.7842977E-4
0.0010131188
0.0011816969
0.0016617432
0.0033902396
0.0010915264
-0.0015496775
-2.8248236E-4
-0.0030398741
-0.0065162745
-0.0034471885
-0.0011498064
8.567797E-4
0.0036124042
0.0021500823
0.004273255
0.007920852
0.00368278
-5.390147E-4
-0.0013398651
-0.0027656711
-0.0036511882
-0.0038635542
-0.003291138
-0.0027049768
-0.0029578193
-0.001823703
5.150548E-4
3.8596228E-4
-0.0017775883
-6.075232E-4
0.0019434871
0.0020786421
0.002637309
0.0021586514
0.0012107281
0.0023130681
0.0010801475
-7.8026304E-4
-8.244195E-4
-0.0022233336
-0.0020742365
9.4256096E-4
0.0025086873
0.0024333103
0.001998157
5.9420563E-4
4.5795587E-5
-1.8449788E-4
-0.003519103
-0.004934717
-0.0025744094
-0.0030997675
-0.003257113
-4.977751E-4
1.1386999E-4
2.1201505E-4
7.279463E-4
-2.763699E-4
-5.6646246E-4
8.608825E-4
0.0032934535
0.0060088527
0.007525415
0.008251817
0.009730172
0.010614642
0.00986559
0.008436138
0.0037394422
-0.003293148
-0.0071599847
-0.009870267
-0.012869723
-0.012950309
-0.01120124
-0.009668447
-0.008878189
-0.007860497
-0.006029848
-0.0049537625
-0.00245589
0.0016809328
0.0023708167
0.0015270389
0.0039616674
0.006413251
0.0051125423
0.001675154
-0.0016338086
-0.0028551174
-4.4899638E-4
0.004831662
0.010015498
0.011181148
0.009107234
0.006409715
0.0017656407
-4.9440295E-4
0.002323257
0.001234197
-0.0043389443
-0.006715183
-0.0049944054
-2.3197405E-4
0.003109372
0.0015007668
-0.0017081456
-0.006235072
-0.0098521495
-0.010525468
-0.011880945
-0.007898879
0.0022856733
0.007518361
0.010117462
0.013377067
0.014501737
0.01846585
0.022845509
0.019050948
0.008850424
-0.0023404744
-0.009427137
-0.0081986915
-0.005703273
-0.011559039
-0.017094232
-0.014202606
-0.010037823
-0.0059700767
-0.0047240844
-0.008519784
-0.008074851
-0.010845239
-0.024853133
-0.033654585
-0.030088702
-0.022693805
-0.016684866
-0.010964266
-0.0033145947
0.004232944
0.012049582
0.019126086
0.023863932
0.028290374
0.028900841
0.029704781
0.0347912
0.0329591
0.026635423
0.028326
0.03390824
0.031520195
0.017404204
0.0022498532
-0.0034911481
-0.0028902204
-0.006747284
-0.021935683
-0.030289894
-0.016421214
-0.004435782
-0.007956036
-0.0135805905
-0.022032036
-0.033384185
-0.03708379
-0.03326091
-0.029437818
-0.026787214
-0.019744165
-0.010270497
0.0016994275
0.022514096
0.03920746
0.039504126
0.02615488
0.0051907273
-0.0050079306
-9.1039843E-4
-0.0016411642
-0.012398266
-0.018735083
-0.006277682
0.01328395
0.028583659
0.045188695
0.051055077
0.043375753
0.029638672
0.0095180655
8.698301E-4
0.0011427142
-0.007229682
-0.021464907
-0.045522686
-0.062896796
-0.06180244
-0.070442855
-0.076303236
-0.051023837
-0.018428879
0.0011453005
0.018455442
0.039692543
0.04947782
0.031893346
-0.0032566155
-0.0346319
-0.051829126
-0.057757307
-0.05696905
-0.036173835
0.025622854
0.1158368
0.19566408
0.23909211
0.22235854
0.15251729
0.07697698
0.007724362
-0.02762266
-0.012834047
-0.041125126
-0.105562866
-0.11805313
-0.12587173
-0.11854778
-0.06236069
-0.064664565
-0.11215766
-0.103401475
-0.06844869
-0.04757553
-0.03051296
-0.006262469
0.016903188
0.009969786
-0.016909327
-0.020300018
0.010089502
0.033475697
0.017238278
-0.0072040847
-0.0037732222
0.0129797375
0.02872349
0.06828174
0.121516064
0.12917723
0.10012883
0.076912105
0.047400303
-0.002910916
-0.05210288
-0.06891103
-0.083058715
-0.12015646
-0.12040078
-0.080114365
-0.036707513
0.02186966
0.08968343
0.1582426
0.20548052
0.21172506
0.19375357
0.13178076
0.043154888
-0.035644963
-0.13149251
-0.19663247
-0.19510213
-0.20971245
-0.219326
-0.1461385
-0.08143878
-0.09511746
-0.096577905
-0.06728832
-0.062261723
-0.0614826
-0.05083974
-0.04316438
-0.03161604
-0.010020389
0.015071042
0.031543832
0.043819603
0.043928448
0.057626046
0.14674984
0.26461965
0.34534138
0.3686171
0.3110731
0.22667177
0.13142319
0.015924288
-0.042922057
-0.07715721
-0.120794326
-0.10646326
-0.09423237
-0.117738426
-0.09247445
-0.06679435
-0.13383587
-0.22955345
-0.23936634
-0.16311702
-0.07890911
-0.02507318
-0.0026118825
0.006669459
0.029770762
0.045821913
0.046665914
0.07232615
0.08261837
0.025591282
-0.018351298
-0.0056198216
0.0027002215
0.012609918
0.051363043
0.078146815
0.067972794
0.03203499
-0.02170425
-0.08647073
-0.13099776
-0.119577736
-0.08504038
-0.07086453
-0.045716297
5.197989E-4
0.02934506
0.043654673
0.059112813
0.069299035
0.07318391
0.07278105
0.07453337
0.079781316
0.08680056
0.10133991
0.114195414
0.12328949
0.1325249
0.14091533
0.15419406
0.11522612
-0.007110753
-0.106178395
-0.1305355
-0.1303836
-0.12182295
-0.109383956
-0.09374647
-0.07342197
-0.061561197
-0.05526368
-0.05517635
-0.059339434
-0.06177907
-0.067807496
-0.06491277
-0.050962973
-0.03442318
-0.014404965
-0.006538879
-0.0033949718
0.009173848
0.012294363
0.010582842
0.01796101
0.030328566
0.04614889
0.05480834
0.0533193
0.050381064
0.046229545
0.04121493
0.03325608
0.02365699
0.018028297
0.013977677
0.010957568
0.01058019
0.011724868
0.012935083
0.013298608
0.015673004
0.018785879
0.017999435
0.014129585
0.007973831
1.06459345E-4
-0.005549889
-0.0076278974
-0.009741302
-0.012577548
-0.013698294
-0.014367855
-0.013699176
-0.010434339
-0.0093227
-0.009593555
-0.0073821764
-0.0048401277
-0.0016903145
0.0010579978
-6.433656E-4
-0.0012006076
0.0031137855
0.0052802176
0.0045123124
0.004507454
0.002506149
-0.0036346333
-0.013311515
-0.02492715
-0.035065208
-0.041295264
-0.040837914
-0.035812233
-0.034038074
-0.03276203
-0.026751831
-0.021658566
-0.017065763
-0.010379919
-0.006861763
-0.0027414085
0.0055617583
0.012167013
0.017107697
0.02034028
0.021196475
0.02230595
0.021635886
0.01911026
0.015370533
0.0113568455
0.010687717
0.00955299
0.0061892993
0.004078242
0.0029657863
0.0033349392
0.0042225295
0.0047222064
0.0048036478
0.0036225785
0.0034761725
0.0022622508
-0.0013273867
-0.0019747475
5.046387E-4
0.0032190813
0.004474244
0.0044088433
0.0043384833
0.003852302
0.0040569925
0.0035374253
0.0012781483
-3.0034652E-4
-0.002960307
-0.004914768
-0.0046928795
-0.00705519
-0.010104331
-0.012782565
-0.016723676
-0.017947024
-0.017027706
-0.01575884
-0.012382
-0.008873615
-0.006048363
-0.002375296
6.038931E-4
0.001282215
0.0017914694
0.0049962415
0.008493311
0.008355071
0.007815808
0.010688752
0.012109575
0.010301845
0.010323905
0.010329459
0.009300565
0.009868212
0.007606235
0.003893097
0.0024372467
1.2904567E-5
5.680617E-4
0.0034474016
0.0018181637
1.9802294E-4
-2.18442E-5
-0.0011652608
-6.110507E-4
-5.932682E-4
-0.00198859
-0.0014453495
2.6989338E-4
5.179195E-4
-8.30344E-4
-0.0013580979
-0.0012387331
-0.0017811635
-6.9888117E-4
0.0011163632
1.3500066E-4
-5.594201E-4
0.0023151499
0.003958582
0.0027300564
0.0031979426
0.0040715076
0.0025831668
0.001208283
0.0021850143
0.0037516963
0.0033233217
0.0029233801
0.00326402
0.0029022016
0.0036453006
0.0041537653
0.004042412
0.0043816254
0.0032401055
0.0030122153
0.003644823
0.0038101838
0.0053082644
0.0053477767
0.0047647166
0.004521523
0.0020539176
1.7239097E-4
-3.1361508E-4
-3.4445905E-4
-8.67221E-4
-0.0015143418
8.157007E-4
0.001793685
3.4072218E-4
-2.6950704E-5
-0.0015842931
-0.0034090208
-0.0056736358
-0.007450004
-0.004582718
-0.0011261709
2.0233434E-4
2.05819E-4
-5.038347E-4
-2.4528033E-4
-6.7434454E-4
-9.602446E-4
-4.9542624E-4
-1.3522882E-4
0.001559516
0.002528082
0.0034321302
0.0039622686
0.002116336
0.0025203575
0.0030698741
9.5498457E-4
-3.3518983E-4
-7.981711E-4
4.892204E-4
0.0020293405
0.0012399966
-2.2209117E-5
-0.0010289255
-6.2652584E-4
-2.7106515E-5
-4.1373898E-4
1.2807567E-4
-5.671209E-4
-0.001935138
-8.234967E-4
2.4841607E-4
-6.2353014E-5
3.2212413E-4
9.772511E-4
6.529346E-5
-9.679739E-4
-6.363209E-4
2.887374E-5
6.475907E-4
9.6457213E-4
0.0014218695
0.0021693422
0.002679982
0.0028564653
0.0015148711
5.840469E-4
6.856114E-4
-0.0014439211
-0.002910479
-0.0017690132
-8.470727E-4
6.890832E-4
0.002263089
0.0013135172
3.9134407E-5
2.8098977E-4
-5.150678E-4
-0.0015060753
-7.198538E-4
-0.0011220853
-0.0022003402
-8.80915E-4
0.0019171201
0.0028805777
0.0019432877
0.0023194484
-8.950003E-4
-0.0050900597
-0.0021000348
-0.0051511577
-0.010604601
-0.0027424754
0.0020398535
2.9028227E-4
0.0023833655
0.0010196893
-8.5424626E-4
1.9597558E-6
-2.0315722E-4
0.0014385082
0.0025922472
0.0025099104
0.0025995832
0.0018014286
0.0014927009
-8.440729E-4
-0.0030755152
-0.0015787584
-5.488201E-4
5.932877E-4
0.0021376917
0.0014130893
7.666623E-4
6.3094345E-4
-4.2333926E-5
-2.856553E-4
-2.4366802E-4
-8.365525E-4
-0.0015268921
-4.259046E-4
0.0011532032
8.93657E-4
2.5376183E-4
1.980974E-4
-1.4823898E-4
-5.657478E-4
-4.1592028E-4
-5.121471E-4
-4.463187E-4
9.149501E-4
5.412572E-4
-0.0010382845
6.3699135E-4
0.001993764
4.5567527E-4
-5.637854E-4
-0.0019251158
-0.0028202932
-9.6080534E-4
-6.7095825E-4
-0.0016161808
2.5917368E-4
-4.895574E-4
-0.0046438654
-0.0038506333
-6.5104285E-4
-7.298924E-4
-0.001101373
-0.0010772197
-8.497779E-4
6.485774E-4
0.0011905663
0.0012637305
0.002127739
0.0014250878
-4.4511454E-4
-0.0014063715
-0.0015853345
-0.001083687
2.8801814E-4
0.0016941165
0.002755529
0.0035694214
0.003774312
0.0032791863
0.0012208965
-8.84574E-4
-6.158637E-4
-3.460624E-4
1.716624E-4
0.0018230855
0.0020655722
0.002279467
0.0012046293
-0.001960379
-0.001983029
-0.0014073114
-0.0031972239
-0.002859469
-8.334051E-4
2.7476714E-4
8.2263374E-4
-2.985556E-4
-0.0024527276
-0.0019358366
-5.625786E-4
-0.001917606
-0.0023808472
-0.0013674316
-0.0029632512
-0.0042708614
-0.0012413872
0.002523058
0.0021472676
2.365133E-4
9.433219E-5
-6.35123E-4
-0.0011356644
-5.564802E-4
-7.765257E-4
4.3817243E-4
0.002283409
0.002655634
0.003019066
0.0024168603
0.0017665692
0.0017776979
7.2893593E-4
5.60497E-4
2.812733E-4
-9.23618E-4
1.9496652E-4
9.279533E-4
-2.0367966E-4
1.0227689E-5
-5.154288E-4
-0.002783248
-0.0031951857
-0.0013418975
2.7778535E-4
7.825866E-4
0.0011447814
0.001113706
7.6595874E-4
3.8875922E-4
-0.001811711
-0.0031120447
-0.0012961708
-9.931283E-4
-0.0014590124
-2.9982071E-5
3.8887348E-4
7.74112E-4
0.0026893418
0.0027091075
2.9079086E-4
-0.002019813
-0.0029738802
-0.0010087325
0.0022060769
0.0015283973
-2.3106558E-4
0.001226962
0.0012156132
-7.5069384E-4
-9.878932E-4
-0.0016764632
-0.0032247296
-0.002363781
3.252822E-4
0.0013402683
4.8543856E-4
3.5745185E-4
0.0014811743
0.0022514006
0.0010691729
-0.001079992
-0.0024160254
-0.0023072415
-1.5985548E-4
0.0014490569
0.0015051698
0.0015788403
3.8004262E-4
-5.9659965E-4
-4.6399955E-4
-4.896407E-4
-3.5909354E-4
-0.0019772733
-0.0026121521
-4.3819422E-5
0.0012780669
7.536228E-4
-6.3795253E-4
-4.189535E-4
0.0014010369
-7.0984504E-5
-0.0012928725
5.228475E-4
0.0019401192
0.0022234032
7.8936305E-4
2.4458632E-4
0.001924196
0.0019103677
-4.5774697E-4
-0.0026048678
-0.0015862205
7.704615E-4
0.0011756365
0.0012551697
4.20241E-4
-0.001300544
-0.0010695995
-6.8501785E-4
-0.0028758724
-0.0048478353
-0.0027838713
-3.2966095E-4
-1.3181717E-4
3.7336073E-4
-9.138129E-5
9.78241E-4
0.0039107073
0.0014326505
-0.0017265759
-5.577832E-4
-6.5000507E-4
-0.0010913244
-1.8055714E-4
9.689352E-5
6.6896185E-4
0.0015070365
0.0025471235
0.0022366438
-7.5751735E-4
-0.0017426237
-2.5197148E-4
-5.9085745E-5
-9.024388E-6
5.433116E-5
-2.9169078E-4
1.2670025E-4
5.851935E-4
0.0015138278
9.031358E-4
-0.0025580812
-0.0031563684
-0.0012514719
-0.00107386
-3.1726426E-4
8.398953E-4
8.043609E-4
0.0013894395
0.0013110727
-9.990203E-4
-0.0017751752
5.5501645E-4
0.0013176008
-5.513442E-4
-7.823829E-4
0.0013064864
0.0021047331
5.6621496E-4
-3.6408618E-4
-3.6536914E-4
-3.9622418E-4
-9.767118E-5
-5.3585216E-4
-3.582049E-4
-2.0571775E-4
-0.0017293137
-5.5439386E-4
0.0016907012
8.1161817E-4
-0.0013336663
-0.0039100535
-0.0035993897
-7.602417E-4
-3.6145042E-4
3.724722E-4
0.0021190115
0.0021744212
0.0013665499
-2.863269E-5
2.749054E-5
6.8620115E-4
-0.0011829829
-0.0020127879
-1.7390566E-4
0.0011865176
0.001383856
0.0015201501
0.0024242601
0.001785497
-0.0013994839
-0.0028934558
-0.0024229726
-0.0017993675
-1.0777565E-4
9.999748E-4
0.0015732868
0.0026735826
0.0025723255
0.0016264908
-2.218625E-4
-0.0019442611
-0.0025653096
-0.0031720756
-7.860963E-4
0.0016955961
0.0012403327
0.0029187275
0.0025620663
-0.00125576
-0.0015717119
-0.001043848
-0.0020059075
-0.0012314578
0.0013289497
0.002011248
3.2879252E-4
-1.8264743E-4
-0.0013238522
-0.00272283
-0.0026935488
-0.0036339103
-0.0018624533
3.0856545E-4
-9.375987E-4
4.141934E-4
0.001445003
3.4796275E-4
0.0019538426
0.0022794711
1.8316683E-4
-7.3342974E-4
-0.00122413
-0.001242398
6.9766486E-4
0.0027515504
0.002822417
0.0027986644
0.0024858317
0.0010087673
3.752298E-4
-4.6112147E-4
-0.0017192262
-0.0017958407
-0.0011400317
4.309963E-4
0.0018574188
0.0015276344
6.492058E-5
-8.779652E-4
-0.0010758967
-0.0023306648
-0.0033262107
-0.0019789296
5.457245E-5
0.0012239506
8.274993E-4
-6.11393E-4
-4.6557156E-4
0.0011032347
3.5640254E-4
-0.0013353726
-7.7775354E-4
-7.1881735E-4
-9.434404E-4
-6.3432206E-4
-0.0010662248
5.383024E-4
0.0023401899
0.0022192777
6.4799906E-4
-0.0030041763
-0.0027813762
3.1376485E-4
6.709024E-4
0.0018238102
0.0022280274
6.849542E-4
7.0109614E-4
0.0010090107
3.1638853E-4
-0.0013159
-0.001416262
-6.9019344E-4
-0.0013110914
-9.605689E-5
3.1175555E-4
-1.7754908E-5
0.0021742976
0.0017818974
3.3639628E-4
-2.7044877E-4
-0.0019505074
-7.2974205E-4
8.781008E-4
-5.276931E-5
-8.635105E-4
-8.518405E-4
0.0010379248
0.0012643494
-5.174894E-4
2.0541852E-4
-5.190041E-4
-0.001527708
8.051137E-4
5.741803E-4
-5.498705E-4
0.0011288906
0.00145177
5.997151E-4
-4.2665846E-4
-0.002157138
-0.0031186703
-0.0024135362
2.2395935E-4
9.703383E-4
-2.2907519E-4
0.0014546661
0.002560091
0.0014454421
2.2718495E-4
-0.001827286
-0.0018202866
-6.8931904E-4
-7.0283865E-4
3.400382E-4
0.0013521212
0.0017868618
0.0010589889
-4.2230028E-4
-1.5320076E-6
2.8000269E-4
-6.5438665E-4
-0.0021121253
-0.0024255645
-3.5121987E-4
9.6191553E-4
0.0018730459
0.0016708991
-1.708905E-4
2.1668788E-4
3.383505E-4
-4.343172E-4
-0.0017322291
-0.0038936601
-0.0017689372
4.5536508E-4
2.580301E-4
0.0017078625
0.0011618588
4.790924E-4
0.0010347347
-8.9368963E-4
-0.0018391253
-5.429881E-4
0.0014489951
0.002859235
0.0018630902
9.740426E-4
0.0010517882
-4.657936E-4
-0.0022764953
-8.157594E-4
5.6619704E-4
-8.564711E-4
4.454077E-4
0.0015438701
-4.9131183E-4
4.8290793E-4
7.205998E-4
-0.0013147846
-6.382837E-4
-4.8130593E-4
-8.5762463E-4
-1.0616026E-4
3.6356732E-4
0.0015938416
0.0013822424
4.363032E-4
0.0017440197
7.1362156E-4
-0.0022467657
-0.0025559012
-0.0032466408
-0.003646996
-6.6031667E-4
8.2243624E-4
1.5229652E-4
0.0011323576
0.0015548278
2.6907772E-4
-9.579958E-4
-0.0014649781
-4.8232632E-4
6.095558E-4
7.5371854E-4
0.0013798797
0.001474534
8.350709E-4
0.0017979128
0.0023057251
6.152281E-4
-5.699512E-4
-8.2529796E-4
-2.7089418E-4
7.619715E-4
3.9559705E-4
5.129002E-5
4.6199133E-5
1.466413E-4
0.0010218598
-0.0012244688
-0.0041330974
-0.0027381708
-0.0022230798
-0.002212772
5.462442E-4
0.0014824958
0.0012263632
0.001693175
9.200872E-4
-4.164215E-6
-5.6631246E-4
1.5170999E-4
0.0019854354
0.0017830428
5.839354E-4
-3.2258607E-4
-1.9562256E-4
0.0021063145
0.0027584946
4.6247354E-4
-0.0017027201
-0.0018107509
-9.168762E-5
5.4584595E-4
6.720087E-4
0.0013656407
4.8561412E-4
-0.0010471756
-0.0021815947
-0.0027172735
-0.0026014578
-0.0026599958
-0.0025029895
-0.0016847674
8.953063E-4
0.0021268686
4.5057223E-4
8.574526E-4
-4.8232585E-5
-0.0023326285
-5.289032E-4
5.664789E-5
-3.5664698E-4
0.0014114116
0.0020997527
0.0019012184
0.0016980537
0.002863409
0.002782253
-4.582941E-4
-0.0017138964
-0.0021456885
-0.0014338327
0.0010788356
8.013409E-4
0.0010004517
0.001455331
4.282492E-4
0.0014962363
2.8431002E-4
-0.0032491349
-0.0027419266
-6.964063E-4
-4.6583283E-4
9.756009E-4
0.003144317
0.001524936
-1.2908567E-4
7.9965335E-4
-2.4683666E-4
-0.0017380067
-0.0023588275
-0.0025603194
-8.5857144E-4
6.7702285E-4
0.0015182145
0.0012480514
7.61067E-5
-2.9342066E-4
-0.002028031
-0.0030483357
-0.0014342472
-3.1524568E-4
5.4130063E-4
0.0010677051
0.0011260652
0.0012340713
7.2009675E-4
4.578698E-4
-1.388802E-4
-0.0013943177
-0.0020568836
-0.0013753518
3.0597294E-4
0.0014840699
0.002541893
0.0017287896
3.1020245E-4
0.0017260544
3.0285865E-4
-0.0016199552
1.1505071E-4
-9.965755E-4
-6.6601817E-4
0.0015958674
8.496491E-5
0.0013542257
0.0027270142
4.7802867E-4
1.8378299E-4
-0.0012023527
-0.002832835
-0.0013487637
-8.1163103E-4
-8.41126E-4
-4.8490393E-4
-3.9881872E-4
7.63753E-4
0.0016238265
7.2236883E-4
-2.488729E-4
-0.0010969458
-0.0028189172
-0.002073357
5.547369E-4
0.001380542
0.0033279508
0.0030253518
-0.001181623
-9.279772E-4
-6.0400197E-7
-0.0019020957
-0.0011512787
-4.320415E-5
4.2239565E-4
0.001449394
0.0011842281
5.665241E-4
4.7332986E-4
7.3621975E-4
-7.901099E-4
-0.0029017413
-0.0019784998
-0.0012085864
-4.6567927E-4
8.9912524E-4
5.949743E-4
0.0019257147
0.002471719
2.6331478E-4
5.2293687E-4
0.0015076688
8.288679E-4
-1.736597E-4
4.3970762E-5
0.001202688