-2.6407666E-4
4.7062E-4
0.001985454
0.0016512874
0.0014139743
2.7330453E-4
-4.8164616E-4
-8.856549E-4
-0.0014610803
-2.5810578E-4
0.002071211
0.0025193705
8.160049E-4
5.5314705E-4
8.3089765E-4
-5.1362265E-4
-0.0016171611
-0.0018881793
-3.6004256E-4
3.1981454E-4
-0.0012286584
6.529397E-5
0.0015264109
4.0063227E-4
6.217337E-4
0.0015447233
-3.7482014E-4
-0.0049772635
-0.0052614347
-4.6228507E-4
0.0010775407
2.9943278E-4
8.0111035E-4
0.0014445906
0.0016337989
4.0032354E-4
-0.0011462768
-0.0022739281
-0.0017084439
9.7350404E-4
0.0010013266
-2.1924393E-4
0.0011620693
0.0024824205
0.002084557
7.1936796E-5
-0.0016788737
-0.0011784016
-5.5265176E-4
-2.7829234E-4
4.9090275E-4
-4.5497212E-4
-0.0020292313
-1.6822036E-4
0.0026056983
0.002133529
9.6480326E-5
-7.5089384E-4
3.3296517E-4
0.0010566794
5.71576E-4
9.816417E-4
0.0010005598
3.5123725E-4
4.084795E-4
3.1480478E-4
-1.8472034E-4
-6.4837706E-4
1.1588369E-4
3.184878E-4
-0.0010684625
-5.369831E-4
-7.006675E-6
-8.999568E-4
-9.785083E-4
-0.0014929211
-0.0014050853
-4.830283E-4
-3.5419982E-4
3.8116297E-5
-2.187054E-4
-6.789843E-4
5.7983206E-4
0.0012145109
-3.7879377E-4
-0.0012745234
-6.6954736E-4
-0.0012986176
-0.0019515856
-0.001554523
-8.911989E-4
0.00153105
0.0025335692
0.0014518393
0.0024073476
0.0019758665
2.969708E-4
6.284316E-4
-8.091651E-5
2.894143E-4
0.0020106519
9.911939E-4
6.0359447E-4
0.0012000607
6.7542127E-4
-1.007875E-4
-0.0018272008
-0.0010337459
0.0010718392
2.4082804E-4
8.6025515E-4
0.0015236466
0.0018384887
0.0030341125
-4.5569416E-4
-0.0017179474
-0.003298876
-0.012929684
-0.010900298
0.0015986454
0.0041355123
0.001731916
2.523422E-4
4.929823E-4
0.001653556
-3.4897056E-4
-4.990949E-4
3.738746E-4
-3.4518304E-4
6.7738886E-4
0.0012225612
0.001881483
0.0019500313
2.3323025E-4
6.96075E-4
0.0011820149
0.001588268
0.0019910429
-4.7195118E-4
-4.8965984E-4
0.001497259
9.4614085E-4
5.5670895E-4
3.4010422E-4
5.314251E-4
0.001672575
1.9860934E-4
-0.0031622837
-0.004372458
-0.002503877
-8.7909284E-4
-0.0015302186
-8.216953E-4
0.0010699079
1.4152685E-4
-9.241789E-4
4.6923722E-4
5.509372E-4
-0.0011004034
-4.926439E-4
0.0016020673
0.0017831386
8.0767064E-4
8.2371617E-4
0.0014697675
8.0245925E-4
-7.825322E-4
-5.09416E-4
-6.908526E-5
-0.0015207448
-8.4802153E-4
0.0018584782
0.0017013006
-1.3557682E-4
-6.796401E-5
6.748056E-4
3.583803E-5
-0.001103415
-0.002080404
-0.0018780985
2.4404917E-4
0.0014432133
0.0014221739
0.0011701096
-1.548929E-4
-2.8355134E-4
1.3060494E-4
-0.0012387976
-0.0020030446
-8.5242995E-4
0.0011232287
0.0016017315
7.1731914E-4
7.19449E-4
2.5030778E-4
-5.218404E-4
-7.827272E-4
-0.0013501135
-0.0010874739
-9.311543E-5
8.136413E-4
5.562013E-4
1.2555151E-4
0.0019033606
0.0025030226
5.7309953E-4
-0.0011104386
-0.0016551391
-9.260844E-4
-9.0111695E-5
0.0012389064
0.0019817217
0.0012066247
0.0016001709
0.0011251246
5.8853533E-5
-4.7954175E-4
-0.0028207074
-0.0027046064
-0.0013517151
-0.0021041029
-9.4694115E-4
-1.01841426E-4
-4.9489136E-6
0.0012286815
0.0012541721
0.001433918
9.18371E-4
-5.741933E-4
-1.2307825E-5
4.890129E-4
-0.0010665059
-0.0020488307
-1.9909498E-4
0.0015828708
0.0020446975
0.0023312669
3.8701596E-4
-3.3979726E-4
8.7010657E-4
1.951255E-4
0.0012222088
0.0013513019
-0.0016382975
-0.0020714023
-0.0019739545
-0.0021314973
-5.307052E-4
-3.6075557E-4
-0.0012263275
-6.060767E-4
2.0787871E-4
-2.505719E-4
7.065776E-5
0.0012814744
8.33968E-4
1.0207204E-4
-1.9182374E-4
-8.505078E-4
-0.0015291466
-0.0014790305
2.2390329E-4
0.0010996842
0.001095722
0.0019107013
0.0019403931
0.0020304893
0.0013387515
-6.06543E-4
-0.0012633973
-8.3606597E-4
5.29907E-4
4.9806957E-4
-4.8473504E-4
3.7674617E-4
3.697913E-4
5.3793547E-4
1.1776214E-4
-0.0015374909
5.783465E-4
0.0014069225
-4.2706495E-4
1.4473479E-4
-2.1072813E-4
4.0052834E-4
0.0021354451
-5.450691E-4
-0.0023938383
-3.7119296E-4
-5.556207E-4
-0.0026554472
-0.001635009
2.9009735E-4
-1.6380327E-4
-7.4666845E-5
1.7869973E-4
-4.8628228E-4
3.793212E-5
-8.550363E-4
-0.0030444684
-0.0021627012
-2.6329793E-5
0.0010407986
0.002039417
0.0020920155
0.0012055178
5.965808E-4
-2.531754E-4
-4.2149881E-4
9.237243E-6
-7.9025986E-4
-7.728409E-4
5.5892987E-4
8.441867E-4
0.0011978172
0.0025359173
0.0034858817
0.0036055397
0.0025213342
-7.1332045E-4
-0.003204133
-0.0017193721
-6.156856E-5
-5.0106365E-4
-0.001001807
-9.6014707E-4
5.3622527E-4
8.857743E-4
-9.6449204E-4
-0.0012397349
-8.34907E-4
-7.22449E-5
1.6518807E-4
-0.0017829792
-0.0013866131
1.8009687E-4
2.784012E-4
7.925292E-4
-3.7210764E-4
-0.0014040774
-5.36691E-4
-7.293788E-4
-9.2426257E-4
-2.141561E-4
7.941872E-4
0.0012167767
4.3849807E-4
-0.0011564669
-0.0030716674
-0.002025997
2.8650593E-5
4.100895E-5
0.0014646814
0.0027131506
0.0032509319
0.0035829223
0.0014193021
5.7777355E-4
2.6631972E-4
-6.306479E-4
-2.0299168E-4
-0.001436445
-3.5764757E-4
0.0022170837
9.7343046E-4
0.0012199602
0.0022217017
0.0014572262
6.305493E-4
1.8679758E-4
5.7676015E-4
-0.0011426257
-4.2832562E-5
5.131751E-4
-0.009316828
-0.010532016
-4.0276525E-5
8.793407E-4
-0.0012049977
5.9329934E-4
8.698451E-5
-5.4642046E-4
1.1747336E-5
0.0011318167
0.0010162392
7.095438E-4
0.0024982078
0.0015472823
-0.0018843949
-0.003707488
-0.0022772823
0.0010086322
3.985024E-4
-8.0622814E-4
9.274827E-4
0.0010569805
0.0011702545
0.001803586
0.0012388739
0.0010448588
4.3352635E-4
3.0328624E-4
6.021126E-4
4.3079202E-4
0.0013013735
8.0320536E-4
4.2914026E-4
0.0023223348
0.001034068
-0.0018726415
-0.002383873
-0.0020315836
-3.7422945E-4
3.127023E-4
-3.476189E-4
9.393255E-4
4.4598762E-4
-0.0018354297
-0.0013310194
-6.3918886E-4
-9.5773605E-4
-8.1599713E-4
-8.782433E-4
-4.9688085E-4
2.1461166E-4
0.0010785861
0.0014516161
-4.175641E-4
-0.001093062
7.705974E-4
3.089688E-4
-0.0013873203
-9.852255E-4
-1.9259569E-4
4.667743E-4
6.0187903E-4
-2.8701342E-4
-2.4704056E-4
-2.9882204E-4
-0.001290652
-0.0012910645
-0.0013276627
-0.0011059691
5.265167E-4
0.0011702556
0.0013297143
0.0016213004
-5.676368E-5
-0.0014584332
-8.926933E-4
-1.5217734E-4
9.662935E-4
0.0023240366
0.0028898423
0.0021763393
8.211247E-4
6.330099E-4
4.947783E-4
-2.6616297E-4
-6.4580725E-4
-0.0014891882
-0.0015180393
-7.7963236E-4
-0.0012032146
-0.0011073134
-5.293362E-4
-4.9773493E-4
-2.0735242E-4
2.536711E-4
4.9119856E-4
-2.921617E-4
-0.0010933422
-2.3587007E-4
0.0011873231
0.0011754559
-5.208664E-4
-4.9034157E-4
0.0013954632
0.0014427541
-8.845792E-5
-0.0019506674
-0.0017700258
-2.7904363E-4
-3.5459027E-4
0.0014067297
0.0018538081
-0.001621884
-0.0016167751
-7.6875865E-4
-0.002242451
-0.0011345195
-1.981006E-4
-0.0024314134
-0.0029997102
6.1672035E-4
0.0030793217
0.0024506357
0.0031587898
0.002847324
3.1088025E-4
4.7794852E-4
0.0018043977
0.0012284666
1.324162E-4
-1.4222281E-4
1.8468263E-5
-8.964428E-5
-3.0124816E-4
-6.6866574E-4
-5.537448E-4
-7.302675E-4
-0.0022072732
-0.0028776673
-0.0027036874
-0.0013519044
9.1838615E-4
2.032769E-4
-0.0016633931
-0.0018521692
-0.0017548122
-7.4626313E-4
9.170038E-4
0.001920446
0.0019280317
0.0015541409
0.002204219
0.0019855604
5.3615787E-4
9.6999534E-4
0.0010184923
-0.0010517809
-8.3694415E-4
4.2112282E-4
-4.1067597E-4
5.088577E-4
0.0019284618
6.5641257E-4
-4.585694E-4
-0.002316888
-0.0040509123
-0.0028980768
-0.0018161606
-0.0011000487
-9.86949E-4
-0.0011952104
0.0010255196
0.002497639
0.0014731938
-2.791506E-4
-5.428453E-4
0.0018154257
0.0024008914
0.001978459
0.0017335556
-6.339213E-5
0.0011787346
0.0017837818
-0.0015328982
-0.001967932
-0.0012145166
-0.0014103039
-0.0012014217
-9.281175E-4
1.5564632E-4
-0.0011768091
-0.0027287488
-0.00105321
-0.0011585697
-0.0025509943
-0.0030261672
-0.002796536
-0.0012025622
-4.4982397E-4
-7.30944E-5
0.0012209156
0.0030487697
0.0042267134
0.002649942
0.0015434171
0.0026725829
0.0036093676
0.0030912077
3.431925E-4
-7.825969E-4
6.4733333E-4
9.132251E-4
0.0015872868
0.003078063
0.0023252533
-0.0015692306
-0.0039039727
-0.0011422654
5.816589E-4
-0.001034431
-0.003049009
-0.0045169806
-0.0029720606
-0.0014528857
-0.0026016857
-0.0028749518
-0.0023301537
-0.002232859
-0.0025300207
-9.167308E-4
0.0020643708
0.0017092781
9.6508506E-4
0.0014094918
0.001783926
0.0029047062
6.3327904E-4
-0.0010256189
0.0014152072
0.0010875611
7.623196E-4
0.001989357
0.0013976968
0.001536112
0.0016662366
0.0018865756
0.001373632
-0.0017770398
-0.0025611443
-0.0011839718
-3.7035253E-4
1.09284585E-4
-1.2027092E-4
9.782243E-4
2.7468966E-4
-0.0021837119
-0.0015546327
-0.0025098429
-0.0027283821
0.001178391
9.696471E-4
-6.067759E-4
0.001165479
0.0018925902
0.0018199381
5.1780714E-4
-0.0026361027
-0.00379497
-0.0019543367
7.877651E-4
0.00209346
0.0024113238
0.0026651449
0.0011769256
-0.0010055491
-0.0013975278
-6.468023E-4
-1.4707613E-4
-8.9710345E-4
-0.0028809074
-0.004126144
-0.0045235576
-0.00415198
-0.0016287894
1.8028099E-4
7.848672E-4
0.0025438739
0.0029775745
0.0034941575
0.005857556
0.007392927
0.0073912814
0.0034745228
-0.0011654338
-8.2360307E-4
-5.887663E-4
-0.0028168121
-0.004013327
-0.0037560468
-0.0024291726
-0.0019134001
-0.002163338
-0.0010377628
-1.4930179E-4
-9.191732E-5
-9.427102E-5
-0.0015192777
-0.0013628901
0.0022435314
0.0033206544
0.0015077463
-2.4629332E-4
-0.0020848806
-0.0013643609
-0.0010239811
-0.0030644673
-0.002795201
-0.0012494773
0.0019019262
0.0054845894
0.005849125
0.0065284944
0.0067873313
0.005204288
0.0022163608
-0.0014272392
-0.0023193625
-0.00841841
-0.016489677
-0.011853569
-0.0055822893
-0.004691041
-0.0011822504
0.0021413544
0.005266048
0.0085930955
0.007662043
0.005314792
0.0045146593
0.0036213929
0.002445038
0.0030263457
0.0032455523
-5.909978E-4
-0.0044286125
-0.0037846507
-0.0014277563
-0.0013677779
-0.0012760694
0.0013936881
0.0012003866
-0.002898092
-0.005367103
-0.005338306
-0.0052838866
-0.0066551347
-0.0053559854
-4.7645307E-4
0.0012481507
0.0016597335
0.0029116005
0.0012713494
0.002006191
0.007166543
0.00859759
0.004751668
9.696335E-4
2.3912226E-5
7.4431795E-5
1.9952684E-4
0.0021642442
0.0041991156
0.0047201086
0.004837335
0.004328206
0.004539201
0.004689342
0.0022138625
-0.0020079995
-0.009517379
-0.015840435
-0.012532339
-0.006129353
-0.0033676883
-0.0029010647
-0.0040430864
-0.0031281193
-0.0021708445
-0.0027951673
8.640383E-4
0.0041709263
0.0029173188
0.0017358406
4.8114953E-4
-6.7955203E-4
-8.1962E-4
-0.0010320875
-4.093787E-4
-2.9801377E-4
-0.0022742483
-0.00367455
-0.0023001353
-3.0326413E-4
0.0013420889
0.005653613
0.010958601
0.013771326
0.015083392
0.013920277
0.008325133
0.0015311458
-8.5228967E-4
9.773968E-4
0.0028002723
0.0028990468
-6.449274E-5
-0.005776699
-0.010711602
-0.009470637
-0.004192311
-0.0048734983
-0.0054818797
-0.0010959354
-0.0018318178
-0.004365961
-0.006522097
-0.009026273
-0.005772826
-0.0053727035
-0.006909872
-0.0029979735
-0.0025352319
-0.003459278
-0.0037167687
-0.00532029
-0.0016521483
0.0032122484
0.0064312085
0.009773336
0.012190791
0.015761008
0.014538586
0.009052375
0.005889503
0.002236063
0.0028016062
0.0060143666
0.0017633687
-0.005256652
-0.008414141
-0.008291196
-0.009166237
-0.009556991
-0.003376188
0.0027025952
0.0038682015
0.003978236
0.0038916213
0.00451241
0.003997149
5.908315E-4
-0.005481417
-0.009862201
-0.0057082744
-0.0014083688
-0.003546395
-0.006606124
-0.008107354
-0.0043560704
9.95021E-4
0.0034551418
0.006559196
0.011093919
0.017184876
0.0128750205
0.0019100828
0.0028352072
-0.004962158
-0.017935991
-0.0070777005
-5.9550104E-4
-0.009245329
-0.004286578
0.005101715
0.004862737
0.0058610234
0.0062116524
-0.0054100496
-0.014606627
-0.00626217
0.0019797464
0.0015922356
0.0024143602
0.0034131005
0.0030152833
0.002410237
0.0028980076
0.0038894447
0.0022691365
0.0010098434
4.0214678E-4
-8.885254E-4
-0.0033643304
-0.007879745
-0.0067592845
-6.4041E-4
0.0027092677
0.004889607
0.0046188664
0.002798934
0.004166758
0.004811829
0.0030011763
0.0014291223
-0.0015354152
-0.0071115796
-0.010316113
-0.0076490943
-0.0038303658
-8.6328085E-4
0.0033776797
0.0053024967
0.0019229259
1.2082348E-4
0.0039767977
0.0021980444
-0.0062647094
-0.007244495
-0.0037495375
-0.0035822089
-0.0048858994
-0.009237003
-0.0144981695
-0.0139284
-0.0040163277
0.0067887153
0.0069306893
0.0061653703
0.009013433
0.006370724
0.004188232
0.0051082997
0.007183334
0.013286102
0.013120118
0.0031786303
-0.0010829215
0.0038902843
0.006577946
0.0028009159
-0.010310209
-0.030991783
-0.037778452
-0.02760402
-0.015974337
-0.0021687367
0.009139287
0.017777227
0.030237956
0.03404354
0.025656722
0.015984952
0.013159512
0.012289784
0.0012018691
-0.0128837265
-0.023130348
-0.029809492
-0.03034831
-0.026908843
-0.018817412
-0.013452654
-0.009098545
0.0062403227
0.020892136
0.02715253
0.022123432
0.005595852
0.0013868646
0.012652257
0.015527736
0.01012502
0.012264129
0.016012061
0.01596314
0.020039702
0.023650918
0.030980365
0.036637306
0.024845483
0.016710443
0.00844665
-0.018196972
-0.04171761
-0.062092546
-0.08221433
-0.07744955
-0.055440467
-0.046083596
-0.041725934
-0.03378581
-0.048572168
-0.07568836
-0.08908641
-0.102756485
-0.11942531
-0.12687352
-0.11580978
-0.08729828
-0.050193716
-0.0054539046
0.026259784
0.026739074
0.015419098
0.030628072
0.0680311
0.06516082
0.0037430145
-0.08125784
-0.13528566
-0.10923657
-0.013032149
0.13798647
0.30597332
0.42635918
0.4672747
0.43778494
0.4152519
0.3456934
0.13133961
-0.04696149
-0.08112872
-0.05485075
0.024870483
0.085986234
0.044248812
-0.042693533
-0.08050088
-0.03770708
0.009663317
-0.011236099
-0.09419302
-0.18802781
-0.2578042
-0.32694864
-0.39225128
-0.4416614
-0.44590312
-0.3494692
-0.21069938
-0.10139622
-0.028256467
0.020249413
0.09844409
0.18960781
0.22791627
0.21774773
0.1829519
0.10859943
-0.033592504
-0.15797485
-0.17370215
-0.14897646
-0.09936095
0.019544715
0.12755065
0.1561906
0.12900479
0.06543885
0.01806031
0.04527415
0.09676992
0.11998008
0.13033475
0.15541904
0.21455371
0.21675733
0.1091938
0.043959625
0.09358939
0.17947961
0.2515566
0.28427744
0.2677978
0.2130083
0.15176734
0.104233876
0.060539722
0.011791373
-0.070015386
-0.16798013
-0.24021278
-0.30550718
-0.35340348
-0.36884776
-0.3706265
-0.35477775
-0.33236116
-0.30474952
-0.26009852
-0.21319902
-0.17268512
-0.14548737
-0.12138927
-0.08410477
-0.045161724
-0.006986006
0.027669104
0.055926908
0.08856256
0.11928324
0.13987325
0.15612034
0.17446761
0.18928905
0.19272265
0.1952817
0.1970529
0.18983236
0.17956907
0.16519275
0.14572853
0.12458235
0.10118128
0.07636237
0.048983645
0.024686778
0.00849569
-0.0019021317
-0.0065524634
-0.012495514
-0.020238554
-0.02386994
-0.028806362
-0.034938503
-0.041621637
-0.051951192
-0.06234763
-0.072172135
-0.08059683
-0.0875727
-0.09417061
-0.09681787
-0.09625961
-0.09344744
-0.087550044
-0.08103318
-0.073519245
-0.063355364
-0.052360777
-0.0418325
-0.030163862
-0.018189365
-0.008980653
-0.0011524339
0.0068269055
0.012271658
0.013634441
0.014865924
0.018266778
0.018773118
0.016642638
0.016378531
0.01679647
0.017382627
0.016938739
0.014778822
0.012909514
0.012604991
0.01595388
0.018196836
0.016206233
0.014988796
0.01284286
0.009269957
0.0059413887
0.0037520768
0.007077082
0.012878172
0.019854065
0.026504267
0.027521463
0.027212188
0.023937164
0.019981502
0.016214103
4.3394018E-4
-0.0077054678
9.66115E-4
-8.222313E-4
-0.0072511635
-0.008853023
-0.013173446
-0.012084291
-0.0057015615
0.0016618511
0.008768057
0.011098715
0.014039549
0.016526058
0.01476657
0.014471793
0.014916463
0.015737573
0.016570717
0.013808224
0.012049762
0.012389848
0.010368001
0.0068297214
0.0030985957
-5.0649664E-4
-0.0048657386
-0.0101913
-0.013308168
-0.0150250895
-0.01697734
-0.017984396
-0.02038399
-0.022020092
-0.01726816
-0.011165144
-0.008155359
-0.004257081
8.188346E-4
0.0059450814
0.011489846
0.013909499
0.013080678
0.014421505
0.018690847
0.023464812
0.028366461
0.03210631
0.0339419
0.032556634
0.022950064
0.0075985678
-0.004953728
-0.013606755
-0.01888732
-0.021845492
-0.02492751
-0.024408126
-0.021223987
-0.02105308
-0.02222564
-0.022673717
-0.020602155
-0.015118458
-0.010910093
-0.008545948
-0.0059286617
-0.00431749
-0.002040411
0.0020594334
0.005690645
0.008693808
0.011449477
0.013457265
0.015349202
0.016519858
0.016516726
0.017445875
0.017716946
0.015186225
0.013202248
0.011646297
0.008694302
0.0068198573
0.0047848113
4.3723508E-4
-0.0024479113
-0.0028663783
-0.0038122663
-0.0038925563
-0.004177381
-0.0077171507
-0.008881064
-0.0069209253
-0.00707074
-0.0068486733
-0.0065340227
-0.0075544682
-0.006704732
-0.0054733464
-0.0060901893
-0.008223756
-0.009239072
-0.0076521835
-0.0066955276
-0.0057318998
-0.0053755157
-0.0070294784
-0.005635626
-0.0030705368
-0.0026522903
-0.0017424404
-5.8480114E-4
0.0022965888
0.005181743
0.0045695184
0.005656403
0.008157221
0.007802306
0.0065254183
0.005089248
0.0050986987
0.0059405193
0.0038460814
0.0017849219
0.0020429888
0.0031187276
0.003885885
0.0025953236
0.0010926293
6.623598E-4
2.9665206E-4
0.0011244297
0.0017545428
2.4194966E-4
-0.0012039816
-6.621211E-7
9.6670917E-4
-0.0011009937
-0.0012922405
5.522529E-6
-8.661973E-4
-7.7623414E-4
-6.707383E-4
-3.5918044E-4
0.0014075733
2.1540592E-4
-0.0013102902
4.6195735E-5
9.209203E-4
2.208481E-4
-2.005162E-4
-9.746511E-4
-0.005711315
-0.007901339
-0.0029623413
-8.545316E-4
-0.0018757354
-0.0022588999
-0.0038445024
-0.004141056
-0.004120287
-0.0032309243
-8.662012E-4
-0.0012727197
-0.0012200477
3.4101057E-4
6.388752E-4
0.001819312
0.002722458
0.0021974866
0.0022142997
0.0026266263
0.0030426765
0.0037305306
0.003464192
0.0017289484
0.0019100999
0.0036797079
0.002765469
0.0012982993
0.0016176642
0.0017048931
0.0015870339
0.0014163991
3.2159366E-4
2.368688E-5
0.0010434695
2.7644425E-4
-0.0014677664
-0.0014466431
-0.0012883019
-0.0017262374
-0.001824387
-0.0014366963
-0.0012527867
-0.0015212144
-8.9620554E-4
-9.844749E-4
-0.0018386147
-0.0013094492
-0.0013981425
-0.0014105582
-0.0010233921
-0.0023811
-0.0029018517
-0.0021651245
-7.2480546E-4
0.001078286
-1.1250157E-4
-0.001860549
-0.001392388
-1.2058797E-4
0.0012029827
0.0010298195
4.5140725E-4
6.139866E-4
0.0018851915
0.0037249892
0.0026143212
0.0017498865
0.0025381488
0.0010515868
-4.4183375E-4
-0.0012849126
-0.0015059904
-0.001769524
-0.0033441978
-0.0026340303
-0.0022324119
-0.001933989
7.335617E-5
-0.001012076
-5.5030605E-4
3.6005618E-4
-0.0018529217
-3.791412E-4
0.0013951218
0.0019970965
0.0030237695
0.0015725308
0.0014540697
0.0020796715
0.0022793827
0.0021109842
3.6099693E-4
2.9775116E-4
-1.7397573E-4
-1.9637721E-4
-5.7173904E-4
-0.0026740357
1.5951191E-4
6.900732E-4
-6.2955293E-4
0.0012842774
-1.786949E-4
-8.955537E-5
-0.007125133
-0.015044319
-0.004403066
-0.0039944774
-0.011593734
-9.384589E-4
0.005237992
0.0037104415
0.00501159
0.003575752
0.004425528
0.004360722
0.0023220722
0.002908559
0.00240311
0.0025524395
0.00281336
0.0022066322
0.0023520202
0.0014201695
6.757925E-4
2.5160265E-5
-3.6278093E-4
-3.9964932E-4
-0.0017582488
-0.0017400074
-0.001000486
-0.0012629672
-0.0021332812
-0.0045465967
-0.0057472307
-0.0045989184
-0.0032417926
-0.0031843248
-0.004226312
-0.0027008813
3.5164578E-4
0.0010812234
0.0010017025
9.936823E-4
1.3056243E-4
-1.1980645E-5
0.0018495282
0.0028765535
0.001788324
0.0020083312
0.0028843768
0.0025618668
0.0027027954
0.0018623569
0.0010331799
0.0030980092
0.0028731504
5.711604E-5
-7.81673E-5
-0.001502295
-0.0031078162
4.0249067E-4
0.002074148
-5.1215313E-5
-0.0011225967
-0.0027195676
-0.00354636
-0.0024875503
-0.0024265451
-0.0022514327
-0.0013325533
-0.0013438748
-0.0019347555
-0.0022247457
-0.001966754
-7.5904327E-4
8.330384E-4
9.966453E-4
5.8407016E-4
0.0015804694
0.0026063465
0.0025177507
0.001453912
2.8559729E-5
3.1683125E-4
0.0014049403
0.0012845531
9.173156E-4
7.6050137E-4
0.0014620781
0.0018790589
3.152209E-4
6.210821E-4
0.0016881651
-4.143891E-4
-0.0010574008
-4.981771E-4
-0.001556992
-0.0010302874
-0.0014875983
-0.0025061318
-1.2772523E-4
1.6467673E-4
-9.4709074E-4
1.1221164E-4
-0.001912388
-0.0046147206
-0.0032784338
-0.0014256925
-8.5859833E-4
-0.0014986596
-0.0013539145
8.0652407E-4
7.1810646E-4
-2.3902956E-4
0.0014033556
0.0019801855
0.001431342
0.0013954995
2.8285926E-4
3.7377205E-4
0.0020799644
0.0020471807
8.8338205E-4
2.5370953E-4
3.573878E-4
0.0010587089
0.0012031215
1.1571895E-4
-8.5864525E-4
-7.205432E-4
-6.8643485E-4
-7.817751E-4
-7.892605E-4
-0.001454034
-8.8094786E-4
3.6864998E-4
-5.8791187E-4
-0.0013220235
-5.518103E-4
-0.0011480626
-0.0018032254
-6.242157E-4
-2.535427E-4
-4.3935757E-4
3.5674922E-4
-2.9508356E-4
-0.0010207008
1.1193539E-4
6.4654805E-4
8.129917E-4
0.0011687151
0.001781694
0.0016266087
-2.610223E-4
4.3608047E-4
2.9559984E-4
-0.0036472378
-0.0021162962
0.0014568365
-1.9900627E-4
-0.0010323335
-3.901224E-4
-5.335637E-4
2.7456052E-5
5.013348E-4
5.826535E-4
-7.031023E-5
-0.0014080972
-0.0023796188
-0.0031558354
-0.0036909494
-0.0034832864
-0.0024302565
-0.002153137
-0.0030155263
-0.0025598244
-0.0010768834
-4.3570148E-4
-2.811544E-4
3.6244883E-4
9.163556E-4
9.499761E-5
-3.441782E-4
9.4178267E-4
0.0013474519
6.293992E-4
2.3901608E-4
-5.8140577E-4
-1.3423283E-4
0.0017266613
0.0015004366
0.0018457553
0.0040965886
0.0042865444
0.0042456896
0.004395109
0.0033290158
0.0038070867
0.003772409
0.0021470857
0.0018906568
0.0022391663
0.0033163838
0.003909289
0.0019594203
0.001472252
0.0013379173
-0.004350631
-0.008523431
-0.004865481
-0.0024833144
-0.004137984
-0.005576817
-0.006952243
-0.006326659
-0.006051319
-0.0074410937
-0.0068753767
-0.007303041
-0.007107173
-0.0036296349
-0.0012345535
-6.195092E-4
-0.0012551043
1.0633258E-4
0.0035925512
0.003966887
0.0053218044
0.009095852
0.010306037
0.009467662
0.008982546
0.010182904
0.009737281
0.006978132
0.006036894
0.0047456897
0.0027383848
0.0020599195
9.857498E-4
-3.819068E-4
-0.0011224165
-0.0012259276
-0.0018799918
-0.0029271361
-0.003155903
-0.0044872505
-0.006211911
-0.007005901
-0.007973746
-0.008107685
-0.0069127437
-0.0050932607
-0.003662936
-0.0024987438
-0.0011241307
-5.374531E-4
-5.0358776E-5
-0.0013751491
-0.0044130096
-0.0030026534
6.131399E-4
0.0013070537
0.0018535384
0.003070944
0.004002654
0.004752998
0.004155497
0.003771557
0.005274781
0.006833915
0.006869987
0.0059051625
0.0060443166
0.006326238
0.0041908235
0.001510806
-7.563416E-4
-0.002421901
-0.0031356006
-0.004676432
-0.0051234257
-0.004468891
-0.0035228003
-9.683026E-4
-0.0021298844
-0.0056241346
-0.0060260016
-0.0061799325
-0.005193533
-0.0036874218
-0.0027525276
-9.4615296E-4
-0.0012150469
-3.1031764E-4
0.001693656
9.009655E-4
0.0017683636
0.0026036305
0.001796
0.0030787732
0.0044929436
0.0042008585
0.0037894412
0.004417592
0.0040974705
0.0038831355
0.0036316144
0.00149791
0.0023024757
-0.0036066552
-0.014499715
-0.0071688453
0.003075576
0.0015501954
0.002413371
8.6934393E-4
-0.0025317697
-0.0014170812
-0.0018489506
-0.0013378727
-7.371699E-4
-2.1550363E-4
0.0027360902
0.0018851798
9.3862053E-4
0.0022932459
5.8423355E-4
-8.542174E-5
4.1757667E-5
-0.0024025433
-0.0025792583
-0.0011053024
-0.0018915229
-0.0025368603
-0.0023887279
-0.0022866381
-9.6021453E-4
-5.2324333E-4
-0.0018673163
-0.0021184816
-0.0013683189
-1.3205003E-4
0.0015065059
0.0014612569
2.4003716E-4
1.9240318E-4
0.0011339646
0.0016874394
5.877399E-4
-5.2903866E-4
0.0013318305
0.0025326079
0.0010839441
0.0013518343
0.0023701189
0.0026770225
0.0027557965
0.0018706156
0.0019330872
6.543826E-4
-0.0019112212
-9.925183E-4
1.3858244E-4
-3.279174E-4
-0.0016589338
-0.0039492934
-0.0036376975
-0.0023434863
-0.002291861
-0.0019759603
-0.0010315847
5.583927E-4
6.964312E-4
6.5745134E-4
0.0011125385
1.7560453E-5
1.4642622E-4
4.5766312E-4
-5.128874E-4
-9.395103E-4
-0.0014499715
-4.5072509E-4
6.765616E-4
0.0010050249
0.0028490073
0.003073155
0.0027030262
0.003451872
0.0024004036
0.0019210981
0.002861087
0.003045065
0.0017095405
9.592176E-6
0.0010722
0.0015165929
-5.1694183E-4
-8.0266007E-4
-0.0010556619
-0.001763711
-0.0013057548
-0.0019264007
-0.0020302231
-8.489903E-4
-0.0012425933
-0.0023809162
-0.002546137
-0.0018302571
-9.533025E-4
-0.00124579
-0.002434248
-0.0020896113
-4.2277263E-4
1.9315026E-4
7.835144E-4
3.5904036E-4
-0.001548668
2.2226667E-4
0.00202566
4.1611775E-4
0.0013880753
0.0018651016
9.598751E-4
0.0031530436
0.0033254656
0.0024610404
0.003142202
0.0016104289
9.380406E-4
0.0011091774
-2.6353446E-4
-1.4728293E-5
7.7047106E-4
2.7962058E-4
-9.377372E-5
-5.688128E-4
-0.0020995336
-0.0028924902
-0.0016701401
-0.0013703267
-0.0012332567
-1.8045645E-5
-4.5085597E-4
-9.7405096E-4
-0.0015284679
-0.0028804154
-0.0021930817
-0.0013777055
-0.0012526088
-3.9827597E-4
-4.6650943E-4
-6.873227E-4
-7.805423E-4
-0.0012954987
-3.8930296E-4
0.0014880984
0.0024589375
0.0021088968
0.0013401846
3.4966576E-4
-0.0012090661
-5.8395736E-4
0.0021419171
0.0023573074
0.0010284071
6.69632E-4
-1.056102E-4
-9.249017E-5
7.2822114E-4
4.8527453E-4
0.0011956176
0.002001098
0.001316882
0.0010050882
1.4719318E-4
-3.0552899E-4
7.0165884E-4
2.7572676E-5
-9.653025E-4
-8.829454E-4
-0.0018276469
-0.0018171438
-6.0524605E-4
-0.0016181592
-0.0020050535
9.819086E-4
0.0017453902
-9.636132E-5
2.0543224E-4
6.7162013E-4
8.9991244E-4
0.0010337651
-6.521498E-4
-1.3706766E-4
0.001182487
-4.871593E-4
-0.0010604025
-2.3282027E-4
2.9314868E-4
0.0010496322
7.09568E-4
-4.493734E-4
-0.0011918641
-5.7132216E-4
2.3774688E-4
-3.8085564E-4
-2.531223E-4
-8.0898753E-4
-0.0026141084
-0.0011961234
6.007379E-4
-4.1097963E-5
1.156587E-4
-6.1861833E-4
-0.002484593
-6.9135363E-4
0.0026603003
0.002766269
0.001735974
0.0018961821
0.0024357273
0.0029494704
0.0016014
-7.5807533E-4
-2.4005777E-4
0.0010528513
8.3950686E-4
5.6889135E-4
-1.04630286E-4
6.845367E-4
0.0022095826
3.0211135E-4
-9.737487E-4
5.7764297E-5
-5.756747E-4
-8.123439E-4
-7.4933533E-4
-0.0017158206
-0.0012007661
-4.62293E-4
-4.751359E-4
-6.0934556E-4
-0.0010911069
-8.690099E-4
-7.453646E-4
-0.001077655
-7.706063E-4
-2.8741575E-4
-1.0548996E-4
-5.592465E-4
-7.3469017E-4
-2.840607E-4
-4.1067568E-4
-9.728681E-4
-0.0012230033
-1.3075223E-4
5.2124704E-4
-4.2220767E-4
5.635634E-5
0.0012338891
0.0018237233
0.001611859
6.8485085E-4
0.0016280288
0.0015838118
2.659037E-4
2.9522748E-4
-0.001387595
-0.0010868865
0.0012204137
5.620027E-4
0.0011295517
0.0015872882
1.7034293E-4
1.4254484E-4
-8.8266755E-4
-0.0015893898
-1.869307E-4
1.4385233E-4
-8.2277774E-4
-0.0010867576
-7.3080126E-5
-4.4036412E-4
-0.0019261959
-0.001771957