-0.0025001047
0.008583638
0.013401919
0.00714707
-6.755433E-4
-0.0046705697
-0.0030145147
-0.0014904971
-0.0040839366
-0.004702788
-0.001166112
0.0014696834
0.0016525561
0.005026217
0.010214553
0.0057762424
-0.004002841
-0.006689241
-0.007623616
-0.009369989
-0.0052498286
0.0012644498
0.006514431
0.00884855
0.0038501082
-0.0032271016
-0.0043154256
-0.0018298484
-3.3100607E-4
0.0012170809
0.002878087
0.0029941334
0.0041607153
0.0047946232
0.0010659163
-0.0017957927
-0.0026866263
-0.004945461
-0.0052640224
-0.003766983
-9.0565794E-4
0.004228417
0.006677994
0.00825861
0.009310597
0.003501851
-0.0017045141
-0.0033309907
-0.0065424736
-0.004948155
-0.0033686613
-0.0063433177
-0.0017359732
0.0039135357
4.0172946E-4
-0.0037508544
-0.0052056215
-0.0052576545
-0.0056261206
-0.0080655245
-0.006405624
3.1543485E-4
0.0060739107
0.009554917
0.008278381
3.5039606E-4
-0.006850288
-0.0078549115
-0.004595574
7.2089233E-4
0.0026811976
0.0014373977
0.0050053364
0.0110955555
0.014367965
0.013774861
0.010013868
0.00951282
0.009902009
0.005133532
6.75882E-4
4.10088E-4
0.0035915768
0.0038835218
-0.006378857
-0.018007306
-0.018551901
-0.01487665
-0.016689029
-0.015588286
-0.0068100244
-3.5148193E-4
0.0036223305
0.0061454875
0.0022190174
-0.0027466954
-0.0052202763
-0.0062883366
-0.0026573401
0.0037272808
0.006028273
0.004974828
0.0076195938
0.008918187
0.0019757538
-0.004042001
-0.005947492
-0.006657868
-0.0028799602
0.002376576
0.006452343
0.01116094
0.01431602
0.01421887
0.00932717
-5.8385875E-4
-0.008033593
-0.007511614
-0.0055343886
-0.0055545415
-0.001742853
0.005196173
0.010856071
0.011530799
0.0057007433
0.0020667007
0.00190852
-0.0024094114
-0.007320023
-0.010163076
-0.012479289
-0.009603472
-0.003145532
6.609516E-5
-0.0013374509
-0.009179413
-0.017460281
-0.014163773
-0.007571647
-0.006834299
-0.0018674064
0.005683333
0.007923146
0.009907878
0.011597729
0.008751868
0.0030294629
-2.3310402E-4
0.003327195
0.008612165
0.010238547
0.013479687
0.019596709
0.018546062
0.008490985
-0.0020717932
-0.010148171
-0.0127949435
-0.010752211
-0.010784571
-0.010376391
-0.006593987
4.6055423E-4
0.005732682
-0.0010491632
-0.009319031
-0.009006474
-0.008920072
-0.00709464
-0.0041709235
-0.0057289996
-0.00182273
0.0077468622
0.011444274
0.008798872
0.0031876317
-0.0016987917
-0.0021559796
-0.0027962849
-0.005003826
-0.0019551918
0.005357776
0.011272579
0.011968275
0.0050589326
-0.0036125607
-0.006373666
-0.0029618538
-7.925602E-5
-0.0021686251
-0.0040371376
-0.0023372096
0.0024409015
0.0070214053
0.005709525
0.0026150949
0.0013558978
0.0014116189
0.004789902
0.0062209144
0.0033514025
0.0017261183
0.0034795355
0.005100975
5.6144036E-4
-0.008244267
-0.016799541
-0.019848676
-0.012180566
-0.0049704877
-0.004266723
-0.0020423015
0.0019938806
0.005823609
0.0050216476
-0.0013783445
-0.0045796246
-0.0029482779
-8.8637846E-4
-4.248279E-4
0.0010570022
0.0033476132
0.0039142813
0.008366685
0.010962387
0.0051390477
0.0027009589
0.0034952583
0.0017865233
0.0011232086
1.5588355E-4
0.0011051804
0.005148076
0.005641985
0.0041897614
0.0029159896
-0.0015926593
-0.0047865086
-0.0061027366
-0.010176158
-0.008307907
-0.0010023728
9.855763E-4
0.0018262244
1.8002714E-4
-0.0059934896
-0.00867149
-0.010572725
-0.0101120435
-0.0041788504
-7.283209E-4
0.0027309966
0.0079052895
0.008191269
0.00612597
0.0034928615
-0.0018915074
-0.0044475915
-0.002377479
-0.0016723023
4.8366305E-4
0.005156884
0.0076987613
0.011586421
0.01147943
0.0027865642
-0.002893711
-0.003755305
-0.0027572815
0.0010016585
0.0026395214
0.001117303
0.0010789802
0.0040072687
0.0029006533
-0.0037011357
-0.0062674414
-0.0065340633
-0.007608835
-0.005465452
-0.0030861949
-0.0010399724
0.001863572
0.0028343746
0.0015280582
-0.0017779538
-0.005083129
-0.0061022746
-0.0051240986
-0.0030153715
-0.002201038
-0.0017108523
0.0039923
0.011552354
0.010518302
0.0042688726
8.999097E-4
-0.0018528908
-0.0018676998
0.0010118947
0.001604847
0.0041666627
0.009016354
0.010646571
0.0058511044
-0.0053098327
-0.012024847
-0.0124148885
-0.013247313
-0.008744014
-0.0018394763
1.2153534E-4
0.0034416728
0.0064617353
0.003287317
-0.00239237
-0.0053551034
-0.0026265525
6.1887415E-4
-0.0010792083
-0.0026128746
0.002964843
0.01555516
0.02059759
0.011124496
0.0027669098
-0.0022729281
-0.0096224705
-0.010850552
-0.006175396
-0.0016919668
0.0016767049
0.003977457
0.005734866
0.0032824266
-0.0027926026
-0.006619098
-0.006285617
-0.0035909633
-0.0035599896
-0.005853653
-0.0051680086
0.0013036055
0.007932031
0.0035648833
-0.004345557
-0.0055301283
-0.0060964217
-0.0045812223
5.1878946E-4
0.0049459822
0.009462386
0.010941815
0.010133729
0.009898059
0.00468046
-0.00394413
-0.008208895
-0.009512113
-0.010385626
-0.007222961
-0.001831468
0.003246999
0.008792342
0.008182952
0.002473988
-0.0014014763
-0.0064138994
-0.008885726
-0.0043791477
1.2380768E-4
0.0013431199
0.0038304147
0.010120446
0.0120082395
0.004711984
-0.0020045405
-0.0031171048
-0.0017850786
-6.27173E-4
-0.0017516012
-0.0018376294
0.0038827965
0.009493825
0.0057991315
-0.003786372
-0.011533291
-0.01402777
-0.009191869
-0.0024255537
-0.0013292934
-0.0031618802
0.0021215817
0.011734252
0.009094841
-0.0015035354
-0.005405398
-0.006526446
-0.0083749015
-0.00821458
-0.0042461236
0.001475086
0.0059576947
0.011240886
0.00910358
2.1527376E-5
-0.0022514167
-0.0024906648
-0.0017827485
0.0019801338
0.003511991
0.007687902
0.008440027
0.0035529998
0.0034677372
3.9340663E-4
-0.0053943107
-0.0038454174
-0.0012659725
-0.0031907733
-0.004021016
8.2154415E-4
0.005041776
0.007603845
0.009318871
0.0021338703
-0.00466922
-0.0060092546
-0.010109942
-0.009744445
-0.0070050657
-0.0045912466
0.0033667705
0.006165925
0.0034120488
0.0019771368
-0.0016492098
-0.004619498
-0.006042006
-0.0054342463
-0.0016847997
0.0018409739
0.006777514
0.01022444
0.008837632
0.0037716415
-0.00405528
-0.007320366
-0.008396839
-0.01152158
-0.007823693
-4.567233E-4
0.0042205853
0.009386484
0.012593745
0.009978054
0.0025938302
-0.0028862976
-0.0015608504
0.0015158487
0.0018538518
0.0013731571
0.002961343
0.004536894
0.002900883
-0.0011654677
-0.0070835883
-0.010713135
-0.00816065
-0.003362952
-9.7246945E-4
-2.892881E-4
0.004067089
0.0087748235
0.0074354517
0.003819632
-0.004419022
-0.012483084
-0.007846736
-0.0030619588
-0.005004529
-0.0011342935
0.0063022017
0.010449877
0.009076031
0.0013153417
-0.0042808154
-0.0034768847
-0.0025127418
-0.0026951132
-0.001017006
0.0023143466
0.006333082
0.008686963
0.0060978625
9.360094E-5
-0.0041097994
-0.0046747657
-0.004847628
-0.00498335
-0.004702333
-0.0043152673
0.0024899715
0.010425099
0.007856786
6.972592E-4
-0.0058535696
-0.008265548
-0.0051571066
-0.0042545423
-0.002007083
-4.3768126E-5
-7.4250076E-4
0.0061314
0.009679077
0.0035295512
-4.1281956E-4
-0.0023730835
-0.0017513798
-9.867316E-4
-0.00212743
4.422858E-4
0.002116372
0.0046393913
0.008446643
0.003210672
-0.004381143
-0.0051636035
-0.0037768444
-0.0051652067
-0.006957259
-0.0024617855
0.007531823
0.014757296
0.012421641
0.0042263116
-0.002454971
-0.008367466
-0.009561689
-0.006549548
-0.006971302
-0.0050280937
0.0025393018
0.0088666035
0.008614583
0.0023360134
-0.002802825
-0.0065509775
-0.011110407
-0.010945476
-0.0044487035
0.002093116
0.0057219085
0.009666377
0.009581459
0.0034948166
-0.0013991321
-0.0047927187
-0.0027051223
0.0025264728
2.5049949E-5
-0.0012175834
0.0030438646
0.006158049
0.009817732
0.009370136
0.0010975151
-0.0079866825
-0.009970601
-0.007527658
-0.0071277306
-0.0028823551
0.0027798833
0.0050428724
0.009000584
0.0063890405
-0.0011992212
-0.0019673088
-9.005471E-4
-0.0019450183
-0.005443791
-0.0040356307
0.003686769
0.001983462
5.23811E-4
0.004995916
-6.494096E-4
-0.0057758843
-0.010163961
-0.017793844
-0.00473401
0.011494895
0.0065510585
0.004287984
0.005675186
-7.068997E-4
-0.006529047
-0.013906607
-0.013984394
-7.2308024E-4
0.0075913467
0.010527964
0.013825853
0.0133176325
0.012176284
0.008994736
0.002161897
-0.0031420067
-0.0035320374
3.213623E-4
2.3513379E-4
-0.0020586199
0.0024355436
0.005429691
0.0015873519
-0.002336492
-0.00716093
-0.012663512
-0.01313732
-0.010806517
-0.009327386
-0.0053109545
0.0019885919
0.0073612127
0.0070559466
0.0026614517
-0.0022154602
-0.005747782
-0.0047909217
-0.001516655
-0.0031874273
-0.0030295295
0.0054449686
0.013053089
0.016318917
0.014557563
0.0064305444
0.0013303807
-4.4107548E-4
-0.005114248
-0.0071447957
-0.005931481
-0.0022166201
0.0061559896
0.008686611
0.0014505606
-0.006589103
-0.011650621
-0.012907847
-0.011420786
-0.0078199245
-0.0030914969
8.036867E-4
0.007005009
0.010664635
0.0070936615
0.0043960395
0.0038060362
0.0029179615
7.210047E-4
-0.0028876888
-0.0015723205
0.005239144
0.011871731
0.010587951
0.0021422114
-0.0013342489
-0.002497279
-0.005239184
-0.0045420695
-0.005059599
-0.006624752
-0.00559716
-0.0020395566
0.0028515244
-2.235459E-5
-0.0072805947
-0.008617502
-0.007731258
-0.005535079
-0.0021957827
-0.0016326539
-4.864191E-4
0.004896995
0.009099454
0.004483681
-0.0041980157
-0.0075327307
-0.0038399266
0.0035649643
0.0063732793
0.005439478
0.010140448
0.017089779
0.019171758
0.014601713
0.005128886
-0.0027905046
-0.007100183
-0.007949549
-0.004697669
-0.0028154638
-0.004501765
-0.0031630478
0.0022293155
0.0037911776
-0.0016029892
-0.008894394
-0.013213928
-0.012875993
-0.010519192
-0.007565515
-8.013521E-4
0.005639391
0.005883578
0.002016101
-0.004306472
-0.0070069446
-0.0021241477
0.0013955854
0.0020717974
0.003807168
0.0050361394
0.008404363
0.01019821
0.0040967893
-0.003246338
-0.0067559844
-0.0064223344
-0.0024921836
0.0014386324
0.004441346
0.007269967
0.008756796
0.008211614
0.0058973753
0.00322024
0.0019285199
0.0019219895
-0.00100286
-0.0058483346
-0.0045687486
0.0012609842
0.005968246
0.0074908077
0.0011325812
-0.009415695
-0.014055655
-0.012361195
-0.008817216
-0.005607279
-0.0029885953
-5.862697E-4
0.0029456578
0.0071240664
0.0056969374
2.6700657E-4
-0.001890313
-0.0029391607
-7.082749E-4
0.0015825947
-0.0058186864
-0.004652371
0.010604984
0.012865176
0.0038427182
-0.0024923007
-0.0073421313
-0.0074788197
-0.0050625866
-0.0017839168
0.0026421673
0.0056949607
0.010585808
0.009813755
0.0016694209
-0.0046583614
-0.011584701
-0.013058357
-0.0093689095
-0.009241776
-0.0030161599
0.0067398674
0.012454548
0.017928012
0.017379284
0.012943704
0.010575835
0.0052589
-0.0012371659
-0.0062668785
-0.012165322
-0.015623014
-0.011319413
-0.0021089308
0.0033909108
0.0014733048
-0.004806953
-0.007474245
-0.004643015
-0.0052178698
-0.008722642
-0.005785142
0.0017417605
0.004428408
0.0018586831
8.292172E-4
5.770894E-4
-0.0013001602
0.0019759664
0.010236679
0.012381709
0.011489978
0.016759548
0.018958239
0.011322865
0.00102323
-0.005385273
-0.0057393615
-0.008429291
-0.015557676
-0.017304702
-0.016111098
-0.012547165
-0.005140002
-0.0060745585
-0.0153399315
-0.01971993
-0.016311036
-0.007893918
0.0029670352
0.0099229915
0.013285455
0.019906955
0.0249967
0.02386645
0.016418984
0.0034360003
-0.0014480031
0.0015741445
0.0026549064
0.006480015
0.010697284
0.0148069
0.018299133
0.014331713
0.008651739
-3.2812217E-4
-0.013198786
-0.021862507
-0.02692987
-0.024297701
-0.018339416
-0.012917769
-0.002424329
-3.4980662E-4
-0.008150851
-0.011353754
-0.009746854
-0.004207837
0.0020457364
0.004863454
0.0037982936
0.0019200068
0.0023063866
-0.003225406
-0.0122239115
-0.018830474
-0.0202771
-0.0030839364
0.013662589
0.013535835
0.021942759
0.03432832
0.03541188
0.032004885
0.020911995
0.005136977
-0.0086072255
-0.014799788
-0.011274266
-0.010602472
-0.0034449787
0.017077448
0.030426413
0.033431906
0.024264
0.0019660678
-0.021515807
-0.044282142
-0.05123648
-0.041887548
-0.03697468
-0.020274743
0.0033104161
0.0042072535
0.0017956225
0.005064469
-0.0020697552
-0.0026463773
0.014708859
0.027448384
0.02234907
0.010580836
-3.0375583E-4
-0.0026473075
0.013605301
0.027966073
0.02719574
0.026804816
0.011704265
-0.032205373
-0.06883989
-0.06920219
-0.049858414
-0.031108331
-0.010398353
0.006351935
0.013425277
0.015716316
0.0031996947
-0.0039310795
0.02003771
0.046806216
0.060353473
0.05220423
0.017943688
-0.0045509357
-0.0095273815
-0.013161591
-0.011949626
-0.0057558734
0.019947534
0.05189107
0.0530915
0.03340671
0.022370296
0.018193232
-0.009953255
-0.049461957
-0.063799724
-0.06524147
-0.057890937
-0.051838
-0.054556344
-0.037084784
-0.033619013
-0.05256116
-0.032418218
0.00595586
0.033346258
0.060686346
0.06721246
0.054346614
0.04108184
0.020532034
-0.0051156115
-0.018013055
-0.018076584
-0.016664749
-0.01351075
-0.008687025
0.0075090225
0.036223106
0.048619095
0.043716464
0.035745453
0.020548915
0.0060020587
-0.0010727755
-0.006404962
-0.009195386
7.9461077E-4
0.021183483
0.029459247
0.016142571
-0.010578507
-0.03617659
-0.04271014
-0.02762311
-0.018036153
-0.037235584
-0.053904712
-0.042567592
-0.026780998
-0.016666183
-0.013174597
-0.015661223
-0.021825181
-0.036701325
-0.038462054
-0.02255929
-0.0077456795
0.008577462
0.017600127
0.020005638
0.033400904
0.060338568
0.090286985
0.100787506
0.08980506
0.062689975
0.028199749
0.015008901
0.020106431
0.03667148
0.04987037
0.016783107
-0.033317186
-0.059748106
-0.07712561
-0.074227
-0.05085674
-0.035426255
-0.03446662
-0.0419499
-0.043473005
-0.040432323
-0.03691118
-0.02078154
-0.010960796
-0.009395918
0.009323644
0.02446291
0.026920974
0.02090392
-0.005876929
-0.020486074
-0.009433477
0.013836973
0.05424342
0.07096722
0.06440416
0.065947466
0.038699515
0.006360436
-0.008733717
-0.050556548
-0.07396512
-0.045511886
-0.01671069
-0.0044238465
0.0052183336
0.03169975
0.06736299
0.07124476
0.03574499
-0.016778372
-0.057488553
-0.06514465
-0.042024624
-0.011983952
-0.0021213095
-0.0021285622
0.0052141347
0.0126571255
0.017123133
0.013697029
0.009338263
0.0067377067
-0.016322209
-0.041906703
-0.04592165
-0.040333547
-0.017080905
0.014607191
0.022860687
0.014026359
-0.0065539414
-0.024273021
-0.004763026
0.026127884
0.036168896
0.041270982
0.04405711
0.04865404
0.052023932
0.030928241
-0.0034060196
-0.038097177
-0.054785654
-0.02542594
0.0035939899
-0.0016228476
0.0025501125
0.015140107
0.010179117
0.0037674624
4.6392748E-4
-0.009757746
-0.027014729
-0.04092429
-0.034637835
-0.014065867
0.0059221257
0.017436357
0.0066715996
-0.014204431
-0.01887417
-0.013099727
-0.012406637
-0.014524167
-0.008705335
-0.0010330268
0.0039017037
0.017122263
0.019816462
0.0039697997
-0.0023589574
-7.4603007E-4
0.003834635
0.010574136
0.003930163
-0.0036112738
-0.0056065973
-0.018889174
-0.037697043
-0.032692626
0.012013397
0.059237447
0.08058373
0.08856829
0.06396104
0.00734553
-0.027598955
-0.024512006
-0.0070894784
4.1799195E-4
-0.011732085
-0.022822471
-0.008509407
0.017532751
0.024525357
0.017404435
0.015201621
0.014170738
0.0025247904
-0.02426979
-0.044311922
-0.0446305
-0.050420903
-0.057256073
-0.043010566
-0.020482708
-0.0044432757
-0.0013553416
-0.007152804
-0.008202328
-0.008261449
-0.010190668
-0.0046512485
0.009217059
0.017791139
0.013677473
0.01512508
0.022933109
0.015752241
0.005900845
0.008465886
0.014568133
0.01817347
0.013953899
0.011279104
0.02014052
0.023027036
0.0142490165
0.004446248
-0.0021137015
0.0037385812
0.011572651
-0.007080897
-0.032114435
-0.020330304
0.006143328
0.008574134
0.00800201
0.02129491
0.028803403
0.022940734
0.009798351
0.0024396423
0.006027161
0.002248454
-0.012186133
-0.025173994
-0.033409957
-0.029569337
-0.016784795
-0.01118037
-0.015870336
-0.015075099
0.0041826745
0.011681182
-0.009516465
-0.017133001
-0.011700242
-0.02016457
-0.024446616
-0.026124708
-0.031123934
-0.025741914
-0.01874722
-0.0065203942
0.01838142
0.035471123
0.035138533
0.028800368
0.025442068
0.024974396
0.030391287
0.03368196
0.026489777
0.026682507
0.022590898
-5.524235E-4
-0.015943935
-0.023850052
-0.0240057
-0.011682443
-0.0116719715
-0.009268219
0.007491361
0.023152038
0.044423517
0.05079352
0.03255158
0.011409899
-0.024599185
-0.06295042
-0.068632714
-0.051712077
-0.032484602
-0.013424393
0.010063439
0.024461199
0.019141788
0.01770847
0.018073533
0.008409047
0.0032543405
-0.007595542
-0.020153845
-0.016816266
-0.017327933
-0.019965623
-0.014118449
-0.0094036115
-0.003689149
-0.0015755285
-0.0010596549
-4.5213403E-4
-0.006320537
0.0018919497
0.019756187
0.026571836
0.03191585
0.027918419
0.012478083
0.007944173
0.010051764
0.0051582474
0.0059960913
0.018886402
0.020127935
0.016118465
0.023895144
0.012569995
-0.012165912
-0.020707242
-0.033697464
-0.04389233
-0.028321732
-0.018250166
-0.025094386
-0.017826075
-0.0023609477
-4.4498293E-4
-0.0050556744
-0.019864285
-0.033528607
-0.017487373
0.008389756
0.023886094
0.03114436
0.028909896
0.026084378
0.017709954
0.009793189
0.017485367
0.023034045
0.024302887
0.020268524
0.0014831941
-0.0057802363
0.0022278316
-0.0028374237
-0.022415364
-0.034949984
-0.026662186
-0.01154923
-0.007215013
-0.008191781
-0.0049188505
-3.7648316E-4
0.0020648553
0.0039897365
-0.0024067606
-0.018230168
-0.028845085
-0.026574574
-0.013430033
0.0011440163
0.014381855
0.02909252
0.037081085
0.034072176
0.02344971
0.017946208
0.017746031
2.2285436E-4
-0.02017909
-0.017739927
-0.0076246914
-0.0023743163
6.911657E-4
0.0016331354
3.408843E-4
-0.002983042
-0.0112081375
-0.020585602
-0.019472564
-0.01472422
-0.008564919
0.008587799
0.027569178
0.043060794
0.043565087
0.025329063
0.009746728
-0.011999138
-0.034841806
-0.030153284
-0.0136430105
0.0010700721
0.013750751
0.010128813
-0.005735838
-0.015200505
-0.012501119
-0.009412257
-0.012219409
-0.013898277
-0.012338949
-0.006071808
0.0022160758
0.0036114124
-0.00421306
-0.01346817
-0.013676047
-0.009007218
-0.006694925
-0.0060197543
-0.0028527728
0.010987014
0.028436208
0.037679896
0.037124168
0.025609232
0.012527874
0.00162233
-0.010075595
-0.0112069165
0.0018615252
0.022094306
0.037132896
0.033661865
0.018838357
0.0016941535
-0.020056294
-0.040249754
-0.048488304
-0.04430945
-0.032651663
-0.017680034
-0.0018032995
0.012992306
0.01500881
0.0016027546
-0.0074707274
-0.011665692
-0.019560061
-0.017550366
-0.004284443
0.004713842
0.0064609395
0.009691134
0.014237667
0.013485694
0.013081899
0.015519311
0.018691687
0.020868266
0.013702338
0.00794287
0.012344472
0.011716945
0.003624422
-0.0075321747
-0.016362453
-0.015498972
-0.013857493
-0.014486801
-0.010021412
-0.0036677278
-0.0021591515
-0.004118863
-0.005573168
-0.009504938
-0.012968665
-0.011968537
-0.0124109965
-0.010551537
-0.0035185614
0.005099368
0.015976377
0.019683966
0.013934177
0.0090452675
0.0054330523
0.005632805
0.01276392
0.02226306
0.030724913
0.034947645
0.034556296
0.027480857
0.008334504
-0.018180508
-0.038272873
-0.04480945
-0.046995718
-0.04955027
-0.04101108
-0.018368762
0.0055380836
0.014401542
0.01162803
0.012246341
0.003092912
-0.018446691
-0.021772774
-0.007190309
0.0017435814
0.0036929515
0.006834092
0.011820876
0.013265787
0.010786155
0.01027344
0.01734616
0.03397957
0.048302718
0.046719946
0.038559686
0.037825983
0.02702078
-0.015737634
-0.0640446
-0.08045681
-0.07066035
-0.05059068
-0.022627695
-0.001805357
-0.0015540619
-0.0062022237
-0.0069064023
-0.013244201
-0.015666295
-0.007895148
-0.0011083741
0.0107383095
0.03487471
0.061285704
0.07469004
0.06307157
0.03801169
0.018524304
8.6585473E-4
-0.01704012
-0.02318615
-0.015134269
-0.006524578
-0.005666752
-2.717204E-4
0.009469855
0.0027255428
-0.014363927
-0.025462126
-0.034876235
-0.040219497
-0.03966608
-0.03960625
-0.03645665
-0.030408572
-0.025856053
-0.017248692
-0.0012572261
0.008834963
0.0056486563
0.00752304
0.020899344
0.03368371
0.0413026
0.0418466
0.043564364
0.047672894
0.040243365
0.028473137
0.024732653
0.025444316
0.021530474
0.012738613
0.0058757947
-0.008521078
-0.022139126
-0.015790658
-0.010623985
-0.018703347
-0.03102949
-0.044535555
-0.048018683
-0.038232695
-0.019719955
-0.005520814
-0.008429647
-0.01348289
-0.014166592
-0.018217262
-0.022042518
-0.020464417
-0.012732919
-0.0053344313
0.0029289133
0.0136685055
0.02369029
0.037757326
0.0417629
0.029503904
0.019069571
0.012863767
0.010952009
0.010856735
0.013581446
0.026886089
0.032069456
0.019886749
0.0041821175
-0.0074925255
-0.012673608
-0.018235004
-0.021611927
-0.015835231
-0.009699492
-0.0053751143
-8.1783766E-4
2.9563988E-4
-0.006509575
-0.018242039
-0.023018787
-0.019079253
-0.012534798
-0.008445626
-0.0055248435
-4.5448256E-4
0.0036318249
0.008996829
0.005477863
-0.010656997
-0.012561977
-0.00366781
-0.0018532693
-2.3320903E-5
0.0030599996
0.008924628
0.01894216
0.028565452
0.030685103
0.015571003
-7.7602256E-4
-0.0018425204
0.0014262623
0.0012409475
-0.0018457606
-0.0016303454
0.006486329
0.015217992
0.017108412
0.01123941
0.0032757707
-0.007010656
-0.020595655
-0.026697867
-0.023697935
-0.016798835
-0.006733996
-1.08564825E-4
-0.0025320163
-0.007914102
-0.008939571
-0.009258455
-0.009405678
-0.0058111614
-0.0040443763
-0.0017041609
0.0059015215
0.0117707625
0.012517109
0.0086472435
0.003962464
0.0030146001
0.004216787
0.0061589847
0.0075823315
0.009807659
0.013129473
0.014057428
0.013228767
0.009095566
0.0016835071
-0.0051378
-0.011846646
-0.015632771
-0.013676847
-0.008581476
-0.003784799
-9.33208E-4
0.001665005
0.001890872
-6.950593E-4
-0.0030998248
-0.006415115
-0.007014483
-0.0053896243
-0.004371317
0.0028955447
0.010318837
0.008390727
0.0026285478
-0.003587441
-0.0060108444
-0.0029513915
8.5186664E-5
0.004258891
0.0069559724
0.0041702464
0.0029113968
0.004147421
9.39531E-4
-0.0046158135
-0.0054123844
-0.0033035222
-0.002291607
-6.8141625E-4
0.0017367726
0.005746699
0.00811927
0.0030419102
-0.002871572
-0.00577465
-0.008058027
-0.0064199828
-0.003096455
-5.556747E-4
0.0023771368
0.0036503007
0.00565851
0.0076324777
0.0034148016
-0.0027428055
-0.003447612
-0.0021183619
-0.0035816438
-0.0028734617
0.0030475247
0.008480591
0.01119291
0.0102530895
0.0024035375
-0.008291149
-0.0135731725
-0.0113593675
-0.0068326257
-0.003534582
0.0011160554
0.0062053134
0.008685553
0.009473183
0.007361937
0.0029621823
-0.0024904052
-0.009457404
-0.0095393
-0.003524364
-0.0025232572
-0.0010294017
0.003921751
0.005634603
0.003782926
-0.0023202207
-0.0073016263
-0.0067750956
-0.0041202316
7.3772616E-4
0.004413454
0.008702427
0.01081401
6.6480465E-4
-0.004612545
0.0010680775
-0.001123367
-0.004699541
-0.0027953463
-1.8941774E-4
0.005269475
0.007822801
0.0071904915
0.005445688
-0.0015670853
-0.0045631686
-0.004728785
-0.010138169
-0.00980892
-0.0041962466
6.133121E-4
0.0071323556
0.008450168
0.005584846
0.0015299013
-0.0072477683
-0.010335308
-0.0061669126
-0.00470382
-0.0044885958
-0.0027313759
0.0013080845
0.0059632845
0.007977635
0.006281053
0.0015173077
-6.130454E-4
-0.0012739616
-0.0028281983
-0.0012031493
-1.7227652E-4
0.0017227683
0.0072267917
0.009133839
0.006777423
0.0014979764
-0.003532467
-0.003252034
-0.001483577
-0.0017993532
-5.851117E-4
0.006359933
0.010130333
0.0046775755
-0.0022677176
-0.013586799
-0.020303244
-0.010437541
-0.0037384476
-0.0036177407
0.001245997
0.0052934764
0.009067946
0.0099597955
0.002645066
-0.0054286644
-0.008011899
-0.0044114557
-8.361951E-4
-0.0015197941
-9.915112E-4
0.0038983126
0.009754573
0.009268498
0.0019743335
-0.0039607887
-0.0053604236
-0.0049807415
-0.0043914574
-0.0020910911
2.6009936E-4
0.002315536
0.0064860643
0.0072930856
0.0040471936
9.23483E-4
-0.0015943735
-0.0013871569
-0.003364817
-0.0061844853
-0.0028331133
0.0015372029
0.007271236
0.009706513
0.003046985
-0.0017715049
-0.0058723907
-0.009059999
-0.005784983
-0.003998087
9.032576E-4
0.008433326
0.007973033
0.0063587516
0.002998308
-0.0045678364
-0.007899062
-0.0089727035
-0.009350699
-0.006093078
-0.0015595555
0.0029319113
0.0072826818
0.008739365
0.0049766013
-0.0010586011
-0.0053252075
-0.0064034536
-0.0049269455
-0.002431509
0.0020631228
0.005910566
0.0068778717
0.00747412
0.0042377897
-0.0017634425
-0.0046885433
-0.005739238
-0.0047832807
-0.0012113849
0.004120217
0.0094332015
0.011671938
0.009709916
0.0019125162
-0.0050673275
-0.005482813
-0.007409913
-0.011067
-0.010143104
-0.0051675956
1.3102074E-5
0.0031248431
0.006974733
0.0056811557
-0.002865774
-0.004400957
-0.0014069972
-0.0033942172
-0.004577632
-0.0024354474
0.0018971863
0.0068753157
0.009401387
0.007042201
-0.0018325619
-0.0075490135
-0.0049589938
-0.0030978022
-0.001183211
0.002567808
0.0041461224
0.006564256
0.008725009
0.0067854407
0.0022576826
-0.0029105642
-0.0041051423
-0.002096567
-0.004315441
-0.008083458
-0.004988771
0.003949348
0.008826091
0.0041347085
-0.0035940735
-0.0074586645
-0.008142417
-0.0072785825
-0.004815755
-4.9272145E-4
0.0050433134
0.008742158
0.008825572
0.005995054
-3.912197E-5
-0.004613742
-0.0030965984
-0.0030178004
-0.005808126
-0.0028977655
0.0030318473
0.007101313
0.009697683
0.0072801076
-1.4305429E-4
-0.0054042595
-0.0048316
-0.0026360408
-0.0030024007
-0.0026584226
0.002003012
0.0057708616
0.003524557
-3.6125074E-4
-0.0037062895
-0.007911459
-0.008133422
-0.0045664664
-0.0023916594
-7.1329967E-4
0.0016692758
0.0060600233
0.010181007
0.0069015934
-0.0011598542
-0.005865443
-0.0061764247
-0.005570165
-0.0046859523
-7.86679E-4
0.0045223306
0.0079557495
0.009663304
0.008378177
0.0038684702
7.361402E-4
0.0011362483
6.754615E-4
-0.0012761401
-9.584282E-5
0.0021997415
0.0031132544
0.003300114
-0.0017105258
-0.010112261
-0.012673555
-0.010542708
-0.008319778
-0.00360034
0.0013910545
0.0028491355
0.004198386
0.004924289
0.0029552896
-2.0873944E-4
-0.004366365
-0.004937605
-0.0031019943
-0.0034074013
-2.9419208E-4
0.004537059
0.0070913793
0.008987947
0.005911709
-6.2185025E-4
-0.0047093434
-0.0052712406
-0.003084349
-0.0013373084
5.5079017E-4
0.003393452
0.0070859664
0.011195225
0.008859435
0.0016039703
-0.0043771337
-0.008558207
-0.0066175703
-0.0033074962
-0.005125484
-0.0027756153
0.005260905
0.010093647
0.0077663073
-0.0010087752
-0.007716385
-0.008069626
-0.0065036225
-0.0030643754
4.112121E-4
0.0034648492
0.007981961
0.0077269184
0.0021695986
-0.00471549
-0.008404701