0.0019890382
-4.1557443E-5
-2.0884548E-4
-0.0018337646
-0.0020535518
9.947073E-6
0.0025342018
0.003132262
0.0023743385
0.0040813806
0.00310706
-0.0016303703
-0.0026052755
-0.0016568645
-0.0015975707
-0.0012915005
-2.3211999E-4
0.00278752
0.004942496
0.0045421817
0.002585732
-0.0016665397
-0.0048570493
-0.004007697
-0.0021153258
-7.5224997E-4
8.0308033E-4
0.0013599349
0.0015496584
0.0029325525
0.0021672118
-9.6984586E-4
-0.0017639374
-0.0015059058
-0.0024230473
-0.0019293173
-1.16474206E-4
0.0013006749
0.002867839
0.0026997107
-5.602733E-4
-0.0033747111
-0.0046991045
-0.004579139
-0.0021432026
-0.0010302973
-5.392295E-4
0.0029306628
0.0047494466
0.003480143
0.0029721246
8.7062217E-4
-0.003121904
-0.0034251355
-0.0014048726
-0.0011344405
-2.3724865E-4
0.0020307591
0.004603526
0.0057496107
0.0013866641
-0.00353509
-0.0035582327
-0.0037631956
-0.004232249
-0.0022928012
-5.659405E-4
9.740862E-4
0.003204662
0.004580756
0.003397805
6.583212E-4
-2.5483893E-4
-3.7475114E-4
-0.0014964335
-0.002000334
-0.0016196386
6.948464E-4
0.0039886935
0.003428355
9.263097E-4
2.4500614E-4
-9.3600585E-4
-0.0018753106
-0.0012894827
-0.00156634
-0.0013476508
-1.3810115E-4
3.1114827E-4
0.0012684005
0.001329152
-6.037131E-4
-0.001979431
-0.0027867637
-0.0028024856
-0.0018026035
-8.587349E-4
0.0011152829
0.0034875935
0.0042108768
0.0017387457
-0.0030049938
-0.0041449233
-0.0015689901
-3.626318E-5
4.0405747E-4
7.3630275E-4
0.002266113
0.0035693445
0.0023802223
0.001511494
3.8433904E-4
-0.0016949953
-0.0021148426
-0.0021275955
-0.001312829
7.5940444E-4
0.0013716153
0.0013375115
0.0027064632
0.002935744
-0.0014074036
-0.004737369
-0.003032425
-0.0018634814
-8.760167E-4
3.9967394E-4
-1.5101228E-4
0.0012895125
0.003248758
0.0023682746
5.0729403E-5
-0.0012775518
-1.8109995E-4
-7.778202E-4
-0.001979297
-5.669553E-5
0.0011264955
0.0018628862
0.002676476
0.0019773655
9.6185156E-4
-0.0018653669
-0.0040223836
-0.0026890505
-9.176768E-4
6.435007E-4
0.0011229857
-2.1755575E-4
-8.393714E-5
0.0018115619
0.0012729296
-9.4213925E-4
-5.691892E-4
-5.8477756E-4
-0.0029934347
-0.002587156
0.0015845911
0.0039257817
0.0021397162
9.684634E-4
7.4938894E-4
-8.72821E-4
-0.0010981399
-0.0015726556
-0.0021304814
-2.1747852E-7
0.0015090974
0.002512172
0.0030582666
0.0020747948
2.4088085E-4
-0.0028763835
-0.002777355
-0.001125198
-0.0021516203
-0.0013476561
-1.1770366E-4
0.0012855626
0.004236668
0.0031877987
-3.0253784E-4
-0.002607761
-0.0031334215
-0.0017103774
-0.0012706887
-2.9610563E-4
0.0021320786
0.0034815168
0.0037631071
0.0020255127
-2.837281E-4
-0.0011213376
-0.0020996968
-0.0032209759
-0.0030846347
-0.0015113502
-8.16907E-5
0.0015471037
0.0035982924
0.0027896462
6.1888347E-4
-0.0011900224
-0.003682288
-0.0036227661
-0.0016601695
-5.005803E-4
0.0017077907
0.0037110075
0.0031018008
9.85848E-4
-2.0878484E-4
-4.5102443E-5
-7.22383E-4
-0.0014883284
-6.864395E-4
6.9972925E-4
0.0022342359
0.0029382375
0.002103926
2.6486148E-4
-0.0015705125
-0.0017008358
-0.0016837813
-0.0022457414
-0.0016079805
-0.0018151263
-0.0013955857
0.0018592096
0.0026647819
0.0010609289
6.516953E-4
-2.5415962E-4
-8.5427257E-4
-5.3945894E-4
-0.0010458558
-7.9613895E-4
1.4143022E-4
5.37581E-4
0.001550863
0.0015464153
-3.9601998E-4
-0.0010928465
-0.001345521
-0.002305399
-0.0010970194
6.895812E-4
0.0015003104
0.0025939578
0.0019556382
7.831643E-4
5.8688363E-4
-8.112202E-4
-9.922172E-4
0.0011663942
0.0016261698
-7.8051403E-4
-0.0029494585
-0.001982665
5.6449266E-4
0.0015644807
-2.3816932E-5
-0.0018604767
-0.0015468646
-0.0022960173
-0.0031260333
-0.0010425874
6.9171954E-5
0.0013738142
0.0029967413
0.0014919217
8.421151E-4
4.7376915E-4
-8.2819484E-4
-2.04256E-6
1.1005131E-4
3.9578168E-4
0.0016872346
0.001232257
0.0021811447
0.0032910858
0.0020211027
0.0011319495
8.790965E-5
-0.0012996268
-0.0016587075
-3.5881705E-4
0.0015219278
7.1140163E-4
-7.133715E-4
-3.9485726E-4
-9.2261983E-4
-0.0020221882
-0.0022159927
-0.0021103257
-0.00198874
-0.0016398501
-0.0010274566
2.4653936E-4
0.0013828026
5.8121956E-4
-5.5886485E-4
-0.0019303021
-0.0030392776
-6.8870175E-4
-1.5717503E-4
-0.0017567407
-5.2324132E-5
4.537305E-4
0.0012376648
0.0039731828
0.0034791545
0.0023931365
8.148695E-4
-9.912298E-4
-2.5526164E-4
-7.7030907E-4
-3.3324657E-4
0.0027066513
0.003915212
0.003375107
6.5721886E-4
-0.0025892053
-0.0022052769
-2.7495943E-4
-3.353463E-4
-9.580237E-4
2.4558388E-4
9.425315E-4
2.288138E-4
-1.4111826E-4
-8.5810164E-4
-9.6793333E-4
-0.0010494462
-0.00163907
-9.3207764E-4
-0.0012371112
-8.0608396E-4
0.0016981735
0.0011473538
-2.2241939E-4
-5.176181E-4
-0.0017236053
-8.8891207E-4
4.2843362E-4
-4.740136E-4
-0.0014087663
-0.0013743786
0.0011696699
0.003618537
0.0026300717
0.0020271547
0.0011697608
-4.584973E-4
4.477617E-4
3.13424E-4
-3.5529592E-4
0.0011624095
0.0025691504
0.0028915643
-0.003023208
-0.009746349
-0.005108086
7.883194E-4
1.8317634E-4
-1.3978865E-4
1.5935184E-4
4.2031737E-4
0.0010132175
0.0021527011
0.003400135
0.0016869826
-4.0374472E-4
-8.1286835E-4
-0.0016672107
-0.0017886171
1.6079524E-4
0.0014434927
3.536182E-4
0.0015519424
0.0035979636
0.0012469752
-1.5486928E-4
3.749249E-4
-4.7264513E-4
-0.0011251109
-0.0018973041
-0.0011453441
2.1848074E-4
3.0686287E-4
0.001637538
0.0014020049
-5.8516423E-4
-0.0017044717
-0.002916921
-0.0019449278
-4.8055363E-4
-5.290637E-4
0.0012679006
0.002517305
0.0015935701
8.53957E-4
-0.001114877
-0.0023961142
-1.12695016E-4
6.007174E-5
-0.0027348702
-0.0011001059
0.0019884007
0.0011284425
2.2171272E-4
-1.9026634E-4
-4.6469E-4
5.605817E-4
-9.4818755E-4
-0.0034985992
-0.0022906528
4.970141E-4
0.0032020116
0.005122604
0.0031833893
-1.226246E-4
-4.9690134E-4
-3.200371E-4
-0.0012702171
-0.001552394
-0.0011905978
-7.57569E-4
4.3248016E-4
0.0028559314
0.0036593212
5.560826E-4
-0.0011867345
0.0010769162
0.0013027987
-0.001760081
-0.0026911355
-7.093101E-4
9.757331E-4
0.0018085102
0.0017701514
2.6919934E-4
-0.0018259615
-0.003137858
-0.0022096664
-0.0011371145
-0.001827681
-6.7091966E-4
0.0010632394
0.0011287488
0.0017512336
6.563756E-4
-0.0013295835
-0.0014367219
-0.0013040762
-0.0011257968
-0.003032315
-0.0039456734
1.313248E-4
0.003161857
0.004464093
0.0025247792
-0.0033114234
-0.0026641071
0.0011415135
0.0024855537
0.0052255774
0.0036811696
-2.2608125E-4
2.525123E-5
2.7209704E-5
3.7560408E-4
7.95367E-4
-2.7162067E-4
0.0018756366
0.003970109
0.0015004076
-0.0013384597
-0.0019588305
-0.0010312791
1.9865095E-4
-3.5538315E-4
-0.001955294
-0.0024872122
-0.0034035526
-0.0043564406
-0.0029704731
-0.0014605322
-7.295283E-4
2.8438616E-4
6.1641715E-4
7.948119E-4
9.0642506E-4
5.0699315E-4
-9.4027695E-5
-5.2995054E-4
-1.0299006E-4
3.3668306E-4
0.0018784547
0.004328836
0.003771824
0.00179422
2.796378E-5
-0.0019285574
-0.0017505533
-0.0017114843
-0.002422813
-1.9828606E-4
0.0021192953
0.0025824283
0.0032662137
0.0015715313
-0.002036321
-0.0023081305
-0.0015993104
-0.0025510315
-0.001983275
-7.4637466E-4
7.923236E-4
0.0031806862
0.0028572602
6.768631E-4
-7.845717E-4
-0.0014447772
-0.0014363859
-0.0017680427
-0.0012019275
-2.180202E-4
5.715175E-4
0.0029741572
0.0038421445
0.0024956702
3.9302962E-5
-0.0042133573
-0.0048062885
-0.0021432743
-0.0010337246
8.816422E-4
0.002627034
0.0029624347
0.0037970666
0.0029673325
-6.59894E-4
-0.0038032741
-0.003076902
-0.0014695224
-0.0017687572
3.352811E-4
0.002822942
0.0019037201
0.0015920249
0.0014847729
-3.859696E-4
-0.001959696
-0.003327163
-0.0036077362
-0.0011910564
0.0014847125
0.0022491997
0.002588131
0.0034484835
0.003128605
0.0018880069
3.0253813E-4
-0.0037890717
-0.0062656025
-0.0015167978
0.0029621043
0.0019175243
0.0017536196
0.002252814
6.8364776E-4
-4.7059558E-4
-0.0031157164
-0.006981191
-0.007567626
-0.005189934
-0.0024303223
-0.0012312856
2.2298045E-4
0.0035719327
0.0042580697
0.002068561
0.0023309428
0.0052954797
0.0068588424
0.004986039
0.003314274
0.0054196133
0.007407189
0.005721036
0.0052199685
0.006210525
6.5133465E-4
-0.008254243
-0.011280513
-0.009831099
-0.007048104
-0.0024748133
0.0025604088
0.003202738
-0.0016641167
-0.0064797723
-0.009412756
-0.009354692
-0.006782209
-0.0071050352
-0.0076990714
-0.00514664
-0.0014838456
9.856961E-4
-9.861101E-5
4.804191E-4
0.004903176
0.0077110934
0.008152385
0.006862162
0.0077902027
0.012837639
0.017339488
0.017232949
0.00941696
-7.632415E-6
-0.0068498063
-0.012170135
-0.00913962
-0.0045129033
-0.007184106
-0.006656111
8.2464615E-4
0.008349735
0.010072813
0.0050592627
-0.001591422
-0.005107291
-0.0045386
-0.0048907674
-0.0052096075
-0.0029027378
-0.0048489487
-0.007493252
-0.005969548
-0.005397725
-0.0046165986
-0.0021809016
8.049068E-4
0.0031512324
0.004455822
0.006643353
0.006422453
0.004070722
0.0015877533
-0.0025565736
-0.0029541862
-1.02711405E-4
4.0854295E-4
6.266512E-4
0.0015652502
0.0026604165
0.0023827276
3.5811256E-4
-6.027045E-4
-5.6429725E-4
8.443704E-4
0.0025871801
0.0021364698
0.0012384343
7.7711564E-4
0.0017144462
0.0039012427
0.003425061
9.966132E-4
-8.0123835E-4
-0.0026025712
-0.004996662
-0.0073524863
-0.0065267896
-0.0034027423
-0.0019976723
8.6766214E-4
0.0045285034
0.0035857768
0.0011847978
-2.8839926E-4
-3.1189152E-4
0.0019778993
0.0029419768
0.0037392448
0.004892755
0.0030578966
1.0345616E-4
-0.0038169888
-0.00801258
-0.009284899
-0.0063427603
-6.309403E-4
7.415046E-4
-4.1414224E-4
0.0025776331
0.0064749448
0.011233178
0.0116544515
4.130867E-4
-0.009734451
-0.0104151815
-0.008198183
-0.0052992445
-0.0034926925
-0.0028821798
6.7063083E-4
0.0049554063
0.008054642
0.010369399
0.008759506
0.008073341
0.010940106
0.007910957
-9.792374E-4
-0.010157715
-0.017526655
-0.018468123
-0.012861339
-0.0046515
0.0013128181
0.0034850007
0.0046665557
0.0056575993
0.0063924794
7.263702E-4
-0.00851196
-0.007998627
-0.0041977656
-0.005168301
-0.0054674335
-2.4211308E-4
0.008325834
0.010660492
0.010753707
0.010983826
0.007789469
0.012229271
0.012945158
0.0015935623
5.912467E-4
0.006381715
0.0031938278
-0.0064594722
-0.012295622
-0.008649685
-0.0059152627
-0.0036792625
0.0023719613
0.0026653954
-3.8392626E-4
-0.003605623
-0.009038791
-0.011557124
-0.010242734
-0.0078093084
-0.0038877435
7.3548063E-4
4.3226496E-4
-0.002969786
-0.0041189846
-0.0045681214
7.433034E-4
0.0075891325
0.008314784
0.010755762
0.011486944
0.009591514
0.005603687
-0.008309375
-0.01296487
-0.001737414
0.0017804285
-0.002690167
-0.0028232888
0.004014632
0.010928003
0.009906284
0.0061373496
0.004146248
0.0042998376
0.005168645
-4.4244024E-4
-0.010228224
-0.014683475
-0.011886898
-0.0042278566
0.0042792154
0.007279597
0.0046164016
0.0023298992
-2.8291496E-4
-0.0037967102
-0.004421047
-0.0037783436
0.0010135969
0.008187501
0.0032747225
-0.0069005373
-0.0068378584
-0.006024158
-0.009306612
-0.0070876568
-9.1289345E-4
0.0031146638
0.005484324
0.009263778
0.01221054
0.010339625
0.006382742
-0.0019690378
-0.010586015
-0.0068833726
-4.729148E-4
0.0022648168
0.006296236
0.0060576685
0.007482842
0.0063079153
-0.008409237
-0.014139244
-0.006053063
-0.004502298
-0.00701669
-0.0058154003
-0.0016616414
-1.6645365E-4
-0.002752017
-0.0011719967
0.0026315604
0.00406188
0.005411684
0.0075188843
0.009223182
0.0038968532
-0.004757394
-0.0073909853
-0.008473759
-0.0052790367
0.0013190727
1.5401663E-5
-3.6997758E-4
0.004841198
0.008817501
0.0136443805
0.011448761
0.002657425
0.002575665
0.005165408
4.089934E-4
-0.0077920654
-0.012892119
-0.010285432
-0.006355732
-0.0040321453
0.0038841597
0.010484582
0.0064857905
-6.273865E-4
-0.005228267
-0.009692182
-0.0106548555
-0.007353288
-0.00825355
-0.009906034
-0.0019306919
0.007041419
0.0092610745
0.011885119
0.009941542
0.002171423
0.0035319251
0.005425671
7.0963555E-4
0.0043417327
0.0035649056
-0.006704633
-0.0020806214
0.0028472538
-0.0095065115
-0.01565873
-0.0098524075
-0.004970523
-0.0030643244
-0.005681593
-0.008061906
-0.0072509013
-0.007294011
-0.0042558988
-0.002871264
-0.007987359
-0.0071852724
-8.255765E-4
0.0026421312
0.0044906563
0.005324748
0.0080074575
0.011993671
0.011603473
0.006384506
8.8192493E-4
-1.0779324E-4
-3.4114262E-4
-0.003660012
-0.010131787
-0.016110836
-0.012902479
-0.009762073
-0.010595632
-0.0024386884
0.009701323
0.024439845
0.040757496
0.04747755
0.047222614
0.039313793
0.031760193
0.036162302
0.037974615
0.0289206
0.008524015
-0.017176444
-0.0332304
-0.043938838
-0.048839822
-0.044225182
-0.0410685
-0.03576735
-0.02478012
-0.023046719
-0.03466449
-0.04118255
-0.034676816
-0.029123295
-0.028535431
-0.02844829
-0.02547169
-0.016519604
-0.002235651
0.022665218
0.05100881
0.06584435
0.06614687
0.060940005
0.063771434
0.07406143
0.08553163
0.092026375
0.072185196
0.036126398
0.0041321423
-0.028755646
-0.04904813
-0.051012672
-0.04403594
-0.045061313
-0.08008185
-0.11962236
-0.12526512
-0.103599176
-0.06679657
-0.033393938
0.004890331
0.06683842
0.12270391
0.14292185
0.12433665
0.07534
0.022903677
-0.008525811
-0.034665063
-0.073026195
-0.09546784
-0.090076156
-0.062175903
-0.015549621
0.012829507
0.016149651
0.025336111
0.06453072
0.11482039
0.10923574
0.06411656
0.018432759
-0.048895396
-0.1115517
-0.15872021
-0.18031783
-0.13463889
-0.05388815
0.026854593
0.07538575
0.083196275
0.11975567
0.18729925
0.24539688
0.25575808
0.1884815
0.11339893
0.043064028
-0.08830659
-0.24033166
-0.33944207
-0.36106476
-0.2999499
-0.16531909
-0.0037096152
0.11221663
0.15390041
0.1320525
0.091781616
0.07930198
0.04201785
-0.06516695
-0.16141814
-0.15556757
-0.063019365
0.0096573
0.023387603
0.055879496
0.09352301
0.06865005
0.044997267
0.07000185
0.10883246
0.12877002
0.09878122
0.06334544
0.053447142
0.035550777
0.025197465
-0.0149859935
-0.08954235
-0.11173927
-0.10652145
-0.08864373
-0.043961074
-0.026150182
-0.028815068
-0.030779948
-0.0115217175
0.03289423
0.035230063
0.0077138003
-7.333186E-4
0.008862172
0.030401373
0.029440176
9.934075E-6
-0.041771725
-0.07706347
-0.06355006
-0.03000978
-0.02119502
-0.018930977
-0.007980506
0.010323115
0.024534473
0.03144556
0.033506416
0.025260117
0.01748612
0.014158713
0.010932285
0.007985027
5.8718026E-4
-0.0038412865
0.0014348645
0.010486529
0.0174215
0.021505395
0.027763074
0.030953009
0.0209691
0.007708733
0.008860311
0.013005444
0.0010526293
-0.010225289
-0.010995105
-0.017016746
-0.02736467
-0.033026893
-0.031093825
-0.025572477
-0.023120355
-0.01823052
-0.007011226
0.006250016
0.014933369
0.012966891
0.00681099
0.005702881
0.008610587
0.009943648
0.008043464
0.009089854
0.01483859
0.018356234
0.016459374
0.01133696
0.005000978
-0.0010483538
-0.0035580103
-9.520554E-4
0.0033015464
0.0036376293
-0.0020962008
-0.0073738694
-0.008414552
-0.016000984
-0.030455675
-0.03030257
-0.012408007
0.0021125358
0.006118545
0.009038298
0.014913561
0.012545854
6.734176E-4
-0.0024098319
-0.001810226
-0.004993223
0.0020140347
0.0076777
8.758348E-4
-0.0041092373
-0.0043732533
-3.6724412E-6
0.006571356
0.0063432767
0.002339217
-0.0018894961
-0.005789263
-0.0069945706
-0.005417131
8.324663E-4
0.009392983
0.014278777
0.012764653
0.005830705
0.001127752
8.9684164E-4
-7.2781E-4
-0.002330209
-0.003224342
-0.0059336433
-0.0025159875
0.00877832
0.0120398
0.0012789929
-0.00760202
-0.004143459
4.7205578E-4
-0.0016524583
-0.0027930252
-1.5795135E-4
0.0018482906
9.3395717E-4
-0.0039023794
-0.012908736
-0.02117298
-0.019867731
-0.013408579
-0.009233841
-0.0035906197
1.4532018E-4
0.0027010893
0.009016583
0.01033131
0.005793853
4.912704E-4
-0.0030375042
-0.0010004396
0.0013424881
0.0032777446
0.005973822
0.007400545
0.012666825
0.013996215
0.0054027634
-0.0017624154
-0.0043691997
-0.002627152
0.0011039008
0.001960149
0.004501569
0.008484372
0.010730937
0.011123296
0.0053676623
-0.0030262938
-0.006742824
-0.008362208
-0.010249471
-0.010814786
-0.009833055
-0.005630906
5.390891E-4
0.0012433301
-0.0034057414
-0.0062265173
-0.0063295397
-0.004713004
-0.00154783
6.66552E-4
0.0022465964
0.0052670464
0.0082319975
0.007115582
0.0014361509
-0.0027638033
-0.0026227946
-0.0024279747
-0.0030218754
-0.0017505595
0.0018883275
0.007458313
0.010879416
0.008622223
0.0032319454
-0.0029271904
-0.006922184
-0.0068079694
-0.0048824144
-0.0017820008
7.667225E-4
0.002400874
0.0055893464
0.006066984
0.0016210438
-0.0030195704
-0.0055164467
-0.004624055
-0.0024916627
-0.0029952507
-0.0016236426
0.0047594234
0.008715575
0.0062732846
0.0013391919
-0.0039899326
-0.007475373
-0.007146509
-0.0051444485
-0.0027352846
-3.880529E-4
0.0027095273
0.0066609303
0.0067476183
0.0027207204
-0.0017362742
-0.004072168
-0.0025432792
-0.0020380586
-0.0033660964
-6.409757E-4
0.0037453726
0.006597566
0.006834258
0.0023719037
-0.0025795342
-0.00437515
-0.00368588
-0.0022944093
-0.0016385122
0.0012866884
0.00494554
0.005385057
0.004976829
0.0014332251
-0.0051677898
-0.006508706
-0.004419452
-0.0050032875
-0.004734634
-4.0488236E-4
0.0049057407
0.008271335
0.0072343824
0.0017256448
-0.0013646022
-0.0038854098
-0.011957965
-0.011928576
-3.571914E-4
0.00479686
0.005119872
0.008270475
0.007940463
0.0038480484
-8.436997E-4
-0.0044358484
-0.0051096273
-0.0051497193
-0.004120951
-7.978525E-4
0.0032290493
0.0071227374
0.0070676114
0.0018780475
-0.0026779529
-0.0043345555
-0.005108267
-0.0049539083
-0.003976055
-0.0029976862
-4.0962404E-4
0.0032617173
0.004880086
0.003611043
-4.8701786E-6
-0.0023479601
-0.0016654244
-0.0017597002
-0.0020567
-4.9593474E-4
0.003162756
0.008215159
0.007868566
0.002320861
-9.3979086E-4
-0.0030254656
-0.004321481
-0.002415412
-1.5540345E-4
8.5865264E-4
0.0021559
0.0041489163
0.0044647725
0.0025363453
3.0818177E-4
-0.0023765957
-0.0028393234
-0.0014595074
-0.0032189258
-0.004047904
-0.0012772513
8.141428E-4
0.0015688151
2.4166483E-4
-0.0022045893
-0.0031637335
-0.0044549904
-0.004572106
-0.0014430875
5.952089E-4
0.0018401451
0.005221045
0.0060749794
0.002549048
-0.0012440563
-0.0031336988
-0.0021970654
-0.0018685723
-0.0034914443
-0.0022260107
6.15129E-4
0.004179325
0.0074809473
0.0047589075
6.156366E-4
-8.142583E-4
-0.0023771473
-0.0020742428
-2.1236984E-4
0.0012494405
0.0024984844
0.003906295
0.004498757
0.00140295
-0.0013585775
-0.0017701723
-0.0033782334
-0.003892339
-0.0040296717
-0.0047525666
-0.0019211062
0.003727747
0.006422825
0.0033544456
-4.4304947E-4
-0.0037588086
-0.0043794783
4.8401317E-4
-0.003744693
-0.010828257
-0.001568226
0.0077757277
0.007967804
0.0065912367
0.0017717856
-0.0019166888
-0.0020055377
-0.0010082246
-1.6330432E-5
-1.6694571E-4
0.001469793
0.0036927063
0.00441342
0.002200714
-7.4285046E-5
-0.0012622394
-0.010311577
-0.010887042
0.0016060444
-0.0019670695
-0.006477059
0.0038781422
0.0067820316
0.003804751
0.0011901965
-0.0018789289
-0.0017060296
-0.0027974027
-0.002524894
-7.5981894E-4
-8.208512E-5
0.004273886
0.0060634483
0.0023580447
-2.0417008E-4
-0.0011552866
-0.0018863995
-0.0016797892
-1.121562E-4
-1.7916266E-4
-1.6878043E-4
0.00329285
0.0046768957
0.0030941826
0.001277474
-0.0010743524
-0.0021259447
-0.00215268
-0.0019663838
-0.0016494361
-3.7147457E-4
0.002664187
0.0033474797
5.6550617E-4
-0.0033570547
-0.005776855
-0.0036827042
-7.248138E-4
-5.945412E-4
-0.0014571109
-5.436907E-4
0.0021527014
0.0030506472
0.0027102903
0.0018795338
-5.281919E-4
-0.0015029992
-0.002141199
-0.0028083688
-0.0012452397
1.5884552E-4
0.0026434965
0.003850712
5.819108E-4
-4.0772487E-5
-8.67708E-5
-0.003258049
-0.0018715668
0.001216245
4.5289626E-4
7.8316836E-4
0.0027415827
0.003074366
0.0014752771
2.3670532E-4
6.971978E-4
-2.8522688E-4
-0.0015992683
-0.0013410007
-0.0015415867
5.778552E-4
0.0031361545
0.0017531031
8.661399E-4
-1.8317498E-5
-0.002143281
-0.0016906807
-0.0014434872
-0.002217613
-0.0012454671
-2.105084E-4
0.0011883476
0.0031599156
0.0025721253
-2.9974975E-4
-0.0016146079
-0.0013674657
-0.0026250775
-0.0039942614
-0.0023659612
5.971853E-4
0.001486185
8.738402E-4
0.0011983684
9.5780013E-4
-1.6669683E-4
2.633808E-4
3.9838115E-4
-8.213135E-4
-8.0899074E-4
0.0010345312
0.0029070338
0.003055537
0.0020010476
3.7331766E-4
-0.0019570335
-0.0037803703
-0.0033890223
-0.001199227
-7.9916616E-4
-4.231883E-4
0.0028575177
0.0031479953
8.554352E-4
5.4434968E-5
-0.0015778844
-0.0022067842
-0.00127231
4.3371E-4
0.0022012217
3.2964512E-4
-5.648321E-4
7.6307415E-4
0.0010507485
0.0029892288
0.0030860382
7.125255E-4
6.622179E-5
0.0015134312
0.0012308506
-0.004809291
-0.0030898638
0.00474434
0.0017936584
0.0011152728
0.001565779
-0.006769451
-0.009849988
-0.00803834
3.7009298E-4
0.009410321
0.0022928643
-0.0032477982
-0.003096873
-0.0052723186
9.134167E-4
0.0043797195
0.0010966585
0.0018935485
0.001518707
9.08739E-4
0.0020964148
0.0022312712
0.0018325122
5.932275E-4
1.2548464E-4
-0.0013234669
-0.0021511503
3.240844E-4
6.174428E-4
2.4096922E-4
0.00152425
0.0014133732
2.621694E-4
-0.0013628599
-0.0017327118
-0.0011141282
-0.0017607663
-0.002134299
-0.001269759
-2.3599522E-4
-2.914463E-4
-2.825565E-4
4.9465604E-4
-6.61821E-5
-2.9799665E-4
1.739699E-4
-0.001066286
-0.0011336684
9.4088266E-4
0.0011139425
6.466255E-5
0.001021511
0.00212689
0.0017590885
0.0018448607
0.002746452
0.0024896115
2.3755695E-4
-1.2115968E-4
0.0012879669
-7.9461955E-4
-0.0015216591
7.7174883E-4
-9.988522E-4
-0.002934869
-0.001904862
-0.001396943
-9.4241666E-4
-0.0011138011
-9.3514554E-4
6.452224E-4
0.0012376462
0.0011627502
2.5158573E-5
-0.0018099094
-0.0012989813
-3.244664E-4
-0.0012523183
-8.6600153E-4
0.001121427
8.6592924E-4
-7.204484E-5
4.5434292E-4
4.517069E-5
-0.0011428656
-0.0016114189
-0.0013629729
-9.504853E-4
-9.6069195E-4
-5.5126464E-5
0.0019150688
0.0034109764
0.002921455
5.3477346E-4
-1.4516017E-4
7.116068E-4
7.5744034E-4
7.08617E-4
-5.524176E-4
-0.0016034368
4.840207E-5
0.0016640221
0.0020306332
0.0013730851
-8.3029E-4
-0.0025676938
-0.0017076579
5.706069E-4
0.0016464776
0.0022860693
0.0029799242
0.001247826
-4.6353662E-4
2.563661E-4
6.6467247E-4
9.049709E-4
3.6683025E-5
-0.0029108096
-0.003335794
-0.0022599006
-0.0011755909
0.0016127012
9.5617474E-4
-0.0013240322
-0.0016573755
-0.002686823
2.1264065E-4
-9.1900193E-4
-0.0077769007
-4.5160236E-4
0.006165489
-0.0013395372
-0.001572796
-9.0502936E-4
-0.005529824
-0.0017164709
0.0027072579
0.0033497682
0.0037241979
0.0028877503
0.0045989305
0.004921352
0.0021551892
1.1306631E-5
-0.0019435066
-0.0012044115
-5.889056E-4
-0.0013503188
-1.9170607E-4
-6.2025205E-4
2.5308752E-4
0.0031508522
0.0015599454
2.0376268E-4
9.956929E-4
-0.0010081395
-0.0028117574
-0.002514266
-0.0020853316
-5.372842E-4
0.0017001093
0.001896769
6.2997063E-4
-1.5112283E-4
-0.0012831282
-0.0026790635
-0.0025242392
-8.1066653E-4
4.0960292E-4
5.3967896E-4
0.0019167265
0.003040142
0.0018866236
0.0013043408
1.7329825E-4
-0.0016897691
-0.0019868286
-0.0036161302
-0.0041066916
-0.0012390733
1.8930968E-4
0.0023347787
0.0046423418
0.0021229188
2.5726695E-4
4.2201605E-4
-0.0027015952
-0.005036388
-0.0033909488
-0.0015967849
7.596401E-4
0.0039371587
0.0041316357
0.0022738616
8.708549E-4
-2.067143E-4
-4.7246227E-4
-6.404391E-4
-8.679271E-4
3.5379108E-4
0.0017761027
0.0029681092
0.004242968
0.0018998276
-0.0028519966
-0.0034658758
-0.001992602
-0.0018090942
-2.3971459E-4
5.797354E-4
0.0010924838
0.004112569
0.0032315932
-7.4615097E-4
-0.0011483461
-0.0012598328
-0.0026518512
-0.0029040417
-0.0023461091
-8.9350477E-4
0.0010581377
0.0022473794
0.0017990399
2.0714739E-4
-0.0014144365
-0.003404812
-0.004403466
-0.0028038723
-0.0014270879
-0.0016158611
-1.8292542E-4
0.0017950074
0.0013577976
3.1709118E-4
-9.326183E-4
-0.0014335108
3.0489214E-4
9.036147E-4
6.578451E-4
0.0015873025
0.0025449893
0.004008239
0.005037435
0.004320003
0.0016952361
-0.001597612
-0.0013966906
0.0016031794
0.0029071886
0.0017729257
0.001969021
0.004179995
0.0027649608
1.1000969E-4
-0.0014867436
-0.0063559017
-0.0066256337
-0.0037688706
-0.009017661
-0.0090136025
2.4237488E-4
0.0029486334
0.0033023318
0.003673709
-0.0015548202
-0.0017155537
-5.986333E-4
-0.007655737
-0.006238364
0.0026339157
0.0028951871
0.0028424894
0.0051066503
0.0037059304
0.002649457
0.0010694179
8.985769E-5
0.0014504686
0.0011977495
0.0017670423
0.0031262618
0.003419602
0.003887377
0.0013006739
-0.0024472326
-0.003633326
-0.004168356
-0.0033937064
-0.0018384916
-0.0012451569
-5.115387E-4
0.0012463205
0.0032259112
0.002038396
-0.0011152407
-0.0026121468
-0.0036180303
-0.0026962154
-9.2255475E-4
-0.0017449175
-0.001085445
0.0015014273
0.0029227228
0.0028705117
2.525684E-4
-0.0013239592
-2.724987E-4
-8.434445E-5
2.636183E-4
9.710271E-4
0.0015731552
0.0028225095
0.0033460155
0.002094749
-0.0011789487
-0.0020295274
6.9906097E-4
8.471959E-4
5.1946714E-5
-8.8952525E-5
-0.0013497139
-4.6607232E-4
0.0011108143
0.0014010209
2.0277032E-4
-0.0036967865
-0.0049400544
-0.0036309203
-0.0038718407
-0.0022289613
8.692912E-4
0.0026174805
0.0031054968
0.0017086101
-5.1158667E-4
-0.0017141547
-0.001194024
-4.3581653E-4
-6.643235E-4
-3.8144912E-4
0.0011535633
0.0038455045
0.0049813725
0.0021686538
-0.0010829109
-0.0017295665
-0.0011083817
-0.0016611946
-0.0018890386
4.7594705E-4
0.0021122687
0.002575218
0.0036109434
0.0023056252
-8.7791623E-4
-0.0017021168
-1.2758942E-4
-3.914054E-4
-0.0027291917
-0.0024701762
3.987669E-5
0.0020152784
0.0031006034
0.002119673
-0.0012917805
-0.004739408
-0.0052266815
-0.003387097
-0.0010376142
0.0010126133
0.0011874277
0.0022299844
0.00424945
0.001998392
-0.0021446247
-0.0040023886
-0.003217642
-0.0011576485
-6.33015E-4
1.7057169E-4
0.0023430504
0.00479938
0.0069824625
0.0052340045
0.0012528156
-0.0012440918
-0.002983667
-0.0032089197
-0.003368647
-0.0031934185
-4.553529E-4
0.001473835
0.0022444264
0.0025466385
8.321574E-4
-5.6839635E-5
-7.627162E-4
-0.0033216376
-0.003772812
-0.0023717356
-0.0012877189
0.0017207275
0.0046354625
0.0032995737
-0.0011343458
-0.003761087
-0.0020457937
-4.1143535E-4
-3.12226E-4
7.626656E-4
0.0010297855
0.001836209
0.0032957785
0.0025591254
0.0012727341
-0.0011672912
-0.0014753641
0.0010418689
-0.0017793493
-0.00379914
1.7322485E-4
0.0028268003
0.004685164
0.0037036985
-0.0017610717
-0.004143442
-0.0042842194
-0.0049558515
-0.0032798029
-5.998446E-4
0.001376912
0.0034135648
0.003935098
0.002742142
0.0015416498
-0.0014999155
-0.004178951
-0.0021398545
-6.014979E-5
-5.9326243E-4
-6.148602E-4
0.0014525041
0.0038258384
0.002227198
-2.4332135E-4
-0.0010407069
-0.0027311633
-0.0026646743
-0.0019763163
-4.776809E-4
0.0033934764
0.003785977
0.0044551566
0.0060977107
0.0014837096
-0.0012807925
6.352749E-4
-7.45387E-4
-0.003131417