7.926977E-4
0.0012166979
0.001648539
8.1435934E-4
9.058534E-4
0.0018529994
0.0013208283
-8.6271024E-4
-0.0030882577
-0.0032222203
-0.0026403237
-0.003108049
-0.002253709
-6.875778E-4
-4.5443472E-4
3.191636E-4
4.8607503E-4
-8.5652765E-4
-0.0016540559
-0.0024447513
-0.0016612614
-5.526637E-5
-5.3607736E-4
4.419695E-4
0.002666482
0.002924896
0.0019694588
3.0950631E-4
-4.1442976E-4
-5.1260646E-4
-5.9155974E-4
1.7502683E-4
3.4135426E-4
8.012391E-4
0.001402765
7.9989206E-4
8.925649E-4
9.0938905E-4
-2.0136007E-5
-4.584758E-4
-3.2209596E-4
-8.476629E-4
-0.0020638832
-0.0010595652
0.0016002161
0.0031087887
0.0031156987
9.5202343E-4
-0.0012408658
-0.0013595892
-4.049405E-4
8.63837E-5
-8.6745113E-4
-3.4539457E-4
0.0011193624
7.083623E-4
1.5479745E-5
-0.0011499157
-8.714942E-4
3.999165E-4
-6.164885E-4
-0.0013392994
-0.0035216212
-0.0038365384
0.0013441528
0.0014365381
-7.8236574E-4
3.0090602E-4
-0.0014206073
-0.0013003655
9.3172985E-4
6.349932E-4
0.001973993
0.002619697
0.0012851434
0.0013144424
9.337762E-4
1.5813594E-4
-3.829809E-4
-4.6923908E-4
5.787258E-4
3.5711582E-4
-6.935921E-4
-1.430364E-4
1.6116061E-4
-5.905276E-4
1.07359156E-4
6.075404E-4
-0.0013748027
-0.00283488
-0.0036854981
-0.0044856216
-0.0026439454
1.8554147E-4
0.001964683
0.0025468185
0.0022045125
0.001499945
-8.917865E-4
-0.0015504948
0.0014037392
0.0027669913
0.0025348852
0.0019085571
9.852612E-4
0.0018138145
0.0022476532
0.001269053
2.9450293E-5
-0.0012235531
-0.0015541039
-0.0020868108
-0.0015625827
0.0012358679
0.0017633927
-8.9412346E-4
-0.0025338945
-0.0020333638
-0.001961592
-0.0024444808
-0.0016877521
-0.0013277609
-0.0017542101
-0.0013028516
-2.1016432E-4
0.0014597856
0.0022634205
6.519593E-4
-2.6254685E-4
0.0013081704
0.0012639684
-5.945058E-5
0.0013577926
0.0020659035
0.0018147622
0.003237601
0.0016259623
-9.785175E-4
-9.573573E-4
-0.0018846374
-0.0020373124
-5.5024226E-4
-9.346381E-5
-8.58455E-4
-0.0019354371
-6.123945E-4
0.0012023214
9.810146E-4
7.744439E-4
-3.7539878E-4
-0.0013102568
-4.7398792E-4
-1.2681694E-4
0.0011939807
0.0027985573
0.0016321938
-6.687673E-6
-5.238909E-4
-9.4891945E-4
-0.001136355
-0.0011275422
-0.0014963606
-0.0015866744
-5.89128E-4
6.7439E-4
0.0011025168
8.1540947E-4
1.3087256E-4
-0.0019436165
-0.003924661
-0.0024462512
-2.4570187E-5
8.771253E-4
0.0019722027
0.0023307828
0.0017877715
0.0014709717
0.0010869917
0.0012543569
0.0010565487
1.7368955E-4
2.9644143E-4
6.8256195E-4
6.313953E-4
0.0010190381
0.0015906736
0.001282608
6.1433093E-4
-5.140654E-4
-0.0030016883
-0.0029239473
-1.9293265E-4
-5.0356577E-4
-0.0011593791
6.413614E-5
-5.371599E-4
-0.0010169493
-5.813932E-4
-0.0012739145
-7.320503E-4
5.8516173E-4
-4.6706662E-4
-0.0018708485
-0.0010441421
4.7286597E-4
0.0011478949
9.731447E-4
5.7847257E-4
4.982246E-4
-5.145015E-4
-0.0015130991
-5.214708E-4
6.5678055E-4
0.0013801574
0.0019870715
0.0022696224
0.0016934397
-7.62296E-4
-6.362733E-4
0.0013506819
-7.83734E-4
-0.0015001128
-1.7817612E-4
-0.001508467
3.0583318E-4
0.0032749283
0.0019773548
6.0566067E-4
-2.5251717E-4
-0.0011049549
-9.545553E-4
-0.0010692698
-6.7900604E-4
3.8353523E-4
0.0012211114
0.0012100269
1.7125503E-4
-5.4460176E-4
-9.422066E-4
-7.541526E-4
-0.0014772855
-0.0039481516
-0.0025064328
6.575984E-4
4.0067764E-4
0.0013048775
0.0014758074
-9.7341335E-4
-9.930239E-4
-0.0012373357
-0.0016856411
3.2709035E-4
0.0017027886
0.0029171957
0.0023031814
-5.812313E-4
2.841898E-4
0.002339564
4.134202E-4
-0.0021771018
-0.0013110345
7.387355E-4
3.4421543E-4
6.2160037E-4
0.002541424
0.0026479266
0.0014347915
-3.4048953E-4
-0.0017706788
-0.0024492186
-0.0024248234
-6.095293E-4
1.6650998E-5
-2.9381033E-4
3.303808E-4
-6.605798E-4
-8.418216E-4
3.341072E-4
-2.7001699E-5
-0.0010039819
-0.0022002577
-0.0010764637
0.001517761
0.0012364255
4.8806317E-4
6.136354E-5
-3.2278642E-4
9.2444476E-4
7.424132E-4
-0.0010901815
-0.001378908
-3.811446E-5
0.0016405802
0.0024836264
0.0026082087
0.0018096159
6.799122E-4
4.2843955E-4
-5.7050335E-4
-0.0014081082
-8.8332244E-4
-9.6214813E-4
-5.532787E-4
4.7519823E-4
3.4607833E-4
3.4725014E-4
3.7677345E-4
-9.375373E-4
-0.0026840367
-0.0033431877
-0.002451132
-9.270812E-4
2.0967492E-4
7.428325E-4
0.0013743665
0.0013790587
-6.6670624E-4
-0.0016721269
-7.5703685E-4
-0.0011451797
-7.9227146E-4
5.058284E-4
5.2099876E-5
6.819538E-4
0.0023421245
0.0026529366
0.0027184943
0.0013707847
-4.730565E-4
-2.689876E-4
-5.1611586E-4
-5.153007E-4
0.0016756565
0.0026306845
0.0022315606
0.0021627552
0.0012761372
-8.006187E-5
-0.0010780757
-0.0010450796
-8.40225E-4
-0.0010444662
2.282524E-4
-2.2374275E-4
-0.0027168037
-0.001693688
-3.7982955E-4
-7.112214E-4
1.2581995E-5
-0.0019163502
-0.004492768
-0.0023214999
5.829897E-4
0.0014649008
0.0018857932
0.0015710623
0.0010584716
3.9448717E-4
-0.0010651521
-0.0018820489
-0.0023548529
-0.0020715883
5.720463E-4
0.0018357212
0.0011921624
0.002408638
0.0033069055
0.0017446269
-9.0208737E-4
-0.002195052
-0.0011502285
-2.5162497E-4
0.0011884758
0.0026161862
9.240565E-4
-1.847364E-4
8.8891777E-4
4.284277E-4
-7.8117254E-4
-9.317481E-4
-0.0017747097
-0.0023417608
-1.1530061E-4
0.0013221867
8.706159E-4
0.0012332198
3.86158E-4
-7.2374125E-4
-0.0010311953
-0.0019070447
-0.0011227798
-2.1831105E-4
5.1698706E-4
0.0028252692
0.0031814615
0.0018811551
5.82401E-4
-7.1103015E-4
-0.0011959114
-0.0020666139
-0.0014488371
3.4757226E-4
-1.2379028E-5
7.626763E-5
0.0011823243
0.0010940379
0.0010098808
0.001140882
-2.341609E-4
-0.0025348347
-0.0027307768
-9.995861E-4
-6.455438E-5
-1.8628706E-4
4.414536E-4
0.0022507946
0.0019877923
4.0163864E-5
-2.4820204E-4
-0.0013655418
-0.0037234162
-0.0035723092
-0.0015767334
6.802068E-5
0.001464014
0.002593046
0.0021164427
6.3315727E-4
-8.887497E-5
-0.0016929625
-0.0030247436
-8.577971E-4
5.66743E-4
-4.3548152E-4
4.1584927E-4
0.0018669568
0.0028966197
0.003374445
0.0013463893
5.3906074E-4
5.85011E-4
-4.5478693E-4
0.0014512686
0.0018740101
-2.1584598E-4
3.4159102E-4
-4.4174824E-4
-0.0010144396
8.459514E-5
-0.0013932827
-0.0011057435
3.0683647E-4
5.0313072E-5
0.0017940565
0.0019156658
-6.9905154E-4
-9.223883E-4
-3.559923E-5
8.249404E-5
-7.320674E-4
-0.0026440453
-0.002898246
-0.0017242267
-0.0016296423
-0.0014723715
-4.710933E-4
7.807296E-4
5.42666E-4
-0.001228923
-6.230966E-4
8.243047E-4
0.0017790716
0.0027135315
3.1708958E-4
4.9381726E-4
5.511545E-4
-0.007991949
-0.008571505
8.8475714E-4
0.0041716564
0.00495151
0.0044944384
0.0024408626
0.0023992045
5.044714E-5
-2.9868764E-4
0.0016298519
-6.37669E-4
-0.0015692227
-7.697679E-5
-9.311184E-6
-5.2282185E-4
-2.7691448E-4
0.0013925317
0.0017495839
0.0012029395
0.0015591901
2.5970777E-4
-0.0012252871
-0.0011580515
-7.058515E-4
-3.3255936E-5
1.3419647E-4
4.6084338E-4
3.6166198E-4
-6.7707116E-4
-7.949666E-5
5.8546048E-5
-0.0017285038
-0.0023593532
-0.0021510017
-9.14767E-4
8.933647E-4
1.5472912E-4
-4.716134E-4
5.6729926E-4
2.0930015E-4
-3.9963366E-4
-8.135081E-4
-0.0021222301
-0.0016086925
2.654847E-4
3.2174063E-4
2.1898253E-4
0.001418399
0.0017711392
9.956681E-4
5.12256E-4
2.497442E-4
-1.06495216E-4
1.1905039E-4
9.417491E-4
0.0012690186
0.0013985989
0.0017040137
0.001761734
0.0021952477
0.0013077416
-0.0011428784
-0.0016377697
-0.0013212654
-0.0012831261
-0.0017171801
-0.0036172806
-0.0015146759
0.0029651413
0.0025266276
1.9754737E-4
-0.0021657485
-0.0031610695
-5.933236E-4
-1.5817668E-5
-8.0939714E-4
6.2388513E-4
7.486638E-4
-1.313647E-4
2.585761E-4
9.211032E-4
5.461283E-5
-0.0016252202
-6.249113E-4
7.207529E-4
2.709495E-4
0.0011383913
0.0012951002
2.145929E-4
6.3103304E-4
-6.646064E-5
-0.0011795704
-3.3508328E-4
-1.891935E-4
-2.5279215E-4
3.2734557E-4
-2.4076363E-4
3.0718857E-5
0.0019702646
0.00223472
9.996974E-4
0.0011151611
9.941051E-4
-0.0010546135
-0.0024540029
-0.0027996209
-0.0018174407
0.0012650703
0.0023740286
0.0014856339
9.3985006E-4
-0.0010779079
-0.0020930262
-0.0011433912
-0.0011256925
-3.3212607E-4
0.0011752744
0.0013258578
8.2447036E-4
6.8196165E-4
5.787917E-4
-3.613463E-4
1.13344075E-4
4.4548442E-4
-0.0024301978
-0.0020600583
0.0010200104
1.821945E-4
-3.5356986E-4
0.0012610807
0.0018266774
7.3216454E-4
-0.0014711686
-0.0016322166
-3.9228465E-4
3.16627E-4
0.001065713
-1.282826E-4
-7.071817E-4
0.0010217213
5.8598607E-4
-4.436717E-4
-2.2681899E-4
-5.6812714E-4
-3.3740263E-4
5.75972E-4
0.0012252799
0.0013967322
0.0020036101
0.003360215
0.0026702422
5.853923E-4
-5.379078E-4
-0.0014079101
-0.0021795307
-0.003171436
-0.0030796558
-0.0016157405
-0.0020479767
-0.0026028093
-0.0014377506
-8.1571884E-4
-8.2470616E-4
-0.0011808311
-7.1277434E-5
0.0021544409
0.001452736
2.0839936E-4
9.0745394E-4
0.0010888248
6.138793E-4
-1.6488606E-4
-0.0012468987
-0.0014263977
2.298709E-4
0.0031172973
0.0049954634
0.0045115077
0.0028424002
0.0026958731
0.0021581578
-7.7031844E-4
-0.001869892
-0.002891089
-0.0049270536
-0.0035372437
-0.002191755
-0.0015451642
3.8180212E-4
0.0010292049
5.936227E-4
-0.0019026136
-0.0031038574
-7.170375E-4
4.105858E-4
0.0023773215
0.0039977543
0.0027077596
0.0025318256
0.002925895
0.0033899676
0.0022733351
4.588739E-4
-7.202847E-4
-0.0028775993
0.0015730774
8.4722904E-4
-0.012433367
-0.009476885
0.002669753
0.0019364945
0.0012824713
5.1610557E-5
-0.0037663353
-0.00179485
4.8629456E-4
0.002186874
0.0036150382
0.0027496987
0.0022472905
0.0015039924
4.4529134E-4
-0.0013777156
-0.002315402
-0.0013722675
-0.0019905895
1.3354573E-4
0.0040686927
0.0037470905
0.003071801
0.0018841336
-4.0298293E-4
-6.912452E-4
-0.0017260492
-0.0027219974
-0.002311434
-0.002999637
-0.0035567451
-0.0030021635
-0.0017692293
-5.1473244E-4
-9.804269E-4
-0.0026424974
-0.0030218912
6.017116E-4
0.0061305994
0.008278891
0.008366924
0.008046091
0.0054452806
0.0019700413
-7.478002E-4
-0.0018335736
-8.822301E-4
2.135682E-4
0.0010760904
0.0012324378
-0.0010485766
-0.0043301745
-0.006309929
-0.0070368596
-0.006108625
-0.004084419
-0.005107798
-0.0074248775
-0.0044141877
-4.722924E-4
-0.0017513062
-0.0025752939
8.289091E-4
0.003059005
0.0016412535
0.0014431186
0.0014347162
-0.0019220271
-0.0015557585
0.0025275557
0.0035230382
0.0056627723
0.009889817
0.012901522
0.014286871
0.011253326
0.0063547865
0.00195673
-0.001892619
-2.4456135E-4
0.0011627703
-0.0061937184
-0.013115338
-0.011446622
-0.008084562
-0.007190533
-0.004510227
-0.0032752787
-0.0053659948
-0.0028539374
3.8970017E-4
-9.0729626E-4
2.6420756E-5
0.0020914085
0.0017827129
6.522426E-4
-9.0541405E-4
-5.437949E-5
0.002154196
0.0025302737
0.0023597023
0.0021402272
0.0024965678
0.0032003962
0.0028375993
0.002063205
0.0032902337
0.0054810066
0.0026896258
-1.1421814E-4
0.0026666904
0.0017683302
-0.0018190999
-0.0025879499
-0.00437649
-0.0048008803
-0.004383598
-0.005386483
-0.0042083743
-0.0029224623
-0.0022449573
-6.803213E-4
0.0011785718
0.0027932082
7.70021E-4
-0.0016080184
-5.741473E-4
-3.449425E-4
4.2674776E-5
0.0015020805
0.0023716805
0.0033957395
0.0029681067
0.0018454188
8.5504533E-4
-0.0010680191
-0.0015497087
-0.0012957042
-0.002551354
-0.002151348
0.0018450005
0.0041889455
0.0024010832
0.0022576922
0.0039056726
0.0028789581
-7.642574E-4
-0.0050858352
-0.0063834097
-0.005353224
-0.0046269177
-0.0022021723
2.6473796E-4
9.1046235E-4
8.295416E-4
6.9475337E-4
5.998488E-4
2.7141717E-4
0.003399364
0.006791542
0.0049670083
0.004186314
0.0041491394
0.001973927
0.0015099902
0.0011102585
-3.7630592E-4
-0.0022931565
-0.0038094555
-0.0038523197
-0.0027172011
0.0012436624
0.0026461615
-1.4392297E-4
2.3490048E-4
0.0010680011
6.4649194E-4
0.0012415586
0.0012670831
0.0010995643
-9.7290624E-4
-0.0046063354
-0.0069061695
-0.007943803
-0.009660952
-0.013242031
-0.012521447
-0.0060520526
5.9844E-4
0.0056768153
0.0062800306
0.0047443504
0.0040732315
4.5358267E-4
-0.00434003
-0.005274274
-0.0016208474
3.786147E-4
-9.92789E-4
0.0010149836
0.0036126846
0.0051095113
0.007311398
0.005594051
0.0031916667
0.0020473877
-7.265145E-4
-3.353683E-4
0.0051919213
0.014499458
0.023166038
0.019031383
0.0019210172
-0.014255905
-0.026107118
-0.031176182
-0.021884179
-0.010924586
-0.011169734
-0.013068345
-0.010585944
-0.008334036
-0.0097474335
-0.009302994
-0.0022411197
0.0024073436
0.0036848069
0.007095289
0.00932823
0.0115125505
0.014984031
0.019520774
0.024014806
0.021456577
0.01415821
0.0063528656
-0.002963655
-0.007726213
-0.00810454
-0.007887264
-0.0039722663
-0.0021442622
-0.0054820795
-0.0037430394
0.0043179947
0.010350694
0.014223802
0.019618155
0.024391048
0.027545584
0.025551869
0.014381158
0.003981652
-0.0035352279
-0.016749639
-0.027003001
-0.02438014
-0.017286044
-0.014260625
-0.011194528
-0.0033755633
0.0071833045
0.021944562
0.03851018
0.047424782
0.046875257
0.03797977
0.019494032
0.0030524004
-8.522355E-4
-0.012214767
-0.040636178
-0.06921024
-0.09613583
-0.11596944
-0.12697439
-0.1333424
-0.12203331
-0.1052099
-0.08328927
-0.03385132
0.034688715
0.09863531
0.10526611
0.05149218
0.00783347
-0.02183441
-0.06752137
-0.11706853
-0.12112284
-0.06644654
-0.0056784647
0.06650255
0.13244303
0.1531239
0.17611937
0.1512829
0.05255852
-0.009390743
-0.040231485
-0.084137194
-0.12870942
-0.14922912
-0.106928624
-0.026660332
0.06479401
0.11560416
0.06647757
0.0069642644
-0.025221217
-0.061508585
-0.0321457
0.059017286
0.16620755
0.30994296
0.4160555
0.36739483
0.21603741
0.1261391
0.11753822
0.100341916
0.10620617
0.14453429
0.101781785
-0.02514775
-0.14368032
-0.20682064
-0.21556656
-0.21081556
-0.19256715
-0.15003784
-0.120766915
-0.12283639
-0.20993271
-0.35621572
-0.38121256
-0.28773302
-0.21371995
-0.1679485
-0.15040469
-0.16558991
-0.1657837
-0.12749451
-0.06660392
-0.017272089
0.023861509
0.091205135
0.16993283
0.19027855
0.11858995
0.041618116
0.068824336
0.19119915
0.2891908
0.30401692
0.32457235
0.34537712
0.2902341
0.24171472
0.24983071
0.2712123
0.27262813
0.23374623
0.23237455
0.2500715
0.16933931
0.06994103
-0.004765466
-0.10617807
-0.14505543
-0.11493931
-0.10719286
-0.11027411
-0.14515488
-0.25192255
-0.35502118
-0.39694446
-0.41183573
-0.42349258
-0.43626824
-0.42326102
-0.35014918
-0.27736318
-0.21716942
-0.107145205
-0.020057684
-0.0030565083
0.02073242
0.05798696
0.08665409
0.10520452
0.113931656
0.14066683
0.1732262
0.19165783
0.20335679
0.19197753
0.17142586
0.16997528
0.16840918
0.15773623
0.15461254
0.15592425
0.14838736
0.13643584
0.1251235
0.10036012
0.055407234
0.013645525
-0.00182798
-0.0022763314
-0.009139568
-0.022830041
-0.03395921
-0.04116633
-0.04735149
-0.050553508
-0.051680792
-0.051151596
-0.050817177
-0.064045414
-0.08399992
-0.09013043
-0.087725095
-0.089023724
-0.09627485
-0.10076767
-0.09514508
-0.089925915
-0.0859793
-0.0752339
-0.062003437
-0.05038904
-0.040590696
-0.029057503
-0.015943183
-0.0057480237
0.0065791174
0.021574698
0.033510413
0.041274056
0.04385703
0.04083252
0.031115709
0.018034168
0.008732226
0.0023843227
-0.0011744631
0.0011321057
0.0065828273
0.011009347
0.012719338
0.011382278
0.007812855
0.005576645
0.0066267336
0.008446262
0.009505777
0.009823401
0.0106314905
0.012668939
0.01579344
0.019417588
0.021129342
0.023209117
0.02515376
0.022818455
0.02184662
0.02314742
0.022603435
0.020613695
0.013824593
0.0059977463
0.003514203
0.001797246
-0.00342053
-0.011084144
-0.015595694
-0.016597122
-0.01972084
-0.0223998
-0.021717098
-0.019269697
-0.015666371
-0.009395256
-7.822114E-4
0.0022073863
0.0019345643
0.00790918
0.013200556
0.01159394
0.0091550015
0.012837653
0.021414954
0.025177116
0.024236409
0.023816364
0.021351876
0.018955797
0.02147835
0.026958842
0.028520197
0.023908319
0.0198297
0.01653952
0.009121744
0.0019432441
0.0015687854
0.005886534
0.0067837443
0.0033466378
-9.947007E-5
-0.004317621
-0.008014611
-0.008692829
-0.0090037435
-0.011759022
-0.015617322
-0.016073922
-0.013011455
-0.0106731355
-0.010275873
-0.011482447
-0.015003453
-0.018437365
-0.017165136
-0.015112616
-0.016520215
-0.015886817
-0.012659763
-0.009187961
-0.005782506
-0.005052211
-0.0033645586
3.2524703E-4
8.398127E-4
4.78277E-4
0.0026736984
0.0060641635
0.00836998
0.009563388
0.010999434
0.011834026
0.011650243
0.010288742
0.008695424
0.007502808
0.005390304
0.0043486464
0.0048734313
0.006522
0.007717999
0.00601276
0.005915936
0.0052367756
0.002758084
0.0030267753
2.3493725E-4
-2.672648E-4
-1.6308355E-4
-0.01120731
-0.0114585515
0.0016999034
0.0027673685
-0.0011495415
-0.0022912887
-0.0058714505
-0.009775966
-0.012159742
-0.010224974
-0.0079397345
-0.0074367924
-0.005173216
-0.0048798006
-0.0047589
-0.0037032678
-0.0052539306
-0.006874529
-0.008101629
-0.007875864
-0.007367379
-0.008618358
-0.0074573075
-0.0077605858
-0.0094840005
-0.0051787514
-5.4304634E-4
0.0016067479
0.0043906537
0.0044552353
0.0043280693
0.007355524
0.009263577
0.009656747
0.009983478
0.00879606
0.007271532
0.00551527
0.0031555153
0.003416342
0.0041922745
0.0030560172
0.0033310899
0.003084728
1.0616341E-4
-0.0023603453
-0.0034465673
-0.005271653
-0.0075920806
-0.0069622216
-0.006413861
-0.008284403
-0.0056181597
-0.0016511644
-0.0025347979
-0.0034739515
-0.0035824121
-0.0034052294
-0.0022611397
-0.0012399196
9.7024307E-4
0.002644883
0.0029088878
0.003030043
0.0018262301
0.0012071283
0.0016004209
7.4137124E-4
-1.7818554E-4
0.0018218079
0.005304832
0.0039866515
6.0860795E-4
-1.6166276E-5
-0.0010409681
-9.482344E-4
-8.2526775E-4
-0.0027894948
-0.00172947
3.8243795E-4
9.253577E-4
0.001109068
3.340749E-4
7.0565275E-4
0.0016509145
0.0027687857
0.0035580106
6.70682E-4
-8.1335386E-4
0.0013678677
0.0016838763
0.0014239041
0.0022079777
0.0013891504
-0.0014892083
-0.0037175287
-0.003399953
-0.003953876
-0.0057554306
-0.004399237
-0.0018552241
-0.0010355941
-1.8229433E-4
1.5527233E-4
4.7829567E-4
0.002799077
0.0030361721
5.7620904E-4
4.001723E-4
4.768862E-4
5.400895E-4
0.003144292
0.0037668038
0.0028356807
0.0035415415
0.003419029
0.0028604134
0.0017042137
-2.834885E-4
-3.0568376E-4
-2.1641702E-6
-2.5460162E-4
5.490154E-4
8.037119E-4
-4.9967103E-4
-0.0026825923
-0.004230419
-0.0041321875
-0.0038985268
-0.0031743294
-7.5913337E-4
4.268539E-4
-7.07625E-4
-8.048039E-4
1.5639095E-4
7.256933E-4
0.0013015355
0.0010585086
9.4899425E-4
0.0010592939
1.2949131E-4
9.0817607E-4
0.0021665953
0.0016334193
0.0022615262
0.0026180816
0.0011443682
-3.076484E-4
-0.001474366
-6.384517E-4
7.286544E-4
1.4989181E-5
-1.0242733E-4
2.4714315E-4
-7.3228257E-6
7.040762E-4
6.440954E-4
-0.0015195991
-0.0030146327
-0.0021345818
-0.0014907833
-0.0018299704
3.5691253E-4
0.0023663756
7.568127E-4
5.06549E-4
0.0010693774
-6.6177937E-4
-3.5892523E-4
0.0010671022
5.233835E-4
3.9218002E-4
0.0011395614
0.0021644747
0.0021592167
0.0010405495
3.699594E-4
-0.0010303176
-8.423181E-4
0.0011844095
0.0015082065
0.0018982667
0.0013273432
2.7976918E-4
0.0013276129
0.001175993
-4.812913E-6
-0.0016601294
-0.0021607084
2.7856274E-4
-4.0153597E-4
-0.0020772882
1.5802863E-4
0.0019474595
0.0021425085
0.0013318742
-1.9710906E-5
-0.0013593523
-0.0022022475
-2.3869949E-4
0.0011239632
1.7961679E-4
-1.12348E-4
-7.32759E-4
-0.0011184628
-0.0012088347
-0.001577166
-3.3211632E-4
-7.381217E-4
-0.002921461
-0.0011712821
0.0012978268
5.552942E-4
5.208969E-4
0.0010903288
7.644257E-4
0.0012552369
0.001348447
5.7853595E-4
3.5156956E-4
0.0015971897
0.003187967
0.0030965188
0.0031538685
0.0028086624
0.0018363548
0.0017135247
5.7872623E-4
-6.609922E-5
-0.0015169132
-0.001552766
0.002045253
0.0013117647
0.0025668999
0.0027876298
-0.003386836
0.0013317595
-6.649071E-4
-0.012913173
-0.003819839
0.003427427
-0.005662717
-0.009558558
-0.008583463
-4.9852584E-5
0.0075306166
0.003556659
0.00110165
8.030523E-4
6.0237304E-4
0.0022142765
0.0030920673
0.0034817674
9.012257E-4
4.092778E-4
0.003746852
0.003743618
0.0017916971
3.1598125E-4
0.0012611075
0.0030068702
0.0016385167
1.4754567E-4
-4.4037064E-4
-9.5323E-5
-5.163461E-4
-0.0030735498
-0.0032916206
-0.002479914
-0.0025032486
-0.0011302467
6.300552E-4
0.0012944643
6.341582E-4
3.9798205E-4
6.6273584E-4
2.9113822E-4
-1.96123E-4
-0.0020224694
-0.0029800509
-1.4400005E-4
0.0020828953
0.001233524
0.0014065668
0.0024358928
0.0017266368
0.0010573742
-9.768123E-4
-0.0024549353
5.7290308E-5
5.972827E-4
-7.6628546E-4
-0.0018503217
8.9076064E-5
0.0053435937
-0.0025484269
-0.012515801
-0.0035151416
0.0032995646
0.001926502
0.004452767
0.0038968252
0.0020113206
0.0022025004
0.0012584812
7.9385226E-4
2.4406075E-4
-5.7073944E-4
-0.0016912196
-0.0016906593
1.3096495E-4
0.0012880134
0.0027685766
0.0018688675
-6.650996E-4
-2.96399E-4
-7.596407E-4
-0.0010113247
-6.470989E-5
-4.470146E-4
-2.1958759E-4
-0.0015832881
-0.0021758701
4.3556246E-4
2.2709779E-4
-7.6087663E-4
-8.4958004E-4
-0.0020983657
-0.0016573431
-6.172019E-4
8.1953156E-5
0.0011844236
0.0014026441
0.0017424689
0.0025967816
0.0030136853
0.001029803
-0.0013781624
-3.7607265E-4
-6.1531394E-4
-0.0011736677
0.0015113216
0.0016602771
4.705783E-4
5.4469204E-4
3.229966E-4
6.0506014E-4
-0.0017871625
-0.00399262
-0.0016361205
-7.959958E-5
-3.3776218E-5
6.818426E-4
0.0011843066
4.0711608E-4
-2.3773227E-4
0.0012278742
-2.954769E-4
-0.0024541332
-4.911066E-4
-0.001271337
-0.0011668133
0.0019896459
6.8579713E-4
8.811255E-5
0.0018010546
7.124728E-4
-9.3735306E-4
-0.0018847028
-0.0019985887
-5.107664E-4
0.0016795741
0.0023835732
0.0015708487
0.0014096316
9.940775E-4
4.8335415E-4
-2.5268644E-4
-0.0013826698
-2.2965466E-4
3.435261E-4
-7.161365E-4
-3.2126668E-4
3.3554382E-4
9.821554E-4
9.338031E-4
1.8603965E-5
-7.1681355E-4
-0.0014197001
3.2136549E-4
0.0013355806
-6.865837E-4
-2.944656E-4
3.189312E-4
-5.340765E-4
2.2905637E-4
-9.238248E-5
-0.0014993459
-0.002092517
-0.0018085026
4.824889E-4
0.0015569747
2.7192823E-4
4.427561E-4
0.0011945324
7.707061E-4
-5.1493855E-4
-0.0026044957
-0.0033180562
-0.0020165383
-6.60065E-4
2.1885289E-4
0.001280201
0.0025304274
0.0018022559
5.237486E-4
0.0017021128
0.0013942895
2.8383755E-4
0.0014246969
4.369594E-4
-6.422293E-5
0.0018346668
8.05077E-4
5.870781E-4
0.0023192503
0.0010966747
-5.8133405E-4
-0.0010179485
-5.067556E-4
6.6147285E-4
5.922865E-4
5.516253E-4
-5.7003397E-4
-0.0026740492
-9.5890585E-4
5.2482887E-5
-0.0024951664
-0.0017997159
-0.0015477922
-0.004328658
-0.0023157587
1.0111287E-4
-0.0013738252
-3.529043E-4
0.0011048123
6.0404395E-4
2.4880233E-4
-2.5889356E-4
7.45426E-4
0.0014707654
0.0016652957
0.003925029
0.0041432483
0.0024071878
9.910914E-4
-0.0011713383
-0.0015798641
-0.0013628887
-0.0023441096
-0.0012296153
0.0012221438
0.0018170186
0.0018947002
0.0023441194
5.657327E-4
-7.9922203E-4
-3.788185E-4
-0.002153775
-0.00228833
-0.0012938732
-0.0031445965
-0.0020903253
6.802436E-4
0.0016963556
0.0021931706
6.5953523E-4
-3.5038503E-4
3.9084433E-5
1.8048951E-5
2.1833029E-4
3.2603368E-4
9.10492E-4
9.2646293E-4
0.0010526425
0.0016758152
3.053084E-4
-0.0011758666
-0.0031138896
-0.0032781279
4.090903E-4
8.273414E-4
5.104137E-4
0.0027442377
0.0016713452
-3.3258175E-4
-2.582718E-4
-7.2250445E-4
-0.0017312209
-0.0013522069
-7.158018E-4
-7.663806E-4
4.21561E-4
3.5745095E-4
5.997401E-5
0.0015097789
3.583713E-4
5.9964923E-6
-4.8115893E-4
-0.0037615993
-0.001687941
0.0012946039
3.6262683E-4
0.0014726479
0.0019380169
3.262475E-4
3.6541672E-4
8.685519E-4
-4.6417097E-4
-9.2916505E-4
8.181067E-4
2.2411416E-6
-8.49035E-4
3.317299E-4
-7.404737E-4
-1.22039935E-4
0.002147025
0.0014178333
-1.4342536E-4
-0.0011776234
-8.721313E-4
-1.6479827E-4
2.2531657E-4
0.0016812807
0.0017374888
1.9267594E-4
-0.0015437158
-0.002539866
-0.0011631782
-2.1061218E-4
-3.3997817E-4
2.6452835E-4
5.709303E-4
2.3495231E-4
-3.482349E-4
6.6057284E-4
0.0018730182
-6.092612E-4
-0.00272312
-0.001243613
2.0294753E-4
0.0012920352
0.002240952
5.3663785E-4
-0.0014262203
-4.7272607E-4
4.284153E-4
-2.502295E-4
-7.391491E-4
-0.001042658
-6.8700156E-4
5.5335904E-4
5.7501055E-4
-5.460526E-4
-4.689392E-4
2.5869778E-4
5.478643E-4
9.124133E-4
2.7992367E-4
-6.913398E-4
1.2544032E-4
0.0016212718
0.0018277853
9.4440294E-4
0.0013664651
0.0016615329
2.4485443E-4
5.4354325E-4
-1.3307722E-5
-0.0020711427
-0.0014929055
-0.0019206131
-0.0022650133
-5.606721E-4
-4.4886672E-4
8.6590234E-4
0.0022374992
7.785876E-4
-8.1062084E-4
-0.0025226935
-0.002663366
-0.0014350505
-0.0015113679
-0.0010746021
9.148775E-5
8.707377E-4
8.4706617E-4
6.1394897E-4
1.9883303E-4
-9.239596E-4
1.400348E-4
8.7118393E-4
-2.3310311E-4
0.0016416992
0.0031624886
0.0028666484
0.0024864222
1.7294228E-4
-2.6736248E-4
-2.8062463E-4
-0.0023432488
-7.152503E-4
0.001980598
0.0021771772
0.001980057
7.9622335E-4
1.7264683E-4
4.4443557E-4
-7.411958E-5
-1.04890845E-4
-4.4876555E-4
-0.0012041935
-5.5028603E-4
-7.5064506E-4
-0.002009375
-0.0018592415
-0.0016003547
-8.5136184E-4
-6.3773256E-4
-0.00304293
-0.0026519198
1.3055513E-4
3.8215774E-4
5.176037E-4
6.2246184E-4
9.659612E-4
0.0016294143
-4.8435145E-4
-0.0012221608
-3.2381293E-5
-6.113808E-4
6.5581425E-4
0.0021493162
8.255878E-4
3.1039614E-4
-7.138758E-4
-0.00203763
-1.323517E-5
1.8378282E-4
-0.0024069052
-7.247503E-4
0.0027595232
0.0032338607
0.0021049425
0.0013489723
0.0020271786
0.0011370439
-0.0011150475
-7.2158646E-4
-7.429878E-5
2.4901866E-4
9.008454E-4
-6.562611E-6
-1.19303004E-4
8.782996E-4
0.0010563289
8.97114E-4
4.5789595E-4
-5.257162E-4
-0.0012934797
-6.5892085E-4
-5.6751893E-4
3.4833804E-5
0.0019390986
0.0011753337
0.002704651
7.257946E-4
-0.012410351
-0.014271587
-0.0029514383
0.0010154209
0.002222418
0.0037066303
0.0027325395
0.002210596
4.855476E-4
0.0012927173
0.0024521018
-6.356073E-4
-5.753827E-4
7.528442E-4
-3.8289686E-4
2.9804278E-4
9.962596E-4
0.0013799192
0.0027368583
0.0021198955
1.3201179E-5
-8.308888E-4
-2.6244673E-4
-7.0049637E-4
-0.002210204
-0.0015582731
3.0012385E-4
9.4634626E-4
8.7519415E-4
5.031269E-5
-0.0012563658
-0.0023634366
-0.002778179
-0.0016724356
1.0385675E-4
0.0013050248
0.0011919454
1.5272136E-4
7.86223E-4
0.0023501469
0.0023756626
0.0017934728
0.0011334656
0.001008356
0.0016329079
0.001093289
-2.9638817E-4
-6.985789E-4
3.4872102E-4
1.6628075E-4
-0.00186966
-0.0012350582
-7.847852E-4
-0.003094791
-0.0017366691
5.5910036E-4
-4.0371032E-4
-3.6750127E-5
2.80932E-4
-9.954871E-4
-0.001527657
-0.0026594817
-0.0027206293
-5.7901914E-4
-4.9335894E-4
-0.0010613425
7.3586876E-4
0.0011722526
2.6188005E-4
0.0012030484
5.4509926E-4
-0.0014348266
7.420402E-4
0.0031247921
0.0022543825
0.0027266503
0.0028012001
6.400386E-4
0.0011592392