0.002082034
0.022760496
0.02913553
0.020972151
0.010787186
0.017908955
0.03160275
0.03149239
0.023485707
0.014639785
0.0066531287
0.005614314
0.0055796835
0.005893092
0.009594634
0.0105767045
0.0057421247
-0.013261831
-0.030333253
-0.027524317
-0.031340927
-0.03773809
-0.028598722
-0.021127013
-0.012459839
-0.0062831603
-0.010637253
-3.9367436E-4
0.014549361
0.0035844033
-0.010658806
-0.0065450245
-0.0031460472
-9.266759E-4
4.487827E-4
-0.012145873
-0.018179487
-0.019580834
-0.021349195
0.004627655
0.021025011
-0.0032679806
-0.023072807
-0.016034702
-9.794165E-4
-0.001059144
0.0012735991
0.022751296
0.032703053
0.03605491
0.046743877
0.052292988
0.05459785
0.04906503
0.03844986
0.027895356
0.015339098
0.0019182495
-0.017336054
-0.02319273
-0.010762739
0.0024063706
0.015056926
0.011275152
-0.0033377036
-0.022734176
-0.057601366
-0.074656464
-0.068046
-0.05586764
-0.03755271
-0.026962241
-0.017666567
-0.010696285
-0.008038161
0.011314127
0.024207354
0.019308753
0.017257627
0.013394701
0.008608193
0.007834358
0.009809205
0.012920194
0.016894562
0.025989309
0.027958764
0.015097569
-0.00317743
-0.013942843
-0.008628145
-0.0037728183
-0.009779457
-0.014825223
-0.018271495
-0.027790332
-0.031412423
-0.008718366
0.017385896
0.021982841
0.020257551
0.01616576
0.012411745
0.013035699
0.01589048
0.021575177
0.017501498
0.014392793
0.010565545
-0.010069032
-0.015516354
-0.014439481
-0.025392879
-0.020100642
-0.010557185
-0.005015919
-0.0016615825
-0.014132372
-0.023150085
-0.018697368
-0.0058920993
0.009610706
0.014634222
0.011406323
0.008122436
0.016930467
0.025877906
0.0220081
0.025658347
0.024009665
0.0178082
0.032283634
0.036414504
0.018719645
0.0061305943
-0.002029673
-0.004379542
0.00325568
-0.006800246
-0.041407526
-0.063347824
-0.07080374
-0.06587363
-0.034101523
-0.022554856
-0.037640143
-0.030329993
-0.01672194
-0.005900982
0.010715816
0.015896168
0.017486552
0.025108002
0.029731745
0.023511065
0.014612178
0.015872966
0.011847749
-4.5632067E-4
-0.002412667
0.007072458
0.022049345
0.03235677
0.032289457
0.02435907
0.008592095
-0.0030837161
-1.7094347E-4
0.005411118
3.2832296E-4
-0.006323657
-0.0029635546
3.3141582E-4
-0.0010036785
0.0023001013
0.0052109202
0.0045813033
0.012606465
0.016569695
-5.246636E-4
-0.012806171
-0.014221124
-0.023388349
-0.019017551
5.0718995E-4
0.0043324097
-9.867518E-4
-0.0019199966
-0.006352829
-0.015762176
-0.020800358
-0.014958245
-0.003910635
0.006582433
0.016672602
0.017735377
0.00644025
-0.0028389588
-0.013349101
-0.03271261
-0.038748473
-0.029645478
-0.019592144
-0.0048126723
3.1187426E-4
-0.007533827
-0.009935574
-0.011278882
-0.012068084
-0.006296129
-1.6490387E-4
9.953916E-4
-0.0021418252
6.1574334E-4
0.014270808
0.037520576
0.062093437
0.0676753
0.060277294
0.060539268
0.06475836
0.0605842
0.042205125
0.026530951
0.03161336
0.030953687
0.004708404
-0.023250043
-0.04434988
-0.06330986
-0.06810269
-0.061050706
-0.05192312
-0.039808527
-0.02769869
-0.021878693
-0.033318244
-0.061860196
-0.0924151
-0.10861847
-0.08561751
-0.027491458
0.025739353
0.0551001
0.07414924
0.09978991
0.11674724
0.10831847
0.09197155
0.07308565
0.044069335
0.010763157
-0.004076881
0.009794583
0.009331378
-0.020434098
-0.045924768
-0.066075444
-0.07806371
-0.07983727
-0.085745156
-0.078966975
-0.06096452
-0.054557037
-0.050438
-0.041369144
-0.034322616
-0.035691354
-0.049351938
-0.055739608
-0.024452105
0.028834725
0.05678033
0.06548107
0.0867338
0.109565526
0.12701535
0.14981341
0.16189851
0.14281295
0.109467775
0.08931837
0.0674953
0.030855488
0.007870321
-0.011978373
-0.07192218
-0.1462816
-0.16313712
-0.11094742
-0.058475655
-0.049683478
-0.05509394
-0.052222926
-0.04524528
-0.033451796
-0.018819164
-0.008632933
-0.017745867
-0.040814705
-0.043434072
-0.027244903
-0.025228249
-0.03616308
-0.03059465
-0.0049654907
0.0094839
0.00439444
0.0029912065
0.016526233
0.044870496
0.07208221
0.07304134
0.05310191
0.03442011
0.026063375
0.021860039
0.0053413725
-0.016020535
-0.0071941707
0.028248899
0.049155988
0.054093014
0.06409052
0.06631356
0.050281227
0.029998273
0.011742675
-0.0035233854
-0.011186908
-0.015025221
-0.021468805
-0.034241255
-0.052199468
-0.06273573
-0.06693948
-0.075447395
-0.079252765
-0.077211276
-0.07712077
-0.06863727
-0.04555789
-0.0177091
0.007606262
0.033000756
0.057318587
0.07107097
0.07397088
0.07428907
0.076892376
0.07724397
0.062870696
0.03353182
0.0049205134
-0.017624857
-0.036351364
-0.040954195
-0.034422353
-0.030774746
-0.027976356
-0.02680623
-0.021328222
-0.010852793
-0.007863334
-1.4503117E-4
0.006302301
0.001915704
0.0037672606
0.0029480713
-0.0017634355
-0.007371033
-0.016288484
-0.008421946
0.0070074983
0.020551132
0.03480211
0.03956554
0.045206226
0.05115592
0.04944646
0.03322768
0.0069148308
-0.0071093766
-0.03057159
-0.061269138
-0.07432686
-0.07744534
-0.07408688
-0.10093757
-0.10772394
-0.02733716
0.023873331
0.015921405
0.020282317
0.021161145
0.024388924
0.02710355
0.025255488
0.040005315
0.050894707
0.057476606
0.060728967
0.059538547
0.06133697
0.056167074
0.05930541
0.05083672
0.024451774
0.026671216
0.030199721
0.020569779
0.014377039
-0.01516269
-0.043129686
-0.04702922
-0.06288988
-0.08727233
-0.09458945
-0.08826498
-0.07842518
-0.070771955
-0.0672135
-0.06364633
-0.05806977
-0.05104603
-0.042346418
-0.032203685
-0.020128736
-0.010056092
0.0031188177
0.027205944
0.052861605
0.074975744
0.08917797
0.096470475
0.1034153
0.09263785
0.06479967
0.04317083
0.033039227
0.031764966
0.026901525
0.016039522
0.01268508
0.013315626
0.008963072
8.6700404E-4
-0.0055169635
-0.009306293
-0.012268767
-0.019713668
-0.033946447
-0.04174367
-0.04763227
-0.056714624
-0.059047014
-0.0665303
-0.0753738
-0.07441679
-0.06727589
-0.043194123
-0.016412687
-0.0031615763
0.007839479
0.009710513
7.0760987E-4
-0.0048203166
0.0045845374
0.0265205
0.0357496
0.031544916
0.03181481
0.03369266
0.040289126
0.057806622
0.07348698
0.072867535
0.05690904
0.035380747
0.018659543
0.018845467
0.030288827
0.033151213
0.023786396
0.007220071
-0.005297086
-0.013315141
-0.03947091
-0.06241547
-0.051477738
-0.047147524
-0.06206122
-0.06018529
-0.055808697
-0.06372149
-0.05725917
-0.02830515
-0.0046092863
-0.005117302
-0.001883215
0.017596029
0.02399518
0.019596884
0.019949853
0.020383317
0.017934145
0.013754428
0.018995866
0.029442945
0.024197089
0.0100849485
0.0056862333
0.0144442795
0.025738277
0.031670716
0.034561448
0.027198952
0.013681598
0.0039668153
-0.015740057
-0.037968796
-0.042951882
-0.040279888
-0.034830343
-0.025341567
-0.011800134
0.00995968
0.018965326
0.007829706
0.008058352
0.018924115
0.015130796
8.262717E-4
-0.007447046
-7.644374E-4
0.0152987465
0.023364415
0.019512983
0.013069961
0.0039182124
-0.006582971
-0.0042930646
0.0062309704
0.009196494
0.0063894033
-7.749568E-4
-0.0068282397
-0.008178812
-0.017054636
-0.02301536
-0.014848558
-0.010419904
-0.0122347735
-0.011154779
-0.008134898
-0.0025065339
-0.0010588568
-0.0132184075
-0.028795123
-0.031218478
-0.020528283
-0.0056408644
0.004546491
0.005620835
0.004496536
0.006244509
0.011492955
0.01800138
0.014910982
0.006118132
0.009044782
0.021270059
0.025735281
0.021801539
0.023633448
0.02538274
0.013021344
-0.0063387463
-0.01956498
-0.016148532
-9.929202E-4
0.012939264
0.028849706
0.040025085
0.03743431
0.030713174
0.02058674
-0.0018811346
-0.037108228
-0.0640409
-0.06089655
-0.042638812
-0.027722381
-0.015099657
-0.009354844
-0.011307429
-0.01062636
-0.003762651
-1.02299375E-4
-0.010987444
-0.029206024
-0.032160506
-0.017061913
-0.0042552208
0.004883461
0.020347733
0.030972715
0.031557865
0.02559001
0.0124782035
0.009817222
0.02322833
0.032126572
0.03609313
0.04332474
0.04276342
0.02981445
0.017749794
0.00617647
-0.01649368
-0.032714453
-0.024228463
-0.013641755
-0.02041781
-0.032745793
-0.039134003
-0.036384344
-0.022644645
-0.0110465605
-0.012458403
-0.012788024
-0.0048080618
0.0054604644
0.015278691
0.018026473
0.016075648
0.014630127
0.008419494
0.0012370643
0.0014238192
0.00825055
0.016203698
0.018719392
0.0092972545
-0.005645661
-0.0092631765
-0.0098015135
-0.013797176
-0.009214298
-0.009554843
-0.013480873
-0.0036120715
0.0020653408
-0.0037046222
-0.011275959
-0.01578172
-0.009732105
-0.001957563
0.0046099727
0.015310581
0.018815152
0.017865868
0.029073805
0.045274213
0.04570113
0.033388905
0.014235089
-0.019337783
-0.047177043
-0.05460894
-0.05509037
-0.045723163
-0.032831427
-0.028123226
-0.019202664
-0.0053617824
0.005676733
0.015959116
0.02399876
0.028809778
0.03700251
0.04394282
0.035096474
0.024372535
0.027692342
0.03296636
0.037112128
0.040344253
0.038339987
0.0373177
0.039790463
0.034608413
0.0108051365
-0.0144710345
-0.039272223
-0.08238059
-0.111679204
-0.12073147
-0.13179871
-0.107795134
-0.05393531
-0.015690938
0.0048089605
0.008675924
0.0067388397
-0.005637667
-0.039408293
-0.04735564
-0.01550788
0.0199174
0.05132257
0.06982976
0.0728047
0.07615776
0.07513754
0.07454994
0.08616881
0.08971209
0.08087362
0.06932304
0.03420463
-0.016677571
-0.045864332
-0.05202856
-0.041076798
-0.013234636
0.01710146
0.034679264
0.023323968
-0.011625438
-0.035610754
-0.037290458
-0.03837465
-0.0458776
-0.05023221
-0.060239755
-0.072436355
-0.06828045
-0.058039725
-0.03639399
3.522117E-4
0.014793358
0.008276144
0.0016386616
-0.0020548697
0.010253672
0.020943496
0.018607253
0.018697593
0.0055043926
-0.014709027
-0.010499657
0.014234097
0.03511239
0.037390403
0.03996161
0.054620337
0.061582968
0.05515518
0.034974243
0.010318543
-0.002456799
-0.014319373
-0.03312604
-0.060395833
-0.092236824
-0.10618259
-0.09791654
-0.066596754
-0.012992103
0.033766225
0.061940473
0.07833191
0.08572242
0.09217733
0.08673025
0.063041925
0.039582588
0.015582409
-0.0075106844
-0.016750216
-0.017743485
-0.005314011
0.017215509
0.02472613
0.022730453
0.019131565
5.409852E-4
-0.032146126
-0.055510852
-0.05298673
-0.050630067
-0.054281224
-0.045035854
-0.060809966
-0.09891779
-0.10606528
-0.09536484
-0.07329859
-0.033621076
-0.005480596
0.021030774
0.05537341
0.075500876
0.091890454
0.108987354
0.107463434
0.093215466
0.080851935
0.06869092
0.048857275
0.0263628
0.014533739
-3.3806567E-4
-0.022219984
-0.022216737
-0.018269587
-0.040585585
-0.06756248
-0.08616121
-0.09007263
-0.07477002
-0.060720965
-0.047178566
-0.028806489
-0.01562898
-0.0025912467
0.00937349
0.012937228
0.013883427
0.023090499
0.038552593
0.04072677
0.03288884
0.03650794
0.046152484
0.056084037
0.06924683
0.062849484
0.034894347
0.028680641
0.04717964
0.051572934
0.036497537
0.012242622
-0.017621396
-0.036488917
-0.03671989
-0.03425478
-0.03752028
-0.039793365
-0.0379361
-0.030669097
-0.031302862
-0.05259913
-0.06284413
-0.052155003
-0.05885055
-0.073679574
-0.07214293
-0.071089715
-0.062233422
-0.033143796
-0.014659634
-0.01178457
-0.0065023336
-0.008753935
-0.014826943
-0.01289113
-0.008494941
0.0020567055
0.015336979
0.032962743
0.07051633
0.11597593
0.1539257
0.18070957
0.18497212
0.16684951
0.14643967
0.13175763
0.10145586
0.05586663
0.020756805
-0.00910223
-0.053389613
-0.11477771
-0.16231067
-0.1650857
-0.14494884
-0.11626606
-0.078532696
-0.05215458
-0.033308093
-0.019944271
-0.025830735
-0.039003346
-0.04901569
-0.058742777
-0.060038794
-0.036562894
0.0034341253
0.034677505
0.057106547
0.06842035
0.06709627
0.07435595
0.08000333
0.056546245
0.0065979646
-0.04540447
-0.0742677
-0.08116503
-0.07504673
-0.062673256
-0.053711604
-0.043779295
-0.04246077
-0.043257277
-0.019815102
-0.0019101078
-0.0012276571
0.012505753
0.03434829
0.06310613
0.102599345
0.1481836
0.18404321
0.17068404
0.13394469
0.1282566
0.13582954
0.13006087
0.10542084
0.060800623
1.1109318E-4
-0.063082345
-0.10406406
-0.13317789
-0.16374439
-0.17637554
-0.17279348
-0.16710131
-0.15913543
-0.13903788
-0.10942291
-0.083831295
-0.04812476
-0.005931666
0.030421631
0.075699635
0.0976021
0.083091706
0.08298228
0.09023157
0.074168265
0.046887897
0.022118926
0.01136042
0.012118143
0.010609972
0.009008613
-0.0063776774
-0.047807842
-0.07249956
-0.045573685
0.0046992055
0.042997573
0.06198103
0.064320855
0.05345383
0.03480828
0.007004471
-0.03828486
-0.090497375
-0.123654395
-0.12493169
-0.09568143
-0.037566718
0.03903125
0.10459448
0.15488964
0.19952825
0.20579225
0.17576218
0.14359358
0.06939798
-0.0626568
-0.18124086
-0.2502121
-0.28187323
-0.2792945
-0.23941766
-0.16605276
-0.08465411
-0.013046743
0.075609446
0.19017841
0.2820341
0.31656313
0.30590987
0.25012276
0.12497362
-0.03088798
-0.13999324
-0.2008439
-0.22186269
-0.18165942
-0.1103681
-0.046101164
3.6009218E-4
0.031166306
0.05422879
0.03948265
-0.014030533
-0.040744375
-0.02186158
0.0052576754
0.019517155
0.016357299
-0.0011540265
-1.5971242E-4
0.032654364
0.047356173
0.042121477
0.064556666
0.089214124
0.091523245
0.09293918
0.075509176
0.04047286
0.024374885
4.2368885E-4
-0.0503468
-0.09481169
-0.14157078
-0.19006519
-0.1971296
-0.16854118
-0.13830094
-0.11153934
-0.082230896
-0.05416317
-0.01713086
0.038102824
0.07139912
0.07767241
0.08537775
0.07753662
0.076170124
0.09572673
0.1110176
0.15381736
0.2148726
0.25054225
0.25503516
0.20153175
0.10147416
6.9598854E-4
-0.08390013
-0.16269426
-0.26868206
-0.36996448
-0.3937656
-0.30166158
-0.1142459
0.05081856
0.13656239
0.17814732
0.17786336
0.15600699
0.09483226
-0.026844589
-0.123588935
-0.14720242
-0.09047862
0.03522298
0.14558227
0.19337511
0.16347747
0.054408856
-0.06582351
-0.13766915
-0.14221287
-0.09271458
-0.037155386
-0.004117463
0.0048629823
-0.0036030423
-0.023086786
-0.050311346
-0.068452306
-0.06551071
-0.054173656
-0.043001864
-0.02517969
-0.0018480645
0.023260731
0.0518043
0.07628629
0.08727328
0.08927931
0.09437175
0.09236911
0.07581426
0.06460189
0.046822004
0.018915003
0.006004887
-0.006240423
-0.011331083
0.0035701988
0.01297501
0.006826856
-0.025349347
-0.05392628
-0.044362586
-0.03643837
-0.030052615
-0.009406158
1.8135086E-4
0.012822692
0.039012007
0.053359427
0.03838072
0.0072672023
-0.020068882
-0.052478
-0.08168081
-0.09513181
-0.09413648
-0.077523455
-0.070007406
-0.05946933
-0.026389169
-0.0034821262
0.012417277
0.0235786
0.019775761
0.019925427
0.017866103
0.021273509
0.03501835
0.038469277
0.050972726
0.06586642
0.057562366
0.0410437
0.020351132
0.0026600517
-0.004342908
-0.0051921755
0.010581258
0.024409719
0.016125798
0.012493906
0.021676324
0.023989944
0.014226034
-0.0023452195
-0.019395266
-0.03260926
-0.035362557
-0.028469125
-0.0253789
-0.021969264
-0.011328793
-0.005694557
-0.0024138323
8.965532E-4
-0.008957141
-0.018811021
-0.012746201
-0.003218521
0.0011054627
-1.0401519E-4
-0.0066615306
-0.020971812
-0.039625395
-0.03862472
-0.021036187
-0.0072539593
0.015405592
0.03667132
0.040712453
0.043239847
0.03258549
0.018746559
0.03342655
0.047122642
0.04236466
0.03555405
0.017959578
-0.0074850484
-0.02254823
-0.030654611
-0.039620608
-0.038827527
-0.024511416
-0.013006483
-0.00580425
0.0051311306
0.014393
0.0051076445
-0.02539494
-0.035313472
-0.01050743
3.211215E-4
-0.015899688
-0.02543446
-0.017217008
-0.004935308
0.011560518
0.031903822
0.034814637
0.025089873
0.019041505
0.011800324
0.0046890806
-0.0058951667
-0.017114654
-0.018696802
-0.011445109
0.009430045
0.015291047
-0.013083297
-0.029833874
-0.019703116
-0.0061395355
-0.0018786581
-0.0052509913
0.0040443223
0.020894941
0.024849687
0.013306821
-0.0014103245
0.008605945
0.02943907
0.030830929
0.028711498
0.027377268
0.02691795
0.037965436
0.03199164
-0.0075989175
-0.0424172
-0.04369051
-0.0330357
-0.034447454
-0.036851883
-0.030081898
-0.021442441
-0.015634278
-0.013451776
-0.0149085345
-0.017630503
-0.01813084
-0.020047707
-0.03398991
-0.054304887
-0.056746993
-0.03651566
-0.011677367
0.01000258
0.024090499
0.0263193
0.02212001
0.018334467
0.027794853
0.042747833
0.04250584
0.039822046
0.042691782
0.04787302
0.057859965
0.062453598
0.0671067
0.072289795
0.06095133
0.03932889
0.019050576
0.004797341
-0.011222034
-0.023716018
-0.0138704255
-0.004201311
0.010644658
0.033042766
0.011236586
-0.020191332
-0.04251669
-0.100921564
-0.12574145
-0.1013667
-0.115795575
-0.14459357
-0.14317504
-0.11428129
-0.050413866
0.011763048
0.029202744
0.018026773
0.016569573
0.025617145
0.017654441
0.008238093
0.024929592
0.05496633
0.07724875
0.08014942
0.072470844
0.06698712
0.059896387
0.056299426
0.058171928
0.059275873
0.06375168
0.06556862
0.061220597
0.06085483
0.046017617
0.0026795682
-0.032101158
-0.044155568
-0.05353904
-0.052304443
-0.045478716
-0.046091482
-0.04071018
-0.03800394
-0.041941572
-0.038337458
-0.026483538
0.0023089782
0.025096854
0.008747536
-0.018519642
-0.0290931
-0.028100459
-0.029327078
-0.039612077
-0.04619128
-0.046336543
-0.042499047
-0.03817525
-0.030248363
0.0057000727
0.04081536
0.036081735
0.026030915
0.024335923
0.017333103
0.017837288
0.021738144
0.01734219
0.010866442
0.008978492
0.013556988
0.022722522
0.029281413
0.02542127
0.021599494
0.030270772
0.036187552
0.025889592
0.010355966
0.002730081
0.0013684273
-0.0039445413
-0.015821833
-0.019363862
-0.0026129466
0.01645084
0.020358216
0.014133414
0.004165789
-0.0010102332
-0.00332819
-0.007856399
-0.0053205458
-0.009092849
-0.017511148
0.0033146911
0.020827422
-0.006799005
-0.034612697
-0.032181103
-0.026189199
-0.02582985
-0.021363894
-0.02077887
-0.040372342
-0.0640009
-0.061659727
-0.045312338
-0.035662465
-0.024830712
-0.014625917
-0.015406478
-0.014132278
-0.0026179731
0.005756885
0.011356229
0.024067095
0.039375845
0.047468033
0.048898745
0.057549797
0.0690719
0.065775126
0.058538456
0.05881934
0.060322784
0.057157595
0.048729196
0.043640714
0.03880432
0.03122626
0.026505142
0.016110776
-1.8238375E-4
-0.015716845
-0.027520211
-0.042511087
-0.06329145
-0.06703111
-0.07863207
-0.10567925
-0.09625808
-0.08592669
-0.093819335
-0.08330582
-0.06804301
-0.02596666
0.0052166423
-0.02762914
-0.03914111
-0.029914895
-0.03494656
-0.015575202
-0.0109112095
-0.013948593
0.018271577
0.052090313
0.0832005
0.10836622
0.12043973
0.1325617
0.13161698
0.11887147
0.09722114
0.06432475
0.031478148
0.006283783
0.005297843
0.014084002
0.003293337
-0.024643311
-0.051484086
-0.042649955
-0.017763076
-0.01887389
-0.02042367
-0.020968614
-0.03592671
-0.049542584
-0.057470847
-0.051173598
-0.047113936
-0.058145165
-0.055868186
-0.050857827
-0.04904111
-0.03170808
-0.013090119
0.0047706966
0.01288029
-0.004630526
-0.01312221
0.0027875414
0.017018499
0.024961473
0.02529279
0.019569466
0.038213626
0.061050598
0.032366578
-0.010468691
-0.034263667
-0.061876483
-0.05345294
-0.0059284433
0.034338947
0.066478916
0.060865276
0.040145718
0.06613232
0.100415535
0.12268309
0.123010226
0.07081583
0.012518585
-0.025239302
-0.0709672
-0.124524675
-0.13211237
-0.06476637
0.002046257
0.028368624
0.01610458
-0.038568947
-0.052117713
-0.018998688
-0.01942469
-0.044690873
-0.06645014
-0.048538674
-0.010757696
-0.016221706
-0.027936973
-0.030211486
-0.027831517
-0.0032023445
0.012239145
0.033542905
0.070138335
0.08515634
0.07450092
0.04034821
0.024600528
0.032122772
0.014702716
0.0056929993
0.014124761
0.006409205
0.003536705
0.008809356
0.0038834468
-0.008049159
-0.021744076
-0.034923635
-0.033140533
-0.018589739
-0.019555843
-0.015106121
0.00661108
0.008268015
0.006999654
0.0111133875
-0.010151247
-0.041477762
-0.050788
-0.02201251
0.010725355
0.008377103
0.009348843
0.023958651
0.019919068
0.0051185843
-0.01681076
-0.036484793
-0.030010875
-0.0074370685
0.015281786
0.02968637
0.02811597
0.021333812
0.027686998
0.039264534
0.030521858
0.013257033
0.008285922
0.015072795
0.035015255
0.035977665
0.010639162
0.0013699415
-0.0062776753
-0.017983431
-0.012244986
-0.010223864
-0.0074130837
-0.0074599907
-0.029678278
-0.04648889
-0.05248835
-0.05641558
-0.063437685
-0.079335935
-0.07447088
-0.058974173
-0.059938714
-0.05125718
-0.024400003
0.005659566
0.027373644
0.037608247
0.040339332
0.027640227
0.013609328
0.018417884
0.035611466
0.058392566
0.07656103
0.08518839
0.09153411
0.09648149
0.1006991
0.09880799
0.07585144
0.033498175
-0.008940924
-0.034593884
-0.042716045
-0.05529623
-0.05985857
-0.027085694
-0.006315102
-0.011214739
-0.0066034715
-0.03287125
-0.06807924
-0.059140407
-0.050187528
-0.044176746
-0.03267605
-0.039543364
-0.040594622
-0.029905777
-0.023718057
-0.025937105
-0.027697554
-0.009805269
0.0052387873
0.009979576
0.02049196
0.019562596
0.01676531
0.018111866
0.0062331045
-0.003284205
-0.0063830847
-0.010463402
-0.01750699
-0.025102137
-0.002509819
0.0401623
0.06621542
0.081440955
0.08637036
0.08707691
0.08118124
0.05031452
0.0254802
0.0079655945
-0.016419664
-0.013319607
-0.006093553
-0.022114612
-0.028095828
-0.020912267
-0.018790161
-0.02128717
-0.017275874
-0.015662232
-0.023299856
-0.021275211
-0.0212541
-0.024631241
-0.020691046
-0.021025125
-0.019698193
-0.038447138
-0.059427775
-0.023602014
0.026515923
0.045543373
0.035855204
0.015029003
0.011421278
7.2729273E-4
-0.007914647
0.00612205
0.012482152
0.01592163
0.0016768415
-0.028749023
-0.04173233
-0.056148976
-0.0559938
-0.03576821
-0.021981386
0.0015562016
0.02398559
0.040228948
0.05245104
0.04972485
0.05268847
0.047354463
0.03477718
0.036645878
0.03149064
0.036492903
0.03784125
0.0027635563
-0.01016859
0.007080255
0.008064255
0.0019140334
1.4956956E-4
-0.008214513
-0.026389597
-0.029161897
-0.013100209
-0.0083183
0.0019840163
0.017468058
-0.0044927313
-0.042320255
-0.05860045
-0.06522171
-0.07513253
-0.08251879
-0.07361655
-0.036105894
0.015794203
0.045943063
0.059634622
0.07479476
0.063492514
0.034190144
0.014504082
-0.01793601
-0.055804424
-0.065923594
-0.046360865
-0.0136344675
0.012804925
0.03326741
0.0481432
0.055110432
0.05445747
0.033808105
0.014771489
0.015473264
0.01410326
0.013311759
0.011856753
0.00206248
-0.0013360622
-0.0042095585
-0.011412875
-0.013503336
-0.0073037706
0.0062428014
0.0071662287
-0.012014747
-0.028945146
-0.032504544
-0.022426154
-0.007976755
-0.008226657
-0.016178448
-0.017969698
-0.021810556
-0.020863779
-0.008004043
-1.1743485E-4
-0.0016453388
-0.01175434
-0.019950382
-0.01003248
-0.00225892
-8.974127E-4
0.013496342
0.025099618
0.02531732
0.021321597
-0.0035658395
-0.041494396
-0.037875373
0.010234398
0.039158497
0.041693155
0.04431319
0.039141312
0.034712795
0.02820062
0.0053606126
-0.011240871
-0.014267751
-0.008579759
0.012807181
0.040931832
0.054184616
0.04385488
0.031278253
0.02675976
0.023629272
0.016369095
-0.02556214
-0.08008535
-0.08982832
-0.08867261
-0.10512196
-0.10318557
-0.07964478
-0.057979446
-0.04728287
-0.03655784
-0.018774439
-0.009664804
-0.010482774
-0.00966677
-0.001859102
0.016235854
0.036210332
0.05215201
0.06574955
0.07603532
0.083078265
0.083930336
0.081544384
0.08098628
0.085642576
0.09817862
0.092688344
0.057691216
0.028857177
0.015751267
3.6305202E-5
-0.018355804
-0.03371567
-0.042645738
-0.052895818
-0.07164995
-0.075329825
-0.05350991
-0.041891593
-0.058269966
-0.07383466
-0.067349136
-0.048227716
-0.030090285
-0.015476275
-0.0078664245
-0.012841465
-0.02059312
-0.024450388
-0.025673762
-0.0175333
-0.010085346
-0.007993569
0.0036778175
0.012413125
0.011199787
0.014718633
0.018881274
0.022271046
0.031305693
0.04185294
0.046075355
0.042324983
0.042474687
0.047098286
0.04201838
0.033417057
0.029942676
0.031235771
0.047582287
0.06071773
0.04748921
0.035876766
0.020940153
-0.01371564
-0.021079797
-0.0035129976
0.0021687134
0.0020565384
-0.005578285
-0.02431496
-0.06448421
-0.10613927
-0.09658996
-0.06595606
-0.05781128
-0.0677127
-0.08913898
-0.097833395
-0.09802431
-0.1085617
-0.11002517
-0.08242581
-0.026235955
0.04819123
0.13462536
0.1900328
0.18519008
0.15725277
0.103976004
0.045963198
0.02363515
4.0976802E-4
-0.012116407
0.0050603375
0.04336126
0.11379162
0.14067316
0.10313475
0.077775344
0.044992987
-0.004409706
-0.029740311
-0.052994177
-0.09359921
-0.13383193
-0.15494221
-0.150163
-0.14057632
-0.14888631
-0.15765934
-0.138295
-0.09780689
-0.055598605
-0.015542834
0.02691024
0.06845807
0.09322985
0.09685262
0.089790136
0.08141678
0.07718786
0.08001355
0.082313366
0.06877978
0.047299944
0.03256729
0.02356699
0.01973226
0.012390162
0.004613685
7.7131175E-4
-0.015308833
-0.023881944
-0.012551107
-0.010411606
-0.0131781725
-0.01578748
-0.025010066
-0.027571326
-0.035208803
-0.04438005
-0.026207441
2.984753E-4
0.017080026
0.029933976
0.030148664
0.023985805
0.019236198
0.0050900257
-0.014260841
-0.020491008
-0.011338569
-0.009799768
-0.010505347
0.009212947
0.012258077
-0.019762358
-0.0446315
-0.043074254
-0.025492525
-0.021504732
-0.029477544
-0.014326194
-5.9162907E-4
-0.0071886377
-0.0066698217
0.0026260004
0.008162947
2.0709906E-4
-0.0020033335
0.018919284
0.029642891
0.030476322
0.03667151
0.023389798
2.054613E-4
-0.0054977024
6.8912347E-4
0.00939719
0.010923876
-0.0062826755
-0.025438536
-0.028321747
-0.031441882
-0.030809123
-0.010186367
0.016788086
0.046793055
0.073753856