-0.023378508
-0.02015953
-0.014333598
-0.009893495
-0.0046204133
0.0025309366
0.010085919
0.017326565
0.022788819
0.025544785
0.026116613
0.022309663
0.015839824
0.017639853
0.02742921
0.031701196
0.028118068
0.02564154
0.027943878
0.028813623
0.027165381
0.027180625
0.02225059
0.010761374
-0.005311257
-0.030117327
-0.04645758
-0.041355
-0.03444804
-0.036432862
-0.04259258
-0.04779035
-0.04465249
-0.037466448
-0.034040343
-0.031575426
-0.026979802
-0.021799881
-0.019194098
-0.016689012
-0.009962784
-0.0043997406
-0.00269933
0.0019388831
0.008786903
0.013214495
0.018383346
0.023752842
0.026413038
0.030769723
0.036023572
0.033084746
0.02140875
0.015175545
0.021836694
0.030091118
0.03564646
0.040089384
0.037309542
0.033748288
0.036182385
0.034019634
0.021836068
0.0069935997
-0.0012989609
-0.0056086774
-0.01689149
-0.034527224
-0.048670985
-0.052111015
-0.048862975
-0.046329588
-0.04266046
-0.03806513
-0.028639283
-0.0097969975
0.005086243
0.009763323
0.010490327
0.0073743463
-4.6677553E-4
-0.011897076
-0.02244437
-0.031237243
-0.03633256
-0.0272406
-0.0077292346
0.010666439
0.024165506
0.030869376
0.034766402
0.035892203
0.033330332
0.030821668
0.024756309
0.020206721
0.023686685
0.02349032
0.010411126
-0.010033616
-0.022024548
-0.023070151
-0.027749725
-0.031291418
-0.021974979
-0.0045191813
0.013391334
0.02633499
0.038126707
0.051541407
0.054944813
0.042011272
0.016567703
-0.012504795
-0.034744494
-0.0488623
-0.05366782
-0.049862787
-0.04546949
-0.035148248
-0.014974044
2.7942104E-4
0.008377163
0.017100701
0.021839345
0.02270757
0.02482395
0.022987576
0.012773469
-0.0019234149
-0.017778898
-0.03638064
-0.056361906
-0.06763021
-0.05923884
-0.034279283
-0.0077890437
0.017368972
0.04062654
0.04908528
0.04775056
0.046514735
0.04051575
0.035725437
0.03301618
0.026072675
0.018662453
0.0053840238
-0.012877547
-0.023996945
-0.02396802
-0.009427378
0.007744698
0.013041084
0.015732659
0.0191184
0.017507337
0.013848832
0.010032556
0.0027592508
-0.011032595
-0.028254172
-0.04359038
-0.050146528
-0.04374913
-0.031068519
-0.016476052
-0.0048175366
5.6530605E-4
0.0058213715
0.007979974
0.006870174
0.0048664617
-0.0036805207
-0.0053718276
0.0063874703
0.013810368
0.014407969
0.014957435
0.01340464
0.008541276
0.0034466349
-0.002940045
-0.012241116
-0.017046984
-0.016860172
-0.014573678
-0.010180551
-0.010786694
-0.011807672
-0.008528032
-0.008478589
-0.008303533
-0.002787738
0.008781548
0.020937178
0.025749587
0.027806496
0.026757123
0.023592813
0.02384275
0.01916668
0.008202456
-0.0033705975
-0.008108898
2.2673559E-4
0.008603599
0.016495284
0.032770835
0.042409167
0.03788458
0.026789024
0.012858101
-9.887316E-4
-0.01394039
-0.024499245
-0.033101425
-0.042617112
-0.047211036
-0.040751893
-0.030878393
-0.026586488
-0.023491465
-0.019474108
-0.018861676
-0.017795889
-0.014521902
-0.012571518
-0.013046203
-0.015103691
-0.013617368
-0.010344834
-0.011705256
-0.014057404
-0.013974795
-0.0124034835
-0.008485221
-6.6851574E-4
0.0074682534
0.01227155
0.022162221
0.034794617
0.035949845
0.032072023
0.031790204
0.034318525
0.04300661
0.05380399
0.05737663
0.05072295
0.042280953
0.039230604
0.032018613
0.02091892
0.0155424755
0.008836238
-0.0037006047
-0.01475612
-0.019751795
-0.019150639
-0.017417697
-0.022933923
-0.04171465
-0.06569636
-0.078990996
-0.07371724
-0.05590128
-0.04017849
-0.032484103
-0.029445842
-0.02432232
-0.013307601
-0.006273136
-0.003710174
0.00509201
0.015811948
0.022563392
0.025761416
0.028485218
0.03288487
0.03302883
0.029622534
0.02419011
0.01475764
0.007167006
0.002831006
0.0017375015
-0.0015194331
-0.012874794
-0.016501483
-0.009891328
-0.007559605
-0.008962008
-0.011988194
-0.010841616
-0.0012940256
0.008668109
0.017571716
0.026107164
0.034890354
0.04238516
0.03909738
0.026643688
0.013819573
0.0061485223
0.005787733
0.007643949
0.009153783
0.008292585
0.0032123793
-0.0025515666
-0.009288387
-0.01535282
-0.017085673
-0.018833356
-0.025654033
-0.036884427
-0.049455695
-0.06113929
-0.06360453
-0.050163012
-0.030583128
-0.015387823
-0.0074400157
-0.0033312198
0.0066487724
0.022875912
0.036799844
0.042695034
0.04222411
0.041860793
0.041509718
0.03628721
0.026486011
0.019716565
0.01809455
0.015306501
0.009964111
-0.0029040547
-0.020357959
-0.025842069
-0.024314236
-0.024903305
-0.023634117
-0.023167443
-0.022095505
-0.018030962
-0.014272521
-0.011519851
-0.011363172
-0.0106513
-0.006824343
-0.0039875885
-0.0030443426
-0.0013568815
0.0070458795
0.024328018
0.045738652
0.06551727
0.074011885
0.07018734
0.06459952
0.0582814
0.04544736
0.025631445
0.0012749146
-0.025416957
-0.055147972
-0.085873246
-0.10474775
-0.103458464
-0.08877454
-0.06955281
-0.054530267
-0.045838702
-0.034156904
-0.019301513
-0.007355625
0.0021480902
0.009590687
0.01725591
0.024977248
0.029394185
0.0359237
0.046349045
0.053598784
0.062001463
0.07806946
0.0917819
0.093099006
0.080164865
0.054404665
0.026962431
0.0049368474
-0.015960021
-0.03546664
-0.05026823
-0.058721296
-0.06506041
-0.07419003
-0.075855665
-0.06473355
-0.049296267
-0.032788128
-0.02155347
-0.020201517
-0.018222967
-0.008723462
1.8367534E-4
-8.325827E-5
0.0038373612
0.026696917
0.047489133
0.05194097
0.058990117
0.069010004
0.06951037
0.0664292
0.05827793
0.036242444
0.008012235
-0.012617596
-0.02213396
-0.027525896
-0.031587306
-0.030236956
-0.026861329
-0.028457113
-0.039787132
-0.060007878
-0.077676505
-0.087401256
-0.08711681
-0.0710634
-0.053442404
-0.046268817
-0.03292585
-0.0038317314
0.029914282
0.056044802
0.07111121
0.07622959
0.06638218
0.04190449
0.020520357
0.023859436
0.049247604
0.06719734
0.06399469
0.050462425
0.047792282
0.07712354
0.115505755
0.12224757
0.099453785
0.061808284
0.012735022
-0.045608465
-0.10319626
-0.14130455
-0.1565259
-0.15074503
-0.12797986
-0.108440176
-0.09300936
-0.066778556
-0.033867415
-0.007462751
0.004766247
0.008693242
0.012800907
0.015351972
0.016939146
0.020363577
0.024567233
0.026561577
0.02456732
0.020766087
0.016184768
0.013361136
0.017291406
0.024514921
0.027824646
0.02754865
0.024970168
0.020137
0.017850067
0.015029809
0.005488633
-0.003110412
-0.009386451
-0.017240353
-0.022232343
-0.02608703
-0.025968999
-0.016590137
-0.003040806
0.01873714
0.04846665
0.07080433
0.081847526
0.08848098
0.091612116
0.08202416
0.057622653
0.026126452
-0.017290132
-0.06641646
-0.09825773
-0.114310175
-0.11919082
-0.10336745
-0.075415276
-0.050033625
-0.030835927
-0.019462956
-0.011614216
-0.0028593724
0.0033273948
0.006070042
0.011151455
0.019843986
0.02483394
0.023852302
0.021912603
0.020063672
0.017306833
0.015182027
0.0148728015
0.014070733
0.008410066
-0.0029349888
-0.014261641
-0.019165242
-0.018987035
-0.014922712
-0.0049092495
0.00569675
0.0125281215
0.01629514
0.015741272
0.011341709
0.0052917325
2.0292329E-4
-0.0053030397
-0.008892713
0.0010519562
0.019567048
0.03731847
0.057542656
0.06994688
0.0684258
0.06405177
0.05373447
0.030906044
0.0075806654
-0.009809367
-0.034150254
-0.06322637
-0.07874576
-0.084126376
-0.08797574
-0.08140555
-0.059160046
-0.03218041
-0.01332466
-0.002195656
0.0025316894
0.001497011
0.002500081
0.004136084
0.0037611441
0.0033195657
-3.383233E-4
-0.0015716039
0.0066602076
0.01998846
0.03254217
0.04198093
0.04808445
0.046959076
0.03781853
0.026408276
0.015927227
0.007958029
0.0010929784
-0.0036715728
-0.00575188
-0.010691837
-0.015130276
-0.017061997
-0.020309016
-0.021647202
-0.023255583
-0.027181994
-0.025718775
-0.017056335
-0.009547042
-0.006786285
-6.6147756E-4
0.0075106244
0.0070453957
0.0011701472
-0.003889474
-0.008104978
-0.009425832
-0.002957905
0.01400144
0.031630713
0.04075132
0.046230167
0.049361352
0.048080914
0.046506055
0.04399892
0.03644071
0.024294946
0.005025796
-0.025670256
-0.058655106
-0.0741567
-0.06822838
-0.059686188
-0.056742243
-0.050235786
-0.04061053
-0.031559095
-0.022413531
-0.015582875
-0.010309135
-0.0057718162
-0.002345341
-8.679073E-5
-0.001464034
-0.003361462
-0.0017538492
0.004788355
0.016228072
0.026597083
0.040047448
0.06339751
0.084198505
0.092740946
0.09235629
0.08516949
0.074072435
0.06158249
0.046224188
0.025195293
-0.006307924
-0.04530779
-0.07863472
-0.100358136
-0.1093272
-0.10617606
-0.097476415
-0.08220312
-0.06274952
-0.04817976
-0.03500465
-0.022806967
-0.013297313
-0.0021714563
0.007159488
0.013077908
0.01629466
0.01849345
0.023707619
0.027560875
0.028833417
0.027399661
0.028114697
0.047299076
0.07378281
0.08464077
0.08558889
0.08807788
0.09076309
0.083703056
0.06564833
0.04275285
0.0110252
-0.025140053
-0.060746204
-0.10294588
-0.13520852
-0.12901327
-0.09040195
-0.052330606
-0.033276465
-0.025768537
-0.02228077
-0.02326261
-0.026728319
-0.029962998
-0.030942088
-0.026979841
-0.017623667
-0.0073805046
0.0022524511
0.014039702
0.022866037
0.025552824
0.027938742
0.033670515
0.04371329
0.051877655
0.05308733
0.05319804
0.04944333
0.04002546
0.033854563
0.028108705
0.019412994
0.010861336
0.002472182
-0.0010476082
0.0015255375
0.009120394
0.019922465
0.019466236
0.0066701127
-0.002711797
-0.00918502
-0.021200253
-0.03748358
-0.0500026
-0.05321873
-0.05320768
-0.058162175
-0.066092715
-0.06785393
-0.061564773
-0.056406293
-0.052123588
-0.039259057
-0.017558979
0.007224817
0.027449958
0.03716775
0.038941525
0.036315005
0.03153473
0.031725623
0.03897824
0.04315429
0.038869575
0.03766467
0.049847506
0.06681982
0.07620229
0.07610846
0.06781269
0.053411454
0.036568936
0.017100018
-0.006599615
-0.027979977
-0.0433627
-0.06438679
-0.086702175
-0.08810004
-0.07365733
-0.059483107
-0.045074586
-0.030916877
-0.018168764
-0.006071928
0.0032031217
0.0074989754
0.0049828948
5.03557E-4
-0.0013882284
-0.0057451753
-0.014311691
-0.021642312
-0.022715496
-0.017533436
-0.0146229
-0.020604873
-0.025412496
-0.01811448
-0.005917143
0.0032896034
0.011048729
0.01825174
0.024308126
0.03103606
0.043696202
0.057829965
0.063340016
0.06668649
0.07399901
0.07619527
0.069035545
0.059632543
0.04502231
0.013423744
-0.017268037
-0.022856785
-0.017230732
-0.015386232
-0.016815148
-0.023024853
-0.031140696
-0.034994546
-0.028064873
-0.014051529
-0.007820553
-0.016690427
-0.034702934
-0.04646334
-0.049521133
-0.055685624
-0.06719881
-0.07719493
-0.07425953
-0.059172295
-0.04156863
-0.022333188
-0.009929204
-0.004793572
0.0025138762
0.007814355
0.01430672
0.025710968
0.036134496
0.043156948
0.04215079
0.033570174
0.019356074
0.0054281973
0.009882881
0.03176336
0.05225543
0.0673539
0.08691333
0.111255765
0.13200682
0.14741237
0.14819717
0.12876937
0.09586936
0.051610157
0.012947782
-0.019343626
-0.06851813
-0.11670469
-0.14648621
-0.1734127
-0.19539009
-0.19998762
-0.18791565
-0.16974089
-0.14927709
-0.12511295
-0.10277249
-0.07447128
-0.038241796
-0.011496948
9.2848764E-5
-7.7517616E-4
8.7913417E-4
0.014986996
0.027367301
0.04992198
0.09964724
0.1512287
0.18138538
0.18701051
0.17217793
0.14872687
0.13169023
0.13916637
0.16206692
0.16527405
0.14577611
0.11807007
0.08175641
0.0458544
0.022315338
0.0031474875
-0.035829697
-0.107247
-0.194329
-0.28499028
-0.35511538
-0.34500203
-0.25549707
-0.15624954
-0.074413784
-0.0054096556
0.038244992
0.055063426
0.052555624
0.034162536
0.012194161
-0.009782459
-0.03626795
-0.05757093
-0.0633386
-0.039295208
0.019597547
0.07972197
0.115684174
0.1347225
0.14842768
0.16324398
0.17362675
0.1709169
0.1407287
0.0725293
-0.020592827
-0.12045482
-0.18804167
-0.19702016
-0.16642351
-0.101163566
-0.031115469
0.00989902
0.056210622
0.107051976
0.13225244
0.13675278
0.1138475
0.067765735
0.013535838
-0.04664294
-0.105934426
-0.14925453
-0.1355885
-0.06673202
-0.0036039653
0.050155222
0.10484974
0.12174215
0.094786935
0.051516686
0.002796805
-0.039091393
-0.05823252
-0.053115383
-0.032683436
-0.02454362
-0.048429996
-0.074538395
-0.07552433
-0.06447396
-0.06313711
-0.07234319
-0.061696056
-0.027910324
-0.006091407
-0.0020261446
-0.002371957
0.004803179
0.017674088
0.016400564
0.016199637
0.03516627
0.047731128
0.041985795
0.041452084
0.06548926
0.10140378
0.13116112
0.15497056
0.16500746
0.15797353
0.14039437
0.11167039
0.076409556
0.028222367
-0.04100326
-0.12485715
-0.2167515
-0.27744916
-0.27273268
-0.2316447
-0.17749837
-0.11901263
-0.08452804
-0.06813726
-0.037311073
0.0076929373
0.04018618
0.048999436
0.05362833
0.06203188
0.07189753
0.0998602
0.12699191
0.11967759
0.09550343
0.062463533
0.021565063
0.02349542
0.0933531
0.1715016
0.1906778
0.15960762
0.108331844
0.024480958
-0.06980316
-0.11219311
-0.11207892
-0.13365604
-0.17797227
-0.19657448
-0.18736103
-0.15010424
-0.070370555
-0.0072940127
0.0017643439
0.005373914
0.012255952
0.0047219316
-3.3701322E-4
5.9635285E-4
-0.0035198755
-0.016677544
-0.047546376
-0.08768582
-0.08975913
-0.034793112
0.035983164
0.100001894
0.15337516
0.17813501
0.17903885
0.16736233
0.13071515
0.060057323
-0.010737337
-0.037786003
-0.042244673
-0.040386528
-0.0036108983
0.038099095
0.045394946
0.032763824
-0.0065865256
-0.069602214
-0.107778564
-0.102373704
-0.07353557
-0.04584585
-0.037624642
-0.04216718
-0.044475514
-0.044829298
-0.040199663
-0.024140459
8.7558356E-4
0.029840846
0.056578133
0.07459436
0.07721243
0.06302666
0.036066744
-0.0019395829
-0.031330436
-0.031512823
-0.017608734
-0.0056767566
0.0023395598
0.0014478856
-0.0038886783
-0.008543955
-0.017378457
-0.028246885
-0.03135591
-0.025965245
-0.017904159
-0.006618759
0.0061092926
0.015832016
0.02406751
0.032105412
0.041581046
0.047673345
0.046276953
0.04471878
0.03822917
0.022936592
0.006656766
-0.012203132
-0.026888624
-0.0313788
-0.035303257
-0.036497973
-0.03249595
-0.026821073
-0.018392717
-0.013645
-0.011919376
-0.004832467
0.0035420076
0.009376874
0.013485899
0.013604102
0.010238609
0.007236912
0.0058624563
0.003654069
-0.0025990265
-0.01279696
-0.020725528
-0.022590656
-0.022862284
-0.021662654
-0.016247671
-0.00980666
-0.0039746296
1.6316974E-4
0.0010481898
0.0017778404
0.0055780835
0.013326879
0.022073172
0.027031895
0.025512803
0.017611636
0.01349583
0.020261185
0.03061133
0.04158776
0.04828034
0.045655895
0.04609248
0.051390953
0.050325226
0.034251675
-0.010244599
-0.067713045
-0.09852629
-0.095426835
-0.07323028
-0.04552299
-0.025920568
-0.016882477
-0.012554842
-0.010174378
-0.010592121
-0.013541486
-0.016642721
-0.01744804
-0.013118278
-0.0059844884
3.5852153E-4
0.0071749557
0.013919052
0.019882997
0.02462808
0.025906954
0.023288822
0.020047309
0.020953901
0.023755437
0.024767311
0.02342027
0.018950365
0.01506169
0.009972039
0.002277501
-0.0022766506
-0.0063731633
-0.007256265
-0.0017560775
-4.5401393E-4
-0.0038019582
-0.0065112943
-0.008358864
-0.009287029
-0.010870419
-0.010919783
-0.009483019
-0.0074554803
-0.0020693883
0.0027443327
0.002983907
-5.376554E-5
-0.0033161575
-0.006071005
-0.011959349
-0.018437611
-0.01986359
-0.016022312
-0.008991432
-0.0015696058
0.004345813
0.008014236
0.00995512
0.0094649065
0.0066654156
0.004469372
0.0019998455
0.0022287322
0.008090252
0.011976695
0.011665625
0.01070394
0.0073023182
0.0019305176
-0.0012700827
-0.00456065
-0.009376737
-0.008244582
-0.0013048792
0.005219519
0.009110482
0.010557111
0.011538863
0.0043084095
-0.006673013
-0.007461039
-0.011764011
-0.018485289
-0.013781716
-0.008017052
-4.7346938E-4
0.0074208737
0.0072535365
0.006415776
0.0031347994
-0.0019041054
-0.0018566223
2.946127E-4
0.0055722794
0.008567681
5.7351106E-4
-0.009761785
-0.010686348
-0.004453471
3.8342326E-4
0.0012260829
-4.1589013E-4
2.624858E-4
0.0049595945
0.009717464
0.013751709
0.013079218
0.0057966495
-0.004641439
-0.015263734
-0.018269386
-0.015523244
-0.011776555
-0.0025233896
0.006941101
0.01109118
0.011742367
0.010007611
0.0077054724
0.0032620053
-0.0018674424
-0.004016533
-0.003539852
-8.695026E-4
0.0026874696
0.005445947
0.004818988
0.002717269
0.002657931
4.3361986E-4
-0.005838067
-0.012503232
-0.012792173
-0.005910657
-5.706698E-4
0.0014739787
5.644366E-4
-8.764734E-4
0.001078537
7.626624E-4
-0.0012394717
-0.00412387
-0.007763233
-0.0029769198
0.0042004846
0.006367059
0.006908117
0.003260485
-6.1617326E-4
-0.001369143
-0.0030054054
-0.004221753
-0.0035479395
0.0010013102
0.0065305587
0.007233088
0.0073152045
0.00787536
0.00614118
0.003766433
-0.0014091005
-0.009342081
-0.012905051
-0.009709885
-0.0040013976
7.876013E-4
0.0030733596
0.0020666646
-5.601388E-5
-4.201193E-4
-6.6126767E-4
-0.0036927573
-0.0059935804
-0.0021938258
0.0039404216
0.0055036587
0.004869155
0.006222866
0.0059997714
0.0027359142
-5.0548214E-4
-0.0036415807
-0.003713121
0.0020329156
0.008028998
0.009900824
0.007878446
0.0032781688
-7.7393965E-4
-0.0032304616
-0.006372569
-0.009880508
-0.009766574
-0.0051155076
-1.0690716E-4
0.0010619785
-1.4734344E-4
2.6087512E-4
-3.0547232E-4
-0.0030945367
-0.005762297
-0.010237148
-0.01140237
-0.0057598436
-5.5335485E-4
0.003189744
0.004668282
0.00352818
0.005094471
0.0064496826
0.003946913
5.701005E-4
2.4144608E-4
0.0028437208
0.0033865925
0.003446672
0.0050018993
0.0040553757
-3.253025E-4
-0.0059174947
-0.008125098
-0.0067455196
-0.003305477
0.0038120723
0.010987031
0.01626723
0.018004917
0.015591753
0.014239781
0.010989401
0.004844162
-0.0030499168
-0.016789207
-0.02670032
-0.024520949
-0.016080437
-0.007063666
-0.0011491798
0.0022802025
0.001711144
-0.0027164016
-0.004551597
-0.004856453
-0.0035225847
0.0014926894
0.004494802
0.0034105536
9.1995817E-4
-0.0013168973
-0.0028510746
-0.0036673786
-0.0036517899
-0.0020175632
0.0033074373
0.008543484
0.009862416
0.009719567
0.008170164
0.007515785
0.007921401
0.0027265304
-0.0056338203
-0.009689844
-0.007381668
-0.0015653302
0.002232886
0.0034625141
0.0024067147
-8.288774E-4
-0.001510038
-0.0019249262
-0.0056739515
-0.006512364
-0.003539776
1.5380976E-4
0.00563063
0.008921429
0.0072891847
0.0041987034
0.0026751375
-1.433508E-4
-0.011154775
-0.018671349
-0.009383521
0.0010642706
0.0043699606
0.006640962
0.0046332683
0.0016862925
2.7309588E-4
-0.0037184714
-0.006308684
-0.0068890024
-0.005327669
0.0014605117
0.0067804446
0.0074328193
0.0075010103
0.00556113
0.0014835028
-0.0029147041
-0.007795742
-0.008613573
-0.0028678707
0.0038839653
0.0062267906
0.004291533
0.0035216475
0.004213233
0.0019408514
-0.00111284
-0.0035992537
-0.0059296032
-0.0051416387
-0.0012095158
0.002167535
0.0011684028
-5.8015785E-4
0.0012087517
8.790493E-4
-0.0031313824
-0.007711274
-0.010371958
-0.0064328276
9.133964E-4
0.004989995
0.0062090936
0.0065657184
0.0046421173
4.939666E-4
-0.0020393054
-0.004685869
-0.007256585
-0.004745178
-4.3360556E-5
0.005141325
0.008930178
0.007962187
0.0075633167
0.008425897
0.006745196
0.0020962723
-0.0033296668
-0.002957773
0.0015122998
0.0035502447
0.0038784572
0.0031910392
-0.001029718
-0.008763417
-0.013457026
-0.013552661
-0.0134847695
-0.010914543
-0.005757262
-0.001218747
0.0010553102
2.9489605E-4
8.234273E-4
0.0014294775
-0.0012952976
-0.0047113057
-0.0070313555
-0.0035011824
0.0051481463
0.011129245
0.013037833
0.0113392705
0.008525038
0.007440992
0.006140168
0.0037108609
7.691653E-4
2.6216466E-4
0.003748587
0.005835713
0.0035032623
7.686862E-4
-2.1017899E-4
-0.0018064489
-0.004782783
-0.009901155
-0.016167073
-0.015371766
-0.006453965
-0.0011630196
-0.004139944
-0.0055604167
-0.001264289
-2.1217475E-5
-0.002847771
-0.004473783
-0.004574733
-0.0025703714
-5.7460374E-4
0.0011273961
0.003901258
0.0052742916
0.007372825
0.0078001004
0.0036380452
9.5360074E-4
-0.0012942177
-0.0015373797
0.004868804
0.009931587
0.009556661
0.006889287
0.0038366823
0.0017945706
-2.2747228E-4
-0.0018230367
-0.0038637808
-0.0053427625
-0.0017360274
0.0023979505
0.0037290123
0.004247491
0.0019150255
6.717889E-5
-4.6489658E-4
-0.0058106636
-0.010811003
-0.008828386
-0.004020177
4.8058847E-4
0.0026791235
4.6751597E-5
-0.0028103923
-0.0025831945
-0.0040766695
-0.007623004
-0.009494744
-0.010036973
-0.007707647
-0.0014274482
0.0031327454
0.0024130554
8.5278443E-4
0.002262747
0.0030298948
-4.5616465E-4
-0.004441852
-0.0029484953
0.0037893434
0.009525546
0.011289023
0.011293009
0.010455511
0.00812599
0.004576291
0.0015546855
-4.071536E-5
-1.7492578E-4
0.0028345066
0.006069654
0.0052367263
0.0036321692
0.0032337867
0.001803312
-0.001547818
-0.007084729
-0.010965023
-0.008156376
-0.002001118
7.198537E-4
1.973643E-4
-0.001206805
-0.0041522044
-0.005821847
-0.006255116
-0.010606113
-0.014113313
-0.010886389
-0.0047613755
8.1824797E-4
0.0035649764
0.0031750486
0.002931711
0.0021509666
-0.0014452512
-0.0054216674
-0.005598806
-0.002366189
0.001091691
0.0052480735
0.009638107
0.010991379
0.009179762
0.006353279
0.004635359
0.0023235218
-0.0017670612
-0.0012896024
0.0035987534
0.005937921
0.0064221397
0.0059252926
0.004793388
0.004731487
0.0019292516
-0.0025942274
-0.0050739627
-0.007210641
-0.0062641157
-0.0016077268
0.0014474085
0.0023528202
0.0010144889
-0.0025146587
-0.0061003184
-0.010182296
-0.0126895
-0.011034563
-0.00702268
-0.0017703288
0.0020407573
0.0015112554
2.6674732E-4
0.0016484496
0.0026156837
-9.762173E-4
-0.005372645
-0.0033012857
0.0014438623
0.005483822
0.010781844
0.010529603
0.0068626595
0.007901484
0.005953909
4.549868E-5
-0.002537487
-0.0027472642
-3.1046104E-4
0.0025904307
0.0026349532
0.0027659398
0.0031157134
0.002566233
4.4566486E-4
-0.0047623087
-0.009147855
-0.009090412
-0.0061738063
-0.0014852457
0.0022617558
0.0014892204
-0.0017023048
-0.0034030166
-0.0031375333
-0.0044540213
-0.0076597077
-0.00645341
-0.0024540727
-1.8463224E-4
0.0020630383
0.0017568568
0.0014239288
0.005010571
0.005390577
0.0016945072
-9.193008E-4
3.565428E-4
0.0049052057
0.0070027085
0.007870735
0.008546559
0.005288257
0.0030476796
0.0038616748
0.0023601395
-0.002421066
-0.00640471
-0.004703722
-2.6300448E-4
5.407851E-4
-3.4337107E-4
-4.2976163E-4
-0.0019688304
-0.004157129
-0.007941132
-0.015160305
-0.014477639
-0.001849539
0.006173125
0.0041190526
8.501032E-4
0.0014774214
0.0038807474
0.002121464
-7.605572E-4
-0.0019214755
-0.0042549474
-0.0023261674
0.0032043916
0.0044612596
0.0038558294
0.0041483585
0.0037476234
0.0025359886
1.15144954E-4
-0.0027224906
-0.0022519366
0.0015733659
0.002917895
0.0023108379
0.004194391
0.004663806
0.0014411417
-0.0014849802
-0.0035110482
-0.0051407223
-0.004361732
-6.7888835E-4
0.0028867903
0.0033774935
0.0024538964
0.0026736346
0.0030996883
0.002221359
-0.0019801557
-0.007447671
-0.0072581884
-0.0031440328
5.4056285E-4
0.0028463444
2.885885E-4
-0.001582476
4.3552072E-4
-0.0016147242
-0.005408975
-0.00812583
-0.0104360925
-0.0073220762
-0.0017425205
0.0022732678
0.0057105026
0.0065939855
0.0054786648
0.0041187815
0.0019748178
-0.0021099187
-0.004695451
-6.2334794E-4
0.0047654165
0.0066732215
0.0079118125
0.007882623
0.0056805043
0.0035183013
0.0016749061
-0.0019109597
-0.0049379305
-0.0037706387
-0.0015909551
5.5749615E-4
0.002642432
0.0015726836
6.5263885E-4
4.0912654E-4
-0.0036857263
-0.0075975345
-0.006472048
-0.002760217
0.0011532076
0.0039635906
0.0038085482
0.002272782
-3.9014712E-4
-0.0051377863
-0.0070813606
-0.0062849647
-0.0056895236
-0.0021889952
0.001434846
0.0022860044
0.0033848363
0.0030869711
5.4619944E-4
-9.854014E-4
-9.1754214E-4
-0.0020878594
-0.0045905076
-0.0032554534
0.0023326545
0.00707268
0.008288729
0.0066532106
0.004216784
0.0015938878
-1.3068524E-4
-0.0012877582
-0.0025079316
3.6652933E-4
0.004803678
0.0054341047
0.0042949896
0.001199419
-0.0016182793
-0.0019394542
-0.0052788206
-0.009577114
-0.009736
-0.006871431
-0.0010348842
0.003933848
0.004370613
0.0033853815
0.0015436225
-7.326514E-4
-0.0017512514
-0.0032635783
-0.003253396
7.8749383E-4
0.0051256386
0.0073427805
0.007456493
0.005561498
0.0035281833
0.002170696
-1.6025595E-4
-0.0036628214
-0.0051083537
-0.0029308992
4.5166144E-4
0.00262103
0.002426918
0.0011616027
1.6066556E-4
-0.002473539
-0.0068548517
-0.009995424
-0.0107749095
-0.009607133
-0.0057719117
-0.0016791177
-9.6686755E-4
-3.7306652E-4
0.001868854
0.0029998568
0.0031884261
0.0019487265
8.735072E-4
0.0024669399
0.004694193
0.007123785
0.008654376
0.008413709
0.007769709
0.005615961
0.002611008
-0.001057296
-0.00398798
-0.002337542
6.906916E-4
0.0025168676
0.002966016
0.0017808685
0.0026815732
0.0020782156
-0.0036938475
-0.008868203
-0.010984356
-0.008441067
-0.0019932014
0.0019206384
0.0027099487
0.0026138679
0.0016637996
-2.7145623E-4
-0.003073042
-0.0051493747
-0.0060683666
-0.0051049767
-0.0013961047
0.0021454655
0.0026412788
0.0018396969
0.003769331
0.004035578
-0.0021768392
-0.0067371153
-0.0068895
-0.0048336172
0.0012200413
0.0055403607
0.0065762163
0.0072488193
0.0054565524
0.0035402183
9.1399794E-4
-0.0034580561
-0.004868006
-0.0032845973
-3.5516956E-4
0.0024685168
0.0056422297
0.007822114
0.005046382
0.0032750855
0.0019632513
-0.003853224
-0.006047552
-0.0035173574
2.5365734E-4
0.0042900196
0.0042289966
0.0030250733
0.0032835936
0.0013445051
-0.004253976
-0.008901235
-0.009198286
-0.011631055
-0.011202228
-9.5060177E-4
0.0055041392
0.005222324
0.0053834417
0.0042961435
0.001075918
-0.0044315727
-0.008202766
-0.006861042
-0.002031482
0.0051095947
0.008551283
0.0080205705
0.0072510503
0.0043132664
0.0013801303
-0.0017081378
-0.0049237544
-0.004152546
-0.0017911193
3.9879224E-4
0.0012710015
7.276221E-4
0.0023465313
0.0030316818
2.9915225E-4
-0.004181922
-0.008247884
-0.00698476
-0.0012685322
0.004373522
0.007225576
0.0061344593
0.0036117572
6.1240385E-4
-0.0012890074
-0.0024944511
-0.0064062416
-0.0062249177
0.0010921267
0.006769794
0.006971162
0.0028140764
1.095279E-4
0.0015271168
2.55827E-4
-0.003542271
-0.006722587
-0.008439644