0.0033597173
0.002315799
-1.2209976E-5
-0.0015909399
-0.0023920336
-0.0017061705
-9.066918E-4
-0.0011976627
2.8656973E-4
0.002481759
4.7938203E-4
-0.0020595014
-9.445233E-4
-0.0014447718
-0.003068204
-0.002214617
-8.331317E-4
0.0012773753
0.0017638538
1.1063163E-4
7.2143675E-4
7.180165E-4
-0.0016589222
-0.0021864555
-6.712409E-4
-8.9850917E-4
-0.0024378425
-4.0084028E-4
0.002324248
0.0018621213
0.0015369285
7.8315876E-4
-6.6081446E-4
-8.919249E-4
-6.7650736E-4
-6.477065E-4
-0.0017285822
-5.808853E-4
0.0028200313
0.0027968595
0.0025026752
0.003802433
0.0028738352
7.550828E-4
-4.0126735E-4
-8.508435E-6
-0.0011232112
-0.0038803923
-0.0015336373
0.003182962
0.0033116408
0.0012029051
-0.0012159866
-0.0019385224
9.844555E-4
0.0012299592
-0.001362147
-7.0108543E-4
5.45358E-4
7.5565017E-4
-3.5005648E-4
-0.0044896663
-0.0068381648
-0.004623418
4.6129213E-4
0.003738308
0.0012096621
-8.536713E-4
7.8475085E-4
0.0019005676
0.0011280213
-2.2531254E-4
-4.5456784E-4
-0.0016056049
-0.0024522871
-8.3224056E-4
-7.7242334E-4
-5.7133625E-4
0.0010784133
0.001823644
0.0015762514
-8.5824594E-4
-0.0019823299
-0.0011359394
-0.0010010557
1.7579309E-4
0.0011839062
0.0020725038
0.0024215728
0.002851552
0.005574414
0.0043474734
3.274087E-4
-0.0012887877
-0.0021582735
-0.0014027108
-0.0013276924
-8.1395975E-4
0.0023845187
0.0033818476
0.002453404
4.404014E-4
-0.0011980225
-0.0021820671
-0.0041365335
-0.0026138148
-0.0020397191
-0.0038488498
-0.0013848871
5.085849E-4
0.0016312349
0.002238019
-0.0016311997
-0.004008486
-0.0040360587
-0.003630783
-0.0016001153
7.837431E-4
0.004269398
0.0051923413
0.002907201
0.0025111106
0.0014476285
-1.7107019E-4
3.953608E-4
-7.53265E-4
-0.002704957
-7.086219E-4
0.0020216282
0.0014270188
5.963583E-4
6.278861E-4
-5.389425E-4
-0.0022446238
-0.0029103057
-0.0016306646
-0.0013279369
-0.0019577916
9.3896687E-4
0.003058293
0.0025013098
0.0036897128
0.003430951
6.819695E-4
-7.5658056E-4
-8.7698316E-4
-6.2524155E-4
-1.6145503E-5
0.0017174702
0.0027455795
9.1921363E-4
-0.0015584324
-0.0034629453
-0.0039879307
-0.0026281732
-9.6997333E-4
9.918096E-4
0.0014012888
3.0382228E-4
0.0014236289
0.0012116549
-0.0018833954
-0.0024051229
-0.001779614
-0.0027137278
-0.0021961837
1.8518361E-4
0.0012677042
0.0014430253
0.0034086965
0.0038173178
0.001113623
6.7239313E-4
5.9101486E-4
-0.001635882
-0.0016128533
-0.0016922934
-0.002834112
-1.8491714E-4
0.0025724384
0.002787164
0.0023794288
-9.4815134E-4
-0.0037449293
-0.0015630173
0.0010698842
0.0012795803
-1.6157606E-4
-7.646768E-4
0.0013500187
0.0021619103
1.4252609E-4
-0.0012122674
-2.3133372E-4
0.0011777213
3.6290454E-4
-3.164207E-4
1.2522323E-4
-1.19268385E-4
0.0012473844
0.0027135338
0.0016154038
5.65451E-5
-0.0015292633
-0.0024620546
-0.0025188762
-0.0033882149
-0.004610625
-0.0025230104
0.0039452366
0.0057210517
4.4114413E-4
-0.0025426615
-0.0030075775
-0.002188675
4.265016E-4
3.974795E-4
2.8124357E-5
0.0019040817
0.0037065784
0.004254406
0.0020554762
-8.801095E-4
-0.0024487881
-0.0021090787
-8.1111916E-4
-0.0013711165
-9.348565E-5
0.0018977185
0.0011153325
0.0028101343
0.0032200168
7.200961E-4
0.0010185014
3.5376738E-6
-0.0014746317
-0.0014178349
-0.0023731706
-0.0016170354
-0.0019356521
-0.0027246287
2.6870272E-4
0.0017730728
0.0011478976
4.001125E-4
-3.5695793E-5
0.0010203724
3.740981E-5
-0.0011937359
-3.983238E-4
-1.1965362E-4
5.652494E-4
-4.973708E-4
-0.002275826
-0.0020449732
-0.0036074198
-0.0027142353
0.0016245476
0.0024014586
0.0031749096
0.0037677074
9.545439E-4
5.661135E-4
0.0010418361
-2.3108834E-4
-1.4043238E-4
-8.3223067E-4
-7.255462E-4
0.0017040191
0.0018472944
0.0010029265
7.82946E-4
-2.8988952E-4
-0.0012703529
-0.00182261
-0.001997384
-0.0013295399
6.904438E-4
0.0016605768
7.7942613E-4
0.0020363631
0.0018985978
-8.835131E-4
-8.079256E-4
-0.0015428024
-0.0023265867
6.5279266E-5
-1.8440782E-4
-0.0013449757
-4.483641E-4
4.89458E-4
0.0015066455
6.4595795E-4
-0.0010037563
-0.0018690143
-0.002885728
-0.0022312468
-7.259703E-4
8.3428994E-4
0.0026749729
0.0030211867
0.0021411055
3.973243E-5
-0.0011228605
4.7837844E-4
8.226567E-4
6.095662E-4
0.0011317537
-5.8631663E-4
-1.1383976E-4
0.0034401321
0.0027409238
2.55421E-4
1.3338366E-4
-6.141318E-4
-0.0016358389
-0.0019468035
-0.0017788396
-3.3292494E-4
0.0014260687
0.0023440153
0.0014426355
4.6262267E-6
-0.002725967
-0.007257133
-0.0046907207
0.0013914548
8.654801E-4
0.0018534345
0.0047521465
0.0028687536
9.18079E-4
8.9400324E-5
-6.310086E-4
-0.0015214395
-0.0025752347
-0.0016025939
-9.1124955E-4
-4.296289E-4
0.0010589845
0.0015709575
0.0010045642
-3.536214E-4
-1.4861225E-4
-1.5788453E-4
-0.0025701139
-0.0026134604
-0.0011787651
2.3842811E-4
0.0016222852
0.0017198339
0.0028878327
8.5875986E-4
-0.0038329614
-0.0032993495
-0.0017308316
-0.0017018593
1.3162644E-4
0.0026647153
0.004509314
0.0053359326
0.0056679407
0.0034453126
-0.0011338604
-0.0026807352
-0.0012408664
-9.2589464E-5
-4.362738E-4
7.8437675E-5
0.0019835795
8.093381E-4
-3.9532152E-4
3.7892073E-4
-0.0010978408
-0.0018337389
-7.6151005E-4
4.5228167E-4
0.0012094678
-0.0026627174
-0.005872305
-0.003021205
-0.0016367456
-0.0017878993
-1.2244743E-5
-7.0641394E-4
-0.0018816547
-7.560078E-4
-3.0458666E-4
7.412922E-4
0.0014126018
3.5071332E-4
0.0016931932
0.002746686
5.2711286E-4
-9.761208E-4
-7.211995E-4
0.0010456368
0.0023069975
0.0017341288
0.0031321691
0.0044750837
0.002780847
0.0016850891
0.0014337962
5.337094E-4
-0.0010469852
-0.0038629707
-0.00429962
-6.5678597E-4
0.0017655431
0.0012600018
6.58473E-4
-3.6863852E-4
-0.0026114283
-0.003311882
-0.0018838462
-0.0014253578
-7.208082E-4
0.0014985172
0.0019724015
0.0016222927
0.0014300803
-4.993492E-4
-0.0021686505
-0.0019548154
-7.272129E-4
-7.418894E-4
-0.0016142257
9.0589456E-4
0.0042604017
0.004355593
0.0023964157
-7.206347E-5
-0.001017691
-0.0016905536
-0.002173161
-3.923782E-4
7.708976E-4
0.0015188052
0.0024520054
0.0023520873
0.0022156087
-8.931888E-4
-0.0045474563
-0.0031132384
-2.8905197E-4
1.4908634E-4
-0.002205808
-0.0037051989
-0.0011377442
3.5651046E-4
-7.661819E-4
-0.0012496648
-0.0010460436
-0.0014524633
-0.0036191768
-0.0037526125
1.0561626E-4
0.0015111781
9.779454E-4
0.0040226355
0.006113876
0.004517313
0.0040071933
0.0028949522
8.6924975E-4
0.0027390635
0.0030955772
-5.7340146E-4
3.6231498E-4
0.0038957563
0.0027206724
-2.606683E-4
-0.0019663684
-0.0029247312
-0.0034514847
-0.004370214
-0.003686896
-0.0014563084
-0.0010306836
3.9934684E-4
0.002790533
0.0011647791
-0.0018474979
-0.004237098
-0.0054373797
-0.002515074
-5.3417614E-5
-6.611775E-5
0.0017121099
0.0026050883
6.851579E-4
-1.986178E-4
-3.4243218E-4
-0.002013699
-0.0018546343
9.919063E-4
5.5732415E-4
-0.001686168
-3.8143454E-4
0.0018257748
0.0031186526
0.0033390147
0.0012596506
-2.7605827E-4
-7.94289E-4
-0.0021560185
-0.0012291399
0.0013887236
9.042743E-4
6.4701255E-4
0.0028138598
0.003244449
0.0030607025
0.0020143106
-2.3123431E-4
2.2622591E-4
-5.2516384E-4
-0.0028162745
-0.0018435324
-2.0544899E-4
6.2763103E-4
-8.74872E-4
-0.0032894174
-0.002330129
-0.0010248359
3.8136557E-5
1.5231306E-4
-0.0012436679
-2.4290258E-4
2.0444945E-4
0.0010517269
0.0029208437
-2.6621792E-4
-0.0028829626
-0.0010973187
4.95916E-4
5.7578605E-4
-6.513473E-4
-5.0637824E-4
2.3434404E-4
7.855494E-4
0.0016192443
-6.854323E-4
-0.0015740333
6.908321E-4
-1.0334935E-4
-0.0016646587
-9.264128E-4
0.0014348364
0.003514663
0.002397981
-2.946575E-5
-9.13822E-4
-0.001093678
-0.0021408764
-0.0013925432
0.0017829527
0.00212893
3.9672863E-4
2.3047587E-4
0.0019118774
0.0031615905
0.0012615153
-2.8422946E-4
-9.038656E-4
-0.00224062
-0.00222931
-0.0024423518
-0.0011785534
0.0010614927
-2.610734E-4
-0.001272396
-0.0012699419
-0.0014147076
7.7149353E-4
0.002257228
3.605959E-4
-0.0020928583
-7.860649E-4
9.3882874E-4
-6.64347E-4
4.857908E-4
0.001896423
5.7155816E-5
7.204901E-4
5.399893E-4
-0.0019336767
-0.0017932255
2.267927E-5
0.002756247
0.0035331114
5.3755665E-4
-0.0016449365
-0.0017175974
-6.7128614E-4
6.174865E-4
0.0014663921
0.002518547
0.0019375688
0.0013673152
0.0036938242
0.003964234
9.6033944E-4
-0.0017018588
-0.0038206992
-0.0035785018
-0.002266915
-0.0029307636
-0.0022187522
1.4752925E-4
0.001515206
0.0016559261
8.144577E-5
-0.0013825229
-0.0018711442
-0.002662674
-0.0030962464
-0.0020817858
6.475128E-4
0.002353759
0.0019012868
0.001374253
1.0645627E-4
-7.8969164E-4
-2.5426003E-4
-1.5927653E-4
-5.693561E-5
5.3157966E-4
0.0031256531
0.0056119156
0.0015234742
-0.0046050977
-0.0056749103
-0.0045343814
-0.0035430114
-0.001239383
0.001835633
0.001625642
-8.3922996E-4
0.00110012
0.004264258
0.0029498795
0.0015902343
0.0022558395
0.0018692014
1.2380877E-4
-0.0013370009
-2.0477943E-5
0.0035845109
0.0053265425
0.005142401
0.0045908433
0.0028942586
9.997672E-4
-0.002333157
-0.006853112
-0.006856952
-0.0052725123
-0.006241478
-0.005011984
-0.0019022024
-2.410769E-4
-8.6006976E-4
-0.0022327038
-2.611518E-4
0.0011671903
-7.3310133E-4
-0.0010483616
1.8577055E-4
0.0024831728
0.0038027638
7.290016E-4
-0.0017065373
2.4049751E-4
0.003975882
0.004717487
0.0020708183
0.0017885896
0.0029021043
0.002861972
0.0020435967
-8.628125E-4
-0.0023637537
-0.0027760495
-0.0050404156
-0.00494798
-0.0030810253
-0.0021193048
-6.769683E-4
5.789603E-4
0.0014209399
0.0021399749
0.0016841843
3.2636148E-5
-8.9897186E-4
1.0097809E-4
7.357287E-4
-4.8139718E-4
-9.4135664E-4
0.0014116274
0.0031893482
0.0024858818
0.0038414022
0.0070495256
0.007800216
0.005923953
0.0027894634
7.701175E-4
1.0154493E-4
-6.898067E-4
-0.001280509
-0.0027688623
-0.004905012
-0.006339882
-0.006435444
-0.0047793323
-0.0041472428
-0.004107431
-0.0026633695
-0.0016247277
-6.56909E-4
-0.0018198617
-0.0057284213
-0.005149693
-7.257112E-4
2.8139373E-4
-0.0012961819
-0.0021106966
-0.0017087199
-1.0202572E-4
0.0011055481
0.0018522497
0.0033413009
0.003958265
0.0060715573
0.011628943
0.0145758465
0.013104637
0.009803638
0.005152923
1.1636163E-4
-0.0039571766
-0.003870038
-0.0013750492
-0.0020171348
-0.0040010307
-0.0047971024
-0.0037932522
-0.0014147171
1.0970558E-5
6.191245E-5
-0.0017064934
-0.002528992
-0.0029063642
-0.0074269315
-0.010406706
-0.009499916
-0.0067292135
6.0135067E-6
0.004402153
0.0041358136
0.0036510327
0.0024459553
0.0012173626
-7.756241E-4
-0.0016851948
-1.1709609E-4
-7.9566083E-4
-2.2007796E-4
0.0026329162
0.002244457
9.3539944E-4
0.0010913681
0.0021246087
0.002464865
0.0015207232
9.097915E-4
9.7699405E-5
0.0014024382
0.0040855682
0.0030664946
6.967984E-4
-3.9493103E-4
4.4062617E-4
0.00394891
0.005464447
0.0015506055
-0.0014337449
0.0033039846
0.006136212
-2.824964E-4
-0.0039815702
-0.0027764298
-0.0037189168
-0.004902057
-0.006435683
-0.007897882
-0.0064922273
-0.0022308528
0.0026144597
0.0031294012
0.0014395996
5.1526126E-4
-4.593607E-4
0.001036631
2.702133E-4
-0.0038231087
-0.0039388677
-0.0035152733
-0.0037611804
-4.0544083E-4
0.0028287857
0.0017249901
-0.0010657811
2.385701E-4
0.0032031818
0.0030814828
0.0014403933
-0.0016238261
-0.0018397575
0.001358502
0.0013437062
0.0010103892
-3.1380812E-4
-0.0037800414
-0.0036936272
-0.0052627004
-0.0067490074
-6.614605E-4
0.0042856704
0.005355951
0.007412782
0.00804491
0.008312267
0.00883313
0.006101034
0.0044722776
0.005312254
0.0010266957
-0.003323307
-0.001207707
-0.0015487793
-0.0049640425
-0.005202497
-0.0043982905
-0.003018146
-0.00120877
4.7568476E-4
0.0067762733
0.016144935
0.018220501
0.015028634
0.01666739
0.013958214
0.0015451028
-0.004613938
-0.002582288
-8.6596544E-4
-7.716963E-4
-0.00517224
-0.013404016
-0.02261085
-0.030658953
-0.034950007
-0.03630637
-0.033667676
-0.02861919
-0.024896381
-0.021165786
-0.017144859
-0.01226816
-0.008230213
-0.0055450033
0.0023145084
0.011782168
0.018950084
0.029209321
0.03691238
0.03911876
0.042470094
0.04447807
0.043708757
0.042205088
0.03919433
0.03705705
0.033280045
0.024357876
0.014726444
0.003984889
-0.010689308
-0.02672374
-0.04257574
-0.05669317
-0.067086235
-0.07326118
-0.07321589
-0.06545605
-0.05295424
-0.03856111
-0.021465253
-0.00412187
0.011287756
0.026106806
0.037362933
0.04539472
0.051574692
0.05317086
0.052412614
0.046313927
0.033885147
0.024222512
0.014100781
-0.0018542558
-0.019293305
-0.033265535
-0.038385108
-0.03795983
-0.037809275
-0.03414679
-0.021927422
-0.003353163
0.01247631
0.025122564
0.03624161
0.04207007
0.05100848
0.061049234
0.060081054
0.053841535
0.043325752
0.02638913
0.00445659
-0.026308008
-0.058578096
-0.087511785
-0.11207532
-0.1258684
-0.12843157
-0.11366502
-0.08802321
-0.06377868
-0.03354533
-0.0027132786
0.028592162
0.069704674
0.1053214
0.12642504
0.14364083
0.17260805
0.19745934
0.17981347
0.13730128
0.09943387
0.064408466
0.031822067
-0.0077057164
-0.03759963
-0.047240533
-0.065865785
-0.089264914
-0.12980656
-0.20570354
-0.26730296
-0.2890537
-0.28378108
-0.26010844
-0.21314262
-0.12931456
-0.048319057
0.02469602
0.13597798
0.22844376
0.23405999
0.19876854
0.2081602
0.2642763
0.2654634
0.20425634
0.17719957
0.1896849
0.20334744
0.18638936
0.090557545
-0.059713848
-0.17275596
-0.21708708
-0.22858767
-0.2191268
-0.22166047
-0.26692617
-0.29118234
-0.2823696
-0.25628588
-0.17254984
-0.0711041
0.025227843
0.13810468
0.2298337
0.2765086
0.26017413
0.2272672
0.22331336
0.16777197
0.07913657
0.029085573
-0.006693388
-0.024094915
-0.033210326
-0.058901854
-0.08485794
-0.098648414
-0.09804243
-0.102935836
-0.117066875
-0.13949578
-0.15428093
-0.10795003
-0.040140763
0.0022445773
0.05403708
0.10099441
0.12313294
0.12709604
0.106597066
0.08536107
0.08556637
0.079764925
0.040353574
-6.627019E-4
-0.0024792622
0.038512394
0.09178545
0.10516741
0.08308004
0.030771455
-0.061809618
-0.13179258
-0.17407192
-0.21603695
-0.21823871
-0.18861505
-0.14943561
-0.11494703
-0.084983945
-0.007110552
0.08166677
0.12395093
0.15775272
0.18088049
0.18173005
0.17556024
0.10878668
-0.024659123
-0.106686145
-0.09629941
-0.075606026
-0.05866013
-0.0040584244
0.05361239
0.0676393
0.038908787
-0.02408754
-0.077461414
-0.069290824
-0.021885296
0.024370788
0.046819214
0.03758921
0.03618255
0.04134354
0.016091555
-0.0095855575
-0.01411587
-0.012243592
-0.009142774
-0.011561975
-0.0120148305
-0.0068203188
3.91307E-4
0.013911544
0.022831019
0.01804947
0.004130412
-0.006099536
-0.012191865
-0.02689501
-0.03197157
-0.020442875
-0.014030002
-0.00990259
-0.003859586
-0.0017952159
-0.003731755
-0.007883978
-0.009367695
-0.007446643
-0.006015155
-0.011759241
-0.01755801
-0.011378384
-0.0030043821
0.0029850288
0.0054029627
0.0034295027
0.0070019183
0.010361675
0.013110509
0.018846886
0.024588462
0.034470998
0.027354093
0.011152346
0.024001447
0.039411124
0.03916328
0.039816767
0.027945163
0.0057489565
-0.008342134
-0.010254507
-7.031374E-4
0.0063620512
2.7650475E-4
-0.012232852
-0.02202835
-0.034806635
-0.053536084
-0.056068957
-0.0375997
-0.01499958
0.0015361194
-8.5700967E-4
-0.014309517
-0.016543124
-0.011708299
-0.013542486
-0.00990708
0.016910234
0.031186894
0.010845305
0.013294776
0.037430618
0.019870505
-0.014138805
-0.0123515455
0.007506251
0.015861612
0.011658467
-3.6834987E-4
-0.016387857
-0.017866232
-5.467941E-4
0.0038282536
-0.0071086893
-0.0050585303
0.0072266795
0.023103472
0.03433514
0.01302314
-0.025838649
-0.041913826
-0.037818443
-0.028097993
-0.013908051
7.1639044E-4
0.011123314
0.017840382
0.022923099
0.021695066
0.016752886
0.02041314
0.025008582
0.019765373
0.013998801
0.0109362975
0.0061608204
3.4761516E-4
-0.0072916225
-0.012781994
-0.010389701
-0.004447396
0.0012157164
0.0043844283
7.337088E-5
-0.0077094566
-0.012569518
-0.015605993
-0.017759066
-0.018828101
-0.01801374
-0.014382307
-0.010424562
-0.009184414
-0.009883379
-0.008505413
-0.0048099393
-0.002300888
-0.0014520099
-3.1676373E-4
0.003007794
0.005423235
0.003295815
0.0023121403
0.006330426
0.011436689
0.015021266
0.015264252
0.012280581
0.010602259
0.009429977
0.0050593885
0.002076956
-2.923709E-4
-0.00731957
-0.01110984
-0.00981036
-0.008635921
-0.0034808302
0.002170434
0.0038905954
0.0069187167
0.008819848
0.0049937773
-0.0014807172
-0.005126922
-0.0032756578
7.10382E-4
0.0032395634
0.0037298312
0.0015430796
-2.525196E-4
0.0031206189
0.004281058
-0.004324342
-0.009657015
-0.0063973
-0.006318014
-0.008089495
-0.009337671
-0.00915906
3.7983354E-4
0.0108604785
0.012270446
0.007892821
0.0031041258
0.0039044868
0.002236456
-0.0066045644
-0.010238488
-0.00851784
-0.005283146
8.456378E-4
0.0056305705
0.00314699
-0.005699411
-0.00655915
0.0011532239
0.0020481485
-0.0015255894
-0.002785704
-5.7047996E-4
0.0022774467
9.6214697E-4
0.0025920335
0.00561859
0.0011086777
-0.0071849735
-0.012649078
-0.010527415
-0.0056298883
-7.397071E-4
0.0066344542
0.008739114
0.008795551
0.009597849
0.007182364
0.008300388
0.0044046524
-0.0035935831
0.0011241239
0.0067634596
0.0078546805
0.010096727
0.0041510095
-0.0055457056
-0.009629879
-0.008915236
-0.003896618
2.4506517E-4
2.7218382E-4
-0.0023155748
-0.0051914435
-0.00481916
-0.0039733867
-0.0048034447
-0.003783876
-0.003959457
-0.008046122
-0.009226441
-0.006965323
-0.007207835
-0.006735437
-0.003504073
-0.003208807
-0.005140653
-0.0030295344
0.0043622404
0.011823473
0.014608381
0.012040939
0.006472233
0.003768612
0.0049036015
0.0052343905
0.0043501584
0.0026199706
8.9589134E-4
6.6603255E-4
5.396388E-4
0.001855224
0.0032215288
8.0789777E-4
-9.604565E-4
-9.417166E-4
-0.0022826002
-0.0021132259
-0.0025078559
-0.0054521207
-0.004736965
-0.0028836024
-0.003136217
-0.0011798675
-5.685762E-4
-0.0011526495
0.0011254576
0.0014676141
0.0022017502
0.0054002856
0.0049786614
0.0033884454
0.0041237352
0.0052456036
0.0052099735
0.0033682513
4.5109E-4
-0.0013602481
6.702172E-4
0.0019203138
-3.8004102E-4
8.225926E-4
0.0020488235
-0.0023133568
-0.006652049
-0.009562058
-0.0123146465
-0.013433602
-0.012064489
-0.010316622
-0.009611015
-0.004652854
0.003998419
0.0090528065
0.007922666
0.0027071408
9.148262E-4
0.0030452171
0.0029819505
0.004048832
0.007686922
0.008355844
0.005812078
0.005393652
0.006844502
0.0051927986
0.0036459279
0.0025934412
-7.3178374E-4
-4.6914438E-4
0.0010617127
-5.646027E-4
-3.9785192E-4
4.8916007E-4
-8.58172E-4
-0.0028688496
-0.0035626704
-0.003110586
-0.0050538257
-0.0064313426
-0.0034579094
-0.0019835462
-0.0032767968
-0.0012208272
0.00221277
6.1577774E-4
-0.0021926183
-0.0018697052
-0.0021655294
-0.0016953595
8.1684336E-4
7.2279613E-4
4.1912516E-4
0.0017685598
3.275759E-4
-0.0022703782
-0.0027042239
-0.0023070662
-0.0020723578
-0.0023321023
-0.001640051
0.0012028281
0.0032435267
0.0031368732
0.0016606585
8.654596E-4
0.0031617938
0.0041168295
0.0025803582
0.0030999344
0.002512979
5.5642636E-4
0.00120128
0.0016007768
0.0018151312
0.0020790112
-0.0015195393
-0.004335525
-0.0032908106
-0.0032736463
-8.0837705E-4
0.0032095334
0.0010496242
5.117186E-6
-2.2366353E-4
-0.0068901563
-0.0072630113
-9.7611954E-4
-0.0011167967
-0.0029270614
-0.001334402
0.0010129028
0.0016100535
0.0011849931
0.0031175234
0.0025890036
-9.393017E-4
-9.007078E-4
-2.7283348E-4
-9.108935E-4
5.4956832E-5
5.5249693E-4
-8.8106794E-4
-0.001345588
6.959718E-5
9.989516E-4
0.0014958528
9.506818E-4
-3.836612E-4
6.2920334E-4
0.0012627413
5.78482E-4
0.0010208243
7.874851E-4
0.0016214618
0.0036886304
0.0037440371
0.0037810588
0.0035321894
0.001214259
-1.9912771E-4
-1.04843966E-4
-6.832266E-4
-3.810641E-4
6.953932E-4
-7.125937E-4
-0.0013282036
2.0874618E-4
-6.729636E-4
-0.0018324591
-0.0014882169
-0.002629542
-0.004509824
-0.004615043
-0.002996309
-0.0019504073
-0.0022071588
-0.0031263926
-0.0028286332
-0.0011181103
-0.0020259442
-0.0022673598
4.476827E-4
0.0012641741
0.0022879213
0.0025068794
5.38846E-4
8.460282E-4
0.0015025799
0.0029338603
0.0040743956
0.0020323028
0.0023315006
0.004343026
0.0050951024
0.004183936
9.271409E-4
-1.3147044E-4
4.772882E-4
0.0014711197
0.0022733933
-0.001445262
-0.003450077
-6.3431915E-4
-2.9180368E-4
-0.002660495
-0.0039703115
-0.0033625094
-0.0020981533
3.0900436E-4
8.91195E-4
-0.0024411846
-0.0013335433
0.001939144
7.360803E-4
-4.1582776E-4
-0.0020940013
-0.0029950803
-4.255107E-4
7.8892783E-4
3.1385134E-4
1.15737996E-4
0.0017326156
0.004129341
0.0032961492
0.001385442
0.0013220141
0.0026144935
0.0027572848
0.0017879084
0.0030006645
0.002400202
-0.0010816474
-0.0024466456
-0.0033676948
-0.0038906515
-0.0030581085
-0.0036162531
-0.0043206587
-0.0036644742
-0.0032869428
-0.0030480372
-8.861948E-4
0.0014551524
7.3527865E-4
-7.2011765E-4
-1.2528239E-4
0.0017661385
0.0026369176
0.0013988466
7.100071E-4
0.0010841727
6.155108E-4
9.048913E-4
0.0024617875
0.0015695909
-0.0013364542
-7.1745255E-4
0.0027583614
0.0048679835
0.0054828497
0.0045069666
0.0028712158
0.0012720325
-0.0014554776
-0.0037748583
-0.0033833103
-5.040141E-4
4.976593E-4
-0.001926311
-0.0028220676
-0.0013298298
4.8635132E-4
0.001377302
0.0010063287
7.499839E-4
-0.0010406784
-0.003177607
-0.0039968607
-0.0063555
-0.007048506
-0.004414477
-0.0015289924
0.0015254157
0.0022927378
-2.9822457E-5
-0.002580305
-0.0018191088
0.0022954377
0.0017824324
-0.0022494094
-0.0025334915
-0.0012873252
0.0022501757
0.0074351314
0.008296449
0.0065794685
0.0045291963
0.0026080965
0.0018836242
0.0015663995
0.0031634467
0.00560229
0.0062122056
0.005862273
0.0036526448
-8.919831E-4
-0.0072244103
-0.0138138635
-0.014930641
-0.009247696
-0.0033290095
-0.0010263904
0.002045951
0.005012985
0.0012799248
-0.0011996254
0.0022934552
0.0018754016
-2.0543094E-4
-3.8323944E-4
-0.0022946903
-0.0017192946
9.101746E-4
0.0013113542
4.874566E-4
-0.0011526896
-0.0026236787
-0.0034175294
-0.0015882164
0.0023029994
0.003933147
0.0050084586
0.0042608664
0.0022303595
0.003534002
0.0020723613
-0.0025298707
-0.0053831744
-0.006984419
-0.0039013794
0.0014687645
0.005072786
0.006971521
0.005564412
0.004054669
9.940075E-4
-0.00287036
-0.0013358769
-6.409708E-4
-0.0010134905
0.001298913
0.0014273851
8.8295166E-4
-8.182018E-4
-0.0029563373
-0.0021740778
-0.0042873635
-0.0062727514
-0.0040072408
-0.0033289602
-0.0023270496
6.5125374E-4
0.003091023
0.0057517374
0.006496871
0.0038525027
-7.1158895E-5
-0.0029480113
-0.0030075891
-0.0020698674
-0.0013577112
0.0014082107
0.0053167003
0.0064122505
0.0031223507
-0.001273652
-0.0018900137
-1.0261182E-4
2.3789918E-4
-5.91736E-4
-0.0018559737
-0.002049008
-0.0011873728
-0.001977774
-0.0030997857
-0.0033496316
-0.0036279766
-0.0030684748
-0.001603613
-9.303146E-5
4.1078677E-4
0.0010010784
0.0034525322
0.0046255845
0.003131707
0.0014632083
1.8529319E-4
-1.5042955E-4
-3.511151E-4
-0.0017409188
-0.0010798855
0.001991653
0.003372118
0.0040273718
0.0035307994
6.723547E-4
7.7358197E-4
0.0021204643
0.0020335775
0.0031853572
0.0013784937
-0.0017202126
-0.002689138
-0.004762348
-0.005180587
-0.004956952
-0.0038291463
3.9303955E-4
4.0918536E-4
-0.0011269989
-9.5582753E-4
-0.0015546263
0.0023053552
0.0057020346
0.0036818774
0.0020638197
6.290221E-5
-0.0028411334
-0.004797535
-0.0050304607
-0.0031975198
-0.002915887
-0.002420086
0.0011334793
0.0029903294
0.002151781
0.0014063906
-6.6052197E-4
-0.0040586214
-0.0055259624
-0.0059329728
-0.005204111
9.422732E-5
0.0069588707
0.010105381
0.008937599
0.0062078065
0.0037828172
1.4859396E-4
-0.0032942852
-0.0047057797
-0.004771517
-0.0021817994
0.0033466946
0.010525729
0.014858989
0.014100894
0.013153667
0.008405318
-0.003185139
-0.010926919
-0.0116952825
-0.011204391
-0.008859566
-0.0041162255
-0.0018705996
-0.0036222183
-0.0056971344
-0.0061208718
-0.0033454457
0.0011411104
0.0024486866
9.586813E-4
-0.0026557306
-0.0076973364
-0.009368448
-0.008221562
-0.0077287434
-0.0068543754
-0.0033036266
0.00203893
0.005945299
0.009852449
0.014162338
0.013325043
0.008827798
0.0063716564
0.004991314
0.0038146332
0.0046845633
0.0067295283
0.0075074784
0.0061415825
0.0038193841
0.0031714349
0.0054607783
0.00761765
0.0050845006
-0.0010958713
-0.0055936566
-0.008386053
-0.011922965
-0.013680516
-0.01365044
-0.013693261
-0.011126504
-0.007399374
-0.005093679
-0.0023690057
-0.0023592603
-0.0043774596
-0.0018823425
6.050484E-4
-5.4445176E-4
-3.299312E-4
3.4812398E-4
6.9447E-4
0.003475595
0.007371276
0.010655001
0.012650196
0.014275208
0.01494655
0.010134057
0.002441289
-0.0023002338
-0.005713934
-0.008642248
-0.009279875
-0.007704592
-0.0038472372
5.49408E-4
0.0035810124
0.0064086234
0.008675316
0.0093501555
0.00836626
0.0046354583
-3.6594202E-4
-0.0031115874
-0.0037695002
-0.0063727475
-0.008714142
-0.0046218354
-0.0028063215
-0.0075834766
-0.005947941
-0.0019782635
-0.005256968
-0.008393952
-0.00741203
-0.002437484
0.0022445216
5.8262027E-4
-0.0027490973
-0.005343599
-0.006338875
-0.0039091203
-0.0030735247
-0.0051719206
-0.0066321515
-8.6820766E-4
0.012317438
0.02201251
0.028198676
0.033238858
0.030605078
0.018693151
0.0012972836
-0.010735155
-0.012089148
-0.009785164
-0.0053065834
-7.077337E-4
5.617916E-4
0.0010148064
8.922203E-4
-2.4038869E-4
-0.0050556613
-0.012717733
-0.014600831
-0.012109276
-0.009756465
-0.0071017034
-0.009014252
-0.013652224
-0.0131687615
-0.008788504
-0.0034945412
2.553247E-4
0.0024207102
0.008146259
0.012249931
0.0066765966
-0.0014968193
-0.0024551144
0.0037403994
0.009514139
0.011405842
0.0108380355
0.0066693737
0.0042837583
0.0056897337
0.005044997
0.00486775
0.003067438
1.8804352E-4
0.0042686285
0.0069551775
0.0052410127
0.0066173966
0.006779946
0.0013494241
-0.007455037
-0.011422746
-0.010333078
-0.0138006285
-0.014678115
-0.008971788
-0.0071086707
-0.006607239
-0.002472982
0.002039116
0.004732439
0.003997988
-3.1548855E-4
-0.0040845443
-0.00430842
-0.004265293
-0.0026785824
0.0026515836
0.005730505
0.008754936
0.014586124
0.019047238
0.020440713
0.0120342765
-1.0389102E-4
-0.0038292378
-0.009795939
-0.015710074
-0.009214226
-0.0027070309
-0.0025174564
-0.0037931863
-0.0066738143
-0.0047734044
4.9306086E-4
-0.0012575353
-0.006126187
-0.0087076295
-0.011492036
-0.010231635
-0.0034273046
2.3254132E-4
-3.6274412E-4
-7.4083154E-4
-8.767946E-4
-9.1708347E-4
-0.0013938106
1.0877159E-4
0.0057271738
0.0118144
0.019580428
0.026861586
0.02392055
0.013446261
0.0060618375
0.0063595655
0.0072150724
-0.0024161309
-0.011941071
-0.007636268
-4.1535107E-4
9.2451344E-4
-1.03830884E-4
-0.0021840432
-0.0031432172
-0.0028845526
-0.005323311
-0.009301009
-0.009957727
-0.0062074927
-8.5478125E-4
0.001714394
-0.0010404519
-0.0040779295
-0.00307502
-0.0026264065
-0.003426011