-0.0023965535
-0.0020054
-0.0019056421
-0.002503811
-0.0012329416
0.001969132
0.004505407
0.004432232
0.002464287
-0.0012678803
-0.0050507295
-0.005182047
-0.0031928616
-0.0020227667
-0.0010701417
0.001588419
0.005325871
0.005462467
0.0023377235
-9.901967E-5
-0.0018010266
-0.002143209
-0.0025512879
-0.0040786155
-0.0023213173
0.001877514
0.004094004
0.004221916
0.0022347951
-0.001352052
-0.0031558143
-0.0029907238
-0.004068299
-0.003635704
-2.345669E-4
9.356611E-4
0.0020599198
0.004772202
0.0035859486
5.0086493E-4
-8.371151E-4
-0.0019508032
-0.002643582
-0.0016240771
1.1223271E-4
0.0013197659
0.004231396
0.0065256325
0.0035839737
-7.9819634E-5
-0.002501354
-0.0044117766
-0.0034181064
-0.002907742
-0.0028973538
7.226497E-4
0.004900045
0.00580882
0.0029263538
-0.0013183003
-0.003793438
-0.0049218773
-0.0048644287
-0.0031479234
-0.0013300357
0.0012840921
0.0057878965
0.0067242486
0.0023652087
-0.0010067638
-0.003215165
-0.0048927153
-0.003802843
-0.002761262
-0.0010249284
0.0028732389
0.0051815347
0.006032988
0.005522178
0.0021639562
-0.0016334172
-0.0034652695
-0.0031808545
-0.0022625565
-0.0012800816
4.5466266E-4
0.0020709042
0.0033916978
0.0031576285
-7.8022614E-4
-0.0040256
-0.0039593945
-0.005179053
-0.005151946
-8.596797E-4
0.0018578649
0.0033506004
0.004786513
0.002548262
-1.9852475E-4
-0.0016884878
-0.0020151774
-6.88605E-4
-0.0019619102
-0.0023790055
0.0018543027
0.005108758
0.005569115
0.00305892
-4.6024905E-4
-0.0019072511
-0.0038042516
-0.0045961775
-0.003443281
-0.0020810417
0.0024199216
0.006071645
0.004952915
0.0031410449
-1.0529451E-4
-0.0032594688
-0.002308752
-0.002613757
-0.004369953
-0.0014808658
0.0021819249
0.0034415296
0.004242091
0.0024264266
-0.001102093
-0.003427033
-0.0041730623
-0.0024145683
-8.4618345E-4
-3.624365E-4
0.0017785524
0.0035494326
0.003546211
0.0018764533
-0.001320344
-0.0025415018
-0.0019128682
-0.0020767297
-0.0018082284
4.7674454E-5
0.0023889511
0.0039287126
0.004670571
0.0033192253
-0.0010419034
-0.0041202893
-0.004099167
-0.0039977934
-0.0036560132
-0.0022644037
6.585538E-5
0.00396514
0.0059396033
0.00331775
-2.1892132E-5
-0.0020681862
-0.0031631147
-0.0028044067
-0.0032799202
-0.003339601
8.0408243E-4
0.0052925157
0.00613327
0.0047582486
0.002071744
-0.0011367926
-0.0035673296
-0.0045334627
-0.0034881223
-9.791583E-4
0.0018765697
0.0043565454
0.0053176717
0.00388666
7.0944376E-4
-0.0018889093
-0.0024830971
-0.0034720562
-0.004945084
-0.0033761235
9.606516E-5
0.0039250315
0.006313219
0.0027403506
-0.001979697
-0.0028900397
-0.004172355
-0.0046620313
-0.003733727
-0.003193894
8.648517E-4
0.0045885355
0.0040307357
0.0046396055
0.004020806
-1.09091874E-4
-0.0018192953
-0.0020090323
-0.003520093
-0.0029923532
0.0011844444
0.0051953816
0.0049032164
0.002229459
2.240361E-4
-0.0024033291
-0.0043491838
-0.0032546215
-0.0020529516
-0.0023611342
-0.0011906329
0.0022862582
0.005079666
0.004344095
9.162651E-4
-0.0011629317
-0.0017822633
-0.003238567
-0.003058666
-0.0014612902
-4.2802843E-4
0.0030983076
0.005674847
0.0029793913
4.676448E-4
-0.0011999328
-0.00377587
-0.003953559
-0.0028001235
-0.0015851089
6.6960405E-4
0.002736766
0.004523478
0.003861623
-8.731633E-6
-0.0019644022
-0.002066061
-0.0021742207
-0.0010491462
-0.0014284006
-0.0010849137
0.003644457
0.00566812
0.0028486177
-3.945214E-4
-0.0034348504
-0.004406885
-0.0038317535
-0.0035738547
-0.0019286221
4.863259E-4
0.00273561
0.004407061
0.0033370499
0.0010532199
3.9820233E-4
-0.0010496001
-0.003300884
-0.0019541946
-1.6130344E-4
-4.7252508E-4
0.0016932407
0.004335104
0.0036347783
7.044276E-5
-0.004052794
-0.0041190907
-0.002378235
-0.0020233924
-2.1831924E-4
0.0019054015
0.0030481385
0.0040745875
0.0039410987
0.001756823
-0.0013330171
-0.0012960584
2.5436457E-4
-0.0015865124
-0.002659204
-2.2269058E-5
0.0027517024
0.0048631895
0.0045853914
5.4417533E-4
-0.002752243
-0.004323939
-0.0054598833
-0.005407346
-0.0050924225
-7.264922E-4
0.0041408446
0.0018916401
0.002854585
0.0037894237
-0.004932547
-0.0070396
-0.0026305108
-0.0029526334
-0.0013989358
0.0014409777
0.0038820626
0.0069978824
0.0062473947
0.0033706035
4.2496435E-4
-0.0020632136
-0.0028028204
-0.0029716666
-0.001833577
2.2355773E-4
0.0025748794
0.005528665
0.006651665
0.0048987055
9.972379E-4
-0.0031783176
-0.0048024827
-0.0051780865
-0.00608231
-0.0037186209
0.0016109266
0.0042697415
0.005195615
0.0034277097
-0.0026015134
-0.005989527
-0.0063795364
-0.005624658
-0.0026832903
-7.87469E-4
0.0026414886
0.007297009
0.0066986796
0.0035982227
0.0016624966
-2.2678898E-5
-0.0020502512
-0.0032213244
-0.0020131234
-2.6073272E-4
0.0021968612
0.005119842
0.0047890223
0.0015787198
-0.002180757
-0.004631179
-0.0050208713
-0.004905209
-0.0041795275
-0.0015567249
0.0024690363
0.0042575146
0.001970937
7.6729E-6
4.2921008E-4
-3.478172E-5
-0.0023010469
-0.0033937707
-0.0020223174
-2.3069788E-5
0.0018360717
0.003936995
0.005028347
0.0026016987
-0.0015616897
-0.0028451863
-0.0026918505
-0.002296022
-7.8239456E-5
8.3670433E-4
7.6500286E-4
0.0030825264
0.004975239
0.0037466208
-1.05722625E-4
-0.0033448804
-0.0025938964
-0.0017428831
-0.002735943
-9.392297E-4
0.00310928
0.0061307466
0.005887333
0.0013755639
-0.0029672233
-0.0047667944
-0.0051954906
-0.0043505155
-0.0033177377
-0.0011523018
0.0017108767
0.003746236
0.0056909556
0.0035211137
-0.0020441771
-0.0044846265
-0.004661227
-0.003956571
-0.0026849185
-5.501421E-4
0.0036486515
0.0058817267
0.0054863137
0.0029575517
-0.0026468805
-0.004951614
-0.0031519108
-0.0023115878
-0.00106245
0.0017100585
0.0042109755
0.0049621817
0.0042948574
0.0021372004
-0.0014357675
-0.0024252462
-0.0021423553
-0.0041037844
-0.004376073
-0.0017205355
0.0017145794
0.005274585
0.006097491
0.0024033142
-0.0022085286
-0.0036998757
-0.0037675877
-0.0038379284
-0.0024254557
-5.708962E-4
0.0017649394
0.004257334
0.004665723
0.0031134738
3.4653815E-4
-0.0011445564
-0.0012174337
-0.0023366068
-0.0026450765
-0.0013344162
0.0018216325
0.0048069395
0.0033352012
7.8160857E-4
-0.0019793648
-0.005056344
-0.0041164123
-0.0027653156
-0.00243183
-7.3379243E-4
9.6195115E-4
0.0036594102
0.005006678
0.0029477302
-3.0241103E-4
-0.0028073047
-0.0026687179
-0.0035047978
-0.004403137
-2.9484794E-4
0.0043206816
0.0068375394
0.0064932774
0.0021706386
-0.0015545578
-0.0032109732
-0.0035842832
-0.0036569133
-0.0038569618
-0.0014345339
0.0026381966
0.0056989426
0.005674397
0.0024147192
-5.652271E-4
-0.0020539816
-0.0015595179
-7.859551E-4
-0.0018200484
-0.001346819
0.0017283481
0.0047968836
0.0043048183
5.064127E-4
-0.002353463
-0.0042130286
-0.004339505
-0.0041907765
-0.0055518257
-0.0032961534
1.8363424E-5
0.0020560334
0.004292376
0.0016869621
-0.0010147414
-0.0010782887
-0.0040248437
-0.0036141418
-4.3380493E-4
-5.120587E-4
0.0015340784
0.005009479
0.005360314
0.003275583
-1.2463786E-5
-9.5446274E-4
3.0256552E-4
2.456691E-4
-3.849254E-4
-4.4196405E-4
6.735949E-4
0.0037533762
0.0061779423
0.0043471917
-7.683185E-5
-0.0030329442
-0.004261307
-0.0039975327
-0.0028205859
-0.0018877127
0.0014135999
0.0058631077
0.005808685
0.0027168465
6.178686E-4
-0.0018566299
-0.0053687864
-0.00653367
-0.0049807727
-0.0031824394
-6.726401E-4
0.0026334187
0.0046551693
0.0025287324
-0.0022212176
-0.0022622156
1.6094295E-4
-0.0014030056
-0.0032279668
-0.0028779008
-4.8468823E-6
0.004478102
0.0042421226
5.0374324E-4
-0.0013379449
-0.0022284114
-0.003307855
-0.0032177556
-0.001384971
-2.1649375E-4
0.0012744655
0.005244855
0.0060233567
0.0031620043
0.001188609
-0.0017608195
-0.0033316282
-0.0016528352
-0.0018948728
-0.0016739029
0.0027815145
0.0059684827
0.0054125073
0.0027491068
-0.0022915497
-0.0052365633
-0.0037928922
-0.002241001
2.7830288E-4
0.0030027395
0.0032430158
0.004791564
0.0057741227
0.0024326832
-0.0020846075
-0.0043741427
-0.0029005609
-0.001590453
-0.0019104608
-0.0011341592
-0.0014039042
6.363579E-4
0.004894745
0.0025838194
-0.0030975644
-0.0055908076
-0.004693815
-0.0028771996
-0.0037802593
-0.0038762211
-5.47812E-4
0.0029711635
0.004342601
0.0017128312
-0.0015795698
-0.0018586646
-0.001470763
-0.0021625191
-0.0025844348
-0.0010420566
0.0016665622
0.005833947
0.0091817565
0.0061203646
0.0012911211
-8.7784603E-4
-0.0023150125
-0.0019130441
-0.0020809663
-0.0026079183
2.0913647E-4
0.0036699178
0.005461173
0.004707488
0.0025952822
8.3203625E-4
-0.0012895474
-0.0015227075
-9.718422E-4
-0.0012419315
6.951002E-5
0.0011595327
0.0012550022
-4.2433172E-4
-0.004072618
-0.005177519
-0.005024122
-0.0042313747
-0.001845362
-0.0020947624
-0.0014858876
0.0030463894
0.004349676
0.0012829611
-5.618085E-4
-1.2785858E-5
5.704701E-4
-6.3135225E-4
-0.0034992702
-0.004458682
-0.0017048201
0.0010610209
0.0026130432
0.003936892
0.0033582097
4.0982245E-4
-0.002045061
-0.0028408596
-0.0043224767
-0.0026593509
0.0034435294
0.0048005916
0.003146059
0.0035507132
0.0032650798
0.0025503342
-7.216028E-4
-0.002936143
2.5868628E-4
0.0021209428
0.0035617824
0.0050951303
0.0031890925
6.4603135E-4
-0.0024639058
-0.0039550965
-0.0038428968
-0.0039481833
-0.0013641308
-6.917765E-4
-0.0020783262
-8.823175E-4
0.0014962455
0.0034614073
0.0014730234
-6.501332E-4
-0.0032546208
-0.008075512
-0.0026595367
8.284248E-4
-0.004981076
0.001319583
0.008845222
0.0047872434
0.0012751567
-3.0080552E-4
-4.3912412E-4
-0.0017627031
-0.0041448306
-0.0026965877
-0.0023835178
-4.5056443E-4
0.0043376605
0.0043418477
0.0012889993
-0.0014301984
-0.0017375671
-0.0022748488
-0.005348594
-0.0044905655
-8.9756196E-4
0.0015278087
0.0020831765
1.5750481E-4
-4.5934235E-4
-0.0010532656
-6.657196E-4
0.0034931416
0.0040732715
0.0028531891
0.0061178072
0.008650268
0.008604358
0.008094709
0.0039328947
-0.0029994193
-0.0044345157
-0.0023953277
-0.0055846716
-0.007347559
-4.557755E-4
0.0072237155
0.007046579
-9.874926E-4
-0.0070230565
-0.005333317
-0.004957106
-0.008715874
-0.00886596
-0.0063504586
-0.00220269
0.0051735826
0.0039577764
-0.0051510744
-0.0043742885
-2.852062E-4
-0.002300404
-0.001880625
-0.0012030175
-0.0017399921
0.0021802403
0.008076372
0.011744159
0.009212943
0.0045156498
0.0027381408
-0.0014899081
-0.0044386266
-0.0022926629
-4.1895936E-4
0.0022129596
0.0037789806
0.0020872809
0.0012095483
6.691799E-4
0.0013193381
0.0038282978
0.0033838658
0.0013631505
9.894156E-4
-7.418631E-4
-0.001965944
0.0011648381
0.0023233355
-0.0021501894
-0.0059692375
-0.0062093725
-0.004848854
-0.0036103942
-0.0030495513
-0.003443816
-0.0032308658
3.5269425E-4
0.0020676441
-0.0016751444
-0.0044128606
-0.004710167
-0.0042520366
-0.0027703082
-0.0010045455
0.0023300427
0.0054576276
0.006428836
0.006731037
0.005498677
0.003150933
-2.931593E-4
-0.003943787
-0.003378666
-0.0015213954
-0.0021670791
-7.4716064E-4
0.0038212694
0.0058169696
0.0050002215
0.007732122
0.010776665
0.0064242617
3.944194E-6
-0.0040307585
-0.007005555
-0.0048439973
4.4253992E-4
0.0019002152
2.9628156E-4
-0.0034883344
-0.0069452976
-0.00447488
-0.0015384059
-0.0027581586
-7.595859E-4
0.0034587986
0.0039459807
0.0037392604
0.0036246467
0.001893733
-0.0015426466
-0.0081969565
-0.013531767
-0.011425419
-0.0057379166
-0.0018610777
0.0010653086
0.0030834244
0.0021676421
0.0010079473
0.0016666678
0.0013067886
4.4511695E-4
0.001010281
0.0025999704
0.0047869147
0.005629455
0.0060629183
0.005933989
3.0033506E-4
-0.0063980194
-0.006891892
-0.0034566226
0.002004309
0.007739928
0.010170278
0.010232631
0.009382521
0.0060414574
-9.895772E-4
-0.007952104
-0.009874944
-0.008111358
-0.004578422
-3.2417913E-4
0.0015157018
0.0023154558
0.0035767988
0.0031316548
0.001720988
-8.171048E-4
-0.005116562
-0.007971594
-0.008093182
-0.006631664
-0.005986851
-0.008428038
-0.011926548
-0.014149646
-0.014032184
-0.0124466885
-0.013202321
-0.014464722
-0.01273184
-0.009179627
-0.0027931216
0.0041157985
0.0062219505
0.0069730855
0.010152761
0.014197241
0.02100863
0.029721756
0.030376803
0.01978473
0.005724688
-0.007517916
-0.016137155
-0.01798421
-0.022418056
-0.031830385
-0.03473939
-0.029257629
-0.024395058
-0.01991895
-0.010376062
-0.0012125194
0.0044874214
0.010586453
0.015091704
0.022122622
0.0346442
0.04241239
0.043926246
0.043026127
0.03886179
0.034010507
0.027232645
0.01608217
0.007357717
0.0012498929
-0.009319997
-0.013335553
-0.004913496
-0.0045007374
-0.013639274
-0.015124166
-0.011645096
-0.009951826
-0.005362626
3.8389544E-4
-0.0011999172
-0.003867889
0.0011035647
0.0072599184
0.0134973815
0.022198021
0.032434933
0.04136928
0.04146936
0.03645828
0.026135249
0.00698077
-0.0040925313
-0.008837922
-0.027992208
-0.06276135
-0.108197264
-0.15022998
-0.15957858
-0.13064128
-0.098827384
-0.08867864
-0.0750863
-0.03214936
0.02601314
0.07115725
0.08748239
0.079722345
0.06998212
0.065042555
0.055689614
0.06406871
0.08576483
0.067759365
0.042588472
0.058487963
0.070781685
0.06365405
0.032613546
-0.043831166
-0.110012375
-0.12698746
-0.12275948
-0.109732576
-0.08064831
-0.022257024
0.06028578
0.15037242
0.20742717
0.18652296
0.12648413
0.03712451
-0.074917726
-0.11454929
-0.12550259
-0.15223968
-0.07145076
0.09818435
0.22214784
0.24352217
0.18035017
0.09425224
-0.009158998
-0.11994593
-0.21959423
-0.33394593
-0.40610135
-0.38591745
-0.32016996
-0.24647959
-0.16154565
-0.058628686
0.024124822
0.09623087
0.18946168
0.2522073
0.2696417
0.24246812
0.19263813
0.17213023
0.1294947
0.073784664
0.075876
0.120031975
0.1700399
0.16378768
0.13294004
0.13006707
0.07912999
-0.0031172081
-0.110129185
-0.28557947
-0.39381802
-0.3415742
-0.1993245
-0.052872088
0.03763545
0.06785104
0.05311549
0.02102686
0.0034287074
-0.014233701
-0.043418463
-0.06623502
-0.073408276
-0.091080666
-0.11476253
-0.07366531
0.0357179
0.13100009
0.17854227
0.21978857
0.24384141
0.18419424
0.082285665
-0.006802085
-0.099306904
-0.15100741
-0.14903109
-0.13616094
-0.10352279
-0.078295074
-0.086696684
-0.07817298
-0.026794603
0.047703788
0.120897286
0.16483198
0.16552961
0.13650352
0.0997461
0.06913138
0.022469694
-0.07049583
-0.12699246
-0.078295335
-0.045649704
-0.09346027
-0.12515399
-0.10652092
-0.06663226
-0.017420063
0.022278612
0.047100708
0.077802666
0.111276895
0.120988995
0.10714489
0.075001314
0.04061443
-0.0039121243
-0.12450117
-0.23324989
-0.17494942
-0.041544072
0.036651123
0.08417688
0.11133145
0.07587039
-0.0090690935
-0.046871573
-0.008104388
0.03195689
0.04111128
0.04406105
0.083553195
0.12206421
0.054409992
-0.06154248
-0.10755003
-0.101374336
-0.07336384
-0.025920551
0.021846998
0.06867642
0.113772064
0.12718119
0.08448772
0.009091281
-0.04514957
-0.049290556
-0.03505483
-0.043656614
-0.061515324
-0.06841638
-0.062707305
-0.048240185
-0.046574075
-0.051996082
-0.041915026
-0.027273301
-0.015040611
-0.0026764292
0.0029012244
0.008101256
0.023610476
0.042010866
0.04897008
0.041983396
0.03349105
0.031749614
0.02970581
0.024909379
0.020728678
0.01865364
0.025530027
0.031652026
0.026272865
0.028225841
0.03700926
0.032511473
0.014264276
-0.016317194
-0.04191227
-0.03727338
-0.021112312
-0.018143618
-0.01776615
-0.013951495
-0.013808117
-0.014229069
-0.013946627
-0.017198203
-0.021130228
-0.02478037
-0.025037257
-0.00860262
0.013426278
0.011431243
-0.009832523
-0.030216448
-0.04289452
-0.041822974
-0.0326301
-0.027471222
-0.02664598
-0.0188498
0.0013356068
0.015738618
0.016880848
0.012541522
0.005393454
0.0060493755
0.012887888
0.02291204
0.039531946
0.05050179
0.05529326
0.05798519
0.06872734
0.09233796
0.108794436
0.12423733
0.12599915
0.09408535
0.054201584
3.537971E-4
-0.058312323
-0.101384126
-0.1422663
-0.14244165
-0.10746892
-0.09852473
-0.101290025
-0.096604824
-0.09130403
-0.0834297
-0.07076974
-0.05343285
-0.038726043
-0.014846949
0.017342348
0.034529302
0.04392872
0.06297675
0.09012002
0.106182344
0.11634228
0.13184509
0.118256114
0.08004067
0.055849403
0.04582212
0.040299404
0.025820598
0.0032809167
-0.013661771
-0.025338994
-0.045006312
-0.09250633
-0.13507445
-0.13436703
-0.117401004
-0.0986006
-0.07606761
-0.056064587
-0.036903128
-0.024214081
-0.004038
0.035601087
0.06955052
0.08876591
0.10257286
0.10489901
0.096276544
0.08159921
0.051482596
0.01999362
0.009131248
0.0037064834
-0.006775993
-0.017907795
-0.024766017
-0.01907018
-0.010158736
-0.012286534
-0.037121546
-0.06399642
-0.046962474
-0.014735569
-0.013241796
-0.023936486
-0.031086022
-0.032388315
-0.027242193
-0.0179407
5.8981735E-4
0.017566558
0.023564141
0.025017159
0.02483952
0.026910732
0.03089432
0.028350295
0.020418523
0.019767115
0.023566356
0.016189892
0.0034512398
-0.0048058676
-0.013726768
-0.023572307
-0.025972838
-0.017545437
-0.008850898
-0.0039410642
0.0030573877
0.006479225
0.005020155
0.0026918969
-1.763396E-4
0.0010298508
0.0025545014
0.0013693125
0.0033459712
0.0052782875
0.004864569
0.0035002206
-9.476873E-4
-0.0049330285
-0.0064229546
-0.0067014443
-0.0037425642
-1.8044868E-4
0.0038042846
0.012348868
0.0185389
0.01618474
0.010500707
0.005826558
0.0033318168
0.0033165542
0.004384338
0.0049582897
0.0057773152
0.008469407
0.010291805
0.008125842
0.0033810216
-3.078519E-4
-0.0017867164
-0.0037528474
-0.005118378
-0.003631855
-1.5222232E-4
0.0042986223
0.005086828
0.0016784348
-0.0018283998
-0.004888734
-0.0059616813
-0.006407263
-0.006164417
-0.002963626
-9.088201E-4
0.0015477269
0.00443642
0.003211232
0.0023119051
6.168319E-4
-0.0033337886
-0.002819065
-5.1418567E-5
0.0013724976
0.0043829563
0.008218165
0.0093979025
0.0081036575
0.0046087313
-5.7627854E-4
-0.0027675524
-0.0033972322
-0.0042326334
-0.0013852715
0.0011418577
0.0030424476
0.0067790267
0.006416947
0.0024206883
-0.0023995263
-0.006374671
-0.0074188593
-0.008431208
-0.007693469
-0.0049139173
-0.0026640939
6.0026394E-4
-5.531379E-5
-0.0055632186
-0.008312593
-0.006876495
-0.0035110218
-0.0011822328
1.8227157E-4
0.003444808
0.006261988
0.0068539376
0.0072933245
0.0063966997
0.0019710711
-0.002086443
-0.0021171293
-0.0014861407
-0.002019246
-1.5886038E-4
0.0048377374
0.00774306
0.0051463908
-0.0010839945
-0.006984168
-0.0075519467
-0.005531777
-0.0066218744
-0.0063336426
-0.0030231467
3.923946E-4
0.0034180053
0.0027957314
1.6096624E-4
-2.2564185E-4
0.0012538852
0.0025677385
4.3905622E-4
-0.0013098998
0.0022231077
0.006503176
0.00812038
0.006620075
0.0027507339
-5.489485E-4
-0.0026207399
-0.0049779234
-0.0077743805
-0.006998061
-0.0024327687
6.7528547E-4
0.0029477838
0.005079376
0.0032367911
-0.0012941947
-0.0033878142
-0.0038838196
-0.005253941
-0.004070678
-5.355882E-4
0.0027121112
0.005759298
0.0044127097
-6.781822E-5
-0.0028467
-0.006000991
-0.007482678
-0.0048164288
-0.0024019505
-8.4699295E-4
0.0026357027
0.004354068
0.002136742
0.0011576734
-4.4719563E-5
-0.003185449
-0.004938676
-0.0064155273
-0.0049648015
-0.0017433122
-7.794658E-4
0.0018078032
0.002583773
5.2711065E-4
1.6296179E-4
-4.071635E-4
-9.005283E-5
1.101616E-4
1.7862613E-4
0.0027616036
0.0046981657
0.0077991183
0.011444089
0.008609834
0.0010715098
-0.0032883221
-0.0033714303
-0.0044748522
-0.0049071726
-0.0018998105
0.002310027
0.003847264
0.0015334247
0.0014737918
-0.004515303
-0.012876442
-0.0064135976
-0.008671457
-0.016680969
-0.0038766414
0.004577601
0.0055556395
0.00870364
3.068803E-4
-0.0057732696
-0.005940481
-0.0076403865
-0.0053427373
-0.0034494773
0.0020090002
0.0087839
0.008289194
0.007632743
0.0056296596
5.651277E-4
-0.0027032366
-0.0036228593
-0.0027465336
-0.002174981
-4.6620195E-4
0.0021987979
0.0036619792
0.004287647
0.002458065
-3.0967896E-4
-0.002602485
-0.003678056
-0.0035116666
-0.004404384
-0.0021483072
0.0029270237
0.005571208
0.0055393795
0.0013439864
-0.0030145713
-0.002608813
-0.0017356377
-0.0028252813
-0.0032362875
-0.0017562218
6.1306544E-4
0.0034113424
0.004428727
0.0028011284
4.413256E-4
-0.003533844
-0.0054584825
-0.0042509777
-0.004930748
-0.0036481393
5.5937737E-4
0.0033406736
0.0034118157
-7.698182E-4
-0.003914298
-0.0031102016
-0.002600947
-0.0023271115
-0.0025500034
-0.0018710911
0.0019006813
0.0049329274
0.0058099935
0.0050539873
0.0013688926
-0.001698254
-0.0010788158
-2.075292E-4
7.693679E-6
8.886713E-4
0.0020273812
0.004474205
0.004732687
9.455651E-4
-0.001991752
-0.004159467
-0.0052766046
-0.004482283
-0.004686576
-0.004186614
-0.001257556
0.0029099253
0.003992179
-3.8426608E-4
-0.0024584658
-0.0011590549
-0.001542958
-0.0023627102
-0.0032507346
-0.0015470478
0.003503657
0.007050556
0.0073972326
0.0033651749
-0.0011460392
-0.0012274388
-7.671164E-4
-9.146487E-4
1.8256239E-4
0.0013629369
0.0019303845
0.0027148058
0.0045277947
0.0035802026
-8.454465E-4
-0.0029941257
-0.0039489167
-0.0050786887
-0.0033133458
-0.0026612168
-0.0036224131
-3.152123E-4
0.002511255
2.1125098E-4
-0.0029453535
-0.006072928
-0.006948137
-0.00321813
-6.832619E-4
-1.7287146E-4
0.0018531873
0.003368464
0.0041423896
0.0040102615
7.200159E-4
-0.0020190377
-0.0012908927
-2.233147E-4
-6.037831E-4
-4.9136655E-4
0.003495727
0.008234925
0.0066822525
0.0025822623
5.4446526E-4
-0.0025515547
-0.004410876
-0.0023203706
-5.01591E-4
-6.424388E-4
-2.8316482E-4
0.0011447677
0.00146107
1.9759737E-4
-0.0012172356
-0.0019384766
-0.0020004015
-0.0030965712
-0.0038207995
-0.0018673212
1.8414213E-4
0.0024257544
0.0044714115
0.0021828823
-0.0013650894
-0.0024584318
-0.0026841124
-0.0012897686
1.3809167E-4
-3.9383347E-4
0.0010165388
0.0036069266
0.0032659823
0.0014131629
-2.8292663E-4
-8.5618865E-4
-8.443522E-4
-0.0029291396
-0.004536779
-0.0018655153
0.0025790092
0.004314489
0.004589404
0.004178049
-0.0016064633
-0.005724125
-0.003846969
-0.008053921
-0.010978531
-0.0029301723
0.0028472783
0.004693644
0.006946952
0.0064270827
0.0044865264
0.0011338713
-0.0020564822
-0.002979252
-0.0025517342
2.3068785E-4
0.0033434795
0.005144655
0.004269512
2.219972E-4
-0.0021192348
-0.003992076
-0.0062578777
-0.004313665
-0.0017319956
-6.5572315E-4
0.0022931225
0.0045527695
0.004037119
0.0021464739
-8.735224E-4
-0.00249411
-0.0026846782
-0.00432871
-0.00358037
-3.440337E-4
9.1799453E-4
0.0030724707
0.004363211
0.0010869992
-0.002309814
-0.0029100727
-0.0018812899
-0.0023969861
-0.0025106138
0.0010366148
0.0033946815
0.0048418837
0.0063959425
0.0038123524
-2.8688463E-4
-0.002351593
-0.0025729134
-0.0029904256
-0.0034887253
-0.0020455732
-0.0014541268
6.8669E-4
0.004238345
0.0018372159
-0.0011007815
-3.2826763E-4
-0.001013226
-0.0025782099
-0.0028444794
-0.0011253244
0.0015501503
0.0026641858
0.0014882027
-0.001190673
-0.002534097
-0.0017570494
-1.6417801E-4
4.6543765E-4
-0.0014596555
-0.0022126222
4.5825954E-4
0.0035300658
0.0047982056
0.0038761348
8.3170587E-4
-0.0036995113
-0.0047004367
-0.0020533088
-0.0020843963
-0.0016715529
5.364724E-4
0.0014644952
0.0037783922
0.0035969554
-8.593329E-6
-4.076439E-4
-1.7116363E-4
-5.353358E-4
0.0011749052
0.0021615694
0.0028776268
0.0053485385
0.005320009
8.9318806E-4
-0.0032552963
-0.005793475
-0.007746868
-0.0063788826
-0.0030026597
-0.0014304648
-1.4938989E-4
0.0016872623
0.0027406404
0.0020296436
-0.0011331629
-0.0031830396
-0.0019092453
-9.509981E-4
-4.325758E-4
7.969831E-4
0.0013242223
0.002591798
0.0033058606
0.0013722067
4.043517E-5
-0.0011371594
-0.0036462736
-0.0043047457
-0.0025704086
-0.0011194971
-5.5720925E-4
0.0011210117
0.0038696863
0.004662191
0.0017632495
-0.0012951997
-6.8142625E-5
2.4097858E-4
-0.0031884604
-0.003349642
-4.6254735E-4
0.002629846
0.005380297
0.0052261837
0.0033269133
-1.0587476E-4
-0.002562434
-0.0012886958
-9.5179986E-4
6.6475227E-4
0.004846168
0.006185873
0.005471239
0.0016856412
-0.0038000196
-0.005851063
-0.0062311427
-0.0056867767
-0.0051654866
-0.0053535756
-0.0023512184
0.0019966918
0.002836142
1.488082E-4
-0.0030060736
-0.004009687
-0.0036499093
-0.0029044077
-0.001454985
-1.6538854E-4
5.0653477E-4
0.0021783593
0.0044165747
0.0047526415
0.003628861
0.0017032967
6.781627E-4
0.0013822869
-3.4049715E-6
-0.0010315172
0.0016355364
0.004056008
0.0058296113
0.006177873
0.0022974978
-0.0023474703
-0.0037956196
-0.003619482
-0.00441737
-0.0040024044
-0.0016035825
2.89598E-4
0.0025789838
0.00291312
-1.5514098E-4
-0.0018656136
-0.002728541
-0.0032319974
-0.0018730678
-0.0018727242
-0.0012686682
0.002956981
0.004831808
0.0021654614
-3.293909E-4
-0.0022445687
-0.0043760077
-0.004531377
-0.0027553798
-6.975334E-4
0.0011744255
0.0029371753
0.0044060494
0.0042096335
0.0016002788
-0.0010266221
-0.0012283395
-0.0012519093
-0.002170959
-0.0011203694
4.7170592E-4
0.0021135996
0.004695533
0.0038659144
8.870004E-5
-0.00267965
-0.0035099026
-0.0030188027
-0.0034259048
-0.0024226648
4.5053268E-4
0.0023647433
0.0050740545
0.005549491
0.0022082007
-8.537392E-4
-0.003603076
-0.0041740257
-0.002810159
-0.0022302289
3.446426E-5
0.0034401687
0.004738103
0.003298913
2.7177998E-4
-0.0036121868
-0.007023295
-0.006160601
-0.0036388468
-0.0027487313
3.2880384E-5
0.0029529396
0.0037414343
0.0038286122
0.0021963369
4.655996E-4
-1.537971E-4
-5.174927E-4
-5.042383E-4
-0.0012498372
-2.1861855E-5
0.0039683376
0.0056334576
0.0058621145
0.00442695
-8.95221E-4
-0.0032771581
-0.001440384
-9.838053E-4
-4.8752315E-4
0.0015074785
0.0038900382
0.0051382724
0.0028147534
-0.002072534
-0.00598876
-0.0061219074
-0.004811169
-0.0053141504
-0.0051754634
-0.003476309
3.674929E-4
0.0045790803
0.003134508
-9.921567E-4
-0.0031489532
-0.0040459745
-0.004288748
-0.0044106008
-0.0019035721
0.0013518602
0.0025490862
0.0045982036
0.0046874983
0.002289275
5.534417E-4
-0.001230549
-9.401696E-4
1.3739869E-4
-2.900035E-4
5.84656E-4
0.0032388745
0.0062681073
0.0068426677
0.0034657803
-0.0011803388
-0.0029027925
-0.0012503545
-0.0011402124
-5.705745E-4
0.002355403
0.0033551243
0.0045053447
0.0034206947
-0.0012283057
-0.0023407317
-0.0029940961
-0.00453213
-0.0033025811
-0.0028668554
-0.0026258733
-4.145181E-4
0.0020215816
0.0034209052
0.0018044842
-0.002310102
-0.0060610888
-0.007933976
-0.0071946043
-0.0045898575
-0.0027631084
-0.0010283544
0.0026287956
0.003823318
0.0020012641
0.0011679902
5.514511E-4
0.0013391058
0.0012939273
-0.0011093201
0.001153078
0.0054758308
0.006247328
0.0048755263
0.0011037474
-0.0024763965
-0.0038376066
-0.0036237924
-0.0018223299
-6.803893E-4
7.234519E-4
0.003435998
0.00551628
0.006368966
0.0042131096
4.879179E-4
-0.0012147736
-0.0015914823
-0.0020916772
-0.0031915507
-0.0026390424
0.0012425988
0.004243768
0.003253209
-1.0355724E-4
-0.0035998465
-0.0062899548
-0.007016357
-0.0047696014
-0.0022464506
-0.0010442734
0.0011982896