0.001781985
0.0015458814
-1.182568E-4
-0.0020143187
-0.0025200192
-0.0013738492
-5.9723895E-4
2.4289728E-4
0.0010599009
9.333359E-4
0.0016866564
0.0023780523
0.0013692593
-3.0823555E-6
-0.0013299029
-0.002025758
-0.0024958097
-0.0025248253
-4.3985262E-4
4.4563052E-4
8.233291E-5
0.0017686774
0.0013360442
-0.0014995757
-0.00222628
-0.0015339826
-2.1454469E-4
0.0010606268
0.001750356
0.0021259119
0.0025028645
0.004199088
0.0030256745
-0.00132955
-0.001927591
-0.0017870949
-0.0027531823
-6.6841097E-4
2.680266E-4
-4.336976E-4
0.0017020213
0.0031034832
0.0010979602
-0.0011927703
-0.0020739797
-0.0019537553
-0.0019011281
-0.0031489714
-0.0032575424
-2.5605503E-4
7.975273E-4
-9.119066E-4
4.0555242E-5
4.940359E-4
-0.0032681406
-0.0039153127
7.9407054E-4
0.0028552148
0.0021812345
0.0033386042
0.004037545
0.0035650292
0.0021636765
-8.3576835E-4
-0.0017417656
-1.4341525E-4
0.0011716036
0.0013067721
8.7890914E-4
0.0026866721
0.0047377874
0.0034432458
-4.727034E-4
-0.004923705
-0.0048723835
-0.0018699504
-0.0018841457
-0.0022468672
-0.0015814262
-4.1394302E-4
0.0016439292
0.0020075354
0.0015419516
-3.452454E-4
-0.0032702703
-0.0026687114
-0.0022192388
-0.0031119168
-0.0014490482
9.805721E-6
0.0016398826
0.003893098
0.002973691
6.4057135E-4
-0.0016616564
-0.0037914847
-0.0032100931
-0.0010355816
6.661665E-4
0.0017717206
0.00238233
0.0029659246
0.0024494266
9.239931E-4
-2.8324983E-4
-0.0011877143
-7.62094E-4
-4.3051873E-4
-6.668269E-4
0.0021600274
0.004967359
0.0041485927
0.0023019714
1.3355813E-4
-0.0011639188
-0.0015821811
-0.003282635
-0.0040684915
-0.002908387
-0.0015331804
6.7805E-5
0.0019753699
0.0021447013
-0.0011696833
-0.0035127972
-0.0016696248
-5.6399027E-4
-0.0024884252
-0.0037280729
-0.0012749383
0.002527554
0.0028053517
3.531164E-4
-5.7834474E-4
4.5921843E-4
6.1727694E-4
4.2890443E-4
0.0020931326
0.0026363921
0.0023641128
0.0038902236
0.003813288
0.0021510953
8.38461E-4
-5.223749E-4
-6.450579E-4
-0.0012927996
-0.0028855093
-0.0027133117
-0.0014099191
5.6199087E-6
6.0865936E-5
-6.6568644E-4
-5.9735344E-4
-0.0018513851
-0.0025014062
-0.0021775423
-0.003598982
-0.0022523773
8.423135E-4
7.826346E-4
0.0011229936
0.001803549
6.0836895E-4
-5.237008E-6
-1.7202793E-4
-7.673819E-4
-0.001325168
-0.0010690946
7.949776E-4
0.0023725943
0.0024469632
0.0019308235
0.0013008565
0.0011140513
5.057289E-4
-0.0010604402
-4.6899557E-4
0.0015226727
4.9132644E-4
5.2732776E-4
0.0034743436
0.002212825
-3.318965E-4
-1.3942651E-4
-0.0017804559
-0.0026240333
-0.0016889732
-0.0022678257
-0.0010487047
0.001440985
0.0025496332
0.0016934898
-0.0019345093
-0.0036902216
-0.0030158216
-0.0032515207
-0.0016684497
3.9006255E-4
-1.07186854E-4
-7.1888426E-5
0.0012287503
0.0013266122
1.746665E-4
4.3421613E-5
7.710121E-4
2.7210594E-4
-3.356908E-4
-1.17042924E-4
0.0015191855
0.004132029
0.0028104193
-2.9934474E-4
-7.852342E-4
-0.002954476
-0.004135495
-0.0013974608
-8.591969E-4
-5.565293E-4
0.0011785738
9.011574E-4
0.0013072189
0.0024304113
0.0019167298
8.494984E-5
-0.0017486351
-0.001210707
-5.571104E-4
-5.3164596E-4
8.355295E-4
0.0017367394
0.003048378
0.003445962
6.7090854E-4
-0.0013157554
-0.0020769632
-0.0026615248
-0.0018290924
-3.8398264E-4
2.7790712E-4
1.9444394E-4
9.5298537E-4
7.0991693E-4
-0.0010304397
-9.713885E-4
-0.0011371619
-0.0014303566
-0.0010033131
-0.0020669396
-5.1779096E-4
0.0027164605
0.0034657489
0.0035147215
1.3625933E-4
-0.0037744273
-0.0022384431
-0.0015960957
-0.0022386205
3.6187953E-4
0.0011501618
2.900059E-4
0.0018870713
0.002388973
8.9527975E-4
2.0983917E-4
-6.148568E-4
-0.0016978353
-0.0017425932
-0.0011966308
-6.146572E-4
-1.17075E-4
5.6839007E-4
0.0011315206
9.781626E-4
5.6122337E-4
1.6061617E-4
6.903759E-4
0.0021524406
0.0023979037
0.0012696225
6.8652874E-4
0.0012325853
5.6667335E-4
-0.001969926
-0.0029686631
-0.001996719
-7.887754E-4
-1.376861E-4
-8.0442225E-4
-5.7241175E-4
0.0012358509
0.0021876402
0.0014613764
-0.0010717912
-0.0025534043
-0.0018774971
-0.0024991662
-0.0024545093
-3.181817E-4
4.291384E-4
9.5720636E-4
0.0018837244
9.281318E-4
-4.71689E-4
-0.0012879143
-0.0010680442
0.0011385633
0.0018189196
5.0721026E-4
0.0015077387
0.0019217328
-5.573134E-4
-8.461314E-4
3.1455187E-4
-9.4400864E-4
-0.0017382047
-8.461921E-5
5.730804E-4
-7.6921715E-4
-3.2636072E-4
0.002047593
0.0027817849
0.0020326327
8.287714E-4
-6.191569E-4
-0.0013797274
-0.0023368644
-0.0032336896
-0.0027994674
-0.0012534688
0.0017922001
0.00388502
0.0022624638
-1.9420296E-4
-0.0012530857
-0.0017974548
-0.0022463463
-0.0016956332
3.3105453E-4
0.0013517851
0.0010053795
0.0020306138
0.0027206251
7.11352E-4
-0.0018395282
-0.00320696
-0.002706255
-4.390994E-5
0.0015442667
6.908449E-4
0.0013474359
0.0025531438
6.532861E-4
-5.661253E-4
-1.4850807E-4
-0.0017501242
-0.0028173248
-0.0014742088
2.974434E-4
0.0013816861
0.0012377071
0.0013666531
5.4897834E-4
-0.0022691358
-0.0021002162
2.5158768E-4
0.0012025562
0.0021511093
0.0012299946
-7.854988E-4
8.710844E-4
0.0039264243
0.0035989545
-3.4897294E-4
-0.0040079183
-0.0051144017
-0.0046149255
-0.0018404304
4.9866847E-4
-5.494393E-4
-5.429028E-4
0.0021393937
0.0034533471
0.0019110168
2.9332368E-4
1.9443316E-4
-0.0015598176
-0.0046592443
-0.004599158
-0.0014885992
0.0021203402
0.0042330814
0.004127679
0.0030728006
7.3852844E-4
-0.0017796223
-6.698734E-4
0.0015186795
7.296055E-4
0.0010218621
0.0031458884
0.0023730856
4.0975987E-4
-5.6980195E-4
-0.0010480881
-4.5988828E-4
-2.6967397E-4
-8.715565E-4
-0.0018202771
-0.0023802922
-5.5203804E-5
0.00220486
0.0014817202
-2.9762308E-4
-0.0026466965
-0.0026173021
-9.802879E-5
-5.4645224E-4
-0.0022757244
-0.0016796021
-2.3453597E-4
6.0762756E-4
0.0010384045
0.0010969341
-9.596489E-4
-0.003338718
-0.0025382056
-4.354159E-4
-3.2830742E-4
-0.0025871545
-0.0015196968
0.0027177213
0.0014933409
-8.3396456E-4
-1.9604963E-4
-0.0011037269
-9.706208E-4
-4.7284452E-4
1.3082255E-5
0.0026792737
0.004012173
0.005510244
0.0069281496
0.006388555
0.005371898
0.0018769482
-1.6403293E-4
-1.3659679E-4
-0.0025719157
-0.0030054527
-2.6728466E-4
0.0021996142
0.0017552453
-9.226968E-5
-5.481619E-4
-0.0029840444
-0.0038312743
-0.00380866
-0.0049388087
-0.0010335942
-0.0061709797
-0.015199821
-0.004134311
0.005864109
0.002429095
0.0010175947
-4.4387384E-4
1.2324753E-4
0.002510378
0.0011206182
0.0029379951
0.0055881073
0.004285867
0.002192082
-2.5041273E-4
-0.0010531878
-8.51084E-4
-5.896789E-4
0.0014204507
0.0017001014
-2.4557262E-4
-2.2023772E-4
0.0021226367
0.0035285635
0.0013461189
-9.353872E-4
-8.5494027E-4
-0.002124979
-0.0036369103
-0.0032844646
-0.0026999917
-8.1441575E-4
3.226901E-4
-0.0015094263
-0.0026334364
-0.0020503253
-4.3325225E-4
0.0012366563
0.0012039464
0.0021628612
0.005393857
0.0069768815
0.004859806
0.0021175968
-4.8129736E-5
-0.0037363933
-0.0053036637
-0.0034097899
-0.0022651728
-9.6781494E-4
4.7317948E-4
0.0019718637
0.0037527052
0.002628845
7.580168E-4
-8.4476266E-4
-0.0013704209
0.0010800028
-3.7267088E-4
-0.0032877359
-0.0014057842
-7.6212245E-4
-2.552848E-4
4.3160003E-4
-0.0039008972
-0.0062312037
-0.0025220115
5.393281E-4
6.3973694E-4
2.4389409E-4
0.0010181819
0.0027081796
0.003762737
0.0023593544
-3.9860778E-4
-0.0014908096
-0.0017645882
-0.0022911513
-0.0015826707
6.796619E-4
0.0031081294
0.0035711795
0.002653711
0.0020325738
0.0010847754
4.6298053E-4
3.084291E-4
-7.7526906E-4
-0.001199905
3.0891527E-4
0.0018691272
0.002450771
0.0016795729
-8.2864973E-4
-0.0027451662
-0.0032924192
-0.0035389182
-0.0021423758
-6.2939856E-4
4.140024E-4
0.0030049456
0.0030673163
0.0011548074
0.0020386889
0.001690801
-6.315111E-4
-0.0011682812
-0.0016497751
-0.0021218972
-0.0017405031
-0.002320625
-0.0017946614
0.0011343451
0.0016682732
-0.0015594678
-0.0038202428
-0.0032592078
-0.00202071
-0.001009227
6.899737E-4
0.0030646222
0.0042009642
0.002950984
9.419186E-4
-8.6510804E-4
-0.0025020407
-0.001622417
3.7556176E-5
-0.0011797092
-0.0015662519
-1.8206022E-4
0.0018411241
0.005600725
0.0047230995
8.595905E-5
3.1744465E-4
0.0017387572
0.001091976
9.1837277E-4
2.4236337E-4
-3.844242E-4
8.0206327E-4
0.0022557478
9.338199E-4
-0.0013178926
-0.001175654
-4.6965262E-4
-1.9267015E-4
-9.376262E-4
-0.002024047
-0.0011596658
-8.021342E-4
-0.0016918338
-0.0037063218
-0.0063773794
-0.0060236463
-0.0043054875
-0.0025771714
-0.0011937319
-5.897034E-4
0.002840019
0.0032006206
9.0471335E-4
0.004300051
0.006478417
0.0074844025
0.009893294
0.008481307
0.008571823
0.009841288
0.008338038
0.007099586
0.004741115
8.1127386E-5
-0.006631902
-0.011723732
-0.013296963
-0.015038198
-0.01472482
-0.01380296
-0.0136514185
-0.01038996
-0.0074989875
-0.006780437
-0.0075158435
-0.0083976425
-0.0066395523
-0.0045623044
-0.0020712295
0.001900563
0.0063020494
0.010159017
0.01298013
0.016724095
0.019759683
0.022399113
0.02378379
0.02122934
0.019291934
0.014906759
0.0079253595
0.0038027542
6.4835796E-4
-0.0016040503
-0.008003612
-0.013010414
-0.013250309
-0.018596629
-0.015436071
-0.00911636
-0.009684311
-0.0043002856
-0.010773039
-0.019029591
-0.012441201
-0.016162993
-0.011565318
0.0046142503
0.0045128865
0.0047466396
0.006131992
0.0027416775
0.0049205157
0.0051966123
0.0036510634
0.0022954221
9.4400713E-4
0.0023985438
0.0013991485
0.0014329915
0.004279618
0.0061157676
0.0072855605
0.004470119
3.500875E-4
-0.0011674559
-0.0014540968
-8.391514E-4
-4.3041125E-4
9.82745E-4
0.0032557726
0.0048133573
0.0063225697
0.0066786767
0.0058793738
0.00577004
0.005435603
0.0018152272
-0.0015506579
-6.159228E-4
-0.0018987686
-0.006357875
-0.008500026
-0.008751342
-0.008148388
-0.007893852
-0.0065978914
-0.0027814712
-0.0012020827
-0.00221969
-0.0017495829
-0.0011147447
-0.0019173368
-0.0012322734
-4.015245E-4
-9.875512E-4
0.0011711942
0.0017899182
-5.9807836E-4
0.0021476669
0.006022621
0.007506389
0.008954801
0.005634139
-0.0010555012
-0.0057444223
-0.007388628
-0.005825162
-0.0042595975
-0.0042278175
-0.0034670234
-0.0027375456
-0.0027290182
-3.9773178E-4
0.00447181
0.008088775
0.010344628
0.010993629
0.008097147
0.006427987
0.008483567
0.008001174
0.0016436375
-0.0071856445
-0.013352816
-0.013383345
-0.0070359325
-1.5090042E-4
0.0014667137
0.0010847
0.0012714282
0.0016934616
0.0036930921
0.0032422764
-0.0010970483
-0.0043587964
-0.005769449
-0.0054041278
-0.003166332
-9.790822E-4
0.002209582
0.0065326197
0.007023501
0.0037322291
0.0022669476
4.545727E-4
-0.0029295427
-0.0023100192
-9.6605124E-4
-0.002219836
-0.003615011
-0.0065519493
-0.007929895
-0.006446153
-0.006818047
-0.0076925433
-0.0082082525
-0.00782879
-0.0050508943
-0.0020296215
0.0031004152
0.00988795
0.014124095
0.01714872
0.019195566
0.019044345
0.016597996
0.01326294
0.012679837
0.012351932
0.008028999
4.488638E-4
-0.0076481537
-0.011667197
-0.013258319
-0.016498653
-0.01639268
-0.012690243
-0.012884843
-0.016195633
-0.016097534
-0.01093387
-0.005687711
-0.005688897
-0.0099105025
-0.013416558
-0.010955689
-0.004038766
1.923628E-5
0.004760421
0.014832499
0.023073524
0.027817946
0.031925455
0.033961657
0.03453281
0.03258642
0.027656907
0.01816914
-0.0013999598
-0.021099165
-0.026108202
-0.023731062
-0.023928914
-0.020976324
-0.013452286
-0.009107639
-0.008640408
-0.00936992
-0.010581966
-0.012592738
-0.017985206
-0.020950265
-0.015841572
-0.010326663
-0.009827454
-0.013192601
-0.01604927
-0.012631953
-0.003772158
0.005042632
0.012157628
0.022146886
0.030525267
0.03165247
0.034333292
0.0341699
0.023124686
0.009711537
-0.0023902052
-0.008899345
-0.006506915
0.0016900257
0.012272811
0.01663468
0.020388108
0.028926006
0.028796734
0.017534578
-1.3185506E-4
-0.014785356
-0.020861475
-0.030623736
-0.036906622
-0.033323657
-0.031939115
-0.026877353
-0.02200102
-0.021249369
-0.007370064
0.0016828568
-0.012351922
-0.018199772
-0.0072049364
-0.0030887558
-2.5331796E-5
0.011909803
0.020310842
0.024458762
0.030292261
0.035876244
0.042230483
0.045995295
0.042708278
0.033232234
0.011489247
-0.025104942
-0.056000873
-0.06157887
-0.052642215
-0.042281307
-0.031091562
-0.02334904
-0.015513372
-0.008712026
-0.008364964
-0.0038092893
4.8633426E-4
-0.0026911593
-3.463324E-4
0.0075117936
0.011150562
0.011245474
0.019297656
0.03438297
0.04365575
0.05184921
0.05234342
0.045469698
0.050941482
0.049857765
0.03786645
0.03121868
0.017288879
0.0064644758
-0.0036934204
-0.04083758
-0.0766364
-0.073606014
-0.046611458
-0.029897753
-0.03330859
-0.04351686
-0.052126665
-0.05634721
-0.053679958
-0.04149494
-0.02765839
-0.017569814
-0.007223528
-0.009395236
-0.009189388
0.0070347497
0.013414188
0.025640067
0.0451453
0.05534802
0.08331269
0.10538341
0.102162406
0.097091936
0.07419373
0.038333274
0.0062072035
-0.021417845
-0.029176872
-0.037613194
-0.06649171
-0.08274423
-0.076884374
-0.07947886
-0.07982958
-0.049166955
-0.008896487
0.017146638
0.025457004
0.036158044
0.05935327
0.04491843
0.014040714
0.02353941
0.027109865
0.0020886082
-0.03510587
-0.07169363
-0.05867203
0.00631888
0.07430431
0.10670092
0.09429105
0.07301603
0.0600625
0.010915526
-0.08595786
-0.14014691
-0.11520971
-0.09120328
-0.08422225
-0.06685091
-0.048841357
-0.02655609
-0.009588334
-0.008517008
-0.012996341
-0.02063774
-0.0119510135
0.041376896
0.12340969
0.18385635
0.21012913
0.20880456
0.16600625
0.096843764
0.026124211
-0.038589004
-0.11119673
-0.18617746
-0.18932453
-0.13458191
-0.09842949
-0.06615155
-0.036850598
-0.0077274702
0.027789436
0.025690546
0.0063204304
-0.0109212855
-0.024359886
-0.0052396418
0.008027546
0.0150809325
0.033978064
0.017767355
0.006708524
0.024330225
0.01442597
0.0123332795
0.039265938
0.04113542
0.03608717
0.06928602
0.10259428
0.08000699
0.033834282
0.015054189
-0.02429458
-0.11007216
-0.15350367
-0.12794366
-0.09926861
-0.07615575
-0.04566519
-0.023114946
0.002962636
0.037552707
0.056234952
0.05598618
0.046957098
0.034287658
0.032386754
0.042277575
0.04812489
0.045234263
0.028412132
5.576174E-4
-0.019043079
-0.028097
-0.032512728
-0.033229493
-0.03121773
-0.025553714
-0.023286283
-0.02016528
-0.0069262367
0.005222193
0.013293077
0.018338423
0.01892206
0.02221824
0.021530109
0.01386788
0.007690928
0.0027072397
0.0034005363
0.0074117472
0.0057834205
0.003056527
0.0032524164
0.005318493
0.004327467
-5.140632E-4
-0.0027387554
-0.0037912892
-0.00371344
-8.5885375E-4
4.153427E-4
-8.074441E-4
-0.0039374097
-0.008381653
-0.016380701
-0.026357671
-0.031045685
-0.034880403
-0.041303657
-0.04872833
-0.053395227
-0.04100841
-0.013390946
0.017868912
0.045602616
0.052940995
0.04440157
0.03743967
0.029171882
0.020033136
0.012968853
0.0068916134
0.005797852
0.006938118
0.0077876067
0.012959205
0.019640576
0.022571411
0.021651192
0.015022403
0.0057490934
0.0018285002
8.961353E-6
-0.0039949245
-0.007156152
-0.009505526
-0.010824434
-0.012056739
-0.015035661
-0.017177427
-0.018885873
-0.01956798
-0.015842509
-0.01013118
-0.0060115135
-0.0033594612
0.0016322891
0.008522334
0.009256876
0.0038693382
-0.0034519327
-0.01180875
-0.013213519
-0.0067532174
-0.004649721
-0.0075636767
-0.0079053985
-0.0054975483
-0.002789291
-0.0023710523
-0.0036456462
-0.0031126933
-0.0021172059
-0.0011435911
0.0022027215
0.0062562493
0.009555814
0.01335933
0.015956199
0.013570457
0.0076867896
0.003267725
0.0016078511
0.0024793423
0.005342313
0.008601933
0.011027376
0.011067513
0.0098986905
0.00906456
0.0074482234
0.004589488
-3.4392497E-4
-0.0046971478
-0.0056927083
-0.0060664625
-0.0044791177
-7.742974E-4
-2.3136813E-4
-0.0037462988
-0.009217751
-0.013703472
-0.015901519
-0.014436553
-0.008219487
-0.0039685383
-0.0025201072
0.0013416271
0.002486435
-4.0977413E-4
4.5927725E-5
-2.6619554E-4
-0.009356956
-0.015838368
-0.011186948
-0.00805727
-0.004195435
0.008920343
0.016671468
0.013210267
0.007601445
0.0032243303
0.0018823063
0.0028800427
0.003849936
0.002865549
0.0012723734
0.0028303845
0.0033470874
0.0017124995
0.0011064438
-1.5306157E-4
-1.6449978E-4
-3.626329E-5
-0.0020921682
-0.0025689495
-0.0010296699
0.002513317
0.00489138
0.0025553387
-1.8680733E-4
-0.0028822215
-0.0043171654
-0.0023250212
-7.281764E-4
0.0016928429
0.0039215703
0.0026284722
8.2520006E-4
-7.0124696E-4
-0.0016272767
-0.0030853758
-0.0047690286
-0.00232767
-1.5156905E-4
-3.550286E-4
0.0011606899
0.0029178872
0.0035379378
7.144416E-4
-0.0042715427
-0.0053271833
-0.0052621844
-0.0063068927
-0.0039475197
-1.0618843E-4
6.05396E-4
8.031606E-4
0.0014958653
6.945567E-4
0.0013920955
0.0023990744
0.004043543
0.008518565
0.0049727205
-0.0036921103
-0.002917719
0.0017577686
0.0036413753
0.0029342114
-6.811621E-4
-0.004188801
-0.006049319
-0.0037966734
-3.3698106E-4
-8.2622183E-4
-4.4030813E-4
0.0025739325
0.0054934104
0.0063672233
0.0035109965
-3.7184675E-4
-0.0027177038
-0.002621805
-0.0016907202
-4.8011757E-4
0.003441509
0.0065392423
0.005919176
0.0021805908
-0.0022880267
-0.0031773448
-0.0033290621
-0.0034056362
-0.0018415549
-0.0021742464
-8.864688E-4
0.003179799
0.0044112937
0.0032701518
4.118396E-4
-0.0035341817
-0.005258942
-0.0043976274
-0.002750167
-0.0015279183
-1.7948925E-4
0.0015346037
0.0026227592
0.0020617868
-7.718781E-4
-0.0042010024
-0.0053792447
-0.003770807
-0.0020947212
-0.0015669096
-1.5207044E-4
0.0026237066
0.0050521074
0.0037574552
7.928397E-5
-1.533491E-4
6.6103E-4
5.586913E-4
0.0021067762
0.0015922355
5.2064875E-5
0.0031401345
0.006889891
0.0054291906
0.001107455
-7.02419E-4
-7.118007E-5
4.9918384E-4
0.0010163465
0.002118084
0.0048030196
0.0062397406
0.0035243009
3.1217237E-4
-0.0032573442
-0.008370643
-0.010493534
-0.008669356
-0.0068377615
-0.0064017153
-0.0044152075
-8.4242196E-4
0.0017147185
0.0031025666
1.9740194E-4
-0.00351101
-0.0025717393
-0.004686552
-0.006468001
-0.0019154336
-5.491634E-4
-1.10566245E-4
0.0029569701
0.0031241875
0.002042911
0.0011614138
0.0026705395
0.0046103657
0.0023079568
0.0016628212
0.0027688374
0.00462817
0.008786841
0.006943522
9.396313E-4
-0.0023360471
-0.0033263168
-3.6705748E-4
0.0013872689
-5.2484876E-4
7.9596956E-4
0.0044842134
0.007073726
0.006630285
0.0023424863
-7.902596E-4
-0.0016398607
-0.0036557158
-0.006094052
-0.007160944
-0.005943677
-0.0018859694
8.032605E-4
-0.0023949388
-0.0071139405
-0.0076484936
-0.006633457
-0.006801798
-0.0047930237
-2.2120903E-4
0.0022956815
0.0028853212
0.0046984083
0.006230558
0.004033609
-4.2365617E-4
-0.002178699
-0.0032104508
-0.0055800085
-0.0023854966
0.0050184
0.009734601
0.012175701
0.00966928
0.002890893
-0.0014557316
-0.0038600753
-0.004931898
-0.0027000234
8.66646E-4
0.0026045786
0.0031745613
0.0045110267
0.0026172295
-0.0020590085
-0.0035005887
-0.0039687078
-0.0035851311
-0.0015030807
-0.0017885725
-5.967525E-4
0.0026457293
0.00317875
0.0034735769
0.0023282294
-0.002966612
-0.007477855
-0.0064628855
-0.0028227877
-0.0021631012
-7.1876746E-4
0.0032987166
0.0033100094
0.0010297523
-8.912449E-4
-0.0037796884
-0.0037233324
4.8183327E-4
0.0037840703
0.0025898109
-1.3956655E-5
0.0013226261
0.0050088777
0.0051911366
9.153902E-4
-0.0024168133
-0.0019306428
-5.7856267E-4
-0.0017465526
-0.004888061
-0.0037871788
0.001765837
0.004561832
0.0033349989
-8.486761E-4
-0.0055328556
-0.0064768842
-0.004341887
-0.0018900709
-8.5725356E-4
6.034878E-4
0.003342706
0.0049810917
0.005346387
0.0021275992
-0.001956009
-5.494761E-4
0.0021798443
0.004201867
0.0063022994
0.005606949
0.005921023
0.007625122
0.004185554
-0.0011089246
-0.0024152242
-0.0030494595
-0.0042269123
-0.0048194104
-0.0068452833
-0.006322731
-0.0019500727
-8.6550013E-4
-0.003899568
-0.005955478
-0.0058409185
-0.0072715716
-0.005639184
0.0021174739
0.003942966
0.0010991944
-0.0037138823
-0.012004571
-0.006120825
0.0058482187
0.0069842353
0.011923676
0.016076533
0.010442993
0.004912911
4.348804E-4
9.107502E-4
0.005290013
0.0053443452
0.002157239
-0.0035567882
-0.0064861258
-0.0044462136
-0.0027357363
-3.3126652E-4
6.892297E-4
4.209633E-4
0.002854789
0.00313186
-5.48772E-4
-0.0036266446
-0.0043330835
-0.0047060847
-0.0067512677
-0.0075449008
-0.004881206
-6.135313E-4
0.0025865007
0.002390863
2.3230453E-4
-0.001272891
-0.0015400075
-5.0003023E-4
5.4214644E-4
0.001450625
0.0024737061
0.0031331882
0.0057446533
0.0074144183
0.0028027769
-0.0030382068
-0.0053624986
-0.0050185677
-0.002613347
-2.2891628E-4
0.0020052579
0.0035645221
0.0030800418
0.0026832519
0.0018732465
-6.520789E-4
-0.0031692134
-0.0033655663
-0.0014021933
-2.8295055E-4
0.0022841557
0.005592967
0.004318855
0.0027846943
0.0015567674
-0.0025804266
-0.003800581
-0.0019300563
-0.0022951746
-0.0026024338
-6.300362E-5
0.0019156181
0.0018682781
7.7936583E-4
-0.0025628698
-0.0047858288
-0.0044705486
-0.0050855614
-0.003996731
-0.0012269556
2.38037E-4
0.0017670257
0.0030375817
0.0022917406
-0.001690852
-0.005302381
-0.004504328
-0.0017700304
0.0024592432
0.0057920245
0.0054107266
0.0068078535
0.010756607
0.010959782
0.005495758
-0.001083844
-0.0050073336
-0.007382195
-0.006946131
-0.0035107099
-0.001176515
2.5223088E-4
0.0024761423
0.0041451966
0.004065743
0.0032996368
0.0020224103
-0.0011234755
-0.0048809294
-0.008050907
-0.008317255
-0.004322706
-0.0010434904
4.76327E-4
9.916788E-4
-9.630342E-4
-0.001674965
-0.0011365609
-0.0015134676
-8.7930774E-4
-6.4894685E-4
7.090675E-4
0.004972287
0.0065136077
0.004179405
1.2761883E-5
-0.004353447
-0.004617449
-0.0029013506
-0.0025587587
-0.001098208
0.0017915784
0.0054757586
0.0068901004
0.0037879464
0.0013336643
5.220842E-4
-7.695715E-4
-0.0020625647
-0.0028742955
-8.514399E-4
0.0017939976
0.0028331354
0.0034041463
0.001406438
-5.1844225E-4
-0.0012935693
-0.003221752
-0.003164456
-0.0015708276
-3.6120496E-4
-5.418386E-5
4.2689877E-4
0.0021991676
4.9134175E-4
-0.0015699449
-0.0012992945
-0.0021401746
1.8522184E-4
0.001078757
-0.0012158098
0.0017038011
0.0036949294
0.0021724023
1.0285432E-4
-0.0037162348
-0.004197491
-0.0017275186
-2.0417798E-4
3.867959E-4
5.898636E-4
0.002359547
0.002550786
-1.2352435E-4
-0.0018314763
-0.002313966
-0.00151829
-1.9955484E-4
-1.576384E-4
-0.001222107
-0.0010620648
0.0018146379
0.0037917215
0.0032545642
0.0019358764
-6.3126365E-4
-0.003354619
-0.00396715
-0.003582886
-0.0031739632
-0.0015439945
3.4380428E-4
0.0030573476
0.0052813967
0.0018292849
-0.0019932978
-0.0026308997
-0.0036474036
-0.0022919632
1.0700256E-4
0.0028564255
0.0072240476
0.009209853
0.008435925
0.0032799842
-0.0023517064
-0.0026966261
-0.0017093662
-7.3987736E-5
-7.7157817E-4
-0.0021657262
0.0012195847
0.0041824253
0.005471373
0.002243709
-0.0016145835
-0.0037381467
-0.014893076
-0.015198796
-0.0032018356
-0.006226804
-0.0048087016
0.0057946704
0.00500936
0.00227417
-2.3563097E-4
-0.0022041253
4.4902836E-4
0.0017448463
0.003403007
0.0032253114
0.0025126266
0.0054329117
0.004183179
0.0010238423
-1.4007976E-4
-0.0021805626
-0.0022715838
-4.1577473E-4
0.0012105855
0.0022988212
0.0028062738
0.002754924
0.0018927897
7.2715565E-4
-0.003006215
-0.007303423
-0.0063681756
-0.0027675123
-4.8624733E-4
9.258371E-4
0.002735078
0.0033549399
0.0014377009
6.0725963E-4
-0.0017529753
-0.0063398136
-0.004746113
-9.64049E-4
-3.0011914E-4
0.0015757929
0.0029016063
0.0031320874
0.0038067275
0.0028849854
3.0291177E-4
-0.0033273865
-0.0033620119
-5.4075825E-4
-0.0014646656
-0.0010503863
0.0012867262
0.001223506
0.0029658144
0.0031362711
2.8159955E-4
-1.5493207E-4
7.1921136E-4
0.0035890618
0.0054091644
0.0026233094
0.001439983
0.0013684699
-4.5119642E-4
-0.002148776
-0.0043435628
-0.005237562
-0.0036117383
-0.0014764077
4.6862377E-4
0.0013467944
0.0024137953
0.0036461852
5.838735E-4
-0.0039046921
-0.0045677726
-0.005812495
-0.0069342675
-0.003472381
-0.0016154717
-0.0021472534
1.3655325E-4
0.0030396604
0.0048891837
0.003623798
-0.001312116
-0.0035797732
-0.001845504
1.0428396E-4
5.475993E-4
0.0013243953
0.0042872913
0.0052798884
0.003826175
0.002566885
-2.9210845E-4
-0.0014298644
5.331719E-4
0.00122926
0.0030258012
0.005517474
0.005163937
0.005802091
0.005992944
0.001572674
-0.0016662778
-0.0018602498
-0.0023379389
-0.0024563717
-0.005379912
-0.008416992
-0.0039613
3.0638342E-4
1.4719371E-4
-0.001018041
-0.006426321
-0.008801689
-0.0044297366
-0.0027859756
-0.0013020607
7.4480264E-4
3.874347E-4
0.003012914
0.0042335265
7.1070035E-4
-9.810836E-4
-5.343928E-4
3.4443132E-4
9.5032575E-4
6.575096E-4
7.735162E-4
0.002140475
0.005171491
0.006515466
0.0038100288
-2.9172047E-4
-0.0031217374
-0.0027863903
-0.0019791592
-9.3665475E-4
0.0038166032
0.006327875
0.0039086565
0.0013557121
-0.0011978643
-0.0029472413
-0.004483653
-0.006938203
-0.0062775915
-0.002405021
0.0024842354
0.007345865
0.008156382
0.0037335993
-0.0017740815
-0.0044758576
-0.0045556654
-0.0047337366
-0.0051957075
-0.003764744
3.4908918E-4
0.004179973
0.0041573704
0.002047599
6.8049756E-4
-9.692294E-4
-0.0029614877
-0.003167775
-8.107393E-4
0.0016115905
0.002090784
0.003878932
0.00726444
0.007581831
0.004539382
-8.2808797E-4
-0.005501733
-0.0053609996
-0.0046181926
-0.0045700613
-0.002226972
-9.155846E-4
5.300855E-4
0.0032314667
0.002600971
6.5602694E-4
-0.0010235003
-0.0025456923
-0.0023273812
-0.0037655432
-0.004248486
-3.5308094E-5
0.0026622426
0.0023847404
8.68787E-5
-0.0032079595
-0.002407403
-5.397861E-4
3.899523E-4
0.003232033
0.0045100353
0.005703696
0.008594559
0.007776583
0.0026888798
-0.0037225622
-0.006584748
-0.0048576947
-0.0028223451
-1.5325847E-4
6.2185386E-4
-1.3995865E-4
0.0026889949
0.003351629
8.749382E-5
-0.0025358978
-0.004909275
-0.0043316255
-0.0012759739
7.2704465E-4
0.0015602169
6.969509E-4
5.5169273E-4
0.001252557
5.378309E-4
-1.678526E-4
-7.383237E-4
-4.3366977E-4
2.0969482E-4
-0.0010116689
-0.0015245108
1.9205949E-5
0.002403547
0.004709082
0.004392305
7.4502965E-4
-0.0030065568
-0.0027544026
-5.2000953E-5
3.0199223E-4
2.0577473E-4
0.0017942877
0.0018275285
-1.8590792E-4
-0.0017593716
-0.0030894515
-0.0051719607
-0.004569212
-3.0023666E-4
0.0014380431
1.7971345E-4
6.320824E-4
0.0021684216
0.0021667655
5.2516966E-4
4.1455918E-5
-5.5789E-5
-0.00303154
-0.004694428
-0.0027996884
-3.252637E-4
0.003039784
0.0062918374
0.0074861455
0.0056173257
7.802845E-4
-0.0027718067
-0.002063654
9.4622676E-4
0.001877755
8.780839E-4
8.525615E-4
6.8221496E-5
-2.936962E-4
4.0873853E-4
-8.3814684E-4
-0.0022145163
-0.0029095944
-0.002618639
-0.0019846775
-0.0031360865
-0.0021671073
7.143618E-4
0.0028401786
0.004325621
0.0018640483
-0.0019985458
-0.002597885
-0.0018722209
-0.0021675697
-0.002410528
-6.405571E-4
4.8602775E-5
2.0648258E-4
0.001593029
-8.1189815E-4
-0.0028898695
-0.0012540098
-6.9928414E-4