-0.022176843
-0.03315491
-0.045607373
-0.048456933
-0.03004795
-0.014461954
-0.039045062
-0.08992617
-0.08548272
-0.028246854
-0.015167827
-0.019745663
0.010342516
0.026851978
0.04165498
0.06939234
0.075602815
0.065529436
0.028314732
-0.014586335
-0.021428507
-0.014927351
-0.001217937
0.013400608
0.011910474
-0.0071341465
-0.036081754
-0.028717043
-0.0035236082
-0.008334539
-0.021241512
-0.049617402
-0.0679029
-0.017517142
0.050928958
0.075679906
0.08569358
0.097326405
0.057645336
-0.020416968
-0.068875216
-0.06602232
-0.010932373
0.010172258
-0.027592354
-0.032327637
-0.021613663
0.021475645
0.08076336
0.07370943
0.074525304
0.03869875
-0.029221842
0.0011655488
-0.009459608
-0.0361055
0.024064036
-0.0130904345
-0.114169955
-0.14366832
-0.103905745
-0.029289654
-0.024132183
-0.019885562
0.050604932
0.089602776
0.1297443
0.16130103
0.118267685
0.035461057
-0.058304586
-0.08439546
-0.052933037
-0.07075136
-0.09297295
-0.093385935
-0.097473785
-0.05162053
0.017522516
0.050009787
0.07533898
0.089873224
0.05989739
0.024155077
0.02277856
0.023702282
0.0075239073
-0.009501212
-0.03947489
-0.076219
-0.08136428
-0.05143082
-0.0070930943
0.0315165
0.05131625
0.05049174
0.04393141
0.062598415
0.08839732
0.075969815
0.034557797
-0.0036578702
-0.021559142
-0.042044207
-0.070370086
-0.052410543
-0.0107642
0.0068083536
0.015885744
0.0041075856
-0.014523627
-0.0136015285
-0.013581138
-0.010748179
-0.0073856874
-0.014329118
-0.041283615
-0.06852527
-0.03632861
-0.008075429
-0.027709356
-0.009671058
0.022017214
0.041224044
0.06468936
0.044094827
0.0141136525
-0.00570777
-0.03753063
-0.026313422
0.012950592
0.033996798
0.042500686
0.047444213
0.056438796
0.0334186
-0.010065589
-0.030371254
-0.048343495
-0.04771518
-0.02807492
-0.022054382
-0.022737531
-0.02946707
-0.014675861
0.021948168
0.03530318
0.03068567
0.035165623
0.05961159
0.054400746
0.007733198
-0.011470301
-0.016713133
-0.013480084
0.0067159287
-0.0011195125
-0.014130657
-0.025755944
-0.031750463
-0.013963964
-0.028640639
-0.04389345
-0.026731312
-0.020533727
-0.011568442
-0.029520787
-0.061039377
-0.03581342
6.3666387E-4
0.012229444
0.004893773
7.2457653E-4
0.025386052
0.03732796
0.05279309
0.093072735
0.10305118
0.09250458
0.070045926
0.005355499
-0.06786269
-0.07925122
-0.02250987
0.02057243
0.032108907
0.052304655
0.048951063
0.02225177
0.008652694
-0.0030148264
-0.011879675
-0.018440148
-0.040506825
-0.08047098
-0.11023808
-0.08095758
-0.01826356
0.005819067
0.001433917
0.011061843
0.031368006
0.037241418
0.019830914
0.008231826
0.022622159
0.031051358
0.0061427276
-0.04224634
-0.08738127
-0.09473953
-0.065273255
-0.026525622
0.004104722
-0.0041412506
-0.028894084
-0.024149163
-0.025733277
-0.024480049
0.01124269
0.032002594
0.040878933
0.060323905
0.06550665
0.055520777
0.035327457
0.022368638
0.025959373
0.029731272
0.030560479
0.017618723
0.004760186
0.009485606
0.024609642
0.059650645
0.07335437
0.03942272
0.011545069
-8.1229967E-4
-0.0018277185
0.012109892
0.010708191
-0.01001592
-0.037818346
-0.056338623
-0.054243755
-0.05959478
-0.074534394
-0.07096236
-0.055199586
-0.03994573
-0.026621819
-0.023211332
-0.024635209
-0.017759554
-0.004624761
0.007736099
0.014438514
0.015025252
0.011760959
0.002103369
-0.0119093815
-0.020442916
-0.018464426
-0.013216705
1.9571484E-5
0.019416485
-0.0026086117
-0.038865667
0.004178831
0.08254488
0.10510561
0.07458013
0.022306519
0.0014506194
0.024585633
0.02490183
-0.0032676249
-0.0021017878
0.0051931688
-0.039794676
-0.08190484
-0.051392816
0.011208555
0.06028878
0.080315076
0.06225065
0.029015517
0.0012653833
-0.006598048
-0.0025777107
-0.015596384
-0.026353192
-0.0153788235
0.0090055885
0.037007567
0.03102777
-0.006228382
-0.031176621
-0.04409466
-0.048744988
-0.047722362
-0.0469129
-0.036576755
-0.028807012
-0.020678766
-0.022542104
-0.057236504
-0.058046598
-0.0211227
-0.012840977
0.006070803
0.038402233
0.044407587
0.04944542
0.053037003
0.05170749
0.050792154
0.031855084
-0.010850659
-0.056112446
-0.049520798
0.006204782
0.054493792
0.07578133
0.050592426
0.003847478
-0.013611751
-0.016952686
-0.016287902
-0.008702161
-0.008614133
-0.020304224
-0.034382254
-0.029366694
-0.008732873
0.006532452
0.014749144
0.012769444
-9.440693E-4
-0.011422514
-0.010403169
-0.003424699
0.008435329
0.010014056
-0.0020851272
0.009791661
0.03280273
0.028234968
0.014456154
0.010657447
0.00545227
-0.025437053
-0.05123546
-0.02756093
-0.002945421
0.008069558
0.021531183
0.013464865
0.013994537
0.014335415
-0.016466845
-0.02941831
-0.022135088
-0.009170031
0.028289605
0.06614858
0.069972694
0.035165865
-8.068009E-4
-0.013348217
-0.026883315
-0.032017894
-0.015591319
-0.014991235
-0.040862508
-0.054854013
-0.04750248
-0.043713823
-0.032490153
-0.0029076259
0.018713765
0.024134347
0.02421047
0.032062408
0.047499895
0.055329695
0.05347629
0.03486774
0.0053344266
-0.010966842
-0.026219603
-0.052005928
-0.06282356
-0.053198393
-0.0377378
0.0058885077
0.08332718
0.12515908
0.08915007
0.018255314
-0.032131273
-0.04716362
-0.04676056
-0.03899209
-0.020285925
-0.0071027605
-0.014203919
-0.027679691
-0.015807416
0.012540298
0.016691467
0.0033394862
8.6739566E-4
0.018134555
0.03356272
0.011237845
-0.023243016
-0.039635766
-0.05049248
-0.036689114
2.9719988E-4
0.02490236
0.030949257
0.010824434
-0.017445331
-0.019332862
-0.0062198574
0.011730322
0.023995593
0.02107479
0.023164224
0.026182082
0.024647588
0.024402611
0.018903589
0.012364302
-0.003400747
-0.0073314826
0.008601756
-0.008920367
-0.023336545
-0.0073688156
-0.004167221
0.009478517
-0.010981552
-0.07896023
-0.0688981
-0.009300315
0.010265787
0.014587628
0.0062801484
-0.008858773
-0.009578587
-0.0016666664
0.0134818535
0.028345387
0.0395223
0.038049977
0.022378504
0.011996264
-0.0015548718
-0.018700926
-0.025506366
-0.0144211585
0.015489331
0.018712984
-0.004682196
-0.012629417
-0.029309733
-0.041843172
-0.027270688
-0.024233991
-0.02105865
-0.0039510857
0.007054966
0.009883234
0.0014370311
0.006933892
0.025288772
0.02226575
0.013622304
0.005776375
0.0076632285
0.026587185
0.02779116
0.021728357
0.02390753
0.024342392
0.025171997
0.016336292
0.0056009344
-0.013277027
-0.032196626
-0.011113823
0.0016709282
-0.018615246
-0.021744395
-0.019824779
-0.029238533
-0.02699029
-0.016793692
-0.024081482
-0.032161623
-0.020793702
-0.0113998335
0.010587919
0.027117092
0.0124842115
0.020236695
0.016718976
-0.017951079
-0.014541049
-5.62095E-4
0.0064969016
0.026469227
0.038217857
0.043916766
0.038017128
0.026864687
0.027422158
0.01875291
-0.0031461206
-0.022800857
-0.026500566
-0.019880379
-0.015187629
-0.0036087907
0.0062910756
0.00778688
0.016371584
0.031921804
0.029243117
0.0037764583
-0.0077378876
-0.01254635
-0.03848484
-0.059713017
-0.060911097
-0.04860245
-0.03196303
-0.021583822
-0.01159176
-4.2855562E-4
0.010002277
0.019582452
0.024797177
0.014398241
-0.0012614197
0.0020026807
-0.016853943
-0.055467226
-0.04285816
6.081903E-4
0.034432605
0.04215984
0.020594703
0.013808298
0.012710824
0.008008666
0.0329075
0.060045548
0.069448434
0.07183578
0.057533912
0.037432164
0.032994214
0.02583298
-0.003482728
-0.02606127
-0.035559393
-0.032998078
-0.0013556974
0.0025785784
-0.032318905
-0.03465991
-0.011988379
-0.0031782873
-0.023453435
-0.05881314
-0.07450909
-0.079064324
-0.061607983
-0.014657919
0.0014353808
-0.024816828
-0.03837429
-0.017988252
0.0093452055
0.020452132
0.011532196
-0.009560652
-0.016127404
-0.005422174
0.0041708252
0.021757808
0.04608542
0.048855837
0.04080865
0.056110933
0.06193094
0.04004928
0.031817593
0.016555479
-0.008717376
-0.013344802
-0.018116059
0.014691815
0.076556094
0.07188278
0.033680767
0.008340905
-0.021915311
-0.0284827
-0.022792608
-0.0296157
-0.017575234
-0.009741916
-0.035484288
-0.045468897
-0.034117874
-0.04216739
-0.03893071
-0.0010131404
0.01881697
0.0030964545
-0.0063082236
-0.006166001
-0.010712373
-0.0059947586
-0.018276537
-0.03579696
0.0022041043
0.016344346
-0.023210108
-1.7396755E-4
0.03794184
0.014688658
-0.0013603123
-0.005419873
-0.026195243
-0.040232763
-0.02895884
0.0065022693
0.020461544
-0.0016525892
-0.011582943
-0.0135799395
-0.02795898
-0.014501888
0.029757682
0.031911626
-0.011591212
-0.011458173
0.03278789
0.05482095
0.06839154
0.08004013
0.057951022
0.028214822
0.018048389
0.013972223
0.007975452
0.0025303606
0.0038369487
0.007194246
0.007021017
0.0049421815
-0.00503223
-0.017939318
-0.02504832
-0.0229287
-0.017318668
-0.02822119
-0.04486473
-0.04629113
-0.040223
-0.041468214
-0.050228465
-0.037294198
-0.009547186
-0.005145688
-0.0026412576
0.016957054
0.03306739
0.03695933
0.030806845
0.020088296
0.005935318
-0.0093108695
-0.031652045
-0.046563562
-0.009433407
0.036415882
0.03155636
0.017811509
0.004404674
-0.019489005
-0.007959807
0.020310603
0.009217067
-0.015448229
-0.0088863
0.018857444
0.01891211
-0.018655945
-0.021841627
0.014899131
0.0069455607
-0.015169698
0.012550522
0.044142526
0.06407035
0.0854917
0.074495085
0.038147066
0.011333837
-0.018389927
-0.048692584
-0.052661534
-0.0553286
-0.059607606
-0.042078633
-0.037572246
-0.03548887
-0.016370706
-0.011327468
0.0017416974
0.003962495
-0.023114994
-0.016932985
-0.004885489
-0.017798096
-0.022721924
-0.023371108
-0.0071397307
0.013923831
0.021283442
0.048748136
0.08089807
0.08606201
0.06581993
0.03417189
0.018921396
0.020505145
0.021650651
0.011244289
-0.008236897
-0.025131304
-0.036984168
-0.03671422
-0.035152707
-0.036828347
-0.03335722
-0.038766246
-0.033378977
-0.011918486
-0.013505087
-0.029940594
-0.027528135
0.009540409
0.046669204
0.025965793
-0.01992371
-0.00275731
0.069052316
0.082664125
0.021654028
-0.029797567
-0.047536302
-0.021424344
0.008405138
-0.0075619915
-0.0128989685
-0.013804392
-0.020687819
0.0010285904
0.0129805375
0.04598282
0.080682114
0.019603822
-0.05138648
-0.06453647
-0.06038014
-0.028781643
0.014487199
0.041882563
0.049401484
0.039534867
0.042313084
0.056440648
0.05923746
0.045432664
0.015154618
-0.0066164345
-0.005523046
-0.010370967
-0.025687315
-0.024746463
-0.021810157
-0.030626807
-0.028006151
-0.032085422
-0.058672454
-0.06655594
-0.046161234
-0.024532324
-0.021191552
-0.046888117
-0.061918776
-0.015201888
0.042891186
0.035318255
-0.0041054967
-0.01301389
0.0061911535
0.029472006
0.03947646
0.03618668
0.021721017
0.0014718949
0.0015928993
0.0020742326
-0.022611417
-0.028506167
8.272231E-4
0.03247095
0.051548544
0.06319419
0.067292616
0.048498373
0.022648443
0.004513108
-0.021913867
-0.027208017
-0.016024388
-0.025576396
-0.01789132
-0.0030458062
-0.0134875225
-0.009174882
0.002216847
-0.003293854
-0.00638851
0.0061020656
0.027273493
0.018210366
-0.014475079
-0.025397642
-0.018617656
-0.009265936
-0.025449669
-0.06844462
-0.07696956
-0.052181263
-0.04334064
-0.030752849
0.023359641
0.066880986
0.047606535
0.033373732
0.049424913
0.040199418
0.029542947
0.031835545
0.020161785
0.008757627
-0.0030284137
-0.0021452555
0.011216498
-0.0066400454
-0.0208503
-0.021988062
-0.036308758
-0.008310268
0.023748377
0.024291478
0.051627208
0.043604635
-0.0021281783
-0.012107389
-0.023647957
-0.03636334
-0.049596287
-0.06751504
-0.06936952
-0.06824653
-0.0073667713
0.04944494
0.019876717
0.035518195
0.047355644
-0.015010676
-0.021781178
-0.0020854399
-0.0028072721
0.007451596
-0.0032120263
-0.030058745
-0.050832745
-0.04979503
-0.031423617
-0.01882563
-0.009655946
-0.0072610574
0.022446584
0.079365276
0.10425321
0.08985067
0.034628883
-0.011776447
0.011515247
0.055358443
0.0804833
0.078215055
0.049802367
0.02140836
-0.006094798
-0.015404776
-0.0076604625
-0.018239962
-0.031459704
-0.046303034
-0.07113763
-0.07311135
-0.06261569
-0.04196591
-7.600555E-4
0.0029032566
-0.018663047
-0.032309584
-0.07734668
-0.07535845
0.011630609
0.048151508
0.0035955168
-0.048016664
-0.041859932
0.043051936
0.13538313
0.1706259
0.13151729
0.051529065
-0.017823704
-0.05558367
-0.038366932
-0.028031232
-0.058348056
-0.058873404
-0.057079013
-0.049805067
-0.022045221
-0.063813135
-0.124385886
-0.113758445
-0.057369925
0.0016503815
0.024868423
0.05673316
0.1032628
0.097575955
0.080328465
0.058056124
0.016397338
0.03508591
0.09963189
0.14414193
0.16828346
0.14975828
0.09580832
0.068880975
0.05813145
0.01241571
-0.04280772
-0.06919363
-0.08374109
-0.10243354
-0.11971383
-0.1316644
-0.144902
-0.15155146
-0.13226609
-0.1118535
-0.10781236
-0.09254914
-0.07190724
-0.058790762
-0.02536392
0.038006213
0.087931015
0.07584496
0.020796265
-0.010326908
0.014609726
0.050976265
0.046365038
0.053951047
0.1177881
0.17205867
0.18168715
0.15115424
0.08842515
0.029652052
-0.019835884
-0.052865792
-0.068737246
-0.08687663
-0.053583864
0.02091862
0.03185264
-0.007282061
-0.04092205
-0.061746635
-0.0500644
-0.036384683
-0.043582223
-0.026239336
-0.0061775367
-0.022255313
-0.029115379
-0.004509294
0.018598676
0.014119056
-0.0103441235
-0.025641544
-0.030081712
-0.032837417
-0.018134391
0.029540084
0.06593232
0.031603552
-0.009815413
9.334231E-4
0.007852245
0.0044636508
0.011498873
0.018460015
0.0152245555
-0.009013288
-0.0014529281
0.031063166
0.021860449
0.033451937
0.0726907
0.054815356
0.005656095
-0.027331065
-0.0267332
0.006709435
0.0074584037
-0.043499645
-0.06523152
-0.036764476
-0.028426591
-0.040961716
-0.029407693
-0.010103945
-0.0056288335
-0.013749229
-0.01824647
-0.022622343
-0.04976709
-0.068846464
-0.055266008
-0.022531794
0.012615952
0.010326619
0.004341769
0.05134636
0.0809297
0.06611489
0.07577546
0.08514478
0.054467402
0.028279817
0.018790966
0.010706766
0.007749504
-0.0019620988
-0.013799055
-3.634347E-4
0.03792262
0.045287047
-0.0035076134
-0.030988373
-0.03133426
-0.055352755
-0.063809864
-0.0640831
-0.0582834
-0.00537766
0.02311382
0.0042867716
-0.008211799
-0.024062522
-0.034392007
-0.02894125
-0.008178105
0.037025236
0.064318374
0.052922193
0.028955916
0.009842891
0.009534814
0.01443931
9.782463E-4
-0.01443119
-0.012432812
-0.00808753
-0.0053098407
-0.0032703208
-0.02969173
-0.05186145
-0.01304881
0.030413738
0.033628337
0.03773004
0.028284976
-0.01066489
-0.035328127
-0.03919229
-0.024749236
-0.01089643
-0.03370716
-0.045037024
-0.009965666
0.040847417
0.07164667
0.05399581
0.046391822
0.07239378
0.0613943
0.032825414
0.005835985
-0.03652589
-0.0663105
-0.093301095
-0.09149194
-0.030142436
0.0130023705
0.0022955204
-0.014789025
0.009372909
0.06331302
0.07256882
0.046244547
0.044679064
0.042690553
0.0140247
-0.025796553
-0.058318317
-0.046354193
-0.0060074106
-0.009404131
-0.03503619
-0.024460357
-0.009514673
-0.018990846
-0.029004375
-0.014545609
0.012111655
0.006396763
-0.01041286
0.0017217568
-1.0932538E-4
-0.021739157
-0.013220513
0.0077857743
0.012041926
0.022684546
0.031841733
0.008970285
-0.010105232
0.0077502127
0.02152169
0.010613185
0.005990327
0.007173116
8.9719665E-4
0.013645793
0.037215963
0.031048594
0.0023718283
-0.03843748
-0.055218305
-0.008666522
0.030791443
0.02172093
-0.0023272773
-0.03404164
-0.0431124
-0.030141924
-0.01487785
0.03228433
0.068769984
0.05174125
0.039965622
0.046405375
0.023434786
-0.02413201
-0.068235286
-0.09165868
-0.049400788
0.025952002
0.035321467
0.0045900196
-0.022027956
-0.050674107
-0.054575533
-0.04953466
-0.04457155
-0.02990263
-0.011714214
0.03143604
0.050124392
0.040538758
0.074725784
0.08941645
0.064468294
0.049952313
0.0064347642
-0.044259578
-0.05403017
-0.036982413
-9.273191E-4
0.01840618
-0.0033812092
-0.024453504
-0.011398081
0.007334163
0.0025009413
0.0051831156
0.0171903
0.001945085
-0.019542143
-0.03205158
-0.053815648
-0.06166857
-0.040432762
-0.0119483825
0.027096763
0.07087371
0.0818861
0.053483352
0.014365296
-0.0036171053
0.0022703346
0.007271418
-3.3949892E-4
-0.014568925
-0.024044713
-0.039266285
-0.056667086
-0.026431803
0.030216645
0.039992336
0.0129678305
-0.009304291
-0.019462936
-0.016529033
-0.0143506965
-0.028794875
-0.021848004
0.016402163
0.02070461
0.017215246
0.062431302
0.0820754
0.0453643
0.019557124
0.009807295
-0.011363019
-0.02411721
-0.017926196
-0.028746324
-0.05378693
-0.049654193
-0.033159513
-0.024701923
-0.005234085
-0.00930351
-0.046046924
-0.033406544
0.024301838
0.04554708
0.0286366
0.0055025364
-0.0026755063
0.01041121
0.018076072
0.005706341
-0.020092366
-0.022347497
0.015242925
0.033784688
0.03474797
0.07078017
0.10107486
0.08199799
0.05708663
0.05594916
0.042387024
-0.0060408944
-0.06193186
-0.08478987
-0.064475656
-0.051469103
-0.06602363
-0.06248758
-0.04264589
-0.021970715
0.010155937
0.020766648
-0.0034552151
-0.02351022
-0.02956501
-0.02231122
-0.0054970896
-0.016523333
-0.04284228
-0.04043161
-0.027903626
-0.01014855
0.012672426
0.002382293
-0.0054340228
0.037919134
0.08546586
0.08670245
0.043513346
-0.009371675
-0.038659427
-0.047789376
-0.04824082
-0.03715398
-0.005052501
0.03828488
0.047897223
0.023765648
0.02052006
0.025916547
0.0015208961
-0.0048984583
0.042869776
0.07898913
0.069336876
0.06862155
0.06524709
0.022120422
4.546479E-4
0.02353742
0.038063977
0.024104685
0.019171916
0.03852667
0.021075321
0.0016659751
0.006851075
-0.08028946
-0.17227364
-0.15467083
-0.14419521
-0.16370192
-0.17990427
-0.16795999
-0.09760408
-0.037494183
0.01568628
0.063008495
0.074463606
0.09229466
0.057160947
-0.02809599
-0.06234348
-0.045545187
0.01944383
0.08111632
0.089372024
0.0900846
0.109995544
0.15450524
0.1720946
0.13437162
0.085729174
0.03449542
0.024901984
0.04601398
0.017362949
-0.011214837
-0.0068755914
-0.03262339
-0.07461961
-0.079483874
-0.06989868
-0.07470294
-0.08550942
-0.095821805
-0.056277294
0.008872755
0.014138287
0.012575887
0.0046644732
-0.03615545
-0.03948167
-0.06164628
-0.09075707
-0.043813974
-0.025404109
-0.029684583
0.022958659
0.06359711
0.07793769
0.08715017
0.07039637
0.033044226
0.0015780217
-0.0049173236
-0.018722164
-0.029343855
0.014673046
0.05160466
0.036822125
0.014529437
-0.0029014612
-2.0167287E-4
0.011673262
-0.010987447
-0.03125929
-0.040075157
-0.05806391
-0.018261345
0.036988612
0.0011083828
-0.047083013
-0.03755932
-0.025587518
-0.017312776
0.010731812
0.024757631
0.008958849
0.015043049
0.047510434
0.047409575
0.032635126
0.05778686
0.075454265
0.034466863
0.02312407
0.06368145
0.035949685
-0.0236772
-0.034900516
-0.04976178
-0.039557986
0.013620354
0.029050376
0.008016381
-0.012978844
-0.035848454
-0.06349955
-0.07969171
-0.07724775
-0.071350165
-0.030996334
0.02743558
0.02244072
-0.013859958
-0.029645728
-0.048501533
-0.0731666
-0.081919834
-0.040235486
0.02924202
0.029561665
-0.022037467
-0.012027923
0.055303384
0.08887068
0.06701305
0.039347455
0.04974612
0.08659512
0.09176206
0.04500775
-0.0041577104
-0.009843849
0.01043861
0.007808951
0.0077673206
0.058106218
0.085040875
0.048393827
0.024539292
0.017995348
0.018733364
0.028725283
-0.016527295
-0.07287166
-0.071965404
-0.07788722
-0.086978674
-0.060468405
-0.057055876
-0.09686082
-0.1162908
-0.09815753
-0.08891425
-0.062455248
0.005514137
0.03963808
0.04225518
0.056032274
0.041801397
0.0085484525
0.018169874
0.058666013
0.060514703
0.024958136
0.012941037
0.034651745
0.06205269
0.062059175
0.0469922
0.041102517
0.011963435
-0.005908749
0.02768607
0.05527716
0.050423782
0.01035276
-0.041799087
-0.058224764
-0.053197265
-0.029194996
8.54072E-5
-0.019145042
-0.062679775
-0.080545515
-0.07522552
-0.057477757
-0.025569094
0.005865296
0.014765927
0.018703625
0.026856808
0.025581792
0.030015856
0.04209242
0.04180708
0.022761539
-5.368367E-4
-0.0043185446
-0.0064409887
-0.032951757
-0.047804084
-0.026134163
-0.01044986
-0.013444362
0.0029975933
0.029552441
0.038151816
0.04124263
0.04846084
0.053923078
0.049219124
0.033172626
0.010729619
-0.011441172
-0.018373428
-0.014008805
-0.010278634
-0.012607806
-0.025973858
-0.030548308
-0.023371514
-0.02057171
-0.016554687
-0.012035359
-0.013601358
-0.031986643
-0.04509529
-0.025908336
-0.018434538
-0.018850116
-0.014721491
-0.05050816
-0.067710996
-0.035920784
-0.021852313
-0.005463918
0.03235464
0.0651002
0.091216885
0.09491853
0.084906094
0.082314804
0.066710606
0.032989714
-7.1601063E-4
-0.014157243
0.005885197
0.017897679
-0.0032679683
-0.005139768
0.0053565754
-0.010719724
-0.019067653
-0.016841825
-0.011624983
0.0037022096
-0.017602108
-0.07036408
-0.10722755
-0.11391273
-0.065014586
0.0164906
0.07144587
0.0896712
0.079783134
0.05587585
0.022478072
-0.02055788
-0.042665787
-0.041427575
-0.04293893
-0.032988593
-0.008637421
-1.753328E-6
-0.005869193
-0.002454939
0.009149227
-0.0011578023
-0.019278437
-0.0046690525
0.0033424294
-0.01876148
-0.03063278
-0.017371796
0.018128749
0.039138764
0.0393302
0.041910343
0.007490013
-0.02698044
-0.013251615
0.0058091157
0.03994279
0.06788724
0.074222766
0.10859839
0.113449134
0.06292763
0.013173614
-0.039730474
-0.08265987
-0.09905801
-0.102955416
-0.103262715
-0.10775531
-0.09303163
-0.0479134
-0.0010680103
0.010936378
-0.0194851
-0.04026918
-0.03368887
-0.009974737
0.042559594
0.07232374
0.06391595
0.06981698
0.056142587
0.015234576
0.008459251
0.023911277
0.040768776
0.050680567
0.04457106
0.069922276
0.09855997
0.053799238
0.0021946945
0.012583088
0.01646429
-0.038751528
-0.09729923
-0.114306815
-0.11653207
-0.10801335
-0.09098728
-0.08359409
-0.050931256
-0.0168216
-0.032027673
-0.02219492
0.03426402
0.06325782
0.065092266
0.046800017
0.0069359425
-0.0020986851
0.0370319
0.07986319
0.071425
0.027152129
0.031091688
0.053384684
0.014499701
-0.014929078
0.002201403
-0.01656379
-0.040545233
-0.006231615
0.02158639
0.009484957
-0.012396924
-0.025474338
-0.017890196
-0.030746492
-0.053427044
-0.025693916
-0.0026022724
-0.007824095
-0.0120008495
-0.021081597
0.0047204597
0.02204675
0.0025553347
0.038164392
0.06029582
0.024755424
0.033737186
0.033089925
-0.016916646
-0.03398447
-0.03619741
-0.06365451
-0.07978373
-0.046541154
0.018137068
0.039788403
-0.009436032
-0.046365157
-0.007482169
0.031783216
-0.0016821929
-0.051106304
-0.05157647
-0.010794943
0.039109554
0.06435967
0.05340903
0.04112517
0.04864826
0.03521894
-8.02088E-5
0.004900107
0.03438708
0.023996472
-0.0045526135
0.0026524328
0.02765853
0.037445698
0.04695842
0.049507745
0.022339394
-0.0142142065
-0.045557376
-0.05836267
-0.043940403
-0.042566534
-0.06093192
-0.06544742
-0.056202028
-0.053461436
-0.0644732
-0.046308603
0.0037020238
0.01766077
0.02043745
0.037077267
0.018428184
0.003908771
0.028867595
0.04599444
0.041189678
0.01917655
-0.011701633
-0.018465567
0.0087811705
0.040297627
0.06438734
0.07930103
0.049058266
0.011180101
0.020857166
0.005865029
-0.029633755
-0.012390104
-0.01993371
-0.07578869
-0.07477376
-0.032990366
-0.031262305
-0.046455048
-0.03549615
-0.01567679
0.0034626864
0.033569984
0.048705183
0.03080656
0.014353083
0.011196938
0.012239359
0.028127516
0.036740556
0.019811358
-0.0011366267
-0.024281777
-0.044451427
-0.04470155
-0.0192034
0.018217437
0.019284979
-0.011954434
-0.028361307
-0.026768597
-0.005777085
0.010392541
-0.008140163
-0.021229701
-0.009533932
0.012144825
0.023219856
-0.0024103243
-0.007514012
0.03341841
0.048717584
0.044098657
0.022169074
-0.020807877
0.0032509477
0.053617284
0.040883593
0.014820723
-0.008619581
-0.024655504
-0.018978087
-0.03114384
-0.03998075
-0.029312825
-0.031184994
-0.037128247
-0.03029982
-0.015528145
-0.013555569
-0.004882957
0.01523737
9.1768085E-4
-0.0077985143
0.0037640042
-0.0111469515
-0.017197138
0.010573732
0.048959475
0.048883483
0.007928772
0.0050865663
0.0077246586
-0.018876592
0.0039607175
0.04988145
0.036032148
-0.011278475
-0.019815966
-0.0033026948
-0.0049910774
0.0035114323
-0.0015276595
-0.036628738
-0.03201977
-0.0041948585
0.009323119
0.023865439
0.033548977
0.039334413
0.031725593
-3.4172065E-4
-0.029098397
-0.018827979
0.021839915
0.04219244
0.039634336
0.018977512
-0.028368602
-0.045771863
-0.037981518
-0.056625992
-0.060948595
-0.046945587
-0.04249224
-0.018953294
0.0049082376
0.011222999
0.014528444
-0.023382053
-0.0787586
-0.07499442
-0.035214063
-0.0016747619
0.029333824
0.057063516
0.0805835
0.08621667
0.050457433
0.009286863
0.023794457
0.06021348
0.07097809
0.07838124
0.06754131
0.03298036
0.010990961
-0.012859391
-0.03316751
-0.019665234
0.0011814607
-0.008933603
-0.026830435
-0.011106216
-0.0065656975
-0.04207246
-0.07059832
-0.08341564
-0.08922069
-0.10737791
-0.116747595
-0.061086904
-0.008028851
0.009191531
0.04090295
0.060178075
0.06947026
0.07315312
0.042284895
0.00863707
-0.0010533561
0.023849526
0.046045277
0.025424313
0.018844176
0.025577005
0.02543435
0.051724557
0.056429874
0.027023088
0.015453885
-0.0034205432
-0.04361098
-0.068322405
-0.06304401
-0.043681636
-0.02882447
-0.017091233
-0.019200899
-0.040900566
-0.047549594
-0.021295173
0.01432843
0.027362568
0.020446194
0.019939251
0.021168247
0.02100918
0.016547216
-0.016929466
-0.03853453
-0.0018576292
0.034889884
0.032910913
0.025347728
0.025329923
0.027427206
0.024484694
0.0054030656
-0.019746283
-0.023338305
-0.006685597
-0.009736301
-0.029147828
-0.019080518
0.0130436
0.038189977
0.05023238
0.036022224
-0.007794638
-0.050516196
-0.041560236
0.016033638
0.057227865