0.011120886
0.014639364
0.009253782
-0.0011667616
-0.009271632
-0.014060798
-0.014027432
-0.008945538
-0.003454723
0.0024206806
0.010382169
0.015072825
0.010660509
0.0013276808
-0.003937263
-0.005294865
-0.0073074345
-0.008145496
-0.0062296656
9.215957E-6
0.010506267
0.014209069
0.007956325
-6.3647423E-4
-0.010134141
-0.014777529
-0.012578841
-0.010001818
-0.004469729
0.004059076
0.01217842
0.016962828
0.012368124
0.0042280797
-7.690691E-4
-0.003929134
-0.005665802
-0.007835663
-0.0055762893
0.0028339804
0.010197296
0.014459455
0.011094901
8.1602926E-4
-0.0072839153
-0.010902836
-0.010786169
-0.011714976
-0.012217418
-0.0029733512
0.009681179
0.015414426
0.012355721
0.002172596
-0.005723525
-0.007582364
-0.009481748
-0.010603845
-0.0065940516
0.0021136908
0.0123085845
0.016795073
0.01052215
-2.3763473E-4
-0.008495642
-0.013641379
-0.0134230675
-0.008003671
-0.002112015
0.0044501354
0.01236735
0.01569751
0.011054072
0.002577534
-0.0049777804
-0.008830507
-0.009522937
-0.009400012
-0.006137511
0.0023882724
0.012225693
0.016835622
0.011943556
6.3007785E-4
-0.009133737
-0.012846549
-0.011384335
-0.007050298
-0.0021658575
0.0032838834
0.011475836
0.016682014
0.012043384
0.0019382681
-0.007098501
-0.010545409
-0.009716001
-0.010426134
-0.009235437
-0.0014402393
0.009894546
0.017117972
0.013479005
0.0020316818
-0.009142506
-0.013165359
-0.010745464
-0.0085658915
-0.004530577
0.002849177
0.010393873
0.016470492
0.013933217
0.002297975
-0.007495677
-0.009511213
-0.007994522
-0.008295323
-0.006428635
0.0014111319
0.012197127
0.018900545
0.013823435
0.0024034197
-0.006514449
-0.011349738
-0.011264212
-0.01018029
-0.0072716177
0.001005096
0.009327273
0.015203098
0.014424054
0.003323274
-0.0070668557
-0.009920783
-0.011169567
-0.011389507
-0.007021911
7.1137055E-4
0.011133955
0.018864779
0.013771284
3.0352874E-4
-0.009159923
-0.0114335315
-0.009981514
-0.008517078
-0.0058754864
-3.3630079E-4
0.0074431174
0.014303296
0.01309671
0.00387221
-0.005275993
-0.008830804
-0.008360835
-0.008663364
-0.0073600025
-0.0010277736
0.008849943
0.017666444
0.015749844
0.0036327112
-0.00613536
-0.009526477
-0.010814581
-0.010107775
-0.004867931
0.0022086627
0.00939543
0.01488965
0.011637859
0.0019639595
-0.00615121
-0.009817466
-0.009384564
-0.009703245
-0.008454673
-2.2868579E-4
0.009787572
0.015511272
0.012659341
0.0026554468
-0.006190303
-0.011080387
-0.011308915
-0.0074262293
-0.0040499843
3.3119525E-4
0.008764293
0.014622496
0.012248615
0.0043608323
-0.004742299
-0.008692173
-0.0072360975
-0.0077881063
-0.0069466587
-2.9638855E-5
0.007892951
0.012617681
0.010049381
9.488969E-4
-0.00800334
-0.012488472
-0.01113097
-0.007767962
-0.0037707267
0.0027430295
0.009472646
0.015013213
0.014824785
0.006536247
-0.0015493683
-0.004764878
-0.0060732528
-0.0076330174
-0.0059611057
7.128284E-4
0.007366859
0.012144449
0.011067157
0.0012335926
-0.00830807
-0.012618884
-0.013316322
-0.010096763
-0.004958948
-5.440503E-4
0.0047305534
0.011182761
0.010653498
0.0029927169
-0.00187982
-0.003897399
-0.0041752853
-0.0035528596
-0.0036071637
3.8249444E-4
0.0068267244
0.0119942855
0.010914467
0.0015073912
-0.0058787167
-0.01074558
-0.012232441
-0.00723405
-0.0042726872
0.0014587598
0.008190127
0.009366924
0.011690215
0.0031181264
-0.009719949
-0.0064136353
-0.0039191544
-0.0058155553
-0.0020100784
0.0029628405
0.010801361
0.014593118
0.008559188
6.712717E-4
-0.006653741
-0.011128716
-0.01109073
-0.008658196
-0.0056675966
-0.0014219919
0.006396445
0.0119069535
0.0113887135
0.006794391
-9.999843E-4
-0.0054747122
-0.005212153
-0.004406849
-0.0032793796
-0.0018661045
0.003345507
0.010364454
0.009348213
5.6105055E-4
-0.0079982765
-0.011944024
-0.011618343
-0.008758112
-0.004994326
-4.93009E-4
0.0059393723
0.011363765
0.013004338
0.00957992
8.160205E-4
-0.004336401
-0.0030234559
-0.0042919577
-0.0064955316
-0.002385197
0.0061846594
0.012681435
0.0111443475
0.0022638955
-0.0064585693
-0.010575468
-0.011084028
-0.008390981
-0.003603784
1.9769554E-4
0.0043183486
0.009168788
0.01007267
0.0060771564
3.0190768E-4
-0.0035048046
-0.004682707
-0.006100805
-0.0061297356
-0.0017013561
0.0057632355
0.011161907
0.008684528
9.375828E-4
-0.0060296757
-0.010545204
-0.011160848
-0.009457687
-0.0063987826
-1.3087215E-4
0.006251158
0.00944158
0.0096567655
0.0069912258
0.0014247998
-0.0031129553
-0.0029025876
-0.0032522755
-0.0049355533
-7.8733097E-4
0.0081650615
0.014503176
0.011547782
0.0023151266
-0.0050672297
-0.0098140985
-0.010297009
-0.008618504
-0.0081277415
-0.0030736832
0.005213979
0.0107879415
0.011346882
0.0061334586
2.9551298E-5
-0.005222092
-0.008720918
-0.00823727
-0.00673549
-0.00258064
0.0047153733
0.0102367075
0.011797363
0.0060429256
-0.004459454
-0.010921892
-0.011278329
-0.0074713137
-0.0025414757
0.0013698207
0.0061093806
0.010738586
0.0107768085
0.0053125895
-0.0018226039
-0.005625106
-0.0054302323
-0.005021813
-0.004494605
-7.5804186E-4
0.0065624625
0.014038422
0.013450878
0.0030896345
-0.0070378603
-0.011445721
-0.01163091
-0.009819599
-0.0072202203
-0.0019718013
0.005458932
0.011912228
0.013329454
0.0066463905
-0.00210558
-0.005608973
-0.0053469567
-0.0050334777
-0.0050138636
-0.002438756
0.004859497
0.013327615
0.01455228
0.006455603
-0.0027516396
-0.009032097
-0.012614827
-0.010165571
-0.0047881757
-0.0011091941
0.0046719634
0.010705128
0.01116905
0.0065004374
-0.0024623252
-0.009164504
-0.008489039
-0.007878268
-0.0072501963
-0.0019421102
0.0050727287
0.012756969
0.014489007
0.0048860544
-0.006633133
-0.013022472
-0.014023861
-0.010152968
-0.0046120705
9.877663E-4
0.007471659
0.01314197
0.01435211
0.009284276
-4.4813834E-4
-0.0076021096
-0.008237863
-0.00825284
-0.008176496
-0.0045127496
0.0037275325
0.015591757
0.018754331
0.009165157
-0.0023232044
-0.010423435
-0.010217283
-0.0063260314
-0.007346209
-0.00465627
0.0036741192
0.011024856
0.014924975
0.009341646
-0.001592788
-0.0075759054
-0.0101893805
-0.011677486
-0.009541755
-0.0034084932
0.005693595
0.014493885
0.016612323
0.008619745
-0.006090837
-0.016874772
-0.015963081
-0.0104203345
-0.006701316
-0.0017482741
0.005415293
0.013417399
0.017144537
0.011004747
-3.477833E-4
-0.007559431
-0.008595724
-0.008225599
-0.006804514
-0.002688392
0.004459556
0.014719878
0.017522374
0.008416677
-0.0026061358
-0.010815169
-0.012234475
-0.008922106
-0.007337055
-0.0029032798
0.004547747
0.011088764
0.01418391
0.009030388
-5.3779845E-4
-0.007951467
-0.010693864
-0.010736731
-0.010695648
-0.0059533156
0.003122159
0.013560226
0.019712856
0.01182437
-5.5188593E-6
-0.0063537504
-0.01172608
-0.011679127
-0.007870354
-0.0034501692
0.0061258012
0.013202638
0.012618002
0.007504805
-0.0012373867
-0.0074184746
-0.008501765
-0.008455638
-0.00800303
-0.006093291
0.0012062237
0.012364991
0.015943782
0.008951835
-7.6057954E-4
-0.008500574
-0.013439224
-0.013105417
-0.0072742994
-0.0015567142
0.003487794
0.010352211
0.0128663285
0.007745365
-4.8041248E-4
-0.006197035
-0.006022901
-0.005661546
-0.0069430633
-0.002327981
0.007335906
0.015596657
0.017164676
0.009956101
-0.0016299346
-0.012191484
-0.016290642
-0.01353469
-0.008692244
-0.0025019636
0.0049561304
0.012944415
0.017420346
0.011377921
-5.6286604E-4
-0.0069335047
-0.007655608
-0.00975739
-0.010962074
-0.00682319
-1.4735972E-4
0.009423979
0.015597583
0.008806589
-0.0019155616
-0.008575416
-0.0124331545
-0.011575889
-0.008055006
-0.003294817
0.004695174
0.013197304
0.016097125
0.010193987
6.972995E-4
-0.005486735
-0.0071238163
-0.0076949582
-0.008337091
-0.003881552
0.004566367
0.012296607
0.01756645
0.014065516
0.0020009119
-0.00865328
-0.012384816
-0.011699425
-0.011375526
-0.008709118
-2.9679233E-5
0.009577965
0.013941432
0.010225746
3.1438566E-4
-0.008503752
-0.010398548
-0.008481735
-0.008048659
-0.0055017234
0.002605086
0.011751644
0.015068479
0.010300831
0.001690638
-0.0069214026
-0.011437359
-0.009946956
-0.0067116856
-0.0025646153
0.003926237
0.012471947
0.018058818
0.013651146
0.0044875457
-0.0028079809
-0.007895175
-0.009743144
-0.01128434
-0.011365706
-0.004353165
0.006918265
0.013836498
0.011256617
0.0019138451
-0.008228984
-0.0130746
-0.012284587
-0.009674447
-0.0036109865
0.0031153506
0.009738099
0.016794452
0.013323395
0.004047752
-0.0020456293
-0.01044868
-0.013467883
-0.0083248345
-0.0052875937
-0.0010258307
0.008211086
0.015284996
0.011942889
6.9574016E-4
-0.007734006
-0.0110368775
-0.0111738155
-0.008552301
-0.0036596188
0.0031871926
0.009223375
0.013550842
0.013589812
0.0061463662
-0.0016018172
-0.0040598563
-0.0038686092
-0.0027598157
-0.0016539915
0.0012466057
0.007290429
0.011379434
0.009464965
7.7675964E-4
-0.010208558
-0.013976646
-0.013735634
-0.015194235
-0.009921975
3.6425493E-4
0.0072628367
0.013079005
0.013532379
0.004906671
-0.0037071786
-0.0062992508
-0.00523152
-0.005079506
-0.0036596202
0.0030057535
0.010286784
0.012833463
0.007770058
-0.0016473649
-0.008155249
-0.01212408
-0.012232307
-0.008154098
-0.0050473604
0.0010316211
0.010638973
0.015579468
0.01245979
0.0018482798
-0.0072576
-0.009385612
-0.01062309
-0.009745067
-0.0067836884
-0.0034992506
0.0068605565
0.017991109
0.018031271
0.009439422
-0.0010890667
-0.006960302
-0.0062767416
-0.0040820586
-0.0030691382
-5.025585E-4
0.0062495577
0.0117678465
0.008989316
-7.5922156E-4
-0.008956438
-0.009223226
-0.008202951
-0.010666528
-0.009504755
-0.0015424478
0.00965089
0.016968673
0.014473444
0.0037342003
-0.0067876144
-0.010950388
-0.013689764
-0.014720466
-0.009163997
-0.001451427
0.008282997
0.018106235
0.019795552
0.012924857
0.0039312057
0.001124425
0.0019205033
0.0014968528
0.003797924
0.005374599
0.0042630644
0.0014041887
-0.0072278148
-0.01722037
-0.0244558
-0.028925976
-0.02663979
-0.019987738
-0.015015519
-0.00857432
0.00260719
0.012376613
0.016188823
0.013467834
0.008622077
0.0098115355
0.011271342
0.0070464653
0.004260909
0.009131819
0.01978734
0.024323976
0.022097489
0.018581053
0.009410516
0.0035236836
0.0048451927
0.004572199
0.0011733116
-0.004656428
-0.0057014455
-0.008283764
-0.017348696
-0.020797852
-0.02749189
-0.03202301
-0.024448635
-0.02423433
-0.024540596
-0.015283319
-0.0027654988
0.012487465
0.016275883
0.011016147
0.008280088
0.0022554297
3.4823886E-4
0.005102385
0.009167184
0.015467417
0.021474546
0.021588985
0.014105974
-5.3919066E-4
-0.014003406
-0.016508458
-0.012006605
-0.0078870375
-0.0021299294
-5.1036145E-4
-0.0022427721
0.0046464647
0.008236148
0.001173083
-0.0033086233
-0.00400743
-0.0018815784
0.0028910371
0.0073328377
0.015172287
0.025057342
0.033231203
0.037567362
0.032444388
0.018652927
0.0015164663
-0.013840122
-0.027011085
-0.043900736
-0.05486296
-0.047966372
-0.03702735
-0.032060623
-0.028106695
-0.025885645
-0.022533821
-0.01510391
-0.0077281934
0.0017035233
0.014297949
0.02726432
0.038929682
0.04019144
0.025794541
0.009780344
0.009225782
0.021692999
0.034440417
0.040035263
0.032611024
0.021625627
0.026449637
0.037142996
0.031555466
0.012855548
-0.0059868586
-0.021642672
-0.032676984
-0.034313962
-0.029342638
-0.0258188
-0.025381146
-0.030153085
-0.041238643
-0.05237496
-0.056679945
-0.04988341
-0.034882948
-0.018960096
-0.0026526544
0.018677667
0.041712675
0.053860832
0.053544827
0.045488648
0.02594852
0.0010086665
-0.013969715
-0.0152071025
-0.01110871
-0.009307771
-0.010203374
-0.013731309
-0.014998022
-0.00943802
-0.0023803478
0.0065919207
0.015927417
0.02148215
0.031988356
0.044274386
0.042883772
0.027640004
0.0081211785
-0.009709348
-0.024775166
-0.029181724
-0.009739908
0.023729969
0.043956123
0.04833831
0.0490996
0.037313234
0.007989557
-0.020872325
-0.03979563
-0.05494214
-0.06214862
-0.05196561
-0.036366794
-0.02287072
-0.008795197
-0.011591323
-0.0342144
-0.0635463
-0.087299325
-0.08519277
-0.073770694
-0.072747804
-0.05403124
-0.012263392
0.020803802
0.04687388
0.08980887
0.122190386
0.124762066
0.1309274
0.12571716
0.095607795
0.06980772
0.047394536
0.041492786
0.04349796
0.02280331
0.01157114
0.017066231
0.0085333865
-0.010605697
-0.007928879
0.015473111
0.010336361
-0.0029081337
-0.023666678
-0.10827899
-0.1844488
-0.19634731
-0.17757481
-0.14029178
-0.1296911
-0.13295062
-0.10047647
-0.062163085
-0.021876147
0.024545787
0.057790957
0.08678089
0.11483865
0.124034315
0.09286862
0.053876523
0.04939384
0.058769144
0.07817287
0.10871103
0.1355673
0.15559015
0.13233969
0.048830748
-0.05643408
-0.14076696
-0.18696068
-0.20266606
-0.16907336
-0.07897221
0.031839903
0.12616426
0.15284601
0.11455486
0.053776883
-0.03249062
-0.0944401
-0.07862913
-0.05474437
-0.067430586
-0.062288027
-0.030236878
0.009803047
0.09064373
0.17378901
0.17678255
0.12092322
0.058183897
0.013498337
-0.043179214
-0.15178211
-0.23458175
-0.24426876
-0.21033469
-0.12620848
-0.046421286
-0.02383993
-0.027183972
-0.02956485
0.0035800447
0.061074067
0.09827488
0.14748406
0.21485734
0.24095356
0.20828353
0.14432403
0.07888769
0.017573379
-0.03545384
-0.065254495
-0.08881224
-0.09238762
-0.04960765
-0.030156983
-0.047774836
-0.0477008
-0.070706196
-0.11399359
-0.1252217
-0.11213333
-0.06984743
-0.028119886
-0.0100972615
0.016630324
0.037811942
0.045654036
0.049748387
0.056472436
0.074560106
0.08972365
0.11679588
0.11618202
0.054140247
0.03444944
0.06694576
0.0689162
0.05170666
0.043081686
0.013272297
-0.07765828
-0.16851626
-0.17877269
-0.142953
-0.10796739
-0.08942583
-0.07858751
-0.059530243
-0.046278402
-0.034471266
-0.010936844
0.042069566
0.11096669
0.14303793
0.14972238
0.1401405
0.11175972
0.08867955
0.04079111
-0.029923137
-0.06798971
-0.05434708
-0.028299363
-0.04533728
-0.060956124
-0.062378027
-0.086598456
-0.039983243
0.050808344
0.036081623
-0.025066828
-0.03766626
-0.031781223
-0.02576638
-0.01744794
-0.008020359
0.003717282
0.012365851
0.023744097
0.041021727
0.05006249
0.051286466
0.051668122
0.043644942
0.032306165
0.025303839
0.019405376
0.017281624
0.012149147
-3.304624E-4
-0.012741411
-0.02439524
-0.029358251
-0.027226565
-0.023424156
-0.013647234
-0.0022303108
0.009222816
0.021112032
0.022650681
0.020674692
0.02197656
0.017745333
0.015281815
0.019613845
0.020090329
0.017828604
0.019418241
0.019143505
0.010424293
-0.0026551322
-0.015120775
-0.02359053
-0.024824228
-0.02352136
-0.022586247
-0.020085786
-0.01714346
-0.01599551
-0.021561138
-0.03072301
-0.035993297
-0.04017078
-0.042091206
-0.041953567
-0.041753482
-0.034205183
-0.023179326
-0.016218511
-0.014196477
-0.017713247
-0.017582083
-0.013086295
-0.009155667
-0.0012131085
0.0078069344
0.01762664
0.029062247
0.037362136
0.044683527
0.048295315
0.050987575
0.06028544
0.07280747
0.08851995
0.09123443
0.06702941
0.043804914
0.035101004
0.02518728
0.015479753
0.014008774
0.014001941
0.00433762
-0.010357081
-0.02019983
-0.027210975
-0.03128064
-0.036137853
-0.050790258
-0.06807508
-0.076041356
-0.07440561
-0.07041647
-0.06743338
-0.061376452
-0.05147392
-0.039456192
-0.028587434
-0.023221226
-0.020583846
-0.017778419
-0.012631588
-0.002774961
0.0073853405
0.015116428
0.021112751
0.026280373
0.03126286
0.03259886
0.03170741
0.033632785
0.036449093
0.03679291
0.03486273
0.03176838
0.027182989
0.024623295
0.025655143
0.021486938
0.012894732
0.0074001653
0.0029382482
0.0011118016
0.0027674697
0.003742362
0.0051478883
0.007026482
0.008341147
0.0064100386
-7.965582E-4
-0.0062211184
-0.00824355
-0.010695825
-0.011551618
-0.012324841
-0.014249182
-0.013679106
-0.011859718
-0.011993724
-0.014624086
-0.018487303
-0.019982044
-0.01819082
-0.015982259
-0.013032761
-0.008536571
-0.005460347
-0.0039280336
-0.0024966653
-0.0032565375
-0.0055331304
-0.0046027093
-0.0013697633
-0.001273558
-0.0020948187
0.0010003257
0.0058898395
0.010117511
0.011423715
0.00819304
0.0045498945
0.0044906395
0.0070523014
0.007904999
0.007379978
0.009535248
0.011785021
0.012315968
0.011388103
0.008108301
0.0063284542
0.0058231787
0.003588574
0.0019556663
0.00251144
0.0055942214
0.009437133
0.011708619
0.011208837
0.006508677
0.0016046698
-0.001133056
-0.0038490284
-0.0038654874
-6.108601E-4
0.0015920363
0.0025694517
0.0046271184
0.005395037
0.0027360949
3.8154362E-4
-5.569227E-4
-0.0015348898
-0.0016256862
-7.214491E-4
0.0016985137
0.0047789416
0.0065363417
0.006759955
0.005055035
0.0027955899
2.3124152E-4
-0.001677006
4.9866758E-5
0.0010031501
4.057147E-4
0.0028322085
0.0049646036
0.0058089867
0.004986197
7.535296E-4
-3.8087872E-4
9.577862E-4
-0.0013800017
-0.004022159
-0.0035583293
-2.281196E-4
0.0014909373
-8.022054E-4
-0.0014119465
-0.0026829035
-0.0066692187
-0.006752394
-0.005419606
-0.004858308
-0.0018639141
0.0010667259
0.0020445688
0.0014103616
4.8800465E-4
-9.509651E-5
-0.0018601358
-0.0025189882
-0.0010398561
9.914606E-5
4.693635E-4
0.0017420135
0.005032202
0.006424635
0.0044756136
0.0028330314
0.001700465
0.0017058213
0.0024384253
0.0017128766
0.0023242235
0.0054519908
0.008684638
0.0108164605
0.00927518
0.0034570496
-0.0011218467
-0.001975524
-0.0025345313
-0.0038005197
-0.005721731
-0.0066857236
-0.004522397
-0.0030534253
-0.0038382544
-0.006623377
-0.010923377
-0.011194281
-0.008708313
-0.0068637948
-0.0045841723
-0.0035992449
-0.0024268867
-9.884833E-4
-0.0010629365
1.709378E-4
7.032157E-4
-6.078564E-4
-1.8126755E-4
0.0024649908
0.0057697804
0.0068875155
0.007011975
0.007923439
0.0063479305
0.0031072833
0.0010111011
5.273835E-4
0.0017352162
0.0019897479
0.0010576005
0.002362394
0.003959562
0.0019428858
-3.4957626E-4
-1.7708342E-4
-8.687274E-4
-0.0024824475
-0.002400053
-0.0013890996
-0.0020526878
-0.0034980376
-0.0019718355
-3.9269784E-4
-0.0025416717
-0.0052980534
-0.0067585455
-0.0066589126
-0.0049651056
-0.0033136425
-0.0018976418
2.708468E-6
0.0018419292
0.0013591305
-6.2842877E-4
-2.9392994E-4
6.030877E-4
-3.094001E-4
-2.8636804E-4
6.613583E-4
5.949179E-4
0.0014982593
0.003501051
0.003685999
0.002650843
4.9497455E-4
-0.0026431023
-0.0026435682
-0.0010492008
-0.0014248913
-4.799677E-4
0.0015238713
0.0012932613
0.0015666127
0.002528434
6.778573E-4
-9.843478E-4
-7.7119283E-4
-0.0015103567
-0.00110376
0.0012941326
0.003237465
0.0037618016
0.0022883771
6.770245E-4
3.9450595E-5
-4.5396414E-4
-0.0021302681
-0.0042616636
-0.0032102591
-0.0015734143
1.9989496E-4
0.0030578387
0.0017908243
-1.4294375E-4
-0.0017599647
-0.0028450538
-0.0015518445
-0.009079692
-0.012843444
-0.0013408834
0.0025947448
0.0016327052
0.004079446
6.500817E-4
-0.0011709509
-0.0016704336
-0.0038982779
-0.0016814735
2.273138E-4
9.3670527E-4
0.0025431677
0.0040340554
0.0057410058
0.005134157
0.0035332993
0.0019668126
-2.5934057E-4
-0.0010900302
-7.346534E-4
-9.2019516E-5
6.5333344E-4
0.0030075237
0.0045757075
0.0013683253
-0.002594254
-0.0049703694
-0.0053402055
-0.0039839125
-0.0033769892
-0.0015183296
-1.8742547E-5
5.639366E-4
0.0019202611
2.6349431E-5
-0.0014127946
-0.0015497137
-0.0051112794
-0.0055376333
-0.0021783044
-4.3417152E-4
0.001747834
0.004135105
0.004359308
0.0020518827
-0.0017947268
-0.0038029097
-0.0027058767
-0.0015086858
-0.0017242243
-6.9218315E-4
0.002034923
0.0032140566
0.0029716133
0.0028302106
4.095243E-4
-0.0022510025
-9.303547E-5
0.0012066325
-0.001028704
1.4231468E-4
0.0024609298
0.0028078926
0.0034809264
0.002400634
-0.0011073737
-0.0047121705
-0.005520561
-0.0043451157
-0.0047901585
-0.0029255669
0.0012306898
0.0026451373
0.003145616
0.0021924495
-3.4537681E-4
-0.0015431171
-0.0015190654
1.0345921E-4
4.9201795E-4
-2.1884311E-4
0.0025554565
0.005267399
0.0051131975
0.0032036086
-2.6117195E-4
-0.0019952096
-0.002210615
-0.00287613
-0.0024445127
-0.0016804244
-5.968292E-4
0.0017116974
0.003524704
0.003921072
0.0017453742
-0.002312006
-0.0037442679
-0.00290624
-0.0030805399
-0.0022082394
9.773686E-4
0.0050289202
0.0077469843
0.004421938
-0.0015509326
-0.0027324609
-0.0023857716
-0.0036708557
-0.0041612587
-0.0018749818
0.001639999
0.0026165494
0.0030654988
0.0011077477
-0.0049886024
-0.0062631094
-0.0035725113
-0.0020366788
-0.0043286146
-0.011813929
-0.008524204
0.0046293
0.007363921
0.0046676523
0.0032653005
8.106556E-4
3.6919222E-4
-4.614805E-4
-4.7548665E-4
0.0021881016
0.0038725447
0.0062620123
0.008873639
0.008438716
0.005354005
0.0026863744
0.0014687086
-0.0012160602
-0.0019020886
3.127871E-4
1.7327759E-4
0.0014496269
0.0030388024
-8.684003E-4
-0.005556416
-0.008286792
-0.008969296
-0.0068994514
-0.005865703
-0.005691734
-0.003007395
0.001810477
0.005258852
0.0038874138
0.0010725678
1.1900623E-4
-0.0014834274
-0.0020887754
-0.0012990482
-0.0024425494
-5.842378E-4
0.0054748226
0.0063017556
0.0019385999
-0.0013862422
-0.004381543
-0.005668988
-0.0042982767
-0.0040081562
-0.0023544433
0.0015626109
0.0033909746
0.0048750835
0.005144013
0.001990435
3.1037664E-4
4.299226E-6
-0.0010503371
-0.0011335381
-8.035291E-4
0.0011377359
0.00553222
0.0070325783
0.0023891
-0.0023109734
-0.0036039476
-0.0060152323
-0.006584105
-0.0037375828
-0.0028024053
2.867985E-4
0.0052728774
0.0067223725
0.0056707216
3.8524723E-4
-0.0035182573
-0.001615279
-0.0027557025
-0.0044285487
-0.0018135506
0.0010414285
0.0053508687
0.007700771
0.003674291
-0.0012499542
-0.0039761877
-0.005543319
-0.006355371
-0.0054370426
-0.0025532197
2.2047902E-4
0.0033446955
0.0051585175
0.0028294323
-3.4426717E-4
-0.003148015
-0.005367066
-0.0053869653
-0.004841054
-0.0021282781
0.0018378014
0.003754457
0.007004908
0.0075934017
0.001100813
-0.003982327
-0.00542535
-0.0064045247
-0.0042950287
-8.170506E-5
0.0023624187
0.0047321892
0.008504518
0.008263348
0.0026096648
-0.002437022
-0.004579562
-0.0048509375
-0.0052777035
-0.0046035214
0.0013375869
0.007999497
0.009819449
0.00585145
-0.0021684552
-0.005773168
-0.006030895
-0.008904388
-0.0072362754
-0.0014076619
0.001937352
0.0060919886
0.009668053
0.0073084426
8.7269675E-4
-0.0038638813
-0.004353361
-0.004379052
-0.0047411523
-0.0033063008
3.1347462E-4
0.0073351543
0.011907024
0.008698999
0.0024718852
-0.004793121
-0.010303176
-0.008750267
-0.0040055215
-7.7102415E-4
0.0022632284
0.005578332
0.007392125
0.0061845975
7.796566E-4
-0.005952937
-0.0076745735
-0.007071266
-0.007895391
-0.005787356
-0.0014795625
0.0052980958
0.013237632
0.0114183705
0.002550056
-0.0025705246
-0.0041593965
-0.005120554
-0.005934968
-0.0032856665
0.0023804537
0.00603007
0.008392864
0.0071868612
-1.0564539E-4
-0.006261404
-0.0072464854
-0.007244083
-0.007819669
-0.005819641
-1.9832513E-4
0.008072641
0.013964036
0.010503844
0.0022916198
-0.0035428933
-0.006849108
-0.0066960384
-0.004328528
-0.001781294
0.0016851258
0.0059350356
0.008965263
0.0078178765
0.0025447914
-0.0041174237
-0.007180563
-0.005903829
-0.0063036378
-0.0060049617
-0.0013129795
0.004987032
0.01042826
0.00878568
7.2235253E-4
-0.0057516056
-0.008375774
-0.007584686
-0.0059099165
-0.004085229
-2.6421563E-4
0.0051967604
0.009451454
0.008135663
0.0026815434
-0.0035800892
-0.00730855
-0.006461573
-0.0065541323
-0.0055086496
1.7545989E-4
0.0062322435
0.011615712
0.009819908
7.927805E-4
-0.0042651687
-0.005194263
-0.0051080664
-0.004134864
-0.0022289779
0.001178946
0.0053989296
0.009757717
0.008523661
0.0016867691
-0.003689197
-0.0071728607
-0.007058624
-0.004617786
-0.0034288936
9.31135E-4
0.0077079204
0.010781637
0.008087983
0.001773415
-0.0041066664
-0.0064279586
-0.004402171
-0.003636762
-0.005267605
-0.002523633
0.0036345518
0.007452214
0.0036574022
-0.0054665413
-0.007175557
-0.002231641
-0.002608362
-0.0048036547
-0.0029384207
-0.004289045
-0.0032740636
0.007877616
0.011795539
0.00543976
0.0016984583
-0.0015971254
-0.0029060051
-0.0025984764
-0.0030704513
0.0011069507
0.0051206346
0.0074270354
0.008450993
0.0028809637
-0.0026116557
-0.0033609618
-0.0028553437
-0.0042324197
-0.0058171023
-0.0012262391
0.0044152965
0.0067118364
0.0072297514
0.002393496
-0.0029943988
-0.004425901
-0.00557771
-0.005465548
-0.0017810703
0.0018534325
0.0023438802
0.0049843066
0.0055040126
-0.0020554669
-0.0051387497
-0.0031530813
-0.0032902707
-0.0039839284
-0.0068127234
-0.004587782
0.003550261
0.006979532
0.0047105365
-0.0029691246
-0.008503085
-0.006118494
-0.002904434
-5.661196E-4
-0.0018576776
-0.0029262903
0.0046845237
0.009771313
0.0076386337
0.006774598
0.0054320158
0.0031922183
0.0028008674
0.0017599107
9.451241E-4
0.002102581
0.002826902
0.002639737
0.0013944576
-0.0017721142
-0.0055198646
-0.0077478555
-0.0064958753
-0.004867305
-0.0052447096
-0.0029710238
7.159894E-4
0.003135704
0.004714684
0.0021856485
-0.0014243753
-0.0013418222
-9.4508694E-5
-8.6655206E-4
-0.0025825098
-6.9356814E-4
0.0025210546
0.0033617802
0.0027075314
-0.0012922995
-0.0055373986
-0.0056451918
-0.00378254
-0.0020735331
-6.888475E-4
4.2918732E-4
1.618381E-4
0.0016661678
0.004526752
0.00468813
0.0052261157
-5.842004E-4
-0.008637022
-0.0023447594
0.0030573038
-3.516517E-5
0.0023121508
0.0055229845
0.005796399
0.0041844053
4.834884E-4
-0.0011402573
-0.0017533018
-0.001475297
2.8533948E-4
0.0024580895
0.003528493
0.0023488286
0.0028825551
0.0021201323
-9.7017095E-4
-5.1641243E-4
-6.652542E-4
-0.0037423924
-0.0069330307
-0.006633589
-0.0013805308
0.002007962
0.0023160023
-6.1246485E-4
-0.0064967396
-0.0077346354
-0.0061794277
-0.004870327
-0.003150752
-0.0028758836
-4.30636E-4
0.002892724
0.0030534728
0.001777464
4.7969457E-4
0.001132205
0.0021427216
0.0030845257
0.0046715913
0.0034748313
0.0037974005
0.0067655146
0.0058098594
0.003037491
4.7207432E-4
-0.0014254685
-8.3577426E-5
3.6623375E-4
-0.0017615439
-0.001736625
0.0010686882
0.004138771
0.004228104
6.850101E-4
-0.0013242599
-9.3745074E-4
-0.0019626268
-0.003677814
-0.0043544653
-0.0031620713
-0.001027202
-3.18336E-5
5.99963E-4
-4.966897E-4
-0.0032538339
-0.0040077153
-0.0035729876
-0.0028366104
-0.002398323
-0.002694769
-5.40401E-5
0.003787411
0.00434173
0.0035555018
0.0028802585
0.0012021252
-5.789911E-4
-9.0237235E-4
-9.460864E-4
-6.526738E-4
0.0024641796
0.0049913935
0.003243425
0.001345252
6.254737E-4
-0.0014230518
-0.003375522
-0.003963467
-0.0017346916
0.0026015604
0.0035607377
0.003469281
0.0037305048
-8.681068E-4
-0.0035369156
-3.1821596E-4
0.0011127595