0.0092969565
7.021999E-4
-0.00837457
-0.0107951
-0.010279086
-0.004638811
0.0010758592
0.0019437207
0.005619055
0.0089414045
0.007347931
0.0031602015
-0.0019450429
-0.0035106046
-0.0022221913
7.7603554E-4
0.00445208
0.0034542375
-0.001113431
-0.005530839
-0.0070708403
-0.007934216
-0.011797324
-0.010565794
-0.0020801632
0.0049003456
0.009630161
0.015472253
0.01923932
0.015689315
0.005267188
-0.008655878
-0.017681202
-0.01838509
-0.017962703
-0.012345787
-0.0045297756
-0.0034787639
-5.050461E-4
0.0021178704
0.0031896508
0.0045018513
-0.003580681
-0.009415669
-0.0066461195
-5.07323E-4
0.009932167
0.014773974
0.018067153
0.019046882
0.014353597
0.016162079
0.008525187
-0.0022554656
-0.0018545741
-0.012305906
-0.01241645
0.0046978956
0.0076180357
0.0070507694
0.006583199
0.0032176513
-0.0014352049
-0.014742533
-0.01315858
-0.004172429
-0.014245962
-0.014281303
-5.921836E-4
0.0019958622
0.0010749896
-7.627935E-4
-0.008046835
-0.013492377
-0.013093783
-0.0077132997
-0.0017010361
0.0022864384
0.00682397
0.009605942
0.007716225
0.0050278194
0.0016818666
-0.0028904984
-0.0022457486
0.003570597
0.0072869654
0.007212776
0.005728551
0.005024544
0.006163886
0.0072196475
0.005786825
0.0028338092
0.0024706475
0.0068141622
0.008594677
0.0019031415
-0.0046792123
-0.006832302
-0.009393255
-0.011583452
-0.012850289
-0.012102318
-0.008354878
-0.0041416204
0.0013636997
0.0042561265
0.0041025644
0.0074187946
0.007147703
6.3492835E-4
-0.003968182
-0.0072865086
-0.0062936693
0.0012437025
0.0052546323
0.0051855617
0.0076704756
0.009304467
0.009546367
0.009738342
0.0014023603
-0.012445252
-0.015911032
-0.008182623
-9.3647477E-4
1.9970275E-5
-0.0011233483
-6.403778E-4
-2.573825E-4
-0.001198671
-0.0072468114
-0.015631363
-0.01545068
-0.009739564
-0.005242914
8.1089983E-4
0.007521003
0.012534549
0.016307626
0.018697264
0.01944095
0.016034301
0.010714652
0.010437252
0.009984612
0.0012206499
-0.008534626
-0.011459072
-0.010740445
-0.009476209
-0.009232786
-0.011278792
-0.009679787
-0.0011910932
0.0053833416
0.0063073426
0.0064622746
0.005933876
0.0026170854
-0.00406474
-0.011981695
-0.015998794
-0.013036482
-0.002440458
0.0097817145
0.013750401
0.009851296
0.0065909754
0.0067296876
0.003742322
-0.0040874113
-0.009304146
-0.008813655
-0.005308092
-0.0045168838
-0.0069245333
-0.0052280207
-0.0020739776
-0.0023783175
-0.004214142
-0.008342251
-0.010555681
-0.007491798
-0.0030176656
0.0027386884
0.008339774
0.01408857
0.023795323
0.030321242
0.026197063
0.016505951
0.0064261165
-0.002188289
-0.004961269
-0.0015676133
0.0014112311
1.7293888E-4
-0.0011516404
-8.657851E-4
-0.005330989
-0.013728174
-0.018288828
-0.018071821
-0.01588708
-0.013740436
-0.008533961
-9.6824137E-4
6.412839E-4
7.188422E-4
0.001676966
-0.0032035543
-0.0070733293
-0.004536497
0.0013290555
0.007291635
0.009382242
0.009543908
0.009076793
0.009392387
0.009718225
0.0033779894
-0.0035191886
-0.0038727429
-8.8543637E-4
0.0024962407
0.004125289
0.006981488
0.008526248
0.0044239433
-7.3998416E-4
-0.0072501046
-0.009772638
-0.0042869863
-9.4208313E-4
-1.893989E-4
0.0015099497
0.00199193
0.0014885453
0.0021224828
0.0039651347
1.4120873E-4
-0.006479637
-0.006704823
-0.0033428909
0.001647659
0.0027261728
-0.0026411577
-0.0037279888
-0.0032216688
-0.0070221014
-0.009909054
-0.012362119
-0.014040778
-0.009478343
-2.3393729E-4
0.005635429
0.008739114
0.013908604
0.013679935
0.008740448
0.009084616
0.009341017
0.007095382
0.007292691
0.0069519193
0.007010929
0.008646486
0.0070736757
0.0030464137
-5.986494E-4
-0.0049353526
-0.011718066
-0.017671661
-0.016358815
-0.011227587
-0.0082488265
-0.0049483883
-0.0015661019
6.6696055E-4
-3.111465E-4
-0.010245147
-0.019044537
-0.014248374
-0.0047029834
9.5744285E-4
0.004588176
0.009221886
0.01452611
0.015743094
0.014114039
0.013842584
0.013642963
0.013921151
0.01635949
0.017095696
0.012115556
0.006667332
0.005212392
0.0036703218
-0.0010439483
-0.010013439
-0.019377751
-0.023705717
-0.023904996
-0.022389937
-0.025105173
-0.029506648
-0.02649007
-0.02274868
-0.021438953
-0.019319354
-0.0195587
-0.015849805
-0.004512895
0.0071412777
0.016950056
0.028187731
0.04014424
0.042625457
0.036023058
0.031842466
0.028957192
0.028526219
0.034388546
0.039351467
0.041244537
0.037552964
0.023160338
0.008839893
0.0010169443
-0.010020248
-0.024134113
-0.036566637
-0.043516416
-0.038919546
-0.03388674
-0.02963213
-0.018983036
-0.021521188
-0.025863597
-0.012786345
-0.01571834
-0.031268317
-0.024963532
-0.0107999
-0.0041512973
-6.2316353E-4
0.0011966382
0.004690387
0.0039496347
-0.007522258
-0.015284351
-0.010638098
-0.00661353
-0.0039958414
0.0024269526
0.005352914
0.007259332
0.007374884
0.0016206228
-0.0022331378
-0.0051601143
-6.1532273E-4
0.019251782
0.04020502
0.05707423
0.06965115
0.07182409
0.066125035
0.059245635
0.05492223
0.0449442
0.030827394
0.023649355
0.00819518
-0.019077137
-0.035604823
-0.040680062
-0.04486082
-0.049042106
-0.056515116
-0.069610104
-0.07707858
-0.069807
-0.05872524
-0.050608676
-0.039673094
-0.028134981
-0.020232284
-0.015094085
-0.011656208
-0.008047301
-0.0022771347
0.007635377
0.022576487
0.04035668
0.055825986
0.06389735
0.06363594
0.056264054
0.043341763
0.027805788
0.014815281
0.00779293
0.0018988465
-0.0065257065
-0.012895903
-0.015610466
-0.017994734
-0.019429838
-0.017649328
-0.018151097
-0.02129183
-0.014722697
-3.706335E-4
0.009393142
0.012211991
0.011468445
0.018151548
0.030669838
0.0315527
0.023276448
0.018082494
0.016387127
0.009821264
-0.0022866174
-0.004731474
0.0017931466
0.005578036
0.0030289118
-0.008464121
-0.020547966
-0.03334474
-0.049514692
-0.055920914
-0.056274854
-0.05117726
-0.035610896
-0.021985859
-0.012277522
-0.00885211
-0.011856233
-0.0101259835
-0.0018816191
0.016497193
0.03395412
0.038077217
0.043715686
0.05201333
0.050925154
0.035569318
0.0176681
0.017495098
0.02145874
0.015514061
0.009177399
0.0030366494
-0.0017718225
-0.0042072297
-0.008933318
-0.018410673
-0.026166271
-0.022715148
-0.017818887
-0.014003571
-0.00634716
-0.0054524094
-0.007908332
-0.009773429
-0.013377052
-0.012956263
-0.012657324
-0.009822144
-5.208874E-4
0.008049161
0.015510892
0.017537018
0.016950868
0.021079235
0.01999135
0.0107847
5.513336E-4
-0.006314747
-0.007433695
-0.0032374891
0.0030074392
9.76925E-4
-0.007160812
-0.008878227
-0.008877056
-0.012295443
-0.014813103
-0.01428932
-0.0113939615
-0.0049008573
0.0055821976
0.010657363
0.01143121
0.014737994
0.013445846
0.009903274
0.0041705584
-0.006331641
-0.008851143
-0.007345699
-0.0062759
6.9886463E-4
0.002563955
0.002048424
0.00851855
0.006643953
-0.00416572
-0.008798618
-0.008719187
-0.007588761
-0.00416042
0.0021512948
0.008903297
0.0035739308
-0.010901826
-0.01715485
-0.01920589
-0.016400233
-0.0023730907
0.012676574
0.028291138
0.03478975
0.024116585
0.017779192
0.014840641
0.0066639166
-0.0013858887
-0.015357439
-0.022210302
-0.0075726723
0.009074802
0.011359754
0.008631555
0.0127409985
0.014650156
0.008832278
-9.947419E-4
-0.012861879
-0.014758366
-0.017318936
-0.025578754
-0.017315755
-0.01017276
-0.013465039
-0.011291122
-0.013128735
-0.01309395
-0.00875978
-0.006306679
0.0048804223
0.014490958
0.01717146
0.018883448
0.017995968
0.017139416
0.008385442
-0.004340102
-0.0112086525
-0.013922225
-0.007551401
-7.640416E-4
0.001727777
0.002127263
-2.9313832E-4
0.004962904
0.0032695371
-0.0029903003
0.008707187
0.014545286
0.009167633
0.0031741154
-0.0032365026
0.006536099
0.008542208
-0.014558513
-0.028489597
-0.0191365
0.010173654
0.038448818
0.04549708
0.04366062
0.023831265
-0.017449973
-0.040520962
-0.034025364
-0.016287329
-0.0020283945
-0.0056411684
0.0036716193
0.04352551
0.038812205
-0.018881055
-0.049020886
-0.059535477
-0.07283664
-0.057353277
-0.025925636
-0.0032891817
0.01547864
0.03321054
0.047262907
0.04810414
0.039157376
0.035662312
0.031223437
0.021364786
0.017705295
0.010005633
-0.014455092
-0.037203234
-0.04598438
-0.042602953
-0.028040543
-0.014373528
2.675281E-4
0.02307882
0.029304609
0.01099728
-0.0018948696
-0.00555428
-0.011127016
-0.0063841688
0.0010535644
7.645845E-6
0.0010562565
-0.008450932
-0.01898583
-0.011169866
-0.014785313
-0.013461194
0.021336444
0.049063537
0.059476316
0.06408515
0.05227868
0.03129283
0.0031636527
-0.024331471
-0.033173278
-0.033988252
-0.034484103
-0.035496775
-0.041108403
-0.03733888
-0.023023503
-0.009548972
0.0010945053
-5.958209E-4
-0.0045143752
0.006815446
0.0168651
0.022076359
0.0294015
0.022106063
-9.1297197E-4
-0.019741982
-0.020358821
-0.0073739085
0.0029798036
0.003706556
-0.0061226175
-0.009159026
0.007992484
0.018029103
0.013795341
0.013388996
0.0085054785
0.0015723703
0.005068117
0.009985426
0.013517838
0.013287667
9.2217895E-5
-0.018386262
-0.032957964
-0.038079463
-0.02593678
-0.005425431
0.010155626
0.01732994
0.01760165
0.01768926
0.012437805
0.0013913733
0.0012304204
0.002633853
-0.0057497276
-0.0063935765
2.7842465E-4
-0.0023175466
-0.008504987
-0.0014210911
0.010843624
0.005988871
-0.004071437
-0.0028305307
-0.003142849
-0.003536694
0.0035441874
0.005186031
0.0014706313
0.0050157546
0.01084963
0.009915649
0.005542297
-0.0015213479
-0.013584475
-0.022070661
-0.019041715
-0.009387929
0.0023832407
0.014552082
0.015908904
0.0060071507
0.004192668
0.009030863
0.0048733302
-0.0014612275
-2.1729778E-4
0.0050760503
0.0059108175
-0.0023705978
-0.010452235
-0.010886577
-0.009120028
-0.011863979
-0.017042244
-0.016222768
-0.016597511
-0.021843873
-0.014616422
-0.0016212978
0.0023118483
0.0070467573
0.0118613755
0.010828233
0.008994988
0.007177101
0.008069951
0.014464714
0.02404037
0.03070813
0.030407205
0.030421175
0.028182853
0.016145792
0.004520536
-0.0041443277
-0.009067755
-0.0040860716
-0.0042813476
-0.011564769
-0.011971501
-0.015194831
-0.023089476
-0.026285188
-0.029294323
-0.032124158
-0.028673412
-0.017442284
-0.007134366
-0.0060944194
-0.0065116594
-0.0023324832
0.003534477
0.0067784917
0.009341069
0.0150489295
0.011250928
8.424645E-4
0.003793267
0.011195491
0.012734665
0.01454042
0.014544231
0.010563181
0.0049372795
-3.6751892E-4
-0.0010561299
0.005086717
0.008798154
0.0041700494
0.002567957
0.0031013042
-0.0026676976
-0.0074196006
-0.010195323
-0.012409413
-0.007930501
9.199265E-4
0.004600024
5.5273593E-4
0.0013820289
0.0081169475
0.0065313093
0.0044668517
0.0062619606
-0.003366532
-0.013986016
-0.010100737
-0.0065309135
-0.00645648
0.001179544
0.00513132
0.002183854
0.0026962035
-1.5204858E-4
-0.005725119
-0.005194825
-0.0026804006
-0.0011914674
-0.0031662774
-0.006639855
-0.003939038
-5.9019204E-4
-0.0020302518
-0.0029922507
-0.00305314
-0.0049829204
-0.006364536
-4.3037828E-4
0.012742041
0.018829448
0.014627246
0.012479637
0.0073009753
-0.0043206024
-0.0074754963
-0.0043868595
-0.0019303731
0.0038300091
0.0072064274
0.0052386206
0.002377185
5.9631193E-4
-7.7458075E-4
-0.0065301335
-0.013029023
-0.013168456
-0.008528948
-0.0022879068
0.0027696174
0.0069990335
0.008790688
0.006960467
0.0057512056
0.0017305093
-0.0044374703
-0.0064177564
-0.0066665825
-0.0040355558
9.864283E-4
0.0021571468
0.0020630832
0.0064788563
0.009452416
0.003942932
0.006268006
0.015731933
0.004320768
-0.010162177
-0.0048820246
-0.0011393307
-0.003456092
-0.005198804
-0.0064660204
-0.004742634
-0.008024755
-0.010332119
-0.0051795375
-0.0046039736
-0.005330815
-0.0015701056
0.0013233522
8.6466316E-4
0.0039728256
0.011179709
0.0021708098
-0.010182901
-8.4291294E-4
0.007489952
0.0079966355
0.008823791
0.0037513203
0.0046298294
0.0074409805
0.0020889526
-0.0015435773
-0.0056087095
-0.0077156634
-0.0035506466
-3.0510683E-4
0.002217986
0.0075573367
0.0141628245
0.010718244
7.818769E-4
-0.0012379967
-0.007080807
-0.01914118
-0.023145054
-0.018482357
-0.0074532786
0.0023270918
0.006068023
0.0075812438
0.00545675
-6.37703E-4
-0.007342176
-0.007992468
-0.0022838921
0.0012978074
0.0022267061
0.0039001023
0.006416554
0.0061015408
0.0036880278
0.004040119
0.0024914779
7.5328274E-4
0.0030306848
0.0032797933
0.0051209424
0.010268594
0.010801267
0.009436357
0.008631397
0.0022561878
-0.004244619
-0.003240507
-0.0044587185
-0.0085857995
-0.006699632
-0.0037577257
-0.0032492594
-0.0040887096
-0.0044541294
-0.004362543
-0.0049746064
-5.959326E-4
0.0036314167
0.0075095356
0.014548304
0.013535532
0.0111185
0.0039744307
-0.010919082
-0.0102928355
-0.013128781
-0.027878635
-0.026054848
-0.020588426
-0.018710924
-0.010292954
-0.0016463773
0.0071433927
0.011883047
0.01192862
0.013693879
0.016909761
0.022635676
0.028353354
0.03607361
0.04244364
0.033654545
0.018013924
0.0060645216
-0.009580381
-0.022835135
-0.020457767
-0.012969577
-0.016709348
-0.027935224
-0.03085023
-0.02000509
-0.018742105
-0.03680368
-0.043323908
-0.034301113
-0.03057286
-0.028240332
-0.023359897
-0.018634586
-0.0112955645
3.1520004E-4
0.0170005
0.032583605
0.041192457
0.049227566
0.05916289
0.066126846
0.075075135
0.08392663
0.07781299
0.059650503
0.039671917
0.020391481
-0.0022037001
-0.031660944
-0.050832532
-0.057126805
-0.06368777
-0.06332211
-0.058823574
-0.051391676
-0.03972425
-0.037244596
-0.033965737
-0.027992344
-0.02740312
-0.019622128
-0.0122847855
-0.00903312
-5.25795E-4
0.005534102
0.01056693
0.01447569
0.013980237
0.018673684
0.027647074
0.035909463
0.043951068
0.04895475
0.04808019
0.04271095
0.0366388
0.029919444
0.021689389
0.0091662165
-0.00549318
-0.011535455
-0.013549875
-0.018374296
-0.021701435
-0.026722282
-0.031790286
-0.033694953
-0.035381105
-0.03208696
-0.025965149
-0.019804932
-0.008943894
-3.5150224E-4
0.003812669
0.0071229185
0.0053263092
8.989191E-4
-0.0052667544
-0.012703876
-0.01349944
-0.011681081
-0.010069117
-7.227784E-4
0.014363126
0.02777231
0.03750091
0.044025533
0.04460811
0.04186059
0.044336267
0.04411873
0.035171803
0.024324806
0.004948994
-0.022422161
-0.042018864
-0.05001725
-0.049906548
-0.045594346
-0.03696705
-0.02331689
-0.0139797935
-0.00977097
-0.0044997856
-8.595764E-4
4.6416264E-4
-0.0020254287
-0.010871755
-0.01850128
-0.018047264
-0.009868756
0.0011624529
0.008193761
0.011206484
0.015003324
0.020453531
0.022249628
0.018831806
0.016464427
0.013795791
0.010700088
0.013093725
0.013468234
0.00845504
0.004027523
-7.262479E-4
-0.0041721463
-0.0072098174
-0.010100873
-0.0087119965
-0.0066272123
-0.002192481
0.0042548003
0.0070142285
0.009802372
0.009759171
0.005174561
0.0024742878
-8.5902406E-4
-0.0039554266
-0.0038113035
-0.0052655144
-0.008179672
-0.0077629765
-0.00310779
-2.7150058E-4
-0.0050028046
-0.012906368
-0.018237563
-0.018080315
-0.009664418
-1.8078751E-4
0.0031882047
0.0063282573
0.00950385
0.008539473
0.0060462053
0.0025716128
1.9142304E-4
4.2429933E-4
0.003968881
0.011742494
0.015536775
0.015607209
0.014827064
0.006429186
-0.0045459466
-0.013345859
-0.019434065
-0.018698838
-0.0147453435
-0.008675173
-0.0017843557
0.0010562344
6.27996E-4
-0.0012790186
-0.0033108764
-0.0067091757
-0.009075352
-0.008508892
-0.0061182594
0.0012414875
0.0050903526
0.0043586143
0.0063491296
0.0063275844
0.009920986
0.008788011
-0.002392377
0.0020820752
0.015277788
0.020962024
0.023507025
0.019241849
0.015451962
0.013339348
0.003909984
-0.008682405
-0.0190649
-0.019544203
-0.015163693
-0.014459544
-0.009612186
-0.0052677067
-0.0063837725
-0.0050974325
-0.003492594
-0.006420379
-0.009721295
-0.007729606
-0.0042891265
-0.004621873
-0.0039801444
0.002281639
0.010001082
0.01208264
0.010515606
0.0071373326
3.2778067E-4
-0.0022377637
3.5885538E-4
0.0013511303
5.8476534E-4
6.845275E-4
0.004525093
0.006791842
0.0033052957
-0.0013662415
-0.004662128
-0.0037287413
-0.0014023463
0.0010908743
0.0057647964
0.0066501386
0.0086273495
0.012126924
0.0061808485
-0.0039400747
-0.012426044
-0.015040853
-0.008491789
-0.0019046308
0.0019536526
0.0032396913
0.0021905347
0.003273642
0.0023710236
-0.0030979258
-0.009196207
-0.011733807
-0.009317456
-0.005096096
-1.2890149E-4
0.0014072927
0.0010232056
0.007232377
0.010821283
0.003956007
-0.002984643
-0.0030998974
-2.7908135E-4
0.0013252321
0.004352364
0.0055249557
0.0028297978
0.004711061
0.005721713
0.0013035608
-0.0011277435
-0.0029702939
-0.002663941
0.0011046546
0.0017829031
-2.2784123E-4
-0.0020611421
-0.0022987428
-0.0021601769
-0.004691964
-0.008087299
-0.009511877
-0.0066127614
-0.0011821087
0.003187118
0.0073394985
0.01010752
0.010460157
0.00719516
-5.741718E-4
-0.0066476893
-0.0063963337
-6.93181E-4
0.0028426696
-5.6733453E-4
-6.370395E-4
0.0032128165
0.0031700612
0.002761267
-4.8919895E-4
-0.007187859
-0.007782891
-0.004053301
-8.174296E-4
0.0021611627
0.002744603
0.0020899165
0.0021524501
0.0015860214
-8.1632665E-4
-0.0055156383
-0.008293945
-0.0046817064
0.0017628288
0.007324954
0.010445191
0.008611327
0.005188329
0.0029339367
-9.3482254E-4
-0.005181554
-0.0060679168
-5.4762035E-4
0.006987283
0.0068442128
0.004442712
0.007013444
0.008294558
0.0046841884
-0.0038039845
-0.011081682
-0.010530043
-0.009246295
-0.0077740015
-0.0025691304
0.0011034883
0.0049694
0.0057195434
-0.001755869
-0.008251968
-0.012629617
-0.016128857
-0.01439074
-0.011441518
-0.007427401
-0.002479196
-0.0012054485
0.0018077877
0.0070527745
0.0069640884
0.004323734
0.003873145
0.0060013277
0.0127824275
0.01900734
0.016758258
0.011890504
0.011353058
0.013783189
0.015017658
0.009204599
0.0023182386
0.0023942005
0.0035846704
0.0036786257
6.869714E-4
-0.006281437
-0.009404167
-0.012953556
-0.02054854
-0.025072182
-0.025702087
-0.020229213
-0.009784138
-0.0025539694
9.973217E-4
0.0026605101
0.0016629376
2.7301352E-4
7.4347313E-6
-0.0038941905
-0.008455253
-0.0031950541
0.0049314974
0.007669072
0.009391541
0.009563121
0.0084952
0.0070917257
0.004562442
-3.7784514E-4
-0.009286007
-0.007752819
0.0050586658
0.009435796
0.010296538
0.01071666
0.005154719
0.0058330456
0.0045096264
-0.010213089
-0.016405677
-0.009576781
-0.006334238
-0.003021209
0.00377133
0.008073511
0.012056655
0.0133350715
0.009769481
0.005651676
-0.0010994441
-0.004032813
0.0024123085
0.0073886146
0.007812631
0.004645644
-5.015544E-4
-0.00134959
-0.004299997
-0.011783666
-0.016182635
-0.01739841
-0.01305685
-0.0042649466
2.8429853E-4
0.0026599017
0.0076204054
0.010124954
0.00704931
0.0020376642
-0.002946395
-0.005410076
-0.0029721397
-5.4021704E-4
-0.0013129582
-0.0050492254
-0.011327382
-0.015066693
-0.017884329
-0.024143092
-0.025970811
-0.018427482
-0.0024286085
0.019107351
0.031168688
0.029602893
0.028630123
0.029152954
0.020305587
-0.0015918564
-0.022605546
-0.025739804
-0.022684216
-0.020448303
-0.003657901
0.017500976
0.027268227
0.033833377
0.041080877
0.042072967
0.031803254
0.021166217
0.018542523
0.005903279
-0.022269635
-0.046041265
-0.05331936
-0.048159342
-0.038650613
-0.025584372
-0.012372805
-0.0014129252
0.0100592
0.015014887
0.016014902
0.018109515
0.014173676
0.008627194
-5.7422696E-4
-0.017844671
-0.027479248
-0.023683257
-0.013980858
-0.003693206
0.004639979
0.009561786
0.009971205
0.010275874
0.008550115
0.0028446158
9.558239E-4
0.003215322
0.0065124994
0.008309474
0.008955763
0.009367844
0.0061988826
0.004669511
5.254837E-4
-0.00689476
-0.0064724707
-0.010423804
-0.00976113
0.008746872
0.016325498
0.014354542
0.018677121
0.01814899
0.01052696
-0.0015882688
-0.010584223
-0.012696926
-0.012308433
-0.00566865
-0.0014250944
-0.0044123027
-0.0061877067
-0.0080552865
-0.010032851
-0.012385218
-0.013565845
-0.010328019
-0.0064792666
-9.577812E-4
0.0030226065
0.0028155872
0.0048869555
0.006409274
0.003148831
-0.0033223731
-0.00863449
-0.008149749
-0.003994082
0.001799908
0.0067526586
0.009501562
0.012583285
0.0130890375
0.008979628
0.0043468843
0.0020073303
-5.053316E-4
-0.0026318254
-7.9551706E-4
-0.0022298573
-0.005829117
-9.616481E-4
0.0045971517
0.0038805665
8.180579E-4
-0.002099273
-0.0017305918
0.00137579
0.0073832073
0.012487743
0.009261492
0.004495403
0.002018239
-0.0022250172
-0.0053465758
-0.008414847
-0.013038359
-0.014826234
-0.012678474
-0.0060950527
0.0039281673
0.0063813105
-0.0011918502
-0.0037995738
-0.0046739266
-0.012474105
-0.01102703
-0.0021182515
-2.9378323E-4
0.0023176952
0.0060193036
0.006579591
0.008589069
0.008663488
0.003891303
-0.0035157125
-0.0059738695
0.0010020181
0.006777201
0.008118489
0.010863882
0.012562214
0.009792651
0.004951393
0.0021259463
-0.0012356816
-0.0055454024
-0.0052621765
-0.0019991705
0.0032621333
0.0068568657
0.0030385235
-0.0017039827
-0.006737787
-0.012155631
-0.011637913
-0.010507156
-0.008005559
-0.0018767596
-5.857661E-4
2.7992335E-4
0.0042601572
0.0052479864
0.003779225
-3.2888105E-4
-0.004911961
-0.004977733
-0.0026282894
-0.0010148278
-8.8506495E-4
4.0081926E-4
0.0043871016
0.0072524543
0.0069454284
0.0027368315
-0.0038590513
-0.00659676
-0.0034848265
3.8781812E-4
0.0010937054
0.0012147169
0.0032102696
0.004709907
0.0034464456
-0.0014724766
-0.006709393
-0.0068438365
-0.0033906398
3.9240436E-4
0.0042587514
0.0068725175
0.007525872
0.0070247734
0.0053890455
0.0027092702
-3.7693753E-4
-0.0022268253
-4.7633657E-4
0.0016405426
-5.7438447E-4
-0.0030380855
-0.0028516788
-0.0021788983
-0.0024317184
-0.0070319264
-0.013332748
-0.014860691
-0.010025871
0.0022240523
0.013122504
0.011514996
0.004478317
0.0022444238
0.0022412487
-8.2089845E-4
-0.005194278
-0.006987869
-0.0034952147
0.003941141
0.0071913125
0.007628575
0.009928703
0.010287154
0.010075132
0.005105831
-0.0046022744
-0.0054849293
-0.0038272873
-0.0067854077
-0.006118376
-0.002781019
2.2808611E-4
2.6042658E-4
-0.002965535
-0.0047759893
-0.007645426
-0.010084584
-0.007815237
-0.0029902777
0.0023156174
0.004674098
0.0055443607
0.0075686104
0.0047784797
-0.0029211144
-0.007144701
-0.00434117
7.7907287E-4
0.0021270136
0.0036813878
0.011109098
0.015545039
0.01142074
0.0059732413
-8.026183E-4
-0.007283846
-0.0072832415
-0.0067674355
-0.0072248555
-0.0049735857
-0.0026936114
9.166216E-4
0.0037146544
0.0021912227
-7.2100887E-4
-0.004081921
-0.0043443907
-0.0017156984
-9.1787626E-4
0.001565811
0.005329005
0.006569512
0.006673791
0.0057047494
0.0033315795
-0.0031424635
-0.0103742955
-0.008495275
-0.0033793019
-0.0014743975
0.0017068998
0.0029042084
0.0011052218
-0.0012953185
-0.006753794
-0.010878353
-0.009640003
-0.003997483
0.0026636373
0.0047999714
0.0069558932
0.010619341
0.00968334
0.0074731624
0.0039446144
-0.0024023666
-0.0055832528
-0.0036970123
0.0032366747
0.008597712
0.00508038
0.0031110444
0.008650912
0.009087195
6.6314463E-4
-0.0070904563
-0.012515963
-0.013469673
-0.0046619684
0.0023769706
0.001135349
7.3421525E-4
7.6712866E-4
-7.598733E-4
-0.003199542
-0.007563797
-0.010066738
-0.008126811
-0.0012548281
0.004181681
0.0034004573
0.004013318
0.004509023
0.001808815
-6.258161E-4
-0.005813723
-0.009199753
-0.0053162714
1.5465554E-4
0.004277723
0.009401876
0.014789688
0.012175302
0.0035564308
-0.0014082032
-0.0059359223
-0.009077372
-0.008093333
-0.0050914995
0.0017966091
0.006072118
0.0071239173
0.00949437
0.007966312
0.0055201785
5.8971404E-4
-0.007938668
-0.0067907963
-3.245923E-4
0.0019135143
0.002784562
0.002580322
0.004282511
0.00561112
2.9521047E-5
-0.0069458648
-0.010133934
-0.010105459
-0.005982356
9.152776E-5
0.0028012441
0.0028531626
0.004146584
0.004088073
-6.871826E-5
-0.0072844895
-0.014236698
-0.014191833
-0.0075215963
-0.0016844961
0.0021209507
0.005985264
0.008500409
0.007919546
0.0039291107
-0.001883983
-0.0058062556
-0.005354254
-6.7369535E-4
0.0031509062
0.0031023999
0.006716689
0.012130383
0.009454811
0.003462517
-0.0029273042
-0.009932538
-0.006880077
0.0054175155
0.012712018
0.012702353
0.013106158
0.013631807
0.00847183
-0.0023844184
-0.013728106
-0.017789498
-0.015243733
-0.013177102
-0.009444492
-0.0048555145
-0.0028234047
0.0012629798
0.0057193716
0.0043079113
-0.003118343
-0.01005546
-0.0092993695
-0.0043829847
-0.0017500168
-7.225671E-4
0.0011448149
0.0050983303
0.0091193635
0.007898512
0.0016725758
-0.002118713
8.671683E-4
0.007425389
0.0087828925
0.004616724
0.0055769575
0.007555137
0.0040508
6.333435E-4
-0.005408348
-0.009789568
-0.005348837
-0.001277062
0.0011752206
0.0051673073
0.006170664
0.0032073008
-4.1723944E-4
-0.0032723001
-0.0061320774
-0.0046543498
-0.003360481
-0.0070230765
-0.002783031
0.0038222477
0.0022974513
0.0022039518
0.0032965136
-1.0413858E-4
-0.008646118
-0.012832912
-0.0055686403
-0.0013408617
3.527926E-4
0.0062723933
0.007818043
0.0063135414
0.0019395645
-0.004357124
-0.0064104
-0.005541369
-0.0029163829
-0.003040746
-0.0029976126
0.0010733635
0.0024853451
0.00577988
0.00939468
0.00592944
0.001423772
-8.531423E-5
0.0033683567
0.008294894
0.011640273
0.014610947
0.011311827
0.0051097604
-8.8194356E-4
-0.007511824
-0.008705441
-0.0086562885
-0.0072403857
-0.0027745008
-0.0020777904
-8.8479515E-4
4.0240443E-4
2.8369248E-5
-4.8605006E-4
-0.008368651
-0.017577345
-0.017885663
-0.010379608
-0.0030538177
-0.0036510353
3.8335996E-4
0.009389096
0.0062536024
-3.348372E-4
-0.0050534164
-0.012197927
-0.01237538
-0.005255987
0.002537108
0.007114168
0.010259446
0.01769019
0.01996749
0.013469084
0.007890809
-0.0014750788
-0.014089077
-0.0158774
-0.0072772205
0.0033019392
0.012277247
0.015861921
0.016248316
0.019674338
0.022920456
0.018394683
0.0030654857
-0.015469411
-0.022398807
-0.01940671
-0.015822057
-0.010517016
-0.005965242
-0.0018595249
6.0326036E-4
-0.0059564915
-0.010640392
-0.006715267
-0.0015080199
0.004794909
0.009450278
0.010770424
0.008942455
0.0056896387
0.0016693687
-0.008533811
-0.013771608
-0.012336881
-0.010090404
0.0034908026
0.010270352
0.0073563787
0.016996352
0.020365385
0.011567724
2.4104804E-4
-0.019142604
-0.03189013
-0.026196906
-0.009578265
0.0030102541
0.0044770855
0.0022209527
5.0222894E-5
8.8272867E-4
-0.0062669395
-0.017604249
-0.008044004
0.0017663973
-0.0010023259
0.004841184
0.015195667
0.024466682
0.03509176
0.04518025
0.044308584
0.030750176
0.024892315
0.018780202
0.004463717
-0.0038053119
-0.009823878
-0.012979475
-0.02409574
-0.050882675
-0.06456463
-0.052923426
-0.023391502
0.0030730658