0.003952265
0.0024844557
4.4189804E-4
-0.0018298881
-0.0020575565
-0.0022470516
-0.0014820842
-7.402727E-4
1.52193625E-5
0.0024348127
0.0017509465
8.305726E-4
0.0016405853
-0.0013455987
-0.004366696
-0.0051063504
-0.004592869
-7.786344E-4
0.002502106
0.0027970502
0.003447546
0.0044590016
0.0022070145
-0.0029573054
-0.006416972
-0.00663435
-0.004158805
-2.7310907E-5
0.0048649074
0.008779446
0.007676297
0.0048495033
0.0036663534
4.1720553E-4
-0.0022950317
-0.0026405712
-0.0030911986
-0.0026057614
-0.0020765567
-1.361862E-4
0.0040985066
0.004450843
-4.5775896E-4
-0.0062970086
-0.0091351485
-0.0080063995
-0.006002976
-0.0028917692
0.0017458041
0.004477564
0.0052728197
0.0045812167
0.0014349974
-0.0019040994
-0.003136787
-0.002044377
6.674778E-4
0.0033470104
0.0044307536
0.0038107682
0.0030241592
0.002499202
7.85628E-4
-0.0032811335
-0.0074835657
-0.0065478873
-0.0012809531
0.002437384
0.0034763243
0.003715465
0.0049773594
0.00509069
6.243084E-4
-0.0033776858
-0.004232657
-0.0042911028
-0.0010444273
0.0027589719
0.0029799242
0.0032002416
0.0031419825
0.0016358695
6.101802E-4
-0.0010159096
-0.0026400068
-0.0029281564
-0.0021532266
-1.1277569E-4
0.0011935291
0.0013768055
7.7790284E-4
-0.0014485221
-0.0026298114
-0.0031158826
-0.005308335
-0.0060631093
-0.004018803
-4.7414599E-4
0.0029674175
0.00356062
0.0038376376
0.004906073
0.0023196137
-0.0012584418
-0.0017331641
-0.002032174
-0.0020322443
6.4099673E-4
0.0022577522
0.001096108
0.002084453
0.0035571218
2.6380148E-4
-0.003896928
-0.0057650264
-0.0053632567
-0.0016584104
0.00220134
0.004291916
0.004280753
0.003165414
0.0039203013
0.003307256
4.7503356E-4
-0.0027796905
-0.0054302663
-0.0030262612
2.6469424E-4
0.0035165248
0.008688532
0.0074826456
0.005281152
0.0050488347
-5.7635334E-4
-0.0058905273
-0.009642182
-0.008382355
-9.2587905E-4
9.904074E-4
0.0015954173
0.003250227
0.0032060572
-9.025949E-5
-0.015910715
-0.022919063
-0.00795323
0.0018956204
0.004874196
0.00936219
0.009852951
0.009165097
0.0068628713
0.0030774672
-6.865756E-4
-0.0057995985
-0.008213809
-0.0052974336
9.0989855E-4
0.0033929432
0.0018827931
0.00304768
0.0037119545
0.0029056745
0.0010441252
-0.0035960956
-0.0049347286
-0.0023026436
9.221041E-4
0.003630546
0.0038725478
0.0031339508
0.001408536
-9.6632226E-4
-0.0023583542
-0.0030882112
-0.002331237
-0.0019636948
-6.951039E-4
0.0033058366
0.0050420146
0.0056344406
0.0066354987
0.004171304
-9.134862E-4
-0.0058133584
-0.0066091414
-0.0030319614
-0.0015390748
-0.0017102902
-2.2911585E-4
-5.6220077E-5
-7.502813E-4
-1.1141296E-4
-0.0017562521
-0.0062577087
-0.007698058
-0.003837559
7.3357526E-4
0.0032737448
0.0046232245
0.0034204323
0.0021010183
0.003533477
0.0016609211
-0.003741475
-0.00571461
-0.0034018487
0.0011070404
0.004816025
0.005997321
0.005484495
0.004978773
0.004700869
0.001527051
-0.002112675
-0.003754956
-0.0056209904
-0.004198126
-8.699866E-4
1.13131455E-5
0.0011738957
0.0018698091
0.0012352759
-0.0011309059
-0.004875431
-0.005563628
-0.005409984
-0.0034214007
0.0029807352
0.005459205
0.0042583887
0.005042941
0.0050567645
0.0029586053
-9.052804E-4
-0.0049963254
-0.0058595785
-0.002691505
0.0013610813
0.0012517343
-0.0010534653
-7.8217196E-4
-5.7456502E-5
-5.9167057E-4
-0.001581237
-0.002373436
-5.6357385E-4
0.0038168293
0.0062596933
0.005953326
0.0073220674
0.008105873
0.003564139
-0.0019019557
-0.0061658733
-0.010715142
-0.010880905
-0.0057815854
-7.551392E-4
0.0016889051
0.0022348347
0.003195319
0.0046311193
0.0031860434
-0.0018302783
-0.0061310474
-0.005142441
-3.5324175E-4
0.0027164842
0.003379507
0.004013667
0.0034861986
0.0015575615
-3.6152863E-4
-0.0034107845
-0.0056448514
-0.0040363804
-6.53464E-4
0.0023555928
0.0029370147
0.0013135836
8.3577796E-4
9.282459E-4
4.674812E-4
-0.0031411021
-0.008466063
-0.005673871
0.0012238084
0.004455609
0.0070147733
0.0051967953
0.0019266062
0.003373643
3.7237484E-4
-0.005788575
-0.005908874
-0.002577252
0.0010883092
0.0028814087
0.0026836828
0.0043465556
0.006199755
0.004677987
6.17458E-5
-0.005672911
-0.0084820185
-0.0055932244
-1.4872765E-4
0.003836143
0.006114007
0.0069549577
0.006454538
0.004341076
-9.4872445E-4
-0.007889157
-0.01157431
-0.010756765
-0.008060538
-0.0030731389
0.0024010043
0.003805205
0.004776549
0.0055061416
0.001136628
-0.0041933637
-0.007225422
-0.005679208
0.0012700974
0.004640776
0.0040629883
0.0058165933
0.007038036
0.0058242613
0.0029777826
-0.0020691443
-0.0075423014
-0.008612417
-0.0034530335
0.0017093351
0.0031054304
0.0029674482
0.0022871068
0.0016179319
-0.0011263571
-0.0065646498
-0.009412157
-0.007873023
-0.0028992125
0.0039801765
0.0074816337
0.0068941005
0.0063400227
0.0052778693
0.001929584
-0.0011347884
-0.0019201417
-0.0010874291
0.0027123217
0.007455921
0.0067213364
0.003963241
0.0034855169
7.10574E-4
-0.002878437
-0.006963738
-0.0124927005
-0.009527723
-0.0015197884
-9.330341E-4
-0.0013258728
0.002405572
0.0034779524
9.680623E-5
-0.0053710183
-0.009781202
-0.010474512
-0.007710259
-0.0022726182
0.0036021268
0.0070624473
0.0076356013
0.0059010177
0.003377539
4.1534775E-4
-0.004129396
-0.006648417
-0.003162084
0.0042359238
0.010880632
0.011531457
0.0068179043
0.0030372208
0.0010274287
-0.0014725277
-0.0052980105
-0.0084265955
-0.005760752
0.0014916689
0.007070362
0.009504735
0.010817396
0.00979379
0.004772057
-0.0017695809
-0.009962508
-0.015813041
-0.011896099
-0.0049842475
2.7197905E-4
0.0057108104
0.0057811746
0.0034426227
0.0029220185
-8.878829E-4
-0.006696714
-0.010622177
-0.009009395
-0.0012906487
0.0036898928
0.0037188616
0.0040992685
0.004040709
0.0013885113
-0.0038212861
-0.011017283
-0.014606651
-0.009711559
-0.0010668151
0.006825249
0.012257981
0.011975539
0.009532984
0.00628949
-0.0027873996
-0.010879323
-0.011385962
-0.009987625
-0.005512305
0.003452458
0.008192714
0.010239949
0.01442535
0.012455813
0.003867495
-0.0020140486
-0.0043008747
-0.0035555838
0.0019339555
0.007529621
0.007980227
0.0063561173
0.0050941883
0.0021091
-0.0017863251
-0.007392498
-0.011913896
-0.008842384
-0.0018490897
0.0045289695
0.0044399295
-0.0038660115
-0.0065240357
-0.005634375
-0.010612709
-0.013756048
-0.014709408
-0.01318141
-0.0056079202
5.447544E-4
0.004636457
0.009499255
0.011557842
0.009611282
0.0046994835
-6.8739714E-4
-0.0040433053
-0.0038315908
-8.193455E-4
0.0027209022
0.0063761943
0.008461017
0.008660751
0.0076775053
0.0056170174
0.001692402
-0.005425392
-0.004781656
0.0057540694
0.008435836
0.005904651
0.0058391043
0.0014359785
-0.0018845592
-0.0052687023
-0.015561272
-0.019015193
-0.010044411
0.0017550417
0.011344916
0.015047792
0.014318227
0.012998095
0.0090927845
4.3108477E-4
-0.01100522
-0.016188666
-0.011546019
-0.0067215464
-0.0041240016
-1.4334141E-4
0.0011527621
-0.0031050972
-0.008401248
-0.010549626
-0.014473929
-0.020734271
-0.018359756
-0.0072183865
0.0046152067
0.011782036
0.009925941
0.0049742903
0.0027056502
-4.0501975E-5
-0.0035405078
-0.005744182
-0.0025600807
0.009226314
0.025155377
0.03836735
0.04333482
0.035776947
0.018088672
0.0023312718
-0.0063081095
-0.012141021
-0.011084094
-0.0049936986
-0.004620759
-0.009237685
-0.0141098
-0.014066782
-0.008645705
-0.008770702
-0.01610445
-0.021051172
-0.019126846
-0.012108493
-0.0040308973
0.0016465455
0.003858518
0.004456117
0.0046350397
0.0034689736
4.0652574E-4
-0.002532501
-0.0010424595
0.0049949028
0.011899491
0.014055101
0.009392835
0.006994761
0.008627742
0.006737072
0.0010321382
-0.007162111
-0.011669039
-0.0074359453
-0.0021359578
5.43559E-4
0.0022562954
0.0022491787
0.0018742292
0.002246664
0.0016246283
-0.002512164
-0.0067922655
-0.004426671
0.0015671871
0.0021192383
-0.0018207934
-7.985682E-4
0.005284967
0.0074337013
8.487431E-4
-0.008812463
-0.0086504705
5.421082E-4
0.0064617805
0.009320882
0.013163276
0.013127271
0.005923999
-0.0010686475
-0.0022361027
-0.0037889462
-0.0063974867
-0.0051685646
-0.0015370559
0.0020624774
0.002155051
4.24755E-4
8.176424E-4
-0.0030172528
-0.011280833
-0.015138251
-0.013260433
-0.0061888522
0.0030992688
0.004228652
-0.0029553084
-0.009453773
-0.013645457
-0.013515399
-0.009020565
-0.006344641
-0.0033617986
0.002377016
0.009227469
0.017159453
0.02003683
0.016809538
0.015391981
0.015584709
0.010581967
0.002728304
0.0017178993
0.002678558
2.4504628E-4
0.0029543152
0.004903706
8.583752E-4
9.688197E-4
0.001284466
-0.0057821684
-0.015332045
-0.01877373
-0.013097666
-0.007822775
-0.0065472447
-0.004210591
-0.0031167462
-0.0012297555
0.0028789192
5.38205E-4
-0.0044746716
-0.0029563522
-9.0018945E-4
-3.845714E-4
0.0042655086
0.011311572
0.016482344
0.017789425
0.015884664
0.008087167
-0.0064484305
-0.013102679
-0.0064328196
-7.4244506E-4
-0.001418429
-0.0020122165
-7.48563E-4
-0.0019910005
-0.005270606
-0.008694809
-0.012699974
-0.010741305
-0.0033624046
0.0015630237
0.005411148
0.0068460996
0.0040385327
0.002335443
0.001268113
-0.0026190202
-0.0065901373
-0.0070028845
-0.0029382159
0.0040942575
0.007107057
0.0055250493
0.0069329194
0.008005354
0.0061986246
0.0024187006
-0.0077888775
-0.016096037
-0.014581043
-0.009409573
-0.0046926183
-7.3402637E-4
0.0021822406
0.0027212885
0.0035428498
0.0051079392
0.0056314482
0.011399359
0.017547136
0.019206608
0.0204628
0.019479895
0.01910541
0.0072464505
-0.011036357
-0.003032134
0.0074942727
0.001559811
0.002915449
-0.0011270639
-0.013173584
-0.016598497
-0.020518294
-0.02417348
-0.022192966
-0.01855149
-0.016360488
-0.01698322
-0.014476415
-0.009103341
-0.004162948
0.0015478262
0.0040084575
0.004178274
0.0042420267
0.0013974594
-8.4466196E-4
0.0027672942
0.010767295
0.016942563
0.020553762
0.024169628
0.022841783
0.014952175
0.0045899823
-0.006007119
-0.012854821
-0.014390553
-0.010797419
-0.004036447
-5.0798355E-4
7.5811805E-4
0.0023308378
0.003102364
0.0024640705
-0.0061571626
-0.016104564
-0.011815534
3.1334028E-4
0.012125654
0.021832438
0.023986032
0.024344763
0.025646346
0.017827906
0.0048077544
-0.0044802753
-0.016548054
-0.02421668
-0.013634436
-0.0021102773
-0.004367766
-0.013296236
-0.018575506
-0.01937964
-0.03058028
-0.033341486
-0.015848948
-0.016001556
-0.010450758
0.021733586
0.02992983
0.024503801
0.029736444
0.017026013
-0.011948287
-0.025133155
-0.008705558
0.007327055
0.003686841
0.0051789056
0.009458764
0.008227027
0.009436558
0.005530706
0.0015134976
0.0016340867
-7.211029E-5
0.0026567413
0.007996664
0.007644236
0.0035979662
0.0036812609
0.0046140975
-0.0026775743
-0.010326849
-0.013380178
-0.014770088
-0.012796294
-0.008841011
8.4452295E-5
0.010245934
0.012307852
0.0113399215
0.008416841
-9.30673E-5
-0.012062516
-0.021354908
-0.018313378
-0.008279371
-0.0015106181
0.0024015035
0.0016606486
0.0014350172
0.0045977673
0.0019895586
-0.0010970377
0.0019709787
0.006103985
0.010745531
0.013529514
0.014487448
0.017526641
0.01910329
0.017549627
0.01226175
0.00445253
-0.002719804
-0.01580571
-0.031013511
-0.032301854
-0.021881096
-0.013217326
-0.00853134
-0.002833066
0.0014704493
-5.72461E-4
-0.0059085167
-0.0068133213
-5.56151E-4
0.0024141409
5.184046E-4
0.0038706264
0.0065434906
0.0044165365
0.0024231535
-2.4273498E-4
-8.053541E-4
0.0011973126
0.0023344657
0.0034179152
0.0074652866
0.014040893
0.01453871
0.008923562
0.0028300243
-0.0029950032
-0.003713772
-0.0032286427
-0.0042850506
-7.29645E-4
0.002454258
0.0029462804
0.0016795527
-0.0017270419
-0.0015072257
-4.2909398E-4
-8.3339505E-4
0.0027615197
0.008745082
0.010715026
0.007831075
0.0058351066
0.0028695182
-0.0018697731
-0.0020117876
-0.0075190626
-0.022898339
-0.02910546
-0.018463977
-0.0065950197
-0.0027966138
0.003845729
0.011561295
0.008594272
0.0016550676
-0.006329315
-0.012881431
-0.0077599254
0.0031411445
0.0118672615
0.019469276
0.023704713
0.018657992
0.006706274
-9.1803854E-4
-0.008858621
-0.019846387
-0.016924685
-0.0039604604
0.0019852656
0.002516463
0.003717545
0.00623948
0.0046894345
-0.0062371655
-0.018510794
-0.019298792
-0.010336945
-0.0034712483
-4.126019E-4
0.0029022724
0.0055338335
0.007840035
0.007773475
0.0021380498
-0.0017929178
0.0020119527
0.008828619
0.015517016
0.023120847
0.02709537
0.018687773
9.651386E-4
-0.010645162
-0.0128411595
-0.015673662
-0.018958226
-0.015070264
-0.004198735
0.0050717834
0.0030718162
-0.0051196404
-0.0056399726
-0.0035590187
-0.006901259
-0.0070121535
-0.005244586
-0.006404234
-0.0019735228
0.0051470613
0.0066784634
0.00341453
-0.0032485921
-0.006587179
-0.0030894843
8.792251E-4
0.0027180202
0.0058701127
0.013011807
0.020035952
0.01973316
0.010635847
0.0017796388
-5.1194977E-4
-0.004372364
-0.009730561
-0.0144381905
-0.021139372
-0.017760435
-0.0073048486
-0.001040722
0.0033925162
0.002846625
0.009164735
0.017094178
0.0032089169
-0.002676688
0.013693818
0.022842238
0.025086818
0.02340938
0.012295941
-0.0027192296
-0.0171432
-0.022476763
-0.020861374
-0.02079538
-0.016512936
-0.0076761073
-0.0033208777
-0.0060870363
-0.012085101
-0.017758887
-0.019340038
-0.014889154
-0.009557147
-0.0048774504
-7.125902E-4
-0.0027851723
-0.010395875
-0.016662274
-0.015047788
-0.003684364
0.010687825
0.023268675
0.034207877
0.043817226
0.05496084
0.06666843
0.06859852
0.054978956
0.03389362
0.013791275
-0.006207321
-0.026796771
-0.042733938
-0.048771117
-0.040446486
-0.019523619
-0.0021120477
-0.0011734979
-0.009505154
-0.011179371
-0.008666727
-0.020132003
-0.03700382
-0.041672543
-0.044587377
-0.047968272
-0.03798774
-0.012125868
0.015650578
0.026011774
0.01923745
0.005812442
-0.0014251259
0.0050570644
0.008328571
0.008654641
0.018960664
0.03310546
0.04599995
0.04297732
0.030222097
0.029576201
0.01957306
-0.0041648145
-0.018300084
-0.01961238
-0.007114637
0.005706671
0.008730318
0.009381391
0.0030809334
-0.0047339574
-0.007544831
-0.009422937
-0.002815486
0.00818373
0.008241655
-0.004027829
-0.016746018
-0.016888104
-0.009386857
-0.0059986142
-0.007796735
-0.012197892
-0.015067515
-0.014975454
-0.013477574
-0.008706201
-0.002500825
5.4100814E-4
0.0025316498
0.0036866385
3.1284368E-4
-0.0046176226
-0.008077996
-0.007953941
-0.0013089941
0.0052674087
0.007907822
0.01219828
0.016736032
0.013744502
0.0034902599
-0.0027793054
-4.4605372E-4
0.0047163544
0.008039993
0.0067078997
0.006425727
0.008844417
0.0061597433
0.0026158337
4.745428E-4
-0.0026993656
-0.002691469
-0.0011304123
0.002795292
0.008636257
0.009235301
0.004744403
-0.0031726013
-0.008965257
-0.008578406
-0.008292266
-0.008055544
-0.0031686993
0.0045164283
0.006183048
-2.0690414E-4
-0.0025841794
0.0014171309
0.0019353674
-0.0056997365
-0.015619625
-0.017066661
-0.011159779
-0.0053303167
-0.0017068349
0.0010900056
0.005443044
0.0074228947
0.0051278183
0.001602523
-0.0012782128
3.623688E-4
0.0038203853
0.00610639
0.0063241953
9.3540974E-4
-0.0015283183
-0.0012868189
-0.008861206
-0.015695602
-0.016131535
-0.00978674
0.0059205866
0.01637724
0.016709745
0.018986443
0.02215701
0.020754727
0.007651763
-0.01608764
-0.028104534
-0.023600318
-0.013410549
3.4009237E-4
0.0091197435
0.01251663
0.011858202
0.007687806
0.019864032
0.03209446
0.014920522
-0.0047221757
-0.008758586
-0.009825144
-0.007650536
5.5959093E-4
0.005334432
-0.00804119
-0.028052635
-0.031778537
-0.02373284
-0.01309375
-0.0037387803
0.0025255033
0.0050375173
6.0233165E-4
-0.0028765532
-0.0026545422
-0.002382035
-1.7454073E-5
0.0012204339
0.003846495
0.006940446
0.0061537544
0.007305239
0.0067752143
0.005083676
0.006649366
0.0047669006
0.0021443837
0.0012343593
0.0018884768
0.007719877
0.012459059
0.013860667
0.014234444
0.010697048
0.0050337035
4.9053796E-4
-0.0043689166
-0.012338616
-0.020092804
-0.02182378
-0.017264845
-0.007968653
-4.4899262E-4
0.0014188538
0.0039736796
0.006189389
0.0029489286
-0.002984573
-0.009058999
-0.009837932
-9.1294624E-4
0.008000941
0.011082192
0.012451053
0.010050494
0.0041710082
-0.0039510336
-0.013125521
-0.011946388
-0.0025305583
0.0033143663
0.007084808
0.008751942
0.008553582
0.0086999
0.0065663215
0.0038096185
6.82747E-4
-0.0037589415
-0.006347468
-0.0040772166
4.140106E-4
-0.0034442253
-0.010042472
-0.008139781
-0.008130602
-0.011403281
-0.008338982
-0.0013199202
0.006459297
0.013444064
0.018279526
0.020102724
0.016680034
0.003423946
-0.017008565
-0.025693078
-0.022079874
-0.021064904
-0.016414054
-0.0076916898
-0.0030318415
0.002561848
0.009929455
0.014313281
0.009341178
-0.0049244007
-0.012388575
-0.0052352035
0.0073496876
0.014692756
0.013697287
0.011236712
0.01014968
0.005618317
-4.77688E-4
0.0017930701
0.019855425
0.03594135
0.024753664
0.009130914
0.011520045
0.0030959372
-0.01752748
-0.022363363
-0.016096627
-0.008411478
-0.0013036537
-0.0023435447
-0.013100754
-0.02092782
-0.016114153
-0.009299332
-0.0012893672
0.008281512
0.009230446
0.005358479
-0.012581575
-0.028405484
-0.011578876
0.001327923
0.0011023907
0.0074956035
-0.0013689442
-0.012754715
-0.011755706
-0.008109813
0.0030024685
0.0054199314
-5.918171E-5
0.00543701
0.010752637
0.009630004
0.003958918
0.0014541085
0.0059137014
8.491966E-4
-0.0077993856
-0.005285447
0.0011866776
0.0077633183
0.013741304
0.016932212
0.020080963
0.023480779
0.02490443
0.021906076
0.0096461
-0.007273732
-0.016173264
-0.018348966
-0.015814926
-0.004633759
0.0033695188
-8.747996E-4
-0.007833645
-0.008019125
-0.0041814703
-0.0044595413
-0.005240693
-6.249817E-4
2.0708116E-4
-0.0088774115
-0.016261792
-0.016813349
-0.018450739
-0.017472284
-0.014802324
-0.016861113
-0.006871216
0.018813012
0.03705299
0.03897932
0.034737084
0.027699932
0.004859792
-0.024655446
-0.03433983
-0.028078752
-0.014541927
0.0024914667
0.010166425
0.01122031
0.012991893
0.0141905835
0.014703949
0.010272424
4.7161017E-4
-0.0072426605
-0.008152657
-0.0036390626
-0.001813969
-0.006969759
-0.010481819
-0.0072795385
-0.0031634667
-0.0024580765
-0.0036199838
-4.0855233E-4
0.005412044
0.006331904
0.0058330973
0.0049368595
0.00397233
0.004339982
-8.5304934E-4
-0.0040851585
-0.002305113
-0.004795231
-5.7836965E-4
0.010014393
0.010809901
0.0037371456
-0.0036189014
-0.008323308
-0.00860311
-0.0021264427
0.0026264174
-0.003492886
-0.007251849
-0.002875183
0.0031058441
0.008867958
0.011565004
0.016474528
0.018586392
0.0026444993
-0.021611044
-0.03312174
-0.028415658
-0.020105977
-0.010694177
0.0056030396
0.021077463
0.025444563
0.018630583
0.016616983
0.017871613
-6.0280133E-4
-0.0204295
-0.022300009
-0.019160595
-0.00796422
0.0044552786
0.005386313
0.003795037
-9.5936214E-4
-0.00762175
-0.00695379
-0.0019519684
0.0028993196
0.005446836
0.0037782067
-7.5951085E-4
-0.0041066883
-0.0036305615
-0.0029466033
-0.006718597
-0.011114507
-0.005550593
0.008619712
0.018000716
0.018942503
0.017254066
0.017014718
0.016174482
0.011168417
0.0046921414
6.6297775E-4
1.7003389E-4
9.477933E-4
0.0014487077
0.002960659
0.0019008839
-0.0025787128
-0.007802301
-0.015728256
-0.021347202
-0.018362196
-0.013346344
-0.01061187
-0.0054518264
-6.2113904E-5
0.0012838795
0.0023921044
2.5652087E-4
-0.0073615834
-0.009421633
-0.0029147516
0.0057120523
0.01187772
0.017328007
0.031823095
0.046758205
0.03847876
0.013248676
-0.0062477086
-0.026548687
-0.055540204
-0.06931508
-0.059952952
-0.044804424
-0.02674407
-0.01127565
-0.00463566
0.0037360184
0.014098662
0.018053493
0.017491883
0.020305969
0.02131165
0.00920814
0.0030729754
0.018107703
0.037792057
0.05208329
0.0553994
0.05269529
0.052837797
0.039980806
0.015725452
-3.003089E-4
0.0026504358
0.025257636
0.02827795
-0.007726661
-0.042308085
-0.06605634
-0.091307275
-0.09751311
-0.07486587
-0.042467736
-0.022778336
-0.021330124
-0.022450691
-0.01772333
-0.012929191
-0.0063283322
0.0038647116
0.011823023
0.018230898
0.024580183
0.027312307
0.028410131
0.030502789
0.031090382
0.02852013
0.024032103
0.019562742
0.01582465
0.014495983
0.015536415
0.01386627
0.009136623
0.0053757853
8.7025645E-4
-0.005990395
-0.012550889
-0.018194363
-0.020968964
-0.017514583
-0.011300731
-0.006062532
-0.0012019635
0.002848786
0.006126997
0.0061860997
0.0014125088
-0.002854574
-0.003328748
-4.0861938E-4
0.0032071173
0.0028508469
6.261876E-4
-0.002578417
-0.007480774
-0.0074078357
-0.0067223613
-0.009561555
-0.006570998
-0.0034278508
-0.0019546342
0.0061574024
0.0057678726
-0.00550068
-0.00748568
-0.0040875426
-0.006546206
-0.009387159
-0.008974333
-0.007348909
-0.0013158175
0.008371909
0.013215481
0.012762539
0.010884458
0.009498621
0.0070774215
6.4747786E-4
-0.003178738
-0.0023113734
-5.5282595E-5
0.0018528223
9.7032805E-4
0.0039784387
0.006228811
0.00310985
0.003054783
-2.3650801E-4
-0.0032211384
-9.015703E-4
0.002673151
0.01041032
0.00808986
0.0010814695
8.4831135E-4
-0.005280337
-0.0067794896
-0.0066476557
-0.009730622
-0.0077713495
-0.014210719
-0.009213002
0.0031520212
-0.0061202045
-0.0011934856
0.014511089
0.008964552
-7.6129293E-4
-0.0077426205
-0.0054616267
0.0053309235
0.00902871
0.011916835
0.013409322
0.008352248
8.772554E-4
-0.0071105873
-0.012540614
-0.012834722
-0.005160086
9.543508E-4
-6.929433E-4
0.0012601499
0.007439337
0.014272136
0.014020582
-8.6862384E-4
-0.0144122895
-0.016507871
-0.012511154
-0.006727806
-0.003360543
4.2867064E-4
0.0072786575
0.015797265
0.0208858
0.011965954
-0.0036607923
-0.00944265
-0.008687086
-0.006514389
-0.0018008996
-5.519112E-4
-2.0272737E-4
0.0060197865
0.008187006
1.0558425E-4
-0.006928095
-0.0030624778
0.004897553
0.00602063
0.0046093627
0.0042448333
6.6732534E-4
-0.0057840776
-0.01292606
-0.016660258
-0.015429899
-0.011121182
-0.003643007
0.004909936
0.012867797
0.01675118
0.012686788
0.0055419956
0.0011291684
-0.0018787615
-0.0072500147
-0.010932745
-0.009365074
-0.0057249665
-1.8438895E-4
0.0044581606
0.008016997
0.012079301
0.010662844
0.006892456
0.004417876
-1.3898948E-4
-0.0017825203
0.0011155254
0.0021523933
1.6872596E-4
-0.001338956
-0.0010786667
2.2311526E-5
-4.8051614E-4
-0.0029085542
-0.0024875468
-0.0015726733
1.6804102E-4
0.004861097
0.0025027758
6.773105E-4
0.0039862953
-2.896331E-4
-0.005939227
-0.009095202
-0.0066611576
1.0976378E-4
7.632188E-4
0.0043738335
-0.0025074806
-0.016322901
-0.0020656579
0.00867518
-0.0057683163
-0.016801402
-0.015263901
0.001078329
0.011788563
0.006291605
0.0057887626
0.006267583
0.005402286
0.0053339954
-4.189223E-4
-0.004007793
-0.0038794924
-0.0013053716
0.0025194292
0.0036370268
0.006640626
0.009669682
0.011522797
0.011967082
0.0057633924
-0.001989937
-0.0058446396
-0.004211955
7.865041E-4
0.0018126107
0.0014136599
0.003292573
0.0021377492
-0.0023287283
-0.0051638884
-0.0071439757
-0.008434605
-0.005564766
-6.907769E-4
0.002200835
0.0012687664
-6.6891825E-4
0.0012884925
0.0021072533
-0.0031769127
-0.010108803
-0.012731528
-0.009622083
-0.0037058622
0.0023235064
0.0042294366
0.0033614289
0.0044337
0.004587949
0.003265614
-2.5796468E-4
-0.0046582404
-0.0045946892
4.975848E-4
0.008944091
0.0057104747
-0.0056821504
0.0015149083
0.011708988
0.006411682
4.867761E-4
-0.00281458
-0.003325246
-4.3249098E-4
0.001059306
0.0027733652
0.004427084
0.0047380775
0.0029901476
-1.8135272E-5
-0.0017113085
-0.0034858754
-0.0039775185
-0.0016506069
0.0012970523
0.0031621554
0.004112533
0.0054646325
0.0046133692
6.8856095E-4
-0.004977878
-0.01167464
-0.013573
-0.009152415
-0.0037189475
-0.0011261792
-6.103089E-4
8.4031216E-4
0.0013578723
9.900775E-4
1.1338108E-4
-0.0021004914
-2.4543874E-4
0.004242775
0.007185514
0.0081929965
0.0051685846
0.003640551
0.004857661
0.0041989735
0.0026085163
-0.0026781268
-0.0074346303
-0.004875173
-0.0013198939
2.476003E-4
8.979408E-4
7.6654105E-4
0.0017314983
0.0016106187
1.6377491E-4
-0.0015873711
-0.005111504
-0.0060054925
-0.0020153157
0.0012482936
0.0028162138
0.0045973393
0.004167313
0.002250989
0.0011630749
-0.0017352531
-0.0045796223
-0.0034366436
-0.002425039
-0.0022479007
-5.801484E-4
-1.03054546E-4
7.888215E-4
0.0029485337
0.0033467885
0.0030868312
0.0012488144
2.3720894E-4
0.003815094
0.0035187004
-0.0011084483
-3.0572034E-4
0.0031538738
0.0047954163
0.00474494
0.0016362822
-0.0024293603
-0.006261458
-0.008433445
-0.0061768335
-0.0038565882
-0.0038182433
-0.0025222243
-1.6267129E-4
9.471873E-4
-3.5796073E-4
-0.0021705609
-0.0026661428
-0.003107333
-0.0022505275
-9.962368E-4
-0.0011183472
0.0011641865
0.0051767947
0.0075134262
0.0073732473
0.0027394302
-0.0035364921
-0.006477089
-0.005519873
-0.0014828086
0.0015177398
6.667593E-4
2.4350254E-4
0.0027992593
0.0047705825
0.0021763458
-0.004034128
-0.007377551
-0.005116284
-0.0028695157
-0.002546442
1.4162896E-4
0.0047527407
0.008811836
0.0113894725
0.009121354
0.0030101791
2.8320804E-4
0.0017992135
0.0026698338
0.0034223793
0.0051282207
0.004995925
0.0038097582
0.0023470817
-0.0033290677
-0.0130434185
-0.017882288
-0.014126989
-0.011190301
-0.010994725
-0.0073937364
-0.0032728722
5.7144556E-4
0.004735664
0.004419795
5.5010495E-4
-0.002961103
-0.0037864766
-0.0031354125
-0.0019527253
0.0036252365
0.009523438
0.011219956
0.011317194
0.0076980293
6.3521037E-4
-0.004686552
-0.004609591
-0.0010797745
-3.6475205E-4
0.0015794444
0.00822172
0.013974581
0.017130848
0.013224167
0.0036128038
-0.0011281053
-0.0032193903
-0.005021739
-0.0019214498
0.0010662337
7.314853E-4
0.0018876552
0.003268471
-4.069718E-4
-0.008284868
-0.013577961
-0.012954246
-0.011332448
-0.011796322
-0.01070973
-0.005281386
0.0033950957
0.008420341
0.0036013303
-0.005362136
-0.010555474
-0.0104864035
-0.006751602
-0.001811533
0.0045731007
0.011076556
0.015160976
0.016818853
0.012315255
0.0029634044
-0.0027417461
-0.0045030736
-0.004769106
-0.0026686094
0.0011188928
0.006296822
0.012222895
0.014381833
0.0076753525
-0.0031934322
-0.009484064
-0.012469532
-0.013291544
-0.010379946
-0.006554912
-0.0016810069
0.0029246097
0.003772181
0.0020114179
-0.0031334094
-0.008086762
-0.0060289414
-0.0014374654
0.0012717902
0.0039795865
0.007939574
0.014833735
0.019381335
0.014832481
0.0066414634
4.6613882E-4
-0.0029418278
-0.0019476506
0.0010520514
0.0025504401
0.00387624
0.0077073695
0.009854361
0.002704456
-0.008324266
-0.013838725
-0.014839057
-0.01407932
-0.013692488
-0.012283245
-0.006506887
3.6125304E-4
0.0034612876
-2.8574019E-4
-0.0059693176
-0.0065914127
-0.005505935
-0.0025150327
0.002712693
0.0055094752
0.00937346
0.014928248
0.016958911
0.012340656