-0.0019942264
-0.0029738585
-0.0055625266
-0.0046723275
-0.0012566876
7.7211694E-4
0.0018204793
0.0014173897
1.5867178E-4
-0.0014243635
-0.0030665342
-0.0047330186
-0.007969844
-0.006656213
6.3815695E-4
0.0058124606
0.008161732
0.0080785705
0.006612245
0.005888368
0.003516344
4.349623E-4
-0.0024993839
-0.003057042
7.66842E-4
0.003228761
0.002697144
6.691443E-5
-0.0035022574
-0.0043502515
-0.005031685
-0.0067009507
-0.0072216787
-0.006270678
-0.0023642152
0.002909483
0.006467687
0.006418516
0.0027972448
-5.420284E-4
-0.002555692
-0.004699063
-0.0054422594
-0.0032503805
8.8544504E-4
0.0055513997
0.009538456
0.010692934
0.00860663
0.0044778357
-1.9631784E-4
-0.0047201803
-0.009696253
-0.011309034
-0.0065971026
9.0747676E-4
0.0061062826
0.0049473383
0.001237058
-3.998671E-4
-0.003629194
-0.008256839
-0.010096974
-0.008607132
-0.004795241
-4.401954E-4
0.0020941808
0.004224851
0.008748571
0.009764144
0.0061870194
0.005174243
0.003947624
0.0047760066
0.011209424
0.012018623
0.006304671
0.002248687
-0.0010045175
-0.005138785
-0.008324409
-0.010107919
-0.011213115
-0.009382246
-0.005233606
-0.0019798495
-5.835629E-5
-6.117742E-4
-0.0016065963
-0.0022174658
-0.0036851922
-0.005881103
-0.010550514
-0.010470625
-0.0029102643
0.00335354
0.0069582374
0.008584311
0.011427562
0.014346403
0.012771251
0.009006387
-0.0020332031
-0.0080051245
0.0054539978
0.014949896
0.011991549
0.009069737
0.0056349854
1.7700913E-5
-0.0076603573
-0.013877161
-0.01828293
-0.018569173
-0.009085148
-9.4824674E-4
5.1817007E-4
-3.5714873E-4
-0.0039984747
-0.005432479
-0.00496565
-0.005929034
-0.008028315
-0.008445149
-0.0015113499
0.006464941
0.0101397205
0.012294118
0.01167965
0.00970323
0.007160044
0.0038801148
-4.849202E-5
-0.0033736194
-7.182921E-4
0.005067512
0.009491836
0.011151756
0.008353688
0.004996341
3.4714182E-4
-0.005167565
-0.007771491
-0.011045578
-0.012376986
-0.009446512
-0.0070151705
-0.0043290565
-0.001694249
-0.001296292
-0.0011457438
-4.9861905E-4
-0.0012432651
-0.001267598
0.0019093865
0.0049376613
0.007322817
0.0076387348
0.0037104737
0.0010411865
-0.0011332444
-0.0037625742
-0.0030194072
-0.0026448276
-6.6220213E-4
0.005086098
0.008688789
0.009873544
0.00908607
0.008466996
0.008394138
0.001902683
-0.006592283
-0.008818581
-0.0059797503
-0.0010747716
1.5731508E-4
-0.0028425567
-0.0058168517
-0.00932562
-0.01195712
-0.013690653
-0.015157554
-0.012368743
-0.006615579
1.5165383E-4
0.0059604435
0.0060966476
0.0048637995
0.005270032
0.0038064297
1.457664E-4
-0.0060076346
-0.00879123
-0.0023403782
0.0072698924
0.015117847
0.020198649
0.022559233
0.023278497
0.021821963
0.020226806
0.015382726
0.0051491256
9.577908E-4
0.0015812521
-0.007194526
-0.02006939
-0.024507934
-0.022143718
-0.01741662
-0.013531211
-0.013969195
-0.012674563
-0.003963302
0.0048168045
0.007586006
0.0063280137
0.0037321406
-2.3911236E-4
-0.0059450446
-0.010619397
-0.01411973
-0.015025671
-0.007998314
0.002089303
0.007305488
0.0080270115
0.007279411
0.0068477625
0.0044364957
0.0016856606
0.0023661216
0.0015270816
0.0019245273
0.0094343675
0.012667809
0.0073352642
0.005604526
0.007595412
0.0055988687
0.0017407611
-0.00158505
-0.0023096243
0.0044944794
0.013142325
0.016376127
0.017157685
0.014887502
0.008942534
0.0033936382
-0.0051036887
-0.016176766
-0.020204263
-0.017289378
-0.014601508
-0.014891749
-0.016973644
-0.018704655
-0.021295993
-0.021909619
-0.01781498
-0.015805628
-0.014284668
-0.008575158
-0.002000407
0.0063539925
0.012841446
0.016144337
0.021156508
0.020793442
0.015694868
0.012661785
0.010641341
0.015607325
0.025473734
0.030891517
0.03014032
0.021580787
0.011273181
0.0031851882
-0.0047843116
-0.009637466
-0.014570191
-0.018794296
-0.019138796
-0.021708177
-0.023696903
-0.021720042
-0.017538842
-0.010306726
-0.004214577
-6.29841E-7
0.0038335186
0.0074309516
0.013802244
0.017630579
0.015494798
0.011454738
0.0056521893
-1.4989906E-4
-0.0052172337
-0.01071014
-0.0142969
-0.015056006
-0.013871804
-0.0130707035
-0.011277858
-0.007217852
-0.006887852
-0.009974271
-0.014588446
-0.021032168
-0.021401789
-0.013204472
-0.0015522579
0.0066436976
0.006739622
0.0073281345
0.011280072
0.014320022
0.022531664
0.035326097
0.047237027
0.056862216
0.0581581
0.05130679
0.0446525
0.042563286
0.039811306
0.025695208
-8.6494855E-4
-0.032642033
-0.057821915
-0.06313741
-0.054386653
-0.047868002
-0.04531527
-0.041015655
-0.034924835
-0.030510997
-0.027178936
-0.02348721
-0.021367988
-0.015402183
-0.0015426693
0.010161955
0.01536612
0.017089644
0.014012424
0.010298921
0.009304661
0.008685638
0.0101206275
0.014984572
0.023857556
0.032000463
0.032279115
0.03098712
0.029917527
0.020248126
-0.0012308471
-0.03234534
-0.054143146
-0.047214672
-0.022575622
-9.6344063E-4
0.0072277505
0.0033736634
-0.002693985
-0.0040175
-0.001528304
-0.0010584546
0.003100155
0.01691207
0.029600121
0.037739675
0.03951305
0.03110614
0.026772108
0.033126492
0.035282694
0.022358537
0.0040225917
-0.008693234
-0.023704825
-0.040667232
-0.0498244
-0.046397302
-0.026148258
-0.010006896
-0.016050957
-0.027715707
-0.035234556
-0.03351068
-0.019652393
-0.009994062
-0.009532522
-0.011850626
-0.015495587
-0.016721448
-0.015819611
-0.013481662
-0.0047224625
0.008646814
0.01874282
0.02531068
0.030832818
0.03231487
0.030658236
0.02713177
0.020354964
0.016120072
0.017859062
0.024493424
0.036331102
0.045518212
0.043263324
0.030319724
0.009033209
-0.012775394
-0.021226423
-0.017159957
-0.012337305
-0.0099227
-0.010227168
-0.013517622
-0.016496263
-0.017414086
-0.01606475
-0.015253356
-0.018724248
-0.02620846
-0.033188134
-0.03055382
-0.018701106
-0.009216712
-0.004316987
2.802795E-4
0.0039710505
0.0058861505
0.0056994306
5.8911066E-4
-0.0055906135
-0.0013860705
0.011796708
0.021658055
0.024286877
0.022729583
0.019990085
0.015735298
0.009746152
0.003758549
-0.0026374368
-0.0077086054
-0.0118183615
-0.014764432
-0.010089668
-0.0028879056
-4.5074124E-4
0.0011518435
-9.959209E-4
-0.0072172163
-0.008595322
-0.0048282165
0.0017900456
0.008446063
0.010654474
0.012008478
0.0142613035
0.01335806
0.009886039
0.00565735
0.001827353
9.6575666E-4
0.0016760079
0.0024130023
0.0064319996
0.01011341
0.0057380036
-0.0012311733
-0.0033694345
-0.0070073167
-0.017974837
-0.02672172
-0.021667993
-0.010559486
-0.007381948
-0.008995257
-0.0071968073
-0.004803151
-0.006621335
-0.00980784
-0.0100076115
-0.0034605425
0.010939939
0.022790877
0.024500113
0.018287914
0.007936248
0.0028805656
0.002300516
-0.0023498293
-0.007924737
-0.011561675
-0.009713405
-0.002399779
0.0031274226
0.0057580476
0.0065596043
0.008373948
0.0033521224
-0.009570652
-0.012232673
-0.013237775
-0.012277027
0.0031374544
0.008615618
0.004141515
0.0023386187
-0.0016176432
0.0037499582
0.008226044
0.0065143215
0.0155794555
0.026454955
0.032033164
0.025580714
0.0110848965
0.010909055
0.01029596
-0.0035177672
-0.020779412
-0.038611587
-0.040054865
-0.023865262
-0.01073153
-0.0039058945
-0.0011310123
-0.0017265765
-0.0034729703
-0.0058600996
-0.009507815
-0.014091868
-0.014498454
-0.009185346
-8.865131E-4
0.005623599
0.0060830927
0.005644381
0.0072698356
0.007215985
0.0038418837
-0.0014997006
-0.0022459363
0.0058965827
0.017816756
0.024311021
0.022777526
0.017612772
0.009439155
-4.1610905E-4
-0.009110065
-0.015162945
-0.01495085
-0.009577897
-0.0026023057
0.0015779017
0.0028171127
0.00677936
0.006631848
0.0022911096
7.484371E-4
-0.006414856
-0.012115914
-0.0060748686
0.0020183986
0.0077437996
0.0076955934
0.0032925203
8.5948355E-4
-0.0030340452
-0.0077128955
-0.012531161
-0.015021425
-0.008179551
1.3456367E-4
0.0027670974
0.0029384491
0.0029516022
0.0030353984
9.5085887E-4
-0.0034497706
-0.009563886
-0.011611309
-0.0037484344
0.0055728457
0.010979643
0.013674416
0.012022237
0.007098564
8.475234E-4
-0.00381855
-0.0064647594
-0.006918917
-0.0016964297
0.0056905616
0.009920442
0.009282346
0.006064105
0.004607347
0.002443232
-0.0025078487
-0.008802574
-0.011106211
-0.0044426136
0.0033312459
0.0064831963
0.0063585187
0.0035729732
0.0015632553
-7.7764265E-4
-0.0054013967
-0.01073665
-0.013484362
-0.0073544006
0.0026824477
0.00629873
0.00446332
0.0025820448
0.0029839396
0.0025028526
-0.00230022
-0.009424374
-0.012306423
-0.006917413
0.00103558
0.006813631
0.009977537
0.009328749
0.006508687
0.0025967364
-0.0020503327
-0.0074771163
-0.011553173
-0.0072562676
0.0021066049
0.0075777033
0.008879997
0.007301384
0.0051547876
0.0032702042
-0.001935622
-0.0079928655
-0.008482432
-0.0024025617
0.0060200254
0.009866441
0.0065610884
0.0020708984
6.142748E-4
-1.9568882E-4
-0.0033849527
-0.009093367
-0.0128501095
-0.010104653
-0.0022631334
0.0025918009
0.0016163639
0.0026047684
0.0030013747
-0.0021219337
-0.0053927437
-0.0072230273
-0.0071272138
0.0012261766
0.0119064925
0.018194858
0.016642751
0.007577859
6.3087867E-4
-0.0017879619
-0.0043920083
-0.0069678654
-0.0064268466
-8.949918E-4
0.0061105043
0.009097267
0.0071296343
0.0030380986
-0.0011586511
-0.0064275838
-0.012954182
-0.018937334
-0.020559898
-0.013063569
-9.747783E-4
0.006072497
0.008806979
0.009032399
0.0056089433
0.0030840777
4.1670626E-4
-0.004155023
-0.006387366
-0.0054564276
0.002253864
0.010909992
0.010195191
0.0084472895
0.009079813
0.008164375
0.004674913
-0.0029674536
-0.0071253106
-0.0049659894
0.001044492
0.0066532893
0.006061001
0.0042418535
-0.004062713
-0.011527547
-0.003967919
-0.0063694785
-0.017271847
-0.014751308
-0.0077150622
0.0041168667
0.01234616
0.009413056
0.008858557
0.0059535555
2.8771115E-4
-0.0052691326
-0.0112694865
-0.005882181
0.003613093
0.007395599
0.0072442507
0.0025106065
3.3590924E-5
-1.0250817E-4
-6.5159495E-4
-0.0031074053
-0.009558137
-0.009163363
-0.0030154882
3.387676E-4
0.005560642
0.01120838
0.012852857
0.010599627
0.003913318
-0.006214851
-0.012674391
-0.009081871
-0.0012885506
0.00610926
0.010223729
0.008159664
0.006570684
0.00449315
-0.0010349196
-0.0069079665
-0.012793327
-0.013011151
-0.0081943115
-0.0047413963
-0.0032767118
-0.004056108
-0.0036859296
-0.0036547922
-0.0051331073
-0.0063997656
-0.009187277
-0.0037846405
0.006316171
0.010561158
0.015300427
0.009959659
-2.0010021E-4
0.008361575
0.015853848
0.009263095
0.0052210675
0.0043757423
0.0043917727
0.0039587496
3.5808477E-4
-0.0010855406
6.5090624E-4
0.0015565173
-0.002804354
-0.010265847
-0.011279422
-0.006432965
-9.789198E-4
0.005037494
0.009762266
0.010911213
0.007520324
7.41749E-4
-0.0064354674
-0.013144733
-0.016418492
-0.013918837
-0.008733779
-0.0038809674
-0.0018104675
-0.0018750181
-0.0019518941
-0.0045987125
-0.009336526
-0.013076452
-0.013477528
-0.0073208916
0.0013707456
0.008197769
0.013239541
0.013264451
0.010695875
0.011785059
0.013509381
0.0095822895
0.0035810638
0.0048665972
0.010585957
0.011638239
0.008738761
0.0058938633
0.0039337715
0.0017378125
-9.798553E-4
-0.004816832
-0.011002772
-0.015208657
-0.015406317
-0.014464295
-0.011823899
-0.0089300545
-0.0080353785
-0.00873426
-0.011662474
-0.0152355535
-0.014876038
-0.006782097
0.00588684
0.015263006
0.019922376
0.021342965
0.019956937
0.01845224
0.016728692
0.012690303
0.008658168
0.008178804
0.010197636
0.00994863
0.004928103
-0.0027983726
-0.010495318
-0.014297851
-0.011709672
-0.008803267
-0.009235935
-0.008459413
-0.004963855
-6.9906167E-4
-9.636553E-4
-0.006255713
-0.008613375
-0.009983466
-0.014598522
-0.020635072
-0.025898194
-0.021585343
-0.010635599
-0.0049300184
-0.0012042485
0.0036941415
0.008463046
0.011400183
0.0110017145
0.010397202
0.007444284
0.0061807786
0.013152406
0.018482693
0.016963968
0.012721783
0.010482111
0.012167444
0.011492682
0.009674873
0.009897147
0.010047217
0.013121607
0.0145275695
0.005872539
-0.009871498
-0.025177602
-0.038061023
-0.048698843
-0.045399904
-0.025265224
-0.0077750296
-4.1846876E-4
0.0022765521
8.6110365E-4
2.6250986E-4
0.0064207553
0.014080484
0.013928061
0.0041792938
-0.008750138
-0.013366379
-0.0057304045
0.005693363
0.0150504
0.020794135
0.026196955
0.035299707
0.04234582
0.042539623
0.035727683
0.03118432
0.03482221
0.030077921
0.017729493
0.008288183
-0.007584697
-0.025541397
-0.039930195
-0.055260416
-0.06819833
-0.07705089
-0.07682092
-0.06857648
-0.059798915
-0.05103814
-0.04609587
-0.03782819
-0.02335844
-0.015728265
-0.010045606
-0.0036558239
0.0027184845
0.022740826
0.04654708
0.05738069
0.06592064
0.08366179
0.10775283
0.121502616
0.11428898
0.100344114
0.083285995
0.05865486
0.035966408
0.0063073453
-0.035681438
-0.075604334
-0.10999084
-0.12591656
-0.12424279
-0.12511468
-0.11389548
-0.07731307
-0.020303266
0.043564778
0.079663076
0.08327871
0.076242976
0.064198606
0.046730474
0.030771976
0.029570822
0.02791105
0.013696305
0.012197991
0.012521264
-0.011576876
-0.04788063
-0.07473472
-0.07423292
-0.05690225
-0.045629792
-0.04296907
-0.05115974
-0.06502254
-0.08159237
-0.10900097
-0.13695298
-0.1391742
-0.09269189
-0.0017577196
0.1027743
0.19210467
0.24575105
0.25975
0.24647005
0.21701442
0.17708163
0.12484835
0.05138527
-0.032552093
-0.08312059
-0.08627401
-0.085722685
-0.10702655
-0.12738283
-0.1221634
-0.09834326
-0.07675876
-0.0649063
-0.06794481
-0.084724374
-0.10387725
-0.122092076
-0.12742677
-0.086515576
0.0110972235
0.115516596
0.17731288
0.19513042
0.18095747
0.16497323
0.15503228
0.11431019
0.051630847
-0.021131258
-0.11244324
-0.16147408
-0.11834575
-0.019727666
0.06562726
0.090831205
0.06838012
0.019138508
-0.040666353
-0.060714107
-0.05117485
-0.0806149
-0.14311355
-0.18535635
-0.18174428
-0.13565095
-0.07132443
0.0029796748
0.085423306
0.14260998
0.15279934
0.1269163
0.08415752
0.04720866
0.016753446
-0.031174174
-0.09458151
-0.12498666
-0.08760209
-0.015839698
0.049660675
0.10840397
0.14933407
0.15690915
0.15189129
0.1502754
0.13571334
0.102845095
0.06264374
0.016155176
-0.036102433
-0.094058745
-0.14044327
-0.13972887
-0.10490812
-0.07407861
-0.054783184
-0.05068974
-0.060840935
-0.08551313
-0.12214973
-0.1322234
-0.101412706
-0.06376604
-0.03403446
-0.0059279557
0.017669508
0.031046558
0.038321897
0.047433373
0.059385955
0.071506955
0.07695117
0.07313405
0.06880501
0.06915238
0.07105052
0.06771737
0.056308776
0.04050537
0.021540308
8.8427216E-4
-0.01892767
-0.0359691
-0.044098873
-0.040376242
-0.029910816
-0.019771205
-0.012870511
-0.0075483574
-0.003863551
-0.0022073684
-0.0018621908
-0.0027998881
-5.6317134E-4
0.008002666
0.01715675
0.02072098
0.017454375
0.008359352
-0.0044481144
-0.017491596
-0.028563738
-0.037162367
-0.0406198
-0.037298914
-0.028462214
-0.017192576
-0.008876368
-0.0037978184
9.3330615E-5
0.0011962672
9.3468145E-5
-0.0021644891
-0.0014410479
0.006648594
0.016838046
0.025679221
0.031921767
0.031150734
0.023090873
0.009920189
-6.2900566E-4
-0.004202054
-0.0061734575
-0.002360249
0.006900675
0.00863012
0.005031816
0.002667361
-0.0014067804
-0.004678648
-0.007001048
-0.012431003
-0.012019289
-8.3608914E-4
0.010610624
0.017251367
0.015266235
0.0038546205
-0.0048121368
-0.007570647
-0.0074816407
-0.0068335426
-0.009464052
-0.005619919
0.0033822143
0.004921217
0.0063411733
0.008305332
0.005616369
0.0037409312
-4.884849E-4
-0.0069834413
-0.010722071
-0.0129715605
-0.009938718
-0.0028719255
0.0010633107
0.0036154373
0.004615446
3.2831487E-4
-0.0054482687
-0.009081252
-0.010222345
-0.005999042
0.0030344443
0.010695906
0.01276559
0.013132513
0.015856778
0.015434608
0.010446094
0.0032830867
-0.0057265256
-0.0074957795
-0.0021072687
7.606785E-4
0.0032318428
0.0053698686
0.0056960317
0.006050479
0.0035804203
-0.0011978557
-0.008302964
-0.017658211
-0.021856233
-0.017291352
-0.009138291
-0.004656388
-0.003986596
-0.004274451
-0.00652653
-0.0090068765
-0.008536413
-0.0032447672
0.005645422
0.013571045
0.017810913
0.017032988
0.013470555
0.007088612
-0.002916496
-0.009039291
-0.010979042
-0.010729627
-0.0036268558
0.0060504866
0.014012794
0.019930044
0.021146035
0.017339014
0.0040144906
-0.016594844
-0.027393576
-0.021195073
-0.0065702116
0.005953972
0.010668472
0.010218287
0.007820492
0.0037438122
3.9094215E-4
-0.003493511
-0.008729706
-0.009350233
-0.0038256256
0.0034044855
0.006888266
0.005568252
0.0037099803
4.7792937E-4
-0.004396636
-0.010697428
-0.01855413
-0.015590241
-0.0010757386
0.007973619
0.009253462
0.00850516
0.0057977745
0.0015732008
-0.0019191088
-0.0048353206
-0.008949976
-0.008806712
-0.0023878636
0.0029990198
0.0050815456
0.0049690637
0.0049673403
0.0060490863
0.003367863
-0.0026219531
-0.0046740347
-8.308441E-4
0.0034260275
0.006974058
0.010614068
0.009845718
0.007923765
0.0072572003
0.0025304917
-0.0026726949
-0.004892388
-0.0037592773
0.003876626
0.011553261
0.0102027645
0.0021355106
-0.0057431017
-0.011880737
-0.017269129
-0.02118178
-0.023761733
-0.02200512
-0.014155802
-0.0055560707
0.0020624204
0.006909127
0.0054859538
0.0022881918
-0.0019049398
-0.009435635
-0.01326702
-0.009523916
0.0012216775
0.018541686
0.031103376
0.033528816
0.035624597
0.033864375
0.01872328
-3.4246224E-4
-0.009204443
-0.0048750243
0.008866711
0.024760406
0.027847776
0.0085570635
-0.018384505
-0.034214504
-0.03769704
-0.035120282
-0.031456243
-0.026326187
-0.015603332
-0.0033091202
0.0013364083
8.745621E-4
0.002401618
0.0017385791
-0.003678793
-0.009740774
-0.012419559
-0.0056884293
0.0073622535
0.017751003
0.023479685
0.022890003
0.017723553
0.011973095
0.0056701847
6.881459E-4
-0.002025821
-2.9280488E-4
0.008025919
0.014464653
0.012916885
0.007587681
0.001233835
-0.0044974918
-0.0074934233
-0.010638405
-0.015764667
-0.015946943
-0.00718798
0.0023791923
0.006373118
0.006804902
0.0048245834
7.5235637E-4
-0.0044145547
-0.0112446835
-0.017147915
-0.017217217
-0.01110145
-0.0031781215
0.0010603832
0.0013102365
0.0021779307
0.0031017424
-7.781677E-5
-0.005859527
-0.009888625
-0.009198225
-0.0018774146
0.008207093
0.014656467
0.018580418
0.022758812
0.025906594
0.024841856
0.01528038
0.0019410149
-0.0061370954
-0.0070264074
-3.048933E-4
0.00504702
2.1601835E-4
-0.0066764066
-0.01191378
-0.0136781875
-0.010265212
-0.01221073
-0.013855948
-0.0049311724
0.004555418
0.010238544
0.0108003495
0.0039236713
-0.0047547035
-0.014389855
-0.022519581
-0.024271099
-0.021066913
-0.012493115
2.2762889E-4
0.011235438
0.015654186
0.013851388
0.008807496
5.642134E-4
-0.0062039187
-0.0070792926
-0.001792485
0.010331284
0.020335095
0.022677358
0.020013236
0.009885924
-0.001487082
-0.00836551
-0.012619677
-0.008405771
0.0024045028
0.012554302
0.021441584
0.02286082
0.01623031
0.011575907
0.008444678
-0.002062645
-0.019019496
-0.030727623
-0.029274924
-0.019378087
-0.010947837
-0.00649634
-0.003215035
-0.0015729088
-0.0015650217
-0.003120562
-0.00794045
-0.011838927
-0.011010107
-0.007212744
5.423043E-5
0.0076375017
0.009454721
0.009889746
0.012211922
0.009628324
9.651151E-4
-0.0067499257
-0.006562828
0.0014462135
0.009397592
0.014097854
0.0148965055
0.009341244
0.00357007
0.0019184776
-0.0016945071
-0.0074073537
-0.008925258
-0.0047354377
0.0026398299
0.00723375
0.0062401816
0.0054741856
0.004337599
-0.0016190727
-0.0077948305
-0.011379719
-0.009787879
-0.002369979
0.0020398733
0.003688094
0.006329113
0.0060508605
0.0035431741
-6.21394E-4
-0.0060727354
-0.009203472
-0.009722073
-0.007950399
-0.0048965258
-0.0025816215
-0.0019465038
-0.0015621774
3.2069083E-4
2.694482E-4
-0.0028924947
-0.0062138573
-0.00675287
-7.934753E-4
0.007911021
0.013205417
0.0155487275
0.015585449
0.01473199
0.013719835
0.006772716
-0.0070432113
-0.015173159
-0.011846816
-0.0065857153
-0.0034481143
-8.5098937E-4
0.0012472484
0.0026412
8.041791E-4
-0.0022629306
-0.0052580475
-0.007093031
-0.0025579336
0.001712349
0.002704361
0.00531064
0.003984506
0.0016765974
0.0014484191
-0.0041554123
-0.009765778
-0.010873666
-0.009667855
-0.003706599
0.0016032418
0.0019921507
0.0038691736
0.008786619
0.012396522
0.011673091
0.005833654
-0.0020421403
-0.008075617
-0.009320356
-0.0033228514
0.004140365
0.0053581665
0.0036534746
0.0015865796
-0.0025468983
-0.006350417
-0.008066799
-0.004134042
0.0066964296
0.016141186
0.01985281
0.01773309
0.008902987
-0.0023166847
-0.011909572
-0.018451145
-0.020584887
-0.017252194
-0.008240137
3.465423E-4
0.004349081
0.0055676103
0.0027968122
-0.0010436289
-0.003600104
-0.0076257265
-0.008251191
-0.0035403275
0.0014186297
0.0044776304
0.0036129574
0.002155021
0.004908624
0.007493165
0.0053516864
0.0022939886
0.0029078342
0.0025624556
7.4081554E-4
0.0041032536
0.008019688
0.007667944
0.0048490474
-1.15794945E-4
-0.0038940315
-0.0071358024
-0.010583499
-0.008188773
-0.0012149243
0.0024386072
4.499729E-4
-0.0017771728
-0.0018562258
-0.0028110866
-0.0038394507
-0.0055407234
-0.0069179
-0.002576382
0.004220647
0.008099179
0.009838011
0.010250366
0.008010925
0.0031101748
-0.0018307951
-0.006940804
-0.01083611
-0.008530946
-0.002115423
0.001268763
-2.0739596E-4
-0.0014015542
-6.781607E-4
-4.924697E-4
-1.6824133E-4
-0.0019910792
-0.003544669
4.8230626E-4
0.003772186
0.004096909
0.0048618857
0.005546365
0.0061207046
0.003861534
-6.313492E-4
-0.0042019454
-0.0074086683
-0.0063675675
5.137251E-4
0.0058845296
0.0058611166
0.005238266
0.005458456
0.003101123
-0.0011168611
-0.0071874545
-0.011912652
-0.010018062
-0.0030483436
0.005124865
0.0024393129
-0.007544503
-0.0032616141
0.0038174868
4.2210316E-4
-9.854949E-4
-0.0021946204
-0.0028501856
0.0039592916
0.0076504513
0.005212324
0.00511795
0.004973521
0.0021288244
-7.735286E-5
-0.0045632515
-0.00817302
-0.0027816535
0.0032838979
0.0052017686
0.007098952
0.005571193
0.0021220937
-5.810925E-4
-0.0039267163
-0.007534832
-0.011051155
-0.008789047
-6.1048305E-4
0.0052609383
0.0060898135
0.0032003957
0.0015931297
0.0016439809
-0.0011609904
-0.005765925
-0.009483329
-0.0063212514
0.0021390377
0.0059556887
0.0071585504
0.007865479
0.005840536
0.0030941009
-8.369292E-4
-0.0054135513
-0.009361508
-0.009667522
-0.0037363176
-1.4308731E-4
-0.0012251498
1.933842E-4
0.0020644325
0.0020723743
0.0014075171
-7.755769E-4
-0.0019423048
-7.948923E-4
0.0016810686
0.00609755
0.008504824
0.0071911984
0.006598081
0.0051276274
0.0016519882
-8.1901316E-4
-0.0044239643
-0.0070361174
-0.0034220412
0.0023437461
0.0050987434
0.002830555
-0.002143943
-0.0030704222
-0.003222696
-0.007826359
-0.010458215
-0.008499035
-0.00421846
0.0025050207
0.00655582
0.0057447786
0.0043566967
0.0010617295
-0.0042743986
-0.0072755734
-0.008200429
-0.006547947
-3.046626E-4
0.006236327
0.008578354
0.008405564
0.008271819
0.00660494
0.0015201718
-0.004285996
-0.008231892
-0.009076129
-0.0038403037
0.0033542006
0.0053944387
0.0065903463
0.008357128
0.0049299253
-1.6166396E-4
-0.0039234105
-0.007135076
-0.0052429126
3.7103074E-4
0.004735689
0.007123653
0.0051035713
0.0012118471
9.222018E-5
-0.0019854233
-0.0060427864
-0.008182794
-0.0073011545
-0.00302281
0.0020576096
0.0042459043
0.0045647584
0.0035865146
5.5056333E-4
-0.0037041137
-0.00794496
-0.010235938
-0.009420157
-0.0043952838
0.0026231124
0.004445854
0.0032101213
0.004532523
0.0046735024
0.003732675
0.0014441495
-0.00416714
-0.0034938632
0.003610572
0.007541911
0.009480249
0.0076125907
0.0025051634
0.0011037363
-0.0022457659
-0.007871385
-0.0073722275
-0.004386595
-0.0011323136
0.0033985497
0.0039735707
0.0017120087
0.0014679488
0.001526505
-0.0011320654
-0.0062051127
-0.009800706
-0.007998559
-0.0014737215
0.0050857095
0.007845038
0.0060750623
0.0016957682
-3.9623052E-4
-4.127424E-4
-0.0038059396
-0.008231929
-0.008358445
-0.0030979703
0.004506094
0.0068867817
0.005289453
0.0060365917
0.0049839467
2.029836E-4
-0.004559563
-0.0084638335
-0.0075545735
-9.8493E-4
0.0046803253
0.007020695
0.0071032303
0.005910554
0.004071905
4.738575E-4
-0.0030369142
-0.0055880956
-0.007241348
-0.0036089232
0.0020434097
0.0042378404
0.0046736593
0.0029127165
0.0018307903
9.2211174E-4
-0.0052939714
-0.0101224715
-0.008820989
-0.004000495
5.700936E-4
3.6838307E-4
0.0016249991
0.006390353
0.008558692
0.0064513534
-0.0012981364
-0.006528378
-0.004807081
-0.0012154913
0.0022646761
-0.00340647
-0.008315372
0.0017446469
0.00726117
0.003626687
1.2037646E-4
-0.0055152345
-0.005058519
0.0013712938
0.0057772202
0.007911062
0.0061022383
0.0037660487
0.0013951911
-0.0026145645
-0.0049976697
-0.007435368
-0.008005893
-0.0045203185
-2.564625E-4
0.002955415
0.0028414126
0.0023709352
0.0035109003
0.0027891262
4.307251E-4
-0.004053137
-0.0066419505
-0.002636498
0.0020398244
0.005662108
0.008322746
0.005448001
0.0011846885
-9.565493E-4
-0.004080944
-0.006730466
-0.0070355
-0.0025904821
0.0050380295
0.006712946
0.00592413
0.0058025504
4.2485457E-4
-0.0025950612
-0.0034904142
-0.0075196787
-0.0056974664
-7.732894E-4
0.0043400005
0.0070115295
-0.0020140803
-0.006732397
-1.6690019E-5
0.0013867484
-0.0024675736
-0.0061114123
-0.0059821373
-0.0015482472
9.186021E-4
0.0026519157
0.0037756648
0.0038978497
0.0036075113
3.7571267E-4
-0.0027861644
-0.0061648227
-0.007120757
-7.177635E-4
0.0044718944
0.005679724
0.006430478
0.00580229
0.004497182
0.0024280485
5.31903E-4
-0.0025299778
-0.004984193
-0.001865852
7.709713E-4
0.001542166
0.0027501115
0.0014596158
0.0012047526
1.9728798E-4
-0.0043214653
-0.0069384445
-0.006695223
-0.0024059678
0.0039141676
0.006363238
0.006519588
0.0059101135
0.004745211
0.0028622984
-0.002234829
-0.008055408
-0.010313662
-0.008843451
-0.004786638
7.0489774E-4
0.0049270187
0.0056646625
0.0043872357
0.0025246295
-0.0011310844
-0.0076611806
-0.011913671
-0.006546102
0.0018930722
0.0041294917
0.004917039
0.0067997063
0.005594332
0.0018773251
-0.0018700736
-0.004263738
-0.005016449
-0.0036464063
0.0011324442
0.0055208555
0.005648033
0.0042793965
0.003944843
0.0031790254
-1.3274167E-4
-0.0047014165
-0.0072269537
-0.0053486656
0.0012635867
0.006815756
0.007861613
0.0076740924
0.005738782
0.0013683252
-0.005023755
-0.011499851
-0.012417289
-0.008117306
3.523446E-4
0.008686955
0.007650294
0.003212032
0.0017089612
-5.084891E-4
-0.002845475
-0.0076304628
-0.011874733
-0.007206915
-9.014143E-4