-0.003432309
-0.0043471027
-0.0041064154
-0.0048569497
-0.005802781
-0.0040348093
-2.8034934E-4
0.0018691611
0.00141956
-0.0019307531
-0.005045626
-0.0046856264
-0.0041618035
-0.004801334
-0.0040403297
-0.0023061729
3.9228995E-4
0.0034521066
0.002639291
-3.8734538E-4
-0.0010680311
-9.205071E-4
-6.462046E-4
-4.5333605E-4
-1.6008828E-4
0.003944508
0.008578323
0.00867155
0.005805666
7.538986E-4
-0.0051299725
-0.007471623
-0.004713873
-0.0020654632
-0.0015665616
0.0019978157
0.0056808614
0.006745498
0.0071374066
0.0026050212
-0.002449914
-0.00216183
-0.0018024645
-0.002767562
-0.0020487155
0.0018560173
0.004790872
0.0054926174
0.0056734127
-7.758707E-4
-0.007492814
-0.008599404
-0.008861455
-0.0031706055
-0.0015044208
-0.007069848
-2.724151E-4
0.009309014
0.00857212
0.004035845
-0.0043547326
-0.011935439
-0.011485798
-0.0047789994
0.0018246905
0.0043280493
0.0060461247
0.008857965
0.009515892
0.004209157
-0.001960684
-0.0030354792
-0.0028079844
-0.0010113027
2.4975167E-4
0.0011574624
0.005543306
0.0027680558
-0.0025648861
0.0015610075
0.0025488313
-0.0065577086
-0.011755399
-0.002827943
0.0035458854
0.0016559324
0.0082541155
0.0065672714
-0.0060159643
-0.004573229
-0.0025334503
-0.0056105517
-0.003319052
-0.0020519057
4.440559E-4
0.0034673878
0.0049702623
0.007681241
0.0049243523
-3.9556358E-4
-0.002144978
-0.0019109519
-5.325523E-4
-0.0014245532
-0.0036007222
-0.002276216
0.0027207716
0.007094038
0.005700544
5.896019E-4
-0.0033542428
-0.005101353
-0.004967434
-0.003836044
-0.0028677261
-0.0012120903
0.0033170637
0.007169513
0.0059376466
0.0016083139
-0.0027262403
-0.004174176
-0.0030587916
-0.0029588917
-0.0033187454
-0.0011753798
0.0030439568
0.005481297
0.0043016556
6.084465E-4
-0.0032852187
-0.0047356426
-0.0047323136
-0.0039076307
-0.0019476137
5.103E-4
0.0044096536
0.006775747
0.0058562933
0.0037518693
-4.8350954E-5
-0.0025388943
-0.0022421104
-0.0029883704
-0.004398773
-0.002679393
0.0022723323
0.005858955
0.0058995425
0.0024628455
-0.0028030367
-0.004928352
-0.0044559916
-0.003840527
-0.0032325273
-0.0011939917
0.0037958063
0.006422025
0.0061207884
0.0040612137
-0.0010425457
-0.002469569
-0.0020907102
-0.0026332801
-0.0011016399
4.7795931E-4
0.0063399114
0.009642549
0.0055207065
0.0021573163
-0.0093619395
-0.016925193
-0.0056042317
-0.0011469611
-0.005188314
-7.3268375E-4
0.005215571
0.006529525
0.003529382
-4.5418696E-4
-0.0023148933
-0.002314719
-0.0014732291
-0.0032264746
-0.004178324
-0.0010273752
0.003577985
0.00760474
0.0069689467
0.0029881664
-3.0518265E-4
-0.002929026
-0.0041955267
-0.0039216555
-0.0019438348
3.9470606E-4
0.002937137
0.005512283
0.0045535904
0.0018872297
-0.0010932015
-0.0039082365
-0.0032846485
-0.0023217509
-0.0030152954
-0.0018321103
0.0037766523
0.008402633
0.0052498714
8.635611E-4
-0.0021379024
-0.0060425918
-0.0063577723
-0.005188725
-0.0035958465
-6.400581E-4
0.0017761132
0.0053102826
0.00558976
0.0018211679
-8.17725E-4
-0.002441191
-0.0018145526
-0.002149147
-0.0037380722
-7.9645275E-4
0.0020643498
0.0030447892
0.0041404683
0.002207173
-4.5002543E-4
-0.0020017966
-0.0031718689
-0.0013165063
0.001668918
0.0028336893
0.00484071
0.0063490584
0.0039476757
5.9977785E-4
-0.0020984362
-0.0039571174
-0.0035483101
-0.0040814495
-0.005606568
-0.0039069396
7.256751E-4
0.005326887
0.004797813
-5.7134475E-4
-0.0039624446
-0.005423188
-0.0061781113
-0.0047603715
-0.0031816273
-3.5824193E-4
0.0044766204
0.006577866
0.0057064174
0.00447459
0.001559659
-0.0023139787
-0.0035442242
-0.0027595316
-0.0019849457
6.755104E-4
0.0053629642
0.009098247
0.009222622
0.0037724944
-0.00263127
-0.0049726013
-0.005872848
-0.005470459
-0.0038349158
-0.0020878876
0.0017570261
0.0035596483
0.002602294
0.002543868
-1.813637E-4
-0.0033433514
-0.0034459361
-0.0030959896
-0.0022481591
-0.001466908
0.0011363593
0.0058923946
0.0072815414
0.004175764
-0.0015071945
-0.0049731038
-0.0050347676
-0.0054196147
-0.0036418715
-6.7216856E-4
0.0016760468
0.0056358324
0.007089679
0.0037968995
-0.0017017203
-0.005383335
-0.0053636595
-0.005160089
-0.003978008
-0.0019777855
3.4160144E-4
0.0064799916
0.010619212
0.0072256243
4.963178E-4
-0.0041269055
-0.0044588726
-0.0028646898
-8.0826867E-4
4.4348376E-4
0.0023807234
0.0064395303
0.005769024
0.0024283545
0.0015435137
-0.0014477647
-0.0043703555
-0.004720515
-0.0045686723
-0.0030733554
5.038952E-4
0.004833002
0.0041479194
1.3446993E-4
-0.0017845641
-0.005228647
-0.0069039892
-0.004529768
-0.0034192116
-0.0016004493
7.168021E-4
0.002907138
0.005946012
0.0049810065
0.0016964341
-8.918503E-4
-0.0038970183
-0.0039817393
-0.002607911
-0.0020167918
0.0022108075
0.0076290406
0.008091733
0.0041186674
-8.259599E-4
-0.003086131
-0.002944992
-0.0033742008
-0.003222276
-0.001100432
0.0022969032
0.005828928
0.0073268325
0.0055400347
0.0011269093
-0.0017098923
-0.0015614877
-0.0035047252
-0.0052470583
-0.002602213
-4.4634722E-5
0.0022112043
0.005079722
0.0037131044
-0.0010241366
-0.004435546
-0.006468285
-0.007195587
-0.004969817
-0.002137581
-2.5518588E-4
0.0033178057
0.0049498207
0.0015489613
-0.0010033498
-0.0019614226
-0.0036710645
-0.0029052184
-8.7212946E-4
-0.0010365624
4.9409876E-4
0.005529379
0.007659091
0.004763018
0.0015888786
-0.0011794736
-0.0038296573
-0.0032180299
-3.408389E-4
9.844239E-4
9.7583415E-4
0.0031386155
0.006919143
0.005452496
-5.685249E-5
-0.0013440585
-8.6031685E-4
-0.0026753875
-0.0041948208
-0.004349001
-0.0011901167
0.004390617
0.0064980923
0.003509312
-0.001960218
-0.0056606606
-0.006393853
-0.005756534
-0.0028201009
5.5172807E-4
0.0022544635
0.0033226698
0.0034198693
0.0025314612
-1.7947512E-5
-0.0028879459
-0.003522012
-0.0045716055
-0.0051606847
-0.0023377796
8.6284213E-4
0.0026279849
0.002743843
7.447666E-4
-0.0018679819
-0.003976665
-0.0045731086
-0.0042259456
-0.0046177823
-0.0034300315
0.0010997325
0.0065941233
0.010002005
0.008963215
0.0051626065
0.0018541886
-8.983114E-5
0.0011239162
0.002719982
3.8085209E-4
-3.0841288E-4
0.004097653
0.0077515
0.0069499617
0.0032627962
-5.27207E-4
-0.0031007081
-0.0029900766
-0.0012354918
-2.2820814E-4
0.0033365977
0.007842134
0.0074901027
0.0044478634
4.107671E-4
-0.0037262999
-0.005930116
-0.0074027856
-0.0072340416
-0.0056114546
-0.0037397416
7.397563E-5
0.0026866996
-1.27823105E-5
-0.004317557
-0.006235706
-0.008363385
-0.010951747
-0.010491082
-0.008962928
-0.0075212037
-0.0047488846
-0.0026414013
-0.0031096565
-0.006600185
-0.008674153
-0.006374738
-0.004598699
-0.0045036543
-0.0030369067
0.00385265
0.014996895
0.02119655
0.02269221
0.022276273
0.019127522
0.018910298
0.018649312
0.013345134
0.009426953
0.0072013084
0.0045028557
0.0038297356
0.0034116874
0.0023994928
0.0029099588
0.0047950363
0.007160673
0.006496376
-5.8438024E-4
-0.008669443
-0.012864701
-0.017844647
-0.026903503
-0.036261976
-0.03913854
-0.033335492
-0.024608053
-0.01711899
-0.01066242
-0.0044564665
0.001633571
0.0052709673
0.004980329
0.0034397459
0.0041395836
0.006091967
0.007474253
0.00917395
0.009676604
0.010762298
0.01521748
0.018712042
0.019672954
0.017840365
0.013725327
0.010557522
0.0074611674
0.006290511
0.004602957
-0.0014025075
-0.0027191131
2.1615974E-4
6.285858E-5
-0.0021354163
-0.006299917
-0.009046393
-0.009798462
-0.010365345
-0.0068328544
-0.0021754378
0.0010302439
0.004150974
0.0050382847
0.0038982383
0.0013041227
-1.6806267E-4
1.7959093E-4
-0.0014884295
-0.002015654
0.0010304357
0.0035085916
0.0014585516
-0.0035751162
-0.0065963166
-0.009621103
-0.012285695
-0.011741443
-0.012215308
-0.011972055
-0.00906714
-0.0065520974
-0.004551744
-0.00518314
-0.006854131
-0.0076498776
-0.00925846
-0.006831762
-8.220547E-4
0.0033431023
0.009360078
0.018331824
0.025164973
0.028872749
0.028657679
0.023259027
0.017503709
0.014527756
0.010874194
0.005568795
9.746563E-4
-0.0012618289
-0.0015552101
-0.0017356934
-0.0017057098
-0.0011684814
5.587744E-4
0.002993586
1.1240077E-4
-0.009476788
-0.017444141
-0.017991927
-0.014328236
-0.014142746
-0.020770997
-0.026527887
-0.02392539
-0.019080693
-0.015380103
-0.008339773
-0.002131688
0.0023176412
0.007000429
0.0060217855
0.0027694113
0.0017173847
0.0020955952
0.0075340862
0.010941142
0.007889214
0.008254274
0.012255151
0.016769893
0.02186846
0.022341596
0.018280745
0.014339109
0.011508457
0.010244492
0.009755997
0.009155782
0.009670501
0.008342518
5.236897E-4
-0.0103523
-0.01774849
-0.01968274
-0.01986542
-0.022302477
-0.021753335
-0.014087415
-0.0057359017
-7.5633015E-4
0.0018260673
0.0019885793
2.0688563E-5
-0.002547406
-0.005134745
-0.0068469876
-0.004485739
7.021861E-4
0.0043597487
0.0063000415
0.006656502
0.0044146017
6.202463E-4
-4.6886614E-4
1.6433635E-4
-0.00481331
-0.012541116
-0.015961122
-0.013864335
-0.006618948
-2.5836244E-4
0.0020405005
0.0031238284
0.003425063
0.0039117867
0.004306361
0.005167237
0.0066060573
0.0069904546
0.008534742
0.008657324
0.007965155
0.010686224
0.011439849
0.0120317815
0.014640093
0.014836571
0.016807664
0.021218441
0.025694981
0.027257068
0.018607367
0.0018678281
-0.016980978
-0.030159717
-0.031620342
-0.028044788
-0.024262907
-0.021752736
-0.020378875
-0.019669697
-0.025199564
-0.030432262
-0.030347742
-0.033814985
-0.03419467
-0.022808181
-0.008078661
0.0013210884
0.0055933963
0.010413993
0.014569347
0.015272961
0.017742356
0.022901352
0.027574707
0.032101482
0.038276248
0.044496316
0.049018294
0.052678205
0.04885789
0.035957944
0.022268986
0.007088555
-0.008639891
-0.019774292
-0.02443701
-0.021385375
-0.020206163
-0.025233855
-0.02728537
-0.026950048
-0.027314905
-0.026581042
-0.026606
-0.028774867
-0.030385107
-0.029123096
-0.028834691
-0.030065568
-0.025913967
-0.016718669
-0.008033416
-2.3496599E-4
0.008343963
0.014468477
0.01676852
0.02234625
0.030085048
0.03086136
0.02509857
0.015702037
0.0020407285
-0.012069896
-0.017793003
-0.009089496
0.009172014
0.024330663
0.033999115
0.044455968
0.048360262
0.040180758
0.026463583
0.010663639
0.004511403
0.0056021987
-7.8883815E-5
0.0013300148
0.0016868879
-0.016339762
-0.0284835
-0.030568304
-0.030089118
-0.018544314
-0.009837598
-0.0100114085
-0.009350731
-0.010711485
-0.013219675
-0.0142961545
-0.015294432
-0.014659848
-0.0107174935
-0.0043206685
5.897153E-4
0.0038641712
0.0076740617
0.0115552265
0.015522587
0.01653732
0.010504706
7.593129E-5
-0.009641704
-0.01618892
-0.017717736
-0.020637432
-0.031514887
-0.037508104
-0.03158348
-0.022087244
-0.012535508
-0.008302147
-0.005816152
0.0023900068
0.008474806
0.012620002
0.018452544
0.024439909
0.032408524
0.03607807
0.03541738
0.037827604
0.042176485
0.048828907
0.05662985
0.060671892
0.0570724
0.04595457
0.0304208
0.008242474
-0.013462366
-0.027558032
-0.041884195
-0.053663243
-0.05734535
-0.05323095
-0.04017342
-0.027591333
-0.0205452
-0.017325891
-0.022682857
-0.03355461
-0.03766787
-0.028342089
-0.013327794
-0.001225283
0.008427819
0.012071242
0.009876728
0.008252019
0.0051024198
-0.005716761
-0.021226423
-0.031221041
-0.035403907
-0.032242622
-0.01623775
7.1388436E-4
0.012334164
0.02039585
0.022396078
0.028612847
0.04314745
0.05810753
0.06538528
0.06007665
0.0546335
0.050407574
0.0376982
0.026519448
0.017503984
0.004720525
-0.008453066
-0.02526287
-0.034938548
-0.028742086
-0.02651834
-0.031096607
-0.03309362
-0.04023456
-0.05024301
-0.060447693
-0.0688852
-0.06434176
-0.057781663
-0.050675955
-0.03296108
-0.018557196
7.703899E-4
0.030643344
0.050483912
0.06629018
0.08363444
0.09963325
0.11688666
0.12231245
0.10703256
0.07808098
0.05280836
0.029657187
-0.009248465
-0.049817804
-0.078851104
-0.08962142
-0.08260226
-0.091373846
-0.10116339
-0.07862947
-0.052297104
-0.037510194
-0.02434929
-0.013674367
-0.005931164
-4.6732667E-4
0.0075358967
0.015279897
0.017413829
0.016286071
0.01519045
0.016793773
0.013164508
0.0045615155
-0.0030317032
-0.013811892
-0.01920991
-0.015608858
-0.008435475
0.0013268996
0.0077751516
0.01815018
0.03288406
0.040176168
0.044781953
0.042924058
0.032937694
0.023139631
0.008114889
-7.482403E-4
0.006207004
0.013538081
0.026555475
0.051326748
0.07185012
0.077795185
0.05835952
0.016895475
-0.02000186
-0.034094926
-0.026032964
-0.021607732
-0.036454562
-0.04989502
-0.050347578
-0.039336544
-0.031645577
-0.044507135
-0.05974039
-0.06751361
-0.07422813
-0.08064169
-0.09310666
-0.08860267
-0.052877177
-0.017723626
0.014505315
0.07387639
0.14590466
0.17380789
0.15958023
0.13598824
0.07891616
0.00852435
-0.04074331
-0.10647374
-0.16786687
-0.17345998
-0.13708599
-0.0842188
-0.028727546
0.025922177
0.054366957
0.050788935
0.05622329
0.054349177
0.049040787
0.08283292
0.11224097
0.10676768
0.08573002
0.065949574
0.061144263
0.04247775
0.0044736923
-0.04779414
-0.13111
-0.17886627
-0.13108401
-0.029651966
0.052630886
0.09344848
0.1403218
0.16152298
0.08772798
-0.039352387
-0.16860683
-0.24276416
-0.23850209
-0.22889079
-0.20505506
-0.13788797
-0.08683774
-0.05097707
0.013547231
0.07884198
0.09298767
0.0927412
0.13091177
0.17262442
0.21461126
0.2523392
0.2256878
0.16023876
0.098900415
0.03513882
-0.03287714
-0.105068564
-0.14380743
-0.15491687
-0.16853516
-0.12377853
-0.04295618
0.0019155658
0.061768755
0.12653144
0.12666337
0.09526955
0.054575745
-0.01587229
-0.10259861
-0.18557698
-0.2245165
-0.1914111
-0.12512438
-0.04125998
0.053919926
0.106326886
0.13641304
0.19314174
0.20839351
0.13279833
0.029094921
-0.042888768
-0.07443319
-0.0944887
-0.11804477
-0.11041749
-0.08200256
-0.08082504
-0.09058694
-0.08058293
-0.05117472
-0.01734375
0.0123601
0.054211933
0.07882406
0.06312273
0.05993523
0.05921078
0.03689069
0.040422134
0.061328802
0.073639035
0.079230994
0.056797
0.029639674
0.03803788
0.05798511
0.062362093
0.06168111
0.05121322
0.021897506
0.013794161
0.021662798
-0.01862443
-0.09018826
-0.14906001
-0.17434886
-0.13892622
-0.0867545
-0.05966524
-0.030092737
-0.006883241
-0.009756149
-0.025224421
-0.036185175
-0.02811756
-0.017566765
-0.013647443
-0.0017048233
0.01118148
0.026922049
0.042444978
0.05272015
0.063959576
0.03754553
-0.005368785
-0.006096734
-0.014857426
-0.014015024
0.051142003
0.08244251
0.05098629
0.032316115
0.022811754
0.011278542
0.0052745277
-0.0011064281
-0.00491896
-0.006478989
-0.0013391663
0.006464291
0.008486926
0.011336175
0.0131087415
0.013255401
0.01389862
0.015455435
0.023254283
0.030437881
0.03206493
0.028442118
0.015473344
-7.3955907E-4
-0.013986539
-0.02520568
-0.031022822
-0.026715774
-0.01885849
-0.015666766
-0.013067995
-0.01036417
-0.0100160185
-0.012273679
-0.014511994
-0.008745613
-0.0031843528
-0.004068374
-8.709E-4
0.004673496
0.0068815746
0.0027910962
-0.006742484
-0.014696804
-0.022889381
-0.029814042
-0.031466138
-0.03087759
-0.028706418
-0.024531659
-0.018157072
-0.015171212
-0.01926651
-0.025271263
-0.029488964
-0.027811652
-0.022686895
-0.016648695
-0.006332365
0.0055740676
0.020497844
0.03309301
0.035302043
0.037365064
0.04437535
0.05407572
0.06705105
0.082768425
0.094370246
0.08557148
0.06053554
0.036721162
0.015429316
4.538758E-4
-0.0032563126
5.7108694E-4
0.008377496
0.017638434
0.023535578
0.015559926
-0.0063853418
-0.03133184
-0.055331267
-0.07474713
-0.08552887
-0.0885901
-0.0856807
-0.07711256
-0.06357277
-0.04828653
-0.033332087
-0.022746002
-0.018412393
-0.016065054
-0.014367546
-0.01076826
-0.004137642
0.0034298955
0.011512004
0.019774541
0.030501379
0.03674222
0.03400544
0.029896151
0.02318737
0.019067936
0.020156037
0.019664772
0.025347248
0.03039797
0.02808109
0.03193135
0.03357528
0.024307184
0.015333329
0.009768512
0.0039161537
-0.0011782248
5.1793654E-4
0.0068997466
0.0100663975
0.011577376
0.012693713
0.0059942342
-0.009425441
-0.018144378
-0.01670539
-0.017908221
-0.019419609
-0.01748441
-0.015490721
-0.013114101
-0.014015243
-0.018897468
-0.023607492
-0.024727397
-0.02303018
-0.021669032
-0.017371537
-0.011415445
-0.004779676
0.0026640305
0.0020222415
-0.002829996
-0.004654737
-0.0057064956
-0.0036732368
6.873825E-4
0.0061360793
0.011852403
0.015838262
0.019761927
0.019219924
0.014171871
0.010160435
0.0072759087
0.0064730486
0.005962067
0.006131915
0.008346662
0.009642832
0.011802508
0.010201848
0.001538721
-0.0043069115
-0.0048798705
-0.00324523
-9.776477E-4
1.7206284E-4
0.003798193
0.00985952
0.0127267055
0.0112590045
0.0070926375
0.002209597
-0.0010783944
-0.0028261503
-0.0027872238
-5.8399385E-4
0.0018346099
0.0064508854
0.01133019
0.007887193
-1.5369636E-5
-0.0044970466
-0.006725323
-0.006659178
-0.003776047
5.056728E-4
0.0054867375
0.009800781
0.011429994
0.009145691
0.0047803493
3.8169906E-4
-0.0022747696
-0.0020906315
-0.0016626844
-4.1223047E-4
0.0038557851
0.009056226
0.012246232
0.0095274085
8.9023926E-4
-0.0066863
-0.008810032
-0.0077364063
-0.005985541
-0.0033922659
6.955411E-4
0.0066366345
0.010209556
0.0072942246
0.0024253605
-7.5152697E-4
-0.00275122
-0.0041517927
-0.004821534
-0.0028213141
6.3246506E-4
0.0066431025
0.013404957
0.010065491
8.513923E-4
-0.0034612096
-0.0053165047
-0.0058054808
-0.005045856
-0.0041009975
-3.8882278E-4
0.005192757
0.008808332
0.007117694
0.0012200966
-0.0035057236
-0.0053936187
-0.0057176957
-0.005820741
-0.0058736904
-0.00270529
0.0045570945
0.008930989
0.0052821883
-0.0011274669
-0.00567739
-0.008390727
-0.0077683604
-0.0047741453
-0.0019504669
0.0014390203
0.0061881617
0.010344016
0.010547774
0.005230247
-0.0019676497
-0.004752713
-0.0039130454
-0.0041385205
-0.0035556557
3.8320138E-4
0.0059729964
0.009611903
0.007833705
0.0012576749
-0.006226467
-0.010069797
-0.009410148
-0.0070729493
-0.004638509
-0.0026434409
0.0019056848
0.0077061616
0.006003115
-0.0012594735
-0.0061167213
-0.0076072295
-0.0071696923
-0.006900703
-0.00625108
-0.0018361452
0.0063190046
0.012429024
0.010897301
0.004466907
-0.0021295587
-0.006596457
-0.007149448
-0.0049703005
-0.0012561105
0.0032037557
0.0077500544
0.01197243
0.012086618
0.0058405343
-0.0023516575
-0.006707075
-0.007991633
-0.008386601
-0.0065664593
-0.002940189
0.0042580785
0.011930958
0.01110573
0.0035174165
-0.0058369176
-0.011006964
-0.009441558
-0.00846309
-0.005403263
3.9920094E-4
0.0027980327
0.0062100366
0.0072042323
0.0012367859
-0.0044302335
-0.0062770178
-0.005272234
-0.0056316415
-0.006788791
-0.0028631997
0.004956551
0.010914404
0.00943119
0.0032029818
-0.0037622484
-0.010419688
-0.010524916
-0.008098828
-0.0066217217
-7.1745126E-5
0.0064936597
0.010047919
0.01131388
0.006653087
7.6706405E-5
-0.0037087211
-0.0051030386
-0.00560748
-0.0041935295
6.005312E-5
0.0050093704
0.011063398
0.012135586
0.004456488
-0.0031411296
-0.0077639073
-0.008287396
-0.0054135667
-0.004844137
-0.0029679532
0.003228828
0.00879411
0.008547508
0.003307222
-0.0023672574
-0.007081643
-0.007000865
-0.00516943
-0.0068146056
-0.0037325365
0.0048345127
0.010898717
0.009814894
0.0020619265
-0.005707225
-0.011177526
-0.010457397
-0.00549122
-0.0065977457
-0.0059634787
0.0023050066
0.009133988
0.010780041
0.005934658
-0.0012255188
-0.0046688286
-0.0061014798
-0.006623574
-0.0057525677
-0.002353187
0.004328186
0.011024319
0.012146226
0.005751517
-0.002333231
-0.0067815753
-0.007935217
-0.007444842
-0.0050302865
1.9910253E-4
0.005487542
0.009101774
0.011071643
0.008180719
6.374996E-4
-0.0052140304
-0.006346991
-0.00659093
-0.0066955662
-0.003358343
0.0033562235
0.010408095
0.011351941
0.005092253
-0.002047963
-0.007802523
-0.010857214
-0.010661754
-0.0071138786
-7.395398E-4
0.0039302595
0.008148288
0.010011398
0.0049795164
-4.7701062E-4
-0.0044394904
-0.0068446645
-0.00633712
-0.0067445845
-0.0043996344
0.0026285283
0.009595378
0.011732919
0.0049950154
-0.0029091106
-0.0064401743
-0.008553238
-0.007653418
-0.0061370097
-0.0038016331
0.0032227547
0.009995996
0.012436043
0.008545881
4.7986626E-4
-0.003347493
-0.0040953723
-0.006239063
-0.0071136686
-0.0048901043
0.0019698446
0.009859829
0.010679857
0.0067759855
2.162174E-4
-0.008939776
-0.011744609
-0.008618837
-0.0052994397
-0.0014480512
0.0014849006
0.00717904
0.012255205
0.0077715903
5.33477E-4
-0.0048484467
-0.0072899726
-0.0050093215
-0.0052993204
-0.0052901492
0.001947614
0.009612513
0.011115373
0.00616561
-0.0017811378
-0.008075376
-0.009861237
-0.008192219
-0.0063783475
-0.0035653266
0.0016316621
0.008136025
0.011176209
0.0068644374
0.0010407465
-0.0024762275
-0.003782057
-0.0033288468
-0.0049373177
-0.0041593574
0.0020261926
0.008148698
0.011602307
0.007794778
-0.0011153583
-0.0076416302
-0.011275612
-0.0093707945
-0.004782184
-0.0024163225
0.0018332859
0.0071153753
0.010892734
0.009958261
0.0019215001
-0.0041689873
-0.0058664954
-0.007514558
-0.0071550356
-0.0045485795
0.0011310428
0.008596527
0.011401468
0.0070863306
-0.0016128893
-0.008058509
-0.010396857
-0.01064267
-0.0077211536
-0.0044221273
2.7267195E-4
0.007978658
0.010922654
0.008418995
0.0036530169
-0.0023845872
-0.0045827255
-0.004688422
-0.0050769537
-0.0021101492
0.0029387122
0.008504141
0.012003683
0.008178598
-2.8918252E-5
-0.0069314656
-0.010576695
-0.009084309
-0.0053598755
-0.0036765921
1.0775456E-4
0.007281477
0.011103542
0.009261784
0.0025932088
-0.0045874184
-0.0060410406
-0.0064588734
-0.008489921
-0.005970441
4.6451046E-4
0.008329523
0.013083009
0.007880397
-5.90859E-4
-0.005930498
-0.010973659
-0.011592842
-0.006929246
-0.0029283445
0.0019816165
0.007943393
0.011430253
0.010778469
0.003965726
-0.003138755
-0.0054805484
-0.0069702533
-0.006693498
-0.0047244173
-6.8922044E-4
0.008883266
0.014096105
0.009264952
7.57964E-4
-0.008343518
-0.011791166
-0.010068165
-0.008335885
-0.0035935107
0.0012295503
0.0062329625
0.01324723
0.011570673
0.0018082447
-0.004438961
-0.005720384
-0.0063531823
-0.008312397
-0.0071930694
1.9772197E-4
0.009365364
0.014559903
0.010984235
9.0680557E-4
-0.007354208
-0.01098983
-0.0098497225
-0.0051272
-0.0012168776
0.0021325508
0.007171648
0.011187152
0.009851102
0.0026725351
-0.004062544
-0.0056496933
-0.0063791564
-0.008214217
-0.0066333846
-9.5645984E-4
0.0054550488
0.009709874
0.008585798
0.0015499672
-0.00734714
-0.013406351
-0.013687073
-0.009653459
-0.0048359036
0.0014951736
0.009012348
0.013184933
0.011746809
0.0054847025
-0.0010684069
-0.00317525
-0.0036290076
-0.00491183
-0.0030023993
0.0032978128
0.011227673
0.017556805
0.01514913
0.0034616
-0.0065193395
-0.011538047
-0.013581169
-0.011154976
-0.006694508
2.9877634E-4
0.007984802
0.011124435
0.010401483
-8.2131213E-4
-0.01541457
-0.013595187
-0.007698579
-0.0089771
-0.006450202
3.0429382E-4
0.008945117
0.015362072
0.012514913
0.0035248674
-0.0057330085
-0.00985466
-0.009806237
-0.00869706
-0.003573424
0.0038770982
0.011498105
0.01647712
0.014520066
0.0070201606
-0.0029412215
-0.007833703
-0.008125443
-0.010137513
-0.008309432
-0.0023915116
0.0065960796
0.016392104
0.014295906
0.0035685678
-0.0068853763
-0.014046542
-0.0129004195
-0.009140177
-0.0053618886
9.7041647E-4
0.00721498
0.013314739
0.014132597
0.006549578
-0.0034545278
-0.009150988
-0.008554617
-0.008318919
-0.0074713244
-0.001326652
0.007530007
0.016335895
0.015652614
0.0049685417
-0.0055145477
-0.013110514
-0.013860184
-0.0095486455
-0.00528092
-7.342519E-4
0.004455972
0.012251108
0.013009654
0.004888495
-0.0013190736
-0.011054602
-0.015661774
-0.007222332
-0.0035112398
-9.102433E-5
0.009817159
0.014693132
0.014203015
0.007677048
-0.0037566023
-0.010864035
-0.011954051
-0.009366713
-0.0048424816
0.001334468
0.008138518
0.012775728
0.013294643
0.0064558075
-0.003073866
-0.0064000823
-0.0067859166
-0.00824564
-0.0071357097
-0.0030411321
0.0032132927
0.011903225
0.014665227
0.0049911966
-0.0067938576
-0.011532916
-0.011478272
-0.008532692
-0.0048829173
-0.0012062398
0.005440341
0.011913153
0.012125331
0.0052240673
-0.0035614776
-0.007280485
-0.006999928
-0.006717004
-0.0057655293
-0.0023533467
0.006489974
0.015635815
0.014365312
0.0056906315
-0.0033696494
-0.0110748885
-0.013400852
-0.009332265
-0.003914846
-3.2612323E-4
0.0055339695
0.013013094
0.013138395
0.0065254094
-0.0014297748
-0.0071948473
-0.00814823
-0.008483216
-0.007669328
-0.0032668256
0.0033953171
0.012625747
0.014199194
0.004053698
-0.005552248
-0.010918057
-0.012659063
-0.009915605
-0.005605202
-0.0013282524
0.004865972
0.013325813
0.015103545
0.0074298736
-7.5025985E-4
-0.0064230803
-0.007689538
-0.005638637
-0.005146521
-0.002590273
0.0048336443
0.013358133
0.014616219
0.0058115097
-0.0036352216
-0.009799551
-0.0122065805
-0.00981051
-0.006989749
-0.002761015
0.004703433
0.012028777
0.0141731845
0.006835543
-0.0028938558
-0.0072872564
-0.0087608
-0.00848985
-0.0066357087
-0.0025997923
0.0053075515
0.013047472
0.0147114005
0.008568723
-0.0017375164
-0.00950421
-0.011756886
-0.010176109
-0.0056777983
5.7247287E-4
0.005967009
0.010818828
0.012684585
0.0063159037
-0.0036705493
-0.008705601
-0.009001143
-0.008684569
-0.0069625727
-0.0017455692
0.0049879863
0.011342331
0.01246478
0.004478587
-0.004336598
-0.008385208
-0.010586647
-0.0096630445
-0.0054909945
-8.4177015E-4
0.00461391
0.009797714
0.011945465
0.009115276
6.0495426E-4
-0.007049759
-0.0071271965
-0.00567367
-0.0063498556
-0.002912326
0.004502644
0.011348635
0.013975221
0.008894959
-0.0012542381
-0.00875217
-0.009225627
-0.0074482285
-0.006472664
-0.0022296428
0.0042269626
0.010067949
0.012763824
0.009121496
0.0015677396
-0.006069953
-0.008243892
-0.0058033075
-0.006764855
-0.006652226
-0.0013996548
0.0053140577
0.011420611
0.008129475
-0.0036182716
-0.009829196
-0.010445558
-0.01003746
-0.006805682
-0.0020632106
0.0032962202
0.009104974
0.01176152
0.008180579
4.8899306E-5
-0.00503834
-0.004318579
-0.004263246
-0.0048464458
-0.0019840163
0.0033894354
0.010885314
0.0144883245
0.008202719
-0.0012996235
-0.0075107417
-0.009588394
-0.008627918
-0.006181068
-0.0014932215
0.0036958451
0.008271667
0.011827872
0.008875574
3.072115E-4
-0.0054429406
-0.0061286436
-0.0059428434
-0.006196157
-0.0040964736
8.6494524E-4
0.0076339636
0.011683044
0.0067705293
-0.0022227226
-0.007372756
-0.009049439
-0.008722197
-0.0066694794
-0.002309081