0.009086726
0.005746459
2.1599451E-4
-0.001669306
-0.0013815573
-0.0011074957
-0.0015990793
-0.0010706966
0.004387717
0.008723736
0.008589749
0.0038761413
-0.007801402
-0.014361897
-0.010664933
-0.006986762
-0.0030271304
6.283118E-4
0.001418589
0.0046749613
0.0085793
0.0075502847
0.0025251547
-0.001737199
-0.002844897
-0.0026357542
-0.0013467687
-1.6971596E-4
8.8375993E-4
0.0032678542
0.0027053775
4.276554E-4
-2.633871E-4
-0.0037513957
-0.007398046
-0.0072246273
-0.007242148
-0.00699894
-0.003132477
0.002852549
0.0053851255
0.0022132082
-0.0010318857
-0.0017429932
-0.00132933
9.042244E-4
0.003254803
0.0054714647
0.010862949
0.018262815
0.023291007
0.022300906
0.016033234
0.010791754
0.006383059
-0.0028042486
-0.012401678
-0.015855173
-0.0145837255
-0.010069258
-0.0041655623
-0.0027409461
-0.008618763
-0.015456708
-0.015469929
-0.011246343
-0.006668271
-0.0015574675
-1.1872453E-4
-4.026401E-4
0.0027428414
0.003930411
0.0024849637
0.002595051
0.0024578853
0.0031073461
0.0050791716
0.0064048083
0.010086608
0.017111955
0.022513691
0.021212734
0.0123623395
0.0012975176
-0.0051608477
-0.0070111253
-0.007397884
-0.0052080783
-0.0031379887
-0.005235836
-0.0063137533
-0.005119904
-0.006571755
-0.008347037
-0.0073474622
-0.0062128445
-0.006225216
-0.0044612424
3.958983E-4
0.006425263
0.010776296
0.01013035
0.0065491525
0.004237363
0.0022533
0.0013515197
0.0021844618
4.7882024E-4
-0.0035582003
-0.002680164
0.0039356747
0.007343651
0.0053115324
0.002964013
0.0028985525
0.004168347
6.986316E-4
-0.005651978
-0.0060120877
-0.0015787487
0.0035867563
0.003306469
-0.0047743684
-0.009508151
-0.0072529893
-0.0031817642
-1.250222E-4
0.0012854816
0.0047614863
0.008192334
0.008630584
0.0076421434
0.0029353285
-0.0016537079
-0.002576321
-0.003332002
-0.003282392
-0.0026106029
1.1761756E-4
0.00526677
0.0062921373
0.0038710062
7.112698E-4
-0.0028620013
-0.0033839166
-0.0023417939
-0.0012254003
6.708569E-4
0.002341749
0.005700859
0.00782979
0.004598165
0.0011229644
-6.2643253E-4
-0.003955263
-0.0064793653
-0.004971198
-0.0019090812
0.0012732887
0.005352834
0.0067233187
0.0036454168
-6.3333526E-4
-0.004314729
-0.005733595
-0.0053220526
-0.0039955736
-4.2189448E-4
0.0018864716
0.0026967484
0.0062927883
0.0067832978
9.2206587E-4
-0.0029826968
-0.0026391963
-0.0023200407
-0.0023806046
-9.063423E-4
0.0025361406
0.007357492
0.011337513
0.009292761
0.0018308763
-0.0033116455
-0.0051991227
-0.00622094
-0.0049486905
-0.0021895962
0.0010912569
0.004089323
0.0048839315
0.00240863
-0.0036879713
-0.0069553773
-0.0049250745
-0.0052081365
-0.0053892774
-0.0018028988
0.0011694958
0.004473446
0.008041258
0.009028606
0.0059058075
7.5933273E-4
8.945597E-4
0.0027620115
9.5771754E-4
3.800791E-4
0.0019599977
0.0062435823
0.009011511
0.0040198434
-2.4603194E-4
-2.1561176E-4
4.3425988E-4
0.0017346202
-5.5954355E-4
-0.0045443
-0.004965462
-0.003495885
-0.0012849704
-0.0016170868
-0.005475837
-0.007412141
-0.006422188
-0.0052197925
-0.0040398375
-0.002100378
4.7583086E-4
0.0037304345
0.0062760273
0.005319811
0.0013255713
-0.0021125074
-0.0019573567
-6.248723E-4
-9.146533E-4
-9.2501746E-4
-0.0012131158
9.058138E-4
0.0073245564
0.00963802
0.005899126
2.8362975E-4
-0.0042263423
-0.003551662
-7.428746E-4
0.0013036297
0.0026978762
0.001775069
0.0021191246
0.003628197
0.00219494
-1.2773421E-4
-0.0010116171
3.7868918E-4
0.0017066731
-3.0339602E-4
-0.0018029157
0.0010475302
0.0044310912
0.002739366
-0.00272036
-0.0060110632
-0.004439977
-8.809532E-4
1.7709662E-4
9.280713E-4
0.002293708
0.0010479126
0.0021014975
0.0041076657
-0.0010157018
-0.008850542
-0.014315275
-0.015687348
-0.01129107
-0.005253587
4.053067E-4
0.0055863764
0.008308776
0.0070034596
0.0021781947
-4.9660594E-4
4.8410892E-4
0.0015605688
0.001543172
9.2010916E-5
0.0023411016
0.009286104
0.013723832
0.015788618
0.01501981
0.0117770815
0.013017635
0.01516013
0.014312868
0.012092521
0.003382147
-0.0069569563
-0.009005802
-0.009227059
-0.013322222
-0.016910803
-0.017011452
-0.0139427865
-0.010449879
-0.008271977
-0.007460707
-0.0071943803
-0.005578254
-0.0060333805
-0.010137816
-0.012633812
-0.011286886
-0.004896423
0.001966563
0.0033003236
0.005596011
0.009982253
0.012853387
0.015796639
0.014049956
0.0093220975
0.008863051
0.011381415
0.014612698
0.013130412
0.008411179
0.00947485
0.011582336
0.009794096
0.0060306867
-2.2054564E-4
-0.0041205753
-0.0035017289
-0.0034985682
-0.0031381072
-2.037824E-4
0.0018299095
0.0015582534
-9.347863E-4
-0.0050637075
-0.006036222
-0.00446094
-0.0031352167
4.8635135E-5
6.731907E-4
-0.0021020288
-9.908279E-4
0.0026433754
0.0034595386
-0.0013886294
-0.0077066654
-0.008484474
-0.007401955
-0.0066076517
-0.0065686996
-0.009727767
-0.00850031
-0.002947961
-0.0016625462
-0.0026762434
-0.004031624
-0.004105862
-8.160654E-4
0.0015992285
0.0045185043
0.009053321
0.010634879
0.012025695
0.012671891
0.00784715
0.002502697
-9.949441E-5
-0.0019022559
-0.0029096582
-0.0019559448
0.0025668952
0.009033401
0.016098622
0.017729152
0.007166287
-0.0022875564
-0.0025070757
-4.2697324E-5
0.004964365
0.0021247203
-0.009303717
-0.010259386
-0.0071622
-0.011491985
-0.013938117
-0.009962541
-0.0027393089
0.0029074093
0.0054468745
0.008170174
0.01059358
0.011292474
0.011974913
0.01486391
0.013694197
0.0021586418
-0.0072804205
-0.0069615906
-0.007140349
-0.009961847
-0.010684867
-0.009055846
-0.005912494
-0.0039849086
-0.0043040365
-0.0062559233
-0.010906668
-0.014659027
-0.013527101
-0.01006501
-0.008367071
-0.010356403
-0.011996351
-0.0107373055
-0.011376124
-0.012130873
-0.007884566
-1.5205357E-4
0.0073370715
0.012293668
0.017421616
0.021934563
0.023585772
0.026119689
0.025094923
0.020310575
0.020873817
0.023457743
0.024898384
0.026198672
0.021886291
0.011587885
0.0024753034
-0.0018310363
-0.0070667965
-0.014880994
-0.017249126
-0.01430433
-0.012408242
-0.013120127
-0.014028535
-0.013788644
-0.014207889
-0.015667178
-0.018449677
-0.019141044
-0.015082484
-0.011026782
-0.006742288
-0.005665891
-0.009846833
-0.00739542
-5.853673E-4
0.0019035544
0.0017325109
-0.0010972309
0.0011915679
0.010712685
0.013954465
0.010889092
0.0092772655
0.0067252736
0.0035816
0.0049737873
0.0077492585
0.007904916
0.008430411
0.007943099
0.004065001
-4.468244E-5
-0.0021636423
-6.444026E-4
0.0036985518
0.007230226
0.0078241285
0.0069089974
0.008630973
0.010696503
0.010280712
0.010963587
0.010629645
0.0067242007
0.0031146866
0.0012687445
-4.1446285E-5
-0.0016607142
-0.002082263
-0.0010180775
-0.0030390774
-0.007382436
-0.0087221125
-0.0079812305
-0.0070327735
-0.0070056384
-0.010398421
-0.014375249
-0.016937241
-0.01704191
-0.00948564
-0.0019400507
-0.001924033
7.3051924E-4
0.0049289954
0.0028479632
-1.0196191E-4
-0.0017524144
-0.0019418641
7.849188E-4
0.0037817317
0.0068467953
0.008608715
0.009519408
0.012686718
0.012710256
0.008889646
0.0079384595
0.0066974172
0.0034228165
0.0038374895
0.0054425495
0.0034717363
-7.0132846E-5
-0.0025133057
-0.0031513965
-0.0046003233
-0.0076415758
-0.0080427015
-0.0058909985
-0.0038166682
-0.0019326753
-4.5466342E-4
0.0016031644
0.003976604
0.0044213687
0.0028313082
9.6410094E-4
0.0010656872
0.0025153763
0.0038400968
0.0052713784
0.0052176476
0.0045324685
0.0048819915
0.003418594
-3.3881978E-4
-0.0044647777
-0.007645543
-0.008241215
-0.0072226147
-0.0060489173
-0.0046310653
-0.0029510783
-0.0013987692
-0.0010756456
-0.0016588315
-0.0027192761
-0.0050939154
-0.007235027
-0.0068576103
-0.0040789796
-0.0010048422
8.1668055E-4
0.002980719
0.0054311026
0.0043316307
-1.7071524E-4
-0.0025968452
-0.0011115746
8.919808E-4
0.0025585012
0.003544197
0.0025621043
0.0023496528
0.0027272017
9.540555E-4
-0.0011888298
-0.0029502055
-0.0032279112
-4.7453016E-4
0.002533988
0.0053904583
0.008180672
0.008734061
0.008446468
0.0076573743
0.006054975
0.004237562
-5.199297E-4
-0.004218702
-7.7051535E-4
0.0022221245
3.2416906E-4
-5.11742E-4
-0.0011778278
-0.0031975927
-0.004095986
-0.0064187096
-0.009642568
-0.009505095
-0.007839841
-0.005772904
-5.5699865E-4
0.0054961774
0.0067695035
0.0022616554
-0.0048605604
-0.009991117
-0.010498834
-0.008534168
-0.00531754
0.0010529845
0.0119878845
0.022139195
0.019638564
0.009308037
0.0042310264
-0.0026189967
-0.011792164
-0.010330906
-0.0015326423
0.0047045997
0.005155771
0.0040592384
0.0062097195
0.006090648
0.0022644561
-0.001571591
-0.003862723
-0.0022298351
-0.0017107977
-0.003623423
-0.0028001566
-0.0028842702
-0.0056607174
-0.0076902905
-0.007175037
-0.005591501
-0.0049142838
-0.0020616043
5.1913556E-4
0.0010665584
0.0039576115
0.005291936
0.0043996405
0.004245578
0.004363262
0.0056767375
0.0030945588
-1.538933E-4
0.0034438588
0.0053095133
0.0030954923
0.0017377579
3.9617482E-4
-9.348402E-4
-0.0028501153
-0.0023589155
9.667715E-4
0.0023246903
0.004057284
0.0058789444
0.0048791207
0.0032138543
3.7355197E-4
-0.0025101341
-0.0016928734
8.6259726E-4
4.686711E-4
-0.0019387886
-0.0026851047
-0.0049266266
-0.009414388
-0.010125416
-0.008139566
-0.007330126
-0.0081980135
-0.010808752
-0.010315942
-0.005598382
-0.002062456
0.0034524098
0.008716339
0.001987678
-0.007861992
-0.007671514
-0.0031239025
0.0029675856
0.007910112
0.0059880284
0.005499627
0.013317304
0.021738635
0.022107203
0.017499495
0.015049942
0.012425974
0.010318537
0.0090814615
-0.0014075376
-0.015126278
-0.01587222
-0.007940976
-0.003879307
-0.0050410237
-0.007260108
-0.010709749
-0.013051414
-0.009907935
-0.0076298895
-0.009363501
-0.008385076
-0.0048174253
-0.0029636077
-0.0025602076
-0.0013740279
-0.002011179
-0.004807221
-0.0014453444
0.0045400513
0.0061213206
0.008345292
0.00826732
0.0052169967
0.005530736
0.0052364445
0.004189645
0.0038448202
0.0022405381
0.0023777185
0.00210607
9.172174E-4
9.5879775E-4
-8.941926E-4
-0.0017390485
-8.8625646E-4
-0.0032934318
-0.0067762346
-0.007063861
-0.0037878798
-4.1720495E-4
9.6460804E-4
0.0015692551
0.0020681857
0.0028812457
0.0017509221
-0.002187324
-0.0063170926
-0.0068509416
-0.0018598594
0.0012404047
8.315116E-4
9.1013464E-4
-7.4032083E-4
0.001905989
0.0068907007
0.0064636734
0.008131457
0.0080523
0.0022922836
-0.0012892704
-0.0014851558
0.007045862
0.013622374
0.0023939365
-0.007847647
-0.0071894946
-0.0070333937
-0.006545104
-0.005260233
-0.007104436
-0.009485527
-0.0071001714
-0.0012042264
0.0017219252
0.002573429
0.0011438157
-0.006108583
-0.012547788
-0.011614891
-0.004409106
0.0039528143
0.008182269
0.010256206
0.009409727
6.246709E-4
-0.008543618
-0.00800653
-8.31156E-5
0.008006609
0.010565316
0.007946147
0.0060102954
0.0054417104
0.0030037551
-0.0013754545
-0.004869729
-0.0037302973
-3.7411423E-4
2.8819346E-4
-1.4142202E-4
-8.8548264E-4
-0.0011480642
0.0017680309
0.0041848975
0.0035302676
0.0024457294
0.0017620602
9.247409E-4
2.1663964E-4
5.308171E-4
9.7298564E-4
0.002599931
0.0049524913
0.0016433244
-0.004128216
-0.0069523174
-0.008804068
-0.0074745715
-0.00559588
-0.004379696
-1.9512084E-4
5.42019E-4
-0.001012791
-0.0011270627
-0.003691358
-0.004445083
-0.0049044346
-0.007583226
-0.005756355
-0.0026212914
-0.0023928173
-0.0020418568
0.0010351478
0.005340243
0.005300948
0.002698763
0.0011432556
5.3388224E-4
0.002887587
0.0071242177
0.010473623
0.008194304
4.6548687E-4
-9.513605E-4
0.0052801897
0.0067122853
4.3925276E-4
-0.0026896126
5.5553997E-4
0.0023701875
0.0031158468
0.0021030097
-0.0025712473
-0.0036557592
-0.0039841803
-0.008612785
-0.012299666
-0.0127497
-0.010514927
-0.0077219987
-0.0050991015
-0.0025955834
-0.0017435125
-6.720081E-6
5.9048046E-4
-0.0022749053
-0.0029926638
-0.0011953617
3.9140513E-4
0.0028984884
0.005640737
0.0058872257
0.006783213
0.011873845
0.014154159
0.011962707
0.01097849
0.011684198
0.015365782
0.017449863
0.013245807
0.007548728
4.5522556E-4
-0.008402554
-0.017886672
-0.026444238
-0.028921774
-0.029795919
-0.030940479
-0.025382156
-0.017248193
-0.010305191
-0.001091605
0.008072213
0.01509035
0.0212125
0.02468669
0.024731105
0.024140665
0.02467407
0.024508212
0.018239947
0.006303074
-0.0024181232
-0.0059761032
-0.008026379
-0.01333287
-0.025625449
-0.033936664
-0.030160502
-0.021813668
-0.013011426
-0.0051325196
1.2904029E-4
0.0016896453
-7.9407776E-4
-0.004494412
-0.013347894
-0.029629
-0.041723024
-0.040512867
-0.03365365
-0.030004948
-0.015308099
0.024422398
0.07743362
0.124837406
0.14850223
0.1498791
0.15011813
0.14056951
0.10204965
0.047301095
-0.008379455
-0.06387499
-0.11629352
-0.15428384
-0.16707143
-0.15974662
-0.14175844
-0.11829458
-0.102009386
-0.09754584
-0.087822504
-0.060914468
-0.026341407
4.3760665E-4
0.015940027
0.028888147
0.037332065
0.03134516
0.022820296
0.030269867
0.054308034
0.07818752
0.08011445
0.08236281
0.12586595
0.1876601
0.23379797
0.2568791
0.23592089
0.18459088
0.14019968
0.0821259
-0.03599474
-0.20064919
-0.32222182
-0.33809167
-0.2891048
-0.23561351
-0.18266802
-0.124811694
-0.08214055
-0.051567025
-0.019916855
-0.010688261
-0.01301082
-0.0026769012
-0.007554734
-0.023527648
-0.025182981
-0.026041364
-0.03142209
-0.030532416
-0.0067850654
0.05135644
0.12978606
0.21748109
0.30097672
0.34657913
0.35233194
0.31439063
0.1827138
0.0041818107
-0.10808659
-0.15917674
-0.18839903
-0.2258681
-0.28703597
-0.27952597
-0.1658597
-0.011114942
0.14180993
0.232223
0.22215296
0.11915074
-0.0103730215
-0.0837853
-0.17680271
-0.28672627
-0.26894006
-0.19172089
-0.1424691
-0.06937471
0.01294396
0.08907525
0.15724647
0.2053878
0.23906197
0.19404256
0.060206983
-0.04333574
-0.046357963
0.009344612
0.028338473
-0.0034081636
-0.0074144877
0.01325481
0.010570168
-0.012250237
-0.058468405
-0.11485012
-0.112421624
1.9569416E-5
0.1406008
0.14517663
0.047825404
0.030957624
0.072551444
0.055194266
0.0032324807
-0.04135754
-0.08250186
-0.12927091
-0.17051378
-0.16388735
-0.13662428
-0.10673409
-0.013559736
0.08383066
0.12010428
0.17046662
0.20147285
0.12357015
0.021386
-0.019888889
-0.028444143
0.003123325
0.057079285
0.009786504
-0.106678925
-0.11224592
-0.021224027
0.048040945
0.07219644
0.061250497
0.045068655
0.01747022
-0.045409504
-0.08859283
-0.08263511
-0.054032393
-0.029996755
-0.03607919
-0.049848244
-0.04958141
-0.0494014
-0.046696384
-0.03516132
-0.011468648
0.016786532
0.04130354
0.07037442
0.08810919
0.083593376
0.063960254
0.03271941
0.020159144
0.028830092
0.030695796
0.035081487
0.044933163
0.051506907
0.047354452
0.016502067
-0.022156175
-0.049102426
-0.06781057
-0.06700305
-0.052334446
-0.038461562
-0.020387683
-0.0017194393
0.008438757
0.007084988
-0.004388319
-0.014082494
-0.01483706
-0.015315064
-0.017843913
-0.013263633
-0.0050970665
0.0030443582
0.013707539
0.015690273
0.008669191
0.0014499864
-0.005214418
-0.0028816499
0.003406694
0.0032992994
0.0039529777
0.0039216215
0.0028577615
5.9749006E-4
-0.0137555795
-0.02731468
-0.024115926
-0.016778503
-0.009320929
0.005827161
0.019829152
0.027513843
0.031540636
0.025308486
0.013155362
0.004411806
-0.0044640675
-0.0062662615
0.009044425
0.030594883
0.043468557
0.04587375
0.04247142
0.032545954
0.014836745
-0.009304752
-0.034905627
-0.04903657
-0.050823603
-0.043388907
-0.021148313
-9.002505E-4
0.0033323746
0.0010673553
-0.0099977655
-0.020790864
-0.015062173
-0.0124405315
-0.01924089
-0.012454651
0.0041782274
0.016808651
0.022184439
0.008697335
-0.018250536
-0.034339312
-0.031840876
-0.008257882
0.033188652
0.063343234
0.057879627
0.030083276
0.010024924
0.0016979179
-0.008422094
-0.015441543
-0.015180632
-0.013404621
-0.0054214355
0.0057540773
0.0059281145
-0.0049297735
-0.015547981
-0.02103891
-0.022572631
-0.01831579
-0.009847074
-4.900865E-4
0.009879749
0.017615007
0.022793785
0.023743186
0.016871186
0.009551005
-8.0837327E-4
-0.015388853
-0.019201301
-0.014355933
-0.0106065115
-0.007607961
-0.003769971
0.004088977
0.013218165
0.020016361
0.022966191
0.019378206
0.014727451
0.014927117
0.021195147
0.024421178
0.0154646905
0.006683872
-0.0041858098
-0.030666618
-0.055191282
-0.06013756
-0.04604445
-0.02087859
0.0023399354
0.017385209
0.018758865
0.0064234626
-0.0063997013
-0.0074456106
0.0024693706
0.007317773
0.0028912516
-2.9009706E-4
-0.001497727
1.6406387E-4
0.003964241
0.0061497306
0.008573259
0.0050795176
-0.0054912874
-0.009487062
-0.0030037041
0.003076492
0.005165634
0.011031987
0.016424539
0.0165085
0.01687607
0.012314993
0.0018245028
-0.00831799
-0.016494634
-0.018047309
-0.017723592
-0.016774317
-0.0060164025
0.010152787
0.024257861
0.031032633
0.030923838
0.02850309
0.016298037
-5.6680886E-4
-0.010181747
-0.01585617
-0.013711556
-0.003906691
0.0013383718
-5.149077E-4
-0.005896709
-0.009687512
-0.009586796
-0.008860962
-0.008888328
-0.009748274
-0.009750136
-0.008957134
-0.008975925
-0.0076851724
-0.0067557283
-0.006711903
-0.003332947
6.5995724E-4
0.0031608825
0.0071319905
0.010196611
0.010161376
0.009707566
0.009793231
0.008977997
0.006427654
0.0031337698
9.729901E-4
3.9666294E-4
-1.5388833E-6
-7.8052E-4
-1.1977573E-4
0.0024688232
0.0033093113
5.302775E-4
-0.0012161422
3.14109E-4
0.0013148164
0.0019963682
0.0043342295
0.004570495
0.0012961567
-1.8215664E-4
0.001957957
0.0026038236
2.5815607E-4
-0.0018210463
-0.0033418294
-0.0034662245
-0.0017677766
-0.0020182624
-0.0036347788
-0.003440975
-0.003981574
-0.0068130246
-0.0069798105
-0.0031565628
-0.001507951
-0.002176397
-9.000148E-4
0.0011489036
0.004518784
0.008436361
0.0066266977
8.5159016E-5
-0.0037507468
-0.0029060326
-6.8094686E-4
6.595191E-4
2.2933415E-4
4.5830477E-4
0.0046108887
0.007527783
0.00696595
0.0057558957
7.453575E-4
-0.0039456785
-0.0033039749
-0.002808806
-0.0035023452
-0.0038836931
-0.0035100637
-0.0021706151
-0.0017161444
-0.0018306107
-0.0031657491
-0.0035624262
-0.0022000654
-0.0030609744
-0.0018853276
5.7633285E-4
-3.3250384E-4
2.2884694E-4
4.5177495E-4
-5.04815E-4
8.012655E-4
2.8916876E-4
-3.1385536E-4
0.0013581347
0.0018261049
0.0013797707
4.590061E-4
4.351492E-4
7.5626373E-4
-0.0027850172
-0.0066312677
-0.005827777
-0.004008504
-0.0042452496
-0.003429402
-2.9778914E-4
0.0027985834
0.0049461937
0.004742562
0.0027620501
0.0015273398
-6.5155866E-5
-0.0013960815
-0.0014053762
-9.853586E-4
0.0012860282
0.0033753442
0.0035199746
0.0046973196
0.005393214
0.0037055179
0.002554207
0.002488662
0.002407372
0.0029985239
0.0032649245
0.002341935
0.0020977892
0.001286349
-0.0016223777
-0.0035075145
-0.0037507496
-0.0034926229
-0.002575116
-0.0012458664
5.2740116E-4
1.6901E-4
-0.001551255
-0.0012632561
-0.0038271677
-0.009176775
-0.010359427
-0.00880413
-0.0067123575
-0.003862625
-0.0029335471
-0.004118136
-0.0050622723
-0.0055664796
-0.005702359
-0.0031422062
0.0014565344
0.0049548023
0.008128672
0.010077371
0.0090981675
0.008403242
0.008715615
0.007679322
0.006024822
0.004898565
0.0037611683
0.0036235556
0.004984388
0.005362064
0.0045421408
0.003109631
0.0010574058
9.4528444E-4
2.4437203E-4
-0.003565461
-0.0046338583
-0.0035006925
-0.004835265
-0.005338716
-0.0043725884
-0.004925931
-0.0057688407
-0.005863991
-0.004799577
-0.0030557902
-0.0032479356
-0.0037302682
-0.0022142564
-0.0011888447
-6.902356E-4
6.371303E-4
0.0012121592
0.0014771332
0.002258935
0.0018898628
0.0014377724
0.0026748043
0.0033606936
0.002828577
0.0021823775
4.3569133E-4
-0.0011243862
-9.6903584E-4
-3.1479629E-4
2.1038433E-5
-8.585343E-4
-0.0015531884
-7.2239374E-4
-4.1305632E-4
-9.5869903E-4
-0.0019281298
-0.002238697
-0.0013494934
-0.0011058481
1.0404414E-4
0.0023182614
0.002942634
0.002804107
0.0025596144
0.0028616353
0.0025959765
0.0010370733
8.041187E-4
0.0011828793
0.0022659106
0.0030449212
8.332444E-4
-6.0950447E-4
-0.0012558181
-0.0025435819
-0.0020605596
-0.002259998
-0.0032745176
-0.0030629043
-0.0021231459
-0.0011002696
-0.0018878485
-0.0020942485
-9.265189E-4
-0.001437319
-0.0010729452
2.8457807E-4
4.7609698E-5
-4.334829E-4
-7.86242E-5
7.785853E-4
7.4960204E-4
5.2883195E-5
-3.4345847E-4
-4.4096372E-4
-9.523657E-4
-0.0033942
-0.0036459204
-9.3154184E-4
-5.7204854E-4
6.7458925E-4
0.0026539487
0.0017332555
0.0030389875
0.0051933876
0.0035238583
0.0018775172
0.0027298615
0.0035992637
0.0028185414
0.0022959926
0.0019837075
5.7096494E-4
2.1269826E-4
-6.206547E-4
-0.0031989852
-0.0037446471
-0.002863232
-0.0032609405
-0.0042913733
-0.0038314753
-0.0011133875
-5.521931E-5
-0.0025148408
-0.004176739
-0.004631419
-0.006286899
-0.00687527
-0.006872696
-0.007569871
-0.0026393484
0.007509791
0.012765827
0.011432391
0.009064087
0.007524023
0.0052018994
0.002525445
0.0014652393
9.945402E-4
5.4701325E-4
0.0010778003
0.0016002678
0.0010305996
2.5884918E-4
-4.3758137E-5
-0.0021400754
-0.004619564
-0.0034567998
-0.001614662
-0.0013913545
-0.0015505914
-0.0016780385
-6.426548E-4
4.152472E-4
5.4082955E-4
-4.2702325E-4
-0.0017975849
-8.1107847E-4
4.8366387E-4
0.001429692
0.0031856222
0.002831831
0.0019062634
0.0023601667
0.0027629612
0.0016087791
-9.7627897E-4
-0.0012265544
-7.4075954E-4
-0.0010760805
-2.2849643E-4
-9.503603E-4
-0.001284107
-5.661709E-4
-0.0025306107
-0.0041776206
-0.005066882
-0.0055619264
-0.0036039578
-4.377146E-4
0.002885248
0.0033753915
0.0018342284
0.0026461764
0.00316045
0.0016699801
-1.3923566E-4
-0.0013942879
-4.480632E-4
0.0015760142
0.0021208778
0.0016634626
0.0023588862
0.0038669237
0.0031718374
-4.7272298E-4
-0.003786316
-0.0036206306
-0.0013340779
9.021866E-4
0.0023127322
0.0011494334
-8.912413E-4
-9.288531E-4
-7.1361684E-4
-0.0023131936
-0.0034884422
-7.04574E-4
0.0028500233
0.0030645975
0.002925782
0.004156788
0.0051002703
0.0037207068
-1.6567446E-4
-0.0028220701
-0.0039476235
-0.00498349
-0.004218712
-0.0027262995
-0.0021687567
-0.0010152559
1.2958578E-4
-3.25179E-4
-8.0344075E-4
-0.0020944253
-0.0042701764
-0.0024848806
6.293602E-4
0.0010821755
0.002441378
0.0037111102
0.003523919
0.0037532141
0.0028284779
7.477797E-4
-5.4351834E-4
-5.6779914E-4
-6.779401E-4
-8.8025356E-4
3.959618E-4
0.0010843484
0.0011061344
0.0013080554
6.1141927E-4
7.374509E-4
7.982061E-5
-6.8715477E-4
0.0016799148
0.0025340556
0.0014821689
0.0010009719
-4.680216E-4
-9.80364E-4
-0.0011432901
-0.002403093
-0.003421704
-0.004462318
-0.003613356
-0.002129008
-0.0026557727
-0.0021797316
-0.0010390703
-7.916297E-4
-3.314161E-4
-7.408618E-4
-0.001565963
-0.0013096624
-3.9627767E-4
1.5489453E-4
-1.6740362E-4
7.134576E-5
9.852027E-4
0.0016516633
0.0021974528
0.001577862
8.720604E-4
0.0016554184
0.002249992
0.0023375193
0.0022182413
0.0022690273
0.0038992392
0.005558122
0.005177427
0.0028140233
2.6621125E-4
2.193936E-4
4.9004576E-4
-0.001207305
-0.0017195762
-0.0018672632
-0.0037521808
-0.0033693986
-7.2446896E-4
-1.0421597E-5
-1.3438777E-4
0.00130194
0.0031128018
0.0024634153
-4.070115E-4
-0.0016691249
-0.0014787271
-0.0019172747
-0.0021300367
-0.0026433596
-0.0029873468
-0.0023276117
-0.0026681826
-0.0034934394
-0.0038289975
-0.0038032022
-0.0030635595
-0.0026325725
-0.0017142077
3.195544E-4
0.0026663498
0.0042403303
0.0028948346
0.0022935788
0.0038022976
0.002750849
0.0022800083
0.0035464496
0.0033861387
0.0034417564
0.002369152
0.0011432117
0.0017562341
-2.4485769E-4
-0.0028643825
-0.0013404464
8.083476E-4
1.9847655E-4
-8.0834643E-4
-2.3399426E-4
1.9373321E-4
6.57874E-4
0.0012046563
-3.543622E-4
-0.00250488
-0.0035190694
-0.0031008625
-0.0017375764
-0.0014990203
-8.196598E-4
5.3656934E-4
1.757267E-4
1.5310505E-4
4.157594E-4
-8.128046E-4
-5.0549523E-4
0.0014702686
0.0014149216
5.184763E-4
9.361085E-4
9.411552E-4
6.93642E-4
2.505948E-4
-0.0015727152
-0.0020709909
-0.0013688331
-0.0021612353
-0.0021861086
-2.8285763E-4
0.001409513
0.0019302986
0.001955921
0.001622557
4.4648696E-5
-0.0011910716
-0.0013435788
-0.0018201524
-0.0015610245
-8.069676E-4
4.3532116E-5
0.0020377997
0.0034681866
0.0033393726
0.0020307458
2.3034883E-4
-4.9683254E-4
-2.765103E-4
2.7172526E-4
-2.8153116E-5
-0.001063811
-5.877169E-4
3.5298677E-4
3.591361E-4
-0.0011857441
-0.0035363245
-0.0024624257
-7.0302957E-4
-0.0024015773
-0.0027032173
-2.4439985E-4
0.0020521404
0.00283297
0.0013983649
9.5845794E-4
0.0017528114
3.4001522E-4
-0.0010650217
-2.2829878E-4
0.0010806414
0.0012918953
7.074597E-4
0.0010672128
0.0018210688
0.0010545667
-6.742878E-4
-0.0019690208
-0.0018954029
-3.9824907E-5
0.0015809911
0.001253843
9.855491E-4
9.7259594E-4
-2.3634304E-4
-8.684957E-4
-9.449455E-4
-0.0011803661
-7.845073E-4
-3.7395107E-4
9.2310784E-4
9.748918E-4
-0.0016297756
-0.0014595367
-9.786645E-5
-7.323766E-4
-1.7273564E-4
-9.716479E-5
-0.0016132839
-0.0030334846
-0.004185787
-0.0027672525
-1.14355345E-4
6.7217735E-4
3.412429E-4
-8.001911E-4
-9.467547E-4
9.037531E-4
9.2101446E-4
-7.234168E-4
-2.299067E-5
0.001340415
0.0015637509
0.0024897843
0.0027834994
0.0017061586
2.900419E-5
-0.0011380898
0.0012806803
0.0029303902
5.9818063E-4
2.2467764E-4
0.0010676755
2.8834498E-4
-7.178725E-4
-0.00123891
2.6833284E-5
-2.9479223E-4
-0.0025723362
-0.0015215118
-5.515557E-4
-0.0017276909
-7.981741E-4
2.5232177E-4
-5.074313E-4
-1.5893533E-4
2.192449E-4
-9.178289E-4
2.8901983E-5
0.001553392
2.4166737E-4
3.274286E-4
0.0015643844
4.0845395E-4
-4.1659357E-4
-5.6701514E-4
-0.0012610373
-6.946169E-4
3.0864018E-4
6.709771E-4
0.0018256041
0.0012327782
-0.0018739621
-0.0012368953
8.486677E-4
-1.6108138E-4
3.1338066E-5
-5.9175356E-5
-4.6648987E-4
7.471783E-4
-0.0010142651
-0.0015924006
-4.2656084E-4
-0.0027592306
-0.0033886689
-0.0027057861
-0.0022660338
-9.463556E-5
-6.394044E-5
4.4387113E-4
0.0019286793
4.7187123E-4
7.622312E-4
0.0019227498
-6.03093E-5
-0.0010505436
6.9768704E-4
0.0016807772
0.0012967397
0.0023743198
0.0024422575
4.5458753E-5
6.813589E-4
0.0020626844
2.894064E-4
-7.055258E-4
-8.249742E-4
-7.572912E-4
4.3494604E-4
4.8155413E-4
-5.4780825E-4
-9.984188E-4
-3.3943242E-4
3.0281043E-4
-0.0010537814
-0.0014888651
3.879186E-4
0.0010710424
0.0010206217
1.1723621E-4
-0.002831054
-0.0035435166
-0.0014367567
-2.5670222E-4
4.3237673E-5
-4.0189465E-5
-3.5005843E-4
-9.706765E-4
-0.0017954188
-8.097084E-4
5.0897565E-4
8.7043666E-4
0.0014234529
-3.3421547E-4
-0.002550114
-0.0013464985
-4.3881088E-4
-7.428604E-4
1.3550803E-4
0.0010376167
0.0010415076
8.23118E-5
-1.01845195E-4
0.0012734719
0.0013468539
6.653768E-4
9.898748E-4
6.3210394E-4
-1.5056442E-4
3.3424122E-4
0.0011865179
0.0013396273
9.013321E-4
1.3857124E-4
2.7268621E-4
6.867946E-4
-8.2118734E-4
-0.0023612587
-0.0019214211