0.004032063
0.0067809448
0.007357331
0.0037287814
7.374118E-4
-4.3390394E-4
6.249684E-4
0.0020265733
0.0015177837
0.0014868035
0.0013997423
0.0014288658
0.0027997154
0.0037015365
0.0031000874
1.1079942E-4
-0.0014964638
3.29373E-4
4.9958343E-4
4.7189006E-4
3.0850188E-4
-0.0031686253
-0.0055168006
-0.007241387
-0.0076915086
-0.0031638348
-0.0017454762
-0.0034344522
-0.0016192745
-0.0017845108
-0.0032980335
-0.0013521306
-2.651438E-4
-9.173398E-4
-4.04619E-4
-1.728067E-4
-8.320091E-4
-2.3133347E-4
4.8577134E-4
7.639041E-4
0.0032316586
0.0058193565
0.0061960625
0.0044731293
0.0011405203
2.712937E-4
3.685893E-4
-9.894851E-4
0.0012898069
0.004173795
0.003209544
0.0033494562
0.0042319777
0.0022152255
-8.794989E-4
-0.003666252
-0.0053059803
-0.004193666
-0.0026346126
-0.002826442
-0.0022968932
-7.7350176E-4
-6.6872675E-4
-0.0016049383
-0.00217508
-0.0025298572
-0.0028776913
-0.0017914386
-4.727252E-4
-0.0017401029
-0.0014712106
0.0024094016
0.0034129394
0.0019481286
0.002336843
0.0016168675
1.86267E-4
6.4116897E-4
4.4959201E-4
-8.042728E-4
-0.002098983
-0.001991605
7.482556E-4
0.0034948576
0.005233168
0.0039125956
-8.6651824E-4
-0.003741815
-0.004821243
-0.0027239167
0.002499949
0.0012756635
-0.0029813894
-0.002599914
-0.0019756518
-0.00100556
4.4141543E-5
-0.0020446857
-0.0017357005
1.2983414E-5
-0.003516935
-0.0038197888
0.001879352
0.0016507688
-0.0012931795
-0.0013523164
-0.0021218404
1.5467493E-4
0.003530769
0.0041447594
0.005289489
0.00481358
0.0039474214
0.0035575805
4.3678534E-4
-0.0011397172
-2.738611E-4
9.7349583E-4
0.002459292
0.0012110734
-0.0015660218
-5.974172E-4
0.0051302803
0.0075348774
0.0033608305
9.806611E-4
8.721538E-5
-8.948998E-4
0.0015561909
0.0029569182
0.0025894972
0.0028170869
0.0023596894
0.0017539114
-0.0012314802
-0.0033789936
5.2325765E-4
0.0039447746
0.0038800521
0.0038876608
0.004105739
0.0045553767
0.002022789
-0.005419106
-0.010059072
-0.010680326
-0.014070758
-0.015579135
-0.013182221
-0.015941784
-0.019030465
-0.014566014
-0.011375642
-0.0123315565
-0.009246217
-0.0037497745
-0.0016492513
-4.934637E-5
0.0029361953
0.003443269
0.0048330016
0.013419534
0.021371633
0.02144333
0.021164924
0.022409782
0.020331984
0.01807862
0.018092172
0.016891643
0.013938714
0.014663665
0.018603992
0.017883152
0.012582474
0.0039069024
-0.0070658005
-0.01290645
-0.015985273
-0.019260798
-0.018930105
-0.0182889
-0.018935483
-0.020347677
-0.021175114
-0.018119792
-0.015250732
-0.014534986
-0.013565367
-0.0111802695
-0.008088761
-0.0060207164
-0.0012443241
0.0025379746
0.0015324118
0.0024004392
0.003411068
0.0054396163
0.0077930973
0.0054545063
0.0068275407
0.007495607
0.0047963564
0.008081708
0.006411752
0.0021475337
0.0068347096
0.009509576
0.007321246
0.00468185
0.0033794492
0.004361424
0.0031908639
0.0031124977
0.0044938885
0.0025951099
0.0020558608
0.0031663184
0.0027637624
0.0024851172
0.0013145866
-0.0017674011
-0.0024053478
2.8389294E-4
-3.0462097E-4
-0.0027266643
-0.0024597482
-0.0037656147
-0.0059739286
-0.0060187946
-0.004815383
-0.0027973724
-0.0025818022
-0.003460478
-0.0036674403
-0.004139976
-0.0036176972
-0.0034672844
-0.0038862654
-0.0028983434
-0.0026583017
-0.0024247284
-0.0013326395
-0.0018941722
-0.0018492338
8.1232174E-5
7.22838E-4
0.0012965674
0.0026265508
0.0017506002
0.0010115672
0.001814506
3.418412E-4
-0.0017052061
-0.0020449595
-0.0021542828
-8.857063E-4
8.624863E-4
7.1220164E-4
0.0014786823
0.003557264
0.004025161
0.0053300206
0.0064427992
0.0032062277
0.001142395
0.001009587
-0.0014489023
1.7661299E-4
0.004984037
0.004323471
0.0011807026
3.9118648E-4
0.0015284294
0.0027044066
0.0014190571
-0.0020915533
-0.004410312
-0.0030489685
-0.001060066
4.568247E-4
0.0037522637
0.004399085
0.0013001304
-0.0023331426
-0.0057518636
-0.0049714446
-0.0035623454
-0.0054138047
-0.0038519516
-0.0011899947
-5.296841E-4
0.0012212221
0.0013129845
0.001108493
0.0019437091
0.0010510177
0.0010191104
0.00137678
6.621134E-4
9.6407736E-4
0.0014682228
0.0015595787
0.001331515
0.0010864799
8.64668E-4
-2.4721204E-4
-9.09711E-4
-0.0011978246
-9.6925814E-4
0.001187464
0.002555798
0.002607858
0.0029907003
0.0021364593
3.979735E-4
-9.292128E-4
-0.00201261
-0.00190236
-7.0961355E-4
8.287717E-5
4.5196727E-4
3.2943996E-4
-3.397742E-4
-5.793409E-4
-0.0010169976
-0.0011092363
-3.6107044E-4
-0.001693712
-0.0032607112
-0.0020734712
-2.8734645E-4
6.8909134E-4
-2.7237254E-5
-8.3154795E-4
-2.7196304E-4
-8.599492E-4
-0.001570674
-0.0014940731
-0.0014227985
-2.3207007E-4
0.0013986947
0.0029180383
0.0031082975
0.001986384
0.0017785641
0.0013779056
0.0011599585
0.0013844295
0.0011283689
0.0019858791
0.003106268
0.0042210077
0.0045828037
0.0024717061
-2.9155834E-5
-0.003442186
-0.00551252
-0.0026982776
-0.0022427202
-0.005212236
-0.0034541353
-3.0817266E-4
-3.8448194E-4
9.7115035E-4
0.0019214781
-5.6524924E-4
-0.0011028128
-2.0998632E-4
-9.2952425E-4
-0.0011703145
-0.0016770246
-0.002172599
-2.5717056E-4
3.878621E-4
-0.0037208945
-0.004759606
4.0507663E-4
0.0015093124
3.510684E-4
0.0019270936
0.0020297633
0.0035294543
0.0036697646
-1.0375078E-4
-0.0010970995
-0.002187211
-0.0023843085
0.0016752179
0.0032024304
0.0017200408
0.0016941569
0.00324666
0.0024760626
1.5583103E-4
0.0010394434
0.002517841
0.0036536518
0.0034557022
2.1470386E-4
-0.001974325
-0.0037518681
-0.0033399195
8.030864E-4
0.0031284068
0.0024867242
-0.0023245597
-0.00852552
-0.011765503
-0.0115640955
-0.004633821
0.0014711289
0.0018189289
0.0028139197
0.0016926726
3.5018192E-4
0.0017934833
7.455984E-4
-5.127445E-4
-4.342206E-4
-5.525642E-4
-4.579145E-4
6.207811E-4
0.0037058115
0.003441058
8.4659364E-4
0.0020885577
0.0019829455
2.3296574E-4
0.0011017049
0.0013104185
9.384222E-4
0.0015807342
0.0023117575
0.0027966127
9.328086E-4
-0.0025200553
-0.00356214
-0.0026291325
-0.0022025586
-0.0016845999
-5.852846E-4
-1.1632496E-4
2.8709698E-4
7.267333E-4
-5.1012763E-4
-0.0020970798
-0.002763983
-0.0031266469
-0.0020632823
-0.0010790139
-0.0012924725
5.117621E-4
0.0029398506
0.0029673553
0.0019099363
4.684014E-4
-4.21192E-4
-2.93612E-4
-2.6076252E-4
9.938087E-4
0.0027252855
0.0020934762
0.0012316802
0.0023944185
0.003744531
0.0032650023
4.347155E-5
-0.0027518168
-0.0017151249
-6.47068E-4
-0.0016442973
-0.001455366
-5.545157E-4
-8.0844294E-4
-0.0015696326
-0.0025389567
-0.0033401563
-0.0032989506
-0.0034915125
-0.003517837
-0.0017386134
-7.977911E-4
-0.0012315041
2.0917422E-4
0.0022424546
0.0024244355
0.0011024019
9.961198E-4
0.0021457458
0.0014599316
0.0020451609
0.0035826347
0.0021167935
0.0029034356
0.0055776043
0.0037116795
3.20037E-4
-1.4025178E-4
-9.874558E-4
-0.004502421
-0.0040440983
2.2141774E-4
0.0017522224
0.0026626114
0.0017537443
-8.4397715E-4
-0.0014550994
-0.004800242
-0.006474366
-0.00182589
3.141093E-4
5.424634E-5
0.0013939019
0.0010444516
-0.0011324349
-0.0013315012
2.4206626E-4
-3.1241993E-4
-0.0012444165
-2.9281378E-4
0.0013025193
0.003643248
0.0036170501
0.0023514745
0.0031789222
0.0014407089
-0.0017303372
-0.0025736014
-0.0035846473
-0.0032155374
-8.398779E-4
-3.970238E-4
-9.207386E-4
8.1055466E-4
0.002662816
7.120762E-4
-0.0024984812
-0.0032581773
-0.0037154034
-0.0037000277
-0.0014595292
-4.89209E-4
-7.955675E-4
9.658669E-4
0.0026475438
0.0028397003
0.0029242865
0.0022560896
0.0020101215
0.003190956
0.0031113222
0.0020948271
0.0020993128
-4.7924135E-7
-0.0041866596
-0.004103455
-3.2792968E-4
0.0022739756
0.004371911
0.005621201
0.005282347
0.004846371
0.0017363032
-0.00497858
-0.009892695
-0.009160689
-0.004931251
-0.002418189
-0.002213522
-0.0016007876
-0.0019826738
-0.0018484745
0.001887261
0.004350798
0.0038208656
0.0023449815
-9.115232E-4
-0.0023124139
-0.0020691245
-0.003535652
-0.0031091855
-9.053382E-4
0.0018709945
0.004085416
0.002041441
5.533189E-4
0.0014085973
0.001321167
0.0013075855
-3.7742234E-4
-0.0011133843
0.0014632535
0.0026372017
0.0028229095
0.002540826
0.0011797637
-9.31787E-4
-0.004073919
-0.004225971
-0.0024507619
-0.0015405004
0.0011753453
0.003213708
0.0024883458
9.269887E-4
3.2877515E-4
0.0017522809
0.0013486808
-0.0011224339
-0.001570165
-0.0018522376
-0.002519007
-3.7271052E-4
0.0026507082
0.0017280966
-0.002202257
-0.0039493954
-0.0023614422
1.1603786E-4
0.0014673581
7.8771665E-4
-8.264212E-4
-0.0015638351
-0.0017906828
-0.0032949601
-0.0042272042
-0.001312801
0.0017993863
0.0015719037
0.0018155512
0.002734407
0.0024530236
0.0039536543
0.004682049
0.002537082
0.002407678
0.0018351224
-5.659662E-4
1.067173E-4
0.0012415693
0.0017969777
0.002154841
-0.0012621721
-0.0032959762
-0.0010099552
-0.001162872
-0.0033913306
-0.0030047407
-0.0017855605
-0.0026606629
-0.0034906487
-0.0022055055
-0.0010969313
-0.0012863372
-0.0018179798
-0.002239475
-0.0013499989
0.0011154814
0.003705177
0.004153529
0.0020018644
0.0017838804
0.004437202
0.0044970885
0.0027761827
0.0026766495
0.0010606453
-0.0021480739
-0.0032227146
-0.0025516741
-9.458505E-4
3.9595895E-4
1.8632736E-5
5.238559E-4
0.0010376805
-0.0015960971
-0.00340622
-0.002909714
-0.002618663
-0.002156026
-0.0029414324
-0.0028616767
7.813556E-4
0.0030745822
0.0034319938
0.003567539
0.002011944
3.00795E-4
-0.0011397131
-0.0027756635
-0.0036775242
-0.0022061367
0.0016360979
0.003263042
0.0028192734
0.0026278917
0.0016678654
3.6308693E-4
-0.001956746
-0.0017981941
0.0019084575
0.0019342158
-1.0465825E-4
-0.0013219259
-0.0027281228
-0.0022223503
-0.0028439935
-0.0039779763
-0.0011077794
0.0027994837
0.005440465
0.0064522373
0.0052394285
0.0032166687
0.0028840022
0.0032891307
-2.6942143E-4
-0.004269038
-0.0033084198
-6.8512355E-4
0.0019461694
0.004145637
0.0030863266
-7.345387E-4
-0.0032529742
-0.0031911249
-0.0044099265
-0.0055084755
-0.0037352713
-0.0037101582
-0.0060418136
-0.0070051807
-0.005772118
-0.0034784398
-0.001033664
0.0016834615
0.0017058731
-8.522561E-4
-0.0019587257
-0.0032953734
-0.003436323
7.234543E-4
0.004283347
0.0054355357
0.006785444
0.008408445
0.0087516755
0.0064351233
0.003509323
1.4865048E-4
-0.0037977868
-0.0021726287
0.00243964
0.0037461862
0.007230886
0.010076217
0.006328718
0.0034378904
-7.527193E-5
-0.0070249443
-0.0067913746
-1.4542082E-4
0.003988734
0.0050426074
0.0015281532
-0.0059343665
-0.008463007
-0.003941262
0.0011111432
0.0040797573
0.0018549896
-0.004289927
-0.005718433
-0.005924949
-0.00981408
-0.012530353
-0.012606795
-0.009252966
-0.0055417623
-0.0043437225
-0.0015345523
9.459453E-4
0.002820846
0.0058497586
0.0057869875
0.0036388608
0.0020200107
0.0013697027
9.436418E-4
4.2677348E-4
0.0024388726
0.0047129765
0.0083693275
0.014247124
0.015988741
0.01602152
0.014165317
0.006422358
-0.0043788794
-0.014224033
-0.01305226
-0.0051317886
-0.0044510406
-0.0049043135
-0.004282395
-0.0061166
-0.006814607
-0.0071349572
-0.006871037
-0.007677199
-0.009005632
-0.006770255
-0.006250374
-0.007141884
-0.005099868
-0.0024847686
5.0286046E-4
0.0023154838
0.003498134
0.0068884403
0.008157339
0.006131999
0.005809417
0.007131171
0.0061715296
0.00223513
-0.0013763602
-0.0027657088
-0.006243309
-0.011176558
-0.0097891055
-0.0066297078
-0.0066975807
-0.003815308
-8.645937E-4
-2.8608786E-4
0.0032831465
0.008625127
0.01450114
0.021256445
0.027273573
0.03231157
0.03617198
0.03836296
0.037420336
0.03231962
0.022730727
0.010844598
-8.4066065E-4
-0.014295998
-0.025798172
-0.032033134
-0.037839253
-0.043710217
-0.048923995
-0.051345393
-0.046729807
-0.037748016
-0.029456168
-0.02521388
-0.022859348
-0.018548997
-0.009713567
0.005326111
0.01505478
0.01619828
0.020705825
0.02775502
0.0346804
0.037840888
0.03436058
0.031869903
0.02591521
0.012413158
7.992633E-5
-0.0018371182
0.0048478865
-0.0014809758
-0.015476612
-0.018038051
-0.023994157
-0.031542283
-0.034849342
-0.041805536
-0.031919487
-0.008334542
0.0035670435
0.014982133
0.03590098
0.054467387
0.061798774
0.065501004
0.07196112
0.06905758
0.061403837
0.058054835
0.047764134
0.03778346
0.03505071
0.023119329
-0.0033087814
-0.041026887
-0.08162291
-0.11159616
-0.13415743
-0.14765583
-0.14267012
-0.12873518
-0.105888374
-0.06823183
-0.031807426
-0.0046101855
0.012353026
0.017872838
0.02265383
0.02476611
0.0240123
0.034097172
0.05349364
0.076573916
0.09933018
0.116709635
0.12435905
0.11373588
0.09225446
0.06647885
0.034480654
0.012968361
0.0042798044
-0.007864042
-0.025809754
-0.041626863
-0.048207417
-0.05631066
-0.06962868
-0.077791385
-0.0905878
-0.10050532
-0.088433705
-0.067063935
-0.045132097
-0.02573986
-0.014538788
0.0028691387
0.033643283
0.061221633
0.073291
0.07611503
0.077255584
0.07197215
0.058671504
0.043177888
0.02752172
0.013271082
0.006582794
0.007569484
0.005622275
-0.0051508215
-0.025589049
-0.047368255
-0.050140012
-0.03827782
-0.029772105
-0.022493357
-0.017526869
-0.014079711
-0.0048385877
4.8289995E-4
7.6173496E-4
0.0038096288
0.005399074
0.0124108335
0.024098823
0.022323316
0.0126891555
0.0011817315
-0.018407173
-0.033272844
-0.039763127
-0.04382033
-0.039549295
-0.036002602
-0.03563173
-0.024095343
-0.011943795
-0.012421713
-0.01641923
-0.0155300675
-0.009303074
-0.0029706876
-0.002889554
-0.0052901558
8.404684E-4
0.018488133
0.044195622
0.07597734
0.10797283
0.13341726
0.14309675
0.13163456
0.111576244
0.09094136
0.06924677
0.046880644
0.016434293
-0.021274319
-0.05955168
-0.09370163
-0.11813454
-0.14000463
-0.15456875
-0.14149283
-0.10389483
-0.06497194
-0.044504467
-0.03884838
-0.034037296
-0.027782613
-0.019238116
-0.013960718
-0.01137685
-0.0026516146
0.006959467
0.020505916
0.037251953
0.045088388
0.05278315
0.062310163
0.06619834
0.06772644
0.06425739
0.057024222
0.0496333
0.039904263
0.027991002
0.013317079
7.670035E-4
-0.009740831
-0.02608982
-0.04018228
-0.039479528
-0.027687268
-0.017213657
-0.010827257
-0.0037727053
0.00178719
0.0050525637
0.008176354
0.011478847
0.013384343
0.009977489
0.005593087
0.00151763
-0.0049353554
-0.008224258
-0.013013058
-0.021542959
-0.026997872
-0.031922296
-0.031922136
-0.02510861
-0.019795882
-0.014440722
-0.007854588
-0.0014400706
0.0039708433
0.0065960344
0.00944779
0.011071531
0.010325397
0.010536026
0.011021964
0.012108371
0.012880993
0.012247133
0.011077644
0.009355458
0.009841124
0.010261803
0.00837312
0.0075379396
0.005277019
0.0030799604
0.0043444578
0.0035401585
-1.8468223E-4
-0.0031684565
-0.006250482
-0.011741998
-0.01846009
-0.020275794
-0.014079986
-0.005970714
-0.0028028132
-9.0282224E-4
0.0026669125
0.0010363779
-0.0029424462
-0.0012368134
0.0018106624
0.0019838968
7.4476737E-4
2.2996675E-4
0.0016348443
0.0051288516
0.010428757
0.011137578
0.0057554375
0.0028740682
0.0035340078
0.0038025589
8.5548544E-4
-0.004869362
-0.004667462
0.0020240578
0.0053779716
0.0049867607
0.0057979464
0.0058869394
0.0037529625
0.0020700789
-8.026419E-4
-0.005924491
-0.009156647
-0.008531466
-0.005862546
-0.006417925
-0.008896009
-0.006073268
-0.0022803613
-0.0015437092
-4.2196875E-4
5.4816296E-4
0.001524506
0.0014936862
-8.5865986E-4
-0.0022411456
-0.0024271214
-0.002378156
-0.0018508121
-3.4552286E-4
0.0031822098
0.0064958725
0.007926419
0.00798846
0.0060930983
0.0020465527
-0.0012389945
-6.2400725E-4
7.605538E-4
0.0010975688
0.0022881255
0.0034118285
0.0045128604
0.0036214981
0.0015292263
9.4439666E-4
-0.0021692535
-0.0021575533
0.0018193002
-0.0024133034
-0.006634701
-0.004340178
-0.005295487
-0.005677795
-0.002426867
-8.917803E-4
-3.6549347E-4
-8.5810426E-4
8.8502304E-5
0.004633671
0.005404615
0.0015768065
0.0010290305
0.003736859
0.0031465765
-0.0026609872
-0.0072722235
-0.007422766
-0.007016115
-0.0053915535
-0.0024847018
9.84161E-5
0.004719552
0.0072168037
0.0059320233
0.005785896
0.0026641057
-0.0034859981
-0.004469113
-0.003034047
-0.004006635
-0.0018545301
0.0037386462
0.0048593753
0.0031223157
0.0032412813
0.0033099717
0.0031775737
0.0012830846
-0.0019099774
-0.0014801464
-1.80198E-5
5.6772406E-4
0.0027415634
0.0040285783
0.0027286941
-6.7113916E-4
-0.004672821
-0.0038744358
0.0015138607
0.0027649617
-0.0016185477
-0.0041578463
-0.0025408966
8.1152737E-4
0.0038327822
0.0032915587
-3.4772107E-4
-0.0025611792
-0.00431462
-0.0076080435
-0.006700799
-6.349568E-4
0.0044287015
0.0058892965
0.0022168397
-0.0025050559
-0.0019800693
0.0027857225
0.005502665
-0.0026339174
-0.011245012
-0.006025283
0.0011254181
0.0046336586
0.006044639
0.002734331
0.0017507103
0.001688423
0.001864925
0.0037480113
5.6433596E-4
-4.6566315E-4
0.0017478593
8.4622833E-4
0.001051191
-3.5560664E-4
-0.0017836572
-5.8124383E-4
8.025299E-5
0.0028758089
0.0035065457
0.0014424074
4.828764E-4
-0.0031979731
-0.0054465
-0.0037979938
-0.0023658187
-0.001683417
-0.0025964796
-0.003543047
-0.0023022245
4.571694E-4
0.0018805352
0.0015398666
0.0019083831
4.1273437E-4
-0.0019870691
-0.0015333919
-1.5412907E-4
6.7550194E-4
4.0181342E-4
0.0016907318
0.004402913
0.0038732027
0.0027993068
0.001903283
-4.918552E-4
-0.0013399691
2.337691E-5
0.0022545592
0.002890806
0.003385556
0.004454337
4.3044396E-4
-0.003969443
-0.004046466
-0.0048297513
-0.0043097096
-0.0016341918
3.6711092E-4
0.0023594208
0.0025119458
0.0012296267
3.2881708E-5
-0.0010562587
-6.4427697E-4
-9.3175645E-4
-0.0022247878
-0.0023973102
-0.0021488643
-0.0013535612
-0.0013229322
-0.0010074943
7.909451E-4
-4.2405594E-4
-0.0027812757
-0.00364732
-0.004445255
-0.001749773
0.0014083412
6.4245047E-4
0.001039564
0.0025560893
0.0023660492
0.0026566633
0.0032099548
0.0021460634
4.9246044E-4
0.0017897282
0.0056432094
0.0051183864
6.395776E-4
5.070509E-4
0.003922826
0.0058921482
0.0039299685
-0.0030751862
-0.0058930353
-5.22612E-4
0.0028653545
0.0032352798
0.0028572078
-2.6203548E-5
-0.0010684988
5.1948836E-4
-0.001060049
-0.006553474
-0.007683716
-0.002393405
-8.428657E-4
-0.002222587
-3.8845072E-4
-4.522125E-5
-0.0025742587
-0.0054741083
-0.008149919
-0.0083986465
-0.0052059777
-0.0017926312
-9.4628567E-4
3.300707E-5
0.0015784234
0.0019270962
0.0025636633
0.002487893
0.0014196787
7.4578926E-4
8.404932E-5
-3.113606E-4
-6.9864014E-5
0.0012644194
0.00200601
0.0023492454
0.005291337
0.009520979
0.012739836
0.013387329
0.0145759545
0.013764785
0.0017377897
-0.00811944
-0.006278281
-0.0045060427
-0.0036228583
-0.0043745986
-0.0062846923
-0.0046249614
-0.0056737983
-0.0073569333
-0.006376218
-0.005122528
-0.00218235
-0.002332183
-0.0030718595
-0.001591233
-0.0040364694
-0.005281293
-0.003170749
-0.0018064984
4.3682073E-4
0.0030298762
0.005258763
0.006305059
0.005867271
0.004580898
0.002515684
0.0019799669
6.640112E-4
-0.0014403166
-7.294008E-4
-5.199458E-4
-3.3756567E-4
6.320619E-4
5.772327E-5
2.4889823E-4
-8.3180727E-4
-0.0025988405
-0.0012512194
-0.0017236599
-0.0032314053
-0.0015326086
-5.582198E-4
-1.6421652E-4
0.0013420276
0.001111415
0.0012130721
0.004129082
0.0077992263
0.010938987
0.009950285
0.005318579
0.0027244992
-8.785617E-4
-0.0046806135
-0.0036625105
-0.0038675366
-0.005150031
-0.004620075
-0.0062445034
-0.005922874
-0.0025763935
-8.379781E-4
-2.210084E-4
-0.0017673199
-0.0039051557
-0.0036273843
-0.0024513956
-0.0015442903
-0.0016463293
-0.0015134386
1.1983198E-4
0.0028676388
0.0050500333
0.0036069034
0.0018145076
0.0016630052
8.4872334E-4
0.002118459
0.0034084544
0.001383621
2.623694E-4
0.0012424574
0.0024045648
0.0019011826
-6.6899275E-4
-0.0022206877
-0.0027715995
-0.0038634448
-0.0030202607
-2.1158697E-4
0.0012286551
0.0022400222
0.0038388898
0.0037436069
0.0017770744
-0.0020146575
-0.0049443915
-0.0022736182
0.0027308643
0.00411666
0.0016537156
-9.1942475E-4
-0.0013181554
0.0011598753
0.0065169362
0.007566841
0.0040802457
0.0032145197
-0.0013984635
-0.008656454
-0.0096127875
-0.009392097
-0.006387341
1.8809819E-4
-4.1481576E-4
-0.003433493
-0.0019431959
-0.0013869226
-0.001860261
-0.0021915503
-0.0031501767
-0.001387384
0.00221063
0.0041670455
0.005383202
0.00523953
0.0044256826
0.0053406768
0.0029626428
-0.002072069
-0.0013864624
0.0014150817
0.0023942813
0.0040499745
0.002610101
-4.7879628E-4
-5.5077E-4
-1.8987365E-4
5.832286E-4
-1.3770424E-4
-0.003051146
-0.0017900344
6.3320505E-4
9.977369E-5
4.670145E-5
-8.025895E-5
-2.9467164E-5
7.027644E-6
-0.0024624404
-0.0045609805
-0.0035052318
-2.8651234E-4
0.0019758625
0.0019836556
0.0016469907
0.0010710306
6.9337036E-4
1.2892774E-4
-5.3218275E-4
3.376387E-4
4.190595E-4
-1.7405688E-4
-0.0018087438
-0.005198749
-0.004839255
-0.0027466058
-0.0024433876
-0.0013154582
-3.3761724E-4
0.0011056522
0.002444133
0.0029266982
0.004730491
0.0043093213
0.0021713278
0.0021529293
0.001941988
-9.818208E-5
-0.0024656996
-0.002035063
-9.998472E-5
-7.368695E-5
-1.7508659E-4
8.4957655E-4
0.0015687364
-5.508312E-4
-0.00227896
-2.4819493E-4
-0.0011583129
-0.0026807112
7.212071E-4
0.0031711815
0.003508681
0.0023305223
2.268502E-4
-6.50123E-4
-0.002938477
-0.0030281027
4.179076E-4
6.903552E-4
4.760346E-6
0.0013232885
0.0022915136
0.0022466702
7.240378E-4
-4.088174E-4
-6.979277E-4
-0.0027975873
-0.0036204774
-0.0020764093
-0.003358865
-0.004295853
-0.0020568068
-0.0018121162
-0.0011179849
2.8948687E-4
-0.0013684906
-8.4663567E-4
9.3543716E-4
0.001398891
0.0040730657
0.005288615
0.004815581
0.006141431
0.0052435366
3.0723968E-4
-0.004408263
-0.0038901807
-9.145454E-4
-0.0017327741
3.1726581E-6
0.007654842
0.008382332
6.1569095E-4
-0.0030940527
-0.005281137
-0.009958168
-0.0075581837
-0.001447944
7.807361E-5
8.794889E-4
0.0016396998
0.0024280003
0.0027103731
-6.178956E-4
-0.0029505386
-0.002474229
-0.0014832082
9.7358774E-4
0.002943514
0.0032720545
0.0038236554
0.0042227013
0.0026591409
3.5011597E-4
-9.0521766E-4
-0.002474454
-0.0025979327
-4.1685416E-4
0.0012406468
0.0021750962
0.0011618237
5.4680085E-4
0.002136914
2.2514032E-4
-0.0030211818
-0.0040372396
-0.0051961266
-0.0040504313
-0.0010039421
0.0014113798
0.003875834
0.0041183643
0.001132097
-0.0024401038
-0.0032059036
-0.0023809643
-0.0036470005
-0.0027268587
-3.761427E-4
-0.002121498
-8.1818475E-4
0.005190066
0.0068272348
0.0041031437
0.0017308582
0.001656859
0.0018401502
-8.929888E-4
-0.0024792592
-2.1838234E-4
0.002440133
0.0038742877
0.0034082225
0.0014715561
-4.4086936E-4
-0.0016792536
-0.001786239
-0.0014559741
-5.763292E-4
6.948201E-4
0.0010030328
0.0015765281
0.0025969632
0.0015487635
-0.001980462
-0.006567839
-0.009754778
-0.008125546
-0.0033811994
-0.0011432823
5.309447E-4
0.003681975
0.0033893466
0.0010207287
-4.6623437E-4
-0.0019026793
-0.0012059564
6.4293225E-4
0.0016656396
0.0017978647
9.771322E-4
0.002385286
0.004334183
0.0030085624
0.0010198919
6.327523E-4
0.0010621479
-1.0855385E-5
-5.809073E-4
0.0016019818
0.0018882623
9.299232E-4
0.0010438542
9.102777E-5
-9.905364E-4
-0.0018864592
-0.0016182399
-7.213884E-4
-0.0010265192
-2.9895332E-4
-0.0023482481
-0.0055549596
-0.0020959093
2.2847565E-4
-0.001401327
6.272497E-4
0.0027179117
0.0010418077
-0.0013099753
-9.7301265E-4
0.0012577907
0.0016124393
0.0017739679
0.0022534502
6.169071E-4
-0.0017092362
-0.003895152
-0.0032859086
5.063688E-4
9.1344264E-4
-5.329298E-4
0.0014248594
0.0036185393
0.0041997544
0.0024400183
-0.002193056
-0.003487923
-0.0015742343
-0.0021082852
-0.0019521413
6.883039E-5
0.0018607762
0.0038906992
0.0027142179
-0.0015012416
-0.0035670155
-0.0023128656
-4.7650808E-4
-3.9526518E-4
9.1587636E-4
0.0020599738
-3.1775446E-5
4.5418282E-4
1.67747E-4
-0.0031687615
-2.1850337E-4
0.0030660576
5.709203E-4
-0.0010803024
-0.0019001556
-0.0014510613
5.54823E-4
0.0011526215
0.0016794343
6.5487134E-4
-0.0016975806
-0.0022585292
-0.0019410531
-2.6993142E-4
0.0015800098
0.0018229837
0.0028715245
0.003432571
0.0010917222
-5.423454E-4
1.7885928E-4
-6.9270126E-4
-0.0019560726
-9.113159E-5
0.0012445664
0.001134853
0.0027207113
0.0037521196
0.0014520149
-0.0019096662
-0.0032457549
-0.0040528327
-0.003934812
-0.0020045128
-0.0022184886
-0.0017347955
4.644321E-4
-7.065795E-5
-2.6297063E-4
-0.001043825
-0.0022512567
-4.8359888E-4
-6.834864E-4
-5.890656E-4
0.0017397149
0.002267074
0.0039190953
0.0037753372
7.448636E-4
0.0010345436
0.0016761209
7.721855E-4
-1.2386891E-4
-0.0011557827
0.0017244356
0.005522155
0.0038899446
0.002192379
0.0017520825
-0.0020750347
-0.004408302
-0.0035894243
-0.0040034796
-0.0046738973
-0.0039822115
-0.0012437854
0.0011742876
0.0014293306
7.500811E-4
-0.0020431327
-0.0026677244
-0.0011026873
-0.0025241035
-0.0021356293
3.9471922E-4
0.0031088598
0.0039460137
7.3312275E-4
0.0021326698
0.003859487
4.7319682E-4
4.0960216E-4
8.691568E-4
4.8588967E-4
-0.0013415205
-0.0037814733
0.0017516515
0.0049201814
0.0012624358
3.2159098E-4
-0.0014755996
-0.0030904429
-0.0015576662
9.6058036E-4
0.002513615
2.543566E-4
-2.92711E-4
0.0017090186
0.0016714598
9.723545E-4
-9.5462165E-4
-0.0025560977
-0.0030236088
-0.002764839
-5.724706E-4
1.0755339E-4
3.269589E-5
2.917426E-4
-7.3144893E-4
-8.073903E-4
-7.449127E-4
-2.0827429E-4
4.023447E-4
-0.0020119955
-0.0023914205
8.084233E-4
0.0015654489
9.586735E-4
0.0015855068
0.0011253449
7.3609006E-4
0.0010555332
-3.516553E-4
1.875154E-4
0.0021660537
0.0010583705
0.0012267141
0.002916728
0.0022411905
4.3079854E-4
-0.0014321061
-0.0020907186
-0.0023147976
-0.0019615444
2.8930668E-4
3.3125046E-4
-9.85223E-4
-4.0863302E-5
2.143988E-5
-9.948409E-4
-8.584224E-4
-0.0016281158
-0.0031456556
-0.0023980078
-6.374407E-4
1.7418005E-4
0.0012309222
0.002285295
0.0018155148
-4.3284573E-4
-0.0015758201
-4.7273413E-4
-6.247479E-4
-8.3633076E-4
3.9546684E-4
6.998433E-4
0.0013416875
0.0021752217
0.0021801423
0.0027021938
0.0030564046
0.0031821185
0.0027311128
8.64281E-4
-1.7090639E-5
3.0272853E-4
-0.0013551911
-0.0027263174
-0.001226729
-0.0017730102
-0.0022996922
3.31873E-4
-0.001559626
-0.0040348237
-2.9654216E-4
0.0024829023
0.0012917623
-0.0029559557
-0.00504513
-5.895091E-4
0.001389744
1.8523276E-4
3.4834907E-4
2.490502E-4
0.0022038864
0.0014939032
-0.0022251338
-6.824882E-4
0.001064838
9.643912E-4
7.3307374E-4
-0.0030918443
-0.0042726244
-0.0011027049
1.0572109E-4
0.0012584991
0.003812063
0.003952433
8.753552E-5
-0.0027387273
-0.0017527248
-0.0011596788
-6.999725E-4
-4.232615E-4
-7.6254184E-4
0.0020022022
0.004449237
0.004335479
0.004049015
0.001979845
4.7454197E-4
0.0010266714
6.143021E-4
4.4513738E-5
1.9561136E-4
9.39121E-4
0.0010596009
-6.1546586E-4
-4.9388775E-4
6.5370585E-4
-0.0017502942
-0.0038605689
-0.0034519704
-0.0044568754
-0.004023324
-6.8815553E-4
0.0015008623
0.0031753876
0.0012092572
-0.004520625
-0.0045940774
-0.0022843394
-0.002682649
-3.4360174E-4
0.0019204454
6.33933E-4
-4.9340806E-4
1.4330163E-4
0.0020106165
0.0023148947
6.780357E-4