-0.004934384
-0.00364763
-0.0029571718
-0.0033214698
-0.0032548346
-0.0032600902
-0.0033279897
-0.002507267
-0.0030275497
-0.0031544953
-0.0016407806
-0.001445729
-9.0156944E-4
-0.001710821
-0.0041163876
-0.0013003955
0.0024052751
0.0014966334
7.6896534E-4
-2.3884313E-4
-0.0024656204
-0.0016918576
6.035857E-4
0.0018083141
0.0031023999
0.0038361943
0.0034496353
0.0023281774
5.457745E-4
-7.3571704E-5
3.931053E-5
-8.596446E-5
0.0014339561
0.002704085
0.0016923888
0.0013880018
0.0023534198
0.0024962246
0.0021433898
0.0011819681
-0.001145079
-0.0018195916
1.03622944E-4
5.805485E-4
-3.3168914E-4
-6.751445E-4
-0.0010959258
-0.0013692263
-0.0010628828
-2.8309308E-4
-2.859907E-4
-4.2192507E-4
7.562397E-4
9.849849E-4
0.0011687484
0.0014416795
3.6193247E-4
-0.0011595335
-0.008423076
-0.014648429
-0.0065999757
0.0021725604
0.0026071332
0.0042083138
0.0047855927
0.0033697304
0.0046944777
0.0044457545
0.0013124152
5.5298748E-5
5.8410624E-5
-0.0014037432
-0.0010856926
0.0016578888
0.0018484556
0.0010851752
0.002057373
0.0020687487
-3.652087E-5
-0.0022909879
-0.0018525887
-0.0013453865
-0.0027991764
-0.0017605821
-1.1121605E-4
4.2017602E-4
0.0016965813
3.2892838E-4
-0.0012290141
-8.902979E-4
-0.001959933
-0.0020224613
-0.002030092
-0.0022991046
-2.2754169E-4
2.1279506E-4
7.880175E-4
0.0027312879
7.0990645E-4
-0.0013290595
6.1174366E-4
0.0023667442
0.0018257444
0.001366376
0.0020256354
0.0022882032
0.0023717126
6.93367E-4
-0.001960365
-0.0021436596
-0.0030323649
-0.003103823
-4.2742325E-4
2.4894628E-4
9.2856376E-4
0.0017014856
5.999679E-4
3.823028E-4
2.9734292E-4
-1.8130073E-4
-0.0019768402
-0.0034558491
-0.0019194424
-0.0018715045
-0.0012021438
0.0015248379
0.0012096842
4.725312E-4
-3.922937E-4
-0.0019703114
-0.0011410682
4.730006E-4
0.0018807433
0.0023319647
0.0019902957
0.0024589677
0.002239254
0.0011293148
-4.010827E-4
-7.345456E-4
5.5590295E-4
5.533517E-4
0.0010887898
0.0023517983
0.0015351166
0.001056459
0.0015627888
3.280077E-4
-0.0019372648
-0.0026253297
-0.0032295948
-0.00388168
-0.0017219877
-3.861742E-4
-7.564613E-4
-2.2954818E-4
-0.0010149931
-6.774551E-4
1.6855431E-4
-0.0019217886
-0.001767272
2.3498635E-4
9.061922E-4
0.0023275346
0.0032751083
0.0031146945
0.002118918
-5.0416955E-5
-9.3326956E-4
-4.4113255E-4
-5.637724E-4
-0.0013250754
-0.0014139694
-1.658649E-4
3.275688E-4
1.5060528E-4
0.0015567872
0.0019370894
-9.8670325E-6
-0.001551946
-0.0025752068
-0.0027472405
-0.0014391514
2.940922E-4
0.0016347002
0.0016093396
0.001484074
0.0013163425
-7.235585E-4
-0.0022199918
-0.0016681876
-2.8036306E-5
9.4745035E-4
-1.9748395E-5
-1.6892442E-4
9.340841E-4
0.0019067571
0.0021630134
6.236981E-4
-6.026267E-4
-4.7016868E-4
6.821198E-4
0.0012272402
4.4322176E-5
9.271858E-4
0.0020358092
0.0011711378
9.895229E-4
7.8474614E-4
-3.8982063E-5
-0.0018558109
-4.48088E-4
0.0024944004
-4.1401974E-4
-4.699415E-4
0.0016856923
2.8363147E-4
0.0012001395
-6.798698E-4
-0.0024031536
-0.0044912426
-0.014161927
-0.011900951
2.3017675E-4
0.003511062
0.003999407
0.0024721536
0.0016558762
0.003750185
0.0015111511
0.0010120275
0.0017345122
-5.106621E-4
-1.7081307E-4
0.0012564744
0.0021466068
0.0016690363
-3.0279654E-4
-3.694893E-4
-8.979255E-4
-0.0028326046
-0.003017474
-7.4172835E-4
0.0012272035
0.0014896822
0.0029377565
0.0029618375
4.5101516E-4
-7.730745E-5
-9.0411406E-5
4.1202366E-4
0.0017643198
0.0014128047
0.0010986084
6.976668E-4
2.183908E-4
0.0010425134
0.0013348777
0.0014205627
0.0012413196
5.554956E-4
9.1563334E-4
0.0017223668
0.0026321714
0.0020511788
-2.5836527E-4
-0.0010106133
-9.667119E-4
-0.0032196725
-0.009497313
-0.013932383
-0.010248029
-0.00795894
-0.008078675
-2.815799E-4
0.006414324
0.005435084
0.0046801353
0.0035105187
0.0010997767
4.3713712E-4
0.0010671078
0.0031470335
0.004210766
0.0027776617
0.0023963095
0.00330786
0.0029735873
0.0019440978
0.0017073054
0.0016543156
0.0010887043
5.3372636E-4
0.0011882822
0.0019084468
-7.3096744E-5
-0.0013099472
1.6761517E-4
-9.2436426E-4
-0.003452795
-0.0034973128
-0.0026617951
-0.0015114836
-9.512509E-5
8.123018E-4
0.0013666294
0.0015848362
0.0012511644
4.500423E-4
8.413566E-5
-8.8151894E-4
-0.0016177258
0.0011935015
0.0034028264
0.0017984223
8.4752095E-4
0.001651806
0.0014857347
-0.001209074
-0.0039107106
-0.0047712787
-0.005877082
-0.0039308867
5.0970446E-4
1.4172976E-5
-8.4309134E-4
0.0022723228
0.0026429503
4.5542183E-4
-2.6161028E-5
2.3523642E-5
3.6990337E-4
9.3572785E-4
3.235856E-4
-4.699188E-4
-0.002003796
-0.0046380516
-0.00499894
-0.004199277
-0.004227304
-0.0026152171
-9.472917E-4
-3.960308E-4
7.2749244E-4
0.0010601383
9.7135984E-4
3.2115806E-4
-0.0012090887
-1.5129632E-4
0.0018358706
0.0015411938
0.0012732894
0.0023724006
0.003915174
0.0048179817
0.005151117
0.005301265
0.0053482684
0.0077049397
0.010236182
0.008544377
0.007472012
0.008314305
0.00580599
0.0027686828
3.3755563E-4
-0.0037982597
-0.0060627125
-0.0070751705
-0.008990405
-0.009675398
-0.009473685
-0.007897217
-0.005965503
-0.0057419664
-0.0054259035
-0.005538263
-0.005963059
-0.006102664
-0.007969317
-0.009506755
-0.007970881
-0.004761416
-0.0028481751
-9.360056E-4
0.004052759
0.007722825
0.007434503
0.006664238
0.0060856515
0.005346954
0.0050584637
0.006321612
0.0077758376
0.0067915493
0.005547362
0.005392353
0.0045287684
0.0029394734
0.0015301238
1.4754149E-4
-4.5440858E-4
6.222593E-4
0.0013286251
0.002071041
0.0026097114
5.397478E-4
-6.147708E-4
-9.758115E-4
-0.0023405754
-0.0027990257
-0.0031747257
-0.0018842184
-0.0011970724
-0.0024410207
-0.0017232869
-0.00255505
-0.003476515
-0.0033007867
-0.004467331
-0.0031727513
-0.0017044783
7.024869E-4
0.0012137588
-0.0021660517
0.001774469
-8.5560157E-4
-0.010914251
-0.0037239462
0.0026869474
-0.0030901025
-0.0024630404
0.001016155
0.0021013042
0.0023438605
0.0013426924
0.0025501116
0.0036812662
0.001927276
-8.315462E-5
-1.52485845E-5
4.4898278E-4
0.0010628578
0.0033517622
0.0037793934
0.0039819404
0.0051612575
0.0031001093
0.0017744367
0.0015232218
-0.001854598
-0.0043474417
-0.0024559032
9.7500056E-4
0.0018226664
0.0011308392
9.340972E-4
4.3984049E-4
-5.3411414E-4
-0.0020772158
-0.0023271546
-0.0014714254
-0.0020119664
-0.002623901
-0.0024124866
-9.171874E-4
8.2949887E-4
9.216496E-4
6.10992E-4
-3.5417808E-4
-5.282603E-4
0.0010848795
0.0014707883
0.0011608951
2.2778525E-4
-0.0013461494
-0.0010974219
6.030886E-4
0.002383273
0.001716001
-0.0011397861
-0.0022540078
-0.0026650606
-0.0033595222
-0.0023603288
5.7566307E-5
0.0021737465
0.002561745
0.002204885
0.0013203706
-4.5068646E-4
-9.446294E-4
-0.0013520477
-0.0017400655
2.712574E-4
0.0011441911
5.3728465E-4
0.0014613658
0.0022584228
0.0010822081
-0.0019700204
-0.0024289798
-6.9599936E-4
-6.3858624E-4
0.0018413061
0.0024372998
-2.170978E-4
0.0018143826
0.0019293944
-4.711347E-4
9.7952696E-5
5.7372416E-4
1.9765501E-4
-0.007094536
-0.01297744
-0.003988538
0.0035104423
0.002991723
0.0039570853
0.0034134886
3.7234818E-4
-0.0013546553
-7.7856566E-5
0.0014915952
0.0019353649
0.002846668
0.001378852
6.552899E-4
0.0010982638
-0.0027584669
-0.0053376188
-0.004017462
-0.0017279248
0.0011104627
0.002027658
0.0012069957
0.0010051493
0.0022926212
0.0015883518
-0.0016195601
-0.001682457
-0.0014478407
-0.002192395
3.036686E-4
0.0033136283
0.0047371937
0.0036439765
0.0015089479
9.373122E-4
-4.3985035E-4
-7.96404E-4
-3.2916685E-4
-0.0015215401
-7.9716014E-4
4.9440056E-4
2.6321085E-4
7.3308336E-5
2.933444E-4
0.0012506488
-8.268879E-4
-0.0041547585
-0.003035653
-0.0020472447
-0.0013713457
0.0010463727
-3.940033E-5
-0.0012397543
1.5160337E-4
-8.2718674E-4
-0.00181822
-0.0012178425
-8.0892484E-4
7.343869E-4
0.0018097268
0.001805633
0.001909702
0.0010103337
5.215857E-4
0.0011877895
1.6433056E-5
-0.0020912834
-0.0015336131
-1.4156903E-4
4.5212355E-4
0.001361941
0.0012472464
0.0012731671
0.0023052122
0.0019416476
9.5865724E-4
3.9749616E-4
3.3573774E-4
2.0393742E-4
-1.9836842E-4
-1.2362345E-4
-0.0013574433
-0.0014890122
8.0705323E-4
8.155553E-4
-4.2923985E-4
-0.0014811308
-0.0028270949
-0.0036776455
-0.00419976
-0.0017601743
0.0019916221
0.0032169523
0.0032589447
0.001961572
2.655943E-4
-7.841721E-4
-0.002262188
-0.0025412026
-7.5334165E-4
0.0010797598
0.0013720089
0.0017172312
0.0021692277
0.0017262797
0.0020961687
6.5876584E-4
-0.0020628024
-0.0011045499
6.373522E-4
0.0011810483
0.0028510427
0.0038429613
0.0016344446
6.189841E-4
-5.807051E-4
-0.010659648
-0.0148177715
-0.0033787882
0.0022311355
9.780938E-4
0.0027822964
0.00191654
0.001591709
0.0026719945
6.244829E-4
-0.0024313258
-0.0051861205
-0.0042695664
-2.996158E-5
0.003023587
0.0042364653
0.004261983
0.005085395
0.0042359103
3.7098893E-5
-0.002932297
-0.0040063956
-0.0023003232
0.0018033795
0.0032479267
0.0026308477
0.0027345426
0.0031019074
0.002490193
8.158314E-4
-2.9661664E-4
-7.686658E-4
-1.7103486E-4
0.0017100639
0.0018204711
-2.8613416E-4
-0.0024436647
-0.0035735066
-0.0032067432
-0.0032587817
-0.005027796
-0.0059702527
-0.0046402276
-0.0023581556
-3.481231E-4
5.703186E-4
0.0014575011
0.0032959725
0.0034195222
0.0016133239
3.2382557E-4
8.2512415E-5
0.0019876182
0.0027259071
1.5330364E-4
9.155566E-4
0.0037655295
0.004403399
0.0055668945
0.004027632
-7.3999795E-4
-0.003138837
-0.0028599447
-3.6817315E-4
0.0011403885
-0.001198742
-0.0038523306
-0.0046259803
-0.0031665745
-0.0019314776
-0.0030529362
-0.0038851162
-0.0033475077
-0.0022600205
-0.0029359711
-0.0043693115
-0.002791669
-1.459393E-4
0.00451805
0.011744961
0.015240828
0.013602216
0.009347022
0.00467489
4.8345188E-4
-0.002119123
-0.001248971
-0.002043185
-0.005118295
-0.0034134288
-3.5047744E-4
-0.0022205554
-0.005678987
-0.0064606983
-0.0065626483
-0.007631848
-0.0062265857
-0.0030015102
-0.0017547547
-0.0011854806
-0.0010585833
-0.0038741305
-0.007074847
-0.005928325
-0.0019759666
9.4181014E-4
0.0032795502
0.005888857
0.0076673427
0.007956537
0.007450323
0.006769504
0.006367064
0.007089628
0.0064180573
0.003338903
0.002769469
0.004279003
0.0040254006
0.0036380226
0.002304117
-0.0020862527
-0.005957273
-0.006810061
-0.0054076775
-0.0036464515
-0.0043236706
-0.0059207347
-0.0053333347
-0.004493945
-0.005195641
-0.0046585924
-0.0028762466
-0.0035519428
-0.004001019
-0.0012766013
0.0019837138
0.0044200914
0.0037637372
0.0030042122
0.0042022816
4.0448026E-4
-0.0027461157
-7.2467804E-4
0.0022343632
0.007924837
0.0033935276
-0.009192451
-0.004088719
0.006105879
0.0040554293
0.0021472203
0.0017260523
1.2949287E-4
0.0011604396
0.0029803659
0.0032021606
1.9403177E-4
-0.0042670877
-0.0063657523
-0.005806504
-0.003866723
-0.0016390559
9.278535E-4
0.0023207723
0.0020439737
0.0030374622
0.004554036
0.0044122552
0.0026350645
-3.4276675E-4
-0.0017451684
-2.891649E-4
0.0011250679
0.0011805948
0.0012133876
0.0010147516
-8.0418837E-4
-0.0024353545
-0.0021746429
-0.0025862143
-0.0037645793
-0.0037500302
-0.003546801
-0.0032564758
-0.0026984198
-6.492409E-4
0.0026850489
0.0011581089
-0.0031683673
-0.0033014743
-6.386038E-4
0.003844447
0.0073316568
0.0058344677
0.0023616836
7.0145057E-4
0.0029110196
0.0050621796
0.002859422
7.6028146E-4
0.0011230995
0.0016227562
-0.0014876081
-0.006388095
-0.0051684664
-0.0015339487
-0.0017228642
-0.0030796377
-0.0039892555
-0.0043160585
-0.0037350613
-1.4610904E-4
0.0031365703
9.680521E-4
-1.7333133E-4
9.7570947E-4
3.254618E-4
1.14570044E-4
-2.7060832E-4
8.7374065E-6
0.0010025402
3.1474297E-4
0.0010181763
0.0025277983
0.003387525
0.0054139923
0.004966145
-4.58306E-4
-0.0049163485
-0.0046718223
-0.005660628
-0.009064075
-0.00834515
-0.0036259645
0.001510676
0.003542089
0.001027285
-0.0012444602
-0.0014953474
-7.170546E-4
7.2857924E-4
0.0013399324
0.003289469
0.0045686597
0.0018928358
0.0036264984
0.00982525
0.01240077
0.01379368
0.0130308205
0.011220114
0.014379271
0.014545778
0.0077931606
6.0541887E-4
-0.0039204694
-0.0055527664
-0.008042834
-0.009018877
-0.008044398
-0.010267672
-0.010796096
-0.012754405
-0.019454893
-0.02338809
-0.026599381
-0.02905344
-0.030657293
-0.034798477
-0.036086973
-0.032017246
-0.020628752
-0.0039552744
0.009516897
0.020637887
0.03092751
0.03929637
0.042484872
0.03726679
0.031203128
0.02525261
0.014300751
0.0070214258
0.014065821
0.028010232
0.031649128
0.025915656
0.022184873
0.019012881
0.011773463
0.004212789
-0.0030139785
-0.017412055
-0.033645816
-0.03931848
-0.03709816
-0.035897225
-0.036201525
-0.027099835
-0.015326842
-0.01530601
-0.012994943
-0.008534669
-0.009859405
-0.009006428
-0.015170665
-0.025046548
-0.022558907
-0.0028082142
0.03195356
0.055320546
0.06244439
0.067635626
0.060844373
0.049733516
0.044429936
0.03804491
0.02550764
-1.4085657E-4
-0.02420207
-0.03167658
-0.024960032
-0.01607805
-0.032145735
-0.061268244
-0.06533858
-0.049007557
-0.030560574
-0.003189769
0.021314068
-0.0022032503
-0.050071318
-0.053902388
-0.032324098
-0.03622625
-0.060412016
-0.06564844
-0.051675234
-0.028294394
0.044096604
0.11786326
0.13743746
0.16446216
0.18054359
0.15067531
0.09570571
-3.3076847E-4
-0.08672872
-0.13636303
-0.16775085
-0.1295197
-0.045883615
0.02149542
0.067673564
0.08467186
0.087903924
0.09130683
0.06375868
-0.04057275
-0.16114978
-0.20396692
-0.23250431
-0.23967068
-0.14462325
-0.024200613
0.09360909
0.22835755
0.3146011
0.32081315
0.24616314
0.10434338
-0.06462478
-0.1728419
-0.15645733
-0.123986594
-0.15481116
-0.1626656
-0.077273525
0.06344224
0.15305625
0.1725508
0.167656
0.100553825
-0.03547668
-0.1612571
-0.2078606
-0.17484176
-0.11712849
-0.054366264
-0.0018799513
0.01644677
0.02701015
0.045483094
0.06901824
0.091988325
0.09618
0.087888226
0.06918584
0.036249008
0.010646083
0.0033125062
0.0012408231
-0.00679221
-0.0059638303
0.0067455973
0.004309832
-0.0066419886
-0.008621492
-0.0073036514
-0.009654173
-0.026104739
-0.04361684
-0.045273833
-0.03944967
-0.026932243
-0.01674535
-0.012317365
-0.0063473997
-0.015077702
-0.020986682
0.0016592415
0.018160086
0.001498901
-0.031090964
-0.04214421
-0.019827567
0.0035331307
0.024183014
0.051432982
0.059724152
0.042980608
0.018440597
-0.003361059
-0.0042819725
0.021441942
0.042278748
0.04279825
0.039121788
0.019280098
-0.019193226
-0.03245583
-0.0048215203
0.025376258
0.021937547
0.0020560422
-0.0033756262
-0.011940307
-0.03831582
-0.059709657
-0.05783122
-0.03827783
-0.020194627
-0.0095602
-0.0014367045
0.0026057214
0.003453052
0.0029998973
-0.0027616385
-0.014293182
-0.01703077
-0.004675188
0.007301056
0.017404001
0.027390374
0.0280539
0.02705156
0.028798308
0.027147848
0.026239973
0.025395611
0.018874943
0.008650124
-0.0011635657
-0.008400806
-0.011259884
-0.009108412
-0.004055094
0.002428578
0.008384522
0.010865269
0.009392035
0.005756151
8.422167E-4
-0.009279182
-0.022554753
-0.0289526
-0.027648652
-0.022802547
-0.01588629
-0.0073311534
0.0028762573
0.006649122
-0.0016227105
-0.011936219
-0.014390777
-0.010381603
-0.007933331
-0.008632929
-0.004929531
0.0015650347
0.0028610493
0.003164928
0.009127653
0.017524175
0.022019856
0.01963737
0.017257167
0.020115433
0.018385652
0.013301057
0.016110703
0.018544992
0.016256897
0.017315406
0.016188204
0.01099335
0.0073004426
-0.0044484045
-0.02688029
-0.042160433
-0.0429139
-0.0404902
-0.042203423
-0.043542944
-0.039235137
-0.03148605
-0.023402074
-0.012700488
-0.0023465476
-0.0019416298
-0.009288946
-0.009183784
0.0025805554
0.015047111
0.024121627
0.029706184
0.02759896
0.024125613
0.024329446
0.020126527
0.011521552
0.007878914
0.012910957
0.02235025
0.026974916
0.019648176
0.0045873593
-0.0038376756
-0.0017695872
-0.0010466701
-0.004687805
-0.005528917
-0.004658331
-0.0054773255
-0.00465067
-4.794447E-4
0.0012038539
-0.008126942
-0.02145572
-0.020048052
-0.010123204
-0.0071273465
-0.0053474437
-0.004065708
-0.005275061
-0.002471962
-5.9618196E-4
-0.0035420507
-0.0074486337
-0.011408495
-0.013374227
-0.01256241
-0.00848466
-0.0033014563
-0.0014361955
-6.102892E-4
0.001264031
0.0045142355
0.0072587
0.006697238
0.007035191
0.009607666
0.013883112
0.019761767
0.020382574
0.017483903
0.020079954
0.023747234
0.019939708
0.0107350005
-8.276786E-4
-0.010733239
-0.0091546215
-0.0017025297
-0.0014229233
-0.0045656087
-0.0072637442
-0.008226706
-0.0043955375
-0.0015288303
-0.003380888
-0.0084951725
-0.013849255
-0.012947273
-0.007203667
-0.0036670894
-0.0027070087
-0.0017326489
-4.4357125E-4
3.5030433E-5
-0.0015482104
-0.0030941244
-0.0029091637
-0.003864671
-0.002039628
0.0052677398
0.009073656
0.009367143
0.010530219
0.009468031
0.006589136
0.0031616483
0.0017165181
0.003579063
0.003647913
0.0019908273
0.0021488972
0.0035829875
0.0038786698
0.0025854022
0.0014343468
5.0312123E-4
1.9698222E-4
1.8419053E-4
0.0011639923
0.0038721953
0.0035509833
0.0018615975
0.002367129
0.0015377197
-4.5077948E-4
-0.002320235
-0.0031876832
-0.0027115943
-0.0022675782
-8.204715E-4
1.9354076E-4
0.001111706
0.001780901
-0.0011139285
-0.0026164835
-0.0014996568
-0.0017701249
-4.1778947E-4
0.0023779054
0.0031933025
0.0027334336
0.002908081
0.002655902
5.0049246E-4
-0.0015446456
-0.0034044452
-0.0044384534
-0.002962496
-0.0020274543
-0.00243561
-0.002127277
-6.3082384E-4
9.900582E-4
8.794362E-4
3.0670722E-5
-6.210571E-4
-9.274432E-4
-5.437104E-4
5.936931E-4
0.003421392
0.0036402983
9.772127E-4
0.001950048
0.0025013152
-1.8646626E-4
-0.0016556032
-0.001980665
-9.992012E-4
-6.9121463E-4
-4.937397E-4
0.0029454043
0.0037981758
0.0020826205
0.0011532954
-0.0018600567
-0.0026158844
-0.0011210934
-9.2307787E-4
0.0015518928
0.0035928458
0.0041363575
0.0055862097
0.005726188
0.004894525
0.0024718624
-2.3686576E-4
-0.0016414218
-0.002465728
-4.7835815E-4
1.3678946E-4
-2.0646741E-5
0.0020322986
7.6227565E-4
-4.6717487E-5
-0.0018253906
-0.0064872177
-0.004940746
-0.0020168314
-1.9772878E-4
0.0022639649
0.0023415668
5.2280026E-4
-0.007920128
-0.011402613
-0.002634582
-5.14441E-4
-0.0021630551
2.3412022E-4
0.0014170213
0.0027851546
0.0027997838
0.0037778034
0.003541694
-0.0023545441
-0.005120556
-0.0050820042
-0.004885108
-0.0020613715
5.4790254E-4
0.0027644476
0.004466424
0.00560331
0.006390744
0.005825877
0.003954121
9.876506E-4
6.5318943E-4
0.001306537
0.0013474058
0.004057697
0.0044452427
0.0026980022
0.002102142
6.3519686E-4
-5.0128903E-4
-0.0031441837
-0.0042996765
-7.018477E-4
0.0012662971
0.001314476
8.279827E-4
4.1083285E-6
3.8555355E-4
-2.8392774E-4
-0.0025253121
-0.005516225
-0.006299751
-0.003628184
-0.0013451803
0.0011399905
0.0040705595
0.0051142657
0.0037164825
2.6061016E-4
-0.0034678045
-0.006591393
-0.0061694323
-0.0024582474
8.301391E-5
0.0026639032
0.0030339917
3.413606E-4
7.937289E-4
0.0017017232
-9.1667625E-4
-0.0043372638
-0.005846888
-0.0041727284
-0.0020752442
-0.0010460835
5.736103E-4
0.002050532
0.0024266345
0.0012107043
-4.612927E-4
-0.0017282995
-0.0026556433
6.180932E-5
0.004530956
0.0063101826
0.0073804455
0.0066101025
0.0037151212
0.0022517275
6.4449874E-4
-0.0014563953
-0.00320777
-0.0039940006
-0.0016852664
4.5961494E-4
0.001231293
0.0027490966
0.003888311
0.0036484008
-3.1924061E-4
-0.0039493525
-0.0030014869
-0.0035983901
-0.002899246
0.001523883
0.0025806017
0.0029385877
0.0027179597
-0.0018207785
-0.004634135
-0.0042870115
-0.0046446235
-0.0037610813
-6.470211E-4
4.782633E-4
7.5667584E-4
0.0035175763
0.003979125
0.001861966
7.6378565E-5
-0.0035492461
-0.0051238616
-0.0023699629
1.17855205E-4
0.0012954089
0.0014048204
9.2047884E-4
0.0012176298
0.0019455439
5.2337936E-4
-0.002742335
-0.0030318236
-0.00162657
-4.7070306E-4
0.001775305
0.0019088369
0.0020851213
0.003783307
0.0021388996
-1.2625784E-4
-0.0014213877
-0.0029888968
-0.0023060304
-3.5330106E-4
0.0019450958
0.0040131696
0.004045044
0.0027933074
5.195151E-4
-0.0022978317
-0.0046769027
-0.0061774715
-0.006521041
-0.006138008
-0.0048913993
-0.003677472
-0.002120089
-0.0012913181
-0.004687965
-0.007198265
-0.005772453
-0.0051507154
-0.003948293
-0.0011661905
0.0017223143
0.0049767257
0.005795053
0.004052078
0.0020518478
4.0541287E-4
-1.2663199E-4
-9.573979E-4
-0.0010149612
0.0022828274
0.0051858975
0.005564066
0.005943811
0.0058618286
0.004222421
0.0021381867
7.423074E-4
8.832587E-4
0.0023307349
0.0047974824
0.008195905
0.009477928
0.0072760144
0.0050992966
0.0039808154
0.0013697156
-0.002971317
-0.005759176
-0.0051795496
-0.004133244
-0.0046694893
-0.005251353
-0.0047703297
-0.0041931295
-0.005835981
-0.009830408
-0.0133611085
-0.014964791
-0.014799928
-0.013764484
-0.012981122
-0.01096453
-0.0066644195
-0.00218875
0.0014239005
0.0029325865
0.0011019883
5.6035054E-4
0.005043989
0.010354233
0.012523139
0.013273257
0.014250698
0.013302845
0.010491957
0.008270033
0.0058421995
0.004269624
0.0051468657
0.0063070036
0.007205099
0.0069625513
0.0051477137
0.0035182852
8.515819E-4
-0.0032244537
-0.006494781
-0.007760762
-0.0074964715
-0.0066530476
-0.004828148
-0.0035060348
-0.0029690154
-0.0010833653
-0.0012368466
-0.0051635
-0.007496038
-0.0059593297
-0.0041223257
-0.0027813723
4.6830645E-4
0.0024704523
0.0017740821
0.0014785834
-3.036462E-4
-0.0028794056
-0.0043412177
-0.0058809347
-0.0041716048
-4.444741E-4
1.6230946E-4
-5.1661274E-5
0.0015363287
0.0021671532
2.1166015E-4
-0.0011561412
-0.002318663
-0.0039653615
-0.0014992474
0.001943428
0.0031264634
0.0052067074
0.0063719605
0.00611126
0.0050585223
0.0031680514
0.0015272675
-0.0014487782
-0.0018466894
9.795725E-4
0.0014244401
0.0023232119
0.0035782182
0.002639973
0.0015053095
-0.0012479196
-0.004866567
-0.006802475
-0.0056666685
-0.002666923
-7.1239047E-4
0.0029819459
0.0051606917
0.0029051418
0.0032849829
0.0026480514
-0.0017053249
-0.0020526547
1.3520903E-4
8.36007E-4
3.7380148E-4
-2.77734E-5
0.0014809744
0.0026494137
0.0017034339
-0.001435998
-0.0065002325
-0.008327328
-0.0060466425
-0.003816491
-4.1654322E-4
0.0033022317
0.0046018353
0.004076325
-2.826946E-4
-0.005063215
-0.0056722523
-0.0074610496
-0.009192262
-0.006781439
-0.0037677174
-7.092026E-5
0.0033944652
0.004487909
0.004581104
0.0041003465
0.0034803026
1.2153228E-4
-0.0034302522
-0.0011066967
0.0011489994
0.0014665417
0.0041884757
0.0051739225
0.0028922753
5.2731857E-4
-0.0017433251
-0.0044171014
-0.005382412
-0.0034235923
-0.0013745333
5.583785E-4
0.002108376
0.0017267849
0.0025679208
0.004088096
0.002251822
-0.002281085
-0.0049169282
-0.0026747433
-5.866459E-5
0.0012852125
0.0037788483
0.004035627
0.0026210018
0.0022771582
8.254631E-4
-0.0016695014
-0.0037758404
-0.0040089567
-0.0026157964
-0.0012533676
8.5867266E-4
0.0015856724
2.9739834E-4
1.0518875E-4
-6.5477233E-4
-0.0028127145
-0.003973198
-0.0032681744
-0.0010262812
9.291295E-4
0.0023201606
0.003224268
0.0023919796
0.0015086891
4.5905946E-4
-0.0024732149
-0.004274737
-0.0028985324
-6.6965455E-5
0.0025753174
0.0039868653
0.0031494836
0.0014855751
0.0022950242
0.002850405
-8.0707215E-4
-0.004004246
-0.0029951513
-6.1645167E-4
0.0012895236
0.0032175875
0.0039882595
0.002785802
0.002038779
1.0578404E-4
-0.004474095
-0.005796514
-0.0038972127
-0.0024534701
-1.1558312E-4
0.0021269661
0.0032652926
0.0033521112
0.0017201486
4.35676E-5
-0.0017817939
-0.004053812
-0.003676798
-1.18996235E-4
0.0026530963
0.0034937318
0.004296226
0.0037283823
0.002304587
6.329417E-4
-0.0035341342
-0.0053221434
-0.002259344
-4.1712154E-4
-1.9112804E-4
0.0015451233
0.002838972
0.0023336422
0.003430812
0.0030351414
-0.0021242998
-0.0035195544
-0.004732452
-0.0106367385
-0.0072100093
0.0021858078
0.004332092
0.0042087273
0.0046492135
0.0029775172
-2.528052E-4
-0.0025269212
-0.0023255572
-0.0016703302
-2.3650477E-4
0.0015186433
0.0033493368
0.0054397304
0.003270696
-3.2607056E-4
-0.0021437749
-0.0043401374
-0.0027093834
0.0016499407
0.0035736612
0.0035024143
0.0028119362
0.0041395896
0.0034074283
-0.0018334147
-0.0034825024
-0.0025628062
-0.0028229184
-0.0015623673
-5.127657E-4
3.4848129E-6
1.4790364E-4
-6.934942E-4
0.0011138355
0.0022549569
-0.0010656812
-0.0036456543
-0.0034984767
-0.0012262699
0.001429235
0.0021632176
0.0036501857
0.0044322447
0.0024772172
5.459644E-4
-0.002217292
-0.0046880357
-0.0053361314
-0.004227704
-6.989514E-4
-1.6053721E-4
-2.7987588E-4
0.0040045436
0.004175686
0.0010239682
2.59102E-4
-0.0015993324
-0.0021580197
-9.4625884E-4
-7.71454E-5
0.003546648
0.0058082216
0.0038281912
0.0027939663
0.0017936546
-0.0014093934
-0.0036328775
-0.0034800402
-0.0014725326
8.858665E-4
0.0017760271
0.0023749452
0.0031381662
0.0028768533
8.6347456E-4
-0.0029536083
-0.005374403
-0.0051101916
-0.0035837258
-6.217132E-4
0.0017783093
0.0031435967
0.0038654844
0.002895334
0.0021836318
8.6647415E-5
-0.003949839
-0.005683653
-0.0048148725
-9.85377E-4
0.0025420038
0.0020501148
0.0018731282
0.0018041021
3.8196225E-4
-3.14658E-4
-0.0019027953
-0.003283494
-0.0018069339
0.0010038122
0.0025277059
0.0029209936
0.0036366673
0.0031972688
0.0016079824
-7.727757E-4
-0.0035533803
-0.0033473598
-0.0017519399
-6.2516413E-4
0.0012091105
0.0021868015
0.0028809658
0.0033681064
0.0019172612
-8.948509E-4
-0.0032924495
-0.0030961672
-0.0015131346
2.2642351E-4
0.0022790842
0.0031662597
0.004020428
0.0038639414
9.2334166E-4
-0.001800456
-0.0036158562
-0.0045902077
-0.0032597845
-6.895339E-4
7.4704987E-4
0.0012299174
0.0032431637
0.004509273
0.0015734698
-0.0028085457
-0.005027003
-0.005019135
-0.004564565
-0.0022488802
0.0019212166
0.0033652803
0.0031163713
0.0019328117
-9.693349E-4
-0.0021367862
-0.003587176
-0.004143131
-1.4364894E-4
0.0019019629
0.0018801623
0.0031918965
0.0026228428
0.0031028395
0.005051774
0.0023130493
-0.0027092483
-0.004212928
-0.0026446378
-1.4568878E-4
0.0026131358
0.003921373
0.0037974415
0.004353336
0.0031769804
-7.087958E-4
-0.0032184096
-0.0040170983
-0.0036450678
-0.0015730447
-4.1193125E-4
-5.510211E-4
2.2060383E-4
0.001087189
1.6478843E-4
-0.0020510487
-0.004085723
-0.0046565877
-0.002355035
8.7949296E-4
0.0026000394
0.0046268436
0.005762805
0.0040725213
0.002460259
9.356752E-4
-0.0018780841
-0.00426878
-0.0038552384
-0.0015763624
-0.0013762753
-0.0010182199
0.001774286
0.003690171
0.003333357
-0.0013014781
-0.0062268465
-0.0051096594
-0.0021187114
0.0012627636
0.0038576352
0.0030982196
0.0037740858
0.0032931445
-2.581157E-4
-0.0012440148
-0.0022392233
-0.0037901828
-0.0024059159
2.3226626E-4
0.0020454489
0.0022272086
0.003253523
0.004902774
0.003288636
4.143587E-4
-0.0014611575
-0.0022956522
-0.0016406231
-1.7106813E-5
0.0017878659
0.0016109847
9.301831E-4
0.0020052218
0.00103483
-0.0014140029
-0.0021269994
-0.0029540192
-0.0031230226
-0.0014822858
-2.6828886E-4
7.589605E-4