-0.0024410028
-0.0030441657
-0.0029672198
8.1853155E-4
0.0020332278
-8.761559E-5
5.4669654E-4
0.0019688436
4.1506827E-4
-0.0024403003
-0.0033878703
-0.0024384805
-5.754556E-4
0.002579374
0.0035776899
0.0019175202
0.0015229285
5.504915E-4
-9.992757E-4
-0.0015751763
-0.00262298
-0.0013251903
0.0013050544
0.0016182577
0.0014365844
0.0011985368
0.0015811572
0.0021088796
7.6555787E-4
-9.5004257E-4
-0.0026845906
-0.0026772285
-3.824625E-4
5.6139665E-4
6.477258E-4
1.1831993E-4
-0.0013935177
-0.0017751396
-0.0014289077
-0.0015479503
-0.0020890522
-0.0013646107
6.265496E-4
0.0017953239
0.0022956592
0.002400881
0.003147084
0.0032038155
7.8145275E-4
-0.0010250659
-0.0018580358
-0.001121058
8.3494204E-4
0.001333882
0.002577547
0.0028505006
0.0019486133
0.0021256441
5.5044953E-4
-7.753715E-4
-0.0019173964
-0.0015347262
0.0013155316
-6.6907925E-4
-0.0011454577
-0.0027044753
-0.0126570705
-0.009613451
0.0020144652
4.1481297E-5
-0.002229883
0.001334542
0.001416635
0.0014337522
0.002878546
0.0034527006
0.0035349012
0.002606663
6.709776E-4
-8.3062565E-4
-0.0010752957
-3.212957E-4
9.76874E-4
0.001811514
0.0022814574
0.0023410073
0.001315105
6.643374E-4
-1.9922869E-4
-0.0028008842
-0.0041386443
-0.0020052227
3.587982E-4
7.544601E-4
0.0010194711
0.0013118953
0.0016750218
0.0011937545
-0.0016275322
-0.002674206
-0.0023369673
-0.0028573468
-0.0013096769
-1.9859096E-4
6.147832E-4
0.0033870048
0.0041833976
0.002982846
0.0018122589
0.0010348234
-6.0499687E-4
-0.001896483
1.5543732E-4
-3.526174E-4
-0.0016774136
2.8844547E-4
-0.0018771491
-0.002365538
8.0130796E-4
-0.0015101553
-0.0026789545
-0.0013745544
-0.0013770458
0.0010641621
0.0017533887
2.603388E-4
0.00108158
0.0012864008
-4.1409623E-4
-0.0016327144
-0.0016458429
-0.0012211943
5.274104E-4
0.0020197213
0.0014819186
0.0025531445
0.0029603764
0.0016884198
0.0020013482
-4.5083725E-4
-0.0026125312
-8.5527654E-4
-6.200006E-4
1.19001954E-4
0.0012120559
0.0010921328
0.002518647
0.0018874482
-4.6785115E-4
-0.002121297
-0.0036986868
-0.002944609
-0.001752127
-9.1582193E-4
8.8510197E-4
0.00196742
0.0030837862
0.002608577
-1.2365109E-4
-0.0020526508
-0.003334707
-0.0030582054
-0.0016032684
-0.0012892034
-4.3982093E-4
0.0012743203
0.0013610066
-3.2887674E-5
-4.7486764E-4
-8.774705E-4
-0.0019386589
-5.866213E-4
0.0010998552
0.0010536063
0.002321829
0.003606056
0.0031046688
0.0026838665
0.002215962
-4.7034008E-4
-0.0040651145
-0.004301389
-0.0019190419
1.11490575E-4
0.0014410932
0.0021788173
0.0026520975
0.0018604286
9.646066E-4
4.5831333E-4
-0.0026914016
-0.0040506027
-0.0010680365
9.599562E-5
-2.6294435E-4
5.698003E-4
8.915244E-4
6.002236E-4
6.893581E-4
3.0100913E-4
-6.9661223E-4
-0.001259084
-0.0020604732
-0.0010336441
0.0013388525
2.7591284E-4
3.2080078E-4
0.0018025833
7.1925746E-4
0.0011844088
-0.0014910928
-0.0053213094
-0.0010589403
0.001671258
9.6781726E-4
0.0018799722
4.2661303E-4
8.168388E-4
0.0020145825
-3.525172E-4
-0.0022795335
-0.003226965
-0.0010279391
0.0014717047
3.6913677E-4
0.0013975465
0.001996266
0.0010280847
0.0013808555
-9.2767045E-4
-0.0019055101
-7.1812974E-4
-0.0015419639
-4.223986E-4
0.0011178838
0.0015060875
0.0024077953
0.001593454
6.0558075E-4
-3.811736E-4
-0.0014525711
-5.0909683E-4
-1.4330063E-4
-5.574832E-4
-1.6525225E-6
7.7986164E-4
2.9080515E-4
-7.647272E-4
8.0860156E-4
3.9702436E-4
-0.0035433127
-0.0036344083
-0.0020746873
-7.204856E-4
0.002331488
0.0030494411
0.0024837493
0.0020370923
2.88354E-4
-5.106477E-4
-0.0013389055
-0.0023961116
-0.0011601532
7.232573E-4
0.0017989493
0.0020081436
0.0010769024
5.9240684E-4
6.942558E-4
-2.628993E-4
-0.001576701
-0.0021011773
-9.104468E-4
0.0013207356
0.0012594793
6.682164E-4
0.0015213913
0.0011812865
4.251317E-4
-7.765569E-4
-0.0025954633
-0.0033145112
-0.0032684961
-8.5817254E-4
0.0015627621
0.0016285295
0.0019844477
8.37079E-4
-5.746563E-5
5.5251503E-4
-5.04741E-4
-3.9253492E-4
-7.505587E-4
-0.0016242092
9.989055E-4
0.0016483134
2.9222117E-4
5.317421E-4
-1.592815E-4
-0.0011940375
-0.002434149
-0.002845985
-0.0010256805
-6.1894103E-4
-6.7473034E-4
0.0011799798
0.0018110183
0.0017075917
0.0028390456
0.0017657141
-0.0010447446
-9.800749E-4
-2.127926E-5
1.9277698E-4
0.002419482
0.004322926
0.0029008363
0.0017896489
0.0017854004
-0.0021699283
-0.0058287466
-0.0025570001
5.488039E-4
9.686268E-4
0.0029563797
0.0023821092
-3.6025196E-4
-8.1117195E-4
-0.0016470066
-0.004560197
-0.0065618022
-0.0053546415
-0.0032465786
-0.0017920149
0.0014350328
0.0040524113
0.0027051796
0.0011228704
0.0011908334
8.054083E-4
2.3196264E-4
-0.0011133907
-0.0021787626
-2.587715E-4
8.9920824E-4
9.245415E-4
0.002236241
0.0013479949
9.4831584E-4
0.0022712592
-1.662873E-4
-0.0026358427
-9.0524816E-4
0.0016790491
0.00183155
9.0534345E-4
0.0021478056
0.0022651895
1.3477971E-4
-4.1461198E-4
-0.0010221973
-0.002304299
-0.0021107122
-8.770134E-4
4.4344833E-6
4.905611E-4
0.0014318972
0.0019388802
0.0020813781
4.313904E-4
-0.0033999307
-0.003587992
-0.0015505439
-9.92468E-4
7.6328975E-4
0.0014487907
4.2879378E-4
4.0525422E-4
-1.339649E-4
-0.0015254813
-0.0032253799
-0.003511832
-0.0014806219
5.19562E-4
0.0024906353
0.0031529646
0.0017534689
0.0011634502
4.2406807E-4
-9.127535E-4
-0.0010444211
-0.0012665754
-0.0014635354
2.5399853E-4
0.0026923553
0.003218174
0.0022650256
0.0016420151
0.0013137247
8.044411E-4
-0.0014778313
-0.0037268593
-0.002309897
-0.0011262861
-0.0013144739
-2.0357207E-4
4.2696967E-4
0.0015856988
0.0019306447
-4.165715E-4
-0.0016769294
-0.0024104232
-0.0019257531
7.571769E-4
0.0015346598
0.0013816893
0.0021819149
0.0030180851
0.0022575958
1.01159385E-4
-6.526398E-4
-0.0022591068
-0.0035356875
-0.0014003847
0.00104272
0.003243978
0.0017185679
-0.0016434384
3.9500327E-4
0.0014656215
-8.183266E-4
-0.0025627105
-0.003157974
-4.6957136E-4
0.001206789
0.0011898389
0.0021585464
0.0013322342
0.0012927697
8.35311E-4
-0.0019434295
-0.0018816142
-9.179358E-4
-0.0015504056
-7.861992E-4
0.0015467746
0.0021067066
0.0011391954
6.966664E-4
-0.0021236723
-0.002921963
3.8730275E-4
-0.0010173889
-0.0024822112
1.5179632E-4
7.871841E-4
0.0013270864
0.0027730383
0.0036787258
0.0022106448
-0.0021163367
-0.0032361213
-0.0027195353
-0.002343692
9.981497E-4
0.0020118442
7.556102E-4
0.0014057618
8.9687284E-4
-2.6513962E-4
-7.2087604E-4
-0.0019528841
-0.0018060836
5.2075053E-4
0.0019723577
0.0022853084
0.0025818993
0.0017237992
6.0902414E-4
1.6640528E-4
-0.0012861041
-0.0026506763
-0.001865148
1.6820685E-4
0.0011772052
0.0011271213
0.0022065016
0.0023570098
1.0704342E-4
-0.0010725826
-0.0020567863
-0.0035480158
-0.0025289403
-0.0013811443
-9.162254E-4
0.0017696302
0.0031675787
0.0012220668
5.3395197E-4
7.6809496E-4
-0.0024047552
-0.0053520724
-0.0027970902
6.9088716E-4
0.0015939797
0.0017910849
8.108402E-4
0.0010719766
0.0027890913
0.0012569631
-0.0010599956
-0.002474428
-0.0035541973
-0.0012778979
0.0011563795
0.0013170446
0.0014123704
0.001140351
0.0016675639
0.0014598508
-2.9419851E-4
7.851221E-6
6.469009E-4
6.3541805E-4
5.6909E-4
2.5390743E-4
0.0020965247
0.0026246605
3.718293E-4
-3.791655E-4
-0.0013749067
-0.0029855105
-0.002423777
3.7494572E-4
0.0017878901
-5.051597E-4
-6.943582E-4
6.5705145E-4
-3.036437E-4
-5.962399E-4
-0.0029352768
-0.004713403
-0.0014324541
-2.7367033E-4
-0.0013445145
-0.0010942275
7.214002E-5
0.0014556656
2.3654711E-5
-0.0010950643
-5.0289556E-4
-6.143388E-4
6.370003E-4
0.0014394765
0.0029737826
0.0063469782
0.0061587393
0.0043008733
0.0022467752
-0.0011234246
-0.0025096699
-0.0029504444
-0.0030916564
-0.0014802195
-0.0011307548
-0.0019635325
-8.2016515E-4
6.296783E-4
0.001560573
0.0029841678
0.0017960713
-7.100112E-4
-0.0010600444
-0.0013375087
-0.0015886015
-0.0033248058
-0.0044928496
3.3569243E-4
0.0025970996
-5.773262E-4
-0.0012183054
-0.0012230682
-0.0017334205
-2.5172703E-4
0.0022631122
0.003452404
0.0033953816
0.0050281
0.0053546918
0.0029560002
-3.4113044E-5
-0.0033604854
-0.0026603406
-0.0013729729
-0.0030580747
-0.0014312803
7.059566E-4
0.001145678
0.0019598661
-5.8668265E-5
-0.002663778
-0.0030915448
-0.0027096989
-0.0019716008
-0.0014867566
-0.0010995339
-5.723767E-4
1.8178664E-4
-1.3522277E-4
-0.0015869341
-0.001978484
-0.0021693455
-0.0017968881
4.6658074E-4
0.0030919139
0.0049476055
0.0065700933
0.0080757355
0.0069995797
0.004379302
0.0018241166
-0.0018671416
-0.0030206337
-0.0024681075
-0.0019378479
6.5076E-4
0.0014992742
0.0020215483
-4.5163068E-4
-0.00886419
-0.008559127
-0.0024312448
-0.0029887704
-0.0023504116
3.900475E-4
7.0805574E-4
0.0014008684
7.395645E-4
-0.0010946147
-8.4844185E-4
1.3708268E-4
4.3977142E-4
3.7923467E-4
1.5245966E-4
0.001501883
0.0032216872
0.001249008
-5.2816788E-5
0.0026671805
0.0031460295
7.4351096E-4
-6.438424E-4
-3.4829826E-4
5.232174E-4
-2.0785065E-4
2.824989E-4
0.002747774
0.0015215683
-3.6037152E-4
9.85792E-4
1.0424013E-4
-0.002672003
-0.0034765282
-0.002946267
-6.182659E-4
8.0058293E-4
2.3005296E-4
0.001882801
0.0028841263
0.001008152
-0.001232425
-0.0037416455
-0.0038602934
-0.0019180564
-0.001627801
-0.002453609
-0.0020504484
2.8704593E-4
9.803551E-4
0.0014307753
0.0024593042
-0.0016061399
-0.0025355855
0.0030597642
0.0039491826
0.0024519973
0.0030697472
0.0040016277
0.0039297324
0.0012475736
-0.0011754023
-0.002805935
-0.0012915673
0.0030334687
0.0023893376
0.0021373646
0.00315338
-0.0012325682
-0.0038236177
-0.0035317717
-0.0026348217
-9.183512E-5
-0.0018846199
-0.0054065706
-0.005964903
-0.005685583
-0.0029664051
5.703212E-5
0.0011931888
0.00324707
0.0042285006
0.0025063294
8.985414E-4
7.9848827E-4
6.823984E-4
-8.884828E-4
-0.0014530036
1.8461881E-4
0.0010792455
0.0016104117
0.0024086768
0.0012294216
-1.5453961E-4
2.9781007E-5
0.0010640952
0.0026286703
0.0027600708
0.002878988
0.0028652416
-0.0012114467
-0.004186475
-0.0035705485
-0.003389319
-0.001437806
1.1754579E-4
-0.0010781427
-5.2996917E-4
9.179429E-4
0.0017983611
0.0023534964
0.0015527939
-7.95454E-4
-0.004452014
-0.004188242
1.6617597E-4
0.0015243529
6.0321245E-4
-0.00103582
-0.002162628
-5.8042543E-4
-8.838264E-4
-0.0019319761
-3.1151573E-4
0.0012140903
0.0041504097
0.0060187276
0.0042422446
0.004441438
0.0039450335
4.245755E-5
-0.0020618874
-0.0033455647
-0.005645196
-0.006045026
-0.0030271679
0.0010341468
0.0027585002
0.0030746954
0.0024252648
1.3781972E-4
-0.0019900973
-0.0036465733
-0.0034988467
-0.0014786657
2.757287E-4
0.002501494
0.0032943438
0.0027023612
0.0033725367
0.00299099
0.0021506536
-2.0914165E-4
-0.0054493085
-0.0051287706
-5.797628E-4
-1.5709986E-4
-4.6047985E-4
-5.098383E-4
-0.0014752339
-6.3465897E-4
-0.0018484332
-0.0050809085
-0.004345858
-0.0018822489
-3.4890688E-4
0.0014207693
0.0023319633
0.0023085428
0.0027350255
0.0032246672
0.0022124874
-7.654051E-5
-0.0017363213
-0.0016080918
6.09616E-4
0.0028500864
0.0038703561
0.0053519197
0.0066598332
0.0064781513
0.0048080147
0.0019265945
-8.526529E-4
-0.0021123516
-0.0019335608
-0.0031018043
-0.0046948856
-0.0045738113
-0.0053218855
-0.003866661
-8.0591737E-4
-0.002447636
-0.0036292013
-0.0014466514
0.0011495708
0.0022252724
-1.9558668E-4
-4.2119925E-4
1.2047118E-4
-0.003147824
-0.004365137
-0.005030195
-0.005693102
-0.0038083561
-0.001455368
0.003630591
0.0069454326
0.006387353
0.0067942836
0.0054322043
0.0042031636
0.002845543
-5.808271E-5
0.001670404
0.003670108
0.0023957398
0.0012215466
3.7550088E-4
0.0015468639
0.0022198856
9.147669E-4
-7.015828E-4
-0.0032782676
-0.0032627794
4.1763386E-5
0.0022178506
9.814387E-4
-0.0012879175
-0.0021760808
-0.0050449288
-0.006748635
-0.004110515
-0.0037552465
-0.0053615645
-0.0060141003
-0.0065508885
-0.005086266
-0.0014882814
6.057992E-4
-3.258344E-4
-9.175283E-4
-0.0023901265
-0.004942992
-0.0017608721
0.0037028706
0.0069375066
0.010967566
0.014050987
0.011906853
0.0042692875
0.0019730101
0.006169651
0.0020245658
-0.0028616632
0.0027649736
0.007274732
0.0047366396
0.0017379428
0.0021818879
9.84586E-4
-0.005188135
-0.011614643
-0.016801963
-0.017784674
-0.012831178
-0.00783286
-0.004156732
-0.0017710623
-9.5496216E-4
0.0015542198
0.0049369265
0.0072966274
0.0088527305
0.008429134
0.0063731195
0.0028146629
-0.0044209575
-0.010564146
-0.009523319
-0.007656703
-0.0077354778
-0.0052574826
-0.0022228127
0.0031116235
0.008194599
0.0048241336
0.0022879757
0.006834531
0.011195036
0.01364464
0.01025153
0.0025846823
0.0023687864
0.0061384207
0.006131798
0.0041040895
-0.0017609752
-0.009929404
-0.015726028
-0.019376535
-0.018211795
-0.014753062
-0.011485406
9.137479E-5
0.012976255
0.011269308
8.023418E-4
-0.007944882
-0.018825289
-0.03307694
-0.034851708
-0.020320475
-0.011558473
-0.008686263
0.009394549
0.03599711
0.05040652
0.055855457
0.06370453
0.06553262
0.053773366
0.029821185
-0.005269114
-0.031380005
-0.038924966
-0.0380191
-0.024890639
-0.016416075
-0.024027484
-0.02153633
-0.008369865
-0.0029190602
-0.010928949
-0.020727454
-0.017525781
-0.009332671
0.0040391767
0.013732403
0.006570267
0.0072679822
0.018017957
0.02414101
0.029549032
0.023432573
-0.0011875797
-0.032898173
-0.05235865
-0.057757504
-0.066396356
-0.059791505
-0.02707163
-0.018455546
-0.040167507
-0.026372598
0.016903488
0.04017365
0.044480473
-1.2883446E-4
-0.07467863
-0.10015407
-0.10139046
-0.08893187
-0.047774244
-0.014799126
0.011273392
0.010824113
0.0051604896
0.07231382
0.1675522
0.21289068
0.18933348
0.15187062
0.15836784
0.11090294
-0.02540948
-0.12640391
-0.16007072
-0.13908525
-0.06228392
0.0067971353
0.07563092
0.1694078
0.18426622
0.14597593
0.15161166
0.10026885
-0.03091787
-0.17595918
-0.3238458
-0.37500829
-0.3290037
-0.26264703
-0.1496348
-0.016066173
0.11058458
0.19921377
0.1641255
0.02519872
-0.09391466
-0.10128266
-0.064404726
-0.04765802
0.0076551815
0.068915285
0.101217225
0.12905937
0.14279447
0.17361987
0.20112136
0.17562747
0.11419071
0.04327607
0.03379587
0.10135071
0.13195063
0.048084024
-0.06619335
-0.09328482
-0.09329178
-0.12547825
-0.12699279
-0.111669324
-0.10670301
-0.09169626
-0.08235077
-0.07995732
-0.07199388
-0.06983781
-0.07314416
-0.064155094
-0.055530824
-0.044864025
-0.0016078609
0.030419752
0.032591507
0.042986006
0.041153423
0.038719572
0.060120817
0.09621078
0.14490291
0.15086082
0.13328797
0.15810972
0.1287375
0.018152824
-0.03890387
-0.025939118
-0.0069151735
0.0152277965
0.032561354
0.026796341
-0.0031368844
-0.052644104
-0.083812535
-0.07485244
-0.06828988
-0.079069465
-0.08168762
-0.07896396
-0.07921842
-0.07809355
-0.07093668
-0.056860726
-0.041219473
-0.022859607
-0.006497923
0.002381189
0.017534345
0.037877496
0.05071513
0.059543785
0.06136401
0.05090489
0.03789192
0.028737023
0.023925975
0.023984628
0.025696471
0.023980165
0.017307185
0.009996319
0.005174422
2.8013386E-4
-0.005338729
-0.007839653
-0.007481339
-0.0082474565
-0.008184555
-0.0056227706
-0.0040368917
-0.0030086655
-0.0017725924
-0.0010884609
4.7195988E-4
0.0033497212
0.0074413447
0.009723309
0.0072555738
0.004863486
0.0046467143
7.254609E-4
-0.007819217
-0.014692637
-0.017818697
-0.01980146
-0.021208575
-0.022714088
-0.023836853
-0.023882093
-0.02416205
-0.022132235
-0.017039577
-0.012324512
-0.008635538
-0.0057373024
-0.002008756
0.0023739159
0.0038261064
0.0036673404
0.0034778125
0.0033716792
0.0032978314
3.0949048E-4
-0.002685911
-0.002069793
-7.4616366E-4
-2.059478E-4
-5.212205E-4
2.5454586E-4
0.0016698897
-3.7701763E-4
-0.0028938751
-0.0025019834
-7.8425935E-4
0.0011555353
0.0031848815
0.004891783
0.0036443586
0.002450509
0.0049504247
0.0053395517
0.0029593988
0.0015976257
0.0018572753
0.0028597652
0.001185137
3.4229035E-4
0.0022495615
0.0017556624
0.0017606764
0.0029592654
0.002148045
0.0019777347
0.0032450564
0.004952845
0.0058741104
0.0056214537
0.006066963
0.0074632056
0.0071216463
0.0029822534
0.0011310473
0.0029444457
0.0024287745
0.0040775468
0.007006598
0.005644559
0.0060021603
0.007581384
0.007002813
0.00668602
0.004583984
0.0020037524
0.002779066
0.0038530454
0.003950466
0.0053265733
0.004982889
0.0031291123
0.004166385
0.0027117461
-0.0014396323
-7.881313E-4
2.291569E-4
-0.0010379475
1.4784106E-4
0.0034456337
0.004341136
6.0904154E-4
-0.0013936624
-1.6798593E-4
-0.0014190004
-0.0025576379
-0.0021787242
-0.0025619585
-0.0022988943
-0.0014621534
-0.0012325735
-0.0010888687
-4.877642E-4
-8.512538E-4
-0.0016249265
-0.0016511955
-0.0015689665
9.076909E-4
0.0025730066
0.0019770009
0.004788036
0.005278854
0.0024574401
0.0027376171
0.0010318938
-0.00103518
6.893838E-4
0.001716842
0.002830808
0.0037661225
0.0029757537
0.0037280703
0.00530925
0.0044932365
0.0019801522
7.9238374E-4
0.0011521906
0.0013843679
0.0015406305
0.0010217708
-8.706595E-4
-0.0032450259
-0.0041814167
-0.0032210203
-0.0028921575
-0.0037860859
-0.0038081629
-0.0019348022
-1.9031891E-5
-2.1346136E-4
-8.313863E-4
-7.720517E-4
-2.8611344E-4
6.179696E-4
-4.4325143E-4
-0.0021969248
-0.0013118078
7.3199556E-4
0.0020003186
0.0020934492
0.002214433
0.003069458
0.002799383
0.0018178328
0.0013753664
4.230343E-4
-8.360869E-4
-4.4211006E-4
7.469838E-4
0.0011375431
0.0018691762
0.0014922605
1.5150059E-4
6.8949076E-4
3.3538547E-4
-4.2663535E-4
4.2968726E-4
6.063865E-4
0.0023911344
0.0042277845
0.0027263574
0.0014966768
-6.567396E-5
-0.0018879413
-0.0017565786
-0.0027748484
-0.0038032078
-0.0019177216
1.4354802E-4
-7.049143E-4
-0.0029983912
-0.003006972
-0.0019511388
-0.0022471668
-0.0037326557
-0.0054137856
-0.0043265177
-0.0023454258
-0.0014242479
0.0012467711
0.0022984678
0.0020726083
0.005079246
0.005176659
0.0019880098
0.0021674593
0.002027582
4.0669204E-4
0.0013786443
0.0025102997
0.003113257
0.00467741
0.0053246547
0.00430573
0.0016538614
-6.634218E-4
-9.6255663E-4
-0.0014535998
-0.0014721191
4.194371E-4
0.0019011317
9.7178476E-4
-5.581478E-4
1.3568382E-4
-7.858636E-4
-0.0043862374
-0.00553177
-0.005896256
-0.0046192594
-4.337091E-5
0.001193376
-4.4910898E-4
-0.00125506
-0.0016387196
-0.0014654684
-0.0025990598
-0.0030520165
-9.708413E-4
3.362565E-4
0.0013744766
0.0024928974
0.0024037503
0.0013347758
-6.6567934E-4
-0.0014736231
-4.9748155E-4
1.3102108E-4
6.66351E-5
6.6381245E-4
0.0021383693
0.0021689432
0.0012904241
0.0016674718
0.0019307566
0.001174572
-8.5303315E-4
-0.0027906846
-0.0019995456
-3.037248E-4
7.946855E-4
0.0023458593
0.003357259
0.0021778082
-9.3834434E-4
-0.002823354
-0.002517195
-0.002439732
-0.0015554212
1.6680107E-4
4.5023853E-4
2.30723E-4
2.9311088E-4
6.790448E-4
-1.8087881E-5
-0.0021294234
-0.0021298286
-0.0024525404
-0.003594957
-4.7367575E-4
0.002104008
0.0014733956
0.001392974
0.0012259807
0.0016358927
4.264169E-4
-0.0019527653
-4.1108366E-4
1.8066421E-4
-5.4439326E-4
0.0017876262
0.0026829191
0.0016088065
4.6402897E-4
-8.870666E-5
6.3033425E-4
-0.001291903
-0.0029885003
-4.6477182E-4
0.0010801437
0.001416123
0.0020066656
6.1522494E-4
-6.0895283E-4
-0.0017472787
-0.0039208764
-0.0035014504
-0.0022720806
-0.0019968254
4.731272E-4
0.0020182822
0.0010823864
8.614772E-4
6.8855553E-4
5.804264E-4
-4.087331E-4
-0.0021859726
-0.0016681454
-0.0011067943
-5.380856E-4
0.0013058041
0.0014896019
0.0012727984
3.5946394E-4
-0.0012837338
-2.1301034E-4
-6.9027883E-4
-0.0034803355
-0.0023426048
3.7699047E-4
1.5242E-4
-8.3569024E-4
9.5179223E-4
0.003369221
0.0019630778
-1.0139152E-4
-4.8735696E-5
-4.617908E-4
2.9554541E-5
0.0021413534
0.0039590565
0.0048556123
0.0035417194
0.0024197714
0.0022031632
-5.1340007E-4
-0.002897592
-0.0031584925
-0.0028725544
-0.0011837144
2.2927417E-4
7.6842477E-4
0.002141924
0.0035898027
0.0016986885
-0.002506032
-0.003200428
-0.009304967
-0.020360641
-0.012054908
0.0049485294
0.0065096435
0.0055395914
0.007021731
0.0039292313
0.0012806238
-0.0013935048
-0.0036166206
-0.0020372574
4.2587618E-4
0.0018911136
0.0011181257
-4.5564317E-4
0.001098986
0.0032313126
0.0017303245
-5.268255E-4
-3.4607292E-4
2.6562082E-4
9.14314E-4
0.0015949879
0.0016323265
0.002071827
0.0013154984
2.9170033E-7
-2.6928383E-4
-0.0020562734
-0.0036613413
-0.0022887865
3.7899485E-4
0.0017005242
9.102783E-4
8.972547E-4
0.0015189133
4.471896E-4
-0.0010334168
-0.002295481
-0.0025914772
-0.0011695969
1.9658302E-4
8.96315E-4
0.0016494299
0.0019877118
8.7626267E-4
-4.472284E-4
-7.3408114E-4
-0.001923796
-0.0036679865
-0.00313794
-9.88083E-4
5.81559E-5
-4.5382726E-4
-4.2595252E-4
9.091003E-4
0.001390571
7.3329743E-4
3.506395E-4
-9.753432E-4
-0.0023016378
-3.5190777E-4
0.0019975854
0.0012666194
1.4295557E-4
0.0011412738
0.0022663022
9.1909216E-4
-8.6638646E-4
-0.0018506589
-0.002706564
-2.8715454E-4
0.0025493915
8.794669E-4
-2.3241382E-4
1.6093407E-4
-5.741864E-4
-8.5730386E-7
-2.115588E-4
-0.0011529105
5.6429254E-4
0.0010895402
7.4092497E-4
0.0023414488
0.0019829385
9.4135274E-4
0.0013442731
-9.4765355E-6
-0.002059557
-0.0034245844
-0.0033443714
-8.513904E-4
5.12109E-4
4.4743717E-4
3.1728556E-4
-1.4103208E-4
0.0012360127
0.0016569217
-0.0011848626
-0.0037829024
-0.0043709334
-0.0018618476
5.5319123E-4
0.001190617
0.0029031502
0.0026615537
7.684722E-4
-0.0013127041
-0.0042232727
-0.0024027582
1.6457483E-4
-8.7471073E-4
0.0014653413
0.0039068763
0.0030035528
0.0025315178
0.001882075
0.0015661893
-7.036064E-4
-0.0037678704
-0.0019088406
6.017644E-4
0.0021531945
0.0024792189
-7.9444225E-4
-0.0022510658
-0.0031695953
-0.004416294
-0.0018108743
-0.0012283724
-0.0025407476
-9.607083E-4
8.189989E-4
0.0014852791
0.0013243838
0.0017883807
0.0015093789
-4.175115E-5
-5.300204E-4
-0.0025541629
-0.0028585943
-7.102414E-4
1.9743836E-4
0.003995508
0.005465608
0.0029400368
0.0026668427
8.365924E-4
-9.2716253E-4
-0.0013690357
-8.7522255E-4
0.0018941467
9.77333E-4
3.734379E-4
0.0010206492
2.6044188E-4
0.0013172573
-0.0065882807
-0.013396271
-0.004091864
0.0013121233
0.0010795553
0.0035154722
0.0024705534
0.0025335625
0.0024692374
1.9306091E-4
3.515134E-5
-9.354935E-4
-0.0014607342
-0.0017663172
-0.0021463495
5.662354E-4
9.434616E-4
-4.73231E-4
0.0013727689
0.002373291
-1.331763E-4
-0.0032884092
-0.0029283944
3.2874267E-4
0.0021952498
0.0025889773
0.0020805998
0.0010463166
8.8231574E-4
3.241085E-4
-0.0011541925
-0.001524134
-0.0011454445
-0.0017360904
-7.976728E-4
0.0021192203
0.0024378388
0.0014422332
0.0015946674
0.0014462007
0.0016790169
7.6117646E-4
-0.001386469
-0.0015725356
-0.0015239934
-0.001762107
-8.249864E-4
3.3189368E-4
0.0015493184
0.0018448791
-1.8971068E-4
-0.0036191703
-0.005111581
-0.0036770296
-0.0019068555
3.7983834E-4
0.0011436391
-8.182717E-4
-2.5250494E-5
0.0020706018
0.0017966514
3.7075987E-4
-0.0019120176
-0.0021757795
-4.832849E-4
0.0017466471
0.0036989506
8.9832186E-4
-2.596716E-4
0.002863956
7.882083E-4
-0.0018869826
-0.0010581686
-8.79194E-4
3.7405564E-4
0.0012627972
0.0014456491
0.0024646244
0.0017777691
3.5694736E-4
-6.303275E-4
-0.0012936306
-0.0012860887
-0.0018357991
-0.0021807884
-6.642832E-4
0.0015591527
0.001962105
0.0015703999
0.0014550966
-2.3921268E-4
-0.00123264
-8.1711146E-4
-0.0011462693
-0.0011386276
-0.0010190036
-4.5846205E-4
-4.6627258E-5
-2.9366152E-4
7.138101E-4
-2.2564892E-4
-0.0022225059
-0.0024545554
-0.003193909
-9.2549704E-4
0.002659827
0.002186397
0.0018391026
0.0024658358
0.001920045
4.63029E-4
-0.0014434111
-0.0022370054
-0.002570794
-0.0021005357
-7.974169E-5
0.0013966747
6.435634E-4
-0.0010639062
3.7578048E-4
0.0018430104
-4.7364022E-4
-0.0015189013
-0.0016508681
-9.309507E-4
0.002966057
0.0041107587
0.0024318858
0.001847573
0.001275485
6.9278385E-4
-0.0011236687
-0.0026086916
-0.0012086834
5.2431755E-5
6.448703E-4
0.001412483
0.0016916113
9.172631E-4
-0.001093929
-0.0016105872
-0.0015943283
-0.002576727
-0.0016112057
-7.2236225E-4
-8.77183E-4
-4.991133E-4
-0.0011948554
-3.682922E-4
0.0010976573
-3.3021E-4
-0.0010807245
-0.001516777
-0.002091173
-8.7355584E-5
0.0012431475
9.1183407E-4
0.0012883228
0.0027495734
0.0035425988
0.0013434874
-3.9270948E-4
-8.961241E-4
-0.002511785
-0.0012214833
0.001906887
0.0028907603
0.0028413674
0.0013847761
4.600065E-5
-3.1731237E-4
-0.0016712557
-0.0027707284
-0.002900622
-0.0015595913
1.7151688E-4
-3.022792E-5
6.009663E-4
0.0018064448
0.0011214158
7.636547E-4
4.57065E-4
-0.0013588701
-0.002978227
-0.0018518588
0.0010227761
0.0022922484
0.002502976
0.001202475
-6.7373575E-4
-4.8573173E-5
-0.0014000777
-0.004271961
-0.0048402357
-0.004212564
4.045089E-4
0.0026814642
-0.0011658854
6.819249E-5
0.0031244783
0.0026416504
0.0028189104
3.887745E-4
-0.0018189765
1.417101E-4
0.0013105049
0.002171918
0.002981383
0.0014754424
3.3027562E-4
-3.390612E-4
-0.0026379589
-0.0027108071
-7.0686976E-4
-0.0012649033
2.9552222E-4
0.0026600857
0.001839505
0.0044300454
0.00313928
-0.004169797
-0.00432306
-0.0038830768
-0.005192715
-0.001833045
-0.0013412174
-0.001854158
6.625068E-4
0.002286364
0.0028030619
1.8664796E-5
-0.0024741418
-0.0014224028
-0.001313266
-3.52774E-4
8.4497995E-4
5.095219E-4
0.0019585937
0.0026094306
0.0015280436
4.4506037E-4
-0.0012524804
-8.874368E-4
5.0152134E-4
0.0011034276
0.003537122
0.00445203
0.0020433555
0.0019663263
0.0031670905
7.149833E-4
-0.002087402
-0.0019776416
-0.0020218967
-0.0019601195
-1.8455172E-5
0.0012178556
0.0015562348
0.0019739845
0.0020271847
0.002316583
0.0011558475
-7.680946E-4
-4.0323634E-4
-9.341623E-4
-0.0028727958
-0.0012442901
0.0010919301
-0.001258762
-0.0051815687
-0.0075595533
-0.008679365
-0.0072145835
-0.005708046
-0.00498948
-0.0013764375
-9.0294855E-4
-0.0039596558
-7.566972E-4
0.0026530328
3.1213503E-4
-7.7891373E-4
-5.4438744E-4
-1.1519575E-4
0.0032992247
0.0069906083
0.009081374
0.010573269
0.01002742
0.008691117
0.008590565
0.00948537
0.012426486
0.012489589
0.007769812
0.005982046
0.0036527158
-0.0034130805
-0.011078828
-0.019392995
-0.021836678
-0.015153564
-0.008368248
-0.0049040513
-0.00420615
-0.0036739209
-0.0013683308
-5.533591E-4
-0.0011628842
-0.0013023083
-0.0017756748
-0.0039155646
-0.0042543123
-0.0012045356
5.700506E-4
0.003166277
0.0058280085
0.0053936117
0.0057879663
0.0049328036
0.004399464
0.004783401
9.5995865E-4
-2.855678E-5
0.0029101784
0.00515773
0.005456336
0.0013955046
-0.0012274133
-0.0062768757
-0.012798209
-0.0062902183
8.5704477E-4
1.8060542E-4
0.00182763
0.0021961373
0.0015867059
0.0027750065
0.0030862652
0.0039780196
0.0030564761
9.8228935E-5
-0.0013758922
-7.3213736E-4
0.0014075018
0.0021557556
0.0013042268
6.4067025E-4
3.5096786E-4
3.1112806E-5
-0.001339768
-0.0042954194
-0.008151628
-0.008166045
-0.004074233
-0.0018461405
-5.90549E-5
0.0020929722
0.0018871785
0.0011138013
3.6590104E-4
-5.343475E-4
-9.697002E-4
-6.166181E-4
-3.2884945E-4
-4.036295E-4
0.001876384
0.0033523492