4.6815467E-4
-4.6659246E-4
-0.0018137852
-0.0012552717
-0.0011662387
-0.0022839475
-5.485375E-4
0.0020385871
0.0017766412
6.196345E-4
-5.576003E-4
-0.0010053675
-0.0010344785
-0.002002687
-0.0023149636
-0.0017765439
-6.4865797E-4
6.170964E-5
-8.254734E-4
-4.061051E-4
9.3773083E-4
4.992281E-4
-2.5732638E-4
-7.22527E-4
-0.0016295661
-0.0013117689
6.4339995E-4
0.0012197657
0.0011458364
0.0021164948
0.0010403866
-5.1587296E-4
2.3065116E-4
0.0010889745
0.00129474
3.5801463E-4
-2.8916684E-4
6.3251035E-4
0.0012720968
0.0021322842
0.0018462882
4.7860964E-4
5.72381E-4
-2.3311852E-4
-5.4110365E-4
9.1139524E-4
5.936795E-4
1.7618427E-4
2.0339023E-4
-5.773802E-4
-1.7127862E-4
1.4615277E-4
-0.0015326821
-0.0033467272
-0.0028137148
-5.7319837E-4
5.897648E-4
4.9389806E-4
1.8116542E-4
2.2038243E-4
7.708037E-4
2.0681723E-4
-0.002385538
-0.003752105
-0.0012604878
-1.5803752E-4
-0.0023590268
-0.0016443967
5.210038E-4
0.0011860252
0.0022651395
0.0010139061
-0.0012644574
-2.7386093E-4
8.246916E-4
8.626865E-4
0.0017907553
0.002110921
8.2388375E-4
6.017624E-5
0.0010950423
0.0016079366
0.0011512293
0.0015428388
0.0013512217
3.6306403E-4
6.7791354E-4
0.0011534344
5.998793E-4
6.508778E-4
0.0010508273
-2.1572402E-4
-0.001727382
-0.0020033268
-0.0025503633
-0.0022531645
-7.9834304E-4
-7.4570545E-4
6.651619E-5
0.0023170717
0.0019082336
-2.998353E-4
-0.0012535674
-7.424273E-4
-6.1964814E-4
-0.0020261605
-0.0017716821
-3.972286E-4
-4.516111E-4
3.610152E-4
-4.9623734E-5
-0.0017717695
-7.996773E-4
-1.5238723E-4
-2.2686127E-5
5.179502E-4
-2.9711967E-4
8.37582E-4
0.002071045
9.6478045E-4
7.60519E-4
-6.2685285E-4
-0.001886331
1.4795946E-4
7.4546586E-4
1.6004241E-4
0.001547357
0.001543949
-4.326285E-5
3.154142E-4
0.0015271587
0.0012814791
1.1886993E-4
5.486105E-5
0.0013591963
8.6904794E-4
-0.0010733973
-7.983834E-4
7.54976E-4
7.1383535E-4
-0.0013203558
-0.0019069435
-2.0929323E-4
-9.55763E-4
-0.0017818728
2.266879E-4
8.339526E-4
7.5732626E-4
0.001396092
0.001812733
0.0019342279
2.0110844E-4
-9.669119E-4
-6.037856E-4
-0.0012299108
-0.0010857302
-9.369905E-4
-0.0021957746
-0.0017860964
-7.473511E-5
-4.7860398E-5
-7.5563183E-4
1.0471985E-4
0.0010031291
0.0013993079
0.0021646093
9.980302E-4
-6.5561035E-5
9.239528E-4
6.051434E-4
5.537459E-4
0.0010106125
-0.0010078871
-0.0025353536
-0.0014400493
1.2735488E-4
-3.0344262E-4
-0.0014811973
-1.3866807E-4
0.0017015731
0.0019828258
9.6412573E-4
-0.0011253842
-0.0019982401
-0.0015890894
-0.001200853
-7.9324003E-4
-1.5980628E-6
0.0010939882
6.838804E-4
4.6948888E-4
8.499009E-4
-0.0010083665
-0.0012208754
9.709044E-4
0.0012508678
1.7294649E-4
-5.322506E-4
1.1677076E-4
5.2494503E-4
7.792212E-4
0.0015732477
-2.8021776E-4
-5.1538204E-4
0.0018179598
8.547952E-4
0.0010291523
0.0030069568
0.0023431492
0.001691843
7.421854E-4
-0.0014333776
-0.0014875185
-7.2086713E-4
-0.0021172666
-0.0022776893
-0.0011835925
-9.0896443E-4
0.0020668644
0.0031373638
0.0015476409
0.0022720732
4.5376638E-4
6.9151836E-5
-0.005533246
-0.021060176
-0.01588822
0.0032016726
0.005559739
0.004191838
0.0053704535
0.0030042692
0.0014320662
-8.812794E-4
-7.137689E-4
0.0014285201
2.70009E-4
3.5643493E-4
0.0025708936
0.0037642892
0.00423302
0.0043622935
0.002765219
0.0011320884
0.0017087202
9.6023583E-4
0.0010412107
0.0030760802
0.0013867381
-4.071235E-4
-1.7629487E-4
-0.0013817763
-0.0021157947
-0.0016199336
-0.0017228163
-0.0027624108
-0.0029196534
-0.0021885575
-0.0017592194
-9.02406E-4
-0.0010019063
-0.0014053349
-0.0017041727
-0.0025503442
-0.0013488526
-0.0010839481
-0.0014862962
7.19682E-4
0.0011163804
0.001596535
0.0028951701
0.0011952943
3.5119482E-4
-2.262366E-4
-0.0013129293
4.932345E-4
0.0016164419
6.620816E-4
5.405323E-4
3.8037347E-4
-4.8252678E-4
-1.8351374E-4
3.0013736E-4
-7.8995427E-4
-4.386121E-4
0.0013735789
0.0022724613
0.0024076134
1.9457971E-4
-7.386333E-4
0.0016212004
7.157223E-4
-8.577322E-4
2.3555965E-4
-7.9547334E-4
-0.0019422504
-9.1807166E-4
1.20303E-4
8.4558426E-4
8.277482E-4
8.4833615E-4
6.1948405E-4
-9.505525E-4
-0.0019307846
-0.0014681733
-2.3708276E-4
5.893192E-4
4.1522205E-4
1.4195772E-4
-3.941203E-4
-6.47576E-4
-5.086573E-4
-7.2309957E-4
4.477701E-4
0.002355768
0.0025326896
0.0019456692
0.0014016671
4.0302347E-4
-3.1897315E-4
-1.4633227E-4
-2.5284308E-4
-0.0010615364
-0.0011749658
-6.7837E-4
-4.1034163E-4
-9.4313444E-5
2.8874056E-4
5.2679237E-4
0.001345326
0.0015880585
-0.0012861156
-0.0032719364
-0.0019957393
-0.0023150668
-0.0027168787
-0.0017130763
-0.0018415292
-0.0012690603
-1.0155688E-4
5.978905E-4
0.0014264117
0.0019956036
0.0023848645
0.0014465372
7.81727E-4
0.0019775205
0.0017661601
8.4112654E-4
7.274272E-4
-5.2066386E-4
-0.0012991413
-2.948903E-4
-1.16247254E-4
-0.001113715
-0.0013971411
-4.6808168E-4
-4.5358553E-4
-0.0026021644
-0.002381354
-3.413756E-4
-0.0014019534
-0.0016515206
-8.6310954E-4
-5.702265E-4
0.002593431
0.0042358628
0.0034385289
0.0038478402
0.0044170986
0.004303311
0.0026382543
0.0029399814
0.003610579
0.0014345575
8.2376203E-4
-0.001527658
-0.0025074573
6.737524E-4
-1.8161263E-4
-0.0015694641
-0.0018490737
-3.958512E-4
0.0011446903
-3.4170132E-4
0.0030583735
-0.0050851414
-0.018585555
-0.0063566845
-1.7347919E-4
-0.013218673
-0.015501187
-0.00966724
0.0017468359
0.010410186
0.007390304
0.0069477097
0.00729309
0.0057562166
0.0048871688
0.0017963671
0.001524954
0.0019678313
0.0014330122
0.0019461787
0.0016497201
0.0030410565
0.0036154736
0.0023446174
0.002306505
0.001927802
0.0010933422
-6.483664E-4
-0.00234934
-0.0031020322
-0.003415884
-0.0027210778
-0.0033672326
-0.0032679543
-0.0013246352
-0.0014788841
-0.001978515
-0.0016773893
-5.245079E-4
0.001482866
0.0016740677
0.0015487991
0.002449499
0.0019806155
3.5563795E-4
5.426601E-4
0.0015544059
0.0012023217
9.990955E-4
-5.8283255E-4
-0.0019761825
2.1945183E-4
0.0010800627
1.8288474E-5
-5.808938E-4
-0.0010415346
-9.13217E-4
-0.0032588285
-0.005666608
-0.004223359
-0.0023031652
-3.1162778E-4
0.001145496
0.0011734171
0.0015363
0.0013137755
7.6953927E-4
7.066744E-4
6.832727E-4
0.0012481923
0.0015631812
3.9808036E-4
-3.1152E-4
9.2658337E-4
0.0011058385
-4.1718874E-4
-4.8933533E-4
-7.108595E-5
2.3293789E-4
0.0017526709
0.0026159298
0.0020910515
0.0011856689
7.6283433E-4
8.606151E-4
9.756407E-5
-5.01172E-4
-6.2922953E-4
-0.0012332203
-4.8397377E-4
-1.0679614E-4
-0.0015555498
-9.207304E-4
-5.199748E-4
-0.0026840298
-0.0019650008
-7.673001E-4
-0.0029203983
-0.0025806578
6.458799E-5
0.0012141701
0.0028967094
0.0037188474
8.117181E-6
-0.0044598645
-0.002579943
0.0022610533
0.0030335586
0.0022695898
0.0011163101
1.4704732E-4
0.0017160524
0.0012598286
-2.0769861E-4
0.0011388051
0.0016438173
0.0014333485
0.0013367459
-3.579225E-5
-0.0016666427
-0.0026590899
-0.0020125266
-0.0011117507
-4.622134E-4
2.5714317E-4
-0.0010100494
-0.0012985427
-0.001053296
-0.003684955
-0.0036480287
-0.0014305413
-0.0014432351
1.7031218E-4
0.0017505862
2.3539412E-4
-2.8457478E-4
-1.5587237E-4
-4.7521782E-4
0.0012555063
0.002281807
0.001115546
0.0016389415
0.002878436
0.0028756503
0.0030378213
0.0021557156
8.033562E-4
0.0014074072
0.0014260997
5.3996453E-4
0.0014445902
0.0017992642
7.461609E-4
5.4119556E-4
-8.585074E-4
-0.0028270555
-0.002720317
-0.0030392113
-0.0035780452
-0.0024596436
-0.0017093604
-0.0020793108
-8.9120964E-4
0.0016731853
0.0010736118
-0.0013687377
-0.0017985379
-0.0015833144
-9.280892E-4
2.3855738E-4
0.0012263916
0.0021907648
0.0021966638
0.0011993174
1.4981485E-4
7.607125E-5
-3.301512E-4
-0.0020853004
-0.0028903682
-9.6986064E-4
0.002935193
0.0029937255
2.4421827E-4
-5.2316894E-4
-0.0036823961
-0.004419376
-0.001315887
-9.5001695E-4
0.0014793179
0.0023962467
0.00119076
0.0036607867
0.0042862576
0.0033035495
0.0012781993
0.0017955338
0.0053911866
0.0038991005
0.0023443403
-0.0025880327
-0.0065819346
-3.7864293E-4
6.521555E-4
0.0012062469
0.0025614612
0.0010336933
0.0026895935
-0.012770816
-0.020290175
-2.2016867E-4
0.004252803
4.862809E-4
-0.004700041
-0.014883572
-8.226388E-4
0.010411817
0.0036079031
0.0055822507
0.00578459
0.0024367885
0.002165628
-1.588954E-4
-9.799857E-4
1.2249163E-4
0.00297988
0.0028345697
2.360265E-4
7.4080395E-4
-6.897912E-4
-6.4312504E-4
8.8456523E-4
-5.9391535E-4
-6.1575405E-4
-0.0020586231
-0.0044214856
-0.0038301768
-0.0030147443
-0.00326073
-0.003651084
-7.794606E-4
0.0019107593
0.0026735053
0.00582425
0.0063573043
0.0052474383
0.0048838216
0.0013899739
-0.0010131377
-0.0026337807
-0.003983109
-0.0023302957
-0.0015864519
-3.9538724E-4
5.173601E-4
-4.800255E-4
6.981132E-4
2.6054712E-4
-9.853917E-4
3.9738824E-4
-2.6962336E-4
-0.0012110127
-0.0010657046
-0.0010291581
-4.4590316E-4
-0.0026996357
-0.003323461
8.5174723E-4
0.001848658
6.0436566E-4
0.0012917804
0.0025075497
0.0050527216
0.007796033
0.008540729
0.0055387416
-0.0015973785
-0.007720808
-0.009483036
-0.008263223
-0.006451164
-0.005215062
-0.0032966416
-9.845727E-4
3.0087409E-5
3.6327465E-4
0.0011795524
0.0011349696
-9.0687E-4
-0.0015562368
0.0014518086
0.0031690542
0.0011276654
0.0014679977
0.00432969
0.0037271478
0.0034960106
0.005492918
0.0035982125
5.70217E-4
5.219829E-4
0.0017871561
0.0042320727
0.0050386093
0.002198536
-0.0012838636
-0.002820985
-0.0015313994
-7.236677E-4
-0.0021563787
-0.003553009
-0.00619352
-0.006935074
-0.003108787
-0.0029669367
-0.005049789
-0.0023555623
-0.0014258747
-0.0029948384
-0.0011705036
1.02875E-4
3.8885666E-4
0.0022575553
0.0019579204
0.0014792238
0.003027502
0.00217589
0.0011608236
0.0023651712
0.0019235447
9.3926204E-4
0.0010539374
1.2293413E-4
-0.0015120714
-0.001690396
5.432857E-4
0.0023433587
0.00191412
0.0016698724
8.596896E-4
-9.586483E-4
-0.002075602
-0.0031498265
-0.0025329844
-3.5893774E-4
2.1934402E-4
0.0014849389
0.0033264125
0.0023342378
0.0019050866
0.0030327237
0.0022088627
0.0019919428
0.004011249
0.004652045
0.0029940451
0.0010065408
-4.7816057E-4
-0.0019609104
-0.0028032144
-0.003433689
-0.003326072
-0.0011906136
-0.002320492
-0.005644024
-0.0043469747
-0.0032388826
-0.0025861717
-0.0012015594
-0.0057955496
-0.007700392
-0.0012482993
0.001599063
-6.564223E-4
-0.0018293811
-8.01111E-4
8.917893E-4
0.0024546557
0.0037719402
0.00257778
0.0016347625
0.0016936939
3.2408204E-4
0.0024342786
0.0050191274
0.0037827606
0.0028097697
9.11626E-4
-3.4128263E-4
5.533578E-4
0.0021210494
0.0040952945
-5.318157E-4
-0.00656597
-0.0050469814
-0.005678609
-0.008676529
-0.005749443
5.558408E-4
0.006024478
0.0086081885
0.010265662
0.010546789
0.0068122377
0.0031627319
9.895343E-4
2.3840825E-5
-0.0019554202
-0.009463861
-0.012568056
-0.00789808
-0.006373317
-0.0027737815
-1.8375913E-4
-0.006395945
0.0028138827
0.020240882
0.009516751
-0.004997974
0.0012864677
0.0022430504
-0.0053245923
-0.008133217
-0.009883872
-0.009178789
-0.004670342
-4.402815E-4
0.0025141174
0.0032027734
0.0031406924
0.004216497
0.0029792713
-4.2406615E-4
-0.0010643975
-0.0022221452
-0.005919353
-0.0045453086
0.0010945881
0.0040341443
0.004837903
0.0055991136
0.005629084
0.0051279236
0.005128649
0.0033476334
-0.0010186046
-0.0032354314
4.20352E-5
0.0055413726
0.005210519
0.0015406377
0.0027837057
0.0033082762
3.207744E-4
-0.0021757118
-0.006962892
-0.011295208
-0.011108889
-0.010743721
-0.014609626
-0.017958382
-0.009344157
0.004934608
0.012056942
0.018938659
0.02451282
0.01733209
0.006566134
0.003793741
0.00210026
-6.9275533E-4
-0.0011979145
-0.008262163
-0.019001719
-0.019121941
-0.0131890625
-0.009534751
-0.006829641
-0.0041062604
-0.0045322464
-0.006790544
4.539645E-4
0.012558007
0.017171213
0.013491626
-0.002772856
-0.018200077
-0.0142033845
-0.003593696
0.0022162749
0.0072724465
0.016497452
0.030610118
0.04173056
0.04258757
0.02954496
0.013540003
0.005592213
-0.011478471
-0.04324209
-0.06566959
-0.05997167
-0.033463344
-0.009840296
0.007235346
0.017881004
0.015796551
0.012861271
0.0017709455
-0.02209683
-0.03190121
-0.030675925
-0.02785705
-0.014481457
0.0057814457
0.03190844
0.05164963
0.053496756
0.055989195
0.061430063
0.054563656
0.034446813
0.012193612
7.5964467E-4
-0.013672227
-0.04321457
-0.0655933
-0.07477135
-0.073143005
-0.0536721
-0.035988916
-0.024308825
-0.0037512945
0.012279111
0.028017413
0.051930144
0.061808657
0.055010397
0.04074013
0.035678454
0.048248965
0.036875706
0.0034603036
-0.008730908
-0.018586254
-0.036065806
-0.03766087
-0.026200918
-0.010991377
-0.005223684
-0.019115949
-0.046576183
-0.0652121
-0.05696017
-0.055901557
-0.064411834
-0.0379171
-0.011128051
-0.011847085
-0.0108894585
-0.01004209
0.0011311991
0.024024216
0.04566126
0.07575542
0.079081714
0.065233454
0.09204813
0.12101944
0.12544698
0.12516828
0.108395465
0.071397275
-0.00507916
-0.09966539
-0.14398056
-0.15381895
-0.13535607
-0.07599667
-0.03845516
-0.023152692
0.0012855266
-0.0040371413
-0.0254022
-0.014578401
0.008128938
0.00894337
0.006851518
0.03340849
0.06256938
0.054647967
0.017927261
-0.0072403494
-0.0027027144
0.0021788075
0.018632744
0.042394426
-0.006666643
-0.071145415
-0.063272566
-0.07550972
-0.11686226
-0.09549508
-0.05356242
-0.034816016
-0.012289878
-0.004762668
-0.014119782
0.010672946
0.057266336
0.060182653
0.040227193
0.07191418
0.12692353
0.15635005
0.1925168
0.19032651
0.09732476
0.025154116
0.012791471
-0.033222597
-0.0891654
-0.072722666
-0.012013158
0.011076372
-0.009715196
-0.029350257
-0.057877358
-0.1089461
-0.1636794
-0.20950222
-0.21978584
-0.18685132
-0.12767248
-0.053137995
0.02378419
0.10151325
0.14296494
0.122200556
0.10557813
0.08901137
0.020376787
-0.01842782
0.014396556
0.047143597
0.08516583
0.13654219
0.13799603
0.0835097
0.01741836
-0.023790209
-0.043444667
-0.07330446
-0.08892837
-0.07738443
-0.07395832
-0.06831114
-0.046225347
-0.02112844
-0.0056941262
-0.0042405226
0.0033690105
0.01149959
0.0023367754
-0.00542542
-0.0045938166
4.3821122E-4
0.008185703
0.011234789
0.012288324
0.013371371
0.013553219
0.015500483
0.017525395
0.0158473
0.011706154
0.009449259
0.004396724
-0.0030359349
-0.0062219575
-0.008367326
-0.0053512943
0.0032201791
0.007837319
0.0094626285
0.010392929
0.013065229
0.017344067
0.019516243
0.02190811
0.02192422
0.016889462
0.011104248
0.0045979572
-0.0033543778
-0.010359791
-0.017001385
-0.024902793
-0.030796604
-0.034051806
-0.038066722
-0.039469946
-0.037485022
-0.034597192
-0.02979268
-0.027021121
-0.024322813
-0.01602182
-0.0074205976
-7.40995E-5
0.007520122
0.01426126
0.024188502
0.033314925
0.036680095
0.040302243
0.04160005
0.039660174
0.039188907
0.03268291
0.023610037
0.022303758
0.020454079
0.014553209
0.010514904
0.00648599
0.0012017278
-0.003151757
-0.0068442277
-0.010155844
-0.010823212
-0.009612801
-0.00955888
-0.009311988
-0.0103862835
-0.012548676
-0.010978931
-0.010032343
-0.0102215335
-0.008302034
-0.009969487
-0.01250852
-0.011930249
-0.012496605
-0.013543759
-0.01421543
-0.013447166
-0.01122389
-0.011281939
-0.011754433
-0.011375508
-0.010686272
-0.008678745
-0.0062473
-0.0025910723
0.0012152303
0.0046031377
0.0085603725
0.010677027
0.012772807
0.015550786
0.017200729
0.019347282
0.021033397
0.022775507
0.023857536
0.023860047
0.026656384
0.02734755
0.023176242
0.016886583
0.009881368
0.008165042
0.00618281
-0.0015309408
-0.0059302016
-0.007926224
-0.011154152
-0.015220049
-0.021259246
-0.024803491
-0.02659722
-0.028248552
-0.025117356
-0.019605057
-0.0170178
-0.016831921
-0.014883191
-0.0116823735
-0.010166726
-0.00677546
-9.535656E-4
0.0027551502
0.0030666695
0.003161627
0.0053909835
0.006880312
0.009320028
0.012251866
0.009436029
0.006999719
0.009404525
0.011465409
0.011482585
0.00855621
0.005846176
0.0047269305
0.001939219
3.4605523E-4
-1.2253871E-4
-0.0017842689
-0.0028440107
-0.0032164683
-0.0026450914
-0.0017193923
-0.0010035231
-1.13834874E-4
2.4465728E-4
0.0015122609
0.0016672214
-0.0014192748
-0.003094411
-0.0030505967
-0.0049791834
-0.0067990674
-0.0047469772
-0.00213066
-0.0038005747
-0.006220041
-0.00629079
-0.0070896717
-0.008209041
-0.006206724
-0.00297816
-0.0018469553
-0.0011292124
-2.488706E-4
4.3799233E-4
0.0020511118
0.0022609942
0.0018527365
0.0036833745
0.00597328
0.0076182866
0.008074188
0.008339748
0.008787627
0.007250407
0.0057803704
0.0041719726
0.0012077583
-1.8811479E-4
-7.061645E-4
-7.15114E-4
-3.1810033E-4
-0.0016463579
-0.0027571977
-0.0013064872
7.1189104E-4
-7.1023224E-4
-0.0030562077
-0.0021953278
-0.0020964507
-0.0025512702
-6.3158665E-4
0.0012532336
0.0019047707
0.001393761
8.811373E-4
-3.1882478E-4
-0.0015684565
4.2035227E-4
0.0017366918
0.0012398728
8.373199E-4
4.1793476E-4
0.0024015813
0.0041587446
0.0038269623
0.0023678958
1.2608345E-4
4.2575866E-4
0.0012212318
0.0015752482
0.002315268
8.586932E-4
0.0012330071
0.0027960704
0.0013856051
5.913E-4
-1.1713343E-4
-0.0015272051
-7.807375E-4
-8.513373E-5
-8.4798783E-4
-3.1612025E-4
8.1724016E-4
4.937912E-4
-9.1724236E-5
-2.3967377E-4
1.9401437E-4
-1.9862481E-4
-4.1957156E-4
0.0017016907
9.814668E-4
2.7476466E-5
0.0026863217
0.0029635262
0.0035430912
0.005461217
0.005739386
0.0055008787
0.0040607913
0.002952585
-8.135042E-5
-0.0023032643
-9.4321015E-4
-0.0024672744
-0.0037659567
-0.005963603
-0.0069001117
-0.0032203298
-0.0033982452
-3.8270562E-4
1.3478681E-4
-0.0032942756
-7.0082484E-4
-0.011151353
-0.014364526
-0.0025004102
-0.010704286
-0.0083751045
0.008669274
0.006892265
0.0063005565
0.0076354938
0.004961517
0.006863176
0.0050074686
0.0041020256
0.0049541662
0.004059972
0.0052507427
0.0051971124
0.004662858
0.0029730124
0.001521332
0.0018635116
6.1697146E-4
0.0011177829
1.9427123E-4
-0.0032389131
-0.0040094377
-0.0037613688
-0.003349131
-0.004916287
-0.005678064
-0.0031096255
-0.002440372
-0.0024069948
-0.0024016025
-0.0028268718
-0.0024370544
-0.0021919399
-0.0014269592
-0.001452957
2.344086E-4
0.002841062
0.0018324878
0.002003084
0.0019832058
5.9765315E-4
0.0022879846
0.0034899802
0.0032040356
0.0023559222
0.0011846903
9.944111E-4
3.0877942E-4
-8.322742E-5
2.4181083E-5
1.678064E-4
5.023675E-4
0.0021595939
0.0037097966
-0.001097542
-0.0030999198
0.00321204
0.003946469
5.420968E-4
-0.0013172032
-0.0032018903
-0.001910187
-4.4266036E-4
1.4001373E-4
0.0017973345
0.0011448037
-3.811462E-4
-6.750447E-4
-9.3045033E-4
-0.0016659577
-0.0016627627
-9.1494276E-4
-0.0014333896
-8.810389E-4
-4.1774876E-4
-0.0010311978
0.001003293
3.6047286E-4
-0.0024664444
-0.0019951921
-0.0025446075
-0.002402544
-2.7890777E-4
3.205163E-4
5.6388363E-4
-1.7351695E-4
6.64246E-4
0.0039389436
0.004111234
0.0018763856
-5.8047107E-4
-0.0011955387
0.0017938047
0.0030271562
0.0013932552
0.0017793521
0.003105596
0.0029776942
0.0022684904
4.3517246E-4
-9.124328E-4
8.487417E-4
0.0016716843
-3.1132932E-4
-0.001200398
-0.0012655644
-0.0021455486
-0.0029188986
-0.0029959867
-0.002722402
-0.0021384775
-0.0012421026
-0.0016632372
-0.0018585756
6.1648396E-5
6.0928793E-4
6.1988237E-4
0.0016997758
2.9739214E-4
-0.0011700047
5.876317E-4
0.0017763925
7.1437564E-4
5.842758E-4
0.0017825132
9.480321E-4
-2.6812343E-4
0.0011321575
0.0011045315
-9.801779E-4
-9.5870084E-4
-1.8628844E-4
-8.536161E-4
-0.0018207002
-0.0018683091
-9.803118E-4
-3.6522216E-4
1.6393719E-4
0.001040558
4.98562E-4
-0.0016740181
-0.0026544344
-8.1164186E-4
0.0010779974
5.9755275E-4
3.019973E-4
0.0017080839
0.0021846464
9.001195E-4
3.1759858E-4
5.901168E-4
-4.2418888E-4
-0.0015119347
-7.3321234E-4
0.0010352411
0.0022444034
0.0010105486
-7.936214E-4
-1.3062873E-4
-8.5126245E-5
-0.0011967823
-9.998379E-4
-0.0014031575
-0.0019123341
-0.0010958944
-5.4760807E-4
1.0779589E-4
5.789039E-4
1.0958595E-4
6.4889E-4
0.0012373124
-2.8360297E-4
-5.1907264E-4
0.0019168578
0.002802958
0.0020619875
9.2835556E-4
-0.0014111158
-0.0024263873
-0.0014155966
4.6170037E-5
0.0012159718
1.7916538E-4
-0.0014829818
-0.0018975643
-0.0017756788
-7.256346E-5
0.001255689
2.930226E-4
-4.4904224E-4
-4.6312652E-4
-1.1023261E-4
-1.0019901E-4
-0.0014387156
-8.358325E-4
0.0017275338
0.001325858
-1.9164915E-4
-1.5381226E-4
-9.956469E-4
-0.0010163845
1.3794338E-4
-3.6573797E-4
-3.2096988E-4
-1.4157118E-5
-3.491993E-4
5.2455056E-4
5.959621E-4
6.784765E-4
0.0012781181
2.1222768E-4
-2.1215396E-4
-2.8611688E-4
-2.836066E-5
7.3036127E-4
-6.5250543E-4
-4.2420896E-4
4.6116803E-4
-6.133844E-4
9.784077E-4
0.0013624594
-2.5566827E-4
9.4275805E-4
8.5569045E-4
5.998676E-5
2.9093903E-4
-6.3336064E-4
-1.06055646E-4
4.3675775E-4
-7.9163373E-4
-0.0015066741
-0.0023387515
-0.0018307762
4.2576165E-4
9.7370404E-4
3.8944904E-4
1.6101863E-5
-3.8163128E-4
9.774763E-5
4.7827634E-4
3.2471598E-4
7.2315097E-4
9.8810975E-5
-5.901003E-4
6.4068416E-4
0.0013003644
8.998805E-4
-5.2412436E-4
-0.002590996
-0.0021197111
-0.0011967754
-0.001427906
-9.6722326E-4
-0.0010221764
-1.609991E-6
0.0016972302
0.0010603712
7.699537E-4
4.441186E-4
-5.887937E-4
9.500488E-5
-2.8656996E-4
-6.526575E-4
0.0015626703
0.0014502018
1.3454045E-4
0.001476607
0.001803975
9.207237E-4
4.5105108E-4
2.4821752E-4
0.0016749954
0.001540071
1.0669053E-4
9.966322E-4
3.7658805E-4
-4.8882846E-4
9.7284553E-4
-5.4617954E-4
-0.002858252
-0.0013807853
4.8243473E-5
-0.0013394229
-0.002864121
-0.0028836122
-0.0024577226
-9.975267E-4
4.4974202E-4
-2.2452677E-4
-9.700908E-4
-0.0014055358
-0.0018373907
-9.3305804E-4
-5.9606455E-4
-2.76174E-4
0.0012314074
4.3338432E-4
1.5506611E-4
0.0033160623
0.0043499884
0.0039168424
0.0029592065
-9.1894384E-4
-0.001497607
0.0013101625
0.0017349371
5.325595E-4
-8.099326E-4
-9.833073E-5
-8.852855E-5
-0.0021295056
-0.0013520842
-3.3554257E-4
-1.5219713E-4
5.572909E-4
9.737694E-4
5.3267373E-4
-0.0010072179
0.0020198303
0.0027636425
4.528432E-5
0.0043162154
-0.0035700488
-0.015944054
-0.0049803033
0.004769269
0.003460613
0.0045202477
0.0012842425
-0.002107112
-0.0010277693
0.0017112832
0.0042671077
0.005684204
0.006013206
-0.0049790214
-0.015914273
-0.0058389176
0.0074072843
0.0016869167
-0.013870369
-0.012678709
0.0036552595
0.008648893
0.0058617922
0.00434649
0.0017534202
0.002313219
0.0013097245
-9.910249E-4
-4.0820276E-4
-2.6063234E-4
7.4385334E-4
7.616851E-4
0.001107277
0.002587002
2.9392244E-4
-4.2315142E-4
9.640119E-4
6.854423E-4
0.0010562993
0.0011258683
0.0012285756
2.804692E-4
-8.3778886E-4
6.901757E-4
-5.3095147E-5
-0.0015054187
-0.0014429792
-0.003224972
-0.0029896428
-0.0015387171
-0.0021290525
-9.335863E-4
0.0010663188
9.678561E-4
2.3254202E-4
-2.1161055E-4
-4.7617021E-4
-5.694781E-4
-8.5289E-4
-7.590529E-4
-2.0583213E-4
-7.9499884E-4
-6.905188E-4
6.502015E-4
4.943124E-4
4.7859075E-4
-1.3124452E-4
-0.0015554694
-5.1529525E-5
-5.0932815E-4
-0.0030498505
-5.05072E-4
0.0024063096
0.0018894847
0.0022201864
0.0029271343
0.0013519662
-3.1488194E-4
3.8570166E-4
0.0012978716
0.0015090033
5.880794E-4
-0.0022108138
-0.0018675305
0.0013967702
0.0026085086
0.0023819117
0.0012361233
1.3323002E-4
-7.472751E-4
-0.0011764348
2.9123612E-4
5.8448495E-6
-0.0010208715
2.2579657E-4
8.9143816E-4
5.234099E-4
-0.0015583447
-0.0030447175
-0.0016468825
-0.0016238862
-0.0013120184
-5.4757984E-4
-0.0023354562
-0.0016426137
8.683444E-4
5.091355E-4
-4.716816E-4
-0.0011513159
-0.0016007359
-4.466451E-4
8.713449E-4
0.0014357868
0.0017118078
5.9770746E-4
-1.8907702E-4
0.0010992115
0.0014738531
0.001303788
0.0018560457
9.6838997E-4
-1.4321311E-4
-8.83024E-5
-5.542802E-5
-2.6631507E-4
9.692434E-4
0.0030977605
0.0014571957
-0.0012673452
-8.6748874E-4
-9.3534746E-4
-2.9167705E-4
0.0010587794
-9.110119E-5
-3.3416375E-4
1.227264E-4
-1.7482833E-5
2.716287E-4
-0.0012406528
-0.0015511758
7.6785043E-4
-2.2480536E-4
-0.0028446931
-0.0017897654
-1.3015802E-4
-6.468948E-4
-4.4600436E-4
-7.641235E-5
-9.755497E-4
-7.7680196E-4
-5.720096E-4
-6.1601185E-4
3.4078208E-4
-7.1152864E-4
-0.0012202065
0.0014284299
0.0011528219
-0.0014321908
-5.6348636E-4
0.0011486805
3.1136407E-4
-6.251682E-5
0.001658907
0.0022872803
0.0012260857
8.7694044E-4
0.0010434675
9.3548035E-4
9.747739E-4
4.7158555E-4
-4.6522424E-4
2.1404617E-4
0.0015326192
0.0016742708
0.002333201
0.0020602886
-4.2346623E-4
-3.659341E-4
6.64033E-4
-0.0016497069
-0.0020464195
2.0861014E-4
-3.9812337E-5
2.1780122E-4
5.7472027E-4
-0.003303585
-0.0051021525
-0.0027573975
-0.0019795443
-0.0015328128
-8.9553883E-4
-8.989274E-4
-2.4197625E-4
-8.404199E-4
-7.876838E-4
0.0013954025
0.0011049995
-2.4253309E-4
-1.8085603E-4
-0.0012827169
-0.0014830065
8.317788E-4
0.0021515298
0.0023813653
0.0024667594
0.0021511142
0.002460706
0.0016484993
5.3917625E-5
2.3885895E-4
-9.387125E-5
-5.4027987E-5
0.001956213
0.0020761606
1.751434E-4
-0.0011710047
-9.1070856E-4
-5.0671736E-4
-0.0015311838
-0.001163995
-8.214357E-4
-0.0018739854
-5.01141E-4
-2.8042952E-4
-0.0020522415
-1.8252907E-4
0.0016278945
6.72161E-4
3.6050795E-4
-2.0582144E-4
-5.4787693E-4
0.0011591354
0.0019671014
0.0013686578
0.0017939508
0.0017824691
2.3740501E-4
-0.0013207012
-0.0027943663
-0.0030998893
-0.0016064879
-5.204076E-4
1.5435163E-4
0.0013663688
0.0017138819
1.8653802E-4
-0.0014075636
-6.1944657E-4
7.257996E-4
-4.3779027E-4
-0.0023643288
-0.0019378511
-6.252224E-5
5.990886E-4
5.4408686E-4
8.224907E-4
8.328688E-4
9.2523894E-4
6.3867937E-4
-5.075936E-4
-0.0010687863
-9.6439396E-4
-8.038184E-4
1.2002171E-4
9.5205737E-4
-2.6086727E-4
-0.0016801028
-9.514268E-4
5.134063E-4
0.0010908748
7.4791256E-4
0.0017670143
0.0029752788
8.157009E-4
3.0863457E-4
0.001895646
0.0012222436
0.0016205948
0.0012357004
4.8569508E-4
0.0021823486
0.0011641373
4.5490876E-4
9.6058793E-4
3.644915E-4
0.0022049889
0.0017431558
-5.7601614E-4
-0.0023378131
-0.0034379654
4.8180416E-4
-0.005563049
-0.018327283
-0.010392823
0.002650299
0.002720553
0.0022357986
0.0014492472
7.6382735E-4
0.0029195906
0.0011048106
-0.0010507727
5.206671E-5
-1.2996525E-4
3.8601263E-4
0.0023451853
0.0016900138
5.3414586E-4
0.0014206104
0.0016449594
0.0014585025
0.0022785855
0.0022509582
0.0018109182
0.0018580145
0.0013152782
4.6151847E-4
-0.0013059544
-0.003013012
-0.0017889225
-9.7252143E-4
-0.0021067795
-0.0013322158
-1.384757E-4
-2.7472354E-4
-9.176045E-4
-0.0015046925
-2.867943E-4
5.8457756E-4
-4.454666E-5
1.7693248E-5
8.3982165E-4
0.0020102696
0.0017956999
0.00209006
0.002932758
2.0173298E-4
-9.918129E-4
-7.7299203E-4
-0.0027857893
-0.0017389879
2.3238698E-4
4.630679E-4
-6.518261E-4
-0.0026613385
-1.3749205E-4
0.0020770181
7.797168E-4
5.227461E-4
-0.0012594166
-0.0016604201
5.04785E-5
-6.6351786E-4
-5.673471E-4
-1.1083281E-5
-6.329978E-5
-8.120865E-6
-7.633706E-4
-9.7512896E-4
-0.0016315612
-0.0010127573
0.0014517673
0.001440328