0.002428062
2.9410058E-4
-8.605229E-4
-0.0032765882
-0.006918204
-0.007419847
-0.004477611
-7.094882E-4
0.0027821811
0.0037520695
0.0034458037
0.004052318
0.0027626108
-0.0010430601
-0.004581983
-0.004937544
-8.1365235E-4
0.0041319965
0.0055971947
0.0051750573
0.0061596455
0.005405356
0.0014184526
-9.105982E-4
-0.002286838
-0.003914471
-0.0016175722
0.0023704665
0.0021042165
6.92638E-5
9.478337E-4
0.0010919055
-0.0012097604
-0.0035565281
-0.007366094
-0.008287059
-0.0032081315
0.0018855458
0.0048914272
0.005878606
0.0049808356
0.0029982042
2.2397238E-4
-0.0018757702
-0.0044350605
-0.0052580824
-0.0011361717
0.0037520176
0.0051778164
0.003793603
0.003693022
0.0033815033
0.0012832728
-8.7743095E-4
-0.006468109
-0.006744659
-3.567008E-4
-0.002076551
-0.0024144775
0.0015488392
-0.0031671333
-0.007741319
-0.007214661
-0.0048326976
-8.230022E-4
-7.8614254E-4
-1.6046785E-4
0.0043079206
0.005684677
0.0061918404
0.0068156803
0.0041258554
0.0022266775
7.768266E-4
-0.002792531
-0.0021334025
0.0022470378
0.004687833
0.006663573
0.007145897
0.0052427496
0.0026974434
-7.1390247E-4
-0.004182447
-0.0083749425
-0.010054487
-0.005838157
-0.0015752468
-1.440999E-4
9.7759286E-5
7.574271E-4
0.0016307384
-5.8956834E-4
-0.0039008455
-0.006089671
-0.0067233844
-0.0021775912
0.004769211
0.008073409
0.008258444
0.0075573297
0.0048185713
-1.3926004E-4
-0.0039680554
-0.00637241
-0.007846705
-0.004488237
0.0028343443
0.0063498304
0.00539776
0.0048589054
0.0034260193
7.187708E-4
-0.0042778477
-0.011472995
-0.010589891
-0.004248267
-1.5668756E-4
0.0064536603
0.0092926575
0.0060488502
0.0046546836
0.0016039095
-0.0025522478
-0.0052871797
-0.0075354544
-0.005650027
-0.0014833349
0.001833224
0.004178323
0.0052772467
0.006119208
0.004475698
-8.39324E-4
-0.005955022
-0.0058943476
-9.554308E-4
0.0029553985
0.0040768026
0.0035409066
0.0031836103
0.0035319305
8.044119E-4
-0.0037423728
-0.007271811
-0.008785412
-0.005225774
-6.2347506E-5
0.00210098
0.0025922833
0.0020857216
9.034217E-4
-5.9552083E-4
-0.0025788944
-0.0053038173
-0.0070339832
-0.002914701
0.0044372645
0.0066985744
0.0056760525
0.005807622
0.003512571
7.5792473E-6
-6.208843E-4
-0.0015541717
-0.0016612305
9.851923E-4
0.002205069
0.0032194373
0.0039379215
0.00197101
0.0017171776
0.0025706359
-2.4548895E-4
-0.004694682
-0.006601356
-0.0041347416
0.0011684775
0.0050682887
0.00572322
0.0043645203
0.0014171122
-0.0013961396
-0.002987956
-0.0062827556
-0.009236976
-0.0075416225
-0.0033159729
-3.2639175E-4
-6.2296534E-4
-0.0012132527
-1.6457206E-4
-0.0010933933
-0.0024686882
-0.0031947398
-0.0041411603
-0.0014697599
0.0037274354
0.0070307255
0.007989984
0.006788615
0.003547923
4.4402006E-4
-2.2156618E-4
-0.001857915
-0.0043110605
-0.0018441837
0.0029383753
0.006592113
0.007018027
0.003850753
0.0028640477
8.5905986E-4
-0.0037551934
-0.0067068706
-0.009827685
-0.0070542754
4.306348E-4
0.0029420163
0.004250331
0.004176618
0.001967298
0.0011347369
-1.4832833E-4
-8.375499E-4
-0.0023673319
-0.002118372
0.0034700858
0.005816056
0.003654117
0.0011905718
3.7467184E-5
-3.7702307E-4
-0.0046194145
-0.008925327
-0.009318363
-0.005834253
-6.839011E-4
6.4285833E-4
0.0015629012
0.0012460698
-0.0015212875
-0.0020559656
-0.0044539194
-0.00503126
-0.0027298895
-5.6180975E-4
0.0061937287
0.008045576
0.0055190567
0.004518889
8.758056E-4
0.005484148
0.008465388
-0.00201292
-0.0048159533
8.8780915E-4
0.004631682
0.007515392
0.0077143884
0.0036315578
-0.0045676795
-0.007122941
-0.0056515695
-0.0121705765
-0.01517847
-0.006895831
0.0013704945
0.0011697256
-0.001772694
0.0029392953
0.0073350887
0.0058188993
0.0029593229
-0.002658796
-0.0042819544
-8.5321686E-4
6.662163E-4
0.004131021
0.007674462
0.006923882
0.0048354235
0.0020487818
-0.0013376917
-0.003872767
-0.0048334817
-0.004511562
-0.0016057849
0.002021322
6.718742E-4
-0.0014775343
-2.913685E-4
-4.0072924E-4
-0.001950021
-0.0044554016
-0.00805924
-0.0062753223
0.0016844278
0.005801073
0.0044132466
0.00482525
0.0050782566
0.0022372904
-8.187875E-4
-0.0038184868
-0.004642477
-0.0031314401
-0.0014274155
0.0016379032
0.0031350306
0.0031202305
0.0046883444
0.0040211347
-8.854401E-5
-0.005218329
-0.0080294255
-0.0049920673
1.6622062E-4
0.0028859887
0.0037938564
0.0042780857
0.0042259526
0.0021429288
-5.612578E-4
-0.0032027988
-0.0063320515
-0.0056118947
-6.664257E-4
0.003571533
0.0045134965
0.0027881553
0.0024218182
0.0025808907
-6.2879693E-4
-0.004219043
-0.0050113536
-0.0029143493
0.0012233655
0.0049707294
0.0057365466
0.004025594
0.0031038949
0.0012110118
-0.003115426
-0.0060960404
-0.00721371
-0.0050943824
-1.4495694E-4
0.0024297244
0.0032784475
0.003131778
0.0018936496
0.0018034829
-8.6445524E-4
-0.0067675645
-0.009127758
-0.0055811065
3.4687534E-4
0.003460915
0.004462511
0.0073228306
0.00779199
0.0038787979
8.99686E-6
-0.0047627077
-0.008641239
-0.0068220855
-0.0023721592
0.0012570901
0.0033916398
0.004256025
0.004115033
0.0021493847
8.5206186E-5
-0.0036286486
-0.007924525
-0.0053844093
-4.9063313E-4
0.0021694582
0.0066705504
0.0097034685
0.0082749985
0.004525882
5.9816916E-4
-0.002988141
-0.0068125003
-0.005704698
2.271171E-4
0.0037945816
0.0046365946
0.0034949228
0.0016215139
5.6991965E-4
-0.0029963297
-0.008713267
-0.011322264
-0.008770853
-0.0033225198
0.0021135858
0.0037672995
0.0020286252
0.0026059437
0.0019041263
-0.0033064282
-0.006107892
-0.0056064427
-0.0029088003
0.0021511414
0.0061361934
0.007714157
0.007580582
0.007972203
0.0069243247
0.002696458
-0.0010533144
-0.00565684
-0.00598685
0.0015506026
0.0059021357
0.006062285
0.005060094
0.0018169484
-4.7156803E-4
-0.0038426467
-0.008192525
-0.010343761
-0.010431637
-0.00708652
-0.002968156
-5.491253E-4
2.8655655E-4
5.38659E-5
3.6703615E-4
-0.0015433802
-0.0039614504
-0.003994341
-0.002301988
0.004941229
0.011469008
0.010372083
0.008130578
0.004902324
7.4084126E-4
5.547517E-4
4.0519628E-4
-0.0023761974
-0.0029281483
9.708586E-4
0.005254529
0.0064321123
0.0055101723
0.0025481055
-0.0011286301
-0.0032228369
-0.0070471982
-0.012571788
-0.012748116
-0.006362918
-3.593872E-5
0.002516625
0.0046329317
0.005536676
0.001141181
-0.0032941196
-0.0064050304
-0.010729832
-0.00808005
1.7023977E-4
0.004181182
0.005772587
0.0070972075
0.0068225637
0.0059123617
0.0050926805
0.001525428
-0.004513912
-0.005067502
-0.0024497593
-9.718426E-4
0.0030122837
0.004865939
0.004428255
0.0035617626
3.2219305E-4
-6.5087964E-4
-0.0026088716
-0.0034748083
-6.8730896E-4
-0.0028927037
6.1270176E-4
0.0077400375
0.0025991045
-5.853608E-4
0.0011565348
-0.0027656022
-0.006493231
-0.0071666823
-0.0041365554
9.972227E-4
0.0043612914
0.0067690695
0.0059037656
0.002768556
-7.414471E-4
-0.0065837726
-0.010782584
-0.009645027
-0.005611112
-0.0013724137
0.0025904381
0.004325492
0.0036595748
0.0038056576
0.0018754179
-0.0019876235
-0.00315638
-0.0033382378
-2.094951E-4
0.005835912
0.007990522
0.008018833
0.0066929758
0.0030835734
8.690886E-4
-0.0016214999
-0.005271525
-0.0051254635
-0.0013575605
0.001475657
0.0013620309
-0.0012303111
-0.0025015937
1.0106489E-4
0.0011832513
-0.002530366
-0.0062822457
-0.0058949124
-0.001757239
0.0026060871
0.005392159
0.0064760656
0.004939163
0.0017749664
-0.0021427847
-0.0054201824
-0.006281094
-0.005808654
-0.0023671961
0.0039629596
0.00763787
0.0072559095
0.0041860384
0.0011419306
4.9709855E-4
-0.0018060124
-0.005819617
-0.006211174
-0.0024685923
0.003612844
0.0063195745
0.0033669572
0.0019375453
7.250686E-4
-0.0037607742
-0.006313903
-0.007120267
-0.0072363247
-0.0045888904
-4.382415E-4
0.0037926973
0.0051078983
0.0036306346
0.0027337575
7.315415E-4
-0.0029913422
-0.0066117626
-0.006820392
-0.0014005299
0.004166164
0.0071542994
0.0086456
0.007450552
0.005569589
0.003522264
1.4191336E-4
-0.0030629735
-0.004645775
-0.0025370475
4.985134E-4
6.9192436E-5
-3.303826E-4
7.763326E-4
9.180747E-4
9.580705E-5
-0.0034787762
-0.0077067255
-0.007015756
-0.0042657037
-8.990484E-4
0.0046212384
0.006225451
0.0041049086
0.0029143647
6.3955566E-5
-0.003273428
-0.0050520063
-0.0057671536
-0.0029720988
0.001959003
0.004746194
0.004168527
0.0039747935
0.0058127297
0.0031825271
-0.0035111066
-0.007978324
-0.009779782
-0.006830557
5.662114E-5
0.0035004215
0.003493244
0.003978467
0.0025059104
-1.9936009E-4
-0.0011139596
-0.0035790254
-0.004326084
4.7689932E-4
0.0044089295
0.0068905936
0.007973613
0.005953556
0.0045157867
0.0013930066
-0.0035194256
-0.006448087
-0.0076035545
-0.0042064157
0.0010025763
0.00252012
0.0019118064
5.9736404E-4
-3.7868453E-5
-7.8704895E-4
-0.0041476353
-0.007862041
-0.007956634
-0.0039635226
2.3463106E-4
0.0026693428
0.0024150158
-1.3099662E-4
8.182363E-4
0.0035489865
0.0017271851
-0.0020107287
-0.0024114612
0.001477993
0.0047008465
0.004940754
0.0054791225
0.0052458863
0.0035303973
0.0011556263
-0.003238074
-0.007401289
-0.00789375
-0.0039038032
0.0015367899
0.00300655
0.0012915329
0.0022299166
0.005228912
0.00420582
-3.5460654E-4
-0.0043490846
-0.005934706
-0.0022122231
0.0036785484
0.0061109154
0.0067905616
0.0056863083
0.002309366
-7.2473334E-4
-0.0047660884
-0.009011938
-0.008860506
-0.004818437
-7.642972E-4
0.0011015172
4.561173E-4
-7.875618E-4
-4.22618E-4
8.295348E-5
-0.0015945784
-0.0048692785
-0.0066620433
-0.0035052756
0.0024386726
0.0061206743
0.007042312
0.005592457
0.0030371174
0.0019552829
3.9257063E-4
-0.002555274
-0.0032924518
-9.2211826E-4
0.0027217008
0.005273758
0.005576296
0.004723568
0.0028008483
0.0014351385
9.2658435E-4
-0.0032478615
-0.007393084
-0.005289363
-0.0015314702
0.0013609673
0.0040522474
0.0038259812
0.0023036003
0.0021216092
3.9540234E-4
-0.005198674
-0.00912751
-0.0060091037
-0.0010542365
8.890661E-4
7.4560056E-4
-6.879704E-5
6.7568506E-4
4.526062E-4
-0.0037901653
-0.008437415
-0.009047015
-0.0037105887
0.0023014275
0.0040766043
0.004858929
0.004264122
0.0028551992
0.0049109166
0.0049902126
-0.0018087422
-0.007060006
-0.0034171343
0.0019021773
0.002695517
0.0038893234
0.004865124
0.0034417885
0.0032920633
0.0015323453
-0.003456908
-0.005504447
-0.0019555376
0.0039595254
0.006707267
0.0054804655
0.0043424238
0.0020949445
-0.0031121317
-0.0059767226
-0.0056539285
-0.007989764
-0.00834968
-7.8428036E-4
0.005382803
0.0054889442
0.00454646
9.182177E-4
-0.0036458275
-0.0038995377
-0.004764521
-0.007792442
-0.005794209
2.7027816E-4
0.0034256615
0.003243389
0.0025441253
0.0019594945
0.0012631736
-0.0012491453
-0.0056902273
-0.0071180053
-0.0035060511
0.0018835119
0.005977598
0.006807996
0.006440484
0.0063643563
0.0036878746
-5.869783E-4
-0.004488152
-0.0063666184
-0.0032060482
0.0016804265
0.0050704605
0.006604807
0.0044857957
0.0018401268
8.275338E-4
-7.4020855E-4
-0.0030969253
-0.005221053
-0.0039284015
-5.6479825E-4
6.617121E-5
9.1501366E-4
0.0034893116
0.0037271078
6.2619045E-4
-0.003584315
-0.0062608453
-0.007015079
-0.005013075
-1.2733835E-5
0.003859614
0.005617971
0.0063844468
0.0047042905
0.0010297786
-0.0030064932
-0.005513756
-0.0061185537
-0.0052792015
-0.002145801
-0.0010533043
-0.0021637178
0.0018035448
0.0067763156
0.0061698756
0.0021182455
-0.004017085
-0.008522099
-0.007937898
-0.004155348
0.0024170175
0.0091566825
0.011474183
0.009841323
0.005911688
0.0012659559
-0.0019304212
-0.004444206
-0.005819506
-0.00314249
9.2418154E-4
0.0027878967
0.0030268652
0.0012171017
-5.894167E-4
-0.0017836504
-0.004678627
-0.0048926626
-0.0012274766
0.003200983
0.0066678696
0.0044911345
-2.0703323E-4
-0.002461827
-0.0039951387
-0.0034823709
-0.0035079662
-0.0058194944
-0.004961172
-0.0010123968
0.0023364434
0.0038644474
0.004689471
0.0052026846
0.0060590454
0.0057322467
-0.0019610615
-0.008251542
-0.0062328917
-0.0061195455
-0.0021963047
0.0060988427
0.006111734
0.004537805
0.002184373
-0.0042052334
-0.0056543043
-0.0046099746
-0.0034262317
0.0020055743
0.0070923083
0.0065864804
0.0024615782
9.6368673E-4
0.002080412
2.6536017E-4
-0.004809761
-0.008374381
-0.005651204
5.601555E-4
0.004732278
0.005773357
0.0029587473
-0.0012751268
-0.004349415
-0.0075315344
-0.010582512
-0.011543039
-0.008657267
-0.0028767413
0.00322837
0.005765147
0.003323031
0.0030499646
0.0043128263
-0.00103181
-0.008760557
-0.011159776
-0.0075593595
-0.0020650944
0.0020799772
0.005717771
0.008498119
0.01100525
0.011743888
0.008066386
0.0054332903
0.006273871
0.008179321
0.011693151
0.014750639
0.013550471
0.0073351515
-4.021388E-4
-0.008009852
-0.016642647
-0.023996197
-0.029236224
-0.030516295
-0.025059946
-0.017592281
-0.010981351
-0.0039819363
0.002833835
0.010816088
0.019775178
0.026452413
0.030665828
0.034418117
0.038174435
0.03961359
0.03485746
0.025189826
0.014651131
0.002175953
-0.011200583
-0.024504412
-0.03851754
-0.045811787
-0.043665655
-0.036577296
-0.026453422
-0.017765585
-0.010969264
-0.0037025386
0.0036229847
0.009816495
0.012449394
0.018900093
0.029860662
0.032394554
0.030493375
0.03021529
0.027777048
0.023909489
0.015001317
5.472587E-5
-0.013834326
-0.02160064
-0.021620438
-0.0194792
-0.021874486
-0.029700115
-0.043512408
-0.061676115
-0.074740745
-0.08352663
-0.101188205
-0.11207302
-0.09518799
-0.062466808
-0.022254176
0.016637307
0.047162693
0.08318752
0.11490636
0.13251851
0.15338461
0.17505927
0.1875005
0.18783712
0.17267236
0.14506163
0.10286316
0.048946988
-0.0037488414
-0.04553307
-0.07803157
-0.114391476
-0.14010663
-0.13650729
-0.13123204
-0.13625468
-0.1291997
-0.113303885
-0.106133744
-0.10277984
-0.09161648
-0.07952109
-0.068890594
-0.048628956
-0.024696242
-0.004682651
0.014706858
0.031145269
0.04571882
0.06079223
0.07509794
0.08743456
0.094183244
0.09616329
0.09152265
0.07819782
0.064169236
0.047965497
0.024687426
4.872896E-4
-0.020943113
-0.03343861
-0.030230496
-0.017632674
-0.0028431136
0.007843307
0.006547447
0.0012718657
0.0049860547
0.016373584
0.030811895
0.042191014
0.045108132
0.041028645
0.029185344
0.011809058
-0.008371213
-0.032046966
-0.048570123
-0.05169741
-0.046645544
-0.038954284
-0.037406836
-0.038787026
-0.037276436
-0.03978692
-0.045164105
-0.048604928
-0.046338823
-0.037044793
-0.030362459
-0.02511096
-0.013406931
0.0021167197
0.015470664
0.021272987
0.025617585
0.03159301
0.030707033
0.026029091
0.020881653
0.01814954
0.022738092
0.025464362
0.02671415
0.03029252
0.02855488
0.027222719
0.027482824
0.02188253
0.01350596
0.0040392447
0.0012910393
0.0064315083
0.0032377203
-0.005611821
-0.010729631
-0.014917829
-0.015327827
-0.014344273
-0.016969236
-0.015936272
-0.0095331445
-0.004995544
-0.0046499725
-0.005988228
-0.0071870605
-0.008038645
-0.008777487
-0.011075961
-0.013820446
-0.012883774
-0.00814293
-0.0016836175
0.0026587253
0.0033218262
0.00535696
0.007980607
0.0072068395
0.005011249
0.0011350679
-0.0019850149
0.0020661533
0.009185258
0.012558562
0.013345134
0.011904967
0.007886864
0.004894195
0.002524259
-0.0023879397
-0.005481883
-0.0030929968
5.337882E-4
0.0034417505
0.004400225
0.001886682
0.0012461337
0.0016180787
-0.0039882087
-0.011721429
-0.014986612
-0.012225183
-0.005546375
2.3059388E-4
0.003762992
0.0028546806
-0.0026054077
-0.0073352912
-0.012113162
-0.014125228
-0.0074275997
0.0010594305
0.0064944564
0.010774372
0.01146275
0.009030104
0.006623486
0.0034371018
-0.0011155533
-0.0043488154
-0.003457127
0.0010145181
0.0063162507
0.0091748405
0.007929546
0.004726991
0.0010372302
-0.002863113
-0.0042050187
-0.0028369857
-0.0016409522
-1.12029295E-4
0.0030193366
0.006259381
0.007591271
0.0076108547
0.007874334
0.005647208
-7.730464E-4
-0.009264048
-0.016648617
-0.015052582
-0.005403251
0.0011576444
0.003923134
0.0033736008
-8.9010794E-4
-0.0029736995
-0.0054345177
-0.0095267175
-0.010569029
-0.009374178
-0.004305654
0.0010183037
7.3816755E-4
0.0010223346
0.0033251478
0.0037475438
0.0018481503
-0.0021065942
-0.0028157153
0.0022325905
0.009663282
0.015118709
0.013793701
0.009533722
0.007938798
0.007004033
0.0027098055
-0.0073931604
-0.014200129
-0.009624758
-0.003085427
3.5724705E-4
0.0028094128
0.0023233255
0.0011703891
7.779581E-4
-0.002314432
-0.007145344
-0.008320924
-0.004235036
0.0013852308
0.0056903525
0.0061830855
0.0028583093
2.3679166E-4
-0.0010121097
-0.0022601108
-0.0040092766
-0.0059165116
-0.0044226963
-8.494236E-5
0.0036740466
0.005748657
0.004468553
0.0012197649
-0.0010262134
-0.0035065508
-0.0079208175
-0.00990615
-0.00567689
-9.888442E-4
0.0011378077
0.003378246
0.004643926
0.005013505
0.0049892166
0.0026292969
-0.0023709277
-0.0059938477
-0.0029047814
0.0034794526
0.007576752
0.010124927
0.009976916
0.0055785426
4.4619403E-4
-0.0020630206
-0.005349878
-0.009519754
-0.0064318115
9.6198055E-4
0.004622607
0.0051077683
0.002547486
-9.7497203E-4
-0.0033732522
-0.0059804344
-0.0075286734
-0.0076155216
-0.005239205
-1.3278642E-4
0.0030918356
0.002002829
-5.812194E-4
-0.0011624917
-2.8960963E-4
-2.083625E-4
-0.0027367717
-0.0051779277
-0.0012105379
0.0037269313
0.0050868443
0.008196135
0.008685278
0.005347305
0.004040149
4.1736924E-4
-0.006663565
-0.010481331
-0.007870771
-0.0017535477
0.0031201646
0.005304212
0.0037029241
0.0016995571
0.0027341717
0.0012476628
-0.003213975
-0.0053999363
-0.003040361
0.0027419536
0.0055410806
0.005003704
0.005255252
0.003662194
4.5046545E-4
-0.0011409299
-0.0029387523
-0.0053901253
-0.0045828
-8.2233996E-4
0.001843132
0.003372535
0.0041902023
0.0034659668
0.0011191606
-0.0024048162
-0.0062744133
-0.010984499
-0.010109507
-3.07134E-4
0.0053641913
0.0052092583
0.006097393
0.003526351
1.1328603E-4
-0.0010861761
-0.003948788
-0.005960659
-0.00587214
-0.0027867956
0.002593392
0.004235537
0.004038118
0.0042453236
0.0025642705
3.6591222E-4
-0.0031272075
-0.006460704
-0.004921527
-8.1172836E-4
0.0031812764
0.006105778
0.006018185
0.0050179637
0.0035369266
-8.741614E-4
-0.0057769353
-0.007828646
-0.005693019
4.0026978E-4
0.0055731307
0.0061967024
0.0042253807
0.0024026334
0.0021763137
0.0010552849
-0.0037512623
-0.007227999
-0.0051436434
-7.733388E-4
0.0028397662
0.0047089355
0.00451126
0.0024405012
-5.464507E-4
-0.003036125
-0.0060148505
-0.00837435
-0.006849013
-0.0018324062
0.004086704
0.0065201637
0.004801378
0.0032303534
0.002611238
0.0012100269
-0.0028469597
-0.006551199
-0.0049545374
-2.0658472E-4
0.0053634425
0.007361276
0.0038867681
0.0020912867
0.002132354
8.706059E-4
-0.0026044971
-0.006933017
-0.0058134226
-0.0010739117
0.0047375136
0.0072962353
0.0010016001
-0.0023222887
-0.001862266
-0.004627571
-0.0040853643
-0.0047483514
-0.005377611
8.3978643E-4
0.0055148224
0.007422584
0.00680522
0.002872805
8.854384E-4
-0.0011303824
-0.00433846
-0.006823013
-0.006514716
-0.0020290588
0.0022986494
0.0045300806
0.004153379
0.0024214892
0.0013768302
-0.0011840912
-0.0036017904
-0.005524792
-0.0062052486
-0.0016878976
0.0030772353
0.004541857
0.0058640866
0.006941842
0.0056498647
0.002195051
-0.0015315708
-0.0046425126
-0.00459718
-0.0012662096
0.0018340128
0.0033518397
0.0021697597
0.0010233634
1.3573852E-4
-0.0037516637
-0.006292565
-0.006356483
-0.004498423
2.549765E-4
0.0036592674
0.005545289
0.0053187027
0.0028728107
0.0018781789
-0.0013975762
-0.006804174
-0.008235354
-0.0057681436
-0.0020083415
0.0018340388
0.005270389
0.0059383456
0.0045198426
0.0037524386
0.0015046683
-0.0026488078
-0.0065643494
-0.006413139
-0.001703051
0.001918202
0.0040557003
0.004664016
0.0025395022
9.4141746E-5
-0.0029804455
-0.0055197636
-0.0065775546
-0.0061771357
-0.0019930082
0.0028209637
0.005090418
0.005494453
0.0049501536
0.005012922
0.0038821148
-2.0601429E-4
-0.0048093176
-0.0047468245
-1.4385002E-4
0.0025239016
0.0035590283
0.0037486025
0.0020327717
8.073191E-4
-0.0019321449
-0.0051005823
-0.006658132
-0.006903169
-0.0023860915
0.0013065815
0.0016726567
0.0037013474
0.0020420107
-0.0010402775
-7.496493E-4
-0.0038259367
-0.006834535
-0.0044859448
-0.0014123654
0.0020967384
0.006192622
0.0076644947
0.0069473907
0.0050715217
0.0015436953
-0.0022629534
-0.004780652
-0.00577563
-0.0037765522
4.0568906E-4
0.0016948774
5.8962504E-4
0.0017362457
0.0035389843
0.0035990775
6.3514896E-4
-0.005485197
-0.006518074
-5.315977E-4
0.0033900416
0.003930703
0.0031237425
0.0013799154
0.0018871886
0.0017478075
-0.0033423223
-0.007251186
-0.004833409
-9.141439E-4
0.002000061
0.003476572
0.0013103326
7.618754E-4
0.0011515938
-0.003996398
-0.007987129
-0.0085689975
-0.0077398494
-0.0012515542
0.005189351
0.007711705
0.008937044
0.006640562
0.0036091197
0.0012141485
-0.0028010325
-0.0055064843
-0.005768635
-0.002702749
0.0033607017
0.006738948
0.006341771
0.0051631276
0.003322842
8.9106907E-4
-0.002672536
-0.007951024
-0.008851386
-0.0023121485
0.0038708148
0.0058352305
0.0042529497
1.970841E-5
-0.0014315613
-0.0021566744
-0.0070340903
-0.009402982
-0.0070932037
-0.0041329204
9.922868E-4
0.004764758
0.0035341468
0.0028754924
0.0033534411
0.0023820286
-6.5439945E-4
-0.005428698
-0.00397795
0.002618309
0.006005396
0.009373374
0.010768015
0.0073328805
0.0034008748
-0.0010954016
-0.0036235
-0.0053210757
-0.0074653784
-0.0037578794
0.0021376822
0.00423716
0.002158458
-0.0010196929
-4.2143822E-4
-3.4742468E-4
-0.0035497856
-0.008443766
-0.01074653
-0.0053543085
-0.00234194
-0.0014886737
0.005883546
0.0074100723
0.0024608031
0.0015385605
-7.1890495E-4
-0.0058537954
-0.007474633
-0.0030588622
0.0036496366
0.0067677046
0.0071177077
0.0075946017
0.006909768
0.0031971887
-0.0019177962
-0.006108275
-0.0073824106
-0.0032317624
0.0014766112
0.0020034756
0.0024217677
0.0026291881
5.385786E-4
-0.0011615463
-0.0022857161
-0.0039943065
-0.0057952777
-0.0051825587
6.383496E-5
0.004569064
0.0034183736
0.0019443773
0.0035244678
0.0034872142
-6.4488687E-4
-0.0054064584
-0.0062061273
-0.0034386811
0.001042895
0.0068358765
0.009307304
0.00700215
0.0038183748
3.1158107E-4
-0.003488765
-0.0075468235
-0.010070201
-0.0076673366
-0.0023783261
0.0021408412
0.004014913
0.003755299
0.0023005884
-7.2544883E-4
-0.0030720232
-0.0048011285
-0.005203721
-0.0013692874
0.003465974
0.007262892
0.008892274
0.007465573
0.005594781
0.0011785271
-0.0041895797
-0.0057308204
-0.006242493
-0.0056484295
-0.001369445
0.0028554648
0.0035377576
0.0037416597
0.004069708
-4.3531003E-5
-0.0056925425
-0.008197084
-0.008882304
-0.0073433095
-0.0032508327
3.578861E-4
0.0020432014
0.0033150653
0.003306936
0.0022829743
0.002291921
-2.1731554E-4
-0.0020881766
8.120351E-4
0.0025484476
0.004432715
0.006310019
0.005309621
0.005373431
0.0026538603
-0.0025066675
-0.0045692543
-0.0052497187
-0.0024028742
0.002593908
0.0048281713
0.004892463
0.0037508719
0.0028464908
6.891222E-4
-0.0032122745
-0.007376582
-0.011713295
-0.010306428
-0.0025500795
0.003129166
0.0045645735
0.0048203
0.004545268
0.0027036692
-6.4916276E-5
-0.004703754
-0.008322604
-0.0047709704
4.1048558E-4
0.0034494605
0.006096617
0.004538
0.0016058338
4.991372E-4
-0.0020538457
-0.006006885
-0.007960877
-0.0045332504
1.07193606E-4
0.0020130842
0.003817787
0.0045886366
0.0040443745
0.0020943838
-0.0018457244
-0.005184891
-0.00653722
-0.0030231194
0.0030369717
0.0058341334
0.007430689
0.007953617
0.006164448
0.0034366713
-4.4161646E-4
-0.0044944687
-0.007556339
-0.007326896
-0.0026716462
0.0023769743
0.004166607
0.0029199426
0.0017154011
2.0069862E-4
-0.0036368775
-0.006727132
-0.006732791
-0.0030288608
0.0036141947
0.008500416
0.0088121565
0.0060999906
0.0038675915
0.0018081082
-0.0027767753
-0.005999592
-0.006196329
-0.006033156
-0.0023106695
0.0026365072
0.0026514495
0.0020572876
0.0023617363
0.0014021129
2.9191817E-4
-0.0038529462
-0.007187603
-0.0048715994
-0.0026042163
-3.4046706E-4
0.0026823145
0.004196168
0.005054134
0.0018351221
-0.0035109874
-0.005575105
-0.0061137583
-0.0052500833
-0.0017256902
0.001668521
8.57941E-4
4.151549E-4
0.003507381
0.0035117855
0.0025965467
-6.4893643E-4
-0.0064251046
-0.0026691046
0.0019831287
0.002397668
0.0067933174
0.0069054584
0.0045866887
0.004905064
0.0025812658
-4.5086828E-4
-0.0033949374
-0.0016120604
0.003989532
0.0048179696
0.005419914
0.0059207994
0.0040076766
0.0026133142
-0.0010370547
-0.006146301
-0.010239042
-0.010364213
-0.0054438426
-0.0012856863
7.4172666E-4
2.174094E-4
-0.0027162824
-0.0058071343
-0.008940958
-0.0092830695
-0.0073053483
-0.004288043
5.313244E-4
0.004078698
0.0056006387
0.005148285
0.0043959413
0.004454049
9.1354136E-4
-0.004383309
-0.0058210175
-0.002707732
0.0018151487
0.0054833456
0.008986616
0.010075947
0.00861867
0.005969761
0.0021352756
-0.0011458112
-0.005717019
-0.0065341294
6.175478E-4
0.0051614335
0.004552497
0.003482545
0.00335051
0.0034641398
-7.3248683E-4
-0.0062984764
-0.009046987
-0.008529444
-0.0036338647
7.152829E-4
0.0035194508
0.0042630844
4.5166453E-4
-0.0014655932
-0.002025444
-0.005176258
-0.0067083347
-0.005915827
-0.0033874714
-5.252182E-4
8.264372E-4
0.002523872
0.0033600552
0.001963283
-2.9806147E-4
-0.0024959024
-0.0029530064
-9.5298357E-4
0.0019099938
0.0045095785
0.0072501753
0.007750541
0.0045176563
0.0022143181
0.0014343216
-0.0019099533
-0.0062329974
-0.006584527
-0.0025421376
0.0013910655
0.002872552
0.0024283207
7.097921E-4
1.5535142E-4
6.788558E-4
-0.0012752182
-0.004289922
-0.0031432605
0.001576962
0.005273087
0.0065532806
0.0055338014
0.0031341866
3.560448E-4
-0.003496574
-0.0075831586
-0.01032206
-0.009111054
-0.0032783276
6.60679E-4
2.747335E-4
7.8645337E-4
0.003905503
0.006136091
0.0037705952
-0.0020763373
-0.006314157
-0.0047023743
0.0011714841
0.0052505583
0.007267813
0.008373066
0.006415461
0.0036392517
0.0013312096
-0.0018939748
-0.004590886
-0.0049468884
-0.0019593723
9.284166E-4
0.0011463179
0.0019874442
0.0018091911
-2.0163647E-4
-0.0012095912
-0.0058356556
-0.012437422
-0.011424642
-0.0047520646
0.0012601095
0.0050496347
0.006194978
0.0056482605
0.003040925
-7.4275746E-4
-0.003157425
-0.004236109
-0.0021830143
0.0017047094
0.0030366543
0.00415643
0.0058685183
0.005696166
0.00476165
0.003062201
-8.145367E-4
-0.0063889637
-0.009992182
-0.007246815
-4.3387857E-4
0.0040498823
0.005453993
0.005796335
0.0035133744
2.5245137E-4
-0.001780413
-0.004924628
-0.0055911243
-0.0013753864
0.0024245905
0.0035245006
0.001666348
6.298982E-4
0.0020292588
-3.5900874E-5
-0.0029400266
-0.004450283
-0.0060866573
-0.0020673207
0.003279826
0.0032212867
0.0028333361
0.0014105891
-0.0026530763
-0.004483841
-0.004257906
-0.0045241322
-0.0046679564
-0.0021349636
0.003021704
0.0049162135
0.003055182
0.0033231818
0.004248411
0.0027353102
-0.001568127
-0.0073246327
-0.0056976667