0.0048876805
-0.004536753
-8.7406294E-4
0.0109966025
0.018250626
0.01410894
-0.0055035814
-0.0060572564
-0.0040380186
-0.011530703
-0.0020829171
0.0012568446
0.005159194
0.009024209
7.489337E-4
0.0031411333
6.3977804E-4
-0.002972259
-0.007280033
-0.011051326
0.002698926
3.796278E-4
0.011586523
0.027793987
0.0039688773
0.0011262599
-0.0023969489
-0.014906995
-0.0023106546
-0.010875468
-0.008283719
0.0020824347
-0.0055311304
0.012714522
0.015729215
0.0040138676
0.016397052
0.023551198
0.016779656
0.009054097
0.0070434297
-0.007965693
-0.009160827
0.0140727665
0.012266207
0.019345239
0.018103585
0.0010716572
0.01835816
0.012200845
0.009014838
0.002571943
-0.018465314
0.053929117
0.041415922
-0.09109607
-0.076976
-0.009381053
0.0037882705
0.014190389
-0.011993886
-0.006582851
0.01962273
-0.0016766923
-0.006011503
0.00352094
0.00902088
0.015853314
0.0053402404
4.0483318E-4
-0.005208356
-0.006780765
0.016529964
0.026002714
0.02028473
0.020220965
0.017506508
0.014815065
0.011092301
0.0114243
0.01015517
-0.0052917213
-0.0077971257
0.0016943133
-0.004389665
-0.011395921
-0.0054780887
9.86222E-4
-0.0010548162
0.0010467619
0.00788841
-0.003292588
-0.01120027
1.5841785E-4
-0.0014113577
-0.0049075894
0.0044964324
0.0016717742
-8.599397E-4
0.0071920147
0.0022793212
0.001765912
0.0153362015
0.012787285
0.0081865555
0.011030104
-0.0012254964
-0.007958085
0.0010300254
0.012657375
0.020868206
0.0075225313
-0.0023387044
0.008297899
0.0054322192
-0.0018803722
-0.002577256
-0.0046131867
0.0017397944
0.005352061
0.006682712
0.010067054
0.006031978
0.0067484262
0.004851926
-0.0048289043
-0.0020138654
0.0034940212
3.3384838E-4
-0.004605813
-0.0058339466
-0.0018596107
0.0021796431
0.0103572775
0.014150086
0.0016843054
-0.0064820135
-0.008232883
-0.011204944
-4.2915207E-4
0.014983836
0.01599463
0.0084939925
0.0049409885
0.0037665137
-8.716391E-4
5.0862227E-4
0.006427016
0.0056719393
0.0034689473
0.0018980948
0.0011982848
0.0040476546
0.00565182
0.0016850377
-0.005760306
-0.0058272593
0.0016568209
0.005167227
0.0049348157
0.0049575693
0.0063916757
0.009591815
0.015079859
0.01865901
0.012279522
0.0022499198
-0.0018169085
0.0022689393
0.006575025
0.0034414565
0.0033598966
0.001362438
-0.0021775856
0.007155003
0.0077464012
3.2329146E-4
-0.0010124313
-0.00994291
-0.00650812
0.007833401
0.0034316098
3.440085E-4
0.002519582
-0.0013544072
-0.0015692414
-0.0141217215
-0.027458701
-0.009835438
0.008017123
0.00890623
0.012973311
0.013228586
0.011928316
0.014766063
0.009109586
0.0034054378
0.0038287335
0.004682326
0.008778435
0.010083994
0.0070037725
0.0067309146
0.003961968
-0.002121106
-0.0031332884
-0.004960042
-0.006737901
0.0051406436
0.008933224
-0.0017931963
0.0048452034
0.013468842
0.015245724
0.020310104
0.0051956885
-0.006524952
-3.879954E-4
-0.0070966682
-0.0073775
-0.003444868
-0.010693759
-5.488112E-4
0.014983141
0.016117465
0.009274838
-0.005489996
-0.00863952
0.0021269363
0.0013063095
-0.0064329077
-0.0032459
0.0038920224
0.002160433
0.0027226626
0.00551585
-0.005249459
-0.0063729454
0.00696317
0.0051583364
0.0028243542
0.010306774
0.016417313
0.024232743
0.019727523
0.0073255417
0.004719892
-8.435206E-4
-0.004631907
0.001130026
0.003051346
0.001615801
0.0025567515
0.0016816073
-0.0049256696
-0.01104787
-0.015605668
-0.014555646
0.0012202789
0.0066305483
0.0019671903
0.010162786
0.0059038354
-0.0026345178
0.0043182457
0.006189804
0.008929562
0.0062611774
-0.003677708
0.0039640996
0.010041083
0.0065752543
0.009806824
0.011647578
0.010715506
0.01278353
0.013818185
0.005156233
-0.0047806185
-0.0047808
-0.0055593834
-0.0047341995
-4.4815676E-4
0.0021495735
0.008328464
0.0054656835
-0.0051790606
-0.0057412577
-1.6686166E-5
0.004138381
2.0734793E-5
-0.005841396
-0.0016293501
0.0026981425
4.2660662E-4
-0.0015636896
-0.001532854
-0.0034522002
0.0023499164
0.014378679
0.009964141
0.0038309216
0.0074230824
8.7162637E-4
-0.0032444848
-8.7730493E-4
-0.0042508184
0.0031535162
0.014489481
0.0061702565
-0.005565072
0.002319743
0.012764907
0.006142753
0.0012274288
0.005693376
0.004589759
-0.0022348696
-0.008208731
-0.002247386
0.011946881
0.0150777185
0.013126824
0.015250801
0.012721338
5.8172666E-4
-0.0080061415
-0.0016751062
7.3197583E-4
-0.0050195176
-0.0037310708
-0.0041778875
-0.0019755005
0.0120865265
0.015834657
0.0016557906
-0.009171632
-0.006881838
-3.9121654E-4
0.0074896035
0.008959398
-0.005344471
-0.010569161
0.0017799346
0.0056618126
0.0015715763
7.42227E-4
8.746016E-4
-0.0016958639
-0.0020319163
0.006087541
0.008522191
0.0027241088
0.0018778398
0.0055729006
0.01165346
0.008208837
-0.0039914963
-0.0032971986
0.0021996968
0.0021562357
0.0075612133
0.014277368
0.01276864
0.008125619
0.0027763732
-0.0041165184
-0.0025156022
0.0038443296
0.0054281405
0.006790333
0.0022183515
0.0027762365
0.011686454
0.0016380487
-0.008029459
-0.0044060126
-0.0070021567
-0.0040779184
0.0020369643
0.00639494
0.010505996
0.0040310565
0.0024379687
0.0010408122
-0.006907013
-0.0026822453
-0.0017112917
-0.0035848196
0.00806214
0.016411101
0.012524446
0.003770468
0.0019335866
0.0027836957
-0.0041890885
-0.0061221137
2.5666904E-4
0.006855926
0.0050185057
-0.0033215617
6.0652243E-4
0.0073614297
0.005870984
0.002278165
-0.005035865
-0.003123454
0.002487676
-0.0010862249
0.0020743597
0.0045832107
0.0015455205
0.0069084642
0.010174384
0.008583259
0.009460433
0.00528251
-0.002849639
-0.0032848075
0.004247438
0.009272144
0.008612685
0.0044330275
0.0017586213
0.008133161
0.013568598
0.0055780225
-0.005475933
-0.009133532
-0.010049595
-0.0073112873
0.0017487749
9.5848157E-4
-0.00880836
-0.003411875
0.009148497
0.00847847
-6.923507E-4
-0.005158187
-7.181388E-5
0.0057442607
0.00710294
0.0069049853
0.007630316
0.01007941
0.0054144724
3.831878E-4
0.00512784
0.0031731946
-0.0025534912
0.002103328
0.0075433403
0.009479905
0.010496437
0.009152466
0.0051749013
0.0013907199
-0.0018366767
-0.0064691985
-5.3324364E-4
0.0072458815
-0.0037716266
-0.0076817265
0.002466762
0.0033614303
0.0026378527
-6.1483774E-4
-0.0029709358
0.003338815
-0.0027431138
-0.0060040443
0.0052413144
0.005155795
0.0044778
0.005230768
-0.003294472
-0.0050654067
-0.0037018692
-0.0018782398
0.005256445
0.012232587
0.017295575
0.010747511
0.0037622738
0.009300747
0.0112164095
0.010832038
0.0069620865
-0.0024056754
-3.7216602E-4
0.0039171996
7.328892E-4
0.0012030669
0.004458213
0.0038793015
0.0025357918
9.6715544E-4
-0.008385517
-0.013190161
-0.0029242132
0.0027842394
4.297777E-4
-9.5923076E-4
-0.0021089262
5.257369E-4
0.0022510663
-0.0029131246
-0.0042755078
0.0041292785
0.007287771
0.004195553
0.0053083436
1.8242245E-4
0.0038014478
0.024437364
0.02546229
0.011314833
0.0010195052
-0.0063114315
-0.0016723505
0.0045287884
0.0070466655
0.008693827
0.0076092673
0.009946143
-0.0011021794
-0.014175459
-0.0034290121
6.3722796E-4
-0.007991473
-0.0046291067
0.0024428933
3.534606E-4
-0.0041584
-0.0018698677
-0.0023550617
-0.007797309
-0.0035152358
0.0069044125
0.011431754
0.007700548
0.007071549
0.011195385
0.006162547
0.0034223902
0.005479565
-2.4297657E-4
8.324681E-4
0.006125051
0.0036446126
0.002312204
0.002400342
0.0054614837
0.0075278487
0.0019163813
-8.504033E-4
-0.0043963185
-0.0049773185
0.008153015
0.012451399
0.006935477
0.00891421
0.0077726436
0.005066809
0.0068863183
0.0041551255
-2.8205986E-4
-0.0025264968
-0.0038962697
1.6168869E-4
0.008866041
0.008169005
-0.0012514044
-2.9333908E-4
9.666416E-4
-0.00841527
-0.011115474
-0.009355006
-0.007299191
-6.251079E-4
0.0020495714
0.005914033
0.009578789
0.0025267026
-0.0016437214
2.279146E-4
7.653211E-4
0.0036953602
0.005283288
0.0062350645
0.011932126
0.014601272
0.0104663
0.007452753
0.010524568
0.010953046
0.0011259652
-0.003433092
0.004464702
0.0060443566
-5.1487563E-4
-0.0024509209
6.210041E-5
0.0031870592
0.0043370766
0.0029282642
-9.1338326E-4
-0.0023283123
0.004522986
0.006997821
0.0033498334
0.005793099
0.0067426185
0.0046106093
0.0018007029
-0.0040766667
-0.0042952877
-0.005063641
-0.006968872
0.0017694918
0.0056131203
5.343918E-4
7.6858304E-4
0.0022590791
8.092171E-4
-0.0022198528
-0.0028388689
-4.1009163E-4
-0.0010510891
0.00357927
0.0114239855
0.0061008674
5.9535564E-4
0.005420748
0.0051969765
-0.0015883575
-0.0040290207
0.0016052213
0.01126192
0.018942013
0.021555698
0.01564996
0.008133503
0.005526214
-5.570858E-4
-0.0045140013
-0.0013408088
-0.002198378
-0.0011660676
0.0045959307
0.0033883785
-3.0879435E-4
-3.1169275E-5
8.297776E-4
0.0031465637
0.004009625
-0.004418898
-0.008521265
0.0013301524
0.002823062
7.1178796E-4
0.008968578
0.006774507
0.0016428473
0.0026245909
-0.005964801
-0.006034501
0.003150571
0.0019247389
0.0054005072
0.010371756
0.0034911453
-0.0012275077
5.393225E-5
6.5219856E-4
2.1269445E-4
0.0013414724
0.00340887
0.0041177357
0.0067841527
0.00864598
0.00910144
0.010123949
0.0057088323
0.0021952973
0.004321462
0.0046470454
0.0017733572
2.9215473E-4
0.0055317753
0.0063816337
4.7710544E-4
0.0024223446
0.002875125
0.004002864
0.008511732
-0.0020923484
-0.007992919
-2.1831442E-4
0.0018488324
0.0054599
0.007609898
0.002901762
-6.18954E-4
-0.004976614
-0.007553758
-0.0063164625
-0.003157814
-0.001471914
-7.263974E-4
0.0013250303
-0.0013697726
0.0038680113
0.013279166
0.00740613
0.0035086747
0.0016693503
-0.0026799948
6.8519043E-4
2.5761547E-4
0.004104253
0.0139507195
0.015943268
0.015449905
0.009234857
0.006595412
0.008012903
0.0016145622
0.0044414583
0.008988252
0.002820735
-0.0014155199
-4.13375E-6
0.0037536204
-5.015395E-4
-0.004408534
-0.0053951903
-0.011815391
-0.0043634903
-0.0021197076
-0.013587024
-0.0043672435
0.006146043
0.009573302
0.015486425
0.005790263
-0.0041351854
-0.0020041594
0.0041035074
0.009427657
0.0047920453
0.001155633
0.0042889817
0.01035092
0.017036494
0.0095652165
-0.0020800116
-0.0040598693
-0.0045257425
-0.0013271621
0.0044129738
0.0065406063
0.005653172
0.0052513443
0.007711836
0.00403654
-0.0034583968
-0.003153911
-0.0028974453
-0.005665199
-0.0019112597
0.0033222325
0.0037711747
0.008614725
0.012245246
0.0026947837
-0.001545881
0.0027320979
7.9665595E-4
0.0038407173
0.003518027
-0.004201299
0.0056930943
0.011882463
0.002506339
0.004745024
0.0038738195
-0.009391125
-0.015159237
-0.008588115
0.008004596
0.016433775
0.008339767
0.003050698
0.004477662
0.0032212858
-0.0016405887
-0.0014994676
0.0025268262
0.002798681
0.009182503
0.014174106
0.0051289313
4.2996253E-4
0.0045910263
0.006578342
0.0013208104
-0.007172546
-0.0039060165
0.0022645565
6.417754E-4
0.0026851506
0.0047526984
0.00323669
0.002809734
-1.0063417E-4
-0.0030580966
-0.0031399722
-0.0037439489
-0.0041362075
0.0013421713
0.00693924
0.0043165456
0.0071896985
0.01249272
0.0042007044
0.0023632876
0.011581544
0.008879323
0.0015998327
0.0012953257
0.001719263
0.0012863575
8.145052E-4
0.0029557147
0.0063755605
0.002924347
-0.0029867145
-0.004075615
-0.0043971282
-0.0034652723
0.0018521289
0.0068824366
0.006148695
8.672902E-4
2.9296867E-4
0.0034322941
-0.0014905579
-0.006107865
-0.0015077379
0.0028519204
0.007983104
0.011494433
0.007575768
0.007669462
0.0077028247
0.0034360846
0.00480282
0.0029233133
-0.0011856349
-5.169332E-4
-0.0016948397
0.0031026176
0.0066627073
3.964475E-4
0.003371926
0.007887983
0.0029539678
6.510096E-4
-0.0028775488
-0.006072952
-0.0028572432
-4.9244374E-4
0.0013802041
-1.8183568E-4
-0.0025436545
0.004265832
0.0038043328
-0.005545149
-0.0018101344
0.0033995528
0.002698227
0.007513933
0.006472518
7.6595345E-4
8.2384254E-4
-8.659871E-4
-0.0016940376
0.0012988868
0.0057730535
0.009305853
0.006557387
0.005330665
0.0060362583
0.004067019
0.0036152096
0.001086173
0.0022342403
0.007065866
0.005826982
0.008568059
0.011973154
0.004863072
-3.9445845E-4
0.0028787279
0.0042208545
-8.724956E-4
-0.0041226363
-0.0056369375
-0.008013536
-0.0057078917
-0.0049637347
-0.004154486
0.003072912
0.0042505455
2.94727E-4
-5.42557E-4
-0.0031396055
-0.003384186
0.0031746887
0.0030939782
-0.0038951407
0.0022630903
0.008889376
0.0024817488
0.006840461
0.010306763
5.7419343E-4
0.0017946116
0.0016583042
-0.00428428
0.002493973
0.008286012
0.00937471
0.010896813
0.0066298274
-0.0012402873
-0.0049776114
-7.846913E-4
-0.0019523369
-0.0049552973
0.0037553702
0.009743242
0.006795214
-0.0025324884
0.0018250663
0.011450912
2.97729E-4
-0.0029833121
0.0024110945
0.0025339995
0.0065874807
0.009767902
0.008380063
-0.0064435573
-0.009224028
0.0032899228
-0.002192943
-0.006195645
-0.011137855
-0.012653794
3.2873655E-4
0.0054317117
0.009864225
0.0024021661
0.0028987285
0.018745052
0.014659845
0.016725423
0.008721878
-0.002436745
0.0051290714
0.0032372293
0.013561912
0.0028053196
-0.0120496955
-8.510291E-4
-0.016876051
-0.011714154
-0.004492201
-0.009732909
0.0065292716
-0.0035681494
0.0064196545
0.013101566
0.0025028356
0.010311126
-0.018355817
-0.0128885675
-0.0025303608
-0.0095668
0.005825775
-0.025891818
0.0017753075
-8.415268E-4
-0.039500087
0.024385853
-0.027443761
0.069455005
0.24828245
-0.006985801
-0.13357358
0.009093861
-0.013839501
0.015726833
0.03276777
-0.0321223
-0.031102285
-0.037405368
0.0033150238
0.019194651
-0.017785244
0.004576277
0.009629422
0.015405378
0.026548836
0.006692623
-0.003707371
-0.017324708
-0.011241832
-0.005007816
-0.015075032
-0.004775112
0.0019174183
0.009401703
0.01502324
0.013976256
0.01624053
0.0025007073
-0.0085081775
-6.203599E-4
0.0124652665
0.00440734
-0.0046489607
0.01324383
0.0061889924
-0.00914191
-0.012086843
-0.02796876
-0.018740993
-0.0034390788
-5.3302635E-4
0.010433256
0.0071129804
0.003685303
0.008415398
0.010752526
0.013379164
0.0076874173
0.002850256
-2.1972788E-4
-8.747643E-4
0.0029876474
-1.2607442E-4
4.5934826E-4
0.007046272
0.00939143
0.00523021
-0.0019208293
-0.0044345516
-0.0027206328
0.0011625069
0.0011987729
0.004967749
0.010950102
0.008959019
0.006590825
0.0015860256
-4.236687E-4
0.0015753953
-0.0050138254
-0.004719823
0.003481079
0.009285428
0.0082901865
-0.0071101445
-0.010296547
0.0029247059
0.0054919925
-6.293707E-4
-0.003375623
0.0067220777
0.0017553454
-0.025633708
-0.016999654
0.011115144
0.009534436
-0.0029167256
-0.010758777
-0.008747409
-0.003114409
7.260134E-4
0.012046637
0.009494698
-0.0019528541
6.754394E-4
0.0024132335
0.0032254786
6.5764476E-4
-0.0036698342
0.005649733
0.007396457
0.0050235996
0.013521047
0.011999999
0.006312519
0.0055298
0.005623358
0.007590662
0.0012097182
-0.0030414946
0.003348805
0.0036919867
-2.8239324E-4
7.823575E-4
0.0035656602
0.0018559273
-0.0016930333
-0.004252825
-0.010598446
-0.010213315
-6.545093E-4
0.0026818856
0.0022935271
0.0023730851
7.123724E-4
1.953057E-4
-0.001477274
-0.005295871
-0.0058235223
-0.0025117588
-9.535452E-4
0.0012276556
0.004339468
-0.0021134135
-0.007850363
-4.2033766E-4
0.0051558
0.00318371
9.36152E-4
0.0026956752
0.01109149
0.01479664
0.011087022
0.010294021
0.0061390726
7.4524886E-4
0.0021857186
-4.532605E-4
-0.0044953935
-0.0017430907
0.001423166
0.0034470605
0.0022689824
6.9101603E-4
0.0025565587
8.245102E-5
-0.0031842405
-0.0040161135
-0.0069169286
-0.006175372
-1.0593077E-4
0.0052574584
0.004131143
-6.3107844E-4
-0.0014280073
-5.376531E-4
3.319335E-4
-0.003052177
-0.010472407
-0.009030849
-0.0012974048
0.003649325
0.0060129575
0.00974283
0.014520819
0.010231917
0.0010849199
-0.0036679292
-0.0040199407
0.0019020985
0.0057566045
0.0062693013
0.00759389
0.0058932225
0.0056465035
-3.0916833E-4
-0.0085969595
-0.0022077726
9.97193E-4
-0.0042108865
-0.001287143
0.0032491963
0.004743912
0.00543782
0.0041037737
6.764965E-4
-0.0026060764
-0.003447583
-0.0069481116
-0.009147553
-0.0051697777
-0.0019458605
0.0015377321
0.004141167
0.0064921374
0.010376648
0.0055832653
8.1314665E-4
0.002045996
-0.0014184428
-2.3583E-4
0.003070519
8.504274E-5
0.004192293
0.007162492
0.0011130816
-2.0276471E-4
-0.0029771174
-0.010385724
-0.009021863
-0.0026092252
-1.749984E-5
0.002632874
0.0054375883
0.0043472038
0.0038181138
0.0039895857
-4.77987E-4
-0.0048375335
-0.00419642
-0.0011827152
0.001021503
0.0026309732
0.0064917803
0.009340573
0.005989752
0.0013379614
0.0017861788
0.0010231222
-0.0040993616
-0.0018315251
0.0017091043
-0.0040286593
-0.0020823085
0.0061520766
0.004769538
0.002077664
-9.5708924E-4
-0.0055170855
-0.0026273904
-2.0547953E-4
-2.7884077E-4
5.4062874E-4
-0.0053705345
-0.0048112734
0.0043481654
0.0024250573
0.0029320344
0.008246988
0.0029661322
0.0029981197
0.00734609
0.008189938
0.010318144
0.0042034197
0.0012027276
0.0013498649
-0.008792248
-0.011499827
-0.0075775045
-0.0010501503
0.0038943775
-3.8906062E-4
0.0059057404
-0.0024249847
-0.022141844
-0.0037602638
0.003396141
-0.010139723
0.0026190125
0.0034963877
-0.006500101
-0.0010120015
-3.4822844E-4
0.0038721396
0.010604063
0.008610469
0.0057022264
4.979663E-4
0.0010537107
0.0061953217
0.005176238
0.0074037095
0.012502915
0.009090193
0.0014597429
-2.970392E-4
-0.0022858942
-0.00785156
-0.0049416586
0.0029268428
0.0066137263
0.004555601
8.792994E-4
0.005031142
0.0021263415
-0.0096049905
-0.007340869
-0.0048824386
-0.007969209
-0.003793333
-0.0056437855
-0.006188808
0.006049284
0.009532681
0.0032782238
3.1022908E-4
-0.005916218
-0.011882653
-0.008524705
-0.0036781046
4.0405194E-4
0.0049316627
0.0050676307
0.0037574107
0.003666145
0.007859886
0.011780564
0.0032990759
-0.0031644045
-0.002058803
-0.0055920407
-7.955334E-4
0.007584448
0.0038168672
0.0014278862
0.0024204939
6.3003704E-4
0.0012402794
0.0030858342
0.00329763
0.0020771269
0.0026753326
0.006378899
0.009113036
0.007298874
1.575579E-4
-0.006132722
-0.00863168
-0.009889594
-0.0093093915
-0.006633778
1.613487E-4
0.005318568
0.0016161673
-4.5315054E-4
0.0012965851
-0.0043586283
-0.010520302
-0.0055448054
0.0013654662
0.0043853913
0.011086571
0.013036134
0.0041160877
-0.002315699
-0.004238671
-0.006178205
-0.0072091944
-0.005477605
7.6187757E-4
0.0038632574
0.0029057625
0.0062202155
0.009270164
0.007636964
0.0033055912
-0.0031244138
-0.009568623
-0.010207391
-8.063283E-4
0.0011036715
-0.009881544
-0.0032352046
0.011197531
0.0055651553
0.0028110975
0.0035970516
-0.0072209104
5.011435E-4
0.019264705
0.010948561
-0.0020714414
8.2415034E-4
0.0013198282
8.1168505E-4
0.0039051308
0.0019001038
-5.579316E-4
-0.0012651462
-0.00535539
-0.0074956086
-0.0047042277
-0.0025397295
-0.0014472753
9.717521E-4
-2.4201594E-4
-0.00680595
-0.008924912
-0.004177802
6.95208E-4
0.0029273299
0.0029209505
0.004953384
0.006254933
9.952034E-4
-0.0021264774
-0.0029535936
-0.008007669
-0.008873634
-0.002582949
0.0052708415
0.010897299
0.012397155
0.010389257
0.0020420197
-0.005491344
-0.0017955118
0.0016269122
-0.002011077
-0.0015001253
0.0024497292
7.1993517E-4
-0.0013319649
0.0014163845
0.0021671837
0.0022335707
0.0034587933
-8.210174E-5
-0.0019045101
0.0011994769
0.0015878289
0.0014220785
0.0013852158
0.001229781
0.0048120026
0.002691671
-0.006175928
-0.008432763
-0.0086033605
-0.008490871
-6.646387E-4
0.0036789754
9.000278E-4
0.0012378987
0.0022711973
2.3375863E-4
-0.0032601133
-0.004425718
-0.0029410766
-0.0018956517
0.0022338245
0.004634004
0.0030319726
0.006236944
0.007650653
0.005034992
0.004447351
-2.7010732E-5
-0.0051607606
-0.004745757
-0.0042006504
-0.0043264735
-0.0013771454
0.00332222
0.0044171405
-7.0908817E-4
-0.0061707175
-0.004520407
-0.0020319212
-0.0029387483
0.001690561
0.005533316
0.0045173247
0.0075223735
0.0061657433
-1.233945E-6
-0.0017772528
-0.0035940227
-0.003982333
-9.3554717E-4
0.0015616614
0.0017019486
2.9392692E-4
-9.0470574E-5
-2.7021288E-4
0.0012652639
0.001382747
-0.0038224515
-0.0064875134
-0.0052825185
1.871555E-5
0.0064599006
0.0031551893
4.1246184E-4
0.0018562047
-0.0040798155
-0.006179906
-0.0027598287
-0.0019088938
0.0048944457
0.0073560844
-2.068578E-4
3.7367863E-4
0.0010350852
-0.004521274
-5.488623E-4
0.005545568
0.0042296485
0.0010272706
-0.0050247223
-0.007418137
0.0017062502
0.007445652
0.002528885
0.0031264506
0.0016760794
-0.009547903
-0.0068125776
-3.520951E-4
-0.0056481636
-0.006239197
-0.004562269
3.0647952E-4
0.005695305
0.0051922845
0.008618427
0.003168738
-0.0032309107
-0.004107758
-0.011362546
-7.558841E-4
0.0010755662
-0.009829292
0.019771451
0.027697386
-0.010812369
-0.011717703
0.012349336
0.010127188
-0.0058301967
-0.010693339
-0.005116705
2.0474779E-4
0.008620374
0.008910398
-0.004706713
-0.01091835
-0.005833335
-0.0028178673
-0.008074448
-0.009768493
-0.0021881168
0.0049495315
0.009853225
0.005728112
-0.0012002435
-1.7737862E-4
-0.0025663737
-0.0010182114
0.004013137
-0.0013396151
-3.1527606E-4
0.005268822
0.0019539664
0.0013980392
-1.4562669E-5
-0.0049395245
-0.004071741
-0.0045757536
-0.0014002682
0.0059112753
0.0035079964
0.004561382
0.005162786
0.0047197924
0.014600744
-0.007365338
-0.03467823
-0.011142317
0.0039343764
7.8983203E-4
0.011882143
0.0082717175
0.0022906563
0.0041669756
-0.001997796
-0.005884538
-0.00874446
-0.0062966645
6.750962E-4
7.251641E-4
0.002639364
0.004196533
0.0043831673
0.007110115
0.0032375269
-0.0035934525
-0.006396935
-0.007670628
-0.006739592
-6.186681E-4
0.0052040936
0.0053429627
0.004182349
0.0016668508
-4.366898E-4
-0.0010067531
-0.00437245
-0.0043457057
-0.002119541
-0.0013529075
0.0032414198
0.005529233
0.0027879104
5.386705E-4
1.4806934E-6
-0.0016086303
-0.007680324
-0.010113942
-0.0028507188
0.0052931905
0.004213392
9.570734E-6
0.0056772246
0.0107761575
0.008544691
0.005329476
-0.0037525927
-0.00977611
-0.0073644165
-0.0060454076
-0.0028296763
-6.6150166E-4
-0.0027247581
-0.0029436236
2.3477574E-4
0.0028032835
-0.0020029321
-0.0052143205
-0.0021857803
-0.004987752
-0.008466741
-0.0040701563
6.4215186E-4
9.160296E-4
0.003009463
0.0052602133
-8.3950465E-5
-0.0016363368
0.0022419337
0.0021295673
0.004856462
0.006332567
0.004774267
0.00568029
0.0047034114
0.005060918
0.0014227101
-0.0045645777
-0.001976621
-0.002025826
-0.0025516653
1.1839454E-4
-0.003367268
-0.0044563687
-0.0027934609
-0.005031651
-0.0077392473
-0.010261348
-0.008798425
-0.0031539898
0.0010063178
0.00421418
0.0071861497
0.0055085416
0.0022386275
0.0018965829
-0.006098516
-0.013510184
-0.004994591
0.0021353692
0.004936967
0.010761004
0.0076128147
-9.16769E-4
-0.0042794785
-0.0041888035
-0.0055475077
-0.0059054866
4.056382E-4
0.0049063163
0.004354837
0.0018282384
-7.155885E-4
0.0042247213
0.0069248173
0.003222321
0.001818053
-0.0029643776
-0.006853685
-0.0060093496
-0.0043549286
2.027427E-4
0.0014978435
0.0024093508
0.0042649047
-0.001470764
-0.005992676
-0.007146852
-0.0061811456
0.0011559627
0.0022437032
-7.2917494E-4
0.004023274
0.006111784
0.0041695572
0.0012351813
-0.009022908
-0.015141666
-0.010595665
-0.006198982
-8.5829967E-4
0.0035211898
0.0037066161
0.0058695204
0.0027420728
-0.006082837
-0.008879567
-0.007900641
-0.004560826
7.2020217E-4
0.0025715325
0.0026272566
0.003905702
0.006476132
0.0049217185
-0.0012638369
-0.0019413335
0.0011426837
0.0025418652
0.0045129023
0.0036372184
0.0011477545
0.0026809718
0.005345236
0.0056391447
0.001910507
-0.0029041204
-0.003157732
-0.003217338
-0.003501045
9.486204E-4
0.0032354328
0.0012473057
-0.0020124302
-0.006574231
-0.0073732883
-0.010382131
-0.017130993
-0.01422764
-0.0060312445
4.4483988E-4
0.0034260834
-5.0029514E-5
7.7501644E-4
0.0035991624
-0.0017776345
-0.007164989
-0.00782239
-0.003857891
0.002328084
0.005301089
0.0047502327
0.002885739
0.0059598982
0.007940401
0.0023201143
0.0014293807
0.0028014854
1.348397E-4
-5.909607E-4
-6.948752E-5
0.003040467
0.0062665786
0.005284111
0.0025141512
-0.0024915182
-0.0064110733
-0.008642513
-0.008389349
-0.0043315142
-0.004550531
-0.0020942301
0.006119491
0.006831457
0.003413408
-0.0025267566
-0.00866365
-0.007398281
-0.010104967
-0.010102573
0.002103514
0.0020710856
-0.004486944
0.0033873843
0.0057920082
-0.0024449741
-0.005498617
-0.007103806
-0.008131895
-0.005663274
-0.0033163175
5.390788E-4
0.006750548
0.011629331
0.011659432
0.006238212
6.5332145E-4
-7.3440914E-4
3.05831E-4
4.6104533E-4
-0.0013552873
-0.0010496253
0.003656663
0.003297247
-0.003745258
-0.0059626163
-0.00655672
-0.011347625
-0.0099519165
1.8578839E-4
0.005912071
0.0033086168
2.2728533E-4
-0.0041194796
-0.0073773563
-0.0048618326
-0.007795412
-0.011023218
-0.0042287265
-7.7214086E-4
9.852679E-4
0.006061472
0.004578009
4.412365E-4
8.136294E-4
8.980384E-4
-0.004316397
-0.0062175333
-1.6667024E-4
0.002753585
0.0029668591
0.0044561224
0.007845967
0.010956307
0.0031578941
-0.006607812
-0.01005716
-0.013127272
-0.011730666
-0.0045841825
0.0042305808
0.0021264357
-0.004363299
0.0026012
9.2739315E-4
-0.0021983103
0.007216174
-0.0034599176
-0.01565251
-0.0060513364
0.001956092
0.0075300136
0.009029893
8.320382E-4
-0.0064411703
-0.005557989
9.910064E-4
7.0842245E-4
-0.0043710526
-0.004163601
-0.0011861857
1.6760037E-4
6.378849E-5
0.005249779
0.007990818
-0.0017491187
-0.011036985
-0.010868912
-0.0054222583
-0.0057326877
-0.008504485
-0.0013332367
0.0034489646
0.0015767156
1.6116266E-4
-0.002655494
-0.0042127273
-0.008130533
-0.009800861
-0.003772873
-0.0028946765
-0.0051449267
-0.002170911
0.00483109
0.009484459
0.0031165984
-0.005811872
-0.0052606557
0.002027617
0.0059318542
0.0041415053
0.0030143932
-9.903918E-4
-0.0026032154
0.0045903283
0.005215483
3.2366154E-4
-0.0021798087
-0.006309938
-0.004141777
0.0027296394
0.002503561
-7.164904E-4
-0.0037568812
-0.00670976
-0.0044405954
-0.0021446303
-0.008430498
-0.014718909
-0.011204032
-0.0054806727
-0.0022707297
0.0028177956
0.0040809093
-3.7678936E-4
-0.0032711383
-0.006594965
-0.0080157975
-0.0028333042
-0.0027302988
-0.0065015187
-0.0012892918
7.035554E-4
-0.0027656576
0.0045774914
0.007877058
-0.0025916176
-0.0060505103
-0.0011405362
9.083973E-4
0.0012019831
0.004590389
0.007856848
0.0032495107
0.0014895023
0.005034476
-0.0026454616
-0.009540997
-0.0035874327
-0.0020655976
-0.008324873
-0.011692824
-0.010972763
-0.006320872
0.0012388914
0.003941981
-6.5678795E-4
-0.0053374902
-0.0038907474
0.0012080865
-4.6113535E-4
-0.0031716034
0.0020299768
7.0313504E-4
-0.0036544455
-0.0010922423
-0.0019938783
-0.002213421
-4.6649997E-4
-0.001533793
-8.9399295E-4
2.9858344E-4
0.002352358
0.0043100957
0.0072022774
-0.00436634
-0.034495283