7.585643E-4
0.0130267255
0.026005128
0.03888166
0.050642565
0.063416384
0.07167293
0.069042645
0.061147686
0.053093143
0.04265775
0.02893992
0.012500068
-0.0034474337
-0.012011878
-0.012941245
-0.01012458
-0.0062826895
-0.0055868914
-0.009153897
-0.013366883
-0.013030826
-0.009728622
-0.007959055
-0.004612456
1.4315241E-4
0.0042686965
0.0037881597
-0.009203796
-0.02379075
-0.026520787
-0.021689612
-0.01509723
-0.011262786
-0.009325408
-0.007790009
-0.007888196
-0.0055852956
-0.0055999598
-0.0110878525
-0.013670406
-0.01215506
-0.008956205
-0.006137834
-0.0020696868
0.007247298
0.015838211
0.019175217
0.018005697
0.013235011
0.009236638
0.010061337
0.018025266
0.027569186
0.030160202
0.027112208
0.025658349
0.02670826
0.017348962
-0.0041075638
-0.021578738
-0.031206833
-0.035930324
-0.03719985
-0.036642045
-0.03177103
-0.02449347
-0.017579809
-0.014960621
-0.018969446
-0.018917346
-0.01079169
-0.0018115116
0.0067803045
0.015118725
0.021738214
0.027753504
0.030953057
0.02729425
0.021291958
0.016313363
0.010390017
0.005529208
-4.3848014E-4
-0.0077150185
-0.01061354
-0.010896853
-0.011059548
-0.011327537
-0.009807953
-0.0039319745
0.003220045
0.011749513
0.021633962
0.02775617
0.027420852
0.023256881
0.019751385
0.01624413
0.014940347
0.017606985
0.021795653
0.029589646
0.03572041
0.040395048
0.049397845
0.05928659
0.069760315
0.05891647
0.015581742
-0.02781182
-0.06484198
-0.100419834
-0.12797266
-0.14955163
-0.14516692
-0.113726
-0.08168623
-0.05187578
-0.031531565
-0.020300739
-0.0038700057
0.0071928366
0.009422047
0.014679055
0.024129886
0.035667174
0.044747066
0.048032403
0.048393205
0.051705644
0.060476325
0.06682284
0.067645654
0.066628985
0.062272
0.05732815
0.05095369
0.035666768
0.017494366
0.0031415315
-0.0096476525
-0.017855633
-0.020839157
-0.021470273
-0.015972883
-0.004914354
0.004302232
0.007823306
0.006094253
0.0061034565
0.012906045
0.01947971
0.023653451
0.025360294
0.01653817
0.0037355025
-0.0067613972
-0.025632668
-0.048518106
-0.062671795
-0.06823283
-0.07049216
-0.07182236
-0.06708333
-0.062913336
-0.07036732
-0.07994775
-0.087335564
-0.09268375
-0.08936542
-0.07588789
-0.04480185
-0.002649965
0.03248095
0.06347465
0.084942766
0.089551404
0.088995576
0.08571121
0.085801326
0.0947729
0.09765783
0.094063036
0.09281168
0.09043742
0.084310226
0.070514314
0.050043326
0.027247733
0.0029471659
-0.014810356
-0.027347017
-0.041242845
-0.049599323
-0.051899835
-0.053081032
-0.056304462
-0.06250193
-0.065420784
-0.06728456
-0.06553733
-0.04961943
-0.03252915
-0.025180828
-0.014245468
0.0038280769
0.013146293
0.011128851
0.013845362
0.014711911
0.00312125
-2.6291967E-4
0.006346692
0.0057438393
-6.458393E-4
-0.013970861
-0.025491018
-0.022495147
-0.026047831
-0.04099795
-0.039412647
-0.024583086
-0.015557513
-0.0076102996
3.414876E-4
0.0059246807
0.016431827
0.024145592
0.02203013
0.022169592
0.02883068
0.038892314
0.04957466
0.05451789
0.0496534
0.0381576
0.03576175
0.038196407
0.01735454
-0.016161388
-0.034814753
-0.039573543
-0.03380186
-0.026699634
-0.030568805
-0.034090966
-0.026641548
-0.01777841
-0.014547977
-0.012978819
-0.011608328
-0.0086411135
-0.002807645
-0.002295493
-0.004224587
0.0043036826
0.015801113
0.019584645
0.027750393
0.04620891
0.06165021
0.0668036
0.051173642
0.01721818
9.012795E-4
0.0018799584
-0.011177326
-0.031372923
-0.044498652
-0.049112808
-0.04265106
-0.029147824
-0.017930735
-0.018436665
-0.022918904
-0.017916854
-0.0058983625
0.007133825
0.016673818
0.029030956
0.036824904
0.014805272
-0.011864585
-0.0051152953
0.015528913
0.020743962
0.011128225
0.0027713021
0.0019473484
1.4723372E-4
-0.0050018053
-0.007841887
-0.0053186426
-0.007842638
-0.023498315
-0.032108743
-0.02262024
-0.013236176
-0.010683472
-0.012600392
-0.026653148
-0.044743944
-0.041560866
-0.016762432
0.005982523
0.020534258
0.030000137
0.028907944
0.023988297
0.023218025
0.028269548
0.04023199
0.040519472
0.029030059
0.030290082
0.039786242
0.048146464
0.051691953
0.049954966
0.04714579
0.026763171
0.004556547
0.004426692
0.0059291287
0.010874106
0.010506976
-0.011555212
-0.025300793
-0.028731896
-0.034930293
-0.03568706
-0.030725166
-0.026369696
-0.03174515
-0.037143648
-0.050243426
-0.08119395
-0.09487405
-0.099515125
-0.10978399
-0.10126144
-0.08537935
-0.07187533
-0.06369656
-0.05153789
-0.006376365
0.044456232
0.08147446
0.110000655
0.10497532
0.08882565
0.098873645
0.1111835
0.10820878
0.10974742
0.11260982
0.090255916
0.063477986
0.062486492
0.074344195
0.096308365
0.11408386
0.08431488
0.018675897
-0.030049434
-0.057664376
-0.08902059
-0.12422684
-0.16110873
-0.18653692
-0.17669642
-0.14963183
-0.12247654
-0.09141016
-0.07268757
-0.064377576
-0.051762957
-0.039078042
-0.023383128
-0.0015834131
0.023108833
0.045101114
0.054008853
0.057649083
0.06760976
0.07746759
0.08616564
0.09102606
0.085538924
0.08322926
0.081017666
0.064020604
0.053911526
0.04932034
0.028105156
0.020651732
0.028740242
6.486505E-4
-0.047735706
-0.060345415
-0.046501808
-0.037876487
-0.031192971
-0.026965704
-0.031465188
-0.030191852
-0.018758362
-0.011725107
-0.013705952
-0.016495077
-0.013340372
-0.0070053786
-0.0012581097
0.0038508559
0.0058628283
0.0028191253
-0.004021307
-0.008808803
-0.009566165
-0.0122528
-0.01483282
-0.016815701
-0.02142765
-0.016258245
-6.2768307E-4
0.007989263
0.009483341
0.008099214
-2.5058658E-5
-0.00784947
-0.005246653
0.004698853
0.014385718
0.021990007
0.025731899
0.025967643
0.023768904
0.013717176
-0.002074131
-0.016817974
-0.025095275
-0.024072547
-0.027277885
-0.037830118
-0.04441969
-0.04676268
-0.042956114
-0.03874197
-0.04054648
-0.038657505
-0.027880045
-0.007116615
0.01627489
0.036898058
0.056984324
0.06838366
0.07478299
0.07762585
0.075079516
0.07792018
0.08186075
0.09303874
0.09709123
0.065780826
0.04915154
0.071599536
0.082214996
0.061570793
0.016087953
-0.03530553
-0.06482527
-0.07106218
-0.08966121
-0.14092614
-0.16940272
-0.1606925
-0.16720186
-0.17116298
-0.15275855
-0.13130766
-0.09667377
-0.054500304
-0.022719737
-0.0025953585
0.009148594
0.025863342
0.046547804
0.062032748
0.07113648
0.07344023
0.07526095
0.075412475
0.07574932
0.0816563
0.08430024
0.08542509
0.078660026
0.05204245
0.024571916
0.005194497
-0.006211659
-0.0025678899
-0.00586499
-0.02629128
-0.03691687
-0.03240557
-0.029318212
-0.028361756
-0.021924883
-0.008331279
0.0096595595
0.026945526
0.04751411
0.07296081
0.085456535
0.08041669
0.066369414
0.04686276
0.037408512
0.03492367
0.02024337
-7.482744E-4
-0.023541452
-0.047911536
-0.06654186
-0.07748109
-0.08205212
-0.0902327
-0.0972719
-0.09222492
-0.08950925
-0.08532665
-0.06732317
-0.048979796
-0.045362595
-0.06205268
-0.06754736
-0.03585476
-0.004430901
0.0125299785
0.032725535
0.048458483
0.0611549
0.06891602
0.07014847
0.07922451
0.08043952
0.070806906
0.06041602
0.030191043
0.005375948
0.012435232
0.019219192
0.021935187
0.031073146
0.038434077
0.04196084
0.03384877
0.022940876
0.019049725
0.013125363
0.010691996
0.010397706
0.008243795
0.013922347
0.026253128
0.042288773
0.05744411
0.06580253
0.053673588
-1.4647387E-4
-0.05490547
-0.060269896
-0.054914147
-0.06258649
-0.058435325
-0.05447498
-0.054375883
-0.0511778
-0.066390485
-0.08478214
-0.08062661
-0.07302644
-0.07020979
-0.061198186
-0.04520284
-0.026487911
-0.013879464
-0.009840838
-0.0028122913
0.013659036
0.03264036
0.04611154
0.04601892
0.03678634
0.040142037
0.051292393
0.0521443
0.049002293
0.042242713
0.034459207
0.039872203
0.049366057
0.046392445
0.033060465
0.022430735
0.021039955
0.024647841
0.022035569
0.0061660293
0.002092481
0.017943902
0.012375335
-0.011214762
-0.009638661
0.008886655
0.016740045
0.02008145
0.023055956
-0.0019584594
-0.054244556
-0.079537675
-0.066598885
-0.053769935
-0.041095097
-0.02766744
-0.041281357
-0.069979094
-0.08284781
-0.07717078
-0.057702683
-0.03430577
-0.0143622365
0.0039798603
0.01710742
0.025265032
0.029851168
0.028156457
0.022934029
0.014748236
0.00769403
0.010136346
0.018311143
0.027019054
0.034551308
0.039255872
0.051005296
0.062305056
0.043027326
0.0028616434
-0.022757266
-0.019607056
-0.0043313396
-0.018439021
-0.045462083
-0.040154688
-0.030833906
-0.034471117
-0.030442491
-0.01952118
-0.004045355
0.009616542
0.02208095
0.036143567
0.06064668
0.099108905
0.09100292
0.041647114
0.029877417
0.03409377
0.028890654
0.031907767
0.029838065
0.028043263
0.024599617
0.0077571776
-0.00804537
-0.021222813
-0.036297806
-0.052700013
-0.06411859
-0.067324914
-0.07459648
-0.08520095
-0.092143126
-0.09681
-0.10592447
-0.11698811
-0.107465595
-0.07695516
-0.041896433
-0.0065611484
0.02279505
0.044376638
0.05879734
0.067620955
0.075702794
0.07945301
0.07652213
0.06642092
0.056873273
0.062404994
0.07204389
0.066585615
0.05020531
0.04014001
0.043139983
0.0422153
0.027869472
0.017809547
0.015361908
0.0026382823
-0.014162961
-0.018046983
-0.019608593
-0.02529089
-0.023593413
-0.016493443
-0.013528317
-0.023381105
-0.03992012
-0.03582964
-0.016948473
-0.012961337
-0.014666221
-1.3101943E-4
0.021600038
0.020840432
-0.009312409
-0.035553697
-0.03921859
-0.033188023
-0.025879698
-0.020926885
-0.015042438
-0.0031563663
0.005751068
0.0020470256
-0.010964047
-0.01561688
-0.004395957
0.007935181
0.012219398
0.0127667105
0.018210316
0.022684045
0.015505459
0.008709313
0.0043166718
-0.004803352
-0.010247119
-0.009915677
-0.0052732797
-0.0018750383
-0.005728247
-0.012588921
-0.020627286
-0.023697227
-0.02557126
-0.028045846
-0.017028522
-0.009309731
-0.013070722
-0.007270688
0.0042183907
0.015326585
0.027380565
0.039211586
0.049612444
0.05458419
0.06376782
0.0790166
0.09652685
0.11093926
0.10156032
0.07623242
0.046766724
0.012758586
-0.010870412
-0.03283427
-0.054351833
-0.05709493
-0.04696909
-0.036572505
-0.037359823
-0.036175713
-0.036123034
-0.0644966
-0.08031434
-0.08394206
-0.12549834
-0.14827284
-0.11756789
-0.08311288
-0.05761769
-0.035873774
-0.015291848
0.0037111556
0.010017002
0.012046225
0.014830813
0.013473111
0.0203491
0.036878895
0.046126228
0.05133965
0.05620017
0.049886957
0.0503826
0.060937464
0.05354743
0.047156617
0.05395097
0.047218576
0.039742164
0.046159644
0.046653144
0.03703627
0.02730279
0.016509708
0.00544641
0.006104054
0.0146496575
0.01859821
0.022770368
0.025335124
0.024820037
0.024434242
0.00953608
-0.01584055
-0.030516675
-0.037450623
-0.044524603
-0.051904067
-0.058485273
-0.058802363
-0.055069458
-0.057722546
-0.06322069
-0.059294697
-0.049244452
-0.03845189
-0.026789526
-0.019945042
-0.017462432
-0.020897884
-0.029153964
-0.02995041
-0.029742332
-0.030236019
-0.031859566
-0.05116438
-0.053037003
-0.011115398
0.023134574
0.02936912
0.031320352
0.035825886
0.040128727
0.037281632
0.036738865
0.049748167
0.05975932
0.0582094
0.0568389
0.058516458
0.054339442
0.04521808
0.03926672
0.04225658
0.060592234
0.07871249
0.08132834
0.08317679
0.08632208
0.08514382
0.07609836
0.044705156
0.0036993267
-0.028791754
-0.054867726
-0.070393585
-0.08200075
-0.09763042
-0.11101022
-0.120253436
-0.12010256
-0.111024484
-0.1048102
-0.10304232
-0.09737337
-0.08174451
-0.060812674
-0.04175043
-0.02801473
-0.019230831
-0.0078167785
0.0033674422
0.005125165
0.0035619547
0.010675322
0.02593981
0.03742999
0.04329584
0.048458643
0.05393028
0.058468293
0.05542452
0.051731523
0.055046927
0.060637128
0.07061555
0.07726395
0.07985013
0.08733281
0.092588775
0.09455173
0.08565612
0.0615483
0.03076827
-0.0034486908
-0.022436623
-0.03566331
-0.053796865
-0.051978685
-0.046592545
-0.040582113
-0.038887452
-0.0818543
-0.12903269
-0.15754686
-0.19081962
-0.18972027
-0.15773103
-0.13290122
-0.11259426
-0.09984843
-0.08687335
-0.06411447
-0.041299544
-0.022281663
-0.0021741756
0.02186486
0.044477046
0.07998727
0.14370745
0.21386924
0.25757885
0.25771374
0.22926658
0.18276407
0.12330866
0.07892933
0.04478459
0.012280921
-0.023563446
-0.08471305
-0.13290852
-0.14862846
-0.16153865
-0.16024895
-0.14938706
-0.13698056
-0.11157473
-0.0784363
-0.03232012
0.01806817
0.06705283
0.10738953
0.099989
0.060486324
0.038148794
0.045712836
0.06136573
0.05209457
0.025502749
-0.007801282
-0.048127376
-0.08583276
-0.12286541
-0.13655089
-0.121018134
-0.097887695
-0.05863016
-0.025739614
-0.025472006
-0.041282136
-0.06360807
-0.08279458
-0.09539795
-0.099607535
-0.088478535
-0.05653994
0.0161804
0.11268796
0.21215248
0.32891005
0.41852787
0.427579
0.36009175
0.25843817
0.20288953
0.17352845
0.09516325
0.03460356
0.020905335
-0.017521858
-0.08346219
-0.1933646
-0.3303057
-0.3985854
-0.3735168
-0.24970138
-0.09212291
-0.018114993
-0.0066332854
-0.014495577
0.024568098
0.1324867
0.12982075
-0.0042499187
-0.11770657
-0.18641023
-0.2297288
-0.26353797
-0.23630336
-0.11310039
0.013413217
0.14434378
0.2743782
0.31243718
0.270466
0.21121696
0.18636422
0.1310944
-0.015094512
-0.13467588
-0.22167143
-0.25206158
-0.09087457
0.11058639
0.1846019
0.1916298
0.181228
0.2033914
0.23711967
0.20027408
0.108628415
-0.026608633
-0.17384125
-0.24428216
-0.24770074
-0.2588189
-0.27834278
-0.25655544
-0.20553198
-0.14698026
-0.048737887
0.05107809
0.08407313
0.07525517
0.07400352
0.08560814
0.08626368
0.08896564
0.11538591
0.12632437
0.11724142
0.11200073
0.10071369
0.109853245
0.15033059
0.16637045
0.1229326
0.042853106
-0.025289057
-0.060130764
-0.07784236
-0.101177424
-0.13286375
-0.14973296
-0.14703448
-0.1386808
-0.13084957
-0.12483957
-0.110923655
-0.101236284
-0.10884866
-0.09955376
-0.060587768
-0.017614515
0.02229479
0.059908584
0.08499127
0.093437284
0.08949094
0.0733956
0.0564386
0.042612694
0.007671542
-0.031827595
-0.032226883
-0.010361898
-0.001575778
-0.0036569315
-0.003268717
0.00576605
0.024861548
0.042303737
0.040800944
0.032721367
0.036840215
0.044251308
0.05101017
0.056929655
0.056474023
0.058011048
0.061683096
0.0556005
0.04110455
0.027943283
0.019919017
0.008028525
-0.01504447
-0.03395083
-0.03494484
-0.02836872
-0.018084958
-0.0073808245
-0.013996448
-0.028013475
-0.03855288
-0.058472995
-0.07195956
-0.06660217
-0.059087593
-0.04788593
-0.030023677
-0.017633937
-0.01597255
-0.018540671
-0.014475714
-0.0056564645
-6.3880935E-4
-6.627431E-4
-0.003578997
-0.0035121487
-0.0010080981
-0.0033696762
-0.010738047
-0.02233899
-0.034232743
-0.036502432
-0.032262016
-0.031774767
-0.03581925
-0.038935274
-0.035477024
-0.031887487
-0.034748074
-0.031235084
-0.013104755
0.010704095
0.03071009
0.048265688
0.07062444
0.09673678
0.11673875
0.11842838
0.11148787
0.116612196
0.12638244
0.13648665
0.1468628
0.15515485
0.1690219
0.14457314
0.05904297
-0.015063148
-0.043286838
-0.04725838
-0.03558904
-0.010102694
0.014506501
-0.007112653
-0.07118089
-0.11626118
-0.1370666
-0.15914567
-0.18471028
-0.19776377
-0.17434357
-0.1251845
-0.074516885
-0.025564991
0.003506835
-0.006396341
-0.027032487
-0.025157694
-0.013602152
-0.008988206
-0.0055828397
0.004608107
0.022027496
0.03769598
0.054549735
0.07407634
0.08551276
0.09352069
0.09274926
0.07812767
0.06626756
0.056113478
0.04325891
0.029635658
0.017014928
0.01641344
0.019850992
0.016148096
0.009553103
6.656642E-4
-6.5348437E-4
0.010479915
0.022249818
0.02743021
0.023595514
0.01535562
0.008930889
0.0047687045
-6.278651E-4
-0.013563472
-0.025539516
-0.028198918
-0.031033333
-0.033213545
-0.03198229
-0.03241771
-0.028346602
-0.021649282
-0.016023554
-0.00525516
-0.0034227807
-0.017738236
-0.030967465
-0.037429683
-0.03768362
-0.034321822
-0.0289439
-0.017601375
-0.012186796
-0.013497641
-0.004382433
0.010506883
0.02120781
0.030026332
0.0403904
0.049096186
0.050469067
0.053735368
0.057933416
0.040624514
0.0064046774
-0.017414937
-0.025180595
-0.02692827
-0.02574432
-0.025200233
-0.030618485
-0.031952947
-0.024073878
-0.021815453
-0.023752116
-0.015925925
-0.0047985096
4.8035444E-4
0.0024567395
0.0049696984
0.01291934
0.023132809
0.026090901
0.025169864
0.029398102
0.040817898
0.05358351
0.055020366
0.04267502
0.029994039
0.02550479
0.026212674
0.028270653
0.026066693
0.013290696
-0.0012697753
-0.0039858804
-8.6507614E-4
-1.7475571E-4
0.0034955707
0.007242148
0.0011087942
-0.010797405
-0.024888989
-0.041792706
-0.051539917
-0.056686584
-0.061506715
-0.047119793
-0.019929653
-0.0074403607
-0.0067096013
-0.0071606482
-0.009660668
-0.017346257
-0.031472936
-0.042254858
-0.043940738
-0.045789104
-0.055812642
-0.06404982
-0.051422328
-0.023836583
3.4435888E-4
0.022187699
0.042327985
0.054966353
0.062335394
0.064173184
0.05939739
0.05471918
0.05129548
0.045798413
0.04153356
0.040084776
0.041989367
0.04346001
0.034835618
0.02379235
0.01762289
0.009325246
6.0682837E-4
-0.013513742
-0.034623858
-0.041864365
-0.031344347
-0.021268267
-0.022458475
-0.02719142
-0.025786543
-0.029347576
-0.041724343
-0.047245894
-0.04037656
-0.025962437
-0.012000517
-0.00260134
0.00920929
0.023747703
0.02990095
0.024206556
0.014701304
0.0056391177
-0.0071924045
-0.02240427
-0.03135214
-0.034495015
-0.03776888
-0.036768217
-0.027686039
-0.01720546
-0.01172348
-0.010067095
-0.004372755
0.007851609
0.023713795
0.04134843
0.053552713
0.05799826
0.05827187
0.056165405
0.05287185
0.044201333
0.03740671
0.041026592
0.043481767
0.0446716
0.052337423
0.05915081
0.057039317
0.052020602
0.055430766
0.048164815
0.008743925
-0.039885342
-0.07320123
-0.0942943
-0.11083499
-0.11146874
-0.08968941
-0.07023945
-0.060183547
-0.053753685
-0.054405726
-0.046259668
-0.031720094
-0.026207479
-0.023128113
-0.023260942
-0.020518232
-0.007287642
0.0016937986
7.9530024E-4
-0.0019602557
0.0042416826
0.022124326
0.036868375
0.040087458
0.04022671
0.04520446
0.05098256
0.050086584
0.043328438
0.035824507
0.028544813
0.021198766
0.017278673
0.0128157735
0.0052776574
-5.19889E-4
-0.010344942
-0.019335922
-0.019956136
-0.021016946
-0.016147813
-0.0057009147
-0.0022876812
-2.0499766E-4
0.0023522635
0.0044230516
0.0036586125
-0.0055582756
-0.013839363
-0.019816643
-0.024781704
-0.022260021
-0.01946833
-0.017221404
-0.010948468
-0.0054977126
-0.0014526307
-0.0037716993
-0.01546507
-0.02550722
-0.027663983
-0.022548247
-0.012879266
-0.004583481
0.0033554512
0.013503266
0.019896226
0.018714834
0.013976401
0.00980394
0.0065058777
0.00720868
0.012780625
0.011125736
6.1374303E-4
-0.00696936
-0.01230227
-0.014289118
-0.012357456
-0.017561944
-0.024555473
-0.023171898
-0.018646985
-0.012942115
-0.0051794136
0.0019344226
0.0059637814
0.00604217
0.0051752306
0.0050645135
0.0055147177
0.010498175
0.020108603
0.02606735
0.028170455
0.033582807
0.041674722
0.05005797
0.056858048
0.063037425
0.07114014
0.06789582
0.046522282
0.022099888
0.0032693415
-0.010530331
-0.025315236
-0.04732393
-0.06459937
-0.06769431
-0.066975735
-0.06652931
-0.060626622
-0.05477891
-0.052735616
-0.044867225
-0.03079259
-0.020977313
-0.0193837
-0.019308908
-0.016106652
-0.01447086
-0.009924196
-0.0020625757
-0.0021031268
-0.0021576309
0.002653187
0.0035268269
0.0030259532
0.0024942881
0.0013239702
0.0024484019
0.007928415
0.014215446
0.01202721
0.010810759
0.017844396
0.019042043
0.014933861
0.0139874965
0.017281841
0.025178954
0.0362955
0.04822263
0.05465042
0.059010737
0.06543747
0.06570338
0.061102092
0.05268423
0.045326848
0.04902419
0.054386158
0.05910032
0.05248208
0.009776035
-0.034353785
-0.03754644
-0.041659724
-0.083473146
-0.1121914
-0.094029516
-0.07890043
-0.095979065
-0.10443129
-0.07899064
-0.064037055
-0.0900262
-0.10292186
-0.07716039
-0.05271155
-0.028681552
-0.0012890354
0.0053723217
0.0047849678
0.013362648
0.025090288
0.037983887
0.044229362
0.043521337
0.046130408
0.049242653
0.05171677
0.058833607
0.06606531
0.069132514
0.06856549
0.063532494
0.054931954
0.041030467
0.02576578
0.018454337
0.008923327
-0.008673937
-0.018738534
-0.020745743
-0.021403115
-0.019636152
-0.020261379
-0.020336587
-0.0128599955
-3.444294E-4
0.014756697
0.02540733
0.02519894
0.018559882
0.010942714
0.005611003
0.001963161
-0.0014104164
-0.003563323
-0.0052623893
-0.0055558113
-0.007640879
-0.014961856
-0.022363523
-0.027740192
-0.03101223
-0.034812365
-0.040041156
-0.03843149
-0.03262898
-0.02648578
-0.02055665
-0.022477495
-0.025592646
-0.027720172
-0.032938488
-0.03101285
-0.032444283
-0.03909049
-0.024049943
0.0046868385
0.02715925
0.04625642
0.05881053
0.0661039
0.071327716
0.06296892
0.048116796
0.044326838
0.042550746
0.03703986
0.037385583
0.03872384
0.033303116
0.024452122
0.01802937
0.014119908
0.0056264494
-0.007842996
-0.02106745
-0.030274455
-0.03349725
-0.03268364
-0.02648763
-0.017883021
-0.013783334
-0.014024183
-0.017856454
-0.01905502
-0.015217983
-0.010957376
-0.004337417
-8.489227E-4
-0.0019085732
-1.2186907E-4
7.6531374E-4
5.474659E-4
0.0018174031
0.006003734
0.015717264
0.023656977
0.026774265
0.0253804
0.018236743
0.0104504125
0.0021973618
-0.0059996517
-0.016848627
-0.033949453
-0.040264644
-0.031732563
-0.027909355
-0.03241451
-0.038699515
-0.043861054
-0.044912856
-0.045109175
-0.04684557
-0.041375868
-0.02567767
-0.011456439
-0.00217944
0.007960494
0.017066048
0.025523303
0.033320535
0.032368787
0.027684515
0.03165842
0.04414855
0.06151096
0.079369634
0.09440119
0.10521732
0.10283856
0.08349819
0.052733723
0.017449519
-0.009266092
-0.02484714
-0.034560107
-0.03585417
-0.039335024
-0.052249055
-0.05872591
-0.057334404
-0.06521542
-0.08423867
-0.0962915
-0.091480784
-0.08098984
-0.0715155
-0.05953968
-0.04384515
-0.02450994
-0.008132909
2.6902388E-4
0.005638933
0.010625784
0.01802331
0.029563123
0.038092278
0.042598173
0.048942033
0.05594319
0.06122235
0.06112387
0.050528664
0.036015566
0.02496901
0.016210893
0.010408364
0.005969941
7.748745E-4
-0.0049618217
-0.014061294
-0.021897448
-0.023256162
-0.020962477
-0.013052611
-0.0025241007
0.004605209
0.013931265
0.0253563
0.033241276
0.034798082
0.02525759
0.013278865
0.011091736
0.013069995
0.013034511
0.008811447
-0.001182095
-0.009988533
-0.014327523
-0.019857477
-0.027859792
-0.034341365
-0.03718446
-0.03461905
-0.028938003
-0.030791461
-0.039612256
-0.044205986
-0.046253428
-0.05264511
-0.06446912
-0.07240472
-0.060688194
-0.034980483
-0.013553637
0.0031962069
0.020041341
0.032863457
0.043086756
0.05326529
0.055720903
0.052555393
0.05140761
0.05288815
0.06002311
0.06061759
0.05001294
0.05057775
0.058755063
0.05905189
0.050885502
0.031947516
0.016667606
0.017012933
0.021453355
0.02208216
0.019876301
0.018575288
0.016660333
0.0152471205
0.016823605
0.005752151
-0.02234497
-0.051289566
-0.0700518
-0.07824202
-0.08385756
-0.08317954
-0.072345525
-0.06194112
-0.053491008
-0.049063295
-0.048205867
-0.041115973
-0.03209013
-0.024652284
-0.015324204
-0.006137551
0.004009877
0.014415297
0.01911747
0.016716793
0.012835773
0.013030813
0.017475313
0.024114238
0.03024057
0.035028413
0.037568484
0.03513139
0.028556667
0.022497904
0.021310663
0.022318073
0.02261805
0.023820866
0.024663683
0.025406057
0.023325173
0.020136226
0.023130106
0.022587124
0.016098425
0.013345915
0.012960619
0.014053848
0.012643193
0.009035784
0.007698909
0.0064621773
0.007606771
0.0016910384
-0.011338246
-0.016915489
-0.018320601
-0.009706316
-0.010024709
-0.052236285
-0.09547424
-0.103326984
-0.09570114
-0.08321729
-0.068339355
-0.05253809
-0.03600675
-0.023796191
-0.014025416
-0.0054357485
0.0010865612
0.0061648316
0.008846618
0.009481746
0.009244477
0.011269374
0.019172613
0.0327626
0.046052363
0.052836385
0.053607356
0.050698087
0.045610145
0.0366125
0.024859315
0.018705625
0.016428916
0.01282927
0.009965778
0.00597491
-9.007507E-4
-0.007936659
-0.014420647
-0.024263244
-0.032756396
-0.026284695
-0.010820115
0.0012147201
0.013538449
0.024128571
0.027269116
0.027954206
0.027908051
0.02226363
0.01178844
0.0042330367
0.0043843687
0.0067685344
0.00534764
0.0039041203
0.001105179
-0.007956491
-0.018028665
-0.029114565
-0.039659355
-0.043516893
-0.04629213
-0.047205377
-0.045736875
-0.05109111
-0.06384194
-0.07842515
-0.07769442
-0.054977037
-0.028982548
-0.0037654825
0.01876451
0.026977723
0.03178402
0.046515346
0.06035304
0.06075898
0.0517426
0.039617874
0.030166881
0.032208692
0.03944553
0.04206895
0.042535774
0.042738948
0.0417542
0.03557552
0.024653392
0.014618064
0.0058477307
5.6373497E-4
-0.0017251337
-0.0040128455
-0.0055901143
-0.008313446
-0.00962589
-0.008127481
-0.0075285654
-0.008439206
-0.01070631
-0.008442883
5.540993E-4
0.006365688
0.0031878017
-0.004743227
-0.009544305
-0.01317013
-0.025300652
-0.04215613
-0.051012505
-0.049480535
-0.04380437
-0.037580106
-0.03171109
-0.02424641
-0.0146592315
-0.009241725
-0.0072483076
-0.004907387
-0.002536766
0.003371875
0.011162651
0.01865133
0.02547103
0.029728116
0.034947254
0.033551853
0.021854362
0.01356547
0.0060061356
-0.005039996
-0.00853907
-0.004074751
0.0014542227
0.0073371073
0.012017412
0.010862416
0.0059010815
9.0556825E-4
-0.0033081155
-0.0018290672
0.0053080204
0.01318734
0.019164182
0.022486689
0.025868472
0.029295053