-8.473122E-4
-5.4957192E-5
-2.0143655E-6
-4.4525535E-5
2.766474E-4
2.4658567E-4
3.952291E-4
1.4685323E-4
2.8151614E-4
3.7289003E-4
-9.724026E-4
-0.0019792067
-0.0020543358
-0.0011277343
3.8614344E-5
-1.4822032E-4
3.460612E-5
5.7441083E-4
3.5429382E-4
3.3397213E-4
2.1584523E-4
1.659473E-4
2.2425657E-4
1.7655942E-5
1.3830884E-4
1.7341712E-4
1.9057405E-4
2.9973473E-4
1.9606735E-4
3.1051142E-4
3.0760493E-4
2.5139403E-4
2.943182E-4
1.7699758E-4
2.091572E-4
9.502004E-5
1.4970611E-5
1.5765557E-4
2.010959E-5
-6.939894E-5
-6.41234E-5
-1.4753465E-4
-2.606776E-4
-3.0627887E-4
-1.5453149E-4
-1.7092901E-4
-1.6914692E-4
-6.978516E-6
1.1944608E-4
1.9278983E-4
-1.5687893E-4
-1.3630051E-4
2.8375414E-4
1.1188153E-4
2.7138906E-4
7.798537E-5
-0.0012517266
-0.0012427879
2.6245503E-5
2.9666108E-4
1.13364214E-4
2.3629563E-4
9.07251E-5
1.1483569E-4
1.8746573E-4
-6.177264E-4
-8.668168E-4
-2.5973795E-5
2.311867E-4
2.8557642E-4
2.922604E-4
-1.6709769E-4
3.554551E-5
4.22517E-4
2.787634E-4
2.9000276E-4
3.040546E-4
2.8272698E-4
2.985147E-4
1.5701173E-4
9.5319774E-5
2.907909E-6
-4.818683E-5
5.1360406E-5
-3.6957135E-5
-1.2067121E-4
-5.9989536E-5
-5.747838E-5
-8.2406856E-5
-9.3422736E-5
-7.1988004E-5
-8.246459E-5
-1.2252697E-4
-1.07605105E-4
-1.3008252E-4
-1.2239625E-4
-3.8937837E-5
-3.3154665E-5
-1.0286834E-5
5.535733E-5
2.5831954E-5
-3.168843E-5
-8.0940976E-5
-1.1028748E-4
-7.754864E-5
-6.364662E-5
-4.175622E-5
6.8792924E-6
-2.1149077E-5
-7.696464E-5
-3.2797987E-5
1.4834306E-5
-7.046268E-5
-7.22673E-5
1.3698431E-5
-2.8455523E-5
2.4911626E-5
2.105898E-4
2.6868473E-4
1.7942855E-4
1.19329045E-4
1.3805888E-4
2.610505E-5
-3.3577842E-5
-2.8825158E-5
-1.362801E-4
-6.600575E-7
6.676407E-5
-6.0291783E-5
-2.7075024E-5
1.3235451E-7
1.7098803E-4
1.7589369E-4
1.2599867E-4
3.163267E-4
1.7814345E-4
4.2338565E-4
7.477163E-5
-0.0014813408
-0.0011362551
2.5527718E-4
3.4591768E-4
2.772677E-4
1.81639E-4
9.794906E-5
2.2010831E-4
1.9866234E-4
2.000707E-4
9.562913E-5
1.8375812E-4
1.9535652E-4
2.3085283E-4
1.5772918E-4
-0.0011860885
-0.00126877
2.2191115E-4
3.387118E-4
4.4924184E-4
2.3283015E-5
-0.0014592666
-8.4289996E-4
3.3017818E-4
2.0685542E-4
1.8747378E-4
1.5179867E-4
1.0234842E-4
1.9007197E-4
1.7025565E-4
2.1376027E-4
1.8735147E-4
1.358965E-4
1.171666E-4
1.8832179E-4
2.7692347E-4
1.5031765E-4
1.245311E-4
2.2524639E-4
2.3177019E-4
2.1135111E-4
1.9357397E-4
9.080974E-5
-1.10035304E-4
-1.0853028E-4
-6.8219306E-5
-1.7630782E-4
-1.4473456E-4
-1.3861794E-4
-1.4493892E-4
-1.0805755E-4
-1.9886535E-4
-2.2464858E-4
-2.3027236E-4
-2.0030336E-4
-6.6508284E-5
-1.8586574E-5
-3.1852083E-5
-3.0889343E-5
7.553325E-5
1.1096403E-4
3.4250694E-5
7.626295E-5
7.496493E-5
4.5315755E-5
-6.0650225E-5
-1.2494638E-4
4.5940564E-5
-1.95184E-4
-3.992921E-4
1.9927511E-5
1.8118387E-4
1.18872944E-4
1.3291356E-4
2.9469129E-5
2.8934655E-5
5.8938194E-6
1.3068516E-5
1.8483133E-4
2.1138512E-4
1.6238882E-4
9.379506E-5
4.45662E-5
1.3613675E-4
1.2194488E-4
1.5984258E-5
-3.3912507E-5
-3.366283E-5
4.882176E-5
-3.190043E-5
-2.266687E-4
-2.4230979E-4
-1.9879696E-4
-1.0688775E-4
-3.895863E-5
-1.0819951E-4
-1.11263354E-4
-1.05322244E-4
-1.9622601E-4
-2.5123302E-4
-1.1383911E-4
7.927618E-5
6.377153E-5
1.1902444E-4
2.1959931E-4
1.6037814E-4
1.8909168E-4
1.77161E-4
1.5562905E-4
1.8478616E-4
2.3252182E-4
3.446347E-4
1.6619173E-4
1.6966813E-4
2.5894452E-4
5.6774727E-5
2.461069E-4
-2.79464E-4
-9.460183E-4
-9.023582E-5
2.5680926E-4
1.1766721E-4
2.1108724E-4
-6.3129456E-4
-8.1689475E-4
7.2767165E-5
4.540511E-4
-1.484476E-4
-0.0011690655
-7.1190833E-4
3.165116E-4
2.0550724E-4
1.9985581E-4
2.495695E-4
7.789854E-5
1.8738162E-4
1.9242031E-4
1.9081759E-4
1.5255771E-4
1.5741363E-4
2.9035425E-4
1.580029E-4
9.719575E-5
1.08401706E-4
4.672466E-5
8.248022E-5
1.3196417E-5
-6.62978E-6
4.08411E-5
3.5837576E-5
5.8008332E-5
-3.9886392E-5
-1.2638966E-4
-1.2432146E-4
-1.664743E-4
-1.8099659E-4
-1.1915598E-4
-5.3019994E-5
-4.154926E-5
-1.178389E-5
-7.44788E-5
-1.0991366E-4
8.394481E-5
8.618926E-5
-2.7234595E-5
-9.4083525E-6
-3.140884E-5
1.3379282E-5
7.5208836E-6
1.4688487E-5
1.7133843E-4
1.0869605E-4
-1.781357E-5
-2.6755248E-5
-3.0775598E-5
3.7155136E-5
7.81053E-5
1.0896481E-4
1.0450495E-4
3.875325E-5
8.918333E-5
9.677192E-5
3.1998104E-6
-3.2098167E-5
6.5818307E-7
1.10691384E-4
1.1255152E-4
2.9844128E-5
5.716417E-5
-1.7844308E-5
-1.5084473E-4
-1.5518263E-4
-2.1592289E-4
-2.5826576E-4
-1.9963614E-4
-1.3607462E-4
-6.195189E-5
-1.05036685E-4
-7.2587536E-5
1.2860721E-4
1.0554075E-4
3.4496145E-5
7.060475E-5
6.9575624E-5
1.3861812E-4
1.491038E-4
1.1900211E-4
1.2807894E-4
1.19724835E-4
2.1565268E-4
2.414989E-4
1.8320084E-4
1.5778787E-4
1.235713E-4
1.7298326E-4
1.9438089E-4
2.458226E-4
2.10931E-4
2.4455102E-4
4.113319E-4
-5.8497034E-4
-0.0013046404
-7.5321E-5
3.7830707E-4
8.0788785E-5
1.2309686E-4
-0.001198931
-0.0017595601
-3.880118E-4
2.2148506E-5
-1.3039548E-4
1.08696026E-4
2.023946E-5
4.8944723E-5
1.5234342E-4
1.0100483E-4
1.4983889E-4
2.1430108E-4
3.7936686E-4
4.883772E-4
4.829135E-4
5.181241E-4
4.4334293E-4
4.2826743E-4
3.7451612E-4
2.2283923E-4
3.1741426E-4
2.899276E-4
2.1279418E-4
3.2675194E-4
2.1451035E-4
2.2289854E-4
3.4154693E-4
3.316067E-4
5.3914625E-4
1.2771004E-4
-0.0012494444
-0.0022636729
-0.0020693068
-0.0011027227
-2.7045852E-4
3.9606646E-4
4.6956044E-4
-3.5390654E-4
-4.187185E-4
1.6525105E-4
1.4465464E-4
1.4529705E-4
1.9579695E-4
1.04808336E-4
1.3393164E-4
9.787837E-5
1.800831E-4
2.579437E-4
2.2042826E-4
2.8287355E-4
2.5976117E-4
2.1203911E-4
2.2857559E-4
2.7789574E-4
3.1332724E-4
2.32577E-4
1.7893252E-4
1.00160134E-4
-3.1590527E-5
-1.2277861E-4
-1.9542951E-4
-2.0725977E-4
-2.3720136E-4
-2.3891534E-4
-1.7883723E-4
-1.4507139E-4
-8.2791135E-5
-5.510492E-5
-1.8998668E-5
-1.0885179E-5
-4.9529102E-5
1.6070897E-5
3.3975357E-5
2.4518768E-5
6.20666E-5
1.2591579E-4
1.6290565E-4
1.622412E-5
-5.3145366E-5
-2.4636714E-5
-5.7957745E-6
7.583487E-5
8.9330584E-5
1.6150973E-4
1.050639E-4
1.5046673E-4
4.1840554E-4
-1.8918025E-4
-7.544149E-4
-1.4260168E-4
2.1637396E-4
2.2223583E-5
4.2164855E-5
-1.9879928E-5
-9.0411704E-5
3.8107642E-4
1.8442768E-4
-9.905957E-4
-5.85687E-4
4.6978565E-4
3.2076018E-4
4.935798E-4
-2.2584955E-4
-0.0015722861
-6.620692E-4
4.1932787E-4
3.228012E-4
3.5941906E-4
2.4072181E-4
1.718305E-4
2.072235E-4
8.884738E-5
1.0525066E-4
1.1407278E-4
1.2284187E-4
1.4072063E-4
1.7516046E-4
1.8180873E-4
9.217842E-5
1.1516345E-4
1.4503907E-4
1.9974144E-4
1.2839712E-5
-4.0770706E-4
-2.506587E-4
4.418185E-5
1.1223385E-5
-7.047432E-6
-1.2478318E-4
-1.8671845E-4
-1.7638158E-4
-2.5379582E-4
-2.0814255E-4
-7.236363E-5
4.0620613E-5
6.185644E-5
3.7599002E-5
7.3291136E-5
1.047263E-4
8.129587E-5
2.878986E-5
4.47358E-5
7.115347E-5
9.857365E-5
1.5939365E-4
1.70245E-4
1.736929E-4
7.7692646E-5
-2.7658896E-5
-1.2251367E-5
2.4159948E-5
6.9304726E-5
-2.673955E-5
1.2386295E-4
3.1888075E-4
1.10134206E-4
3.1054716E-4
-1.3287882E-4
-0.0013780488
-8.555612E-4
2.5239904E-4
1.2516502E-4
1.0234552E-4
2.233761E-4
1.2686216E-4
1.7357629E-4
6.534582E-5
-2.840634E-5
5.2043197E-5
-8.64143E-6
-1.1576403E-4
-1.6583237E-4
-1.736466E-4
-9.197663E-5
-5.6629597E-5
-9.473332E-5
-1.3344668E-4
-1.3823144E-4
-1.9575828E-5
2.7931217E-5
-5.2213072E-5
-8.269901E-5
-9.672578E-5
-1.2103038E-6
8.766487E-5
6.735611E-5
1.1798244E-4
1.04619365E-4
6.652828E-5
1.3352252E-4
2.3728526E-4
2.5283487E-4
2.701409E-4
4.891688E-4
4.6619365E-4
4.0715595E-4
4.5510466E-4
3.5030168E-4
6.0008734E-4
-1.950105E-4
-0.0013513002
-1.9251258E-4
6.4888486E-4
4.4385585E-4
5.620632E-4
-9.1274304E-4
-0.0016481184
-2.0208379E-4
9.119699E-5
-1.6736057E-4
2.4864875E-4
-2.5208872E-5
-0.0011703869
-0.0014747363
-2.6722485E-4
2.471892E-4
-8.0062506E-5
1.235733E-4
1.6475852E-4
1.4395325E-4
1.969495E-4
7.166143E-5
1.4239034E-4
1.1279416E-4
1.7000418E-4
4.0148484E-4
3.5112954E-4
2.8451788E-4
2.8176839E-4
2.378841E-4
1.5533998E-4
1.3914437E-4
2.3030986E-4
1.6386836E-4
8.4321684E-5
4.5926103E-5
-3.688035E-6
7.1883687E-6
-1.3324044E-4
-2.5927328E-4
-2.2588746E-4
-1.200652E-4
9.537414E-6
-4.5870405E-5
-8.528986E-5
-1.8465811E-5
-1.438602E-5
7.133988E-5
1.650104E-4
9.779915E-5
-6.545867E-5
-1.2022117E-4
-7.950489E-5
-1.4485826E-4
-1.4243096E-4
-7.471058E-5
-6.437633E-5
-3.5555564E-5
-7.793758E-5
-5.7102956E-5
2.5001998E-5
3.0222789E-5
9.636814E-5
9.242102E-5
9.953733E-5
1.2771638E-4
-1.6660597E-4
-2.2486431E-4
1.4293854E-4
1.6700488E-4
3.3842047E-5
4.3839587E-5
-6.822175E-5
-7.671562E-5
-1.9367145E-4
-5.160262E-4
-2.955483E-4
3.6222875E-5
3.628214E-5
1.6712573E-4
1.10043075E-4
6.289689E-5
2.3300225E-4
2.031315E-4
4.7558232E-4
1.2315644E-4
-0.0012176523
-9.190461E-4
4.4007727E-4
5.566112E-4
4.3676252E-4
4.753221E-4
2.906916E-4
3.713955E-4
3.507536E-4
2.5220634E-4
2.2367387E-4
1.2992664E-4
3.1204903E-4
2.614246E-4
2.605103E-4
3.1994E-4
-9.0464816E-4
-0.0012956406
1.4330966E-4
4.6925896E-4
3.912173E-4
3.4144256E-4
-0.0013957483
-0.0020576278
-5.069192E-4
2.7087305E-4
1.8291696E-4
2.5060237E-4
1.7659595E-4
5.839422E-5
5.5520533E-5
8.018143E-5
-8.971543E-6
-1.9695626E-5
1.3093451E-4
5.7107554E-5
-2.19217E-5
7.91773E-5
1.3722364E-4
2.4802113E-4
2.7181537E-4
2.0139407E-4
2.1477402E-4
1.6105812E-4
1.7060763E-4
2.020119E-4
1.2481866E-4
1.3145983E-4
7.441196E-5
2.4852628E-5
3.455832E-5
-9.027692E-5
-1.1529631E-4
-1.2258376E-4
-1.12801274E-4
-4.216429E-5
-1.2043532E-4
-1.7884502E-5
6.468927E-5
1.13153554E-4
3.3951906E-4
2.3359845E-4
3.1117478E-4
2.43617E-4
-2.3199679E-4
7.276886E-5
-4.3325618E-4
-0.001508094
-5.77176E-4
2.6740666E-4
2.7832099E-5
2.1630836E-4
6.4918044E-5
-2.5762836E-4
-9.662079E-5
6.3599866E-5
1.1863398E-4
9.6356845E-5
1.6237177E-4
1.6781705E-4
3.3578166E-5
6.6942866E-6
4.773142E-5
1.8620197E-4
1.8252038E-4
1.5199278E-4
2.2786188E-4
-1.1829893E-5
-1.0168283E-4
6.389829E-5
5.9456095E-5
8.977175E-5
-1.3646414E-5
-2.2488079E-4
-2.921774E-4
-2.9669696E-4
-2.0779505E-4
-1.6025499E-4
-1.5980178E-4
-1.2756724E-4
-6.984069E-5
1.3141298E-5
9.38435E-6
1.1714558E-4
2.8500764E-4
3.070268E-4
3.2505175E-4
3.0083093E-4
3.2991474E-4
3.898851E-4
3.6297162E-4
3.440494E-4
1.7828487E-4
3.9514245E-5
6.336144E-5
2.5661626E-5
1.8546792E-5
-1.059648E-6
-1.858719E-4
-2.613263E-4
8.898268E-5
2.3254538E-4
-1.9065523E-5
-6.474336E-5
-8.374696E-4
-0.001279606
1.7267109E-4
1.489957E-4
-0.0014297268
-0.0010426592
-1.6538326E-4
6.8103424E-7
3.4774517E-4
3.2268878E-4
2.3360903E-4
2.901649E-4
1.9248815E-4
2.3070163E-4
2.3558261E-4
2.3767122E-4
2.6308192E-4
1.867303E-4
2.2996636E-4
2.5333627E-4
2.0034502E-4
1.7767838E-4
1.5754678E-4
2.3702576E-4
2.9568732E-4
1.9990442E-4
9.15291E-5
4.2973636E-5
-3.895427E-5
-1.1317497E-4
-9.2431044E-5
-8.468297E-5
-4.5725294E-5
-2.7771287E-6
-1.08630804E-4
-1.5319111E-4
-8.5338914E-5
-2.8183133E-5
2.8093078E-5
-1.7318715E-5
-6.5599925E-5
-3.1769046E-5
-4.539795E-5
7.893044E-8
8.3871564E-5
5.426779E-5
1.0229755E-5
1.360649E-5
1.48148265E-5
2.7901611E-5
6.301241E-5
-5.012294E-5
-2.465544E-4
-1.5148192E-4
-3.0161658E-5
-1.3130513E-4
-7.3927E-5
2.2676688E-5
-1.3289277E-6
7.091654E-5
9.211295E-5
1.8253337E-5
2.0119953E-5
6.489672E-5
8.749679E-5
5.1239258E-5
5.5227232E-5
1.5325009E-4
1.7017945E-4
7.585882E-5
-4.064584E-6
-6.804279E-5
-1.16975345E-4
-1.00748046E-4
-1.3236782E-4
-1.9099978E-4
-1.0836452E-4
-1.7817678E-5
-4.0641033E-5
-9.613058E-5
-1.1427604E-4
-7.2652336E-5
-2.9770825E-5
3.6877573E-5
1.7910253E-4
2.806649E-4
2.2326155E-4
1.690409E-4
2.3571748E-4
2.5729372E-4
3.181255E-4
3.1545263E-4
2.3625029E-4
4.7005014E-4
4.7547786E-4
4.32428E-4
6.5309426E-4
-3.5616747E-4
-0.0012237717
-9.2880946E-5
5.8396027E-4
5.371121E-4
7.193126E-4
-6.575755E-4
-0.0017876662
-4.375312E-4
1.7266234E-4
-0.0010174712
-0.0012538309
-5.308467E-4
-1.4713335E-4
6.066828E-5
1.5079913E-4
1.2138835E-4
1.5042667E-4
1.5400535E-4
1.7106695E-4
1.617903E-4
9.479084E-5
1.9207274E-4
3.0093783E-4
2.1634292E-4
2.1902041E-4
3.0585864E-4
3.270129E-4
3.8446777E-4
3.5293217E-4
4.0391064E-4
3.7744964E-4
1.0236801E-4
4.0122136E-4
-8.4383305E-7
-0.0015774383
-0.001263452
1.19597375E-4
1.5614447E-4
1.1650876E-4
1.8259115E-4
5.373315E-5
1.6168042E-4
9.283353E-5
6.070619E-5
5.8940044E-5
1.266053E-5
1.6952203E-4
2.774819E-4
3.565165E-4
2.6362768E-4
1.16344934E-4
1.01229154E-4
-3.416952E-5
-7.027473E-5
-1.0904336E-4
-8.5555606E-5
-1.3500256E-5
-1.7244389E-4
-1.9097148E-4
-5.059115E-4
-0.0010182379
-0.0018044641
-0.003882791
-0.0057537775
-0.00691935
-0.008464177
-0.00956317
-0.010090738
-0.010086142
-0.009185074
-0.007494595
-0.0044269674
-5.600945E-4
0.0031191632
0.006869529
0.010239805
0.012662108
0.0140360985
0.014034481
0.012578792
0.009680652
0.005475794
3.9662086E-4
-0.0049940487
-0.010049961
-0.014295328
-0.017241966
-0.018305812
-0.017213361
-0.013831293
-0.00827709
-0.0010382973
0.0072271526
0.015556974
0.023383802
0.029935647
0.034110118
0.03555519
0.03367176
0.028240317
0.019960217
0.008511158
-0.005629664
-0.019276386
-0.031255662
-0.042559844
-0.05111541
-0.056247722
-0.058324337
-0.05395087
-0.0448767
-0.0343177
-0.021107465
-0.0077056503
0.0047804187
0.015290911
0.020706967
0.02244069
0.019114869
0.010119239
8.6099317E-4
-0.0028892192
-3.981104E-4
0.002750925
0.014744293
0.045498572
0.07561732
0.08135725
0.062760584
0.038533423
0.021209195
0.0070568584
-0.0091865165
-0.034845408
-0.05779658
-0.053732783
-0.0379256
-0.031545077
-0.026691988
-0.020604717
-0.018378295
-0.013535162
-0.002109816
0.0033383712
0.007046954
0.019542161
0.02312986
0.019678995
0.020630842
0.016437272
0.015961925
0.01467934
-0.01223594
-0.043650176
-0.036492053
-0.004278961
8.784527E-4
-0.01713618
-0.026449507
-0.033328943
-0.036287993
-0.032187328
-0.026835188
-0.009662534
0.010043232
0.022159802
0.036725245
0.04892585
0.052103452
0.04873167
0.042590864
0.03644671
0.025067512
0.0063249357
-0.005797628
9.4584463E-4
0.01394814
0.020731024
0.022518665
0.015925705
0.005011126
-0.005448319
-0.019696418
-0.03674271
-0.04935506
-0.047029037
-0.035665415
-0.027376542
-0.021209138
-0.019957284
-0.018929956
-0.014946047
-0.01676409
-0.022812435
-0.027013646
-0.019065604
-0.0015687289
0.013166593
0.033366565
0.05164207
0.053006556
0.045606982
0.03258033
0.014722424
-0.0016089964
-0.0058854106
0.0042303004
0.012848807
0.01595362
0.016119974
0.012853068
0.0064667524
-0.0066414885
-0.01434187
-0.013161875
-0.012047161
-0.0018573833
0.007649531
0.003892684
0.0031481371
0.0061175986
0.0022972533
-0.005093833
-0.011029266
-0.013128895
-0.011838897
-0.007549498
-0.0020486084
-8.583441E-4
-0.002657843
-8.7549584E-4
0.002988569
0.0016531426
-0.0064283004
-0.013556131
-0.009654433
0.0037564563
0.01562402
0.019462787
0.015309496
0.010576114
0.0083150435
-7.4000476E-5
-0.011494241
-0.015227047
-0.011910664
-0.0028912495
0.008473578
0.012216623
0.008414015
0.0061900527
0.0044800234
-0.0040557715
-0.01677903
-0.024934465
-0.024012102
-0.014784951
-9.407329E-4
0.0091244085
0.0075896936
2.1457093E-4
-0.005822471
-0.012641776
-0.018859467
-0.021815583
-0.01808474
-0.0032299373
0.01271598
0.018347474
0.020346481
0.025003254
0.024349725
0.012075283
-0.0044365632
-0.010572734
6.5096174E-5
0.018744227
0.035938296
0.042892832
0.028281841
0.0029766294
-0.011287014
-0.01751953
-0.026555864
-0.034978896
-0.03356314
-0.018858276
0.0015083842
0.013894356
0.013074109
0.008353331
0.005337479
-0.0022567522
-0.014128027
-0.021806283
-0.018911492
-0.0048806914
0.009464799
0.014250695
0.015857393
0.017398879
0.009161475
-0.005995502
-0.016822396
-0.023163902
-0.022701433
-0.012809168
-0.0037823787
-0.001899376
-0.003593685
-0.008412925
-0.014812546
-0.021036725
-0.031739563
-0.039388258
-0.029133815
-0.008491346
0.0090519795
0.021008246
0.025288159
0.024974557
0.023850897
0.018877411
0.008935632
5.148804E-5
0.0037724224
0.019505516
0.0325155
0.03683434
0.03563538
0.032635707
0.027754897
0.016800871
0.0016921522
-0.010147199
-0.008435674
0.009493304
0.023106173
0.017152319
0.005299366
-0.0028698428
-0.013952511
-0.026579646
-0.035569433
-0.04086472
-0.0379587
-0.024503605
-0.009363405
-8.4628514E-4
0.0019229645
-9.523497E-4
-0.010780479
-0.021237401
-0.030668212
-0.037701145
-0.029870713
-0.01018862
0.007384542
0.018885989
0.020603802
0.016771618
0.014426973
0.00944926
0.0012748456
-0.0061985487
-0.0069538103
0.0032971422
0.015185531
0.020239241
0.02208837
0.027091054
0.03228133
0.027333124
0.0129235
-2.8741924E-4
-0.002188079
0.008039433
0.017263303
0.018701568
0.017164191
0.013356777
0.0055739335
-0.005164854
-0.017411986
-0.02773227
-0.027406968
-0.01413841
4.2662818E-5
0.0053065643
0.0036103327
0.0015794504
-1.1339487E-4
-0.0059769684
-0.016969744
-0.028131679
-0.026158568
-0.009031373
0.007805142
0.019060798
0.02285774
0.018785736
0.015043808
0.008918207
-0.0012272493
-0.008573865
-0.009182691
1.5650765E-4
0.010565931
0.012890718
0.012566058
0.012615077
0.010211835
0.0015506478
-0.011565616
-0.021564174
-0.021721693
-0.008002081
0.00889126
0.017417252
0.020275813
0.013577991
-0.002081125
-0.011755586
-0.013887462
-0.015230914
-0.013233509
-0.005060576
0.006219326
0.013489835
0.013554575
0.011824217
0.009954778
0.004573655
-0.005434198
-0.018576326
-0.022846086
-0.009410655
0.008599543
0.017412381
0.017822158
0.014925029
0.0096317595
1.6009997E-4
-0.01099068
-0.019603781
-0.020919923
-0.010984243
0.0037824926
0.011444264
0.010298501
0.009927443
0.0117193125
0.007104317
-0.004040432
-0.015289393
-0.016549753
-0.0027474824
0.0138200745
0.02181303
0.020999838
0.014587145
0.0064124037
-0.0015997502
-0.009242534
-0.016032888
-0.015931854
-0.005440548
0.006710624
0.011550693
0.009221133
0.0059333965
0.0013817963
-0.0076241987
-0.017041348
-0.025737628
-0.02639767
-0.012772063
0.002897618
0.011543609
0.011010999
0.0050655655
-5.838477E-4
-0.009802197
-0.016625475
-0.01722587
-0.018152071
-0.01161786
0.004203073
0.016039165
0.019556548
0.02094719
0.02139526
0.014529115
0.001374714
-0.010541472
-0.010786324
0.004441605
0.022615293
0.035334624
0.039264526
0.03417878
0.028310724
0.019787598
0.0061781853
-0.0077637867
-0.018816771
-0.018169325
-0.010065985
-0.00924382
-0.011441099
-0.009831011
-0.009473494
-0.014485524
-0.025439104
-0.0378326
-0.040282883
-0.02744588
-0.008582407
0.0037363658
0.009319862
0.012267799
0.0039039976
-0.008977479
-0.007713641
-0.008900164
-0.014417483
-0.0024242722
0.0059449296
0.0033540565
0.008317878
0.009329703
0.0065482953
0.0035141036
-0.011064964
-0.026307767
-0.032104395
-0.027223375
-0.012266175
6.02092E-4
0.006607504
0.009338228
0.014434439
0.022812426
0.027169937
0.028671157
0.034582827
0.047359094
0.05460171
0.0573048
0.07027757
0.070891716
0.060947474
0.057968594
0.037875734
0.025286803
0.008797407
-0.07051094
-0.12719911
-0.10228564
-0.07384256
-0.060711402
-0.049314342
-0.048708685
-0.049953673
-0.053425573
-0.058335852
-0.05415051
-0.03395993
-0.008795562
5.567549E-4
0.0014779223
-1.3614188E-4
-0.0040813256
0.0055501405
0.024794675
0.041815493
0.05585215
0.06454214
0.06805494
0.06623714
0.059297763
0.048399594
0.034563508
0.019300152
0.0034592596
-0.010637868
-0.022208298
-0.022464352
-0.010119716
-0.0051417025
-0.011642497
-0.020730201
-0.026280437
-0.020657556
-0.010125174
-0.0012837801
0.006926667
0.012173626
0.014662045
0.013863105
0.010661438
0.0063856896
-2.5807734E-4
-0.0072687445
-0.014310171
-0.020400463
-0.024836669
-0.024123704
-0.01257297
-0.00392545
-0.009052078
-0.016178245
-0.017244572
-0.012161357
-0.005149938
-3.7031193E-4
0.0047155116
0.009551696
0.012103809
0.013280252
0.01203253
0.008241545
0.005464224
0.004591248
0.002379625
7.234327E-5
-8.011596E-4
-2.45467E-4
0.005791129
0.010255848
0.004370622
-0.0017128865
-0.0018191653
-6.902317E-4
7.6540903E-4
0.0020789339
0.0030031968
0.003797231
0.0038524456
0.003753238
0.0032604178
0.0023542817
0.0014001956
1.5052613E-4
-9.4274356E-4
-0.0018859386
-0.0025249703
-0.0025837685
-0.0024622646
-0.0021462892
-0.0018724966
-0.0015548631
-8.466208E-4
-1.4825595E-4
5.2501383E-4
0.0011120935
0.0015287637
0.001904377
0.0019427317
0.0018549997
0.0016230977
0.0010123574
4.1980372E-4
-2.229065E-4
-8.081077E-4
-0.0013350165
-0.0020299044
-0.0019414177
-0.0011429462
-8.253817E-4
-8.3833106E-4
-6.374473E-4
-2.9242784E-4
-5.181019E-4
-0.0017209402
-0.0025237338
-0.0015238747
2.7245146E-4
9.878866E-4
7.4917404E-4
5.860983E-4
3.7628034E-4
-1.0378599E-5
-3.1950616E-4
-6.423722E-4
-8.849893E-4
-8.9167163E-4
-7.393856E-4
-3.8733598E-4
-1.07641165E-4
-2.6636614E-4
-4.445478E-4
-4.4345262E-4
-5.6032493E-4
-5.446877E-4
-3.5993077E-4
-2.6236637E-4
-1.3840002E-4
-5.1138733E-5
-4.6391397E-5
-1.076601E-4
-2.6731912E-4
-3.4852955E-4
-4.37841E-4
-5.759208E-4
-6.238616E-4
-6.408194E-4
-3.9015326E-4
1.07608816E-4
2.252089E-4
4.7692556E-5
-1.1694776E-5
-2.4191647E-4
-5.2016723E-4
-5.506389E-4
-4.7730794E-4
-2.0946021E-4
-3.368399E-4
-5.578291E-4
1.0685596E-4
1.9610295E-4
-1.1729432E-4
1.984223E-5
-0.0010973236
-0.0018032136
-9.1519207E-4
-7.979895E-4
-5.917333E-4
1.44877E-4
1.387556E-4
1.1385411E-4
-3.2004642E-8
-3.1717753E-4
-4.0555702E-4
-5.1647983E-4
-4.568533E-4
-2.9149116E-4
-1.05194646E-4
1.0299163E-4
8.5624015E-5
7.030768E-5
7.966988E-5
9.4332345E-6
-1.5624677E-4
-3.3564246E-4
-3.0412423E-4
-3.421883E-4
-3.1305169E-4
-3.9823904E-6
1.0230193E-4
-4.354928E-5
-2.683264E-4
-4.6190136E-4
-5.542453E-4
-5.921337E-4
-5.198876E-4
-3.9495417E-4
-1.779481E-4
2.834067E-6
1.5091766E-5
1.1617079E-4
1.699019E-4
5.8723012E-6
-2.0758668E-4
-3.6303993E-4
-4.646011E-4
-4.5340715E-4
-2.0266898E-4
-2.03723E-5
2.7345648E-5
-3.8462844E-5
-3.1405248E-4
-3.245465E-4
-4.049787E-4
-5.3363084E-4
-5.1639817E-4
-0.0012369741
-0.0012415767
-7.720294E-5
1.7921832E-4
1.8653882E-4
1.7988069E-4
-3.2972588E-4
-1.8166837E-4
5.8175578E-5
-1.0922622E-4
-3.7474278E-5
1.0404256E-4
2.0272518E-4
2.1483807E-4
2.1762137E-4
1.8662924E-4
1.8074717E-5
-4.852031E-5
-8.044945E-5
-2.4609253E-5
8.700872E-5
2.4961037E-4
4.6255978E-4
4.6626944E-4
6.8456284E-4
2.821949E-4
-0.0012667048
-0.0021578323
-0.002371355
-0.001968693
-4.289729E-4
4.376846E-4
4.1811971E-4
4.9593963E-4
3.222086E-4
1.2210269E-4
-6.9585374E-5
-2.42762E-4
-2.036027E-4
-2.4317502E-4
-1.0345074E-4
1.5874296E-4
3.2436717E-4
3.510999E-4
-6.109238E-5
-7.189682E-5
3.641252E-4
2.2052081E-4
2.849905E-4
1.02909056E-4
-0.0013204797
-0.0014769171
-3.372857E-5
3.200654E-4
9.12283E-5
1.3046253E-4
-1.374136E-4
-2.7836201E-4
-3.571951E-4
-4.0794033E-4
-2.6224586E-4
-2.474762E-4
-1.1654257E-5
2.0792746E-4
1.7025706E-4
2.6840676E-4
1.9769357E-4
8.907622E-5
-1.7448132E-5
-2.077001E-4
-9.463485E-5
3.4995315E-5
2.454738E-4
3.961167E-4
1.7067033E-4
4.2259504E-5
-2.0182047E-4
-2.3184804E-4
-2.9542216E-4
-0.0012475634
-0.0012668328
-2.483535E-4
4.2447064E-5
1.3639101E-4
3.2970274E-5
-2.3992224E-4
6.3112144E-5
2.5371482E-4
6.0293503E-5
-3.985871E-5
-3.9007064E-6
-1.0766423E-4
-2.3519828E-4
1.00804966E-4
3.411685E-4
1.5296515E-4
4.8620886E-6
-1.4967372E-4
-2.0951006E-4
-1.8764714E-4
-1.500395E-4
3.0282881E-5
6.430951E-5
1.2608706E-5
1.0067475E-5
-2.4891206E-5
-1.6491378E-5
-9.044172E-5
-2.396769E-4
-3.3531783E-4
-2.8273306E-4
-1.108306E-4
-2.427231E-5
6.7404864E-5
1.1216711E-4
4.6449568E-5
4.2182728E-5
-3.7695776E-5
-2.0784054E-4
-3.1815667E-4
-3.1537755E-4
-2.1610536E-4
-1.0581028E-4
2.6350699E-5
9.558865E-5
5.5000797E-5
-5.1425435E-5
-1.3312248E-4
-1.2185871E-4
-1.7928009E-4
-1.8132466E-4
-4.0907307E-5
1.0140066E-4
2.241132E-4
1.8634045E-4
1.589986E-4
1.7032654E-4
5.1940413E-5
-5.262908E-5
-1.6429096E-4
-5.9268186E-5
1.1874346E-4
1.9764493E-4
4.2933118E-4
3.7988866E-4
4.528875E-4
2.9408073E-4
-9.396161E-4
-0.0010052709
3.811668E-5
6.7670226E-5
1.760814E-4
6.756423E-5
-0.0011899762
-0.0016805078
-7.533527E-4
1.9267683E-4
3.046719E-4
1.0632973E-4
1.2902908E-4
2.1538764E-5
-1.8602097E-5
1.5384039E-4
2.2715743E-4
2.7865765E-4
2.2795616E-4
1.3001326E-4
9.1643495E-5
-3.9580522E-5
-1.00363024E-4
-2.6296117E-5
9.80369E-5
2.4440457E-4
2.5473553E-4
1.8383785E-4
1.5915827E-4
1.0073715E-4
-3.870883E-5
-1.9660607E-4
-2.7490803E-4
-2.0256637E-4
-3.5690646E-5
1.4464879E-5
-7.9093305E-5
-6.600711E-5
2.3101025E-5
-6.2657804E-5
-1.58726E-4
-5.9185983E-5
-3.188185E-5
-1.2789184E-4
-9.47136E-5
-2.4447859E-6
8.10615E-5
1.7325114E-4
1.7778677E-4
9.9207515E-5
-3.201043E-5
-1.7111804E-4
-2.3475589E-4
-2.5510768E-4
-2.2683764E-4
-1.2773737E-4
-4.605808E-5
-5.3071923E-5
-1.13215916E-4
-1.2360989E-4
-6.0647435E-5
-4.54942E-5
-1.1845778E-4
-1.19436176E-4
4.7146295E-5
2.5162532E-4
2.8968995E-4
2.3648939E-4
2.42007E-4
1.2584044E-4
-2.0608606E-5
-3.4933055E-5
-1.5112186E-4
-2.2482399E-4
-1.0187886E-4
-1.2185315E-5
-4.7290476E-5
-8.216529E-5
2.095993E-5
3.5193202E-6
-1.0605224E-4
-9.391096E-5
-2.1322243E-4
-2.3068141E-4
-6.9672E-5
2.7660766E-5
1.9664268E-4
1.8835485E-4
8.033327E-5
6.666689E-5
1.2990049E-5
8.308931E-5
2.0007368E-5
-5.0927567E-5
1.3473365E-4
2.4602617E-4
3.5861233E-4
3.1270014E-4
3.3186979E-4
3.8980282E-4
8.258868E-5
2.3916678E-4
-2.8875418E-4
-0.0015168408
-6.8461505E-4
3.2940492E-4
1.4906086E-4
2.700288E-4
-7.7087805E-4
-0.0016042371
-3.4001662E-4
2.2434756E-4
-4.7882062E-5
1.0497918E-4
7.9792335E-5
2.424388E-4
3.8799702E-4
2.2220757E-4
2.0356671E-4
1.4144875E-4
8.573473E-5
4.4628516E-5
1.4454401E-5
1.1989089E-4
1.3824656E-4
3.2547256E-4
4.5596447E-4
2.8553253E-4
3.3134135E-4
3.0755103E-4
2.226028E-4
1.07753556E-4
-2.0095088E-4
-4.038815E-5
-4.222549E-4
-0.001303554
-5.9409934E-4
2.6786377E-4
5.5354913E-6
-2.865524E-5
1.3935593E-6
-9.912816E-5
-1.2623072E-4
-2.0560627E-4
-4.407904E-5
7.610088E-5
1.1256669E-4
1.512182E-4
1.8226687E-5
6.928146E-5
1.1947707E-4
1.3364024E-5
-5.632664E-5
-1.3873272E-4
3.8211447E-6
1.6093861E-4
1.535865E-4
2.2846331E-4
1.7898109E-4
6.8057016E-5
2.3820263E-5
-1.086345E-4
-2.3901004E-4
-2.7147023E-4
-1.9700194E-4
-7.385041E-5
1.03784885E-4
2.368436E-4
1.9381719E-4
1.08421365E-4
-5.512225E-5
-1.6512239E-4
-6.738759E-5
-4.1078216E-5
-3.1308584E-5
3.2302643E-5
6.5461616E-5
1.2816538E-4
5.0431787E-5
-1.3239523E-4
-1.8637987E-4
-1.9210935E-4
-2.1119966E-4
-1.9704254E-4
-1.8628126E-4
-5.947564E-5
1.757063E-4
1.8219258E-4
1.4982125E-4
2.0624393E-4
4.9553022E-5
-5.3240594E-5
-5.8557744E-5
-1.2744818E-5
1.1586049E-4
-1.0564569E-5
8.670809E-5
3.2855704E-4
1.8695985E-4
2.2044574E-4
3.0762597E-4
2.7850887E-4
2.0968216E-4
2.3618339E-4
4.899633E-4