-0.013700292
-0.004122292
0.009181682
0.022439063
0.027753549
0.02097803
0.005506012
-0.011888931
-0.023555163
-0.023781521
-0.020526757
-0.01676479
-0.0076265964
0.0019530794
0.006215121
0.0057148207
0.0026839804
-0.0015882081
-0.009790288
-0.025446612
-0.033789963
-0.02178557
-0.0061265137
0.0064325235
0.019087203
0.022864956
0.015393827
-0.0023636278
-0.014961037
-0.012145028
-0.005277535
0.011737535
0.030386189
0.03463109
0.04019864
0.047207348
0.042997878
0.024424436
-5.159905E-4
-0.015103488
-0.02299491
-0.02749323
-0.025818817
-0.019673616
-0.005001336
0.007196564
0.010712985
0.004036147
-0.019320408
-0.033104844
-0.02574945
-0.016727936
-0.00490242
0.010390334
0.019024733
0.014384504
-0.0021254665
-0.016710946
-0.018733772
-0.012603848
-0.011582529
-0.00889625
0.00551309
0.013116862
0.011671887
0.016326625
0.020654421
0.011887237
-0.007513918
-0.017920576
-0.011811638
-2.9441442E-5
0.009992385
0.01286952
0.01436093
0.016461894
0.009512973
-0.0024841886
-0.013270479
-0.013541479
-7.7123055E-4
0.003337892
-0.0053882757
-0.007312013
0.006926038
0.019400796
0.012738593
0.0040925313
-0.0020770333
-0.014908387
-0.023470437
-0.02347723
-0.0069306386
0.01666222
0.019969894
0.017051479
0.015759842
0.009718948
0.0079511115
0.003698405
0.001954856
-5.6939624E-4
-0.018613989
-0.024868676
-0.01735623
-0.012623191
0.0011544146
0.0063430523
-0.01183829
-0.030934095
-0.026698584
-0.0018565356
0.0069342675
0.0076108556
0.027151883
0.029861936
0.0075720036
-0.0095935175
-0.020847762
-0.020227863
-0.0045239236
0.00803746
0.011564757
0.019721838
0.035166744
0.029839262
0.0025251573
-0.010734241
-0.013238488
-0.022177827
-0.024374273
-0.011995123
0.0071935034
0.015325302
0.009792547
0.013498395
0.019822255
0.008679467
-0.008227892
-0.019443098
-0.02262929
-0.018143544
-0.012509997
-0.00482624
0.0032785442
0.008279189
0.011024668
0.0074559744
0.0015031327
-0.0025143337
-0.0037840358
0.0033562437
0.0046885484
-0.0039205183
0.0021440387
0.015816458
0.016846782
0.0077971523
-0.0099057825
-0.022745058
-0.016674904
-0.0046774694
0.003711669
0.011286568
0.01747816
0.019766089
0.01990908
0.01656542
-0.0028510098
-0.029044084
-0.035098273
-0.021672262
-0.0036713236
0.007758139
0.011269299
0.013921915
0.013224133
0.00823356
-0.0035720083
-0.018129747
-0.018664388
-0.01641509
-0.017063092
-0.00740871
7.63233E-4
0.008993738
0.021529514
0.01986753
0.007708148
-0.008603904
-0.024995705
-0.025382701
-0.019108225
-0.011801023
0.012207771
0.03491073
0.028511088
0.0066807205
-0.008877399
-0.017297283
-0.018761616
-0.010648061
5.207777E-4
0.006845213
0.013289179
0.023701213
0.03201841
0.036442045
0.031128734
0.015156242
1.6356219E-4
-0.012873143
-0.015180683
-6.9940166E-4
0.009810658
0.009752994
0.002028258
-0.014967203
-0.026286243
-0.020921052
-0.011068314
-0.014593498
-0.02184114
-0.01741504
-0.014892293
-0.012575564
-0.0045580957
-0.009043441
-0.020316616
-0.023356209
-0.018217023
-0.0023102302
0.016522845
0.027834278
0.031746183
0.030593706
0.028550306
0.022489158
0.006489764
-0.011741366
-0.019854045
-0.016038574
-0.007926386
9.854631E-4
0.012494472
0.020379737
0.023316378
0.025855426
0.011725006
-0.018643105
-0.027094604
-0.010149804
6.936211E-4
0.005541191
0.017144583
0.024475468
0.023666818
0.020186173
0.0010870795
-0.023281002
-0.026577905
-0.025578398
-0.027588299
-0.017528975
-0.007514974
-9.929739E-4
0.005277091
-4.319353E-4
-0.013568275
-0.0228796
-0.024994517
-0.01799578
-0.0043573743
0.011344263
0.023246536
0.027721236
0.025782414
0.01707905
0.0034790619
-0.0069471
-0.010630934
-0.005979672
0.008844711
0.017198727
0.01069246
0.007876488
0.010028342
0.005478416
-0.006182474
-0.017793536
-0.018687293
-0.015147328
-0.009529098
0.0062650824
0.011477801
7.4724354E-5
4.6411384E-4
0.008210623
0.0011233711
-0.008017183
-0.0032838897
0.0056567234
0.011611673
0.0150767425
0.015406875
0.014620784
0.0076011154
-0.006782914
-0.020076571
-0.028046004
-0.02399597
-0.011179013
-4.250553E-4
0.009317607
0.01272533
0.0062799915
2.2608018E-4
-0.0044721174
-0.012109046
-0.018429058
-0.01676183
-0.007956259
3.7130635E-4
0.005265295
0.01010032
0.01630372
0.01868165
0.013852022
0.005302319
-0.004152732
-0.0101170475
-0.00782635
0.0015983585
0.014080625
0.021150239
0.019256804
0.0155784665
0.008032506
-0.010055901
-0.027424773
-0.02943805
-0.019689076
-0.009549993
-0.0017579453
0.0049259667
0.009158832
0.011168266
0.0072485614
-0.0059009064
-0.016638216
-0.017840588
-0.012219242
0.002882823
0.01876263
0.025592668
0.027525805
0.021230273
0.009042196
7.168739E-4
-0.0092520015
-0.020400468
-0.022165759
-0.0155666
-0.006773304
-8.405841E-5
0.0023591584
0.0025595233
-0.0021212534
-0.013893901
-0.022202825
-0.020951474
-0.012104092
0.005655048
0.021355987
0.024229048
0.025911901
0.030551791
0.021646451
-0.0016735842
-0.017329426
-0.018056137
-0.009174386
0.00929579
0.021823106
0.0208653
0.019990658
0.013919759
-0.002426985
-0.020427113
-0.03518475
-0.037032362
-0.02523563
-0.009354512
0.005276773
0.013066016
0.01473077
0.01412535
0.009341888
-0.001352239
-0.012590518
-0.014969572
-0.008315577
0.0011687982
0.009462771
0.014730522
0.016687732
0.015003857
0.010815268
6.956112E-4
-0.0145668285
-0.022169337
-0.021121457
-0.017128924
-0.006960948
0.0052266195
0.006570625
-0.0024670605
-0.0080792885
-0.00899383
-0.008879278
-0.0059169596
-0.0042846454
4.3543656E-5
0.0057371478
0.0039112563
0.006053745
0.014178655
0.016814016
0.012322868
0.0051551373
0.0060884813
0.018008027
0.038532913
0.054732166
0.04639649
0.023909116
5.4535E-4
-0.01836651
-0.026057508
-0.03686213
-0.04541171
-0.03253525
-0.011292816
-0.0016814704
-0.008626506
-0.014533804
-0.010561769
-0.011919404
-0.018391782
-0.027199324
-0.032917775
-0.021676436
-0.0020948676
0.015917731
0.030823652
0.035253406
0.027429765
0.014023046
0.0042740284
-0.001925081
-0.0056762085
-0.0019052922
0.007400605
0.018574886
0.02432198
0.021154158
0.015953388
0.0062162727
-0.009419386
-0.027418563
-0.041898664
-0.036465984
-0.015663205
-1.3553484E-4
0.008719721
0.015067431
0.017797895
0.013270268
0.0019921658
-0.0070585925
-0.01106859
-0.0059811985
0.010004367
0.019622516
0.017959353
0.02087016
0.029615477
0.025962994
-2.2763785E-4
-0.028319664
-0.034803312
-0.023947436
-0.0059318203
0.009175934
0.013471793
0.0135094905
0.0075256764
-0.008194267
-0.022676678
-0.034089234
-0.03853526
-0.029129323
-0.021717314
-0.019832287
-0.008835871
0.009456436
0.030130206
0.038278453
0.018526081
-0.0045665763
-0.007394778
0.0060015395
0.019780071
0.012465584
-0.001520277
0.001721369
0.011373437
0.019848421
0.017712014
0.002513229
-3.614018E-4
0.011249029
0.019610269
0.016058382
0.0038120348
0.001397825
0.003342819
-0.013276275
-0.03620004
-0.04002173
-0.030747734
-0.024752112
-0.015698185
-0.002510995
0.0030814016
0.0040601054
0.0049161282
0.0038911134
-0.0036010565
-0.010793386
-0.004952232
0.0010475143
0.005920918
0.013926753
0.012152053
0.01474542
0.02322382
0.021513013
0.012701015
-0.004305675
-0.0142677305
-0.012530937
-0.010021404
0.0048251133
0.017265897
0.01765111
0.021434221
0.026430802
0.035057623
0.030451294
2.9847282E-4
-0.02954106
-0.046464384
-0.040457033
-0.02004335
-0.011229958
-0.0042045987
0.002002093
-0.009356153
-0.02871249
-0.037901673
-0.034066826
-0.018332293
0.0038107852
0.009208907
0.0061504636
0.018618388
0.02921984
0.033443198
0.02306366
-0.011906152
-0.025639197
-0.014151905
-0.010690309
-0.0044370047
0.005770535
0.017819196
0.03504642
0.038169745
0.025877856
0.01567883
0.01445409
0.019476153
0.02126074
0.012781482
0.0031091224
0.008284502
0.012192223
-0.013007672
-0.043836962
-0.04866302
-0.04601976
-0.045898072
-0.026810624
-0.0012874315
0.0048441095
0.008782556
0.022888932
0.022193104
-0.0047047776
-0.029781213
-0.030703137
-0.022138432
-0.011125442
0.009888063
0.025478061
0.030008502
0.031329885
0.019367207
4.154959E-5
-0.008977625
-0.0058839964
0.009025973
0.024942042
0.030962212
0.029966766
0.0176264
-0.0051279613
-0.02339587
-0.02818961
-0.026616061
-0.028636917
-0.026267547
-0.024683481
-0.031441387
-0.016411467
0.010020095
0.015221703
0.03285577
0.055808865
0.036020223
0.009402205
5.1729534E-5
-0.018287804
-0.021581696
-6.2464376E-4
0.011943289
0.017925566
0.014568789
0.0013113674
0.002526764
-0.009670686
-0.04732482
-0.054264557
-0.036387436
-0.027836775
-8.6911186E-4
0.037408166
0.03568241
0.00493314
-0.004026749
0.011463138
0.021814216
0.029182056
0.03499607
0.010596705
-0.01774426
-4.604689E-4
0.018901292
-0.0032565072
-0.03162062
-0.039988525
-0.024177251
0.0137264915
0.04356586
0.035413355
0.0051299725
-0.0018066402
0.004375915
-0.013696276
-0.03220019
-0.036834
-0.045380153
-0.041357588
-0.015031477
0.0037749659
7.527721E-5
0.0023486265
0.017598482
0.020312306
0.025200685
0.031133248
0.007127343
-0.0157125
-0.0108212745
0.0030816118
0.021887816
0.032647133
0.026820887
0.024086196
0.02140009
0.007431586
-0.0070435703
-0.021395473
-0.04114009
-0.05083617
-0.031726044
0.0066184015
0.034513798
0.048556928
0.050231107
0.010480762
-0.040406115
-0.03691975
-0.012981966
-0.0152310375
-0.022173692
-0.017613346
-0.0037870065
-8.484759E-4
-0.017700901
-0.026147213
-0.013144861
0.01353748
0.018433949
-0.00954686
-0.0022464981
0.042749807
0.062657036
0.056351278
0.030085223
-0.010350997
-0.044438764
-0.062938794
-0.049634386
-0.014634035
0.024026362
0.062056895
0.07848008
0.05830391
-0.0035680295
-0.058810607
-0.05201161
-0.031920906
-0.031291384
-0.016000025
0.015996696
0.032030836
0.0159997
-0.002641532
-0.0267913
-0.060172874
-0.04750173
-0.009854458
0.015740352
0.040132213
0.0405138
0.03705115
0.035298094
0.0028569696
-0.015819993
-0.009846457
-0.012142315
-0.012454596
-0.0038129922
0.012213975
0.022508152
0.022056185
0.023895495
0.014382681
-0.01451162
-0.04363363
-0.049537137
-0.027377302
-0.0047377157
0.0039575426
0.01585539
0.026439842
0.019854665
0.019290734
0.015334803
-0.018006034
-0.033975903
-0.034401014
-0.045660075
-0.03407449
-0.014778293
0.00895549
0.041421264
0.04585333
0.037073426
0.015324947
0.006090055
0.03758703
0.025379224
-0.013938056
-0.0076238816
0.003031409
0.009204098
0.022649296
0.020978723
-0.0023855593
-0.035287373
-0.058110207
-0.063122116
-0.036313053
0.0053863837
0.03503895
0.05557145
0.037238788
0.0038773357
-0.0030049211
-0.010552697
-0.006583633
-0.0048678494
-0.020276498
-0.01822818
-0.029217562
-0.03308058
8.852328E-4
0.0030875867
-0.02473405
-0.03580193
-0.019237598
0.011264402
0.01295418
0.012027179
0.039325777
0.05346763
0.04157562
0.010566636
-0.0216027
-0.024421087
-0.00886319
0.0046141734
0.011754093
0.019444028
0.03530647
0.053909734
0.06225273
0.031067077
-0.023182295
-0.03773803
-0.024574265
-0.029417021
-0.051321276
-0.06778903
-0.04316297
0.012310246
0.033141777
0.0012790973
-0.044670705
-0.061525255
-0.03448416
0.008610312
0.041963417
0.05454164
0.044486556
0.04512507
0.048438128
0.01081093
-0.015937645
-3.49825E-5
-0.001055955
-0.013121381
-0.0131877335
-0.013206286
0.0020682805
0.019100443
0.013286933
-0.010419354
-0.032384634
-0.021945603
-0.012292498
-0.03127899
-0.024115901
-0.0015801272
-0.0016260218
0.016407277
0.044157542
0.027138088
-0.017019818
-0.034372214
-0.009253913
0.016879722
0.010331852
0.005442947
0.023523835
0.03374828
0.020337699
-0.008223752
-0.030043587
-0.02958802
-0.022810493
-0.020626357
-0.012440741
0.009197326
0.032330595
0.0416771
0.03496844
0.0033741288
-0.033249184
-0.038652997
-0.027860645
-0.01095515
0.0076491768
0.015316814
0.043200634
0.072459444
0.05574068
0.014728815
-0.045969594
-0.0944786
-0.06849877
-0.013399376
0.0095485635
-0.0019326775
-0.017818812
0.0011173408
0.015274779
0.0053213956
0.014612991
0.018726332
0.014114334
0.013811714
-0.012594115
-0.021326281
0.016139066
0.044800315
0.033484947
-0.015986778
-0.06593923
-0.07164425
-0.022533499
0.04748454
0.0752426
0.06401708
0.038491428
-0.005409902
-0.03865357
-0.053677745
-0.050903432
-0.02253961
-0.0096559
-0.003929901
0.03381273
0.051371746
0.016320456
-0.009719975
-0.0031229227
0.006480787
0.008138406
-0.013802748
-0.03513479
-0.018841505
-0.0011590378
0.008834008
0.011828194
-0.007394457
-0.005591293
0.009190563
0.0031444035
-3.0174764E-4
-0.0069453297
-0.018543202
-0.014383161
-0.003531043
-0.002093247
-0.008631833
-0.010797723
-0.014954333
-0.013953359
0.015169758
0.04811483
0.055048503
0.04436628
0.031200457
0.015059153
0.0061566858
0.01892385
0.021848064
0.0020943747
-0.0174381
-0.03762019
-0.039542325
-0.016404508
-0.0044281515
-0.0034921572
0.002462211
-0.0017997461
-0.027716296
-0.057264023
-0.059267126
-0.032659657
-0.020579157
-0.026907004
-3.6728472E-4
0.04263283
0.07601933
0.11177916
0.07294734
-0.039099522
-0.07846053
-0.046852596
-0.032980435
-0.023718722
-8.380676E-4
0.030286921
0.071486585
0.08646325
0.04789218
0.0048245727
-0.013360329
-0.03149178
-0.04290135
-0.04675605
-0.046005752
-0.020343466
0.00754871
0.01946858
0.02737658
0.027552433
0.015208251
-0.0072048646
-0.019563703
-0.021731177
-0.023631696
-0.0023766079
0.022642141
0.029770423
0.035555944
0.027293947
0.010443106
0.004397322
0.0026140544
-0.0021521184
-0.016948415
-0.025559232
-0.015421216
-0.009916428
-0.028083967
-0.05183568
-0.035663024
0.013068832
0.043363694
0.03842613
0.01314256
0.004125798
0.006889933
-0.009427948
-0.02318037
-0.02801659
-0.029211875
-0.0146095045
-0.008090043
-0.0031412232
0.046132136
0.08457355
0.032696865
-0.026026228
-0.022723475
-0.018098958
0.002440998
0.040169224
0.029803809
0.0010140497
-0.016960863
-0.018470937
-0.01900141
-0.061634306
-0.07712131
-0.037153766
-0.010864582
0.007016084
0.031616863
0.06380506
0.083748624
0.0738374
0.07598363
0.051427808
-0.0316363
-0.0810118
-0.073891476
-0.057702094
-0.027710756
0.02300393
0.052849796
0.043693874
0.023468385
-0.00655763
-0.025029834
-0.0032701283
0.015099544
-0.0027365596
-0.03332223
-0.041816078
-0.03891121
-0.04178511
-0.01769494
0.0026039516
-0.013220525
-0.013196328
8.279875E-4
0.015599091
0.038208842
0.036802597
0.026906986
0.027423436
0.001470177
-0.03381885
-0.027930213
-0.0083582625
-0.019512735
-0.027484369
6.3442736E-4
0.035815433
0.050020896
0.045851562
0.039092276
0.020533169
-0.019053482
-0.035296846
-0.013290031
0.0055370643
0.010229068
0.008347923
-0.001665237
-0.0079507725
0.0041351924
0.029734304
0.04888819
0.0414265
-0.0029716576
-0.05081416
-0.055375002
-0.038833432
-0.029779555
-0.016594067
-0.008326285
-0.008907763
-0.0092264805
-0.014637073
-0.014569708
0.0022665951
0.020572761
0.017887374
0.0034690439
0.005044198
0.006402171
-0.0043973937
-0.007460408
-0.018449182
-0.042371985
-0.041080102
-0.0063714874
0.03276518
0.056298945
0.06251106
0.05102583
0.024419332
-0.004299366
-0.013266016
0.0011857317
-0.0022226449
-0.027495032
-0.018285736
0.018051894
0.023634601
-0.0013729463
-0.019014351
-0.027000459
-0.03938217
-0.03736293
-0.010354529
0.019200206
0.027780237
0.021282904
0.028452216
0.025557209
-0.0052017337
-0.007899844
0.010067697
0.0043399814
-0.00418609
-0.008751731
-0.009601248
0.0011825521
-5.134317E-4
-0.014100084
-0.020239625
-0.025103036
-0.027519027
-0.014943286
0.01580582
0.05002162
0.053538915
0.01698266
-0.018928666
-0.021098798
-0.0025050542
0.004657449
-0.014014188
-0.03566503
-0.03466801
-0.020942854
-0.0093064895
0.002932838
0.014279646
0.022714594
0.034682244
0.04179649
0.030352065
0.0071124216
-0.01465809
-0.021931462
-0.011677523
0.0032052335
0.013218261
0.0078663975
-0.009023151
-0.015386201
-0.009744776
-7.672814E-4
0.009109989
0.011542985
-1.3233232E-4
-0.007396461
0.002463314
0.0022937732
-2.2982285E-4
0.009149056
-0.0065595685
-0.02365623
-0.0075021307
0.006650066
0.009657283
0.001633196
-0.01472303
-0.010945664
8.67324E-4
0.0030697554
0.0034767576
-8.0928474E-4
-0.012927869
-0.024198411
-0.014701583
0.009793416
0.015951667
0.0063348957
0.0064892103
0.015023548
0.011872125
-0.0063609267
-0.017668154
-0.0061138403
0.012598114
0.018295206
0.022464143
0.025853893
0.014223242
0.0036637755
-0.004134064
-0.008662672
0.0021962416
-6.432126E-5
-0.011610894
-0.008997173
-0.00853866
0.0016077581
0.015051715
0.001388411
-0.026609734
-0.051914435
-0.04471285
-0.009017322
0.010233642
0.02340921
0.021148995
-0.005640853
-0.005953126
0.0028870592
-0.008904279
-0.007776001
0.010339677
0.026306266
0.02234136
0.00315229
0.0021425239
0.0066169538
-0.0049953517
-0.015508031
-0.024014667
-0.029718826
-0.01659183
0.01119544
0.03779624
0.047830347
0.035619356
0.011530775
-0.007995561
-0.0074424376
-0.0018383169
-0.015312717
-0.022924742
-0.0054206406
0.0134564275
0.020730702
0.016842946
0.012884202
0.019513002
0.0067973784
-0.034426372
-0.05215459
-0.030448128
-0.0057805646
0.008739762
0.011642994
0.0032672533
0.0020701448
0.001262402
-0.013967261
-0.026296822
-0.029681992
-0.029044641
-0.017959988
5.6923326E-4
0.01957296
0.034660567
0.041924175
0.03722219
0.011922799
-0.015183269
-0.012462236
0.0026870829
0.0064636
0.011686369
0.018280111
0.014985535
0.005375585
0.0022414792
0.01143351
-7.9477363E-4
-0.03988216
-0.04730688
-0.026322862
-0.018336417
-0.010960625
0.0016262995
0.015815733
0.031672087
0.020777386
-0.013925471
-0.028239226
-0.020715846
-0.016112108
-0.003949415
0.023152873
0.04115531
0.034922082
0.020497238
0.02790224
0.03306389
-0.002697781
-0.024464456
-0.0038074935
0.007740843
0.009630799
0.006542095
-0.011096575
-0.020210072
-0.029457169
-0.040129513
-0.03651983
-0.03858645
-0.023480425
0.024233785
0.042915836
0.024712756
0.015089338
0.01567682
0.011798423
-0.0030195878
-0.022584366
-0.03147535
-0.033066146
-0.023666026
0.0090248585
0.039663326
0.044442054
0.0387591
0.029419059
0.0039109588
-0.033313695
-0.054191843
-0.041131757
-0.0134527
0.007684941
0.023134967
0.031289097
0.029807542
0.022640457
0.005885507
-0.02078271
-0.03480532
-0.02440953
-0.014142079
-0.009486031
0.0070740166
0.024626862
0.034498867
0.033648897
0.005521384
-0.032024685
-0.041287232
-0.021450486
-0.006644702
-0.0070158513
0.007274375
0.031320512
0.04112489
0.038353708
0.020420931
-0.0015488202
-0.014378096
-0.022795646
-0.02148883
-0.012947073
-0.008281797
-0.00783562
0.0029388273
0.01947826
0.006687037
-0.01622322
-0.01619896
-0.009507838
-2.3236427E-4
-1.9476906E-4
-0.011379013
-0.0052944813
0.005698426
0.002566127
-0.008425152
-0.015920939
-0.013711973
-0.0078844
0.0064415433
0.018422702
0.019348104
0.02929185
0.032798868
0.015264632
-8.342746E-4
-0.0060447725
-0.0041253967
-0.001743326
-0.0055692466
-0.018352376
-0.025406176
-0.009271126
0.0066185915
0.0016848735
-0.004228893
0.004223765
0.008442868
-0.0067042727
-0.012502719
0.0046383515
0.016094174
0.010091527
0.0022182257
0.0029090943
-0.0033118895
-0.02030153
-0.028363915
-0.016475668
0.01145373
0.025702855
0.028832046
0.041365687
0.02868913
-9.652553E-4
-0.0040663416
0.0067664837
1.4218877E-4
-0.029903935
-0.043087296
-0.029275909
-0.011845168
0.010185344
0.010386876
0.006780416
0.017592875
-0.00977994
-0.034646396
-0.017074157
-0.0017523724
0.008606474
0.018965354
0.030245062
0.026940305
-0.0028726878
-0.011270455
-0.007597105
-0.022581583
-0.025090106
-0.014268809
-0.006976091
0.002365575
0.017179968
0.023809068
0.01090383
-0.0036727586
-0.011008678
-0.011961569
-0.0014864256
0.013760126
0.026366929
0.029049894
0.025385479
0.014512424
-0.013685827
-0.036080107
-0.038691077
-0.032505885
-0.01509996
0.0040202998
0.010134313
0.012775375
0.0230492
0.029123064
0.021473443
0.009985967
-0.00671701
-0.026776288
-0.03283164
-0.023923377
-0.007536425
0.009763662
0.026425136
0.04256175
0.0406794
0.016802082
-0.0045396043
-0.0062940544
0.002514646
-0.0040304256
-0.025372261
-0.02702808
-0.0064399936
0.002445759
-0.005884387
-0.017678384
-0.034544203
-0.042539746
-0.023958059
-8.065224E-4
0.0066176327
0.010763357
0.018567245
0.022555731
0.021345468
0.012766054
-0.006594668
-0.023509508
-0.024760226
-0.011990579
0.010193851
0.028641326
0.0347664
0.033022355
0.022162566
0.010319005
0.0011128361
-0.014999361
-0.021313746
-0.012238432
-0.005196985
0.0018679576
0.0051394515
0.0039936607
0.005831158
0.0027851448
0.002353377
0.0015117208
-0.010489303
-0.007747287
0.007010639
0.0073296996
0.0068691834
0.012130535
0.006676781
-0.0049772793
-0.013484667
-0.02530927
-0.03330848
-0.024622953
-0.005528161
0.013316119
0.019681845
0.018654859
0.019898303
0.0025035406
-0.025446204
-0.03228954
-0.02299868
-0.009516601
-0.001209688
0.0034719582
0.019599328
0.034844544
0.030965747
0.013410362
-0.007392745
-0.028665477
-0.03442756
-0.0081184115
0.017729297
0.022303909
0.025603889
0.022212557
0.0149136875
0.01406977
0.0031427066
-0.014618841
-0.027766665
-0.032033347
-0.020893203
-0.0025357322
0.0135672055
0.014446108
-0.0015763384
-0.011373766
-0.01783503
-0.024565872
-0.012177758
0.0047118342
0.012629039
0.021248968
0.020963239
0.017564764
0.019066673
0.011390807
0.0052150614
-0.001604928
-0.021003071
-0.024792999
-0.01045756
6.800254E-4
0.011617902
0.018946998
0.016390823
0.0065910094
-0.007226103
-0.018177995
-0.01835299
-0.009841003
-0.0059368866
-0.0022807328
0.004454704
0.0055305124
0.010405152
0.006070221
-0.01782154
-0.029573357
-0.023458343
-0.012302732
-0.0013278871
0.0071173147
0.018785208
0.023032328
0.020680055
0.017825352
0.0030217317
-0.008598925
-0.0068596853
-4.1355155E-4
0.008952943
0.0118292095
0.012105938
0.015255363
0.01656267
0.016421927
0.004443047
-0.017119031
-0.028022755
-0.021654045
-0.013238195
-0.014180326
-0.004822465
0.010322972
0.007977076
-0.002258667
-0.020796765
-0.034401946
-0.020044625
-0.0072572096
-0.0043286253
0.010630092
0.020764621
0.019220373
0.023658449
0.021224367
-8.7331375E-4
-0.016302524
-0.010155047
0.003552941
0.014118261
0.015787572
0.013879917
0.015842758
0.015631888
0.00395205
-0.019970097
-0.03203408
-0.023803947
-0.019139891
-0.010000009
0.010709214
0.01743463
0.013829827
0.01721168
0.015335192
-0.0067421156
-0.030691346
-0.028519686
-0.013407989
-0.005423986
0.00509875
0.017292054
0.022445736
0.02311805
0.013117506
-0.0077157416
-0.02191498
-0.02205421
-0.013461141
-0.0011076089
0.010388727
0.01818057
0.022281252
0.022427533
0.014709072
-6.772356E-4
-0.015850736
-0.025370091
-0.02424942
-0.013021689
-0.0017446968
0.0054091047
0.0087147085
0.009790887
0.0110465195
0.0054462827
-0.012031849
-0.02444621
-0.0138497325
0.0026045681
0.0074070953
0.011360717
0.01478167
0.012723942
0.004529989
-0.011288967
-0.020033197
-0.015803965
-0.0061214366
0.0028877675
0.0071382993
0.016715309
0.02730157
0.025945071
0.01776294
0.0033500276
-0.017733807
-0.038747203
-0.039020866
-0.00926084
0.016615402
0.019963339
0.016152352
0.016092682
0.013218021
-0.00248847
-0.016487837
-0.020363817
-0.017181132
-0.008181943
-0.0055521405
-1.2743549E-5
0.007901469
0.008101936
0.012483346
-4.5141912E-4
-0.024579054
-0.018603677
-0.0021747763
0.0035661096
0.008478996
0.016322967
0.020170623
0.016461615
0.012821696
-0.0025350386
-0.019212333
-0.017153598
-0.015552725
-0.004298663
0.012550962
0.008620554
0.0072353873
0.010693048
0.006488978
-0.005036854
-0.026484454
-0.031258333
-0.014135405
0.0031437117
0.013955261
0.019443892
0.0285906
0.027195426
0.012491699
0.0039282525
-0.010937942
-0.020755032
-0.011035228
-0.005717674
0.0015685216
0.013636615
0.010179238
0.0025159614
8.244834E-4
-0.0074119885
-0.020912582
-0.024827894
-0.017555656
-0.0062874313
0.006391947
0.015608522
0.017997898
0.016411167
0.010964451
-0.0041633844
-0.02288232
-0.026213592
-0.017562864
-0.00963626
-0.0020000923
0.004777681
0.017064406
0.0284539
0.020287884
0.0023496435
-0.013075558
-0.020756142
-0.01137395
0.0037069079
0.0097358655
0.009048264
0.012675936
0.021845883
0.017825048
0.001093753
-0.014205277
-0.025101257
-0.018015413
0.0011537039
0.011139062
0.015886078
0.015826529
0.014410201
0.014730304
-0.0016341947
-0.025001358
-0.0324976
-0.028391771
-0.019864883
-0.009909141
0.005604857
0.026371047
0.03561783
0.027538609
0.00912421
-0.012696313
-0.02759333
-0.027297912
-0.016937645
-0.0064296587
0.0048089274
0.013898145
0.01724606
0.01592645
0.002010409
-0.015433314
-0.0173488
-0.010888784
-0.007827856
-0.004205481
0.007240301
0.015169654
0.0119596
0.014455035
0.013156159
-0.005112171
-0.017144276
-0.015612484
-0.0059917322
0.007119101
0.010828099
0.013122864
0.02044473
0.020941632
0.010664091
-0.0096845245
-0.026301453
-0.023511
-0.0122102965
-0.001289333
0.0118961865
0.019583473
0.01851447
0.014259107
0.0031124535
-0.017101306
-0.02933299
-0.022867419
-0.014440366
-0.010122194
2.3119658E-4
0.010325599
0.016475419
0.018405683
0.006607528
-0.012432963
-0.025542783
-0.022898579
-0.0031241172
0.013326696
0.020407405
0.025931498
0.025942164
0.020008968
0.0051158387
-0.013206126
-0.019038215
-0.018067187
-0.013603524
-0.0020571596
0.0032101558
0.0036805302
0.0134979095
0.017660402
0.0010412136
-0.018760739
-0.030348754
-0.032428697
-0.019837167
-0.0055227713
0.010957069
0.036448386
0.04314771
0.029669508
0.014633569
-0.011966928
-0.031916026
-0.023699427
-0.015637824
-0.015005403
-0.0010560808
0.014449583
0.018030569
0.01875168
0.010857422
-0.009637674
-0.02225654
-0.017318603
-0.0034488675
0.00913885
0.0152569655
0.01719414
0.014914734
0.011232962
0.0063137985
-0.009344818
-0.024377855
-0.021240998
-0.005982107
0.011206448
0.019807829
0.01915154
0.019780278
0.014528048
5.960555E-4
-0.014172898
-0.031397793
-0.036529653
-0.022529926
-0.008639002
0.004210797
0.013927768