4.668284E-4
0.0027056297
0.0025729623
3.418979E-4
-8.777228E-4
-7.3270506E-4
1.1469583E-5
-4.1077624E-4
-0.0026350531
-0.002315283
0.003299031
0.006802788
0.0051001166
0.003162643
0.0010099622
8.0260984E-4
0.0019490268
5.7420635E-4
4.085599E-4
9.0069784E-4
0.0016814076
0.0034069524
0.002114369
1.3696586E-4
-9.2904695E-4
-4.917792E-4
-8.852534E-4
-0.0027934234
-4.3219552E-4
-0.0047392766
-0.013556951
-0.012512351
-0.008780211
0.0011867903
0.008052522
0.0022475058
0.0041247094
-0.0018944335
-0.014958722
-0.004321041
0.006212206
0.005088259
0.006396119
0.003641015
0.0020310967
0.0023950124
4.376012E-4
9.176815E-4
7.7107374E-4
0.0019101967
0.0053101904
0.0058755246
0.004513707
0.0019231873
-0.001002205
-0.0023016008
-0.0018767897
-0.0019516798
-0.002022575
7.762838E-5
0.001003139
0.0012233313
7.335474E-4
-0.0028056751
-0.0042663026
-0.0035199844
-0.002735087
-0.0011245444
-9.888714E-4
-0.0010148224
4.586097E-4
0.002526818
0.0025246632
1.4756026E-4
2.463456E-4
-0.0010898644
-0.004373194
-0.0019853173
4.5187198E-4
-2.3157709E-5
0.0014807088
0.002577362
0.0026518356
0.0019398357
-3.2191776E-4
-0.0013063804
-0.0012483853
-0.0011552871
-4.620892E-4
1.7526357E-4
0.0019329684
0.0043379823
0.0029664868
-0.0016200882
-0.0037357921
-0.002691192
-0.0020217937
-0.002057941
-0.0012416862
0.0011377132
0.003066366
0.00252887
0.0012267024
-5.562083E-4
-0.0018391735
-5.0387357E-4
6.670082E-5
-4.0738125E-4
3.008587E-4
4.465502E-4
0.0017348377
0.0038529413
0.0032229216
0.0013376047
-9.076964E-4
-0.0030277276
-0.0029337846
-0.0015077147
-7.537201E-4
-2.3304448E-4
0.0015335806
0.0023511045
9.2043896E-4
-4.563157E-4
-0.0019042739
-0.0029243438
-0.0028400451
-0.0024766054
-0.0014890911
-4.004835E-4
9.862256E-4
0.0018812803
0.0020311773
0.0023239842
-1.6085157E-4
-0.0026112113
-0.0018171758
-0.0011881171
5.452599E-4
0.0020279884
0.001587681
0.003071361
0.004253675
0.0034765415
0.0017575668
-9.029599E-4
-0.0022014328
-0.003040172
-0.003647294
-0.0017430888
0.0013423499
0.0028941105
0.002014312
6.0316664E-4
-0.0017105825
-0.0044277357
-0.0031742752
-6.100119E-4
-8.913932E-4
-0.0016498491
-1.3423216E-4
0.0025433418
0.0026828714
0.001456264
8.8491995E-4
-1.4577193E-4
1.4035971E-4
3.9347686E-4
-0.0012358046
-8.909738E-4
0.0014902377
0.0024439034
0.0013147221
-5.860082E-4
-0.002142725
-0.0028470296
-0.0025227214
-0.0019653246
-9.193388E-4
9.569383E-4
0.0027249558
0.0037964103
0.0029703025
0.0013022604
3.5664943E-4
-0.0012336893
-0.002153098
-0.0019339183
-0.002367558
-0.0011384834
0.0016899068
0.0028999632
0.0028601238
0.0014817386
-0.0010467251
-0.0018785554
-0.0015821316
-0.001389481
-3.4808143E-4
4.8559465E-4
0.0014351426
0.00280293
0.0024805714
0.001002447
-0.0012831124
-0.0030576242
-0.0020216152
-0.0015023071
-0.0023178754
-0.0018745208
-6.782083E-4
0.0019915048
0.0034429345
2.0907604E-4
-0.002958988
-0.0032575643
-0.0022935688
-4.5829534E-4
4.7364974E-5
-7.445119E-4
6.8226684E-4
0.0027779108
0.0018497821
-7.506264E-5
-6.8183156E-4
-0.0013290948
-0.0011621648
5.764841E-4
0.0016887172
0.0030886063
0.0064395047
0.009379083
0.008499707
0.0031824987
-0.0027487003
-0.0061135697
-0.0066192285
-0.0042525474
-0.0024763893
-0.0028304702
-0.0012564103
9.364577E-4
8.627232E-4
-8.850586E-5
-0.0013439908
-0.0020668632
-0.0029936684
-0.00377231
-0.002055153
-7.595723E-4
5.007692E-4
0.003731721
0.0039724424
0.0011523372
-0.00100748
-0.002042666
-0.0013298104
-1.2403136E-4
3.252505E-4
0.0014952616
0.0036155288
0.0043561817
0.0032545822
0.0022619236
5.057877E-4
-0.002008846
-0.0027202521
-0.0020608953
-0.0016614657
-0.0014348447
1.6767414E-4
0.0023961393
0.0027887633
7.9413364E-4
-0.0025961013
-0.0031584606
-0.0019605947
-0.0029131814
-0.0015346878
0.0012243162
9.633188E-4
-2.0811844E-6
8.8021654E-4
0.0030285723
5.092823E-4
-0.0033348182
-0.0017325126
5.0621522E-5
0.0017119336
0.0018599242
0.0026850787
0.006027907
-0.0036962314
-0.011063899
6.694357E-4
0.004027975
-0.0014133748
1.4408099E-4
0.0015228065
0.0028701185
0.0042955615
0.0050838785
0.0058594975
0.001201175
-0.0043167644
-0.004693351
-0.0024306139
-0.0020448787
-0.0031040884
-0.0010405391
8.907601E-4
0.0010678209
0.0015882151
1.0168085E-4
-0.0028465497
-0.0052509117
-0.0050035184
-0.003339963
-0.0026780267
-4.4884993E-4
0.0015098803
0.0030444083
0.0052168686
0.0037086965
0.001064409
-1.9354466E-4
-0.0010167517
-3.7483036E-4
-3.5377283E-4
8.618788E-6
0.0027914024
0.0050949394
0.0047826283
0.0026035463
6.871097E-4
-7.1515614E-4
-0.002122406
-0.0032658877
-0.00401558
-0.003345198
-0.0012784337
0.0014151803
0.0034722553
0.0034126707
2.769384E-4
-0.0038499462
-0.002394341
7.27455E-4
-0.0017464483
-0.0033272642
-0.0017429155
0.0014250749
0.005978475
0.005157742
7.9938973E-4
-0.0015739108
-0.0029509638
-0.0028363504
-0.0032814927
-0.003380316
-5.0383655E-4
0.0014171592
0.0018327835
6.436709E-4
-0.0018240744
-0.0013906229
-5.2512565E-4
-0.001019415
-5.126225E-4
8.400171E-6
0.0022689882
0.006273083
0.0071613784
0.00487843
0.001988627
-1.4332825E-4
-0.0017383539
-0.0032500394
-0.0021705024
-5.3522043E-4
-0.001283312
3.5789347E-4
0.0031830494
0.0015763586
-0.0020775665
-0.005073237
-0.0058484566
-0.0041720197
-0.0032646842
-0.0026366648
-0.0015115762
-1.4204654E-4
0.0016699093
1.4283518E-4
-0.0032789372
-0.0033778392
-0.002290015
-8.8999985E-4
0.002341908
0.0052289977
0.0070824125
0.0080135325
0.007506145
0.00677392
0.0049115648
7.932202E-4
-0.0023525197
-0.0022676762
-4.6515232E-4
3.5449647E-4
-0.0010671208
-0.0015170926
6.756843E-4
3.3514618E-4
-0.004231753
-0.006549818
-0.0040020617
-0.0020597298
-0.0032799062
-0.003674144
-3.3155005E-4
0.004459339
0.0051919227
6.975051E-4
-0.003568796
-0.004423636
-0.003255148
-0.0026359595
-0.0030158795
-0.0014243671
0.0012838639
0.003339011
0.0063307825
0.00660846
0.0027111033
9.347967E-4
0.0017298074
0.001124372
-5.517906E-4
-0.0010899528
3.2492942E-4
0.002642719
0.0038806768
0.0022161698
-3.0143352E-4
-8.2579284E-4
-0.0023707498
-0.0048069847
-0.0040512234
-0.0026258961
-0.0023757627
-1.9663131E-4
0.0027532538
0.0019425765
-0.0019963796
-0.004571641
-0.005511958
-0.0058298744
-0.0042831562
-0.0020267677
9.7512835E-5
0.002588702
0.00425981
0.004454938
0.0026513548
1.7015253E-4
5.1338837E-4
0.0027655466
0.0038674765
0.004896692
0.0072931764
0.0099585075
0.010830771
0.005986635
-0.0023646841
-0.005420205
-0.0058913757
-0.007883555
-0.0061987783
-0.004621045
-0.0045759887
-4.3138667E-4
0.0024857693
0.002306678
0.0017388085
-3.1663504E-4
-2.644467E-4
-7.4314717E-6
-0.0033033392
-0.0058254036
-0.0055067707
-0.002095274
9.4459543E-4
-0.0010706526
-0.004212325
-0.0054596425
-0.0056224843
-0.004367386
-0.0026924592
-9.204407E-4
0.0021998468
0.0058001056
0.0068250634
0.005482307
0.0041952804
0.0033104206
0.0034101927
0.0019662029
-0.002411177
-0.0037052415
-4.0016967E-6
0.0055982377
0.010160407
0.010754736
0.008613699
0.005676116
0.0032705085
0.0021840672
7.1390235E-4
-4.326365E-4
-0.0016090083
-0.0034263325
-0.0038160142
-0.005519686
-0.009305021
-0.011216041
-0.010676917
-0.008203796
-0.0061287223
-0.0058738044
-0.004049171
6.646547E-5
0.0035228594
0.0038125238
9.2252064E-4
-0.001986641
-0.0025727258
-0.001233952
1.6784674E-4
0.0018345896
0.005406355
0.007719667
0.0074313176
0.008233241
0.0074052005
0.0029126904
3.290013E-4
-1.9475816E-4
-0.0019396258
-0.0024962877
-5.065534E-4
0.0019957426
0.0035559773
0.0016105678
-0.0032523258
-0.006105854
-0.0066185268
-0.005924968
-0.004152713
-0.00341688
-0.0022888116
2.2983081E-4
0.0019755738
0.002289158
7.1279914E-4
-6.081221E-4
-7.6330185E-4
-0.0011734581
-8.2295935E-4
-4.8754062E-4
6.725829E-4
0.0041973223
0.007159877
0.00624518
0.0019373079
-1.12114685E-4
5.3992635E-4
0.001243499
0.0013392528
-0.0014019465
-3.830022E-4
0.0041181548
0.004153406
0.0025137458
-0.0024288706
-0.006834799
-0.00798637
-0.010673744
-0.009668138
-0.01126591
-0.009183081
-0.0011778178
-0.010091812
-0.009544812
0.007789041
0.009903717
0.012799469
0.009592729
-0.0018016652
0.011482612
0.02296802
0.018321356
0.017316606
0.011373227
0.0024951687
-0.0032910772
-0.005785102
-0.0039181826
-0.0054426603
-0.0054004947
8.2813454E-4
0.007010963
0.009553469
0.008402787
0.007904542
0.006821924
0.0042369375
0.001038229
-0.003975665
-0.007195303
-0.011939326
-0.01806839
-0.020786405
-0.025406357
-0.029762462
-0.029896809
-0.028153589
-0.0259999
-0.02391933
-0.016782569
-0.008019276
-0.0018191254
0.006984489
0.011894724
0.01119697
0.011723617
0.010898365
0.00981503
0.008933916
0.0066250307
0.008771485
0.015098555
0.022443505
0.033989366
0.046925243
0.05400294
0.055804353
0.054449853
0.04946554
0.04232885
0.027961433
0.003027573
-0.01903122
-0.032711033
-0.04880751
-0.06662212
-0.074800484
-0.06992347
-0.057737786
-0.04291223
-0.026582617
-0.013830632
-0.0060978625
-0.0015732481
-0.0027069352
-0.0024038749
0.0012835894
1.6285137E-4
0.001634335
0.0065727625
0.008108489
0.0126438765
0.016582923
0.015538823
0.015644751
0.015570972
0.01476024
0.014678317
0.015721897
0.017846247
0.018225754
0.018613406
0.01715518
0.011810771
0.006044707
-0.0017413074
-0.007646954
-0.0090630185
-0.011281153
-0.01230946
-0.010838408
-0.0072085382
-0.0026509804
-0.0018296227
-0.0019280156
-0.0014810701
-0.0027659263
-0.0039314013
-0.0044146096
-0.004803195
-0.0056279623
-0.0061885836
-0.0071979077
-0.010780183
-0.014572948
-0.017890235
-0.019868897
-0.017216874
-0.011391735
-0.004608321
0.004368432
0.016837167
0.02838065
0.036643583
0.044920005
0.050020643
0.05047885
0.04758448
0.038225163
0.02278037
0.0044336934
-0.00923848
-0.017006038
-0.027156033
-0.038538653
-0.049737584
-0.05770831
-0.05579519
-0.048923615
-0.04074066
-0.033074033
-0.026349636
-0.017997053
-0.01472288
-0.013784612
-0.008479937
-0.0048998175
-0.0026696175
0.0022801016
0.011298687
0.02263677
0.033028062
0.045855924
0.056449126
0.059329197
0.061273668
0.06450573
0.06474247
0.05435065
0.033986486
0.016099662
0.0016227108
-0.013551261
-0.027849434
-0.039686095
-0.045430094
-0.047463454
-0.048456986
-0.043797843
-0.03684468
-0.032952756
-0.028658213
-0.021382762
-0.0133646615
-0.008468137
-0.007056479
-0.004719361
3.866876E-4
0.005598629
0.009472423
0.014105497
0.020774381
0.025766319
0.024073757
0.017734159
0.013090506
0.009262544
0.0037105652
4.2003824E-4
1.4552081E-6
-2.9011176E-4
-3.8780266E-4
-5.6724786E-4
-4.5422168E-4
-0.002722254
-0.008347186
-0.009005231
-0.0056715985
-0.0050092745
-0.0026238724
0.0011270458
0.0036281473
0.008470391
0.012494336
0.012865199
0.011569903
0.008261337
0.004807696
0.0030081442
0.0024873693
0.0030105507
0.002499646
2.0356971E-4
-0.0019504015
-0.0040843743
-0.007910449
-0.010424706
-0.00891941
-0.007975247
-0.007700431
-0.0047344966
-0.0018693274
8.96394E-4
0.003136007
0.0015014611
-9.691542E-4
-0.002901192
-0.005703597
-0.006879629
-0.006183223
-0.005606348
-0.005453786
-0.0049372786
-0.004946859
-0.006920946
-0.008159339
-0.008052509
-0.00805425
-0.0061777346
-0.0037740732
-0.0021758685
9.777764E-4
0.0051326724
0.0074800807
0.004740406
-2.8165238E-4
6.411306E-5
0.006229316
0.015494024
0.023921104
0.028937336
0.034169324
0.036481984
0.030985603
0.019207742
0.0017336835
-0.012708364
-0.016693138
-0.020069102
-0.025654892
-0.020568477
-0.005782263
0.0024039922
0.002465336
0.0017209685
-0.0023971412
-0.008400729
-0.0124814045
-0.016308231
-0.017487686
-0.014950825
-0.01015966
-0.0045741936
-4.6356727E-4
0.0042323912
0.006877743
0.0038138598
6.355224E-4
-0.0011132938
-0.002592
-0.002276685
-0.003175091
-0.006174224
-0.0077038473
-0.007114336
-0.004735464
-9.247444E-4
0.0024206133
0.005168805
0.008990605
0.014792596
0.021339078
0.026502877
0.030163987
0.029476058
0.021305123
0.010042816
0.0012584568
-0.0024836333
-0.0062426375
-0.014568801
-0.017885558
-0.01577855
-0.018864106
-0.02700822
-0.03631445
-0.040783618
-0.03459556
-0.021234514
-0.015600485
-0.021679938
-0.014575034
0.0029076322
0.0048372834
0.006635531
0.016950812
0.022304812
0.029445292
0.039187543
0.046869576
0.056246445
0.065484166
0.070123576
0.06417119
0.044325743
0.016988195
-0.0031278513
-0.011817142
-0.023629475
-0.041302346
-0.054170888
-0.056559436
-0.05288093
-0.056297824
-0.06615309
-0.07573917
-0.084268115
-0.08164512
-0.06703958
-0.05228734
-0.03589987
-0.01224989
0.014702122
0.04442099
0.07719521
0.10399086
0.1271818
0.14587691
0.14673918
0.14247298
0.13327573
0.10151753
0.0626848
0.021735363
-0.026851555
-0.06823697
-0.097689584
-0.11799276
-0.13137086
-0.136315
-0.13046423
-0.11847931
-0.104204
-0.097950615
-0.09366428
-0.08197864
-0.073220655
-0.05835593
-0.043880638
-0.03864085
-0.0057346923
0.05954146
0.1200937
0.15099654
0.15351547
0.13230582
0.08072353
0.05473004
0.100651346
0.14857683
0.15831563
0.1633287
0.17636925
0.19703571
0.19709931
0.13883032
0.035268296
-0.10298318
-0.27001655
-0.3873892
-0.3871225
-0.3199482
-0.2553264
-0.17492017
-0.05671285
0.045619573
0.07473555
0.04468367
0.02844122
0.041824915
0.010967152
-0.03863556
-0.05892887
-0.12723331
-0.18745993
-0.10990404
0.03977245
0.15044066
0.19286285
0.20468631
0.187999
0.11086086
0.05708413
0.02117025
-0.067514054
-0.0916817
-0.017658835
0.042977046
0.07180565
0.09845441
0.11760168
0.096193165
0.047373656
0.006898568
-0.017456425
0.012328377
0.06852501
0.058526725
-0.006224771
-0.05798061
-0.0765504
-0.0520655
0.011467858
0.04642866
0.040347677
0.04361778
0.041256987
0.031031575
-0.02703024
-0.17606293
-0.28920987
-0.30278525
-0.2582522
-0.17123243
-0.12250072
-0.11911613
-0.079194956
-0.019652434
0.008759597
0.020187426
0.050476275
0.08052324
0.10245274
0.13956201
0.16265416
0.17051807
0.18421514
0.18407325
0.15685633
0.10087072
0.03830129
-2.4274466E-5
0.020111585
0.079689786
0.070874706
0.0053794626
-0.008646113
0.015594864
0.0053802514
-0.04065366
-0.061296687
-0.061434004
-0.06394863
-0.040296983
-0.046678968
-0.08980212
-0.08912806
-0.070741184
-0.054045953
-0.026050098
-0.025704563
-0.06686301
-0.10514646
-0.093808696
-0.052090038
0.00769947
0.07713241
0.09852378
0.090974934
0.09455302
0.089175425
0.04268349
-0.049731333
-0.10541199
-0.10533357
-0.10361839
-0.08549284
-0.062232684
-0.030392956
0.027751785
0.068131864
0.0872913
0.10265695
0.12146687
0.13479893
0.1251348
0.10765728
0.07640543
0.043044098
0.014769668
-0.025403155
-0.059062645
-0.09119012
-0.09385525
-0.062337223
-0.043787543
-0.018294347
-0.0043098363
0.008347534
0.02826255
0.030005591
0.06790767
-0.021982217
-0.23692581
-0.19771871
-0.020279732
0.01679336
0.023053097
0.02754806
0.019925073
0.029088408
0.025439948
0.02945152
0.03470051
0.035864674
0.040482294
0.03430644
0.03553444
0.032565698
0.018235583
0.0033957823
-0.012393532
-0.00768666
0.0054853614
0.0076687327
0.0013839129
-0.011482252
-0.016820157
-0.017713247
-0.015255907
-0.007907574
-0.0038539406
0.0052731894
0.012864389
0.010393637
0.0033377425
-0.0047345897
-0.004061928
0.0032975383
0.0096873995
0.010982282
0.010288535
0.015733821
0.017376909
0.013692019
0.008748621
-0.0017098937
-0.0095010195
-0.014158881
-0.017957155
-0.017556954
-0.017536666
-0.017124508
-0.0160252
-0.016947486
-0.01967575
-0.026022645
-0.03182729
-0.031891562
-0.029334448
-0.024919875
-0.016087854
-0.006771542
0.0014757422
0.0074197524
0.0069907545
0.0068689934
0.007338457
0.007964122
0.012899912
0.01628339
0.021062013
0.02649162
0.031392884
0.039945606
0.033448223
0.021970022
0.03327496
0.047865115
0.049008552
0.04259881
0.04062714
0.047618568
0.041267347
0.020204404
-0.0011919608
-0.025024286
-0.04345218
-0.05438897
-0.061418995
-0.058929045
-0.04978131
-0.036747046
-0.02411781
-0.016260706
-0.008880825
-0.0059938105
-0.010757295
-0.018276777
-0.028862491
-0.040307887
-0.044208467
-0.037564706
-0.025897652
-0.014007418
-0.0034827571
0.0043701525
0.012582851
0.021783631
0.02562765
0.023424203
0.022579234
0.026522769
0.030339709
0.030391956
0.028065208
0.02479371
0.022528416
0.021383794
0.01922494
0.017366849
0.017046202
0.01805725
0.021260323
0.022072721
0.014743693
0.003243498
-0.006602211
-0.013440746
-0.015685821
-0.014884199
-0.014770606
-0.013945309
-0.011828516
-0.01254695
-0.016540684
-0.020114848
-0.021243688
-0.020384159
-0.018858425
-0.015971838
-0.011285641
-0.0058689867
6.492096E-4
0.00367733
4.467395E-4
-0.0014524054
-7.961882E-6
0.00167795
0.0033712902
0.0051273066
0.0077169156
0.008712375
0.00900536
0.010209548
0.006672425
0.0015849102
-7.18571E-4
-0.00265013
-0.0026767491
-0.0024153444
-3.1990057E-4
0.005237897
0.00788043
0.008500462
0.007114423
0.0027062213
6.665248E-4
1.4580533E-4
0.0010248952
0.0026202784
0.0022705398
0.0052195787
0.009081736
0.007730731
0.003811633
-4.634487E-4
-0.002321862
-0.0017955105
-0.0017392368
-8.812352E-4
-0.0010266596
-0.0011387479
0.003887559
0.007851423
0.004532236
6.715715E-4
-4.928105E-4
-0.0011934543
8.451667E-4
0.002561504
0.0018870156
0.0039269156
0.00638283
0.007523055
0.006783206
0.0010941871
-0.003152769
-0.0032007298
-0.0032028018
-0.0024747555
6.7839306E-4
0.004900309
0.007300034
0.009297735
0.0070318636
0.0014212282
9.4139826E-4
-0.008037874
-0.017102176
-0.0037356045
0.0059773424
0.0048375917
0.009870165
0.010474997
0.0068975976
0.0031032532
-5.6588807E-4
7.779409E-4
3.7883252E-5
-0.00145199
-0.0014228219
-5.9203303E-4
0.004111055
0.004533136
0.0015376841
-0.0018072122
-0.0058490513
-0.005105985
-0.0041537075
-0.0012830067
0.0015452451
0.0015748338
0.0067666015
-5.782005E-4
-0.013176462
-0.004047944
0.0026103735
-0.0014718105
-9.748733E-4
-0.0021390624
-0.0015483269
0.0024233963
0.0050815237
0.00657663
0.0030508477
-0.0020244692
-0.0052547003
-0.005911305
-0.0037686483
-0.0032599722
-0.001826198
9.4165275E-4
0.0032310074
0.005641296
0.0036272805
-1.8294973E-4
-0.002810983
-0.004373562
-0.003177496
-0.0053931745
-0.0068139127
-3.3744358E-4
0.0044298125
0.004873438
0.0037943008
6.836723E-4
-0.0014824081
-0.0028115318
-0.0031833367
-0.0022481726
-0.0012257278
8.923101E-4
0.0028137334
0.004500397
0.004227416
-3.44146E-4
-0.002919728
-0.0021231864
-0.0024457707
-0.0031064206
-0.0028289652
-3.5099077E-4
0.0035280627
0.005062497
0.0033422476
-5.9341633E-4
-0.0033550994
-0.0032876814
-0.002919971
-0.00122582
0.0013057548
0.00129944
0.0010534099
0.0022047271
0.0015413483
-0.0016066736
-0.0031551982
-0.0024517218
-0.0027215658
-0.003437672
-0.0036106165
-0.0017333967
0.0033383418
0.004956749
-9.1998244E-4
-0.0058171074
-0.004366979
-0.003067887
-0.0033459181
-0.0016187872
6.828485E-5
0.0023890284
0.0043159686
0.0032697078
0.002404701
-1.6474305E-4
-0.0036557293
-0.0036525226
-0.0033508972
-0.0031353894
-0.0019536673
7.8981055E-4
0.0059168055
0.0070051737
0.0027788838
-1.1215252E-4
-0.0010813499
-0.0021888379
-0.0016973129
-3.306303E-5
0.0013733524
0.00413381
0.0053217253
0.004347932
0.0035539363
2.452091E-4
-0.0018027186
-0.00208521
-0.002810941
-0.0015317382
-0.0023673081
-8.965412E-5
0.0040127253
0.0030662513
0.005722911
-8.569993E-4
-0.01354387
-0.0107551
-0.010658161
-0.012877749
-0.009707023
-0.010690446
2.1983903E-4
0.012242253
0.008685259
0.006198428
0.0031765248
6.9051894E-4
0.0025067145
5.89508E-4
1.7749114E-4
6.071955E-4
0.0017225915
0.0064387945
0.006068091
0.0021506108
-4.4294592E-4
-0.0022467265
-0.0020041545
-9.30001E-4
2.6750268E-4
7.1247073E-4
0.0012749751
0.0026083365
0.0017333091
-5.0367997E-4
-0.0030290363
-0.0052211015
-0.0056859264
-0.005425763
-0.004185048
-0.0020823744
6.645284E-4
0.0034978031
0.003616525
0.0013487487
-0.0013005302
-0.00238357
-0.0011636176
-8.8264176E-5
7.622122E-4
0.0022121472
0.0037175845
0.0050061527
0.003525688
-6.8171805E-4
-0.003216326
-0.0037487266
-0.004456217
-0.004632395
-0.003566019
-0.0015390053
0.0018109169
0.004688158
0.0031321305
-0.0014525139
-0.003372206
-0.0023531644
-0.001197214
-5.424149E-4
-6.432562E-4
2.1164244E-4
0.0024932986
0.0037044866
0.0034221262
0.0015410691
-6.7430106E-4
-0.0016524525
-0.0020561232
-0.0020248597
-0.0015370022
0.0010610046
0.0044637015
0.004036201
0.0017130906
-3.821865E-5
-0.0019778048
-0.0037287462
-0.005111395
-0.0041009686
-0.0013579511
3.9602746E-4
0.0027173983
0.0044532735
0.003726191
0.0015425376
-0.0016095232
-0.0026732904
-0.0014491951
-0.0012468954
-0.0012680644
-5.107191E-4
0.0013051131
0.0034713023
0.00317562
4.0703922E-4
-0.0032017122
-0.005030266
-0.004280241
-0.003587914
-0.001983511
-3.7624806E-5
4.2857518E-4
0.0027532661
0.0046142945
0.0019274652
-0.0011211588
-0.0015727676
-0.0013129317
-0.0021576316
-0.0019845702
0.0010105638
0.0035560501
0.0047119246
0.0045122076
0.0021127358
-1.0157292E-4
-0.0020364907
-0.0033061258
-0.0023899474
-0.0015406141
-4.3888786E-4
0.0014776218
0.0021460198
0.0017433031
4.7181983E-4
-0.0014124487
-0.0031389343
-0.0036699
-0.002968125
-0.0034286398
-0.0023693477
0.0022896067
0.0043147313
0.0026158176
0.0013385735
-2.4748646E-4
-0.002518006
-0.0031522145
-0.0021417646
-7.5010624E-4
0.0010594914
0.0030939237
0.004842883
0.0049487315
0.0022317038
-0.0010480846
-0.003463953
-0.0040279347
-0.0021339124
-0.0013269009
-1.8545585E-4
0.0026925078
0.0031239921
0.0025311902
9.5998804E-4
-0.0017586041
-0.0024306914
-0.004443645
-0.005103578
-8.227049E-4
5.727133E-4
9.4939845E-5
0.0028156422
0.0042790673
0.0022598174
-3.4878988E-4
-0.0013951063
-0.001543199
-0.0016202243
-0.0015349826
-0.0015318953
3.1177638E-4
0.0041340124
0.005127445
9.7067194E-4
-0.003607943
-0.004430794
-0.0036443442
-0.0023924087
-8.3131803E-4
5.163286E-5
0.0021610812
0.0040856465
0.0034217972
0.0010768343
-0.0016879599
-0.0019972723
-0.0016170004
-0.0020447134
-1.0997938E-4
0.0010170053
0.0012620554
0.003692658
0.0036425001
6.3802913E-4
-0.0018163151
-0.0030962527
-0.0028815428
-0.0018235564
-4.601316E-4
1.1314256E-4
0.0013128698
0.0038028383
0.003191062
0.0014824601
-1.0596171E-4
-0.0041138404
-0.0049253693
-0.0022943344
-2.8221437E-4
0.0017374868
0.0021830592
0.003484048
0.0042811795
-5.9097697E-4
-0.0040595923
-0.0034617898
-0.0029959017
-0.0016066043
-0.0010781602
-0.0011980007
5.990178E-4
0.0021893536
0.0027476067
0.0020379038
-2.0025483E-4
-0.0017834728
-0.0015097857
-0.0019461592
-0.0036267724
-0.0015681115
0.0027400902
0.0045161713
0.0047883107
0.0021209002
-0.0020797988
-0.0034768328
-0.0036588525
-0.0029491107
-0.0014215735
5.1430176E-4
0.003553164
0.0049399096
0.0045517273
0.0030846521
7.720569E-5
-0.0016421599
-0.0021237233
-0.002491981
-0.0025089371
-0.0022496285
2.627044E-4
0.0034390206
0.0043349853
0.0027972234
-0.0018525844
-0.005372954
-0.004167686
-0.0023722213
-0.0011307901
0.0010189664
0.0027280867
0.0038230238
0.003532314
8.3925243E-4
-0.001740704
-0.0028173337
-0.002807052
-0.0018853478
-0.0021350374
-0.002201136
5.5808655E-4
0.0026111219
0.0029691039
0.002453239
-6.3048466E-4
-0.0026428173
-0.0023384388
-0.0021892677
-1.5139092E-4
0.001623872
0.0014837763
0.0028780291
0.0037566693
0.0021377574
-5.5219576E-4
-0.0027410795
-0.0019018527
-3.0702274E-4
-9.224027E-4
-0.001384634
3.3703996E-4
0.0034596263
0.004955053
0.0029110704
-5.7709555E-4
-0.0022382291
-0.0022497145
-0.0031463248
-0.0031520908
-9.5164246E-4
0.0010503954
0.0026010436
0.0027712842
0.0011366837
-7.8737957E-4
-0.0025060268
-0.0022727363
-0.0017029877
-0.002218815
-0.0014873868
-1.1518626E-4
0.002070267
0.0031347154
9.7359903E-4
-0.0014195727
-0.0037439903
-0.003404768
-6.509136E-4
-7.125208E-4
-1.533552E-4
0.001808575
0.0029294447
0.004419275
0.003597729
9.1465807E-4
-0.0010717976
-0.0014921825
-7.16404E-4
-0.0012346916
-0.0010159353
6.842264E-4
0.002729932
0.0047693136
0.0028986263
-0.0012552115
-0.003721888
-0.0043241456
-0.0033492213
-0.0019668979
6.20466E-5
0.0011834515
0.002159692
0.0037038906
0.0016824051
-8.228637E-5
-3.2413962E-5
-0.0012545213
-0.0022134685
-0.0030699535
-0.0011085444
0.0011269172
0.0014587237
0.0038753916
0.002980525
0.0010453213
-7.8514934E-4
-0.0043187044
-0.0021357234
-0.008314758
-0.017567705
-0.00426857
0.009269897
0.00783236
0.0058250455
0.0029613974
0.0010543031
0.0010244258
-4.8821516E-5
-3.9090135E-4
-0.0012108863
1.14171395E-4
0.0028805763
0.003045884
0.0015429961
-0.0010868034
-0.0017466259
-7.466574E-4
-0.0014061573
-0.0015745836
-5.123079E-4
8.401836E-4
0.002767903
0.004220874
0.002847788
-5.027813E-4
-0.0023275476
-0.003061271
-0.0033863618
-0.0030733272
-0.0022711202
2.6686752E-4
0.0031538412
0.0043859025
0.0026675311
-7.2985847E-4
-0.0015787737
-0.0014872764
-0.0020727841
-0.0017290205
-0.0012146622
3.950603E-4
0.0028402123
0.0035151388
0.0018940574
-0.0011071252
-0.0038062388
-0.00461221
-0.003154989
-0.0025242763
-0.0025904668
4.899297E-4
0.003930033
0.0048205284
0.0025152666
-0.0010561933
-0.0015490485
-0.0025615331
-0.0027992541
5.4763915E-4
9.733544E-4
0.0018566855
0.0040066484
0.0022026193
0.0016404513
0.0012566806
-0.0010680602
-0.0010920072
-9.4481243E-4
-0.0011301978
-9.3918206E-4
-6.070782E-4
0.0022779917
0.0049117785
0.0032699548
-7.280621E-4
-0.002972894
-0.0033707186
-0.0034196964
-0.0016382318
-3.9577126E-4
-2.6571652E-4
0.002482439
0.0046038693
0.0035943396
7.43262E-4
-0.0022322414
-0.0020634732
-0.0015554911
-0.0019650017
-3.4509038E-4
9.7275357E-4
0.0026285131
0.0040112073
4.339384E-4
-0.0033788213
-0.003570201
-0.0038957326
-0.0046177916
-0.004183435
-0.0023116241
7.080141E-4
0.0034012476
0.004462226
0.0029726091
2.2512229E-4
-0.0013884844
-0.0015633005
-0.001306865
-0.0016884778
-0.0010132571
0.0019619653
0.0048213783
0.0057458826
0.0036109006
4.2378856E-4
-0.0013181716
-0.0026518458
-0.0014785348
6.667123E-4
4.970865E-4
0.0021556213
0.0041818377
0.0038663698
0.002024435
-0.0033321828
-0.0059251846
-0.0029397742
-0.0019942583
-0.0027569735
-0.0028688288
-0.0014323056
0.0023339123
0.003690909
0.0016213647
-0.001272574
-0.0034032026
-0.0030802703
-0.0023011556
-0.0020164817
-5.9604074E-4
0.0016365172
0.0039647664
0.0047149034
0.0029803058
8.540095E-4
-3.732661E-4
-0.0013763708
-0.0017516342
-8.1554597E-4
-5.294429E-4
-6.996596E-4
0.0016049172
0.0039585
0.0025853396
-4.8150588E-4
-0.0022665106
-0.002591076
-0.0028241645
-0.0033720566
-0.0019208136
0.0013332235
0.0033181638
0.0044208094
0.003722964
-3.1762692E-4
-0.0026067023
-0.0017735403
-0.0015678793
-0.0012360201
-9.5144723E-4
-7.1636937E-4
0.0021094424
0.0042801374
0.0023009882
-3.3601432E-4
-0.0011956088
-0.0020247963