-0.0014901565
-0.0015965846
-0.0029745854
-7.835567E-4
0.00581142
0.00532163
-0.0018425838
-0.0062985355
-0.0059877355
-0.0020007119
-1.5816087E-5
-3.5586176E-4
0.0015039642
0.0024877223
0.0031360528
0.004090487
0.004085784
0.005738572
0.0033181724
-0.0020704705
-2.6423216E-4
0.0017334229
-0.0015323729
-0.0017109799
0.0011389245
0.0022395293
0.002057604
7.406903E-4
-0.0011981874
-0.0021579699
-0.0029817699
-0.0035722086
-0.002194572
-0.001060514
-0.00178427
-8.800338E-4
9.966976E-4
-3.424805E-4
-0.0015933842
8.623894E-4
0.0034433724
0.0043312805
0.004046936
0.0020689382
-5.652478E-4
-0.002280048
-0.0021253708
-0.0010635292
-0.0012167422
-0.002233152
-0.001774446
4.902161E-4
0.0012587144
-1.5491436E-6
-0.0012151131
-0.0018862379
-1.3343236E-4
0.0015385263
-5.7045295E-4
-0.0026551597
-0.0020091815
6.648937E-5
6.9062575E-4
8.7211764E-4
0.0032517542
0.0025546046
1.2107108E-4
-3.097476E-5
-0.0021704505
-0.002185765
0.0018305216
0.0036050812
0.0029275077
-1.2978757E-4
-0.0031803178
-0.0031277332
-0.0023160127
-0.0013464399
-7.744821E-6
0.0010059352
6.855917E-4
3.4507876E-4
0.0020440759
0.002803365
0.0024179986
0.0019621325
6.394073E-4
2.4255148E-4
-3.8195937E-4
-0.0015819536
-0.0014522506
-5.173064E-5
0.0016867346
9.7362127E-4
7.199379E-4
0.0023486696
5.88045E-4
-0.001063257
-8.1351673E-4
-0.0021908933
-0.0019809282
-1.19914395E-4
2.7106973E-4
-6.6716294E-4
-0.0015885646
-0.0015396782
-0.0023545194
-0.0029488013
-0.0019998746
-0.0022596526
-0.0017498562
1.7322932E-4
9.022712E-5
-6.331034E-4
-6.928172E-4
7.867787E-4
0.003385087
0.0026442097
2.4515192E-4
-9.922828E-4
-0.0018284457
-4.273957E-4
0.0012887837
0.0022922806
0.0030505902
5.672694E-4
-8.2186406E-4
-2.7148667E-4
-0.001943508
-0.0011506797
0.0033088948
0.009318517
0.015190206
0.017891498
0.013636226
-0.0019537876
-0.013256094
-0.010675064
-0.011795569
-0.012461884
-0.005525501
-0.0037435142
-0.0032103823
-8.521211E-4
-9.6057716E-4
1.8443071E-4
5.621472E-4
-2.3936023E-4
-5.717027E-4
-0.0023332452
-0.0036374868
-0.0033491903
-8.3040015E-4
0.0021301657
0.002235119
0.0015982328
1.8977243E-4
-0.0010828
0.0016796341
0.0044338554
0.0040730364
0.0044061495
0.0041910475
0.0020786736
0.0024991918
0.0031961163
3.717235E-4
-0.0024577538
-0.004741381
-0.0048394008
-6.383402E-4
4.8751172E-4
-0.0021139802
-0.0015234177
3.1647875E-4
0.0012084127
0.0012060165
-9.760782E-4
-0.00117258
0.0018862234
0.0035769583
0.002920779
0.001295
0.0013222203
0.002619764
0.0023975165
0.0016812541
-0.0011292405
-0.004597966
-0.0044287303
-0.0043431083
-0.0033787412
-2.6002483E-4
8.84156E-4
0.00327912
0.004646572
9.2011614E-4
-0.001430204
-0.0018306602
-0.003225405
-0.003822014
-0.002993416
-0.0017327443
-1.0253649E-4
0.0027928879
0.0036111025
0.0010011465
-5.130652E-4
-0.0017395631
-0.0032819049
-0.0020593978
9.752572E-5
0.0017038607
0.0026084601
8.475334E-4
-0.0014561877
-0.002108814
-0.0032130426
-0.0036997483
-0.002310243
4.000804E-4
0.004704377
0.0054930514
0.0041794875
0.0058011822
0.0024536592
-0.001697871
0.0015993584
0.0016431911
-1.4113229E-4
0.0020715161
0.0015594453
0.0013470794
0.0030265148
0.0025879247
0.0016043993
-0.001442645
-0.0040657753
-0.0026519538
-0.002431135
-0.0033458928
-0.0021454743
-0.001854745
-0.0018678963
0.0017299416
0.0048462185
0.0013888418
-0.00479501
-0.0071744523
-0.007340149
-0.007550079
-0.00427453
3.4938534E-4
0.0010148818
0.003253417
0.008437604
0.008257702
0.0042465683
0.0011473257
-9.6256606E-4
-0.0013630595
-0.003052025
-0.0052153803
-0.0025399725
0.0017040068
0.002584962
1.6732814E-4
-0.0023017717
-4.0322798E-4
0.0023589244
0.0020694754
0.0032667215
0.004549489
0.0019968918
9.1664086E-4
0.0016430597
-1.3761512E-4
-0.0012057561
-7.146187E-4
-5.310789E-4
7.234026E-4
0.0013544436
6.3209987E-4
8.832674E-4
0.002057272
0.0023226887
-6.832368E-4
-0.0045605544
-0.005343908
-0.0047575883
-0.0032463379
-0.0013281528
-0.0017086174
-0.0020449597
-9.395731E-4
-8.759447E-4
-8.2104286E-4
7.2916964E-4
0.0010970271
-4.780011E-4
-5.2015716E-4
7.526712E-4
0.0016139982
0.003143899
0.003209794
0.0011074475
-2.9847548E-5
-2.7386812E-4
-0.0011598854
-0.002719192
-0.0028721648
-7.607213E-4
0.0011371946
0.0015295746
7.974122E-4
0.0010094885
0.0022492611
0.0023748023
0.0026043484
0.001177709
-0.0023868338
-0.0026671076
-0.0013406122
-0.0011318795
6.6617715E-5
9.958127E-4
0.0013434939
0.0014083821
2.709732E-5
-4.400655E-4
0.0010058569
0.0012189888
3.5886806E-5
-4.5927204E-4
-0.0013798259
-0.0022641616
-0.0013605794
-0.0010233747
-0.0011402774
-6.898082E-4
-2.8337838E-4
0.0011893287
-5.4185285E-4
-0.0043141674
-0.0019931702
-7.553871E-4
-0.0048558493
-0.0040555615
3.0024222E-4
0.002014749
0.0036285329
0.0068202475
0.008962523
0.0061458177
0.0016388141
8.72863E-4
9.195703E-5
-0.0029428364
-0.0063223317
-0.008450734
-0.0065732105
-0.0030778218
7.601918E-4
0.0057109613
0.0066293697
0.00474111
0.00433569
0.0040167025
0.0031964234
-1.7756553E-4
-0.0022250016
1.9558308E-4
-0.0022221454
-0.007053185
-0.006219759
-0.0038478882
-0.0012645412
4.554503E-4
9.4502437E-4
0.003336841
0.0044409027
0.0040677064
0.00350111
8.4933196E-4
-0.0022393116
-0.0054276353
-0.0044812835
0.0014373785
0.002164872
-5.610695E-4
-1.8169647E-4
-4.082116E-5
-9.4597973E-4
-0.0024934474
-0.0025719677
0.001292302
0.0036934605
0.0024236196
0.0010046565
5.0132367E-4
-5.960882E-4
-0.003200692
-0.0036973953
-7.531636E-4
0.0019011445
0.0021956712
3.410416E-4
-7.62156E-4
2.9089022E-6
9.29815E-5
-7.0066523E-4
-2.2739539E-4
0.002285162
0.0029546218
0.0015857889
0.0020258399
0.0014124563
0.0010317029
0.002323602
-7.9880614E-5
-0.0019761848
-5.4644176E-4
-3.1852243E-5
3.0560564E-4
0.001337692
0.002920921
5.813644E-4
-0.005693293
-0.0067965914
-0.004402786
-0.002952466
-0.0018274626
-0.0011689595
5.933022E-4
0.0013441405
0.001225357
1.5099856E-4
-0.0032480585
-0.0024803316
5.0384365E-4
0.0025217228
0.0051308684
0.0027759853
9.980068E-4
0.005570059
0.0069784853
0.0012394252
-0.0034806542
4.850275E-5
0.0016918132
-0.0030118625
-0.0018055644
9.630161E-4
0.001035608
0.0026651034
0.0019177858
0.002421642
0.0030860938
-0.0010603777
-0.0026200532
-0.0028512087
-0.004832422
-0.005092388
-0.006131913
-0.006688881
-0.0036800161
-5.705627E-4
2.1329272E-4
-0.001037904
-0.0022987393
-2.1622502E-4
0.0037824116
0.004179842
0.0023355053
0.003495584
0.0048783026
0.0019326688
-0.002226075
-0.002391284
-8.09878E-4
-0.0022549508
-0.0023231392
0.0025949385
0.0047644223
0.0028171444
0.0050601973
0.008291677
0.005672828
8.6447527E-4
-0.0028851507
-0.0036789444
-0.0026232782
-0.0033254067
-0.0020462219
-3.9436054E-4
-6.9613365E-4
0.0019143068
0.0020986008
-9.40614E-4
-0.0012168853
-0.002007476
-0.0016307996
-1.2403846E-4
-0.0017387856
-0.0018822115
-9.000373E-4
-0.0012622763
-6.5410224E-4
-8.1149756E-4
-0.0020834364
-0.0025995835
-0.002303572
-0.0019722614
-0.0033071027
-0.0042304476
-0.0010756962
0.0025477293
0.0017638562
0.0010326531
0.0031398053
0.0032775826
0.0022741684
0.0017268746
3.702137E-4
0.0014525912
0.0034023738
0.002457524
0.00240469
0.0034047063
0.0010235347
-3.9621332E-4
0.002932188
0.003046256
-6.33437E-5
2.5028776E-4
-1.6275991E-4
-9.973072E-4
-4.0201453E-4
-0.002503068
-0.0023725526
-1.8224366E-4
-0.0021241116
-0.0025433486
-2.2866519E-4
-4.406819E-4
-0.0016913197
-0.0029803158
-0.004953802
-0.006126085
-0.004684315
-0.0012914549
7.9521944E-4
0.0017188652
0.002774104
0.0036928789
0.005507114
0.0061253975
0.0039033077
9.916666E-4
-0.0016381611
-0.0018802878
-9.125628E-4
-8.792715E-4
0.0023371452
0.0062624062
0.006015404
0.0039120633
4.2620735E-4
-0.0021617021
-0.002383126
-0.0039504822
-0.00552434
-0.0037482362
2.3660477E-4
6.432717E-4
-0.0022424588
-0.0011749567
-0.0015489168
-0.006298903
-0.006283069
-0.003840806
-0.0033228444
-0.0019351025
-6.955945E-4
-2.3457092E-4
0.002003362
0.005065847
0.0042072963
0.0025468224
0.0044817147
0.00434127
0.0021485481
0.0021830234
0.0035110582
0.0053003426
0.0060379826
0.005404059
0.0036807791
0.003113818
0.0030459377
-0.0027727154
-0.006541346
-0.002252867
-7.239415E-5
-9.08352E-4
-8.473608E-4
-0.0011765531
-0.003148532
-0.0059548486
-0.0059424187
-0.0052763387
-0.0055529554
-0.0042193155
-0.002718492
-0.0016148292
-0.0013102972
-7.600212E-4
-9.3458255E-4
-0.004191519
-0.0036739076
-3.872171E-4
6.32624E-4
0.0033468152
0.004018702
0.0025637895
0.004353389
0.004854881
0.0046388493
0.0054855947
0.0031680993
0.0013505543
0.0025424978
0.0016732467
-4.1192726E-4
5.886114E-4
0.0031593225
0.0034195604
0.00202074
0.0028110503
0.003077372
-4.3302316E-5
-0.0015609303
-0.004311079
-0.0100086415
-0.008301714
-0.0025637662
-0.0029700669
-0.005252225
-0.00365897
1.841602E-4
6.728896E-4
-0.0018237717
-0.0012430009
7.609585E-4
0.0018633722
0.0038945293
0.0050228382
0.004296753
0.003608424
0.002909438
0.0017374251
3.6904766E-4
-8.253991E-4
3.0317417E-4
0.00233498
6.454816E-4
-0.0013800929
-0.001202053
-0.0023783536
-0.003215838
-0.0018777126
-1.2385271E-5
-0.0011245892
-0.005598835
-0.0052380897
-3.1269147E-4
0.001112446
-0.0012860321
-0.0032543617
-9.6086407E-4
9.831308E-4
5.518077E-4
0.003451554
0.0044855257
0.0029217838
0.0041528414
0.0041580587
0.0036268062
0.0026864812
2.8559257E-4
7.3106313E-4
1.4999737E-4
-0.001678124
-1.920455E-4
6.714371E-4
3.1603113E-4
-0.0010365989
-0.0036850541
-0.0016081849
0.0027497008
0.0022599038
0.0013115407
0.0027207164
0.002354428
0.0013598704
5.0792494E-4
-0.0020949082
-0.0052080927
-0.008109997
-0.008229399
-0.0052741645
-0.0028837163
-6.732685E-4
-2.9605086E-4
-4.4025207E-4
0.0014492952
8.0813176E-4
1.4326398E-4
-8.093325E-4
-0.0045874766
-0.003881925
-0.0019651263
-0.0015596063
0.0012398891
0.0016067234
0.0016082205
0.0045112157
0.008805538
0.014614506
0.016284958
0.011827206
0.0046456633
3.0741605E-4
0.0014064999
0.0012333908
1.6519752E-4
-0.001340989
-0.0047210827
-0.004714494
-0.0060340865
-0.008147196
-0.005505151
-0.006123676
-0.008109045
-0.0054853903
-0.0032367078
-0.003051849
-0.0044311793
-0.0063467664
-0.0068274774
-0.0066374736
-0.005585788
-0.0022971504
0.0018405974
0.005245197
0.00813781
0.008435703
0.007067566
0.0067221033
0.0058467123
0.0061281184
0.0057553262
0.0023244403
0.0021861596
0.004372502
0.0052345674
0.005867532
0.004800823
0.0025134524
-3.5265455E-4
-0.0031286646
-0.005965218
-0.008365203
-0.006279278
-0.0040205186
-0.0037897546
-0.0020429164
-0.0011024603
4.9292523E-4
-5.0648267E-4
-0.006000854
-0.0041372753
0.0017136626
0.001386744
2.582428E-4
4.3328726E-4
-7.6710386E-4
-0.001732353
-0.0024204964
-0.0033873934
-0.0022064506
7.063859E-4
0.0012655932
6.754853E-4
0.0026769487
0.004053134
7.5103156E-4
-0.002427343
-0.001693135
-0.0011286191
-0.0011359018
-4.1672055E-4
4.5629797E-4
0.0021040896
0.0026273825
0.0033894556
0.00456759
0.0026542947
0.002078027
0.0035109972
0.003209072
0.0038812966
0.005191993
0.0040182453
6.079663E-4
-0.0020976537
-0.0032084389
-0.0041294037
-0.0037096085
-0.00399773
-0.0051937834
-0.0044068713
-0.0040350137
-0.002796185
-6.0542463E-4
-4.233055E-4
0.0010519046
0.0038307584
0.006206313
0.006913695
0.0042092875
0.0028301438
0.0034890445
0.00405572
0.0056984667
0.002801253
-0.004809043
-0.0069295447
-0.005402016
-0.007796243
-0.009659556
-0.008901297
-0.009067183
-0.0050016344
0.0023910995
0.0023816684
-0.0021939075
-0.0043484913
-0.0067850556
-0.0068814894
-0.0022107607
9.541229E-6
9.804798E-4
0.00633411
0.010125403
0.008669195
0.006149505
0.005650597
0.007722846
0.0081601385
0.007469643
0.012341362
0.01632653
0.011347555
0.005556883
0.0015989505
-0.007886329
-0.019779803
-0.02814821
-0.032760628
-0.02950047
-0.017468043
-0.006056352
5.385355E-4
0.006084162
0.007718365
0.0044169785
0.005855558
0.012166172
0.00984363
-0.0057396567
-0.019875439
-0.019485595
-0.012429254
-0.005476068
0.003470364
0.010315108
0.015639026
0.020278333
0.020980341
0.022593133
0.025105238
0.02552181
0.02364859
0.013919478
0.0019860053
-7.8562465E-5
0.0044487827
0.0069164126
0.006261566
0.0049054967
0.002115585
-0.0013369526
-0.005999932
-0.01767576
-0.033099663
-0.039754678
-0.033208843
-0.02507209
-0.020363923
-0.011412718
-0.004771154
-6.6612667E-4
0.009427674
0.017111229
0.02235137
0.026898403
0.026825646
0.02851322
0.027610235
0.020805797
0.013228238
0.0015511507
-0.011141375
-0.021322878
-0.0343922
-0.052463137
-0.064303756
-0.055870358
-0.037041064
-0.02059442
-0.010925021
-0.024175316
-0.052494075
-0.061084755
-0.041784503
-0.006689633
0.031390753
0.05475894
0.06759153
0.08724838
0.1013553
0.09351018
0.07023976
0.049163297
0.03876763
0.024525372
0.021144709
0.056303676
0.09137383
0.086188324
0.048220556
0.00109919
-0.02407441
-0.038366295
-0.07558969
-0.12904844
-0.17577614
-0.18342096
-0.14808631
-0.11486413
-0.083907805
-0.03787687
-0.007459933
0.009265578
0.03460286
0.05396697
0.070139706
0.08967971
0.09555629
0.089420825
0.083256274
0.077272795
0.060391165
0.04422105
0.057759993
0.064662874
0.035489973
0.015362068
0.0015005588
-0.04369696
-0.11059383
-0.16520111
-0.15989919
-0.10499529
-0.07023126
-0.048272014
-0.010920968
0.003267419
-0.0018315677
-0.0068249484
-0.03514626
-0.045405075
-0.010272564
0.015270349
0.03660387
0.07176124
0.09371951
0.10874805
0.11333733
0.09532831
0.082737975
0.08597089
0.07860155
0.062675714
0.06404951
0.048444804
-0.010784541
-0.061480533
-0.08731636
-0.10450971
-0.10051071
-0.07589783
-0.04639412
-0.036414254
-0.05180411
-0.07211329
-0.085916415
-0.07396906
-0.034469336
0.004153612
0.023676828
0.030677335
0.05437468
0.077828795
0.06315388
0.03809077
0.020066384
6.0903945E-4
-0.013133168
-0.027366454
-0.038680397
-0.045647215
-0.049710464
-0.028056368
0.001779626
0.01039851
0.012457764
0.014030487
0.02049443
0.039673734
0.051784232
0.038912173
0.0043311603
-0.021353256
-0.017652133
-0.010823919
-0.01057666
-0.006500135
-0.008082769
-0.0034433496
0.021716857
0.043731235
0.052030206
0.05690248
0.057642046
0.053157076
0.033999734
0.001609734
-0.018420506
-0.04041115
-0.06912895
-0.061428897
-0.041126866
-0.042640373
-0.035691775
-0.024597803
-0.023968795
-0.018235357
-0.0069493516
0.0079569975
0.017687444
0.015261594
0.016254341
0.022770882
0.02336009
0.023114558
0.026163818
0.007428692
-0.029174233
-0.028462654
0.00676032
0.025407078
0.019200778
0.0016212299
-0.015524312
-0.027627813
-0.03129664
-0.01755675
-0.0037546568
-0.0037272414
-0.0013944857
0.005585805
0.00933898
0.01260063
0.014630837
0.011499537
0.004064985
-0.004687597
-0.010532224
-0.010316453
-0.004995756
3.5039228E-4
0.001568272
0.0062580677
0.017580999
0.024798367
0.026265036
0.022677112
0.013238381
9.33638E-5
-0.012409477
-0.005687975
0.012716279
0.013233859
1.5611004E-4
-0.01808178
-0.030365067
-0.022047615
-0.011172851
-0.005044925
0.003265444
0.004762815
0.0019856554
0.0044736606
0.008505047
0.003758107
-0.0044661895
-0.0058302106
-0.011060961
-0.017006272
-0.013437988
-0.013090145
-0.014868363
-0.009966239
-0.0025532462
0.0035229381
0.0028774107
-0.0012891531
-9.676391E-4
0.0014406039
0.0040432513
0.010137801
0.019841606
0.026095271
0.025546946
0.020160336
0.014017672
0.018540045
0.029129138
0.029336479
0.019940581
0.0022362634
-0.018433206
-0.02481432
-0.018122286
-0.013113703
-0.014954603
-0.020201469
-0.023859859
-0.02390192
-0.019635916
-0.013380805
-0.009268704
-0.0065602786
-0.004497077
-0.004111937
-0.0035475383
-0.0034684557
-0.0058400556
-0.0065517263
-0.0044841385
-0.0016919652
0.0040159747
0.010265539
0.015674485
0.019834606
0.017491115
0.017009875
0.019287508
0.011655541
0.006426143
0.0065422975
-0.0040174485
-0.011560514
-0.004899707
-6.337449E-4
-0.0050220685
-0.0062394855
-0.0020905442
-0.0022447987
0.0017570744
0.013632646
0.014755189
0.011797432
0.016991295
0.019380335
0.015475429
0.005188179
-0.007921464
-0.018203458
-0.029640319
-0.03371179
-0.025624007
-0.018095737
-0.013537703
-0.008177081
-0.002960876
-0.0032494501
-0.007362915
-0.004371779
9.05416E-5
-2.4963083E-4
0.001661719
0.0036666957
0.003191425
0.0011232748
-4.6934516E-4
0.003956315
0.0066363527
0.007033016
0.016539574
0.022262137
0.016200189
0.013087617
0.011072992
0.005873054
0.004377728
5.111649E-5
-0.00793351
-0.007625013
-0.0028586208
-8.9938694E-4
-6.128556E-4
-0.0024245642
-0.002970576
-0.0011860653
-0.0010199025
-0.0016683314
-0.0039954586
-0.0066921483
-0.0049690567
-0.0028144065
-0.0014807732
0.0022567143
0.0043238895
0.004402275
0.0046346216
0.0024432454
-4.891692E-4
-0.0020754873
-0.0029408727
-0.0038477858
-0.0068804557
-0.008783559
-0.007204528
-0.0057027773
-0.003711565
-8.827988E-4
0.0010041748
0.0017884793
0.0022195927
0.002987927
-8.079881E-4
-0.004950246
5.272401E-4
0.00455593
3.8357356E-4
-0.0013850863
0.0027560901
0.009562936
0.010904728
0.005718223
0.003048396
0.0024586562
9.2771795E-4
-0.0017854304
-0.0023208586
0.0020252017
0.0016079079
-0.0032010665
-0.0023900126
0.0011801028
0.0027507055
0.0012063379
2.1411183E-4
0.002733976
-5.061502E-4
-0.0097106425
-0.010997048
-0.0062116073
-0.0056712404
-0.002510617
0.0047330493
0.0045938953
0.002728542
0.0038325265
0.0011555252
-0.0016768097
-0.0027806447
-0.0018795694
0.0018930712
0.003857782
0.0054989187
0.0045123855
0.0012089729
0.003252526
0.0046626
0.0036121898
0.0038974376
0.001781801
1.6146347E-4
0.0025813999
0.005135938
0.0012802592
-0.0055591534
-0.007414
-0.011309279
-0.0138222845
-0.0067996667
-0.0027154803
-0.0019566978
0.0020435066
0.005061869
0.0065745306
0.003671306
-0.0023309186
-0.004631068
-0.0028982915
8.5706924E-5
-6.9277105E-4
-0.0036137756
-0.0040115183
-0.0011712089
0.0036652635
0.0038776284
0.0028585654
0.005152916
0.0040777186
8.519047E-4
-0.0021453695
-0.0022258528
9.7387313E-4
6.492314E-5
9.132159E-4
0.004505981
0.0020905344
-0.0031167455
-0.0061371783
-0.0033208595
-9.944697E-4
-0.0025991057
6.043004E-4
0.0011957876
3.872676E-4
0.00570725
0.00821992
0.010636909
0.009880266
0.0029981527
0.0020359617
0.0014531536
-9.388837E-4
-0.0022294747
-0.00601319
-0.006660014
-0.008461905
-0.010647214
-0.00559499
-0.002325656
8.108213E-5
0.004171652
0.0038353316
9.982628E-4
-0.0034010534
-0.0073522856
-0.00981467
-0.009413327
-0.0026296023
0.0019765494
0.0021768888
0.0041207606
0.0050335033
0.004176089
0.0039310725
0.0047204616
0.0038101075
-3.830031E-5
-0.0010021111
0.0021244907
0.0047662626
0.0039609745
0.0014155185
7.2408846E-4
0.0014042744
0.0033028517
0.003249481
-7.1837433E-4
-0.0024793958
-0.0018521061
-0.0015254078
-7.702436E-4
-6.499223E-4
-8.251797E-4
-5.1650155E-4
-4.300667E-4
-6.212477E-5
0.0029345837
0.0043819896
2.0684284E-4
-0.0012187792
-4.919622E-4
-0.003113745
-0.0034144702
-9.742382E-4
0.0020986334
0.002424147
-2.0639128E-4
-9.849158E-4
-0.0060679396
-0.0084153805
-0.001147227
2.1475041E-4
1.440128E-4
0.0039986437
0.0010834623
-0.0013984813
0.001881597
0.002853359
-1.2435693E-4
-4.412942E-4
0.003163118
0.002579561
3.7236696E-5
0.0014664159
0.0031127767
9.971074E-4
-0.0051186336
-0.0068558534
-0.0019938473
-1.7488006E-4
-0.0010618602
-0.0012591389
-0.0019160195
-0.0016261911
0.0016363456
0.005630327
0.0045810835
8.712377E-4
-0.0015081295
-0.0032915059
-0.002766375
-0.0031110002
-0.0034964953
9.3468657E-4
0.0042437734
0.0046220194
0.005324319
0.0046439236
0.0020820997
8.800592E-4
0.004016746
0.0059682033
0.003699791
0.003851029
0.004255511
-0.0013498308
-0.009740783
-0.01393463
-0.012232435
-0.008828917
-0.0054033175
-0.0034039463
-0.00256526
0.0014334775
0.0039910595
0.00217428
0.0016461315
0.0013650928
7.192223E-4
0.0013474681
-4.9845014E-5
-0.0015457149
3.3991132E-4
0.002187602
0.0026813936
0.0034437135
0.0030323297
0.0017266253
0.0021191007
0.0036163493
0.00596542
0.007706498
0.0063427207
0.0050552166
0.0026569595
-0.0029982887
-0.00585677
-0.006854908
-0.007504531
-0.00373778
-3.2736713E-4
-6.8210514E-4
-3.2047572E-4
0.0014964372
0.0019206187
6.465844E-4
-0.002287656
-0.006696241
-0.006490473
-0.002978386
-0.003958544
-0.0042955517
-0.0021793211
-0.001912596
-7.35475E-4
-1.8119876E-4
-0.0015779061
-0.0018370643
-0.0010573239
-4.85553E-4
0.0012065115
0.0057354723
0.007091057
0.0047679795
0.0044547818
0.0017373695
-0.0011280645
-5.3589675E-4
6.331474E-4
0.0049531306
0.007076094
0.0064572715
0.009489398
0.010005818
0.008314143
0.005398687
-0.0030146262
-0.009627798
-0.01049585
-0.0085171955
-0.0060344883
-0.006043648
-0.007095643
-0.006218524
-0.0018597366
0.0017426757
-8.772664E-5
-0.001994717
-0.0023938979
-0.0033618738
-0.002073579
-3.363795E-4
0.0010646664
0.0036315885
0.001840449
-0.0027435853
-4.357693E-4
0.004848081
0.0046837823
0.0028178012
0.0023774663
0.0024303084
0.003217753
0.0023491767
8.4124104E-4
9.4849244E-4
6.115935E-4
-2.7780724E-4
-0.0026849557
-0.004111244
1.0802084E-4
0.0016418464
-0.0036953983
-0.0054498618
-0.0011800075
0.0024064232
0.0034496458
0.0040408196
0.002873552
6.5347E-5
4.325455E-4
0.002118361
0.003097165
0.0044633043
0.0029366948
0.0028495518
0.004065155
-0.001239874
-0.0059126867
-0.007911558
-0.010200056
-0.005072555
0.0015370136
0.0014114921
-6.2537595E-4
-0.0041669477
-0.0063027935
-0.0037007118
-0.0024120028
-0.0016251412
0.0025330535
0.004408668
0.0023199483
0.00100682
6.8597856E-4
-9.995163E-5
-1.2631158E-4
0.0022352457
0.0036373246
0.0012658518
0.0012322853
0.0034967414
0.0029362724
0.003929233
0.0077738445
0.010252008
0.008479151
0.0027725846
-0.0018390293
-0.005834862
-0.010092978
-0.010980178
-0.008881153
-0.0059281224
-0.0047655483
-0.0032406384
0.0015910517
0.0050228415
0.0056198006
0.0048584347
0.0037411903
0.0023163927
-0.00217649
-0.005890647
-0.004864953
-0.0021278209
1.0928962E-5
0.001107352
0.0012973007
-1.5775289E-4
-0.0021631438
-0.002917825
-0.0025674466
-6.583144E-4
0.0012702399
0.002496123
0.0023887246
6.8235927E-4
3.837944E-5
-5.365081E-4
-1.680131E-5
6.697401E-4
-0.0012582759
-9.680881E-4
3.942378E-5
0.0014759474
0.0052459156
0.005297171
0.003837275
0.0019109284
-9.999407E-4
2.6812172E-4
0.0028910926
0.0049240543
0.0059872577
0.007550264
0.009473371
0.0029659423
-0.005549618
-0.008357151
-0.009983277
-0.009272785
-0.008221858
-0.0072213905
-0.0053171725
-0.0047392147
-0.0023080022
-7.7727495E-4
-5.8815005E-4
8.2450727E-4
8.5823696E-5
-1.2093E-4
-2.3542049E-4
-0.0017871883
-8.8772265E-4
0.0010330365
0.0015990849
0.0014866354
0.0038545935
0.006103835
0.003766588
0.0017443724
0.0013509197
0.0021839645
0.0037548472
0.0036315622
0.0048747193
0.0033419034
-0.001832742
-0.0024147043
-0.0018198405
-0.0024382772
-5.992172E-4
0.0016546964
6.013031E-4
-0.0024890986
-0.0027337326
-0.002963464
-0.0061923135
-0.0072410293
-0.004531516
-5.520214E-4
0.0020841858
0.003480464
0.005189983
0.005244964
0.0034063365
0.0026635525
0.0040747505
0.0033447598
3.633862E-4
5.2728865E-4
-0.0011334075
-0.0055536656
-0.004004088
3.7910053E-4
0.0018934482
0.0018475848
0.0011999357
-7.3719834E-4
-0.0035092146
-0.0033829755
-0.001459084
-0.0010562513
-2.8438028E-4
0.0011801482
0.0012347538
-0.0014736168
-0.004268309
-0.0043313703
-0.0039475216
-0.0023336126
6.3716265E-4
0.0021469246
0.0039079343
0.0054377317
0.004168042
0.0023707014
0.0037099693
0.00527615
0.0017451475
-0.001720546
-0.0021798243
-0.0037444807
-0.0024923654
0.0010403404
8.702242E-4
-5.0606115E-5
-3.6986824E-4
-0.0015553654
-0.0011293596
4.8538938E-4
1.9302965E-5
-6.8694714E-4
0.0013215258
0.002527851
0.0017473701
-8.864775E-5
-0.0045867795
-0.0063320436
-0.0033514479
-8.6806086E-4
0.0015180057
0.0034222987
0.005479071
0.0078045772
0.0055995965
0.001457177
-0.0014862107
-0.0027494242
-0.002426216
-0.004332512
-0.00432112
-0.0025276535
-0.0041119256
-0.0025741914
3.4355166E-4
-2.5003485E-4
3.211718E-5
3.5352254E-4
-1.073009E-4
-0.0016805076
-0.002255522
0.0022260756
0.004535401
0.0030747692
0.0032041906
0.0026159752
0.0013682019
2.3231147E-4
-8.2491315E-4
-8.534098E-4
-0.0013978311
-9.4052E-4
0.001326896
0.003674924
0.0037410413
-1.8694176E-4
-0.0017957028
9.70229E-4
8.3598925E-4
-0.0014710961
-9.63051E-4
2.6167263E-4
-5.3724577E-4
-0.001366442
-0.0013129796
-9.2581013E-4
5.332709E-5
-0.0010764825
-0.0033687023
-0.0029519163
-0.0014551379
6.3885585E-4
0.0026268077
0.0036974654
0.0048850365
0.0020409059
-0.002167075
-0.00234037
-0.0032691124
-0.0035860906
-0.0010090887
-6.032064E-4
-0.0010969313
6.3221453E-4
0.0027732402
0.0026639823
8.18719E-4
-0.0015052728
-0.002991257
9.865395E-4
0.0056965137
0.0040813535
0.002310132
0.0018250815
4.1025694E-5
-9.435385E-4
-0.0033278617
-0.00596613
-0.0047153393
-0.0024316579
-0.0019051846
-8.198801E-4
0.0015409513
0.003717741
0.0065435516
0.005828886
-5.595619E-4
-0.004352396
-0.0044995947
-0.0033253075
-3.2116668E-4
0.0015358148
0.004556348
0.0086448165
0.008976896
0.005213287
-0.0016901603
-0.0062321406
-0.0063809273
-0.0050844643
-0.0024059443
2.6084226E-5
0.0030432353
0.004282519
0.0019378759
-0.001700338
-0.008794556
-0.008723765
-0.0014644112
-0.0028610483
-0.002081485
0.0038357156
0.0032624688
0.0015598354
-3.708814E-4
-5.4878247E-4
0.0011551796
-7.1796554E-4
0.0015022102
0.004775551
0.002125843
-4.3273883E-4
-7.993004E-4
0.0014107493
0.0027140041
0.003399276
0.0054229563
9.6886634E-4
-0.004317301
-0.0044308887
-0.0048423065
-0.003728111
-0.0024661205
-7.9699716E-4
0.0031479015
0.0034962404
0.0021145695
0.001043168
-6.426794E-4
-5.0314923E-4
-2.2492759E-5
5.4391834E-4
0.0011451775
0.001520577
0.0018504333
3.075574E-4
6.760195E-5
-4.9190875E-4
-0.004032668
-0.003428681
0.0011199651
0.0040258197
0.0031852345
-0.001426582
-0.006779263
-0.009570639
-0.0042387564
0.0037366934
0.002052772
-0.0024664775
-0.0023433378
6.809165E-5
0.003389569
0.004151783
0.0051645865
0.0065644896
0.0027703857
-8.909167E-4
-0.0025149237
-0.0043534925
-0.002801843
-5.529301E-4
3.1480403E-4
0.003209614
0.0057029338
0.0058449474
0.006084968
0.0036922703
-0.0027515881
-0.0068967454
-0.007135337
-0.0051943944
-7.401758E-4
0.002327549
0.0017436661
-0.0010876842
-0.0034860785
-0.0018667118
-7.5404166E-4
-0.0037718422
-0.0047725826
-0.0036368233
-0.0041279253
-0.0023516754
0.0012457204
0.0011344501
0.0014179688
0.0041672206
0.0033984089
0.0018325478
0.0023056406
0.0014154162
3.7272333E-4
8.559066E-4
0.0024967953
0.002950891
0.0025128464
0.004452816
0.005173247
0.0058478513
0.00850354
0.006762745
0.0045069386
0.0045529213
9.1536663E-4
-0.0048198975
-0.009240997
-0.009117287
-0.006564676
-0.008513203
-0.008848537
-0.0040460923
-0.0022484541
-0.002886944
-0.0021057543
-0.0030509415
-0.0051337187