-0.0028974453
-0.0030342524
-0.004056494
-0.0036208557
9.860237E-4
0.0072884294
0.009412639
0.0055288016
0.0039563663
0.005170344
0.0048444313
0.004956035
0.0042014034
0.0028984568
-6.3121034E-4
-0.006931067
-0.00847181
-0.007404585
-0.0058530015
-0.0011590754
9.944439E-4
1.6721404E-4
2.0745519E-4
6.1131024E-4
5.6809525E-4
-4.3468305E-4
-7.562325E-4
-8.091931E-4
-6.230996E-4
0.0015884404
0.0028342765
0.0021668263
6.469809E-4
-0.0012110128
-9.928085E-4
5.0372168E-5
4.7123744E-4
0.0012632873
0.0015204988
0.0017796344
0.0032852772
0.0041280244
0.002610884
5.45639E-4
1.9612517E-4
5.8128935E-4
2.0132304E-4
2.0660248E-4
8.3944347E-4
1.1138006E-4
-0.002467456
-0.0065396116
-0.010007708
-0.009594201
-0.0070171626
-0.0048911376
-0.0032166615
-0.002347103
-0.0021643443
-0.0023835886
3.735728E-4
0.0061819903
0.007084162
0.004031076
0.0032060258
0.0027918448
0.001245232
-4.221467E-4
-6.389636E-4
0.0014073447
0.004118348
0.00572238
0.0049943747
0.0056115175
0.009667604
0.011480716
0.009483935
0.0053797867
8.095324E-4
1.1821147E-4
0.0014225091
-2.57593E-4
-0.0037673297
-0.006926604
-0.008475211
-0.006508685
-0.0032672323
-0.0035400512
-0.0054669585
-0.005435019
-0.0050814445
-0.0054291757
-0.0072145397
-0.009718076
-0.009300497
-0.007562744
-0.0062382827
-0.0037734683
-0.0033724466
-0.00518911
-0.0037306233
-0.0013829134
-0.0018586788
-7.7110477E-4
0.0015781751
0.0026329753
0.0040052836
0.0031223919
0.0014604436
0.0029472038
0.006190685
0.012502675
0.01668672
0.014650286
0.014206088
0.013041959
0.00865583
0.008323178
0.009151563
0.0048758206
-0.003788185
-0.009784892
-0.0075394064
-0.004492537
-0.0039194645
-3.6739302E-4
0.0015855905
-0.002071848
-0.0041259024
-3.5013966E-4
0.0041562603
0.0021299678
-0.0055158543
-0.0097533045
-0.010569784
-0.012892805
-0.010807467
-0.005580758
-0.0047762846
-0.0029912351
0.0012569184
0.004053806
0.0038108178
-0.0020760107
-0.0029151442
0.003830661
4.6017504E-4
-0.009042754
-0.009090491
-0.0031215413
0.0013516742
0.003565104
0.0063164127
0.0063777734
0.0011006921
-6.10732E-4
2.9833082E-4
-0.0025793877
-0.0038673137
-0.0014501694
0.003896877
0.010519393
0.012846972
0.011723254
0.010157193
0.008919175
0.006771429
0.0024992607
4.5664833E-4
-5.054771E-4
-0.003548718
-0.004475372
-0.0038138498
-0.003140418
-4.3732062E-4
0.0025957243
0.004638559
0.006722601
0.008527593
0.008191331
0.0053579197
0.0012387263
-0.0028186121
-0.0049933237
-0.0057017487
-0.0053138067
-0.004597939
-0.0043324037
-0.0018788996
-6.468848E-4
-0.0029590088
-0.0042237993
-0.0060926233
-0.009158523
-0.012404316
-0.015825868
-0.014044649
-0.009809602
-0.009564489
-0.009081576
-0.005372207
-0.0024477593
-0.0013548965
0.0010805221
0.004265563
0.008173651
0.012967775
0.015067635
0.016881067
0.018635765
0.017665299
0.01489495
0.006171286
-0.003016275
-0.0027106793
0.0019279676
0.004628536
0.0034701999
0.0012640036
9.876514E-4
7.835733E-4
0.001399473
-4.1553995E-4
-0.0053304294
-0.008215915
-0.009958637
-0.010345658
-0.00918295
-0.0070555457
-0.0029574702
6.2571344E-4
0.002166439
8.955062E-4
-4.0066495E-4
0.0013202146
0.0027098118
0.0029302994
0.002726899
0.004866937
0.0082320245
0.0066003166
0.004629512
0.0030360317
-0.0010935372
-0.004641998
-0.009338063
-0.010110693
-0.008964352
-0.012610382
-0.008579751
-0.0011862103
-0.0011702505
1.021344E-4
5.1441242E-5
-0.001970245
-5.8654306E-4
-2.0552262E-4
0.00194423
0.005075624
0.0042546536
0.0035205449
0.0028123106
0.0031274029
0.00543988
0.005944228
0.0057075424
0.0029172916
-2.7866714E-4
0.0027145906
0.0062046107
0.0071364744
0.0067096045
0.003182473
-8.170504E-5
-0.0040169996
-0.00813696
-0.00683131
-0.0038912618
-0.0038173362
-0.0065803984
-0.008521717
-0.0060666185
-0.0037861743
-0.0024229416
-8.274285E-4
-0.00119933
-2.406116E-4
0.0020933182
0.0022290694
0.001766342
0.0032475505
0.004297377
0.0019154964
0.0015714077
0.00412623
0.0026222293
-5.004979E-5
9.739806E-4
0.0028819796
0.0022869648
0.0015340524
0.0030604606
0.0026637358
4.935265E-4
-0.0010834107
-0.0029039248
-0.0035690314
-0.004238192
-0.0040317895
-0.002247521
-0.001857077
-0.0014537054
-0.0021724943
-0.002685177
-8.125678E-4
-8.1471074E-4
-2.5741942E-4
6.770255E-4
5.8248866E-4
0.0038436796
0.0052556456
0.002478599
6.6395535E-4
0.0011418916
0.0028103017
0.0017507878
-2.9641687E-4
-1.8967892E-4
-2.910832E-5
-2.570111E-4
-0.0014495061
-0.0016728075
-0.002339259
-0.0053810016
-0.0040119323
-3.021519E-4
0.0010475423
0.0020076314
9.903511E-4
-6.9390546E-5
3.7976715E-4
0.0011528704
0.0030251094
0.003439135
0.0018380773
-0.0013216691
-0.0040583247
-0.0020373056
5.705347E-4
3.5056582E-4
4.4630858E-4
0.0012161534
0.0010420006
3.379821E-4
3.3207465E-4
-4.8251136E-4
-9.5934386E-4
-4.4395117E-4
-0.001113481
3.4177952E-4
-3.5992367E-4
-0.0053568743
-0.003559727
5.6111754E-4
6.133274E-5
0.0014895365
0.0029312333
0.0015422712
0.0016341866
0.0038988946
0.005059642
0.003751175
0.0022603655
8.5884903E-4
-6.748073E-4
-0.0018742512
-0.0029257997
-0.0022591462
-0.002213811
-0.0034734283
-0.001974491
-5.34496E-4
-0.0017146473
-0.0025467398
-0.0021184578
-0.0011416008
-0.001100868
-0.001727662
-6.843955E-4
7.3307904E-4
7.7202375E-4
8.81194E-4
9.031026E-4
2.0241855E-4
-6.166868E-4
-0.001363214
-7.116711E-4
-4.4785248E-4
-0.0013616721
8.228084E-4
0.003831106
0.0052780546
0.0060719014
0.0042803185
0.0034344117
0.0037775275
0.0012786658
-0.0027761327
-0.0071904957
-0.006671014
-0.0014081261
0.0011103353
0.0028449968
0.004677809
0.004679771
0.0037545078
0.0014799004
-9.147307E-4
-0.003043854
-0.0033203354
-0.0016441852
-6.5976696E-5
0.0019207667
-3.0237285E-4
-0.0035175988
-0.0019257029
-0.002976339
-0.004424813
-0.0030572708
-0.0035444726
-0.0015186287
0.0016387962
0.0014477739
0.0012397593
1.0392359E-4
-0.001755421
-6.4859964E-4
0.0010376077
8.1440806E-4
0.0020813434
0.003308645
8.73754E-4
2.0990352E-4
0.0015337915
0.0011631579
0.0018382511
0.0017332167
0.0010490363
0.0022176676
0.001498496
8.757443E-4
0.002132303
0.0013654579
-3.4331606E-5
-8.4115274E-4
-0.0026801624
-0.0034796349
-0.002425257
-0.0027023226
-0.0031483227
-0.0010152544
4.286268E-4
1.2389854E-4
3.0398942E-4
1.889298E-4
-3.0561534E-4
-8.0948195E-4
-0.0010091253
-1.4077756E-4
5.0522224E-4
8.2654523E-4
0.0015211517
0.0016008653
6.954356E-4
-9.701052E-4
-0.0019813948
-9.4259594E-4
2.6870013E-4
2.358031E-4
6.8118825E-4
0.0018028889
0.0012070924
-2.0793367E-4
4.2830354E-5
2.7333578E-4
2.652979E-4
6.5026025E-4
-5.655398E-4
-0.0015154175
-7.3055265E-4
7.4448384E-4
0.0024510361
9.362106E-4
-0.0018608953
-7.8529696E-4
2.5039984E-4
-0.0012835368
-0.0016660057
8.785378E-6
0.0010226595
1.56196E-4
-3.1656632E-4
3.1314546E-4
2.3386645E-4
-0.0014581424
-0.0030956143
-0.0023101177
-9.953454E-4
-9.510058E-4
-6.6342985E-4
7.638317E-4
0.0020706821
7.7027647E-4
-6.8275735E-4
-1.7838924E-4
-3.802107E-4
-4.7109952E-5
7.112206E-4
7.6693203E-4
0.0010772664
9.999363E-5
0.0010639587
0.003812511
0.0031111762
0.0028421585
0.0034772498
0.0012803053
-2.6964376E-4
-1.6774684E-4
-6.407328E-4
3.1304854E-4
0.0027172551
1.3758377E-4
-0.006732749
-0.008603656
-0.0050425404
-0.0016957812
-9.46347E-4
-0.0012672719
6.643329E-4
0.0027901563
0.0020618471
-4.1115197E-4
-0.001651967
3.816642E-4
0.0010923622
-9.440249E-4
-4.7782352E-4
0.0010165313
8.7751966E-4
0.0011416984
0.0021705576
0.002027949
-1.146929E-4
-0.0012483607
-4.878787E-4
-0.0011605038
-0.002301281
-0.0018690084
-0.0015324194
-6.5604394E-4
0.0014857522
0.0021545338
0.0022015432
0.0026203285
9.142268E-4
-6.993473E-4
-0.001204729
-0.0021592272
-0.0017463078
-0.0019003194
-0.0020069128
0.0012344293
0.0042747403
0.006381808
0.006475176
0.0023733976
4.945598E-5
3.069322E-4
-0.0011166362
-0.0024907559
-0.0021567473
-0.0016415931
-0.0017991557
-0.0010150691
-0.0014967676
-0.00499117
-0.0057748347
-0.0044744415
-0.0041238554
-0.0016981001
0.004063849
0.012172556
0.012848724
0.0035646674
-0.0010362444
-0.0020992076
-0.0054077613
-0.006011173
-0.006378267
-0.0036693274
0.0035484994
0.0059047067
0.004530076
0.0021316537
-0.0013745769
-0.002369074
-0.0018030484
-9.334495E-4
-3.3785863E-4
-3.1257383E-4
6.223481E-4
0.0010543421
-3.9703422E-4
-0.0035062428
-0.0048024496
-0.002576085
-0.0021548907
-0.002522474
1.8350009E-4
0.0024643121
0.0028166485
0.0023935833
0.00278444
0.004236503
0.0030904743
0.0012563562
0.0018412056
7.1252923E-4
-0.0018477959
-0.0014009136
3.2471018E-4
1.126413E-5
-7.848958E-4
7.0265814E-5
3.3947374E-4
-6.5222883E-4
-1.7951148E-4
9.992117E-4
7.942372E-4
-3.3298272E-4
-0.0011519231
-0.0021410468
-0.0036909555
-0.0028983466
-8.30792E-6
0.0014199188
9.410637E-4
-5.0693296E-5
0.001055537
0.0031058213
0.002645751
8.523474E-4
-0.0010924162
-0.0018727956
-0.001623358
-0.0014832804
-6.2870106E-4
-8.4761763E-4
-2.4939937E-4
0.0011764533
0.0011028454
0.00280582
0.0014915942
-0.0011536705
-4.946092E-4
-0.002813748
-0.0021127006
-0.0040615723
-0.012127511
-0.0062688496
-3.718862E-4
-0.0039425655
0.0015069778
0.00524619
0.0024343499
0.0027024103
0.002545272
0.0026406974
0.0012074396
1.3703741E-4
0.0035199095
0.0044029388
0.004110185
0.00505537
0.003906431
0.0030178805
0.0031081086
0.0022343036
8.678632E-4
0.0017354459
0.004626511
0.0046533505
0.0012980168
-0.0012344238
-0.0019500053
-0.0037240684
-0.0060524037
-0.005918827
-0.0041578403
-0.0029206509
-0.0025968465
-8.591524E-4
8.9516875E-4
-7.166465E-4
-0.0016646689
-0.0011544969
-0.0011045035
-0.0011909632
-0.0032179917
-0.0028451653
-2.7805642E-4
-0.001796362
-0.0045880815
-0.0061565717
-0.0043364307
-9.369619E-4
-0.00169016
-6.393468E-4
0.0034304375
0.0054282513
0.006658975
0.006278284
0.004649543
4.6517237E-4
-0.0054094694
-0.0036279873
0.0027261414
0.004652703
0.0037097074
0.0033027825
0.0038943274
0.0021194157
-0.0016117796
-0.0020048898
7.039061E-4
0.0026707877
-0.0010346856
-0.006746214
-0.004313715
0.0013724535
0.004834047
0.010951506
0.01618252
0.013592575
0.0037882964
-0.0064928546
-0.010009351
-0.0036527961
0.009450612
0.014537911
0.007523681
3.1048316E-4
-0.009644571
-0.020985223
-0.022127578
-0.018060599
-0.013158062
-0.007666886
-0.006277188
-0.0071115876
-0.007981488
-0.0068309517
-0.004717839
-0.008104891
-0.0115936035
-0.009431838
-0.0070265573
-0.005117223
-0.0014126899
0.0041330145
0.013092748
0.022652185
0.027108926
0.028958699
0.031960372
0.032112792
0.02786739
0.022440672
0.01705719
0.01130058
0.0039351336
-0.0035084526
-0.009336248
-0.016013434
-0.021912966
-0.024869714
-0.026159469
-0.02193557
-0.013553653
-0.008246689
-0.005847746
-0.0076201465
-0.011687518
-0.009295505
-0.0023201327
0.0014247567
4.362789E-4
1.8964398E-4
0.0021465432
0.0019067706
0.0038979782
0.0053158146
-0.0017031413
-0.0060293637
-0.0013357681
0.0055825403
0.01106199
0.014680737
0.01594749
0.009477611
-0.002307915
-0.0074545965
-0.0021343075
0.0027390858
-0.0020110349
-0.0035671033
-0.0018393182
-0.0071615735
-0.007676867
-0.005265797
-0.004834213
-0.0022763973
-6.7653635E-4
0.00502698
0.007844155
0.011759018
0.023205372
0.01960547
0.018874161
0.029121589
0.018109659
-0.002720861
-0.022174064
-0.035989553
-0.032631274
-0.027107967
-0.018477311
-0.006949252
-0.0041285194
0.0012190003
0.008295965
0.009361762
0.009461384
0.013282841
0.015705384
0.011285996
0.011568691
0.005677972
-0.01741159
-0.025491811
-0.016524952
-0.017011326
-0.021273127
-0.018894162
-0.01562126
-0.012673813
-0.0043747434
0.0026898545
0.005517129
0.009923281
0.004537721
-0.005667251
-0.0042699906
-0.003975479
-0.0048454814
0.0039616716
0.010116756
0.009067078
0.0066478387
0.0025509698
0.0036511738
0.011288237
0.009433124
6.4921856E-4
0.0048542237
0.015196282
0.018049836
0.016779274
0.016979322
0.021473
0.018687101
0.0034136388
-0.009250795
-0.014048633
-0.013830501
-0.018858466
-0.03338254
-0.043889068
-0.048577942
-0.040331617
-0.02016265
-0.011065787
-0.0016877031
0.009570665
-0.0018569281
-0.021229452
-0.034424767
-0.04295896
-0.041302513
-0.035154797
-0.0237864
-0.008756332
-0.0029859513
8.894676E-4
0.013188926
0.028519753
0.039359633
0.043096587
0.044026636
0.04182819
0.032058693
0.017124807
0.0067370837
0.008713423
0.007016508
-0.0037162865
0.0037555604
0.02154019
0.032731365
0.05166785
0.06414569
0.060047515
0.049922626
0.03098524
0.018804703
0.010985699
-4.6622005E-4
-0.004415551
-0.025159556
-0.040242415
-0.007863717
0.023612589
0.021570275
-0.009807291
-0.06125595
-0.08798044
-0.07424602
-0.041098543
-0.013977676
-0.010003496
-0.011512168
-0.00430042
0.009064283
0.015260983
-0.0071921926
-0.04988608
-0.08009679
-0.075491376
-0.07081645
-0.1077583
-0.13891718
-0.1260555
-0.10791099
-0.10248987
-0.07117325
0.01007179
0.10018922
0.15655942
0.17052206
0.15962276
0.1897749
0.25210723
0.21618116
0.073491886
-0.035317298
-0.050873492
5.395868E-4
0.06665293
0.10237165
0.16622378
0.25366166
0.23758261
0.14440782
0.054444697
-0.053806826
-0.15864678
-0.23247753
-0.2647089
-0.26940495
-0.33595324
-0.41461024
-0.3467448
-0.18598558
-0.10577393
-0.087125845
0.016626414
0.18956687
0.2890089
0.2647871
0.18080029
0.09349095
-0.03257654
-0.15052962
-0.11936738
0.008985918
0.12073932
0.23185062
0.33239707
0.34094712
0.18956405
-0.041112825
-0.20531942
-0.28401008
-0.22467239
-0.048507236
-0.008059541
-0.14515145
-0.21193872
-0.087350905
0.06688267
0.058286615
0.05069019
0.21531203
0.27844682
0.09416677
-0.098754995
-0.186596
-0.20465772
-0.12068341
0.07159428
0.25903666
0.27993345
0.10373639
-0.07466573
-0.091896534
-0.060764845
-0.04336667
0.05412467
0.08136029
-0.0833525
-0.23329145
-0.2727644
-0.2572073
-0.18207581
-0.08633259
-0.008157976
0.078253016
0.18789005
0.2889952
0.33808705
0.28517702
0.09200105
-0.101309575
-0.1416262
-0.109638356
-0.0639142
-0.019155145
-0.03972737
-0.05387366
-0.018084506
0.0073090415
0.05954811
0.121789254
0.08602446
-0.0057135257
-0.031095529
0.004096957
0.016338138
-0.03395038
-0.11310837
-0.13504037
-0.091348246
-0.047056496
-0.008172732
0.014494647
0.023113055
0.044899244
0.021796947
-0.03403704
-0.03684946
-0.0135073
5.0808E-4
0.0074227387
0.001286612
-0.009590295
-0.023146054
-0.02388051
-0.01535391
-0.016411584
-0.007443717
0.009646145
0.035797827
0.06933863
0.076993346
0.07377804
0.072965465
0.07001368
0.07408771
0.06188583
0.03274283
0.007946627
-0.012730978
-0.019210432
-0.01952448
-0.032941923
-0.05037877
-0.05401377
-0.04561536
-0.035537302
-0.017368805
-0.0038268708
-0.0038475448
0.003587939
0.0075055864
0.0044011446
0.009046265
0.007866659
0.0020279689
-0.0025911424
-0.007759383
-0.00788604
-0.0072955815
-0.005836936
-0.007199946
-0.013984765
-0.016849404
-0.01617331
-0.010650841
-0.00412051
-2.9033028E-5
0.0068381657
0.009714253
0.007542769
3.9036892E-4
-0.010714672
-0.013319994
-0.008729615
0.0016746063
0.013661283
0.01389021
0.010428004
0.012256172
0.015650548
0.013653464
0.0013682351
-0.0052833306
7.3604385E-4
0.0055128383
0.008061343
0.010110934
0.009628278
0.009920979
0.011036121
0.008761502
0.0013236514
-0.004121211
-0.003604478
-0.0030529269
-0.0031166144
-0.003183146
-6.726582E-4
0.006201956
0.007580171
0.0040672575
-1.823817E-4
-0.0077996524
-0.007997175
-0.0033942931
-0.006898899
-0.008319215
-0.0054997616
-0.004387843
0.0016145913
0.008247818
0.008398882
0.0075756763
0.0096821245
0.012988289
0.014415145
0.0145586915
0.016842771
0.020019872
0.019133288
0.014159623
0.009824476
0.0055635856
0.0013939567
6.2463334E-4
-4.6983265E-4
-0.0017763923
2.4942626E-4
0.0010970865
1.0649278E-4
-0.001983113
-0.0068986146
-0.010718076
-0.012456275
-0.012398883
-0.010379767
-0.010311856
-0.009022446
-0.004193585
-0.0018982573
-0.004516656
-0.0113157295
-0.01810322
-0.021844836
-0.025392978
-0.02681824
-0.025555132
-0.024192827
-0.020788023
-0.017146328
-0.01582911
-0.014985883
-0.012604554
-0.0077186786
-0.0014302324
0.0061353184
0.014627005
0.024783088
0.03649842
0.042994414
0.043950863
0.04334252
0.04248099
0.044696514
0.04738825
0.051155534
0.05740025
0.059951663
0.0648029
0.072626926
0.06736344
0.046577524
0.02186057
-0.0011921437
-0.02983644
-0.06226911
-0.08048313
-0.08271051
-0.078746326
-0.07252547
-0.06897923
-0.068095006
-0.06559987
-0.06191359
-0.058830637
-0.052409783
-0.040309884
-0.029151833
-0.018715719
-0.0071203858
-3.305808E-4
0.004350116
0.01145878
0.019032737
0.024298253
0.027411664
0.034515116
0.04341113
0.049386207
0.053803273
0.050638285
0.040774006
0.031986836
0.02566665
0.023495127
0.020545473
0.01544226
0.014407923
0.014062923
0.013161619
0.01210249
0.007821109
0.004267468
0.0027265337
6.835407E-4
-9.057571E-4
-0.0015325797
-0.0014283786
6.4209185E-4
0.0045084297
0.0041358694
-0.0017648434
-0.010099271
-0.022983177
-0.034647696
-0.039314643
-0.039861318
-0.035313535
-0.02898631
-0.023903633
-0.018931473
-0.019302223
-0.022252943
-0.020574223
-0.016326666
-0.010979142
-0.0050441665
8.1951765E-4
0.008409937
0.015240387
0.01609851
0.012378228
0.009533228
0.009951993
0.012894476
0.015336749
0.016939633
0.019440211
0.02171722
0.023540646
0.021185514
0.012841988
0.006456433
0.0032981369
6.779312E-4
2.8927962E-4
0.0012667537
0.003459857
0.006195525
0.008207623
0.007479807
0.0015810652
-0.0038456947
-0.007334124
-0.011236233
-0.010065231
-0.0060474393
-0.0038246973
-2.8631373E-4
0.0022697758
5.5629335E-4
-0.0034224924
-0.0071366206
-0.007846918
-0.005699701
-0.0042508375
-0.00383418
-8.3573523E-4
0.0048828344
0.0088588735
0.008233186
0.0039746696
-6.646998E-4
-0.0028257738
-0.002229326
4.642339E-4
0.0038138416
0.0051432434
0.0063433996
0.008878532
0.007224388
0.0031672758
0.0012021917
-0.0014035519
-0.0017080851
-7.499793E-4
-0.0029831773
-0.0015027726
0.004142247
0.007255898
0.0054288455
9.888593E-6
-0.00290574
-0.004304311
-0.0066911913
-0.005599281
-0.0018716803
0.0017921168
0.0042470666
0.0054420917
0.0054876395
6.725691E-4
-0.005041714
-0.0050840345
-0.0028800836
-0.0020029028
-0.0024158736
-0.0020158058
0.0010867045
0.0043598316
0.0047793356
0.0012895892
-0.0039885985
-0.0064850445
-0.0046578026
-0.0019298934
-0.0014117596
-4.0765415E-4
0.0038670306
0.00816319
0.0078312345
0.0031824235
-0.0016011749
-0.003792862
-0.002806403
-0.002768747
-0.0056455852
-0.0033386147
0.003443043
0.005909977
0.0050588776
0.0021178205
-0.0018505723
-0.0029106888
-0.0024324537
-0.0019257853
-0.0015245973
-1.2921961E-4
0.0036452825
0.005586268
0.004083997
0.0011563165
-0.0027467445
-0.0044749407
-0.003331715
-0.0025215123
-0.0020842457
1.2205156E-4
0.004402362
0.0063586487
0.0037318857
4.1747073E-4
-0.0026925446
-0.004965805
-0.004416889
-0.003723832
-0.003183139
-8.8208984E-4
0.0019828468
0.0041160607
0.0032948544
2.374769E-4
-0.0013515069
-0.0024231402
-0.003833443
-0.0042160847
-0.0034713505
-0.001135786
0.0017897517
0.0037206255
0.0043204417
0.0025946847
-0.0017948205
-0.0059473086
-0.0055351295
-0.0025734918
-0.0013542281
3.052048E-4
0.0024580362
0.002889305
0.0030947118
0.0021931517
-6.788245E-4
-0.0027888909
-0.0026180584
-0.0011060997
-4.9860124E-4
-0.001435821
-7.601302E-5
0.0047882902
0.005190769
-4.0837127E-5
-0.002153668
-0.0028026006
-0.004381675
-0.002888328
-0.0012839518
2.3119779E-4
0.0034202996
0.0046087527
0.00417141
0.0025835158
1.0180933E-4
-0.0011821002
-0.0023081675
-0.0024011154
-0.0016399907
-0.0020599938
-0.0011014916
0.0018475868
0.0029721276
4.211911E-4
-0.002379444
-0.0028597894
-0.0034369347
-0.0034864452
-0.0023714183
-0.0017761206
4.303447E-4
0.0027066367
0.002064428
7.428878E-4
-0.0017747247
-0.0040705316
-0.0019702336
-4.1887618E-4
-0.0022967865
-0.0013952716
0.0014514609
0.002179913
0.0027827288
0.0016716699
-0.0016300783
-0.0020752694
-0.0015733824
-0.0024599168
-0.0012041838
6.3541107E-4
0.0015927625
0.003806391
0.0042421906
0.0012583295
-0.0012269042
-0.0015170858
-0.0011697492
-0.0018770001
-0.0023522906
-0.0012821996
4.4878866E-4
0.003921207
0.0062020957
0.0032684016
-7.6639175E-4
-0.0031518266
-0.0037041742
-0.002181777
-0.001148754
-7.1443214E-6
0.0018605319
0.0034384127
0.0047072447
0.0026673588
-0.0017566849
-0.003828488
-0.0030208018
-0.0011910322
-0.0013114978
-0.0030470518
-0.0027446311
1.3962947E-4
0.0021021217
-4.4933244E-4
-0.003706092
-0.004253711
-0.0048585664
-0.0034799809
-4.969774E-4
-1.9781511E-4
4.75354E-4
0.002208946
0.0026562135
0.0024297533
-1.2760804E-4
-0.002553223
-0.0013506017
-6.218298E-4
-2.283911E-4
0.0011693127
9.1935194E-4
0.0032610784
0.006109325
0.0020460582
-0.0015512723
-0.0013500972
-0.0022519736
-0.0015426124
-3.6360588E-4
-2.1630818E-4
0.0018883446
0.002842884
0.0016010058
6.9459307E-4
-2.3792373E-4
-8.551628E-4
-8.591762E-4
-0.0011190067
-0.0016094096
-7.014109E-4
0.0013411838
0.0017942021
0.0013251246
0.0011929767
-2.904758E-4
-0.0029939732
-0.003823661
-0.0026869394
-0.0020437522
-3.8887246E-4
0.0013665684
7.8051724E-4
9.112112E-4
8.7277807E-4
-0.0010218098
-0.002982791
-0.004351398
-0.0033525897
-0.00241396
-0.0020986125
4.4669452E-4
0.0019139595
0.0028941382
0.0024850455
-0.0015301625
-0.002469147
-0.0019528832
-0.0023285681
5.483721E-4
0.0020346646
0.0011820705
0.0015500208
0.001715118
0.0023452165
0.0027405762
0.0018071836
0.0015634929
0.0014957794
0.001266993
0.0016305553
9.7074645E-4
-2.5611403E-4
-4.0853696E-4
-0.0013765665
-0.0022846237
-0.0021360302
-0.0034386208
-0.0032123048
-8.149251E-4
2.4523056E-4
9.209535E-4
7.3444354E-4
0.0017719172
0.0029119272
-0.0018843311
-0.0047910665
-0.001774629
-9.1619993E-4
-0.0015006721
-0.0010194673
-4.4031223E-4
3.8925486E-5
-6.859403E-5
-3.3851506E-4
-0.0011150237
-8.2907046E-4
4.5973957E-6
-9.986147E-4
-8.5067574E-4
-2.680442E-4
-2.3454959E-4
0.0016948181
0.003058982
0.0037200048
0.0038741727
0.001647405
-4.4904056E-4
-0.0022053951
-0.0036405327
-0.003202679
-0.0011815953
0.0036523247
0.00646552
0.002838304
4.7575892E-4
0.0022670184
0.0026254067
-1.3123844E-4
-0.0037925008
-0.0055852574
-0.005642798
-0.0038538806
-3.3576268E-4
6.340054E-4
-1.8077643E-4
-3.0021195E-4
-0.0012989813
-0.0010957388
3.7419016E-4
9.431185E-5
-4.8149828E-4
7.7578676E-4
0.0029424953
0.0023640727
-6.166201E-4
-0.0021648207
-0.0024266583
-0.0013613829
-5.2361086E-4
-7.585603E-4
0.0015334387
0.0031912832
0.002020759
0.0018005326
0.0014399212
2.6472978E-4
-8.7671285E-4
-0.0024700374
-0.0034779918
-0.002724184
-3.3725414E-4
4.3273586E-4
-5.056307E-5
9.65339E-4
3.5056233E-4
-3.1614906E-4
7.2874944E-4
-5.432065E-4
-6.6373276E-4
0.0016257265
0.0016909414
0.0015836165
0.0024130153
0.0020479066
6.4696156E-4
-8.116618E-4
-5.966E-4
3.1546652E-4
-4.2287557E-4
-9.529323E-4
5.116584E-4
0.0013489622
2.1877624E-4
-3.5520614E-4
-0.001143823
-0.003111173
-0.0031470042
-0.0027402935
-0.002785763
-9.0592244E-4
-7.707675E-5
1.4297916E-4
0.001975755
0.0018580745
3.761073E-4
-8.516747E-4
-0.0015297593
-1.6059862E-4
1.2637812E-4
-7.468148E-4
-3.920594E-4
3.171028E-4
0.0021832064
0.0022061127
2.0599362E-4
2.700074E-4
-0.0010808671
-0.0021148697
-3.4728466E-4
-0.0010060088
-0.0010780095
8.6619664E-4
8.593895E-4
0.0013542959
0.0019022881
8.392004E-4
5.130095E-4
2.94909E-4
-0.0010908623
-0.0024198852
-0.0015173896
0.0013805904
0.003131808
0.0033268877
0.002152145
-0.0018281891
-0.0042882855
-8.9619216E-4
0.0018682108
-5.3879005E-5
-6.311362E-4
0.0015081036
0.0020403247
1.4003231E-4
-0.0013520726
-0.0012845136
-0.0017743697
-0.0018298584
-7.993687E-4
-7.785906E-4
8.3374165E-5
0.001651058
0.0016386608
6.8600674E-4
-0.0010344663
-0.0020784026
-0.001528007
-3.088286E-4
6.5550354E-4
3.255228E-4
5.721967E-4
6.1965385E-4
-3.4820643E-4
0.001127472
0.0013236302
-8.549797E-4
-6.000136E-4
-0.0010467818
-0.0014086522
8.9822523E-4
0.0011737917
7.6538086E-4
8.7078783E-4
-0.0010087953
-0.001499098
-7.6615246E-4
-0.001162778
-4.7933738E-4
2.8601044E-4
7.1714463E-4
0.0019458764
0.0013964373
5.664737E-4
0.0018531418
0.001782412
-2.2617265E-4
-0.0011729032
-9.308722E-4
-0.001090178
-0.0014100653
-4.6201094E-4
0.0010206889
0.0016445058
2.5603466E-4
-0.002808258
-0.00339941
-0.0015630574
-0.0010470076
-0.0013403306
-0.0014307832
-8.0586906E-4
-2.3683842E-5
2.4652158E-4
0.0017390149
0.001943625
6.937437E-4
8.983152E-4
-6.404988E-4
-0.0015066133
3.1869143E-4
3.742704E-4
0.0016247262
0.003501312
0.002330082
5.246432E-4
-0.0016227682
-0.0019138673
-0.0011129965
-0.0012352071
5.052829E-4
3.3282954E-4
2.2840452E-4
0.0030019304
0.00191995
5.2660774E-4
-1.2762194E-4
-0.0023214172
-9.919325E-4
-4.8319984E-4
-0.0015254307
1.2971651E-4
0.0014901576
0.0020209248
3.1652616E-4
-9.535092E-4
2.6099329E-4
-0.0010930916
-0.0019164424
-0.0023415573
-0.003332487
-5.726338E-4
5.1376235E-4
6.7274214E-4
0.002499659
2.281511E-4
-0.0018868786
-0.001606272
-0.0025586279
-0.002537581
-0.0016120537
-1.059625E-4
0.0026609353
0.0041225497
0.0030048706
0.0012945905
5.328104E-4
-7.387793E-4
-0.001522513
-3.7140056E-4
-2.913073E-4
-5.518493E-4
8.7364396E-4
0.0017499864
0.002271874
0.0028131737
0.0010764067
-9.3705975E-4
-6.758806E-4
-9.079616E-4
-0.001184748
4.7867678E-4
0.0014929507
0.002244714
0.0023338082
-7.5679045E-4
-0.003650302
-0.0037631958
-0.0021541195
-8.4249844E-4
-9.186994E-4
-2.7675007E-4
0.0011713626
0.0027664418
0.0028954279
-3.2959747E-4
-0.0024073173
-0.0020322332
-0.0020681375
-0.0018557955
-0.001034423
1.3562941E-4
4.328753E-4
0.0012362391
0.0032348325
0.0018936683
-4.2922434E-4
-0.0012200003
-0.0024375028
-0.002237172
-0.0015586967
-1.809475E-5
0.0027730966
0.002918142
0.0018188701
0.0011771963
3.9087952E-4
-0.0016512362
-0.0034021959
-0.0013169472
-7.1722205E-4
-9.331074E-4
0.002141062
0.0020914804
0.001412259
0.0017080405
-0.0013404825
-0.0015940035
7.941472E-4
6.314742E-4
-1.1207944E-4
-3.142003E-5
8.903273E-4
0.0013175325
8.687004E-4
3.0929933E-4
-7.1809767E-4
-0.0014272797
-0.0012270096
-2.2015958E-4
-2.2227956E-4
-9.017254E-4
1.8409717E-4
0.0018919848
0.0036835014
0.00232666
-0.0023275819
-0.0028918209
-0.0010142694
5.310388E-5
5.1027536E-4
-0.0011387082
-4.7461528E-4
0.001954001
0.0018172191
0.0012528027
-3.084979E-4
-0.0024388672
-0.0025863808
-0.0015697184
-6.8887236E-4
-7.5170636E-4
1.7144965E-5
0.0014821524
0.001308454
7.3138444E-4
1.8092671E-4
-0.0010640149
-0.0029238896
-0.0033837259
-8.421738E-4
8.1366627E-4
9.7435503E-4
0.0019072426
0.002106604
0.0016881183
8.005001E-5
-0.0013678712
2.385763E-4
8.900926E-4
2.2982423E-4
3.825615E-4
-1.6645416E-5
0.0022060508
0.004476214
0.0014759513
-0.0017777637
-0.0034608901
-0.004660449