-0.0017938624
-5.447405E-4
-0.0015995934
-8.448329E-4
0.0015076635
0.0018150792
0.0011548284
-1.0645656E-4
-0.0019304133
-0.0022922663
-0.0010190541
-6.0856005E-4
-5.699582E-4
0.0016381422
0.004345896
0.0065380638
0.007828926
0.0040211943
-0.0037100639
-0.008129203
-0.008067757
-0.006662126
-0.0041470435
-8.292111E-4
0.0023029635
0.0040010815
0.0030794465
0.0013788901
-0.0010482958
-0.0040876903
-0.0041989833
-0.0026951416
-0.0013007659
7.82386E-4
0.0019114712
0.0031000867
0.0050500496
0.004893584
0.0021755123
-2.581922E-4
-3.9352896E-4
-3.0595055E-4
-5.484623E-4
6.062588E-4
0.002794677
0.0056897616
0.00660739
0.0034395417
-0.0016028944
-0.0058505023
-0.006370756
-0.004616401
-0.0039939117
-0.0033243482
-0.0012087432
0.0021099239
0.0033134536
2.6649193E-4
-0.0028158426
-0.0032298823
-0.003668136
-0.00515782
-0.003844413
-7.800506E-4
0.0011733988
0.0046699718
0.0059280084
0.003235372
0.0015388983
-3.299111E-4
-5.621859E-4
5.841405E-4
-7.845029E-4
2.0946408E-4
0.0037824428
0.005605064
0.005080612
0.0026678524
9.0019865E-4
-0.0012903466
-0.0034349167
-0.0024959024
-0.0011304681
4.2027535E-4
0.0027817253
0.0033585592
0.0017200623
-0.0023420586
-0.0066396995
-0.0062363003
-0.0026732774
-0.0021565212
-0.0031751536
-0.0017328517
-2.6917807E-4
0.001491728
0.0038631896
0.0028378195
-0.0010902315
-0.004348909
-0.0041961037
-0.002001325
-9.045619E-4
-2.5475968E-4
1.3344122E-4
0.001794567
0.005289494
0.0063958284
0.00479271
0.0031862287
0.0021125916
-1.3632093E-4
-0.003439743
-0.0038778048
-0.001151223
0.0027137464
0.0051329555
0.003202458
-5.406015E-4
-0.0027864643
-0.002846436
-0.0030300298
-0.0041866847
-0.0021954572
5.029618E-4
0.0018313513
0.0044034696
0.0037884149
-4.5423458E-5
-0.0020505781
-0.002505615
-0.0015986495
2.5407733E-5
9.682153E-4
0.0011627775
0.0017025978
0.0030305928
0.0019605758
-0.0014808732
-0.00376287
-0.0036917212
-0.0022525245
-0.0015847225
-7.7936554E-4
3.2807357E-4
0.0011942408
0.003399547
0.0028975178
-6.5259717E-4
-0.0019839362
-0.0022765798
-0.002311383
-0.0022672655
-0.0020532296
0.0011865805
0.004360562
0.0043083364
0.0020992905
-0.0010898754
-0.002838734
-0.0031678048
-0.0028019932
-0.0021355096
-0.0025121002
-0.0016658761
0.0016742109
0.0047839475
0.004742669
0.0024359094
0.0026841972
0.0037564493
5.037895E-4
-0.004762184
-0.0062109227
-0.0015700598
0.0037385526
0.0054163286
0.004855349
0.001772607
-2.338852E-4
8.5069094E-4
3.755147E-5
-0.0018994183
-6.7694834E-4
0.00463044
0.007017125
0.0020536766
-7.672623E-4
-0.0027000902
-0.007265462
-0.005600683
-0.003660345
-0.0050537903
-0.0029388461
-0.0016528968
7.872808E-4
0.0049678963
0.0023524736
-0.0031389566
-0.0062171454
-0.0069981157
-0.006081288
-0.004916359
-0.0024128577
-2.0482765E-4
0.0018759712
0.004906832
0.005321325
0.0039105276
0.0016293385
5.492321E-4
0.0027649251
0.0022136169
0.0010487351
0.004527761
0.0077725644
0.009097449
0.007154863
0.0013215414
-0.0027135848
-0.00422151
-0.004121739
-0.0018513019
-5.7305256E-4
-8.312102E-5
0.0018817314
0.0031272105
0.0020081722
-5.364802E-5
-0.0015849707
-0.0030665088
-0.0054370463
-0.007202949
-0.0067212125
-0.003329485
0.0020690595
0.004768118
0.0034385389
2.889929E-4
-0.004686407
-0.0068003917
-0.003951299
-0.0020593188
-5.707286E-4
0.0023686592
0.0041450174
0.0049748835
0.0036049
-2.7206546E-4
-0.002524574
-0.0024400116
-0.002208627
-0.002353531
-0.001383063
0.001597778
0.0049580047
0.0071513597
0.0067818635
0.0030780025
-0.0019079428
-0.004946724
-0.004143447
-0.0023450025
-0.0021434021
1.3239108E-4
0.0039004213
0.0052256756
0.0052410983
0.002813853
-4.083413E-4
-4.5873046E-5
-8.3235995E-4
-0.0040894616
-0.004960559
-0.0033573513
-3.9976978E-4
0.0027359189
0.004316832
0.0011106475
-0.0055513256
-0.006998913
-0.0042088176
-0.0027925186
-0.001489525
3.877897E-4
0.0031255982
0.005765268
0.0071013793
0.005767437
0.001137335
-0.0010384467
-0.0021533654
-0.005369159
-0.004992481
-0.0021258157
0.0020462729
0.006980749
0.006185105
0.0018172765
-0.0012069745
-0.0029729868
-0.0046051047
-0.0058900733
-0.0032409981
8.60956E-4
0.0023718828
0.0035142698
0.004190914
0.0020439222
-0.0023282068
-0.0033852765
-0.0010366732
-0.0022257064
-0.0032054163
1.269705E-4
0.0030179324
0.0050888387
0.0055628754
0.002368823
-0.0010962124
-0.0030013693
-0.004194943
-0.0043890537
-0.003977709
-0.0020668567
0.0017423303
0.0032112277
0.0025218274
0.0021022588
-7.13704E-4
-0.0025806022
-5.7671766E-4
-8.779274E-5
-0.0013694303
9.9978904E-5
0.0038464342
0.0044631707
0.0035103913
0.0045961235
0.0013847491
-0.0035383618
-0.0047259005
-0.0060045314
-0.0036316349
7.243397E-4
0.0018786626
0.0044522476
0.00518279
0.0014019348
-0.0024130114
-0.00441116
-0.0035036206
-0.0031509772
-0.003117793
1.2302933E-4
0.0023742958
0.0034548196
0.005342939
0.003676216
-0.0015030265
-0.0044392296
-0.0041574994
-0.004176397
-0.0034177143
3.3505957E-4
0.0037522689
0.004885364
0.0047148406
0.0027732772
-4.6630055E-4
-0.0030443761
-0.0035580755
-0.0022213997
-0.0011072842
7.361691E-5
0.0032725802
0.0057538142
0.005201449
0.0025984517
-0.0023974327
-0.006318855
-0.0049211998
-0.002657695
-0.002967007
-0.0013821413
0.002232863
0.0036392587
0.004155091
0.0029915203
-0.0013443449
-0.0034018368
-0.0031472645
-0.0037405759
-0.0034960909
-0.0012522073
0.0029807894
0.0053118155
0.003961721
0.0013392231
-0.002626084
-0.0037483675
-0.0014690834
2.7192302E-5
0.002404122
0.0043998444
0.006373291
0.008831546
0.006654529
0.0021657897
-0.0032599967
-0.009375171
-0.009371691
-0.005658938
-0.0037271823
-0.001088346
0.002481059
0.0035443641
0.0013932834
-9.910923E-4
-0.0023273136
-0.0036950435
-0.0038375698
-0.0027358793
-0.0029174734
-0.002355125
0.0011722401
0.004039283
0.0055878423
0.0056208363
0.0020685613
-1.414036E-4
3.6334034E-4
-1.1892984E-5
-2.7480727E-4
6.721392E-4
0.0039561335
0.0062950407
0.0045760246
0.0019850302
-0.0021801095
-0.004548806
-0.0029673546
-0.0037939688
-0.003685701
-6.5258914E-4
3.4156046E-4
5.485255E-4
6.7215465E-4
1.6297687E-5
-0.0014680731
-0.0026843871
-0.0020692232
-0.001958274
-0.0030306506
-0.0025860004
0.0015812594
0.0053798947
0.0034799683
9.927658E-4
-2.3486337E-4
-0.0030507676
-0.0039522876
-0.0026643118
-0.0010284946
9.4440184E-4
0.0026774106
0.004405015
0.005125829
0.0046901214
0.002322419
-0.0011827255
-0.0010546199
1.2818072E-4
-0.0011049756
-7.3792954E-4
0.002519957
0.005524415
0.0043250723
-2.5393482E-4
-0.0036489926
-0.006071233
-0.006029355
-0.0031960742
-0.0031317056
-0.0022248682
0.00187612
0.0018055866
5.379403E-4
0.0017310311
9.87085E-4
-9.4182714E-4
-0.0032236245
-0.0042732107
-0.0019611267
1.17728036E-4
0.002222432
0.004838759
0.005172366
0.0028432964
-0.0014364065
-0.0035878809
-0.004013627
-0.0045815078
-0.0012541752
0.0010737106
3.3027114E-4
0.003755272
0.0065330924
0.0037396236
9.079479E-4
-1.7715107E-4
-0.001349317
-0.0026748867
-0.0036378012
-0.0025188166
0.0011660751
0.0037149347
0.00531735
0.006511669
0.0017649927
-0.003933481
-0.0034468244
-0.0025330125
-0.0026278382
-0.0016856093
-6.184145E-4
0.0017897083
0.0038575695
0.0025270795
-0.0016396792
-0.0040816753
-0.0032902705
-0.0037532067
-0.004126728
-0.0017363825
8.2034647E-4
0.003202686
0.0051595964
0.0036981879
-0.0011679013
-0.003419763
-0.0031066495
-0.004835021
-0.003216013
8.2917546E-4
0.0021887347
0.0052507306
0.0060930788
0.002425582
2.6851789E-5
-0.0016459117
-0.0013596688
-8.725099E-4
-0.002668822
-0.0013156753
0.002650048
0.005874234
0.0062006465
0.0023796486
-8.945638E-4
-0.0018007504
-0.0018546939
-0.002167534
-0.0023076735
-1.2098716E-5
0.0022053279
0.0032281207
0.004149501
0.0024144433
-0.0017922486
-0.0047597024
-0.0038519714
-0.0027218356
-0.0043034465
-0.0038743666
-0.0011964282
0.0020007524
0.004121961
0.0010057031
-0.0027939156
-0.004098893
-0.0059572775
-0.0056925667
-0.0030645642
-0.0013413664
1.3571179E-4
0.0032303033
0.0068508717
0.0073072584
0.0048830337
0.002553646
0.0021353788
0.0024116628
3.0289777E-4
-2.953068E-4
0.0033050135
0.006512246
0.006355223
0.001620869
-0.0030935227
-0.0044784793
-0.007003398
-0.0078010247
-0.0046668793
-0.0024102936
-3.3503462E-4
0.0019918536
0.0034497809
0.0035888513
0.0010745976
-0.0014250844
-0.002402615
-0.0025610526
-0.0014531426
-3.0153498E-4
2.3949056E-4
8.341203E-4
0.0022326403
0.0025550928
0.0010621786
-2.3673812E-4
-0.0025917438
-0.0018857504
0.0015415596
0.0015061046
0.0055681956
0.007920169
8.6660276E-4
-0.0014847302
-0.004928069
-0.0108766295
-0.0052315583
-0.0021521612
-0.005305846
-0.0030933393
2.8897097E-5
0.0055278386
0.010415889
0.00658042
0.0010595268
-7.4101076E-4
-8.6115254E-4
-0.0025603273
-0.0056092143
-0.0056467713
-0.001890644
0.0041238056
0.008620461
0.0077337637
0.0031525036
4.933845E-4
0.0012098148
1.8609861E-4
-0.0020056982
-0.0027766482
-0.0022104396
0.0024996279
0.005825761
0.0028757097
-4.8690752E-4
-0.0030581085
-0.0052246433
-0.004930837
-0.0033664287
-0.0033644985
-0.00464553
-0.002000133
0.0032516716
0.004361912
0.001834601
-3.909506E-4
-0.0014339209
-0.0030261031
-0.0037541322
-0.0019444701
3.521028E-5
0.002808064
0.0048916657
0.0039524375
0.0032454573
0.0013494967
-0.0011171075
0.0012242397
0.00297737
6.10009E-4
0.0015783013
0.003888086
0.0012026115
-8.5681624E-4
-0.0014477958
-0.004564694
-0.004555651
-0.0025168345
-0.004108846
-0.004920525
-0.0028191053
0.001154051
0.0041793627
-3.8496775E-4
-0.006743422
-0.0054654595
-0.0026297425
-0.0030688075
-0.0029727046
-0.0013055294
0.0018975463
0.0057621114
0.009398978
0.012482115
0.010312188
0.0047046617
0.0033899695
0.004582383
0.005084733
0.004877187
0.002461827
-9.71626E-6
-7.082464E-4
-0.001924653
-0.0046849274
-0.0075055133
-0.009189878
-0.009111955
-0.0055925734
-8.5277733E-4
8.1583473E-4
0.0015715829
0.003502073
0.004318507
0.0024910807
-0.0010835007
-0.003217883
-0.0033356242
-0.0037527669
-0.004110067
-0.0033811186
-0.0015110505
7.8609795E-4
8.690022E-4
-0.0025197256
-0.0059676417
-0.0053386297
-0.0019219647
0.0029775843
0.010699345
0.015512327
0.013303678
0.010780043
0.007439293
-0.00501514
-0.021021469
-0.027187826
-0.023527311
-0.01740773
-0.008653342
0.003831617
0.016047042
0.024198703
0.025180139
0.019670801
0.0121430615
0.0037100106
-0.0029046992
-0.003523436
-0.0022358662
-0.003949038
-0.0076990644
-0.011387909
-0.011647942
-0.006700504
5.995976E-4
0.006997491
0.011323726
0.013464493
0.013263118
0.014375641
0.019501068
0.020473683
0.013673066
0.0016705568
-0.01918679
-0.036134947
-0.036491472
-0.036133014
-0.034014698
-0.018115185
-0.005131329
-0.0013877891
0.0025058615
0.002594804
-2.9185213E-4
7.801413E-4
0.0030978788
0.0014011294
-0.001435632
0.0017616269
0.01006654
0.016226307
0.015043148
0.010129918
0.010637901
0.015010441
0.018768797
0.02337455
0.025029793
0.02190214
0.019396564
0.01798097
0.012078236
-0.0010539081
-0.0154302055
-0.024470523
-0.030498212
-0.03423672
-0.031230792
-0.023814075
-0.014550225
-0.004191355
-0.0025620016
-0.008882989
-0.008671343
-0.0020212382
0.0051745414
0.011810929
0.014292604
0.016142713
0.020993773
0.02041143
0.012407778
0.006822834
0.004089278
-0.0016049196
-0.0066491785
-0.008879038
-0.010639781
-0.012633723
-0.018288454
-0.02622391
-0.03133282
-0.03458003
-0.036886223
-0.038317185
-0.038271844
-0.031175738
-0.016222404
-0.0010248004
0.013681324
0.031248575
0.046556488
0.05530076
0.05738446
0.0563627
0.054226547
0.039383397
0.016722523
0.007199435
0.004031173
-8.6041185E-4
6.1490946E-4
0.0046372144
0.0075698425
0.012009086
0.012325272
0.0020345298
-0.015282375
-0.03216964
-0.04115944
-0.0338256
-0.021075407
-0.019257791
-0.020563094
-0.017942354
-0.010570518
-8.205405E-4
3.0651162E-4
0.0010413986
0.010351874
0.015313623
0.009813049
-0.0013646419
-0.010252458
-0.014985659
-0.021261845
-0.027709682
-0.035187937
-0.041362282
-0.0352507
-0.018847445
-2.64574E-4
0.014262396
0.022016624
0.029132046
0.034466047
0.035570998
0.03666236
0.036536172
0.037608154
0.03748556
0.02541452
0.0092693595
-4.4234455E-4
-0.007834919
-0.012242826
-0.011083517
-0.0077412603
-0.0051307245
-0.004000368
-0.0033460257
-0.002381358
-0.0038707776
-0.0173638
-0.042910688
-0.057602566
-0.049503077
-0.034646694
-0.021510627
-0.0029130764
0.014457256
0.018428328
0.022304721
0.038925752
0.05568461
0.0645196
0.064231254
0.057487864
0.056344498
0.050011106
0.030511111
0.010271884
-0.02409709
-0.06315289
-0.078048795
-0.08422355
-0.07369033
-0.04148314
-0.028564291
-0.02197441
0.0032831887
0.026132783
0.03719292
0.03474879
0.019038206
-0.010746876
-0.0508503
-0.07270602
-0.063250236
-0.03316879
-0.0055574183
0.0015317181
-3.9819765E-4
-0.008940916
-0.021239258
-0.015703822
0.013261679
0.047306478
0.055984933
0.043212626
0.025942702
0.0024266362
-0.011351531
-0.032013368
-0.070114136
-0.07570113
-0.040312022
0.02198792
0.103889935
0.1755852
0.21551244
0.18946877
0.11746254
0.08728156
0.07297637
-0.0022197466
-0.08538729
-0.10881347
-0.103915334
-0.10431685
-0.101062864
-0.09738007
-0.12543337
-0.18952599
-0.21918327
-0.17962953
-0.11291293
-0.030354256
0.042855408
0.09391978
0.16990155
0.2228963
0.20088275
0.14244889
0.032099094
-0.11997046
-0.23135918
-0.2563126
-0.18132858
-0.03248048
0.14697565
0.29470512
0.3448006
0.33520702
0.29742217
0.1927053
0.021408008
-0.18827341
-0.3498659
-0.40229556
-0.40861294
-0.36634865
-0.23290169
-0.07963912
0.027425174
0.12244161
0.22987898
0.27117798
0.23571187
0.20539871
0.16204016
0.11695786
0.10997797
0.07177904
-0.0061261733
-0.077336505
-0.1312525
-0.1741858
-0.21827683
-0.18784058
-0.0442798
0.09824567
0.15106393
0.14299087
0.14181495
0.12187552
0.040609702
-0.051190376
-0.13717258
-0.20146918
-0.20734888
-0.1920859
-0.16130912
-0.08210318
0.012727048
0.075051166
0.1342542
0.2122772
0.22942719
0.1755801
0.11308684
0.045485687
-0.010800191
-0.06966786
-0.13221076
-0.12607302
-0.088032074
-0.07550803
-0.057866417
-0.04008781
-0.028393973
-0.01125882
0.0025572272
0.008763287
0.011075163
0.025319148
0.045481436
0.05930898
0.074358955
0.06937373
0.043839473
0.027643248
0.015205078
0.0033391458
-0.0010685661
-6.4402155E-4
0.0024335636
0.0016161707
-0.00132585
-0.007079989
-0.010735092
-0.008098939
-0.015354539
-0.011406936
-9.4437227E-4
-0.022142984
-0.026995154
-0.017377494
-0.039200384
-0.031612713
4.9076474E-4
-6.0788578E-5
-0.0011114863
2.7163478E-4
-0.004332958
0.009337007
0.021478446
0.017341418
0.01360608
0.015313023
0.020376239
0.020434821
0.005117868
-0.019599777
-0.04008632
-0.04865975
-0.04107573
-0.025550025
-0.011959989
0.0028079348
0.015163756
0.022177773
0.023437932
0.015661743
0.009399219
0.0064777075
0.0058867163
0.019186899
0.035263233
0.041147258
0.0449036
0.045412853
0.037093274
0.024512503
0.014279968
0.009667262
0.009404127
0.01022073
0.01175269
0.014247584
0.014660288
0.011784049
0.0032463607
-0.012190549
-0.025136553
-0.031809602
-0.03819592
-0.042810984
-0.04140021
-0.035350557
-0.026697522
-0.01946141
-0.021842016
-0.032322917
-0.039141417
-0.038543016
-0.03418979
-0.02990275
-0.025097711
-0.016147463
-0.0059070843
0.001563715
0.003221665
-0.0015433639
-0.006090829
-0.005680727
5.6386343E-4
0.008163363
0.015520075
0.030818341
0.04870904
0.058686454
0.06178859
0.057472587
0.053105865
0.05234144
0.03941653
0.016777497
0.0031042579
-8.004699E-4
6.5587624E-4
0.005053388
0.0050735106
0.0036838625
0.008564941
0.012089479
0.0077051152
0.0015776986
-0.0034549672
-0.0065468606
-0.008359676
-0.018047703
-0.035943884
-0.050087065
-0.055788044
-0.056010153
-0.050827757
-0.040313303
-0.029520314
-0.017531231
-0.003291985
9.595226E-4
-0.005889053
-0.012624113
-0.016086357
-0.013435811
-0.009223829
-0.009222147
-0.0061481344
1.3703207E-4
0.007810598
0.017491195
0.020131454
0.015379749
0.012570628
0.014230739
0.018330734
0.023375474
0.028238213
0.031878524
0.036466066
0.039304998
0.034259368
0.02520006
0.016280295
0.008509081
0.0033894836
1.2960199E-4
-4.4205718E-4
1.9117758E-4
0.002105324
0.005039026
9.650455E-4
-0.008125473
-0.01463263
-0.018696427
-0.020003334
-0.017545374
-0.011650103
-0.006738462
-0.0037901732
6.8828854E-4
8.220357E-4
-0.005497934
-0.012938468
-0.016950658
-0.015163929
-0.015416919
-0.016289905
-0.009462229
-0.0023147247
0.0010860633
0.0010591156
-0.0041048503
-0.009387403
-0.01121634
-0.010030414
-0.008420219
-0.0052156565
0.0015276409
0.00729185
0.012765382
0.015642889
0.011801429
0.00677721
0.0038326099
0.0053402446
0.0069044293
0.0051224283
0.0094119245
0.016787942
0.020061338
0.016905723
0.008090879
0.0041510807
0.0016560525
-5.257044E-4
0.0037251737
0.0047786045
0.004606011
0.0035506252
9.4830483E-4
0.0077886526
0.006248041
-0.0039142617
0.0013252383
0.004918984
-7.5750455E-4
-0.0010258507
0.001155422
0.0063515203
0.011511127
0.008172622
3.626288E-4
-0.00598175
-0.007911394
-0.0078451745
-0.0076532434
-0.00569889
-0.0024431827
0.004662123
0.011096067
0.009681384
0.005105463
1.4741858E-4
-0.0030341067
-0.0023854577
-0.0035719953
-0.0043531903
3.9219015E-4
0.0060345177
0.009561848
0.009437601
0.0035115741
-0.003479774
-0.006225821
-0.0063162115
-0.0044682315
1.4970645E-4
0.0034002955
0.006215874
0.0119493455
0.012762549
0.0062787402
1.8405347E-4
-0.003939484
-0.0059476015
-0.0059014293
-0.005081075
-0.0012656167
0.0048733978
0.00972537
0.009253543
0.0023802584
-0.004410073
-0.0073861675
-0.008022509
-0.007070949
-0.0050521954
-0.0015899494
0.003143136
0.008191261
0.009199356
0.002566085
-0.004170699
-0.0057403976
-0.005850925
-0.0058978726
-0.00582821
-0.0028448114
0.0047270036
0.010155752
0.009458118
0.0045599327
-0.0024633512
-0.0072740032
-0.008227063
-0.0071899155
-0.0034210987
0.0012948491
0.0051106345
0.009622488
0.010912978
0.0061634323
-2.6592004E-5
-0.0039048018
-0.0049030855
-0.005190388
-0.004933189
-0.0022971753
0.0027093508
0.008818002
0.00886385
0.002047889
-0.0036283573
-0.009015405
-0.011327015
-0.0064786295
-0.0024752764
-2.1741544E-4
0.004249914
0.008969694
0.010083931
0.0031767315
-0.0050269747
-0.005455219
-0.0039472575
-0.0054574055
-0.0059067127
-0.0028483993
0.0034820584
0.010956497
0.012646956
0.00590084
-0.0014440165
-0.005216941
-0.0076597575
-0.008720004
-0.008174301
-0.0046050856
0.0027106935
0.00841907
0.008528194
0.0044756266
-0.0010511149
-0.004662254
-0.0062950514
-0.008508782
-0.008046617
-0.0037950485
0.0010283961
0.008085297
0.011181051
0.0040543796
-0.0034220666
-0.00800321
-0.0109853055
-0.0069411304
-0.0013318656
0.0014268355
0.0059665176
0.009637272
0.010198247
0.0074430993
-1.8363717E-4
-0.0056890645
-0.0056052613
-0.005216738
-0.0035512845
4.3003532E-4
0.004873597
0.009872451
0.010644489
0.0045724367
-0.004190705
-0.010309194
-0.009784305
-0.00675019
-0.005024732
-0.0018798433
0.0028287433
0.0077250134
0.009675239
0.0059003714
-9.868388E-4
-0.005716645
-0.0061351084
-0.0070024794
-0.007204521
-0.0030418166
0.0010719597
0.0056403605
0.0076055774
0.0020519872
-0.0048936
-0.011174065
-0.0128959725
-0.008558372
-0.0067775883
-0.0033968494
0.0044936156
0.008985755
0.009697092
0.0070326715
0.0020470244
-5.3860777E-4
-6.6507363E-4
-7.0863875E-4
-8.1639166E-4
0.0012896371
0.006521401
0.012267408
0.0136395795
0.008779256
0.0027345913
-0.0017590777
-0.0053675505
-0.0069769165
-0.008696935
-0.0095646335
-0.0033587064
0.005129631
0.007151326
0.0038081154
-0.0022036817
-0.005560494
-0.006571032
-0.0130250305
-0.0143789165
-0.0054999646
0.0013691733
0.008285729
0.011358542
0.004343793
-0.0019078486
-0.0063595916
-0.009744434
-0.009329495
-0.0077323094
-0.0025846746
0.0036028037
0.007262941
0.008785577
0.006027704
0.0015005207
-0.0025794054
-0.0038666688
-0.0023589067
-0.001989325
5.295253E-4
0.0049254857
0.009412837
0.012305215
0.0066872733
-9.3674596E-4
-0.004339399
-0.0067057065
-0.0053197895
-0.0024307678
0.001656116
0.010495736
0.01634909
0.016082635
0.011330604
-6.821894E-4
-0.011503833
-0.01254377
-0.012148028
-0.013337041
-0.010577588
-0.0059038224
0.0011460363
0.0074765873
0.0035153332
-0.0051661883
-0.0104485955
-0.013038508
-0.012002103
-0.008394958
-0.003534702
0.0027971491
0.009453852
0.013545017
0.010642952
0.0040624416
1.6706434E-5
-0.0022692957
-0.0032918951
-0.002703677
-0.001139691
0.00340425
0.01103027
0.014832109
0.009805968
5.8279413E-4
-0.007282675
-0.0109525705
-0.009214604
-0.005528856
-0.0025986019
0.0010323863
0.006971044
0.0111010345
0.007167447
-4.1566524E-4
-0.0050707837
-0.007660967
-0.0076302486
-0.004248478
2.2669461E-5
0.0046247775
0.010100562
0.012143192
0.0069954824
-3.9408467E-4
-0.0067584873
-0.011598226
-0.011569539
-0.00865672
-0.0045440467
9.4452756E-4
0.0047034603
0.007386807
0.0064498456
-6.9960504E-4
-0.0066224486
-0.008474493
-0.008269836
-0.005573389
-0.0019485248
0.0027630217
0.008512213
0.011642719
0.009249503
0.0014636293
-0.005855563
-0.0080975015
-0.0069924467
-0.0036801165
-4.7347465E-4
0.0026103999
0.009055133
0.012437737
0.0072781118
5.064279E-5
-0.0050309384
-0.007066588
-0.006167386
-0.004902575
-0.0026284244
0.0030736849
0.010642695
0.012111078
0.005591211
-4.3065444E-4
-0.0056451336
-0.010553802
-0.009027879
-0.0046326364
-0.002006162
0.0027246557
0.0094187595
0.011083859
0.0056911423
-9.30829E-4
-0.006017108
-0.008080009
-0.0073460825
-0.008651191
-0.008075285
-0.00140213
0.0063797385
0.010564124
0.007082251
-4.0049056E-4
-0.0053369305
-0.008456349
-0.0082503995
-0.005541973
-0.002516521
0.002793021
0.0076103336
0.010293912
0.009375713
0.0026423188
-0.0021870695
-0.0020863395
-0.002583262
-0.0034543013
-0.0031072793
0.0012731759
0.009235534
0.011102748
0.005826807
-1.6516392E-4
-0.00535497
-0.007687165
-0.007073344
-0.0042979247
-5.217975E-4
0.0019405241
0.0063784486
0.006170175
-0.003251873
-0.005804973
-0.0028458335
-0.005698197
-0.006954443
-0.005500222
-0.004001049
0.0012031328
0.007887789
0.011355023
0.008272351
7.564162E-4
-0.0058921115
-0.009382052
-0.0077900547
-0.003324031
1.2204562E-4
0.0033625609
0.0079345
0.011206825
0.008559822
0.0011788442
-0.00503469
-0.006352396
-0.00539418
-0.0053820494
-0.0034778258
7.259388E-4
0.0062923892
0.00975826
0.0054827067
5.152965E-4
-0.0026289802
-0.008254133
-0.010018666
-0.0068951095
-0.0012344972
0.0039998707
0.0049922513
0.008386458
0.010346673
0.0038470994
-0.0032737113
-0.007479857
-0.00704422
-0.003897328
-0.0035806098
-0.0010374631
0.004966853
0.009787006
0.009713212
0.0027459245
-0.003756086
-0.00644693
-0.008268748
-0.0071549043
-0.0036074263
7.4890634E-4
0.0060657607
0.009428566
0.008227155
0.0024592392
-0.0032057632
-0.0038662443
-0.00352321
-0.004759196
-0.0036566516
-7.618384E-4
0.004130307
0.01053935
0.0092870705
8.7500206E-4
-0.0048299674
-0.008084409
-0.009920328
-0.0069765127
-0.002729631
-0.0017274385
1.4181621E-4
0.0043949657
0.003878953
-3.1170985E-4
-0.0022598794
-0.0040915804
-0.0055716643
-0.004902543
-0.004020932
-0.0014288872
0.004774987
0.0103742285
0.008440837
0.0018656539
-1.8012557E-4
-2.8601353E-4
-0.002036741
-9.113979E-4
0.001895308
0.00451832
0.008682737
0.011321009
0.010237489
0.006576246
0.0012012988
-0.002720343
-0.0035743043
-0.004325374
-0.006060353
-0.0057450533
-0.0015160544
0.0026900594
0.0010060617
-0.005534003
-0.010510604
-0.011003317
-0.008651981
-0.006075989
-0.005074109
-0.0034684732
0.0013540358
0.005605902
0.006073415
0.0037754737
-0.0010185557
-0.0040893084
-0.0016896919
4.297846E-5
-0.0012066024
0.001478008
0.0068730386
0.009173168
0.009294144
0.0053206575
-9.40589E-4
-0.0018524172
-0.0020429536
-0.0021402794
0.0015475153
-4.3265367E-4
-0.0029430499
0.0038568734
0.008080284
0.005103956
0.0011155426
-0.0023325814
-0.004029513
-0.0046551363
-0.00438096
-0.0019962816
0.002492792
0.006428097
0.005131081
2.9872885E-4
-0.0038759087
-0.0055570626
-0.004800599
-0.0057041617
-0.006226497
-0.0020166412
0.0024722565
0.004650648
0.0050389403
0.002076594
-0.0019749242
-0.0039116433
-0.005194484
-0.0052121016
-0.0017971981
5.3352973E-4
9.984191E-4
0.004354746
0.005806517
0.0019036783
-0.001136663
-0.0027459715
-0.004444423
-0.002667067
-3.2461577E-4
-8.502034E-4
0.0018798794
0.006446845
0.0059710187
0.004097021
0.0026421587
6.4218295E-4
1.6857544E-4
-7.290355E-4
-0.0017538301
-5.002852E-4
0.0022193599
0.00486725
0.0047968263
0.0017279835
-0.0029692152
-0.0057951435
-0.0047000586
-0.0050914064
-0.004915361
-3.844131E-4
0.0027636066
0.0049446835
0.006003267
0.0018314731
-0.0022669178
-0.002550177
-0.0022004147
-0.0032449772
-0.004647861
-0.0029319294
0.0013519139
0.003561641
0.0023984823
-6.497663E-4
-0.0035098896
-0.0035505241
-0.0018268193
-0.002083083
-0.0024930034
2.805593E-4
0.003228118
0.0035255863
0.0032229149
0.003205936
0.0017530804
7.076559E-4
7.4139057E-4
-0.001816103
-0.0028341059
0.0014876655
0.0055679907
0.0073099723
0.0063341884
0.0029733432
-0.0021863454
-0.010630743
-0.011843324
-0.0025787174
0.0019610794
0.0024532545
0.005099395
0.0051659937
0.0036404147
0.0010022174
-0.0013434453
-6.0861796E-4
-0.002424495
-0.0050772266
-0.0042596096
-0.0029284568
6.724349E-5
0.0036555314
0.004591718
0.0020646497
-0.0018491029
-0.0026990443
-0.0068349345
-0.010733339
-0.0024014784
0.0034360522
0.0021394733
0.0052346056
0.004588187
3.5655763E-4
-0.001752144
-0.0047406172
-0.004407857
-0.0027847234
-0.0018098649
8.96158E-4
0.0025747549
0.0063255266
0.008331396
0.0040792483
9.4742526E-4
-0.0015834414
-0.0029503668
-9.271691E-4
-3.863232E-4
8.710285E-4
0.0033911683
0.003538248
0.0035363412
0.0032723222
2.8925762E-4
-0.0032784822
-0.003801727
-0.0034357172
-0.004239712
-0.0026804414
6.804235E-4
0.003235967
0.0034161631
4.4507877E-5
-0.0030587506
-0.0038231243
-0.003214884
-0.002746431
-0.00311655
-0.0011579138
0.0010927703
0.0016665219
0.0026805296
0.002013466
0.0015725195
0.0014180847
-0.0018749402
-0.00329476
-0.0027664937
-0.0027486912
7.0097536E-4
0.00572746
0.007913657
0.005828739
0.0010088178
-0.002288852
-0.004161034
-0.0044758017
-0.0014416627
0.0012164456
0.0019204613
0.0032815489
0.0040601
0.00281204
6.553224E-4
-0.0016801709
-0.0026625316
-0.0026021502
-0.0023254054
-0.0011583334
-0.0016138178
-0.0014073693
0.0022714387
0.0027070222
5.0726614E-4
-9.7423943E-4
-0.0034478393
-0.0020552613
-0.0013240973
-0.00660849
-0.0043343813
0.004860941
0.0063090613
0.0028889256
0.0012460541
5.8272155E-4
2.0414524E-4
-0.0015533078
-0.003396915
-0.0018376423
0.0017663774
0.0046623577