0.0043214187
0.017551623
0.019558799
0.032527402
0.026175717
0.0012391884
-0.0033866996
0.005933633
-0.008091866
-0.016638689
-0.0026484707
6.741655E-4
-0.0023177715
-0.013295947
-0.020513514
-7.2654185E-4
6.4749306E-4
-0.019686854
-0.0195775
-0.014756517
-0.020291694
-0.014866239
0.031906217
0.09708667
0.113932244
0.0849841
0.05102847
0.02208525
-0.009263783
-0.04719869
-0.07519009
-0.09444495
-0.09163902
-0.023355436
0.057125106
0.069407254
0.04799065
0.043205243
0.046185985
0.040841382
0.024615407
-0.0033466793
-0.04533742
-0.090118214
-0.11405331
-0.10965756
-0.10089854
-0.099489644
-0.06103441
0.021677535
0.073954485
0.07651387
0.0658493
0.04056699
0.009840097
-0.0021890171
0.004283288
0.017398303
0.014179272
3.7906392E-4
0.0029446522
0.010399774
0.0019148085
-0.018573066
-0.024794282
-0.009787773
-3.5850497E-4
0.022300323
0.07372656
0.09177313
0.05299053
0.008056407
-0.016558355
-0.03292209
-0.033043932
0.0065650754
0.040355314
0.009079218
-0.030608393
-0.024578944
-0.015482796
-0.0016224711
0.030837994
0.026088515
-0.004215496
-0.009954918
-0.0018133469
0.011184854
0.0016791151
-0.0238544
-0.0025300526
0.01612926
-0.021530936
-0.048448723
-0.048814
-0.054029837
-0.049574625
-0.03675785
-0.03629646
-0.038141526
-0.032876078
-0.02149453
0.026547804
0.08910073
0.08481077
0.0320358
-0.008485231
-0.034441233
-0.054615878
-0.059945755
-0.0078022424
0.06285171
0.05932139
0.03269707
0.020858342
0.0089466795
0.06410089
0.13322237
0.10568414
0.038083013
-0.010997514
-0.041929666
-0.049812347
-0.061009616
-0.059095327
-0.0023401047
0.047639906
0.033980325
0.0035315317
-0.022178553
-0.049602132
-0.054852325
-0.056574497
-0.06388891
-0.044978943
-0.020968542
-0.015812332
-0.015870089
-0.010641074
-0.0038482514
-0.012564948
-0.017422209
-0.013663397
-0.029547159
-0.010942144
0.06366822
0.10986181
0.10135221
0.070712686
0.042161558
0.024532579
0.006476788
-0.014876214
-0.0308447
-0.014829535
0.0185857
0.0071283216
-0.013008354
0.0036747332
0.0057590627
-0.011362106
-0.029602202
-0.061628956
-0.06189364
-0.007919397
0.02527796
0.0069840755
-0.011732324
-0.019549478
-0.02403648
-0.01589105
-0.022858495
-0.025598135
0.027616194
0.07323464
0.050045766
0.015242323
0.014135547
0.023170132
0.030694755
0.04390041
0.043863077
0.024315622
-0.0021466855
-0.033624984
-0.054011084
-0.060178112
-0.047083206
-0.002907619
0.020213243
-0.0045888596
-0.032585163
-0.042099167
-0.0399427
-0.03587222
-0.02569682
-0.013260411
-0.0083463425
0.0150241675
0.04242588
0.028324671
-0.0055317543
-0.015858507
-0.011052925
-0.015101696
0.016759494
0.08921867
0.09503268
0.0350776
-7.687637E-4
-0.016754426
-0.026632847
-0.0015855187
0.04843261
0.061653253
0.02975198
0.008138305
-0.01175926
-0.034942064
-0.030920748
-0.031027744
-0.026029453
0.019029211
0.051597957
0.043296598
0.020776194
-0.0075329943
-0.03468541
-0.051626306
-0.056797136
-0.05819306
-0.06997399
-0.07029413
-0.029649194
0.017090028
0.034158867
0.037967492
0.027535593
8.069261E-5
-0.009509499
-0.006597049
-0.025627356
-0.03850729
-0.023258286
-0.008577111
0.022923829
0.069770105
0.061183725
0.023004208
0.022231296
0.016748315
-0.016880605
-0.03804275
-0.019946253
0.03771037
0.06876919
0.038145192
1.4560884E-4
-0.033560835
-0.05789931
-0.057294525
-0.04147075
0.012912505
0.062363863
0.0542301
0.040184047
0.018825606
6.7193597E-4
0.04314946
0.090699755
0.077552244
0.022487054
-0.015688509
-0.027757304
-0.05281592
-0.050082788
-0.02364891
-0.03407833
-0.039956763
-0.0355342
-0.056447085
-0.07152727
-0.054136205
-0.030245913
-0.043434158
-0.051883623
-0.01815871
-0.0026060988
-0.014441496
-0.02920452
-0.018511018
0.035653505
0.05785232
0.03575677
0.023158913
0.012134715
0.011234609
0.033416234
0.07872221
0.12022137
0.089950904
0.03014703
0.009303067
-0.0120556
-0.016709452
0.020466363
0.019835077
-0.020272138
-0.03301811
-0.028799526
-0.036311157
-0.06743975
-0.07909907
-0.020528935
0.013219225
-0.016333481
0.011765449
0.08377464
0.09748255
0.062171433
0.012665984
-0.03216107
-0.050829183
-0.06431344
-0.097299576
-0.11526132
-0.101693146
-0.06942711
0.013070769
0.108075745
0.1196989
0.0671938
0.013835773
-0.015059387
-0.025202498
-0.03390611
-0.0172765
0.0054714824
-0.001723953
0.0037751496
0.016227767
-0.0067981137
-0.024983896
0.013531081
0.07579573
0.0859082
0.05719966
0.044172283
0.025405992
-0.008547021
-0.028777737
-0.030040102
-0.029695632
-0.046746198
-0.053148195
-0.039141674
-0.041316867
-0.038158976
-0.024416817
-0.02903883
-0.016217606
0.005309473
0.0027669338
0.043617256
0.11032635
0.08834673
0.020024024
-0.008099206
-0.015151042
-0.0055908686
0.010889128
0.008107867
-0.008250644
-0.029056292
-0.022164633
-0.0034777238
0.0058068535
0.05275341
0.08696634
0.05539137
0.009913519
-0.028930912
-0.06190906
-0.09207063
-0.08464257
-0.041157473
-0.047521383
-0.03639076
0.034148976
0.052720517
0.033128917
0.0023206484
-0.02157035
0.01891553
0.041983854
0.008910939
-0.0076837665
-0.007069599
-0.022118354
-0.049743887
-0.022442997
0.06658745
0.09700521
0.043540306
-0.004744226
-0.023140376
-0.035175346
-0.014567937
0.03661306
0.037776798
-0.010618654
-0.024921551
0.022889977
0.07151326
0.04985295
-7.8168494E-4
-0.032953907
-0.05951653
-0.04858984
-0.011165148
0.0017142221
-0.003554739
-0.009817459
-0.0011936296
0.012859171
0.00851205
-0.015949504
-0.04016037
-0.016766474
0.019016009
0.0029916796
-0.030161468
-0.05170968
-0.03546155
0.020303452
0.030444002
-0.01639133
-0.05257086
-0.05934108
-0.05522638
-0.02503589
0.046190143
0.077918045
0.04959701
0.035774283
0.023448424
0.018231746
0.03334527
0.026543006
0.053235777
0.11447712
0.108293965
0.053073034
0.026206486
0.037202884
0.028335046
-0.008270632
-0.003917122
0.003653368
-0.02979955
-0.047319755
-0.06707271
-0.10234501
-0.09180113
-0.06406466
-0.071450494
-0.09277901
-0.111584164
-0.12489947
-0.11848897
-0.08247067
-0.0417773
-0.035004213
-0.032501243
0.0016115068
0.045210406
0.08462343
0.09070712
0.06805004
0.08783018
0.13080446
0.13268936
0.102831185
0.09197748
0.114912815
0.10217267
0.06369845
0.06745338
0.043403033
-0.024607023
-0.043441277
-0.023441494
-0.020130806
-0.035624668
-0.05857341
-0.07795027
-0.07656199
-0.080367506
-0.10135495
-0.06371481
-0.005989979
-0.026154185
-0.040208764
-0.0048866486
0.0047682896
-0.009314682
-0.020009154
-0.021175494
-0.012026615
-0.0071341926
-0.0021194955
0.017314265
0.030910352
0.007874927
-0.014808462
-0.0040345313
0.0057500694
0.012179291
0.013003791
-0.015855517
-0.041989494
-0.03908994
-0.031342756
-0.0338162
-0.025093945
0.0063446136
0.04901756
0.1046677
0.13416407
0.10169944
0.05852735
0.027906388
0.010721488
0.047065064
0.098619685
0.08412456
0.025536805
-0.018126035
-0.05085238
-0.07464817
-0.0675011
-0.04513056
-0.02991702
-0.032915607
-0.04845068
-0.04472282
-0.043319013
-0.06548093
-0.07968471
-0.092214175
-0.08028637
-0.011874144
0.041590642
0.038124323
0.016454602
0.008251371
0.014905689
0.024821552
0.055408947
0.07114554
0.02817617
0.024224777
0.07320732
0.061315056
0.023147937
0.020691015
0.010888078
-0.016950972
-0.03450962
-0.022303607
-0.0012025597
-0.013839378
-0.03962198
-0.035007063
-0.012427669
-0.014609853
-0.027250888
-0.0073279543
0.012264424
0.012477084
0.011937073
0.0015161094
0.02394061
0.06370216
0.040443722
0.011719461
0.010799561
-0.0013278923
-6.3498894E-4
-0.0043539153
-0.015430754
-0.011602075
-0.03005504
-0.042558037
-0.024658341
-0.021061791
-0.02633416
-0.019543564
-0.009918655
-0.007949382
0.013344802
0.051019922
0.033328187
-0.02212576
-0.046163008
-0.02412847
0.018996876
0.024885992
0.012119576
0.010226066
-0.0074268696
-0.014938029
-0.012661515
-0.0013691754
0.022133766
0.011942668
0.020357067
0.054838482
0.03649242
0.0022955488
-0.015407819
-0.019958127
-0.017678652
-0.028655414
-0.009984372
0.02458937
0.040411014
0.06998327
0.0731308
0.021453215
-0.034625202
-0.058531675
-0.034220766
-0.010373169
-0.041775633
-0.07492699
-0.051822867
-0.009200648
0.012119868
-0.0023106039
-0.04858806
-0.039373163
0.024998797
0.022333106
-0.0075485795
9.940232E-4
-0.010211788
-0.034563478
-0.04257471
-0.030157948
0.0058947504
0.023728607
0.022052187
0.050092604
0.098622136
0.10368894
0.072700925
0.06753665
0.05668317
0.017939046
-0.0091256
-0.03118607
-0.049322307
-0.06528282
-0.06883785
-0.03391907
-5.475765E-4
0.0257282
0.045773
0.04001075
0.06051983
0.086547725
0.054805733
-0.011283248
-0.05699901
-0.05985983
-0.0777715
-0.075105876
0.0018988473
0.018796729
-0.03133781
-0.05810029
-0.08363041
-0.07211477
-0.033899877
-0.032453135
-0.033887003
-0.0129334945
0.02112628
0.026147023
-0.018789425
-0.055922557
-0.06087136
-0.05673519
-0.052850466
-0.023175566
0.03000871
0.06830038
0.10052809
0.11305297
0.11609189
0.13636376
0.093979046
0.026690135
0.04991708
0.10177172
0.10912074
0.07674309
0.025994223
-0.012273133
-0.039019987
-0.059650604
-0.06328278
-0.049208812
-0.041626975
-0.044200238
-0.030052716
-0.02149019
-0.040489607
-0.0689745
-0.09241145
-0.095958024
-0.08924704
-0.08371816
-0.07411743
-0.061690357
-0.042690247
-0.014445889
0.034870464
0.08645041
0.10339195
0.09702954
0.06517647
0.029161388
0.029507717
0.029993005
0.01735908
0.013750352
0.015896918
0.013193863
-0.012258383
-0.034358993
-0.030507974
-0.019412464
9.839467E-7
0.016778814
0.029094864
0.039258424
0.02682625
0.0022309448
-0.02569282
-0.037072826
-0.024474071
-0.030639505
-0.023302322
0.022389075
0.042992663
0.04094437
0.04878838
0.046733897
0.028041674
0.02136699
0.034584638
0.029755056
-6.8852963E-4
-0.032328706
-0.06224939
-0.07545607
-0.05603163
-0.012721837
0.010162382
-0.020949792
-0.05155599
-0.061930593
-0.07323109
-0.034806073
0.031868964
0.046341207
0.016019683
-0.025854079
-0.06294991
-0.08746101
-0.06254917
0.021050572
0.06402071
0.030365566
-0.025363086
-0.038790006
0.043846287
0.123655766
0.11840863
0.09828425
0.07482791
0.056848545
0.06523985
0.058444344
0.04408397
0.031799227
0.015018904
-6.295725E-4
-0.018064039
0.015140381
0.075548545
0.044742256
-0.039529424
-0.06618481
-0.05998548
-0.08982129
-0.13247772
-0.12835549
-0.10923879
-0.12428389
-0.12763686
-0.113194644
-0.116616435
-0.092623435
-0.055205423
-0.047134943
-0.011112225
0.044933807
0.08536394
0.13512675
0.1678177
0.1442648
0.065645725
0.01367768
0.049957942
0.07958868
0.09009189
0.13374327
0.14246176
0.11756982
0.09583766
0.041525632
-0.017989978
-0.030103302
-0.02493735
-0.044903487
-0.047913615
-0.020594813
-0.033497844
-0.07267096
-0.08906284
-0.09621584
-0.09053215
-0.08064133
-0.08936439
-0.08286289
-0.051565826
-0.045973454
-0.04927647
-0.016206266
0.014960928
0.030008242
0.04253367
0.03041155
0.028696587
0.04299689
0.01384394
-0.015635256
-0.008742121
-0.0075338474
0.011885175
0.038152996
0.008624351
-0.010350895
0.044514116
0.11378234
0.14246216
0.124934755
0.09407663
0.058221634
2.0966964E-4
-0.043753684
-0.06818371
-0.08793124
-0.077938914
-0.048683077
-0.021960828
-0.012230519
-0.020556018
-0.02509045
-0.031085342
-0.037355803
-0.039843637
-0.037781738
-0.021240823
-0.011222424
-0.014315309
-0.021897864
-0.021304268
-5.6284195E-4
0.0088758115
0.012016973
0.023321908
0.01757289
0.007856614
0.01571801
0.05801318
0.11680896
0.12048586
0.059986465
-0.016872378
-0.07196678
-0.08844548
-0.05494292
0.011960083
0.025057076
-0.014751997
-0.022085087
-0.026755348
-0.051347982
-0.045393977
-0.034105543
-0.051526748
-0.054124564
-0.019380283
0.010150389
0.024268912
0.053202797
0.08167346
0.10339665
0.13938695
0.14666016
0.0994802
0.0392099
-0.026413914
-0.078652665
-0.07751479
-0.035195086
0.019306773
0.032366417
-0.012639001
-0.06564283
-0.112745166
-0.09839825
-0.019439027
-0.011896723
-0.06009117
-0.078401655
-0.09460152
-0.088537954
-0.050269682
-0.028221514
-0.019547055
-0.016292667
-0.018713914
0.004779325
0.062350463
0.09049576
0.055807453
0.02968411
0.057516776
0.0934906
0.09016696
0.05977333
0.044550933
0.055855565
0.068498135
0.054864496
0.040597253
0.047305357
0.035775233
0.019601984
0.017378664
0.009274874
0.02152427
0.024328386
-0.017633157
-0.026989993
0.024150753
0.063630484
0.041251063
-0.021119617
-0.07403975
-0.09681124
-0.10047548
-0.10947813
-0.12118348
-0.13020289
-0.148391
-0.15028076
-0.13330145
-0.12855762
-0.114075676
-0.0627918
0.0028262225
0.035392176
0.024097787
0.015665261
0.033357747
0.056568366
0.076091334
0.10046037
0.119145796
0.12081997
0.13132194
0.15791233
0.19015902
0.2250337
0.20443887
0.09671892
-0.011918261
-0.05654802
-0.07973071
-0.10255295
-0.06499041
0.012952313
0.026799899
-0.015960805
-0.05106863
-0.06568287
-0.055269357
-0.066586636
-0.11858682
-0.12372621
-0.07921118
-0.0465071
-0.019246176
-8.0027035E-4
0.009629329
0.010343654
-0.008668403
0.004054942
0.006084404
-0.057929065
-0.051522825
0.031180063
0.03299739
0.0049083754
0.05012445
0.093458295
0.056689706
-0.009831081
-0.035642263
-0.03472707
-0.021301212
-0.004244237
-0.012872805
-0.005346763
0.011017755
-0.009363284
0.00909923
0.057719994
0.047217317
0.016432187
0.0082747955
0.009330376
0.0030251504
-0.010046881
-8.9904794E-4
0.007347808
-0.016435264
-0.04378023
-0.04176296
-0.011277839
0.0036370067
0.015951056
0.06527027
0.08025155
0.030499132
-6.145858E-4
0.011885272
0.010286458
-0.0168839
-0.01873427
0.0015937928
0.025143823
0.051858593
0.033235155
-0.010958934
-0.014796271
-0.013103596
-0.03873944
-0.06861916
-0.08408965
-0.08246487
-0.07236047
-0.051425077
-0.015621664
0.01800957
0.017487578
-0.009254769
-0.024393644
-0.020289551
0.020393163
0.06182982
0.03263247
-0.004285873
0.006292277
0.015683735
0.022327669
0.049218494
0.065242596
0.039835256
0.0107047055
0.0010828443
-0.011007799
-0.007219142
0.002647631
-0.0010607122
-0.007030104
-0.01600034
0.021840578
0.07743378
0.0544175
0.0040894477
-0.017562384
-0.022357719
-0.025437344
-0.05560567
-0.08506095
-0.080437526
-0.056696896
-0.049721085
-0.05827562
-0.0107794115
0.06959461
0.09799277
0.08238357
0.058306403
0.031155117
-0.018210512
-0.040041517
-0.0017300369
0.009037722
0.007392703
0.02727783
0.021748684
0.017154342
-0.0048454674
-0.047883276
-0.041096915
-0.022788664
-0.013489923
0.013232924
0.013886688
-0.00541983
-0.00794476
-0.013673611
-0.017705107
-0.0044354806
0.0012956496
5.169178E-5
-0.0039219335
-0.008856642
0.009688616
0.014480451
0.016083753
0.055862974
0.049612854
0.034721144
0.09259842
0.1001768
0.03439399
-0.013573765
-0.049030215
-0.07121561
-0.07124259
-0.06534202
-0.059833135
-0.056876466
-0.04507901
-0.024452826
-0.018872688
-0.03757215
-0.057233736
-0.060347237
-0.04724601
-0.0241585
-0.012391069
0.014944514
0.0846248
0.122950375
0.09963131
0.07275013
0.054687977
0.03394332
0.020597575
0.009763447
-0.0035750174
-0.010261085
-0.014856808
-0.019117262
-0.019178638
-0.01830937
-0.007969283
0.0011927547
-5.4754724E-4
-0.0025094205
-0.013282821
-0.0057677617
0.028200204
0.03217635
0.0090990085
-0.013129901
-0.0272165
-0.019589042
-8.253783E-4
0.01839955
0.02289298
-1.6922258E-4
-0.024329685
-0.028865188
-0.02894847
-0.038579434
-0.02991979
-0.0025529794
0.0063071745
0.0066668503
0.003441589
-0.0051197964
-0.007587552
-0.015995745
-0.025110478
-0.03565928
-0.035470482
-0.014868719
-0.018528022
-0.0076863174
0.0542368
0.092492275
0.097338066
0.09813284
0.08214358
0.047046337
0.005252684
-0.026069753
-0.046886347
-0.065698765
-0.07704037
-0.06307808
-0.0322235
-0.019182162
-0.009318727
0.0036456983
0.00517084
0.0070186513
0.0037917069
0.025543319
0.05959331
0.040470354
0.0181441
0.01473843
-0.0011767946
-0.004181412
-0.0058524823
-0.014277349
-0.020324081
-0.021451846
-9.899285E-4
0.007984316
-0.0019797839
-0.001738821
-0.004349397
-0.015837578
-0.04196141
-0.06368896
-0.046500824
-0.023874106
-0.011989748
0.015855547
0.035024703
0.01612767
-0.0037892764
0.0018784418
0.01115973
0.024495196
0.03933995
0.042287797
0.04683231
0.04696348
0.033567186
-5.0461385E-4
-0.0450483
-0.032801002
0.017435012
0.013667285
-0.026336377
-0.04500005
-0.048151348
-0.04496521
-0.019301467
-1.61377E-4
-0.02492291
-0.024059523
0.03009946
0.035957627
-0.0023905647
0.011440146
0.053643376
0.049206153
0.021260863
0.029864196
0.04309326
0.02317772
0.017795147
0.02085279
-0.0027183827
-0.0171354
-0.016971454
-0.0056067104
0.016090916
-0.0026056194
-0.039768115
-0.043360867
-0.036241356
-0.039436568
-0.058401916
-0.067848235
-0.048746664
-0.039500117
-0.03399167
-0.017242258
-0.006575019
0.016770665
0.04096341
0.03325056
0.014645782
0.0054509346
-0.003878814
-0.015051144
-0.015559457
-0.013245987
-0.010744787
0.007029873
0.027240861
0.056578744
0.10236499
0.1165623
0.085481584
0.03178944
-0.017057505
-0.02032739
-0.00500783
-0.024138482
-0.051363867
-0.04220664
-0.012092068
0.0010386453
-2.8424856E-4
-0.0015567048
-0.0051600174
9.1049273E-4
0.017738866
0.015695393
-0.0074219657
-0.015526099
-0.0034970106
-0.0048525045
-0.017747568
-0.016821627
-0.008090461
-4.653103E-4
0.0036203563
-0.005709021
-0.01715124
-0.01225657
0.0023742274
0.013019667
0.015039109
0.015079771
0.009005907
-0.0103815235
-0.018588528
-0.023975091
-0.05000774
-0.063998386
-0.056535408
-0.026900025
0.025822338
0.04752609
0.039823204
0.041229535
0.037689075
0.020070767
0.0024820445
6.2315445E-4
-0.009540717
-0.0133483345
0.043139443
0.07877052
0.048142787
0.022787414
-0.0033745836
-0.028986888
-0.032705102
-0.03382151
-0.026748229
-0.02216482
-0.03510407
-0.057838116
-0.06220987
-0.015200347
0.03535035
0.04380919
0.042938218
0.050661277
0.0545182
0.046021666
0.019501325
-0.019934755
-0.039643552
-0.032889552
-0.023963375
0.0032820967
0.039738446
0.05199728
0.04589644
0.029524941
0.029524127
0.026363093
-0.017101146
-0.035994366
-0.03050044
-0.05670053
-0.07799799
-0.06923201
-0.03228381
-0.0018861933
-0.019282851
-0.017488882
0.031339146
0.064003594
0.06640597
0.0478993
0.026680054
0.010777626
-0.01362767
-0.025224872
-0.02905976
-0.027898453
0.0015035006
0.010406961
-0.013278436
-0.04086345
-0.087420166
-0.09545518
-0.033088356
0.009917476
-0.007275874
-0.034781408
-0.028331423
-0.011108666
0.007682909
0.057513587
0.09400366
0.08763986
0.068191856
0.042182818
0.022015568
0.005681048
-0.0067576813
0.002998759
0.016002387
0.026008895
0.03912468
0.043453027
0.042104986
0.043219954
0.043843947
0.036962647
0.008826808
-0.050494958
-0.082882605
-0.057371985
-0.054862376
-0.07030627
-0.06966858
-0.084288746
-0.06268509
-0.015989456
-0.017649787
-0.018785592
0.012484953
0.019941775
-0.027030988
-0.034588385
0.050167486
0.07994502
0.017151065
-0.018340059
-0.008080389
0.009360834
0.009443614
-0.0035387524
-0.0012597066
0.023605466
0.042447064
0.03129908
0.04299966
0.07063509
0.04719016
0.00999212
-0.017355952
-0.018529573
0.02112166
0.021112923
-0.018085686
-0.040188372
-0.037521627
-0.014390088
-0.031725146
-0.08623644
-0.11681863
-0.118134685
-0.06989909
-0.012761264
0.013228434
0.059866484
0.07423735
0.020245688
0.015409302
0.07262028
0.098112136
0.08363497
0.06494512
0.049695347
0.026034687
-0.002900649
-0.0072098244
0.009104404
0.022716664
0.040847912
0.047204517
0.025757361
0.0017348125
-0.023149783
-0.044692688
-0.043959513
-0.044771615
-0.057243835
-0.06497184
-0.070601635
-0.078631446
-0.08591733
-0.075829834
-0.05787725
-0.05206785
-0.037731268
-0.025885768
-0.008674765
0.050833333
0.095794916
0.096968524
0.08194962
0.049851667
0.02961762
0.02184365
0.013271028
0.018883836
0.015357818
0.0107120685
0.024825731
0.034206722
0.032300226
0.027457807
0.026114525
0.012770416
-0.008855413
-0.01942955
-0.040032607
-0.0575118
-0.04866011
-0.023464195
-0.017292779
-0.046635557
-0.031769816
0.019974481
0.04366469
0.05945353
0.0340737
-0.0015856279
0.0020932695
-0.0063023507
-0.0064916443
-0.026682276
-0.0655491
-0.018169267
0.058556058
0.089876615
0.07170161
0.027428355
0.022210445
0.006685658
-0.041262623
-0.078245185
-0.11879158
-0.10469491
-0.019876342
0.05496668
0.08896487
0.08192959
0.06680358
0.04504846
-0.014420363
-0.07458091
-0.10230499
-0.09874005
-0.08047783
-0.06535755
-0.027340988
0.030044293
0.058433186
0.04906411
0.023015078
0.01725685
0.039577246
0.03252965
0.0077666733
0.024074357
0.04505983
0.040244993
0.017299222
-0.017171625
-0.026016513
-0.02841946
-0.0327317
0.009313373
0.046470277
0.04165585
0.045538086
0.05124438
0.041742984
0.024839377
-0.016002722
-0.054660995
-0.0620088
-0.088377215
-0.112273194
-0.060195066
-0.011693144
-0.022520553
-0.0010426794
0.061078362
0.07146185
0.016681653
-0.014797424
0.013279834
0.048681226
0.0542695
0.005261834
-0.06580751
-0.08768185
-0.06274456
-0.01815647
0.011695103
0.014192205
0.021064084
0.02585157
0.009277019
-0.019533006
-0.008731837
0.04544705
0.04511914
0.008857197
0.015334804
0.022450594
0.0034412583
-0.017217198
-0.021084696
-0.011150485
-0.004659738
0.0116778435
0.024223045
0.015066976
0.01530632
0.025365504
0.027605496
0.019141166
-0.009506977
-0.040956493
-0.06275295
-0.097385876
-0.09525103
-0.017861644
0.025277115
-1.5263929E-4
-0.013633164
0.0064598904
0.06437697
0.10607803
0.08364785
0.061839283
0.058159143
0.043680184
0.02454264
0.013519297
-0.014145109
-0.06322755
-0.04621227
-0.00263335
-0.013852616
-0.028712152
-0.07850129
-0.10576805
-0.04427327
-0.047463883
-0.058235392
0.011058382
0.019923486
-0.0036357183
0.007980665
0.0068998225
-0.0066186725
-0.015250466
0.012510333
0.06606806
0.094632015
0.09248038
0.05413964
0.012639171
0.014172882
0.022891559
0.011372557
0.0023243905
-0.009734813
-0.040440384
-0.060408626
-0.05187755
-0.042706665
-0.04610595
-0.04835816
-0.039888445
-0.031866807
-0.030712191
-0.026333805
-0.025481312
-0.023078138
-0.0032627787
0.020535994
0.03812589
0.053865843
0.07318819
0.090674646
0.09497715
0.0954954
0.09322345
0.080506206
0.058944333
0.022820415
-0.0098269265
-0.014265386
-0.0119959
-0.021150254
-0.027636193
-0.03665234
-0.046827473
-0.038020812
-0.055596974
-0.11697287
-0.14251876
-0.12355875
-0.08719146
-0.022149237
0.02722333
0.038814235
0.034565724
7.852235E-4
-0.046859816
-0.07146173
-0.054059416
0.006974919
0.06941887
0.09599307
0.08502879
0.06227327
0.04023934
-0.0011247833
-0.011159618
0.048202194
0.09219605
0.083579116
0.061783176
0.038901296
0.023014437
0.018608108
0.011240711
-0.01286725
-0.034170102
-0.027604826
-0.021940885
-0.025307387
-0.02353564
-0.040087994
-0.056261968
-0.048674215
-0.04623249
-0.051323418
-0.05277933
-0.04437599
-0.026322292
-0.017052082
-0.011451609
-0.009596588
-0.010119719
0.0031101631
0.0057735513
-0.0032105325
-4.4048537E-4
0.0049588936
0.015897369
0.033397056
0.05551335
0.069261365
0.050258994
0.03882757
0.04467263
0.025930393
0.013414199
0.018490369
0.015621252
0.02996293
0.04285174
-0.0022016482
-0.07370477
-0.1017092
-0.061414722
0.02123885
0.056656312
0.013250624
-0.024361184
-0.04040225
-0.059972405
-0.054387677
-0.04326034
-0.042257566
-0.013121807
0.03320924
0.03915806
0.023128485
0.04829047
0.051401287
0.0022545536
-0.0024747176
0.005429989
-0.041300576
-0.08667119
-0.06185212
0.0097194575
0.021143237
0.0038995515
0.034018997
0.042915136
0.041412465
0.05704053
0.029891532
-0.01800123
-0.023637617
0.019111676
0.040243417
0.017339153
0.006429635
-0.008565619
-0.031251773
-0.0384787
-0.027692847
0.004109418
0.0067991563
-0.0038326946
-0.007757914
-0.031200262
-0.0075661107
0.010553598
-0.047689702
-0.06702235
-0.04118548
-0.031303264
-0.017904546
2.9622042E-4
0.03405563
0.07679763
0.08563482
0.058962345
0.03867439
0.023280894
-0.011930511
-0.0024798878
0.05190369
0.052559726
0.023059515
0.019405365
0.014404818
-0.012650003
-0.04517361
-0.061353594
-0.06600173
-0.055636816
-0.027282996
-0.012091881
-0.011953451
-0.011872479
-0.019638097
-0.027137782
-0.019736094
-0.012209484
-0.014503381
-0.010794602
-0.009533975
-0.004638964
0.032815643
0.055167135
0.03658465
0.028997255
0.036973454
0.04314943
0.03483368
0.010701945
0.005735833
-0.004261832
-0.041644003
-0.04697958
-0.020138029
-0.01666705
-0.031617932
-0.019853039
0.016725147
0.022946661
-0.0015156881
-0.00937423
-0.0034952718
-0.008470516
-0.013488322
-0.0036724943
-0.00882022
-0.027713768
-0.012518658
0.011343175
0.023514139
0.048959486
0.059313416
0.05746739
0.0683416
0.064207286
0.031464674
-0.024407625
-0.061607737
-0.03782654
0.002087774
0.017480323
0.023238838
0.018790578
-0.0072418987
-0.037118547
-0.052643046
-0.060560133
-0.06354345
-0.050483122
-0.014225353
0.00799316
-0.009287951
-0.016110273
-0.019682372
-0.04030257
-0.019127095
0.012382616
-0.010701878
-0.047954537
-0.05545849
-0.04020393
-0.01595091
0.033663478
0.09223637
0.10417483
0.08109419
0.055688974
0.021473542
-0.012471936
-0.004626882
0.026914464
0.011664743
-0.010567832
0.0047823205
0.009606708
0.0073065627
0.008231932
0.021623485
0.062354323
0.07350557
0.04104271
-0.007820961
-0.04656559
-0.03805912
-0.02312537
-0.02820184
-0.030418241
-0.03324053
-0.026360784
-0.029727977
-0.048084468
-0.035430595
-0.019472823
-0.030626807
-0.031635728
-0.009944416
0.0056993747
-0.011654109
-0.034771964
-0.012560893
0.022559045