4.0485777E-4
-0.0017637371
-0.003062407
-0.0023908052
9.1670995E-4
0.002129406
0.0013591379
9.4075094E-4
5.1557523E-4
5.68874E-4
-2.5918282E-4
-6.279943E-4
3.3614933E-4
-6.565395E-4
-0.0017235472
-9.423356E-4
1.3987916E-4
0.0023896932
0.0045514256
0.0030905406
-3.3203344E-4
-0.0016761001
-0.0017483315
-0.001965695
-0.0013684958
-2.6022544E-4
1.460644E-4
-7.0739223E-4
-1.3558794E-4
0.001349609
-5.5752066E-4
-0.0018628514
-0.0011904814
-0.0022584277
-0.0020883393
-7.7124365E-4
5.186232E-4
0.0024431075
0.0022095323
0.001251109
5.9101125E-4
-6.6287076E-4
-6.871017E-4
-8.16191E-4
-8.761249E-4
9.805923E-4
0.0024154144
0.0016946511
0.0010225718
0.0021246304
0.0018720469
2.8390656E-5
-4.6161687E-4
-7.5937406E-4
-8.58319E-4
-0.001176102
-0.0017237895
-5.519097E-4
-5.3223234E-4
-1.8737873E-4
0.0015795776
-3.1905636E-4
-0.0010678899
1.1369338E-4
-0.0029003932
-0.003266763
1.8034174E-4
8.174067E-4
0.0018327811
0.0029838004
9.324905E-4
-9.0382714E-4
-4.973019E-4
3.367822E-4
-1.4303673E-4
-2.0945983E-4
5.56476E-4
-4.6690005E-8
8.790103E-4
0.0016911984
-5.7128153E-4
-0.0012063546
-0.0016635038
-0.0031260042
-0.0013326078
7.0221775E-4
0.0016860669
0.0025308023
0.0014150422
5.561282E-4
3.6559405E-4
-7.145502E-4
-0.0014929491
-0.001315508
-5.7619746E-4
5.77532E-6
8.3901867E-4
0.001546319
0.0017720821
0.002498066
5.381774E-4
-0.0034316618
-0.0023739424
0.0012537675
9.096879E-4
-6.484515E-4
-4.2726693E-4
1.9809155E-4
0.0016018833
0.002387107
1.8476552E-4
-0.002541088
-0.002986602
-0.0014620653
-7.3696737E-4
-0.0013830074
-2.371485E-4
0.0016127802
0.0026225045
0.0035089897
0.0014748968
-0.002392321
-0.0026006573
-5.754518E-4
-0.0012580974
-0.0020930124
1.434655E-5
0.0019098924
0.0034171809
0.00234733
-0.0020261293
-0.0016111302
5.0280883E-4
-1.0890293E-4
1.4956105E-4
-0.002053219
-0.0030424984
5.081421E-4
0.0024064726
0.0028287421
9.034235E-4
-8.235753E-4
3.1690762E-4
-0.001521519
-0.0020790633
3.4932228E-4
7.924338E-4
0.0021117094
0.002546649
9.999819E-4
7.98197E-5
-5.982491E-4
-1.3217326E-4
-0.0010736015
-0.002216491
-8.403112E-4
-0.0014350943
-0.0013178888
0.0017877426
0.0027201194
0.0016690625
-7.653407E-4
-0.0035862362
-0.0029756909
-7.41269E-4
-8.4979394E-5
-3.2528935E-4
2.5053948E-4
0.002096045
0.0029952684
0.0012668564
-0.0014801916
-0.002200561
-7.316759E-4
-7.064499E-5
4.072664E-5
7.785484E-4
0.0012516964
0.0027143902
0.004042448
0.0028096838
3.3565742E-4
-0.0020347834
-0.0028894243
-0.0035101783
-0.004171908
-0.0010602097
0.0024398887
0.0038757687
0.0048207664
0.002264072
-7.5106276E-4
-0.0020088458
-0.0037391335
-0.0024294872
-2.1674964E-4
-4.9634697E-4
2.821363E-4
0.002109467
0.0019764053
-6.708991E-4
-0.002133137
-0.0017731774
-0.0021562455
-8.3726586E-4
6.706402E-4
5.806976E-4
0.0012350081
5.9933274E-4
6.3858395E-5
1.9736913E-4
-0.0017022693
-0.002337362
-0.001847662
-0.0012412866
8.675344E-4
0.001127486
7.67034E-4
0.0027411033
0.0035585486
0.002084336
7.7671494E-4
-8.597729E-5
-0.0012463762
-8.2310673E-4
0.0015353375
0.0025378235
0.0019923674
9.211976E-4
1.3828796E-4
8.3695457E-4
-9.736414E-5
-0.00244013
-0.0027700793
-0.0027344269
-0.0013698249
8.6621544E-4
6.201756E-5
-2.4557576E-4
6.347025E-4
-3.8334858E-4
-0.0012838736
-0.0026887713
-0.003930414
-0.0020727564
-1.3836093E-4
1.2748258E-4
0.0012276737
0.0030094641
0.002500328
8.644155E-4
5.9597753E-4
-1.314709E-4
7.3210445E-5
9.430329E-4
-1.6951602E-4
5.843083E-4
0.0020530752
0.0017209747
0.0020292837
0.0016392823
6.2805036E-4
-0.0012509755
-0.0027389273
-0.0012472481
-0.0018445249
-0.0024087525
5.4607808E-5
2.7877046E-4
6.126635E-4
5.214434E-4
-0.001867991
-0.002205564
-0.0018714201
-4.8501045E-4
0.0010913993
2.36708E-4
0.0015637507
0.0027800773
0.0016430536
0.0015690005
-4.0160325E-5
-0.001894112
-0.0023145373
-0.0028962381
-3.3607992E-4
0.0022600351
0.0015383911
0.002504905
0.0031938257
0.0011647961
4.7504902E-4
-1.8597282E-4
-0.0019944438
-0.0019232166
-8.2672463E-4
2.165708E-4
0.001278906
6.786072E-4
-1.794155E-4
-6.53518E-4
-0.0032699355
-0.0041684094
-0.0012736339
-2.968533E-4
3.19565E-4
0.0023141669
0.0014125413
0.0019053251
0.004806597
0.002805971
-0.0011573611
-0.0025103805
-0.0035628635
-0.0037945493
-0.0019150338
-3.104859E-4
5.8255213E-5
0.0017599599
0.0028285596
5.9041375E-4
-3.7315782E-4
-1.9895796E-4
-0.0011207398
-3.5672306E-4
2.81636E-4
5.43426E-4
0.0019298393
0.002008006
0.002174509
0.0015502176
-0.0012154365
-0.001977216
-0.0016129938
-8.814607E-4
9.186523E-4
2.3058787E-4
-4.4091052E-4
0.0019810316
0.0031611805
0.0012913113
-0.0016267856
-0.0029945394
-0.002128422
-0.001413914
-0.0013208401
-0.0011058638
-3.04016E-4
4.5920422E-4
-4.665354E-4
-5.614476E-4
7.891165E-4
4.0031076E-4
1.9819528E-4
8.024664E-4
-1.855132E-4
-1.5482464E-4
0.0022748478
0.0034103568
0.0025086186
0.0016851069
-2.5160692E-4
-0.0018937502
-0.0010210929
-0.0019359065
-0.0026072268
3.2847218E-4
0.001985887
0.003300525
0.0040330524
9.7058224E-4
-0.001503934
-0.0019710737
-0.0019846447
-0.0025088782
-0.0035466084
-0.0025414948
-0.0014039733
-8.9733236E-5
0.0021892388
0.0014488626
-2.9230159E-4
-7.0861354E-4
-0.0013226828
-0.0019494342
-0.0020371047
-6.819807E-5
0.002210832
0.0022009064
0.0015411136
0.0013861744
0.0012538648
2.3136433E-4
-1.3614193E-4
3.967556E-4
2.766758E-4
0.0018974574
0.003279285
0.0025735155
0.0023836694
3.4382203E-4
-0.0022143738
-0.0018368862
-9.361083E-4
-0.0010843752
-0.001850927
-0.0016805637
-0.0014500647
-0.0014469113
7.050215E-4
0.0017079551
-2.2637831E-4
-0.0026394143
-0.0038410444
-0.0023720397
-8.4555947E-4
-3.042153E-4
5.8554485E-4
0.0010015455
0.0017793555
0.0025337792
0.0021758433
5.234219E-4
-0.001180657
-3.0224057E-4
5.081854E-4
4.3236258E-4
0.0016344468
0.002032026
0.0020115594
0.0018870975
0.001258681
0.0010528245
-7.396671E-4
-0.0013119678
0.0011625097
9.370867E-4
-0.0015921155
-0.0024869242
-0.0023019754
-0.0020138973
-0.001532427
-9.6243754E-4
-0.0018387149
-0.0033409686
-0.0019062432
0.0013008534
0.0025851608
0.001922098
0.0010732876
1.4710237E-4
-9.484489E-4
-5.699155E-4
4.4473706E-4
-3.518329E-4
-0.0014607507
-7.6654006E-4
0.0012088247
0.0023376641
0.001966353
0.0021179114
0.0019502905
8.1672415E-4
5.6852336E-4
6.3691885E-5
-5.167637E-4
-6.652241E-4
-5.1418843E-4
0.0016705986
0.002201753
-1.5001299E-4
-9.682915E-4
-0.0010891824
-9.375533E-4
-6.705387E-4
-0.0015322011
-0.0014189957
-6.8164367E-4
2.9969284E-5
7.608572E-4
4.4675664E-5
-0.0013473989
-0.0016336831
-6.900823E-4
-0.0013000305
-0.0018608917
3.6208556E-4
4.193176E-4
-3.4480854E-5
0.0019213245
0.0019615216
0.001397274
9.959579E-4
7.5052184E-4
0.0013706692
-1.061451E-5
-2.0898617E-4
9.932107E-4
5.829238E-4
0.0022732806
0.0025367711
-0.0018138349
-0.0038990518
-0.002445041
-0.0010183258
-7.628687E-4
-0.0011999613
2.2773416E-4
0.002203419
0.0012958945
8.220937E-4
6.409613E-4
-0.0020143946
-0.0013693764
1.0608179E-4
-0.0026939467
-0.0021155982
0.0010986939
0.001956986
0.0026525208
0.0020572832
0.0011199232
9.778026E-4
-1.7462243E-4
-0.0011743843
-6.8722613E-4
8.9138653E-4
8.082279E-4
5.370058E-4
0.0011566756
-0.0010888315
-0.0015791616
-1.5438E-4
-0.0015283559
-0.001158914
-2.103609E-4
-9.718504E-4
-8.5146993E-4
7.443317E-5
0.0016656233
6.9583947E-4
-0.0010050912
3.513588E-4
3.7263593E-4
-7.158128E-4
-0.001511509
-0.0014550376
0.001656097
0.0028406717
9.845957E-4
3.7431516E-4
4.6411905E-4
3.7154055E-4
-1.02860664E-4
-3.8436044E-4
-1.8629114E-4
-6.757321E-5
9.6509577E-4
0.0018224769
0.0011789274
6.1954395E-4
3.2777694E-4
-0.0015469219
-0.003274478
-0.0016371325
2.2769542E-5
-0.0014454486
-0.002466644
-5.086451E-4
0.0013351426
4.9435446E-4
4.0815154E-4
7.335783E-4
-0.0011692127
-0.0010546809
2.1191969E-4
2.786746E-4
9.020863E-4
4.7991605E-4
0.0010709552
0.0022606587
8.3158567E-4
3.5923837E-5
-5.971912E-4
-0.0011756974
-7.226881E-4
-0.0016415179
-8.66718E-4
0.0017478336
0.0027526622
0.002408245
0.0011395518
4.8684262E-4
-0.0017049526
-0.0049844645
-0.0032935152
-7.79586E-4
-0.0012166543
2.494622E-4
0.0025907366
0.0023821562
7.9259544E-4
-6.879337E-4
-0.0011310211
-5.616772E-4
5.9935614E-5
0.0013519499
0.002553653
0.0019278686
0.0011549882
9.632891E-4
0.0011533243
6.317062E-4
-0.002130776
-0.0025755526
-9.423239E-4
-0.0012634147
-3.3415065E-4
9.020611E-4
8.48457E-4
2.508149E-4
-0.0016695515
-9.777587E-4
-6.0363143E-4
-0.0031490955
-0.001728495
7.4425194E-4
9.248533E-4
0.0013692611
0.0012125466
0.0019342913
0.0014660615
-0.0015363029
-0.0015127094
3.4370187E-5
-2.261253E-4
8.53686E-5
0.0012434842
0.0018489592
0.0019455968
0.0016968037
8.4316765E-4
-6.017532E-4
-0.0015201826
-9.791857E-4
-8.307007E-4
-5.621503E-4
0.0016066355
4.3552573E-4
-0.002283237
3.7172466E-4
0.0012941024
-0.0018199526
-0.00163441
4.718682E-4
0.0019726378
0.0019628413
3.4799075E-4
7.00227E-4
0.0026376708
0.0038938546
0.0023619132
-0.0029598307
-0.006666055
-0.005859542
-0.003861602
-0.0018485406
9.540654E-5
0.0011944516
0.002390647
0.0027144938
4.584786E-4
-9.103584E-4
8.713611E-5
3.8324783E-4
-4.3131897E-4
-0.001371226
-5.1051483E-4
0.0016396509
0.0015392953
0.0012721282
0.0021574986
0.0014672917
6.019505E-4
4.0886796E-4
-6.027616E-4
-0.0017268759
-0.0027544205
-0.0035481907
-0.0018224769
0.0014947504
0.0022659756
0.0015002247
0.0021564735
0.0026971945
0.0016045773
-5.5658777E-4
-0.0022223569
-0.0015554611
2.8551958E-4
2.0570417E-4
-7.3630764E-4
4.5577294E-4
9.560193E-4
-1.5924529E-4
0.0010100004
0.0022566614
0.0025686927
0.003997104
0.0022444306
-0.0023426558
-0.0030137622
5.619023E-4
0.0033820563
0.0024333217
4.7381604E-5
-0.0011873877
-0.0021174855
-0.0026199038
-0.002950756
-0.004104643
-0.004918593
-0.0052286065
-0.004921855
-0.0033347905
-0.0030173366
-0.0038733725
-0.0021986344
7.497066E-4
0.0020555106
0.0017645994
5.8815157E-4
-2.381436E-4
-1.2622547E-4
-6.632108E-5
-0.0012806122
-0.0016549883
0.0015825508
0.004345395
0.0032912344
0.0020595447
0.004570698
0.009073106
0.008842591
0.0053495653
0.004701425
0.0044005155
0.004331597
0.0055219857
0.004081611
0.001128103
-0.0023586522
-0.00829245
-0.014193858
-0.016051259
-0.012502743
-0.005517836
-9.804908E-5
4.8716503E-4
0.0020948441
0.0077212974
0.008501412
0.0043062973
9.652225E-4
-0.0019432378
-0.0017157447
6.4683336E-5
-4.4470717E-4
3.3518867E-4
0.0015023242
9.923192E-4
-3.0729422E-4
-0.0030882836
-0.003632307
-0.0013062303
-0.0013426285
-0.0026274228
-0.002036506
1.215547E-4
0.0029126795
0.0050551333
0.0066793403
0.005362587
-3.9648998E-4
-0.0020240857
9.6060324E-4
6.722492E-4
0.0025382335
0.0047304453
-7.239672E-4
-0.0038087547
-0.0017851768
-2.8683268E-4
0.0014789248
1.430803E-4
-7.2858616E-4
0.0011167495
-1.3841217E-5
-0.0012684998
-0.003439747
-0.005493221
-0.006756926
-0.018892776
-0.034066055
-0.035049133
-0.023290263
-0.0057379273
0.011933002
0.028598158
0.039981294
0.04211932
0.039699085
0.03140133
0.023160705
0.02143942
0.01730139
0.0065116505
-0.015077196
-0.036522724
-0.03628784
-0.025407843
-0.015273283
-0.0033757165
0.003761971
0.0069416715
0.0068232664
2.8529632E-5
-0.009766978
-0.01874391
-0.025422579
-0.033232417
-0.038223688
-0.032726023
-0.02201832
-0.007562442
0.009465399
0.021008415
0.026653128
0.028722346
0.028778203
0.02776107
0.024724847
0.018957004
0.009681864
0.0017408009
0.001893991
0.008908066
0.013295343
0.009599634
0.0053654276
0.0058402214
0.0068761627
0.004836044
0.0012611444
-0.0034430563
-0.011480056
-0.014704108
-0.011419438
-0.009374161
-0.006642978
-0.011762916
-0.021977613
-0.016817058
-0.0087665
-0.0094523635
-0.006449213
7.875831E-4
0.008474889
0.014415684
0.014027665
0.004718715
-0.008553244
-0.01730838
-0.026990773
-0.03933374
-0.045704123
-0.043341026
-0.030886643
-0.013507962
0.005289298
0.022014651
0.026744056
0.025787972
0.022445971
0.013459106
0.0061999485
-0.002534463
-0.011087591
-0.008698181
0.0018928335
0.015284309
0.026359102
0.03597787
0.053497277
0.07577387
0.08541265
0.081392564
0.0760542
0.056502894
0.023810877
0.004028717
-0.011717587
-0.032197364
-0.050215773
-0.06632913
-0.067540966
-0.05751297
-0.057502322
-0.069605604
-0.07721547
-0.057309806
-0.020181036
0.0113133695
0.032041162
0.034170303
0.028398931
0.015100227
-0.027061088
-0.07294676
-0.08972151
-0.09172012
-0.09560155
-0.09498025
-0.07874396
-0.046657525
-0.012556597
0.021267423
0.0657992
0.102079965
0.10829853
0.09002944
0.05103753
0.017721863
0.011858644
8.0413313E-4
-0.028369803
-0.049095042
-0.04615814
-0.01763485
0.0154643785
0.032715578
0.058651134
0.096991435
0.12120444
0.15270776
0.17276593
0.14573315
0.1252506
0.11346759
0.096248955
0.072946355
-0.027245337
-0.14785007
-0.22240072
-0.2946423
-0.29832143
-0.23619153
-0.18263184
-0.08778041
0.04193049
0.14646597
0.19583127
0.19317046
0.16656925
0.08248932
-0.041226987
-0.15547948
-0.25355327
-0.2526622
-0.15224938
-0.0604251
0.009498793
0.057427805
0.06468442
0.057583258
0.060880262
0.08981772
0.13408737
0.15352596
0.1357981
0.08566275
0.005047067
-0.07697929
-0.14151816
-0.18621811
-0.17854108
-0.116477706
-0.05212877
-0.014292746
0.014911957
0.04968089
0.063097075
0.04418386
0.021063417
0.010825037
0.026957568
0.085761465
0.17896175
0.26028085
0.29312238
0.27978683
0.20131242
0.04961828
-0.12372737
-0.258541
-0.30466747
-0.24699768
-0.13432285
-0.03273929
0.049445312
0.14319909
0.22208741
0.22347315
0.14488216
0.035589796
-0.09838334
-0.26637018
-0.40199503
-0.45411628
-0.411888
-0.28252795
-0.14146692
-0.014992616
0.08666159
0.11824402
0.14300074
0.16476415
0.116388164
0.08342583
0.107324876
0.11538087
0.09574921
0.056334615
0.023128387
0.038328126
0.06715814
0.0815022
0.10767629
0.11428448
0.077856354
0.043736655
0.009013715
-0.024875443
-0.016233869
6.419357E-4
-0.0066875373
-0.0071249325
0.0047055916
0.011064542
-3.3979036E-4
-0.028574627
-0.056453824
-0.089413725
-0.12775533
-0.12366144
-0.056353774
0.017348217
0.041150123
0.036382943
0.050552696
0.05641118
0.015869815
-0.032461017
-0.059334908
-0.073050626
-0.082947865
-0.09949201
-0.107857324
-0.109177046
-0.12319328
-0.1295176
-0.099946246
-0.03548761
0.016987622
0.037449665
0.060147926
0.057021618
0.017564133
0.0072904197
0.04498219
0.10977401
0.16932693
0.21226887
0.24666253
0.2400399
0.20399807
0.17212814
0.12150321
0.054954514
0.0011864159
-0.02999078
-0.05297689
-0.06254571
-0.043956377
-0.060586087
-0.10875695
-0.13296297
-0.17172739
-0.177678
-0.14237748
-0.18191136
-0.23575136
-0.2351561
-0.20629993
-0.11025858
-0.0068555977
0.02150394
0.021432437
0.028005773
0.048724648
0.07547652
0.09280149
0.10971749
0.11998254
0.12354476
0.12440979
0.11473381
0.09982239
0.08014834
0.05997768
0.047253255
0.038716275
0.034243144
0.032110315
0.03309382
0.033856437
0.026605515
0.016507125
0.0059015513
-0.0016633508
-0.0028055673
-0.0052961935
-0.007938003
-0.00809754
-0.0067874836
-0.003112301
-0.0022059863
-0.0030534102
-0.0024934006
-0.0028468762
-0.003227081
-0.006653489
-0.0146986125
-0.023374407
-0.029528892
-0.0303045
-0.030083999
-0.03186265
-0.032607835
-0.032187335
-0.028665144
-0.025325168
-0.0259735
-0.025994627
-0.024949482
-0.024035854
-0.024413168
-0.023298016
-0.017105313
-0.013659572
-0.011270079
-0.008379617
-0.014677048
-0.023209415
-0.027537812
-0.029622952
-0.027124805
-0.019099185
-0.0073529566
4.899432E-4
0.008397592
0.024954101
0.038956262
0.047952592
0.058597438
0.07220125
0.091333576
0.108858064
0.124522425
0.14402497
0.14979525
0.13112499
0.10110479
0.064147696
0.028351484
0.015499149
0.021694904
0.019991312
-0.011894053
-0.06514833
-0.100453734
-0.122705564
-0.1537956
-0.16835687
-0.16638647
-0.16091932
-0.1416156
-0.1290145
-0.12767886
-0.10929355
-0.079674274
-0.056785744
-0.037937317
-0.015934251
0.0065203747
0.023206305
0.040086523
0.065589644
0.096336514
0.12539834
0.14725886
0.15411687
0.15004419
0.13770695
0.10356596
0.068063624
0.055011358
0.037642688
0.010751326
-0.005204241
-0.013706237
-0.020825267
-0.032119177
-0.045559667
-0.05320621
-0.061406426
-0.0680916
-0.0661399
-0.0597151
-0.050535448
-0.04026333
-0.03187663
-0.025152247
-0.021665907
-0.021498676
-0.018559564
-0.010390478
-0.0019603553
0.0049871583
0.01059767
0.014305674
0.017728897
0.020175027
0.021083068
0.02117408
0.019690417
0.018132342
0.017501602
0.015324057
0.012122747
0.011112219
0.01005175
0.008320088
0.009578889
0.0102696465
0.008356524
0.0065253205
0.004992025
0.004407906
0.0033211443
0.0038566538
0.0058351113
0.0021612542
-0.0027518906
-0.0066193957
-0.01312493
-0.016938455
-0.017247304
-0.015498429
-0.013834035
-0.015573921
-0.014521938
-0.010936308
-0.008629469
-0.0048287627
-0.0021331566
6.020045E-4
0.006253191
0.010041195
0.011203438
0.012302658
0.014141049
0.014649656
0.0118391765
0.010221664
0.011200151
0.012302184
0.01526614
0.017977774
0.017497571
0.01718277
0.016709734
0.013869925
0.012138113
0.012260591
0.010931722
0.008698026
0.0072822035
0.0057554645
0.0043636695
0.0034706725
4.7801866E-5
-0.0045710583
-0.005300021
-0.0047930605
-0.0047489246
-0.0018170482
6.11694E-4
2.0921111E-4
1.7374304E-4
4.1425603E-5
-4.6190766E-5
9.591533E-4
8.3502673E-4
-1.6783937E-4
-5.366076E-4
-1.0582525E-4
0.002259645
0.0046238545
0.0048195673
0.004781239
0.0040111416
0.0019284317
3.552212E-4
-5.33662E-4
2.4727464E-4
0.0020832994
0.002634048
0.0017163557
2.9341906E-4
9.851592E-4
0.0017003006
5.056237E-4
0.0014801736
2.918783E-4
-0.00401478
-0.0025208765
0.0021668142
0.0037967407
0.0019505005
-8.022637E-4
-7.0288364E-4
-9.436889E-4
-0.0020205085
-9.4436953E-4
-5.9785147E-4
-0.0018722882
-0.003863003
-0.0035431725
-8.166123E-4
-0.0017548531
-0.0023893
-7.093339E-4
-0.0022318014
-0.0028904737
-0.0020851293
-0.0027351095
-0.0022008643
-0.002478491
-0.002794223
-3.5642704E-4
6.2260864E-4
-3.575218E-4
-0.0012047377
-0.002688751
-0.002746484
-2.7030948E-4
0.00172738
0.0027766174
0.0039624753
0.003841913
0.0025030398
0.00142312
6.916902E-4
-1.9950511E-4
-0.0019969672
-0.0019714013
-2.8585983E-4
-0.0025584174
-0.00451905
-0.0013875401
3.544962E-4
-8.5047545E-4
-0.0018308382
-0.002389507
-0.0021684465
-0.0025157551
-0.0036071301
-0.002762078
-6.5723323E-4
-8.253068E-4
-0.0021798534
-8.171743E-4
4.71634E-4
-0.0014696674
-0.0034082881
-0.0034672336
-0.0020848333
-2.4497794E-4
0.0011563324
0.0024582606
0.001602899
-0.0013491401
-0.0014548631
3.9805574E-4
-5.3054653E-4
-0.0012103146
5.028306E-4
1.6254996E-4
-3.479096E-4
0.0017462926
0.0023669007
0.0012714763
4.7780058E-4
1.241154E-4
3.0100136E-4
5.4178934E-4
0.0011389857
2.1909227E-4
-0.0015601297
-8.8327605E-4
-5.641859E-4
-0.0010502723
-6.6651514E-4
-0.0014235823
-0.0019914745
-0.0014036882
-0.0011888248
-0.0016677772
-0.002521603
-0.0020371075
-6.6830084E-4
-5.118846E-4
-0.0015688454
-0.0028414628
-0.002914408
-0.0019228408
-8.346628E-4
-3.5126525E-4
-7.2010886E-4
-5.9399783E-5
0.0011131993
2.6763658E-4
-7.234913E-4
-2.5118707E-5
4.7065965E-5
-6.4913795E-4
-1.5478232E-4
1.3448356E-4
-4.452665E-4
-3.3425455E-4
0.0010689257
0.0029115265
0.001966626
-5.5948977E-4
-7.019898E-4
-8.6277846E-4
-0.0011314313
-2.0743982E-4
-6.481801E-4
1.6790579E-4
0.002345638
8.460324E-4
-0.0018367119
-0.0026449258
-0.0024790165
-9.695496E-4
-7.388082E-4
-0.0020533558
-8.416869E-5
0.001348563
-0.0015723091
-0.002065785
-6.0059334E-4
-0.0014346971
-0.0010010137
-1.3563363E-4
-2.971783E-4
0.0010767276
0.0023127832
0.002036132
4.982539E-4
-5.4971204E-4
6.9821405E-4
-7.994244E-5
-0.002193387
-0.0010973178
-9.040608E-4
-0.002395672
-0.0017994501
-2.7575693E-4
0.0016256016
0.0029463524
0.0023092264
0.001111689
-8.816153E-4
-0.0022366415
-0.0012991077
-0.0012554647
-0.002005573
-7.9415966E-4
8.479704E-4
8.457196E-4
-5.531883E-4
-9.5670135E-4
3.8627617E-4
-9.169698E-4
-0.0035775255
-0.0014703565
7.5635064E-4
-3.1153727E-4
3.6462993E-4
9.559319E-4
1.7826333E-4
-9.243519E-4
-0.0036930703
-0.003133935
-9.779905E-4
-0.001804745
-1.456274E-4
0.0020260338
0.0023591942
0.0026512947
4.5306294E-4
3.8755617E-5
0.0014319014
1.2432446E-4
3.643026E-4
0.002220835
0.0025934828
0.0017720625
0.0019491558
0.0030381074
-7.193132E-4
-0.004527135
-0.0026003337
-0.0022024123
-0.0023632513
-1.2084625E-4
3.3691328E-4
9.2935975E-4
0.0016827402
7.1319875E-5
-0.0011047297
-0.0018333191
-0.0030878563
-0.0031235747
-0.0024871782
-0.0014771066
-6.1414874E-4
-4.8308758E-4
0.0015123914
0.002963692
9.0898236E-4
-7.169589E-4
-8.940698E-4
2.2276981E-6
0.0012396874
-2.0415909E-4
-0.001828948
-9.952744E-4
0.0012162932
0.002884402
0.0012340214
-0.0011598677
-0.0011291048
-0.0015910204
-0.0030843292
-0.0016887208
0.0014801881
0.002185783
0.0029273252
0.0031466926
-7.610173E-4
-0.003315778
-0.0027463418
-0.001448717
7.878979E-4
0.0012771613
0.001055259
0.0012862672
5.205247E-4
0.0010224043
0.001398146
-5.622377E-4
-0.001376153
-2.2706315E-4
-4.0825622E-4
3.2772217E-4
0.0029390878
3.611943E-4
-0.0029814977
-6.3602236E-4
-4.679411E-4
-0.0020269575
-8.9586456E-4
-7.887415E-4
-9.816953E-4
5.2372547E-4
0.0016747651
3.8527398E-4
-0.0013976395
-0.0015277265
-0.0011488376
-6.272137E-4
-0.0022194455
-0.0034253984
1.3861525E-5
8.892292E-4
-0.002233861
-0.001269272
0.002911401
0.0038107878
0.0018252704
7.8483025E-4
-5.3948676E-4
-0.0013834048
-5.6010165E-4
-5.0325866E-4
4.599496E-5
9.4893575E-4
0.0022684755
0.0031067457
1.3456629E-4
-0.0015397755
-2.6866957E-4
1.9240844E-4
8.282244E-5
-9.148847E-5
9.5999654E-4
-8.0131475E-5
-0.0019704965
6.678565E-4
0.0019942785
6.0680654E-4
-0.0018529807
-0.0051709716
-0.0037922356
-0.0012557158
-9.194834E-4
5.758067E-4
0.0015366849
9.242551E-4
-3.3806928E-4
-8.3846244E-4
-0.0010206059
-0.001972093
-5.95895E-4
0.0018265925
0.001964744
0.0017001367
0.0019237434
8.480897E-4
-1.2950748E-4
1.1785394E-4
-0.0012416927
-0.00100407
7.546247E-4
-0.0010834323
-2.7170486E-4
0.0028472578
0.0023621956
0.0016831675
2.5175768E-4
-0.0014950355
-0.002275507
-0.0031666015
-0.0010840289
0.0010833767
4.7993913E-4
-1.1341166E-4
-1.8021934E-4
4.549836E-4
0.0010513761
2.0974061E-4
-0.0031910627
-0.005014221
-0.0014076764
6.7429314E-4
4.752194E-4
0.001866989
0.0018924272
0.0012724011
6.807148E-4
-5.8189075E-4
-0.002025038
-0.0034358045
-0.0015392317
0.001332024
7.984855E-4
4.2025917E-5
9.902136E-4
0.0019089109
0.002076152
0.0017929506
5.132348E-4
-7.749323E-4
-4.8891985E-4
-8.121862E-4
-0.001389239
-8.1230755E-5
0.0013554214
0.0015161048
9.3363324E-4
7.2273717E-4
9.028058E-4
2.4541726E-4
-0.0017151365
-0.0022322577
2.9694123E-4
4.4257392E-4
-0.0010048699
5.450265E-4
7.6491176E-4
1.590968E-5
-2.9942003E-4
-0.0026223632
-0.0028853272
-0.0015351105
-0.0020934094
-0.002168778
-6.4506015E-4
0.0011417584
0.0014058556
0.001046624
4.0006678E-4
-0.0011847945
-4.0531898E-4
6.282566E-4
-4.4946806E-4
2.4405142E-4
0.0013220728
0.0012558762
0.0020562091
0.0027316734
0.0014990591
-4.691508E-4
3.5820666E-4
0.0019428219
5.249639E-4
-1.5960928E-4
8.582228E-4
-1.8191173E-5
-0.0015229757
-0.0013784006
-0.0012205644
-0.00260746
-0.0030273213
-0.0012765699
-6.24235E-4
-0.0011035722
-4.0140818E-4
5.8108097E-4
0.0011738982
0.0013254551
-6.345452E-5
-0.0014337209
-4.6195093E-4
7.8312506E-4
3.9265346E-4
3.7720145E-4
0.0015125397
0.0020973133
7.7815016E-4
-0.0015234941
-0.0014108878
3.5173474E-5
-7.32445E-4
-4.2387095E-4
0.0018032372
0.001654947
5.029526E-4
2.6324266E-4
2.2852074E-4
3.390788E-4
3.9908921E-4
2.0170145E-4
-0.0017124915
-0.0024638518
-1.5609014E-4
-1.02676124E-4
-4.5641485E-4
6.239118E-4
1.3405015E-4
5.248826E-4
3.1866794E-4
-5.7136035E-4
-2.2228065E-4
-0.0014295885
-8.4622117E-4
-1.04427265E-4
-0.0017261902
-4.6069075E-5
6.6356326E-4
-3.5438107E-4
0.0015257256
0.0015683105
2.0865307E-4
5.459571E-4
6.0659176E-4
-5.6007603E-4
-0.0012780481
-3.9917204E-4
-5.296412E-4
-4.6922237E-4
1.16386946E-4
-0.0011371444
-8.3674015E-5
0.0017966529
0.0010521284
7.7491463E-4
7.526507E-4
2.3683245E-4
-6.748967E-4
-5.395711E-4
5.8021897E-4
-4.1510983E-4
-5.4033037E-4
-2.8670667E-4
-0.001533255
3.1320506E-6
0.0020955913
0.0019839974
3.894499E-4
-9.687619E-4
4.5470483E-4
3.8135698E-4
-0.0013334902
-9.2730974E-4
-3.2206438E-4
6.107508E-4
6.1237323E-4
-9.0894697E-4
-6.4369617E-4
6.645932E-5
-5.49413E-4
-0.0012396846
-6.8178907E-4
2.4798317E-4
6.347957E-4
9.7092055E-4
1.5746734E-4
1.7127495E-4
4.8159537E-4
-0.0016958643
-0.0021829559
-0.0016188346
-0.0017602071
6.6609755E-5
0.0017641422
0.0024956258
0.0014049292
-4.1300565E-4
7.139722E-4
3.843486E-4
-0.0015204034
-9.618857E-4
-5.398892E-4
-0.0011606854
-0.0011931848
0.0010684221
0.0029258796
0.0016507485
0.0017732225
0.0018865223
1.27110725E-5
3.091046E-5
4.200988E-4
7.109858E-5
-6.0759025E-4
-0.0014126296
-3.1930135E-4
0.0011634963
0.0017905973
0.001065183
-0.001006025
-0.0019326876
-0.0017027466
1.2403663E-4
0.0017042191
6.695522E-4
8.3690137E-4
1.9210001E-5
-0.0032055425
-0.0026723098
-0.0011477827
-0.0018410007
-0.001372515
-1.20234145E-4
6.2263873E-4
6.561429E-4
6.514862E-4
0.0011860196
0.0011773544
0.0010418427
4.148331E-4
-0.0011687442
-0.0024911405
-0.0029198006
-0.001722272
-8.945128E-5
3.3993882E-4
2.476343E-6
-5.5575227E-5
4.9556425E-4
1.9577229E-4
4.908156E-4
0.0014522888
4.5719926E-4
5.596564E-4
8.858563E-4
-5.649122E-7
0.0014686249
0.0017819332
7.6547917E-4
0.0010451473
3.519164E-4
8.83268E-4
0.001977025
0.0016261054
0.0018233743
0.0028302302
0.0037504246
0.0011035926
-0.0013912467
-0.0010439049
-0.0051825834
-0.0074135675
-0.00273157
-2.545614E-4
-2.71585E-4
3.4471194E-4
0.001321043
0.0011765693
3.1899379E-4
-9.722495E-4
-0.0070019085
-0.00860704
-0.0012588114
0.0012285826
0.001161726
0.0037940003
0.0040514176
0.0028400526
1.5744327E-4
-0.001472457
-6.971074E-4
-0.0011666392
-6.3850783E-4
3.8662E-4
7.789809E-4
0.0018150895
0.0015390281
0.0015660786
0.0012695797
-7.587142E-4
-4.093967E-4
6.4197293E-4
-6.8994146E-4
-0.0015784831
-2.0302871E-4
0.0017607698
0.0016825468
9.5324125E-4
0.0016899605
6.702928E-4
-0.0015057597
-6.337864E-4
6.274056E-4
0.0013394546
0.0028841083
0.0018054032
6.566002E-4
0.0017732272
3.815097E-4
-0.0021230264
-0.004063534
-0.0056633838
-0.0036322952
-5.710069E-4
3.3353764E-4
5.475951E-4
2.4402491E-4
-8.42823E-4
-0.002648329
-0.0025458776
-8.1457704E-4
-0.0016823555
-0.0019097493
3.8680094E-4
9.5874374E-4
0.0017220811
0.00378974
0.0023098686
-9.0803124E-4
-5.9533137E-4
7.1394036E-4
6.5891305E-4
0.001114243
0.0014309547