-0.004098505
-0.0038254703
-0.0014553665
8.8280294E-4
0.0011866328
-9.1719086E-4
-1.9163912E-4
-0.0019085399
-0.0030007095
0.002621027
-0.004074322
-0.012075166
-0.002247821
0.0035497749
0.0019898904
0.0015906475
-4.9396144E-4
-2.373109E-4
-6.485237E-4
-5.0373096E-4
0.0012160441
-1.7192328E-4
0.0018266512
0.0044051157
0.0028006344
0.0018852351
6.550813E-4
-0.0010587191
-0.0013980372
3.723524E-4
0.0015384151
0.0010951477
0.003814592
0.0042509646
2.5800444E-4
-0.0014299599
-0.003312401
-0.0049803588
-0.0033229287
-0.0012638576
-1.4076725E-4
6.7224406E-4
0.0017944227
0.0015255642
4.8286785E-4
9.3855127E-4
1.0143695E-4
-0.0014594524
-0.0010738693
4.1323987E-5
0.0015369806
0.0021029531
4.839419E-4
-1.4138481E-4
0.0014304199
0.0014874157
-4.217369E-4
-0.0019794072
-0.0026065025
-0.0010768408
4.672091E-4
-0.0010794929
-0.0027254112
-0.0023335728
-0.0013594105
-0.0013325803
-0.0025760992
-0.0033815717
-0.0015135452
0.0020864736
0.0030491324
0.0023257004
0.0025955087
0.0019247342
0.0017731024
0.0017082249
4.338712E-4
-5.4180505E-6
-0.0013412806
-2.2375956E-4
0.0041784546
0.00429157
0.0023441836
8.260986E-4
-0.0011436663
-0.0010315478
-0.0016818279
-0.0030768865
-0.0029033388
-0.0026826845
-0.0018690279
-0.0017395602
-0.0014764933
-1.935306E-4
-5.067598E-4
-5.58273E-5
5.9594243E-4
2.1281106E-5
0.0012649444
0.0022830425
0.0023878524
0.0025980081
0.001494678
4.2297714E-4
-8.92133E-5
4.0581776E-4
0.0014833643
0.0010126822
3.732169E-4
-4.384283E-4
-0.0015115162
-9.622041E-4
6.443655E-4
0.0014108919
-5.46693E-4
-0.0016273438
-8.023062E-4
-0.0036402629
-0.004892755
-9.1126753E-4
2.7176662E-4
-0.0017134469
-0.0014649762
4.94521E-4
4.403719E-5
-7.532739E-4
2.9105024E-4
-0.0013477111
-0.0012863582
0.002585218
0.003406575
0.0041000377
0.0048124087
0.0027721021
0.001538607
4.903532E-4
-1.5623792E-4
-0.0012066524
-0.0032518425
-0.0022675854
-0.0012794898
-0.0014144775
1.302183E-4
0.0015548648
0.0025241137
0.0017282336
-2.967669E-5
-5.498347E-4
-0.0016825126
-0.0018625208
-0.0010695403
-3.7767497E-4
0.002066496
0.002524739
-1.4778858E-4
-7.8867335E-4
-7.837312E-4
-0.0035161015
-0.0036026768
9.800027E-4
0.0028510778
0.0033742995
0.005507071
0.0027713657
-0.0014909972
-0.0017652438
-0.0022758776
-0.0024723595
-0.0018446969
-0.002290026
-0.0018789892
-0.002116682
-0.0024248413
8.956123E-5
0.00195866
0.0016259725
2.5328272E-4
-0.0014766766
-0.0020184745
-0.0016908324
-7.0347196E-6
8.801722E-4
4.4591157E-5
0.0016988054
0.001514837
-5.342497E-4
0.0013101693
9.1012276E-4
-2.299762E-5
0.00297346
0.0034426497
0.0026377444
0.0019075153
8.0270827E-4
0.0025777465
0.0032101024
3.872098E-4
-0.0036589464
-0.0062493104
-0.0043198583
-8.429456E-4
0.0010569154
5.921367E-4
1.7967507E-4
0.0023656883
0.0013537254
-0.0021699565
-0.0029255545
-0.003651128
-0.0030551828
3.208976E-4
0.0016684127
-2.484394E-4
-0.0012491546
6.170572E-4
0.0016700439
0.0019168734
0.0023043687
2.8647517E-4
-0.0013501905
-5.6897214E-4
6.7457405E-4
0.0016945346
0.0019474142
0.0012600045
-9.473907E-4
-0.0019386357
-3.4804645E-4
-6.2747387E-4
-0.0012748981
-1.5883657E-4
3.0963167E-4
9.877362E-4
0.0015412775
7.897414E-4
1.1642321E-4
4.1414743E-5
1.444225E-4
4.3386404E-5
-2.7197442E-4
-7.764705E-4
-7.971607E-4
-2.6778533E-4
-1.6371059E-4
-3.401682E-4
-0.0017341465
-0.0040479633
-0.004219799
-0.0020161362
-4.7496316E-4
-6.475861E-4
9.786986E-4
0.0036945955
0.0033041826
0.0012489428
-4.4570578E-4
1.8142289E-4
0.0012298987
-2.735282E-4
6.4128905E-4
0.0023281171
0.002745052
0.0033454897
-6.387456E-4
-0.0027452311
8.416564E-4
0.0020673731
0.002502899
0.0027588
0.002275965
0.0017249329
-0.0010249487
-0.0016951374
-0.002692357
-0.0057576294
-0.0038145024
-0.0012810437
-5.7067006E-4
0.0010340225
-3.912324E-4
-0.0016367729
3.6146826E-4
-4.203683E-4
-0.0042037256
-0.0046472447
-0.0013325926
4.493247E-4
-2.353154E-4
-6.626939E-4
3.001516E-4
9.6354575E-4
-2.3347086E-4
9.422524E-4
0.0041339337
0.0030446174
0.0010910853
0.0012046046
3.9905083E-4
1.8439443E-4
-5.9052394E-4
-0.0012280978
0.0011605753
8.6810027E-4
-7.0605743E-6
0.0023680062
0.0017723761
0.001114915
0.0018262083
4.5302405E-4
9.5930044E-4
0.0018788988
0.0023346778
0.0032070428
0.0031490512
0.001253315
-0.00970899
-0.016592076
-0.0057309265
0.001020718
2.1232938E-4
0.0030188328
0.0019581069
6.045117E-4
0.0019581898
0.0018554442
0.0028498026
0.002171571
-4.310208E-4
-0.0026637572
-0.0039242576
-0.0018288791
-5.904652E-5
6.8423577E-4
0.0023796654
0.0021399774
0.001309096
5.525604E-4
-0.0013650329
-0.0018892362
-0.0013972159
-0.0015875436
-0.001263365
-6.0447847E-4
-8.4330124E-4
-7.1805465E-4
-9.260322E-5
-0.0013844201
-0.0029383358
-0.00207346
-2.4284072E-4
0.0018515452
0.004031079
0.0050812108
0.0052896547
0.0049818554
0.0033288198
6.698333E-4
-2.1946664E-4
0.0013317838
0.0027914902
0.0036455577
0.002646832
-4.676309E-5
-6.889603E-4
-0.0017628869
-0.0048695337
-0.006823434
-0.0074565983
-0.005178768
-0.003231253
-0.0039609303
-0.0011010744
0.001508254
0.0014254919
0.0024696102
-3.327406E-4
-0.003658207
-0.0023878564
-0.0012546524
-3.1139783E-4
0.0012677707
0.003053822
0.003083406
6.2000996E-4
0.0011523808
0.004053491
0.0047268122
0.002388019
8.8335226E-5
0.0010020263
0.0015574394
9.208104E-4
-7.111968E-4
-0.0035047734
-0.0018203424
6.953648E-4
-5.8795962E-5
1.06630425E-4
1.5235845E-4
2.784104E-4
0.0011078258
0.0017494456
0.0021648463
0.0011633134
0.0018346254
0.0015228023
-0.002254526
-0.0027684784
-0.001739273
-0.0013949943
-9.252655E-4
-0.0018116138
-4.0943405E-4
4.457091E-4
-0.0010021285
6.238355E-4
9.970218E-4
-0.0016352661
-0.003185349
-0.0032132375
-0.0014656091
-0.0014997398
-0.0027024643
-6.0284254E-4
0.0011503277
0.0010402406
0.0011847744
8.9663774E-4
3.789081E-4
6.811616E-5
0.0013755992
0.003705875
0.00399615
0.003028081
9.368565E-4
-6.0912897E-4
0.0011583616
8.409804E-4
-0.002268952
-0.0019524883
7.68103E-4
0.0018885639
-5.736675E-5
-0.0012970692
2.6566468E-4
-4.9831404E-4
-0.0014036202
-3.514627E-5
1.7911982E-5
9.888272E-4
0.0013673208
-3.9945194E-4
5.786686E-4
0.0018746476
6.7388767E-4
-0.001287012
-0.0031850007
-0.0036534888
-0.0038765057
-0.0034404562
-8.338809E-4
1.6069859E-4
-1.2016169E-4
0.0020389676
0.0035261652
0.0024992328
0.0022476814
0.0014328113
-6.393517E-4
-3.0510395E-4
-2.2598915E-4
-0.0017391703
-8.2222867E-4
1.0810892E-4
-4.8630306E-4
4.914224E-4
0.002037902
0.0019272218
5.986889E-4
-8.7121414E-5
5.076425E-4
0.001103539
7.5687055E-4
-7.0532464E-5
-5.371766E-4
-0.0018271743
-0.004007697
-0.00454399
-0.0034304517
-0.002342818
-0.0016795758
-2.490483E-4
0.0025616998
0.004733878
0.0046597896
0.0029175624
0.0012726043
1.252056E-4
-3.12112E-4
4.9404835E-4
-6.6589785E-4
-0.002432373
-5.319309E-4
6.6876237E-4
-4.6180308E-4
-6.388187E-4
1.2714555E-4
0.0011626751
0.00113946
0.0014315306
0.0020096805
0.0010695807
0.0024491393
0.0023386397
-0.002214704
-0.0020122223
4.0697114E-4
-9.503979E-4
-0.00213094
-0.0039343997
-0.0051432326
-0.0027858305
-3.0237148E-4
0.0014399928
0.0016871442
5.6549924E-4
7.7526737E-4
-4.9098395E-4
-0.0027767664
-0.0023623186
-0.0013362897
-4.337613E-4
2.9607167E-4
9.0686E-4
0.003013612
0.0038669864
0.002914002
0.0014446768
-8.428999E-4
4.5233322E-5
0.002129794
0.0014271569
0.0021436857
0.0019325137
-2.640593E-4
5.2315777E-4
-3.6317747E-4
-0.002641366
-0.0013989898
-0.0017997015
-0.0035240178
-0.0023008876
-4.4868398E-4
6.2639796E-4
0.0012111149
0.0017058451
9.1451267E-4
-0.0011373112
-9.05658E-4
6.7664037E-4
0.0015729844
0.0012339047
-2.3096972E-4
9.6048525E-4
0.0027265162
0.0013988679
-6.75731E-4
-0.0030602145
-0.0034775932
-0.0016293573
-6.6103495E-4
0.0016046292
0.0028733427
0.0015225704
0.0017316273
4.708722E-5
-0.0038912897
-0.0044853715
-0.0043992177
-0.0049727256
-0.0032263037
-9.5075084E-4
0.002125833
0.0056997607
0.0055475417
0.0044968775
0.0043676784
0.0028300015
0.001769404
5.4425275E-4
-1.4805271E-4
4.5897812E-4
-3.8807248E-4
-3.914241E-4
-0.002169613
-0.005241572
-0.0023426188
-5.772248E-5
-0.0014095925
-9.27436E-4
1.2801966E-4
0.0010691816
0.001107326
3.0387298E-4
-6.929108E-4
-9.062974E-4
0.0012637232
7.1535696E-4
-0.0017554255
-0.0032303187
-0.0046670614
-0.0017085283
9.5083256E-4
9.97494E-4
0.0041394387
0.0054649543
0.0036581382
0.001291115
-5.5533776E-4
3.6765003E-4
0.0016529323
0.0026138895
0.0015358832
-0.0012226755
-0.0019847013
-9.856062E-4
-3.5177483E-4
-0.0078032715
-0.011345631
0.0021995704
0.008240134
0.0043814047
0.006622167
0.0046244436
0.0012679251
0.0016514339
-0.002196166
-0.005005144
-0.004946652
-0.0062954784
-0.0054911114
-0.0017511867
3.05969E-4
0.0014603351
0.0034863786
0.0025642659
7.906429E-4
1.6513787E-4
-4.7032058E-4
0.0016336895
0.0027418796
0.0025425374
0.003962837
0.0033593285
0.0023240312
-7.429648E-4
-0.006243764
-0.0072015435
-0.00520404
-0.002894573
-0.0020673806
-0.0024611945
4.2753504E-4
0.0023950057
0.0020814415
0.0022630284
3.5193814E-5
-0.0033893934
-0.005290563
-0.0044235094
-7.971985E-4
0.0019613425
0.002741495
0.00468126
0.009567999
0.011526476
0.0073336167
0.004368121
0.0049040574
0.0057238503
0.005214112
5.137324E-4
-0.005327395
-0.005185303
-0.0029865317
-0.005158749
-0.0056013307
-0.0037239369
-0.006755113
-0.009006507
-0.0067093363
-0.005245296
-0.0034554023
1.5110979E-5
-5.2620562E-5
-0.00456054
-0.005310901
-0.0026146302
-0.002556493
-1.0145368E-4
0.0028052314
0.0037947095
0.009844422
0.013703452
0.011039004
0.0069115707
2.907448E-5
-0.0048489915
-0.004721165
-0.0023990138
0.0011969198
0.0031580133
0.0036960545
0.0025347807
0.0013669955
0.0048498227
0.008195407
0.0055936584
-0.0022500716
-0.007961375
-0.0068633067
-0.0051995586
-0.004067962
-0.0021836665
-2.8180127E-4
0.0030052015
0.0036588411
0.0025058826
0.0018592883
-1.4573606E-4
-2.4179138E-4
-0.002054734
-0.006233288
-0.0052216905
-0.004069913
-0.0051047415
-0.0035465853
-0.0031659466
-0.005024852
-0.0042476123
-0.00157114
-5.0972676E-4
7.7811425E-4
0.0023368523
0.0017134509
0.0021929601
0.0026148194
2.4997478E-4
5.904691E-4
0.0043873717
0.0061278166
0.003708557
1.3519649E-4
-6.291645E-4
0.0026898973
0.0077773416
0.008347187
0.0056786067
0.0048829354
0.0023613079
-8.7025645E-4
-0.0013644404
-3.894974E-4
7.558044E-4
-0.0017338038
-0.003011277
6.950812E-4
4.4364485E-4
-0.0015215974
-5.7451066E-4
-0.0019120586
-0.003962013
-0.0053247456
-0.008286842
-0.010499077
-0.010126459
-0.0062615806
-0.0010819766
0.0011219033
0.0028677266
0.0044678124
0.002639588
9.427476E-4
-5.8463695E-5
-0.0022509359
-0.0011975439
0.0026976888
0.0035949866
-1.2845558E-4
-0.002398341
0.0026816567
0.007160599
0.0065139625
0.00769673
0.006885417
0.0021614833
0.0014922473
0.0012798342
-0.0041736583
-0.008666774
-0.006419304
-0.0028416535
-0.0036448743
-0.0031710076
1.2776331E-4
0.0022067232
0.0037572212
0.0023484726
6.883607E-4
0.0013237018
-0.002407892
-0.0048911422
-0.0025304349
-0.0020198675
-2.9270005E-4
0.0047251307
0.01202705
0.013413259
0.002765796
-0.0054807216
-0.0109022865
-0.013608114
-0.0025610619
0.0037280575
-0.0011303248
-9.83875E-4
0.0026978066
0.0060512195
0.0030790248
-0.0015183457
0.0041877003
0.011026317
0.01065162
8.6737867E-4
-0.0068018064
-0.002575803
-0.0053087887
-0.010591575
-0.0060297134
-0.0032272635
-5.03246E-4
2.1659285E-4
-0.0038130628
-0.004458631
-0.004219667
-0.0028776063
-0.0024197588
-0.005643417
-0.0070550097
-0.0064161695
-0.00239536
0.0024370328
0.0062016537
0.012233341
0.014005586
0.011289261
0.0060556573
-0.0027909866
-0.0038850263
0.0020165748
2.1642017E-4
-0.006595085
-0.006268984
1.464082E-4
0.0050785257
0.0069145407
0.005593259
-4.049942E-4
-0.012235017
-0.019413715
-0.012759737
-0.0055122897
7.514873E-4
0.010073202
0.010792233
0.010979658
0.0155334715
0.011212578
-4.693918E-4
-0.010700413
-0.008549752
0.00206664
0.0052327337
0.0045909532
0.0028960123
0.0024997417
0.00667138
0.0032513603
-0.003759265
-0.007295584
-0.012932908
-0.010924905
-0.0024409685
7.906173E-4
0.004441988
0.0071390932
0.005906992
0.0063666343
0.0054291645
0.0020580785
-4.2016507E-4
0.0012584031
0.0077593224
0.0075872713
-0.0065591373
-0.027526272
-0.03906635
-0.032538157
-0.025754455
-0.027853245
-0.029021954
-0.03197177
-0.035424966
-0.028406702
-0.0068432447
0.019338574
0.033672787
0.041227337
0.04643499
0.04061469
0.033269525
0.030819671
0.027887875
0.02341962
0.013790496
0.004733768
0.009612444
0.025896044
0.03346964
0.022372933
0.010787365
0.010937841
0.008274886
-0.0056356653
-0.016873052
-0.018698128
-0.027183022
-0.045759488
-0.05647745
-0.057646055
-0.059821382
-0.05459051
-0.027979359
0.0067298347
0.027971648
0.03989733
0.05234191
0.06578938
0.078962944
0.08116962
0.064035326
0.035307582
5.2327727E-4
-0.03299945
-0.044783298
-0.034021743
-0.023424855
-0.02131266
-0.025934061
-0.047270034
-0.087176666
-0.10959373
-0.091281965
-0.08352291
-0.112129994
-0.10415986
-0.03107904
0.047880944
0.11324438
0.15737513
0.14822565
0.11673129
0.08853655
0.03012924
-0.0467271
-0.08641381
-0.05021938
0.03337637
0.080677256
0.07411146
0.05863858
0.06922156
0.1008677
0.106254525
0.0930568
0.09402699
0.08095061
0.036474977
-0.041478734
-0.15190971
-0.26794267
-0.35354227
-0.3494326
-0.25719133
-0.16043968
-0.057657775
0.08060281
0.18010831
0.22823411
0.27997714
0.258185
0.11972681
-0.023247782
-0.12445033
-0.18697096
-0.1765982
-0.08965671
0.038594186
0.112099335
0.094516054
0.07945453
0.084190905
0.06735684
0.05919723
0.07248085
0.07114724
0.051214628
0.033302803
-0.0023242687
-0.06566771
-0.124459766
-0.16940393
-0.19427468
-0.18343839
-0.12553532
-0.032070756
0.02735099
0.028146876
0.024611142
0.055472393
0.10861219
0.13232656
0.12375892
0.0819155
-0.017405767
-0.066771284
-0.0147019895
0.021085577
0.020455366
0.016858196
-0.0060006706
-0.014771552
0.017445039
0.04646136
0.022503126
-0.020054957
-0.015446799
0.0036247042
-0.0057118996
-0.021312738
-0.03311387
-0.03790113
-0.035531573
-0.03454081
-0.029667504
-0.026126135
-0.023910342
-0.015318994
-0.013273744
-0.010886039
0.006341387
0.020728836
0.027510123
0.03528856
0.03546258
0.02985611
0.024955742
0.015559108
0.0035183656
-0.006614679
-0.010860073
-0.00856811
-0.009176436
-0.011227754
-0.010702386
-0.013087607
-0.013328551
-0.008998679
-0.0063227997
-0.0033290824
0.0018376547
0.007235597
0.010099035
0.010121257
0.009357126
0.005638281
0.002351429
0.002676224
0.0016923482
0.001225371
0.001989777
-2.9508737E-4
-0.0018265571
0.0011302968
0.005826536
0.009081816
0.009328557
0.0072617303
0.0035163173
-0.0029983567
-0.010233047
-0.011848316
-0.007151195
-0.0048669307
-0.005616939
-8.9214346E-4
0.006040014
0.0072860746
0.007277482
0.009537061
0.010507886
0.011090474
0.0088242935
8.814001E-4
-0.005995626
-0.01079401
-0.011537584
-0.0049139606
-8.968157E-4
3.1680244E-4
0.0029215927
0.0023498058
0.0023398795
0.0029217568
0.0037259792
0.0075419606
0.0059168283
-0.0011721419
-0.008314808
-0.01349537
-0.011942578
-0.009780605
-0.0110057825
-0.010316513
-0.0068128216
-0.0027686637
-6.0632813E-4
0.006064585
0.014931033
0.012133081
0.0066602146
0.009098933
0.011561827
0.0073227123
-0.004776895
-0.012886781
-0.007527269
-0.0020433804
-0.0017313336
0.0033640668
0.008496233
0.009712275
0.012689109
0.0118933115
0.011353818
0.010511618
-0.008230701
-0.020122876
-0.0053896913
0.0015683542
-0.004131963
-0.0048499866
-0.006515827
-0.0076790093
-0.005952901
-0.006673922
-0.00732473
-0.004887342
-0.0015765784
4.1773045E-4
0.0021132533
0.0014511738
-0.0022512318
-0.0029715807
-4.5501505E-4
0.001414562
0.0018404056
0.0017738472
0.0011227336
4.115564E-5
0.0036488457
0.008621195
0.0070880014
0.005115721
0.005470344
0.0036971685
0.0019477815
0.0011023232
2.5832854E-4
-4.3350912E-4
-0.0011900959
7.142247E-4
0.0025435612
-0.0017000868
-0.0066940826
-0.0077459263
-0.008478902
-0.007278426
-0.002897833
-8.689454E-4
-0.0017887233
-0.0012599429
2.0119424E-4
-1.7539068E-4
-1.820528E-4
4.237613E-4
-3.2866206E-5
1.1669664E-4
-0.0016807755
-0.0034657805
-5.7918427E-4
8.0566265E-4
0.0011174746
0.0040794443
0.0054642293
0.005397126
0.003683041
0.001840773
0.0028032467
0.002047278
-6.3813284E-5
-9.81081E-4
-9.172832E-4
6.246295E-4
-4.604538E-4
-0.0029029371
-0.0018783583
-0.001470103
-0.0028307305
-0.0021760447
-0.0011266602
-0.0013213406
3.9100973E-4
0.0036405572
0.0041287397
0.0039954274
0.0052038515
0.0019936156
-0.0047511524
-0.006012334
-0.0020067766
2.963185E-4
0.0013301315
0.0023318843
6.9526775E-4
-6.056041E-4
3.0553373E-4
2.9672866E-4
-7.00984E-5
-5.604579E-4
-0.002114685
-0.0028316244
-0.0018623
-8.545671E-4
-0.0013761441
-0.0019753927
-0.0015715694
-0.0024514839
-0.004907367
-0.0076375296
-0.009007411
-0.0060089226
7.652631E-5
0.0055497615
0.008967335
0.008937708
0.0077160373
0.007986554
0.0065398994
0.0031524415
5.378565E-4
-8.908168E-4
5.031389E-4
0.002958151
0.0035339096
0.0034831958
0.0027497872
0.0014932647
-2.4536523E-4
-0.0023988707
-0.0013639786
0.0017039891
0.0026016491
0.0017484865
7.6589733E-4
5.342479E-4
-3.160572E-5
-0.0019015645
-0.0045259246
-0.006501632
-0.0060711144
-0.0054144813
-0.0043935985
-0.0012533385
-6.710204E-6
-4.1575325E-4
1.8200258E-4
-3.3807958E-4
-0.0014906145
-0.0015554336
-0.0014555575
-4.5298628E-4
0.0016602072
0.0018602329
0.001208512
0.0017298947
0.0019174685
0.002072673
-3.6215372E-4
-0.004054417
-0.0031509497
-0.001477683
-2.27254E-4
0.002137449
0.0035881503
0.0051698466
0.0046455488
0.0039935517
0.005239828
0.0037758502
0.0023703221
0.0014330549
4.744938E-5
-4.0594922E-4
-0.002258486
-0.0017430861
3.9912655E-4
-1.5824912E-4
-0.0011214108
-9.749957E-4
0.0010396284
9.7294373E-4
-1.8030258E-4
0.0012884284
0.0010524759
3.5895343E-4
-2.121755E-4
9.049899E-4
0.002075297
-4.0682856E-4
0.0017259637
-0.0044378634
-0.014784744
-0.004566002
-0.0028313524
-0.010926737
2.768214E-4
0.006926618
0.0045034336
0.004416296
-4.891455E-5
1.5048833E-4
0.0022175112
0.0015064202
0.0024624574
5.3742656E-4
-2.0718742E-4
5.3219474E-4
2.1011656E-4
0.0013442619
5.5473174E-5
-1.354872E-4
0.002707649
0.0030553201
0.0024813996
0.0024710028
0.002564542
0.0019381505
-6.385924E-4
-0.0032000646
-0.0032807402
-0.0016707812
-0.0016670418
-0.0021218015
-0.0012868643
-7.139799E-4
3.9445423E-4
7.676066E-4
-3.088455E-5
-3.8180233E-4
-0.0017004197
-0.0015391804
4.1274045E-5
-5.0776615E-4
-1.8154796E-4
8.290231E-4
2.3464428E-4
3.282363E-4
2.485067E-4
-0.0010931799
-0.0019982946
-0.0015596313
-3.6148384E-4
4.03205E-4
0.0021847233
0.0029993798
2.622755E-4
-5.4744625E-4
8.78996E-5
-6.70859E-4
5.5656495E-4
2.3973153E-4
-0.001144677
0.0015274493
0.0031815143
0.0025481062
0.0020158405
2.8311805E-4
-0.001603712
-0.0020165883
-7.625787E-5
0.0016011604
0.0017063981
0.0015554
-2.4855277E-5
2.5164612E-4
0.0014963717
-7.305083E-5
-6.878398E-4
-0.0021617503
-0.00394947
-0.0014391643
6.49721E-5
-8.60804E-4
-6.0384884E-4
3.9520342E-4
5.521086E-4
-6.873491E-4
-0.001368672
-0.0018869649
-0.0023762793
-0.0014945222
-2.1692639E-4
0.002373162
0.0038068672
0.002577713
0.0011841359
-0.0014914068
-0.002009732
1.8084022E-4
8.0300996E-4
0.0019532468
0.001124686
-0.0011053327
9.465494E-4
0.0025521433
0.0026444618
0.003879067
0.0026826144
3.3060956E-4
-6.4642023E-4
-0.0010338607
3.0944007E-5
8.703673E-4
-7.9315025E-5
-5.179661E-4
-4.9658335E-4
-7.748609E-4
-0.0012115493
-0.0025848686
-0.0029524849
-0.0017892952
-7.6572003E-4
-3.3838986E-4
-0.0018252134
-0.002206196
-2.7364772E-4
-2.9338547E-4
-3.5244224E-4
4.241366E-4
-6.1057915E-4
-0.0019900887
-0.0015289617
9.228014E-4
0.0019966837
0.0021114452
0.0031433774
0.0018753879
7.148915E-4
7.257423E-4
-8.83481E-4
-0.0012840456
-2.697117E-4
0.0010314058
0.0019708662
0.0019626117
0.0032336432
0.0030680208
-2.9801516E-4
-0.0036434326
-0.0046663317
-0.0019211809
0.001293438
0.0027675703
0.0030296566
8.256576E-4
1.1975455E-4
0.0014096122
6.4166775E-4
-6.760077E-4
-0.0020648572
-0.002497606
-0.0017983569
-0.0018976291
-1.21948615E-4
0.0011744206
-2.404653E-4
2.6754028E-4
6.8905175E-4
-9.2750794E-4
-0.001287086
-7.799068E-4
-9.9865814E-5
8.145212E-4
9.6905883E-4
8.220328E-4
3.47906E-4
-0.0013680729
-0.0024761783
-0.0017060002
-9.874972E-4
1.428379E-4
0.0010976196
6.031785E-4
0.0012353652
0.0016350744
0.0017514834
0.0032331967
0.0018826961
-0.0010309528
-0.00187109
-8.3186163E-4
0.0011745848
9.21944E-4
-9.036096E-4
-0.0026225979
-0.0022916314
8.3240547E-4
9.875675E-4
-4.6002105E-4
-0.0010744964
-2.0347413E-4
0.0025415577
8.512882E-4
0.0016787789
0.0035800808
-0.0014319746
4.501684E-4
-0.00231706
-0.013802551
-0.007955427
0.0010099522
0.0015061183
0.0050489996
0.0057275845
0.004775922
0.0044172476
0.0029804907
0.0019469934
-7.002185E-4
-1.0884352E-4
5.4687087E-4
-0.002006664
-0.0012767505
-3.4533037E-4
1.1993873E-4
3.8127883E-4
-0.001033554
-0.0010599095
-0.0015042037
-0.0013173659
-3.997214E-4
-0.001074621
-3.1157376E-4
9.541074E-4
0.001281415
4.7722785E-4
-4.421343E-4
-3.6233102E-4
-0.0026747677
-0.003684606
-0.0011957125
-2.472078E-4
3.0359539E-4
0.0011315623
0.0016275751
0.0022888766
0.001919549
0.0010478297
-4.3306118E-4
-0.0015601094
-2.844477E-4
0.0018529951
0.002489797
0.0020193649
0.001623383
2.6180627E-4
-0.0012634123
-0.0024472699
-0.0031676379
-0.0014154445
-0.0015207
-0.002827567
1.7605633E-4
0.0019973388
0.0016444577
0.0026752842
0.0018708148
-3.4257324E-4
-4.543518E-4
7.53714E-4
-3.140298E-4
-0.0020782473
-0.0011283184
3.4736845E-4
0.0015903517
0.0016389266
-1.6302134E-4
-8.361843E-4
-0.0012034571
-0.0015292192
-9.950176E-4
-4.7006103E-4
2.3294761E-4
1.7710851E-4
4.3566292E-4
7.128751E-4
8.307383E-5
4.3071902E-4
-5.934418E-4
-8.131167E-4
0.0011018834
-4.744161E-4
-0.0013690909
7.915446E-4
0.0017529496
0.0018816917
4.910407E-4
-5.3981703E-4
3.1355108E-4
6.9861807E-4
6.550321E-4
-4.2597743E-4
-4.6808517E-4
0.0014315167
0.0018221284
0.0010568479
-6.9794984E-4
-0.002783946
-0.0040294207
-0.0041080057
-0.0013653513
7.7810814E-4
0.0016740308
0.0033419407
0.002641225
0.0010996974
-2.53751E-4
-0.001993076
-0.0021781074
-0.0025846022
-0.0016676993
2.148623E-4
-5.4515025E-4
-5.599268E-4
7.1093807E-4
0.0015152162
0.001297007
-3.8824073E-4
-1.665553E-4
5.7889475E-4
-3.6511825E-5
-1.03265316E-4
2.872191E-4
0.0019453195
0.001797308
-5.787073E-4
-4.3228388E-4
-2.033128E-4
-5.8135256E-4
2.495164E-4
0.0012616776
0.0029943318
0.0035194554
0.0024781586
0.00138692
-4.8400508E-4
-9.546705E-4
-1.3890196E-4
-0.0011447478
-0.0023269278
-0.0017907007
-0.0013889836
-0.0015896956
-0.0013347314
-4.751445E-4
0.0015549769
0.001326572
-0.0021859577
-0.0033842882
-0.0040558926
-0.0044817496
-0.0012987722
-6.437929E-4
-0.0010768154
0.0013771972
0.0012977462
9.922872E-4
0.0015218139
4.5900635E-4
0.0015401704
0.0024590474
0.0018359838
0.0022123829
0.0017229973
0.001826717
0.0023897968
0.0017928663
0.0021430121
0.0017125531
3.4108487E-4
2.8110947E-4
2.794994E-4
-0.0010829555
-0.0028843556
-0.0020237362
-7.090116E-4
-0.0017992273
-0.0026741403
-0.0037967903
-0.0031799525
-6.10866E-4
-2.236294E-4
0.0013288571
0.002798774
0.001474696
6.003403E-4
-1.9780376E-4
-4.0838905E-4
-0.0021492562
-0.004141469
-0.0017486655
4.1167365E-4
0.0026494572
0.0033401998
5.154339E-4
9.456939E-4
0.0014791612
0.0022629332
0.0028709657
6.464492E-4
0.0010778103
-0.0068627456
-0.013082315
8.845635E-4
0.006268031
-1.9964277E-4
0.0023078963
0.0039079115
0.0028567961
0.0012623848
-0.0016987957
-4.170509E-4
-1.7279597E-5
-5.622188E-4
7.5912435E-4
8.9259766E-4
0.0014353275
8.1548316E-4
-0.0016121228
-0.0022461729
-6.7181926E-4
8.658724E-4
2.5865372E-4
4.5556662E-5
7.94077E-4
1.5336514E-5
-1.4094773E-4
7.127316E-5
-0.0019147155
-0.00320393
-0.0022432576
-0.0016429141
-0.0011714669
-7.5033033E-4
-1.5808905E-4
0.0018916801
0.0015197013
3.236342E-4
0.0013506673
-7.373639E-4
-0.002175554
7.1049866E-4
0.0018784995
0.0014737832
8.69045E-4
3.1167906E-4
6.0760096E-4
1.9814703E-4
-5.359155E-4
-0.0011501455
-6.8979216E-4
3.3864428E-4
4.2384912E-4
8.992481E-4
0.0010501287
0.0018147416
0.001167297
-0.0029400869
-0.002216664
0.0011828401
5.751548E-4
6.651317E-4
0.0016932756
0.0026433887
0.0022458485
-8.189813E-4
-0.0014218398
-0.0019142517
-0.0038092474
-0.0021046032
-3.2498175E-4
-2.48542E-4
-3.1465615E-4
-9.984241E-4
-3.0317312E-4
2.3580936E-4
-6.4486405E-4
-0.0013242575
-0.0014083656
-2.6571684E-4
4.2580225E-4
9.7333785E-4
0.0016799542
4.7460015E-4
3.9394232E-4
0.0011380629
-3.5640587E-5
-9.790945E-4
-5.2767544E-4
0.001008629
8.5953984E-4
6.24484E-4
0.0025521521
0.0019783352
0.0025235722
0.0028487786
-0.0023774523
-0.0025462275
-2.589526E-4
-0.0024844182
-4.7951378E-4
3.8301438E-4
-0.003483656
-0.0018138433
0.0017408178
0.0015520782
9.3771215E-4
3.4589006E-4
-2.7615365E-4
-4.4699715E-4
-6.5182697E-4
-5.6757324E-4
-9.693258E-4
-7.810809E-4
0.001343932
0.0011345098
-3.6285384E-4
5.321516E-4
-9.2803827E-4
-0.0024433355
1.20975026E-4
0.001416634
0.0014716801
0.0012917423
-5.951155E-5
-9.572803E-5
4.7787803E-4
7.015705E-4
-6.1450514E-4
-0.002623798
-0.0011280922
4.8671017E-4
-3.7910364E-4
-9.300596E-4
-0.0010050392
4.0620583E-4
0.0021019971
0.0011153849
-6.273341E-4
-0.0011161274
-3.8125872E-4
0.0011185195
0.0021080663
0.0022306046
0.0019296979
9.565628E-4
-3.2048707E-4
-0.0010606552
-0.0013917156
-0.0016247218
-0.0014318823
5.7542557E-4
0.0013150446
-0.002461961
-0.0026299069
0.0015515143
8.11214E-4
-6.883155E-4
-5.561309E-4
-0.0021804885
-7.920299E-4
0.0014281328
0.0012226797
0.0020436058
0.0018323283
0.0010064135
4.6611266E-4
-0.0018875016
-0.0021439984
-7.657289E-4
-7.971433E-4
-3.0413293E-4
-3.5516775E-4
9.9478246E-5
0.0020912304
0.001740839
1.9712377E-4
-9.2078175E-4
-0.0020450074
-0.0010999335
1.6577855E-4
-4.0873705E-4
-1.3928863E-4
0.0019363647
0.002510176
5.5996544E-4
-9.2486205E-4
-0.0017712736
-0.002338609
-0.0013299099
1.1707572E-4
0.0012084161
0.0018163489
0.0025087
0.0027319654
0.0011241223
0.0010251566
6.903998E-4
-0.0022676717
-0.0031436896
-0.0037042412
-0.0034057172
5.10098E-4
0.0027028339
0.0019899865
-0.0014340837
-0.0031487595
0.0016659343
0.0032039455
4.063212E-4
7.403576E-4
0.0015908678
0.001215229
-4.2439165E-4
-0.0013305489
-7.8295394E-5
3.7926028E-4
5.3834834E-4
-0.0014003573
-0.0038012688
-0.0013733634
8.7274896E-4
0.0012346666
0.0018337108
9.764745E-4
8.3658495E-4
8.8667555E-4
-6.1002176E-4
-0.0019809655
-0.0028740303
-0.0022842137
-0.0013028798
-7.3273334E-4
1.4731493E-4
-3.9888232E-4
-8.3390035E-4
-4.6469845E-4
8.573185E-5
0.0014502018
3.811715E-4
-8.7682754E-5
0.0029119079
0.0031244063
0.0024853307
0.0035364216
0.0022704776
2.891992E-4
-8.709056E-4
-0.0015523247