0.0036570202
0.0025729376
0.0024770214
0.0041932953
0.00336264
0.0030254899
0.0036273345
0.0033918072
0.002757969
-0.0011156857
-0.004308433
-0.0028106296
3.4157455E-4
0.0030398602
0.004040664
0.004207664
0.003161451
1.6410075E-4
-0.0034773767
-0.0074145924
-0.008757895
-0.009307885
-0.010151101
-0.0050617713
3.6596938E-4
2.3358765E-4
0.0019652522
0.005952365
0.0054207486
3.7148598E-4
-0.005283741
-0.008935131
-0.006847891
-3.2667795E-4
0.0039080367
0.00686406
0.008460607
0.006585758
0.004700135
5.981254E-4
-0.0047923573
-0.0061941803
-0.0045531
-6.889546E-4
0.002558798
0.0055363625
0.008823716
0.00817153
0.006910517
0.0029985104
-0.0061067804
-0.011102846
-0.010269854
-0.0048931697
0.002672284
0.0062173596
0.006772392
0.0054969373
0.0034911481
-1.0124347E-4
-0.0075942236
-0.011468527
-0.008917808
-0.0038355612
0.0019305096
0.0040029823
0.004772517
0.008161313
0.0075746467
5.468535E-4
-0.006780511
-0.011453257
-0.010185287
-0.0014282088
0.004543741
0.005467701
0.007930986
0.0079197325
0.0058521004
0.0014237423
-0.008055142
-0.010398737
-0.0051757316
-0.0018791714
1.8248621E-4
-6.83266E-4
-3.8813704E-4
0.004931733
0.006972327
0.0024516373
-0.0050337235
-0.008567205
-0.0055163344
2.0416602E-4
0.008295894
0.013254112
0.012086097
0.010971158
0.0071827155
-8.219484E-4
-0.0075070946
-0.011503089
-0.011267427
-0.006915798
-0.0018164335
7.1259786E-4
6.326402E-4
0.0025655976
0.003537722
-0.0020395904
-0.009309466
-0.01261727
-0.009954291
-0.002209789
0.0060198964
0.010364272
0.008869423
0.0054474375
0.002982068
-7.2050194E-4
-0.0034988583
-0.0036084394
-0.0022380303
0.0019741568
0.0063842707
0.0059866714
0.0040661325
0.006364737
0.00789717
0.0026383111
-0.004338917
-0.008892562
-0.010771926
-0.008448779
-0.0021300972
0.0063383854
0.012148406
0.012501405
0.005207329
-0.010098498
-0.017401656
-0.010665646
-0.004248234
0.0014540433
0.0064850147
0.004192122
0.0020664374
0.0033424639
0.0032982342
7.2432257E-4
-0.0052985623
-0.008255511
-0.005194228
-0.0019982536
0.0026684576
0.007207894
0.0067777154
0.0054883207
0.004815707
0.0021319042
-0.0037395267
-0.009824916
-0.008305554
-0.0025240008
6.115758E-4
0.0034612326
0.004037975
0.0031410297
0.0039654956
8.9891546E-4
-0.005103024
-0.008412332
-0.006480544
2.942507E-4
0.0043950193
0.006064143
0.007988042
0.0060069175
0.0033420192
6.7367393E-4
-0.005375523
-0.010186007
-0.009759588
-0.0048170453
4.6789614E-4
0.0026103298
0.0035724998
0.0060166083
0.007831902
0.00435795
-0.0013861995
-0.0034312343
-0.0020221486
0.0011583088
0.003647932
0.0048545157
0.005005064
0.0035127455
0.0027116376
-3.961563E-5
-0.0075224163
-0.013976069
-0.01485174
-0.010794885
-0.004561925
0.0018091138
0.0059645376
0.007194083
0.007745054
0.005860923
2.5306395E-4
-0.0049288548
-0.0041502276
0.0019897744
0.006671442
0.008509871
0.007340523
0.0046033654
0.0032372533
-8.90612E-4
-0.0064672604
-0.012106249
-0.01435827
-0.0069024027
-0.0010097357
0.0032129835
0.008915489
0.009236581
0.013614073
0.0068377745
-0.01597691
-0.018421587
-0.009277073
-0.0052647246
0.0036821165
0.0071947956
0.005783783
0.0072654937
0.0067770537
0.00399273
-0.0018315396
-0.0047781295
-7.251766E-4
0.003382687
0.003924238
0.003514234
0.004996642
0.0028631291
-0.0031289665
-0.009184687
-0.016690759
-0.016003171
-0.00612735
0.0014362901
0.0062315315
0.009881984
0.01226839
0.01005411
0.0037407323
-3.849497E-4
-0.004746124
-0.0063244677
-0.0014293316
0.0023765026
0.0032261293
0.003613001
0.005000623
0.0049843406
4.162983E-5
-0.0065471902
-0.012093321
-0.01231891
-0.005720497
6.459371E-4
0.005314867
0.008954357
0.008902343
0.0065781972
0.003621469
-0.001943849
-0.007357282
-0.006603071
-0.0027601377
3.4883124E-4
0.002668937
0.0022184118
0.0032211393
0.0047207787
-7.8135123E-4
-0.0070877788
-0.007225874
-0.004421659
-0.0015297156
7.901968E-4
0.003299066
0.0057434877
0.0056175585
0.0036112964
9.314501E-4
-0.003607039
-0.008393538
-0.009675658
-0.005084449
0.0016247882
0.0040241284
0.0047000754
0.0055559142
0.0037448492
0.0010200808
-0.002976761
-0.0073329373
-0.008824833
-0.0061162245
0.0015147225
0.0063082455
0.0077732895
0.01093244
0.009285266
0.00562528
0.0024349445
-0.0047282944
-0.00783639
-0.0027043805
0.0043280097
0.0047314656
0.001561912
0.005640964
0.008042827
0.002305331
-0.0053284313
-0.012675297
-0.01404093
-0.008772141
-6.576959E-4
0.0058759945
0.006579348
0.005901911
0.004035159
8.321214E-4
-0.0037221946
-0.0094906995
-0.009952496
-0.012976089
-0.014681389
-0.0025996598
0.005970402
0.006914445
0.008456098
0.0058694244
0.0018243158
-0.0030513045
-0.0053490796
-4.3457554E-4
0.0045643765
0.00772737
0.009362493
0.009744408
0.0099013895
0.0068906476
5.513587E-4
-0.007040728
-0.009571386
-0.0062726545
-0.0031230145
2.6029354E-4
9.954756E-4
7.1308133E-4
0.0041897916
0.0037715256
-0.0018885883
-0.0069556353
-0.009542546
-0.0075124106
-0.0012783989
0.0051060715
0.006780458
0.0049001053
0.0029985271
3.5247885E-4
-0.0026011302
-0.0066431686
-0.009110663
-0.0051035346
0.0011127461
0.005929263
0.008682362
0.009028107
0.009092855
0.0057286415
-0.0023485105
-0.009315572
-0.012048918
-0.0100953765
-0.0045386166
0.0021619222
0.007816018
0.0096305385
0.008049321
0.005306663
-7.132045E-4
-0.008429132
-0.010524066
-0.0074002473
-0.0025704112
0.003472929
0.006865308
0.007187307
0.006638831
0.0039467737
-0.001076249
-0.0077070165
-0.011117175
-0.007869461
-0.0028596723
0.0020231572
0.005609812
0.0068439734
0.00845993
0.00570906
-0.0013696005
-0.0059081954
-0.0101111345
-0.008611356
-4.2752875E-4
8.954854E-4
0.0015351137
0.008487038
0.01014548
0.005940166
2.4136275E-4
-0.0073533254
-0.010523751
-0.0063188677
-0.0010241058
0.003032843
0.007152351
0.0072724214
0.0052765296
0.0061999997
0.0021967671
-0.0073753754
-0.0113524115
-0.008361435
-0.0036029567
-9.0400135E-4
0.0017884206
0.0056852596
0.005231184
0.0031592848
0.0021340887
-0.0030231045
-0.008509238
-0.0071640094
-7.923058E-4
0.005737803
0.010527978
0.012007437
0.010077525
0.0064251157
3.4116095E-4
-0.0057100775
-0.0089440225
-0.008260669
-0.0042185956
-0.0029105444
-9.341574E-4
0.0017337396
0.001435933
0.006833988
0.0028065161
-0.013225359
-0.012467541
-0.008139424
-0.008987233
0.004396624
0.015296106
0.00848267
-7.463581E-4
4.7787963E-4
0.002920339
-0.0044931713
-0.006722498
-0.0017900763
-6.241317E-4
0.002169677
0.0032972554
0.0023280948
0.0045051803
0.0053368523
0.0033384415
-0.0027781657
-0.007083105
-0.004643628
-0.0010262964
0.0045517576
0.00844069
0.006999392
0.0054496853
0.0044354894
0.0018353707
-0.004338475
-0.008961876
-0.0060173683
4.69773E-5
0.0030253094
2.4335722E-4
-0.0010056687
0.0016845979
-6.4076296E-5
-0.0038537849
-0.007641215
-0.01089317
-0.008679098
-0.0035195262
0.0020368362
0.0059720287
0.009173263
0.013613347
0.012937683
0.0057727257
-0.0056429035
-0.014837217
-0.013388683
-0.006904041
-3.0170997E-7
0.0050493563
0.006627842
0.009497038
0.008008446
5.9124926E-4
-0.0045225606
-0.00696965
-0.0061091105
-0.0035800154
-3.7977728E-4
0.00633428
0.010000133
0.0071757766
0.0026339395
-0.0012221492
-0.0045109284
-0.008914665
-0.010039482
-0.005257406
-0.0012791075
6.2315114E-4
0.0034376632
0.006416025
0.007985891
0.0054288344
-0.0028609156
-0.009945557
-0.008216933
-0.0025630214
0.0016220707
0.0050679836
0.0069948724
0.008084666
0.0061749234
-2.5416067E-4
-0.0053102
-0.008071008
-0.0077306814
-0.0010937757
0.0049462668
0.0054387813
0.0050004767
0.00594493
0.0049025347
-7.1957725E-4
-0.0078561725
-0.012080908
-0.010688122
-0.0047366573
4.6397586E-4
0.0034498821
0.005491778
0.006963449
0.0073598
0.0045246757
-1.1875416E-5
-0.004238644
-0.0062672948
-0.002836162
0.0011896645
0.0019130169
0.0027043321
0.003908904
0.003940341
4.7338144E-5
-0.007076239
-0.011171237
-0.008951256
-5.3937786E-4
0.00851182
0.014003256
0.018115446
0.016040774
0.0049502496
-0.0065845987
-0.013578999
-0.016075775
-0.013827482
-0.0082517965
-0.0016938247
0.0034431578
0.0060889632
0.008769922
0.010152278
0.00220068
-0.011067259
-0.016505957
-0.014024261
-0.007641167
3.4453542E-4
0.0048259413
0.0068113953
0.007986919
0.005353777
-0.0012200676
-0.0075607877
-0.0088712
-0.00562822
-0.0010862257
0.0022871906
0.003910047
0.00893668
0.015748955
0.016668437
0.014553977
0.010127455
0.0010830031
-0.004726695
-0.005141327
-0.003543563
0.00297232
0.011355653
0.0131054325
0.0053499723
-0.008553007
-0.019710392
-0.020761685
-0.012835495
-0.0031284525
0.002171661
0.001947468
-0.0015283248
-0.002682606
-0.0014446708
-0.0057111816
-0.012928114
-0.0146413045
-0.0112906825
-0.0038792938
0.0057502813
0.011354143
0.012284152
0.013311438
0.014410337
0.010870331
0.002978942
-0.0033769596
-0.004452061
-0.0016599763
0.0016425084
0.0039200694
0.0045168195
0.0046882043
0.00479281
2.3119792E-4
-0.008421507
-0.013538065
-0.012492283
-0.008447383
-0.0025879575
0.0046097315
0.007869206
0.0066993297
0.006573063
0.0046083443
-0.0016169178
-0.0071503334
-0.00873758
-0.0043417686
0.002604794
0.005665723
0.005244985
0.0029933222
-3.8773494E-4
-0.004612523
-0.010551254
-0.013378162
-0.009297368
-0.0028678132
0.003689754
0.009201569
0.010452735
0.010459517
0.009106127
0.0034010785
-0.0014316686
-0.0049301395
-0.0070492583
-0.0019270873
0.006224983
0.011269841
0.011265255
0.0067206123
0.0036208488
5.536746E-4
-0.0048789233
-0.0075944215
-0.006153923
-0.0019659775
0.0022423898
0.006799567
0.010746211
0.009587786
0.008208646
0.004015087
-0.0074276566
-0.013905875
-0.014419553
-0.01299875
-0.00802281
-0.007049928
-0.008242061
-0.0052780695
-0.003188165
-0.0040580584
-0.007188128
-0.01238519
-0.017129473
-0.015755266
-0.007182449
-6.633595E-4
0.0022272686
0.006665615
0.010837506
0.01013869
0.0010862978
-0.010024599
-0.013188548
-0.0055474374
0.012293287
0.029924652
0.039966036
0.047139145
0.047135267
0.035338923
0.019540403
0.006863172
0.0019101232
0.004758971
0.005512561
3.8440343E-5
-0.004489153
-0.009621446
-0.018637875
-0.029074974
-0.042563852
-0.047698326
-0.03919559
-0.03419925
-0.030909998
-0.025562814
-0.024170753
-0.017653717
-0.011038819
-0.011790026
-0.010823001
-0.0106935175
-0.008104899
0.0069300444
0.027963128
0.044899136
0.051242147
0.050406914
0.05145298
0.051769204
0.042351812
0.021839019
0.0034326632
-5.03209E-4
0.004073171
0.005593024
0.0018374677
-0.002282208
-0.0037161259
-0.0065237293
-0.017437045
-0.031011287
-0.034856506
-0.030867402
-0.022504449
-0.009323182
0.0010664933
0.00568101
0.005821435
7.7490706E-4
-0.0073674964
-0.014621497
-0.016934099
-0.015827846
-0.015533852
-0.018147483
-0.019796422
-0.014307735
-0.009520876
-0.009325682
-0.0081711495
-0.008339409
-0.0045934306
0.0058864523
0.012558776
0.0121097965
0.010219559
0.015223927
0.024605403
0.028170578
0.026274487
0.02361336
0.024616262
0.031657234
0.04335422
0.05197117
0.05153669
0.050660748
0.04473347
0.023036057
-0.003876678
-0.02877598
-0.046209473
-0.0494386
-0.044707
-0.04723971
-0.0692131
-0.085798964
-0.07196596
-0.054137208
-0.048608296
-0.041617725
-0.028304227
-0.011270054
0.0022974305
0.01131161
0.019850522
0.022594187
0.021132175
0.021584708
0.019224664
0.019190649
0.030690286
0.042043157
0.0519233
0.06991047
0.07849967
0.06891459
0.06226835
0.0649123
0.06070554
0.044052344
0.026010737
0.006982784
-0.012550998
-0.017487843
-0.012498665
-0.013070392
-0.022337778
-0.04669221
-0.08328872
-0.11215195
-0.12660243
-0.13287921
-0.12448947
-0.10233649
-0.0806743
-0.057343792
-0.034699004
-0.020513726
-0.009847395
-0.0018789653
0.014438128
0.039200217
0.047419913
0.046646617
0.061536375
0.08839119
0.10297529
0.098559484
0.102159336
0.11603889
0.12847187
0.14531255
0.13686076
0.09801267
0.083922766
0.08408098
0.03817341
-0.04153616
-0.10417799
-0.14627773
-0.18399166
-0.2024747
-0.18301862
-0.13829155
-0.092926934
-0.0467445
-3.4776557E-4
0.016473508
0.002760537
-0.010246865
-0.013973265
-0.009567563
0.0021135067
0.015953936
0.0222481
0.007320811
-0.02091225
-0.044812694
-0.046256
-0.017139835
0.011378979
0.037297525
0.08229038
0.11304564
0.114842616
0.11289319
0.11252525
0.10396698
0.06889319
0.021344885
-0.010285746
-0.03598132
-0.050065354
-0.044887852
-0.040641584
-0.041690093
-0.053124733
-0.068561725
-0.06056412
-0.03949632
-0.03249785
-0.03503677
-0.02879615
-0.013757424
-1.9743346E-4
0.021199744
0.0483001
0.045494463
0.0035442146
-0.041111715
-0.057324417
-0.04266892
-0.008568801
0.028969534
0.060495898
0.09039187
0.12029999
0.14358512
0.14587794
0.106937975
0.0227623
-0.07216735
-0.11787507
-0.107025966
-0.080468275
-0.047746997
-0.042041745
-0.085203476
-0.10214058
-0.078234926
-0.06951804
-0.054307707
-0.008341783
0.03743401
0.064785466
0.073458955
0.049410593
0.007126249
0.002802489
0.013056233
-0.0020875826
0.015244065
0.042266563
-0.0057552676
-0.07831004
-0.0951005
-0.069889024
-0.053265117
-0.04924573
-0.02478449
0.007851996
0.020800732
0.024525365
0.04303515
0.09081727
0.1539179
0.20710056
0.22547455
0.1909686
0.13308719
0.09758037
0.08319645
0.05339657
-0.005695172
-0.07760227
-0.14590706
-0.18010546
-0.17723769
-0.17547825
-0.17084536
-0.14930157
-0.1122811
-0.062222894
-0.04574283
-0.06824772
-0.07023797
-0.050000455
-0.029917149
-0.0044585634
0.021060593
0.043321956
0.07000858
0.100372046
0.1259562
0.14251257
0.14837591
0.1341764
0.09846381
0.05762436
0.024543336
-0.011602763
-0.055912334
-0.07513738
-0.06281179
-0.05678952
-0.059604637
-0.05604946
-0.051708214
-0.05006852
-0.052633986
-0.055773307
-0.052668247
-0.04420509
-0.030437907
-0.005943129
0.037680957
0.0891917
0.12139641
0.13561012
0.1522667
0.16824
0.15691997
0.106548265
0.034339063
-0.0378621
-0.09291887
-0.12879193
-0.15155384
-0.15172519
-0.13350973
-0.11874576
-0.10142968
-0.058282807
-0.004705339
0.022987727
0.042342518
0.073498875
0.08770994
0.08731086
0.08324561
0.058256675
0.02373581
-0.002849599
-0.019344967
-0.03288547
-0.05268772
-0.05908757
-0.04351085
-0.01898379
0.0022134266
0.0011806763
-0.003728717
0.0025819303
-0.0046548713
-0.014017314
-0.01301264
-0.012871362
-0.008893347
-0.013190753
-0.027519027
-0.028093608
-0.014010755
0.008069719
0.032694947
0.055058356
0.07132059
0.07190196
0.066033475
0.060239583
0.04692603
0.028124057
0.006681413
-0.0014697124
0.0030885357
-0.009142836
-0.028031515
-0.03478258
-0.04092462
-0.047812626
-0.046311338
-0.031926867
-0.018639036
-0.01503181
-0.0034143461
0.010213608
0.01930738
0.038330458
0.043029178
0.016803304
-0.0066980678
-0.014328755
-0.014886633
-0.00874193
-0.00754018
-0.011297747
-0.004595547
0.006262769
0.014596698
0.017316153
0.0026982646
-0.021372596
-0.03927826
-0.040930964
-0.027284348
-0.022148939
-0.026579248
-0.022914058
-0.014962822
-0.007338656
-0.005026009
-0.0073062433
-6.8567204E-4
0.011422354
0.021389702
0.029845903
0.03699089
0.042058982
0.030746127
0.0025145202
-0.011540693
-0.0058952034
-0.004149788
-3.4162545E-4
0.017269475
0.032237615
0.04338317
0.055733953
0.058959693
0.057470296
0.045668725
0.016009487
-0.011512272
-0.03717386
-0.06279219
-0.06735135
-0.05583142
-0.04634057
-0.04211024
-0.037096683
-0.02775709
-0.020865303
-0.013066604
-0.0020064833
0.0019858668
0.003003998
0.0067164437
0.00620135
0.0016405368
-5.7564303E-4
-0.0037117999
-0.008691379
-0.0025668317
0.012541451
0.02418572
0.03253937
0.03465572
0.031715266
0.025899716
0.012122991
8.564548E-4
-0.003079613
-0.0073651234
-0.005168974
0.0033841217
0.006562049
0.0057233972
0.0058855647
0.0057193884
0.004016501
-0.0029070242
-0.015082221
-0.02122039
-0.017776042
-0.010615598
-0.001155626
0.0067013158
0.010136175
0.009148375
0.003067597
-0.0029393027
-0.0075511546
-0.011395396
-0.010930553
-0.00904765
-0.0069562406
-0.0045063784
-0.004374422
-3.85908E-4
0.0047072466
-5.4031243E-5
-0.0039751227
9.798737E-5
9.4147143E-4
0.0013308572
0.006699146
0.011145505
0.0127009675
0.007966364
-9.916002E-4
-0.0057385433
-0.010683251
-0.017481184
-0.016825184
-0.0074436585
0.0015282519
0.0035502403
0.003948928
0.0044327504
-0.0020279854
-0.012441762
-0.01755591
-0.01297912
-0.0034061288
0.0036712005
0.010195969
0.017372364
0.025251647
0.03323552
0.029609723
0.016685512
0.008252799
2.8991333E-4
-6.8229405E-5
0.017406614
0.022671316
0.0037504532
-0.0022139114
0.0093214745
0.005488567
-0.015603099
-0.03132841
-0.033327162
-0.027775276
-0.020017473
-0.012824476
-0.009985283
-0.009291963
-0.0050059995
1.4680083E-4
0.0010457946
-8.3206006E-4
-0.001942624
-7.336547E-4
1.7875731E-4
-0.0010997001
-5.4283004E-4
0.0026500174
0.006776975
0.009290171
0.0044411933
-0.0025109916
-0.0052282903
-0.005630242
0.0011910901
0.009991913
0.0069925073
-0.0025528506
-0.007852608
-0.00873772
-0.010909549
-0.014321278
-0.010975294
2.9343195E-4
0.012537577
0.022696992
0.034335632
0.043924898
0.044970457
0.038799077
0.020801855
-0.001561799
-0.0122372145
-0.01544907
-0.011002262
-0.0038396113
-0.004446163
-0.0025974216
-0.0014950539
-0.008641983
-0.02058628
-0.035708636
-0.039310176
-0.033212088
-0.030962009
-0.026371712
-0.019163871
-0.010644611
-0.0029019346
-1.2644472E-4
0.005112954
0.009898105
0.009252472
0.007645683
0.009744998
0.018217271
0.023563383
0.02599692
0.029850539
0.024819508
0.018625936
0.018520957
0.015769567
0.011922865
0.0056378855
-0.0026528805
-0.0072383843
-0.011754551
-0.013200948
-0.011758012
-0.017179176
-0.023024503
-0.02069106
-0.015012577
-0.008715102
-0.0036267343
-0.0026464665
-0.002164009
8.576794E-4
0.0032078885
3.8180922E-4
-0.0054668463
-0.005929965
-2.3547102E-4
0.00563157
0.008703883
0.0076504024
0.0063571846
0.009979747
0.0122074885
0.0059668496
-6.561679E-4
-0.0029315862
-0.008385356
-0.00951757
3.8281875E-4
0.006545782
0.0070070885
0.008552862
0.006056449
-0.0014534348
-0.008949586
-0.010365885
-0.004600022
0.0040400517
0.01278297
0.015315815
0.011087262
0.007028986
0.0041625523
-0.001033261
-0.009540902
-0.012687257
-0.00853229
-0.007146938
-0.006890687
-0.0038792137
-0.0012301123
2.8385795E-4
5.364206E-4
-0.001770061
-0.008603731
-0.014162771
-0.012810294
-0.007460534
0.0017729101
0.008789261
0.009962293
0.012315383
0.013250867
0.009924959
0.0035631256
-0.0027051505
-0.0020353652
-0.0012980864
-0.0034184635
-0.0020324027
-0.004147841
-0.0090037575
-0.00859609
-0.007390047
-0.00844417
-0.010375438
-0.007002134
0.0065587447
0.017841797
0.017399058
0.010329342
0.0030073104
0.0028239088
0.0045982604
-0.0024465192
-0.008664439
-0.006535288
-6.144983E-5
0.011096754
0.020375684
0.021986663
0.020849282
0.01715147
0.00847966
-0.0018022915
-0.00877011
-0.013757755
-0.020236464
-0.022019606
-0.014172976
-0.0060565085
-0.006972476
-0.010382874
-0.009940843
-0.01286582
-0.01666311
-0.011992535
-0.00462782
3.8422094E-4
0.005883625
0.0124963885
0.019134311
0.021393744
0.014345441
0.0020984309
-0.0026645674
0.0012104348
0.0012142068
-4.3882063E-4
0.004407251
0.0065233815
-3.7398704E-4
-0.008330097
-0.012880474
-0.0162955
-0.018326446
-0.01573445
-0.0074039116
0.0023085405
0.007245242
0.008069464
0.0076609454
0.00563294
0.002867176
-0.002711301
-0.008723838
-0.0029824001
0.010821863
0.020224854
0.029252008
0.037905492
0.039237283
0.034242034
0.019849136
0.0017803595
-0.005439337
-0.007394699
-0.011385635
-0.01789438
-0.029696522
-0.035468012
-0.030562319
-0.026755603
-0.025708945
-0.025745997
-0.024341973
-0.01626877
-0.0047223754
0.003760726
0.0068257316
0.009585146
0.012894373
0.012842999
0.012952816
0.008645193
-9.647858E-4
-0.0032945701
-3.8487723E-4
0.0025951834
0.0065577384
0.00810002
0.008147306
0.006967635
0.00389216
0.003299997
0.007697289
0.014132948
0.018570522
0.024418889
0.026473472
0.011351302
-0.008917114
-0.015989613
-0.01251039
-0.0068076183
-0.006282738
-0.009961964
-0.007944017
-5.3170114E-4
0.004122388
0.004452588
0.0037304421
0.0026960403
-0.0022978282
-0.015337986
-0.029807478
-0.032018963
-0.024343485
-0.019096207
-0.01606195
-0.011697343
-0.0075120004
-0.003801385
-0.0022677025
-5.98872E-4
0.0076721557
0.018136783
0.025841765
0.035067573
0.043482862
0.045707814
0.045525927
0.044777494
0.033729155
0.012440831
-0.002017266
-0.009642022
-0.01775799
-0.019760862
-0.018823344
-0.018619882
-0.01765834
-0.022352982
-0.03324186
-0.047496296
-0.057390157
-0.052292954
-0.03633945
-0.020655997
-0.011698462
-0.0032029855
0.0068545984
0.012000417
0.015245585
0.007177067
-0.005077783
0.0057004835
0.022964688
0.033499915
0.046978675
0.056518495
0.06290073
0.05987928
0.04314538
0.029539568
0.01752783
0.0075872093
0.005144138
-1.8855176E-4
-0.007553334
-0.01947289
-0.039517127
-0.051979695
-0.056358702
-0.06067647
-0.05893326
-0.051120393
-0.03859512
-0.020727005
-0.004299882
0.009346147
0.019087028
0.021062143
0.017611952
0.009233838
0.0025883508
0.004325879
0.008525618
0.014905479
0.02536644
0.03621491
0.03969532
0.031489264
0.021397315
0.009467879
-0.006210378
-0.015275713
-0.01921969
-0.0154474825
-6.0781674E-4
0.012187708
0.017176246
0.014053828
0.005663092
-0.0050307396
-0.019410653
-0.02641755
-0.020967012
-0.01094576
-0.003128034
8.908646E-4
0.014955337
0.03302985
0.029820094
0.016049815
0.010723562
0.007354152
-0.0035539882
-0.019415481
-0.032034475
-0.04833532
-0.069681555
-0.07600317
-0.06390754
-0.04291634
-0.017983422
0.0030656196
0.016076582
0.018998183
0.018942388
0.02823065
0.0431579
0.05683349
0.059954047
0.046265196
0.029014556
0.0146125285
0.004362715
-5.7612394E-4
-0.008604532
-0.0044610347
0.023021948
0.042522054
0.03904572
0.038859952
0.05011013
0.028664023
-0.042531252
-0.093078695
-0.082798295
-0.058627952
-0.037889823
-0.0016497037
0.025936749
0.028785078
0.03582311
0.042668104
0.020998988
-0.012065322
-0.029188605
-0.031163106
-0.030997386
-0.038215443
-0.044805832
-0.039823163
-0.026267389
-0.007316568
0.013747186
0.020815864
5.409534E-4
-0.030147858
-0.041129008
-0.026595086
-0.008694422
-0.008096202
-0.008688806
0.0123606725
0.040046778
0.06262296
0.08713188
0.098336466
0.07962438
0.046989314
0.022606146
0.013531859
0.01627807
0.016527856
0.006181982
-0.015196383
-0.05212727
-0.088056035
-0.104271926
-0.09669754
-0.048546895
0.014425638
0.027672037
0.0050084954
0.017197784
0.065083094
0.07883592
0.040608227
2.3530285E-4
-0.027059516
-0.05353231
-0.06592516
-0.05173961
-0.030099398
-0.023245903
-0.005071332
0.03502027
0.04916956
0.037900727
0.032766942
0.023938393
0.0074829813
-0.018599365
-0.055798423
-0.084171906
-0.09041677
-0.06349624
-0.017395204
0.023577219
0.059388988
0.06161864
0.04727128
0.08204399
0.1208813
0.11314407
0.09630616
0.076849796
0.04559035
0.009840463
-0.026031584
-0.04256083
-0.036977578
-0.02877855
-0.025335796
-0.032462787
-0.0664515
-0.105987184
-0.10906372
-0.10996372
-0.12754726
-0.11409905
-0.09158246
-0.08506647
-0.0628252
-0.027689638
0.007998781
0.044725403
0.07457377
0.08417853
0.09100982
0.12185493
0.117951974
0.059928607
0.030494053
0.041855168
0.06750659
0.100781344
0.119960226
0.12858537
0.13124004
0.10965569
0.06330174
0.021492457
-0.013561585
-0.07485282
-0.1380381
-0.17957608
-0.21465014
-0.21414809
-0.17328596
-0.12167848
-0.07038583
-0.03609342
-0.014357313
3.7611224E-4
0.0054039834
0.014573223
0.025207125
0.028450176
0.024786463
0.03439901
0.067100726
0.09252016
0.116354875
0.13819565
0.117181405
0.07316439
0.036939207
0.0067274855
-0.005943102
-0.005645837
-0.008108738
-0.018070547
-0.033613667
-0.04073558
-0.034502298
-0.026647706
-0.027673526
-0.036118787
-0.045095507
-0.051842
-0.053990807
-0.053394347
-0.045829464
-0.02504378
-0.0075593977
0.0011789175
0.017035156
0.034507
0.043849584
0.049602658
0.04760688
0.035395022
0.022365175
0.012148913
0.002589626
-0.007642462
-0.019534796
-0.032217212
-0.041193806
-0.03716652
-0.021731658
-0.010917476
-0.004846258
0.01096763
0.036107216
0.057611242
0.06885361
0.07151729
0.06327319
0.034688953
-0.012113087
-0.047778945
-0.047330484
-0.028133709
-0.012543875
0.0023410514
0.012620882
0.01336549
0.013716733
0.01203141
0.0015023825
-0.013310588
-0.03210285
-0.053655904
-0.06020587
-0.045940027
-0.02742021
-0.010931383
7.3661585E-4
-0.00442896
-0.01696883
-0.014223322
-0.004296602
-0.002953895
3.970977E-4
0.007355319
0.013981307
0.025539307
0.023678586
0.012790249
0.020549065
0.025546582
0.017473577
0.014639116
0.011420099
0.015994923
0.030723713
0.034998037
0.03418343
0.030661555
0.0143070705
-0.0041941716
-0.015140262
-0.023065979
-0.028125264
-0.026384763
-0.022807045
-0.02138832
-0.019894598
-0.020155916
-0.02129844
-0.022365918
-0.0241407
-0.021209495
-0.012116527
-0.0020222613
0.004402281
0.008630596
0.012684107
0.011809849
0.008637932
0.008562574
0.011884452
0.020662634
0.029936533
0.035307936
0.036401164
0.026978215
0.010016636
-0.0025691949
-0.009700694
-0.021869402
-0.03642202
-0.03410146
-0.0185578
-0.0063855555
0.0027649049
0.0013605533
-0.016196024
-0.03049505
-0.030489242
-0.024958061
-0.017215151
1.5890431E-4
0.024871768
0.03761527
0.03603102
0.03860965
0.04361237
0.035901032
0.012264152
-0.015803272
-0.027588291
-0.023222117
-0.016157879
-0.008316977
-0.0035477583
0.0044277296
0.017568389
0.015765186
0.0025501905
-0.008177311
-0.016702162
-0.018969692
-0.019673964
-0.019193932
-0.009964097
-0.0032281175
-0.0052703624
-0.0074154865
-0.0065630223
-0.007299327
-0.009382077
-0.0020638339
0.010791268
0.013440207
0.009621311
0.013320146
0.023493301
0.022298548
0.008200756
-4.620873E-6
-0.002711326
-0.003051627
0.004136057
0.007352123
0.0077127125
0.0153122535
0.01614005
0.009322741
0.0060305856
-0.0023571206
-0.012336842
-0.014549295
-0.017032254
-0.014935679
-0.0064521143
-0.0057765455
-0.006549871
-0.0019591684
-0.0036712117
-0.012731034
-0.017065907
-0.009426509
0.0040788474
0.018115168
0.029006727
0.023526635