0.0051616654
0.009416988
0.012516359
0.011575196
0.009030816
0.0034243292
-0.0071474463
-0.012035439
-0.005641043
2.732012E-4
9.728689E-4
0.0044881376
0.009790957
0.011952867
0.0072044577
-0.006359632
-0.016407905
-0.01459393
-0.0070371116
0.0017339339
0.009355061
0.015094807
0.01935211
0.01840972
0.007821282
-0.0071873288
-0.016163541
-0.017510274
-0.012662432
-0.007396062
-0.007104661
-0.004016364
0.0022345504
0.005558546
0.0028105872
-0.009518062
-0.019002784
-0.016830107
-0.010485795
-0.0019331686
0.0055157486
0.009950442
0.014497773
0.015597699
0.011610022
0.004783243
-0.002525834
-0.0053941254
-8.037417E-4
0.006541081
0.00833479
0.00710672
0.011312864
0.018024126
0.016835136
0.0053840145
-0.006372893
-0.009472728
-0.005523523
-0.0020506112
-9.901329E-4
0.0025186474
0.0043017813
-0.0013541831
-0.008810979
-0.015315166
-0.02000153
-0.018275268
-0.0124003235
-0.007650293
-0.0033372724
0.0010547786
0.004705388
0.008192269
0.0066300435
-7.6460006E-4
-0.0068637216
-0.010971885
-0.010382021
-0.0031280776
0.0036971348
0.007938028
0.010673363
0.012309876
0.010840987
0.0036127267
-0.0030759792
-0.004685549
-0.0031023459
-6.6912995E-4
0.0018393735
0.0065543805
0.015443507
0.026466828
0.02417119
0.005466954
-0.00901746
-0.016513782
-0.017679505
-0.008269084
0.0011484735
0.009417884
0.017633613
0.024505956
0.02645284
0.011858361
-0.0011619909
-0.0038989352
-0.021946594
-0.043493785
-0.0437986
-0.031434286
-0.017259728
-0.0058862558
-0.0035812203
-0.008940575
-0.011775759
-0.010228847
-0.0068046036
7.1444624E-4
0.0054666074
0.0035801989
0.004326869
0.013482197
0.024011344
0.021608967
0.008594907
0.003829704
0.012259578
0.021624045
0.025592826
0.027046517
0.02718603
0.030088423
0.028183453
0.006861591
-0.0207484
-0.03681082
-0.035037715
-0.021307217
-0.01829686
-0.018802194
-0.006472693
-6.9575734E-4
-0.005244593
-0.0028135323
-0.0025415283
-0.018611629
-0.030450402
-0.022773676
-0.012967843
-0.0024224627
0.011013514
0.019683622
0.029619193
0.023300005
-0.0051224413
-0.010194543
0.01411066
0.02689994
0.020276152
0.00910545
9.15974E-4
0.005553144
0.014681901
0.005537691
-0.010628482
-0.015530649
-0.015258293
-0.013470624
-0.012429031
-0.010794116
-0.0038115645
0.0033769284
0.004867621
-9.486401E-4
-0.006559255
-0.0072869756
-0.0029000659
0.0076501686
0.0071442556
-0.001623098
0.0032800327
0.009962262
0.009151539
0.0063005635
0.0012787055
0.0015503169
0.011087538
0.019822694
0.0059212875
-0.0218228
-0.02137041
-0.0027938331
7.761274E-4
-0.0048179105
-0.015152476
-0.019714268
-0.0034416982
0.008095575
0.0016092431
0.0022433854
0.007079378
0.0039690873
0.0036599184
-2.4725904E-4
-0.00930229
-0.009383444
-0.004325256
0.0070470925
0.020223392
0.024400776
0.03177629
0.029189108
-4.2881045E-4
-0.024839815
-0.028179199
-0.026288543
-0.018910328
-0.004956434
0.0048511084
0.009137254
0.012990102
0.013776421
0.009554972
9.871906E-4
-0.011395165
-0.019990899
-0.018968508
-0.011688381
-0.0053453078
-6.577455E-4
0.007821497
0.015440187
0.014587803
0.0050676605
-0.005982543
-0.0087091625
-0.0045972452
0.0051549934
0.01534317
0.013950999
0.011114247
0.015331043
0.022489628
0.022810403
-0.0057849716
-0.04080742
-0.042043597
-0.025195567
-0.0067669568
0.014149627
0.029256288
0.030771004
0.0071953908
-0.023997318
-0.030234307
-0.023659732
-0.018187001
-0.0076881894
0.0010621517
0.007515326
0.014975709
0.01854176
0.02002882
0.0138044795
-0.0025192657
-0.009578911
-0.0044440525
-0.00393794
-0.008317581
-0.004982839
0.0060227322
0.011055471
0.009650981
0.0058024907
-0.0031628832
-0.004013445
4.9303874E-4
-0.0061778757
-0.008447704
2.2584632E-4
0.00788403
0.010587383
0.003103585
-0.005722496
-0.009529203
-0.013230635
-0.009070047
0.0014288308
0.0076199397
0.009130872
0.012759115
0.019371899
0.01782321
0.008417961
-0.0055112373
-0.022043733
-0.026121197
-0.01602919
-0.003354446
9.5694297E-4
0.0012482234
0.009181233
0.008438924
-5.859631E-4
-0.0058473884
-0.012294149
-0.0044209035
0.0031532748
-0.0067916857
-0.004774041
6.2365807E-4
7.7446736E-4
0.008720117
0.005552373
-0.0065423697
-0.011391565
-0.010103874
-0.0027015754
0.00892715
0.022269899
0.027682664
0.024427215
0.016428648
7.749973E-4
-0.009195979
-0.013666909
-0.018419497
-0.013863472
-0.004065818
0.0062832767
0.008657666
0.0048269248
0.01109538
0.012576109
-7.66349E-5
-0.014425333
-0.021270147
-0.015229759
-0.0077890446
3.551858E-5
0.009043509
0.008816872
0.0077177337
0.0027841458
-0.007028423
-0.007399565
-0.007766624
-0.012613418
-0.012241222
-0.004263093
0.0051614624
0.010461773
0.017099217
0.012399491
-0.0072838175
-0.015559441
-0.012430182
-0.0041017667
0.008632033
0.009780074
0.009100802
0.020884307
0.026686009
0.015317882
-0.0033467475
-0.017536366
-0.017410215
-0.007607288
-6.1492197E-4
0.009128445
0.015922083
0.0047692023
-0.0046221977
-0.0049088486
-0.012273697
-0.019929418
-0.021882147
-0.017157445
-0.004591201
0.0063708
0.014006897
0.016553147
0.013154359
0.009674679
0.0024881486
-0.0051519987
-0.00707316
-0.007806954
-0.007233418
-0.0034523876
0.0052885828
0.015424547
0.01600879
0.007212813
-0.0023941735
-0.005663778
-0.006837518
-0.014045149
-0.012696128
0.0010893306
0.006512363
0.00733965
0.010617521
0.005077111
-0.0035942616
-0.008475956
-0.011417236
-0.008300416
-0.0033494874
0.0016584471
0.008244915
0.011644238
0.016179577
0.01581331
3.2496676E-4
-0.014755553
-0.017165197
-0.011728135
-0.004324605
0.0037019926
0.011729079
0.014440431
0.014069692
0.00997254
-0.0047269138
-0.019887311
-0.024028383
-0.0173774
-0.008694949
-0.004171566
0.0030835094
0.01311669
0.022931611
0.019934153
-0.0064299763
-0.023646416
-0.019890923
-0.012514093
0.00648101
0.017992347
0.0057756435
0.0015584867
0.008424811
0.0065584024
-0.0037044522
-0.015668673
-0.020010991
-0.014209449
-0.005311106
0.0017605969
0.0077504925
0.015296873
0.020995967
0.017667376
0.003522072
-0.009622837
-0.009329693
9.960699E-4
0.014576604
0.020748094
0.012152778
0.006329437
0.011971171
0.009566912
-0.005376408
-0.011918084
-0.0014395171
0.0020595877
-0.014194905
-0.019241793
-0.0062827435
-0.0013878518
8.6270995E-4
2.8169778E-4
-0.011027848
-0.015171965
-0.021387361
-0.036093354
-0.032279264
-0.013720037
8.4022124E-4
0.0074316068
0.011242096
0.02166244
0.023758706
0.0101832645
0.0041054403
0.009490784
0.011724341
0.007570228
0.0044326596
0.008510449
0.015594078
0.015082943
0.0028394568
-0.009435052
-0.010467419
-0.0051747574
-5.0752E-6
0.0038174652
0.009146172
0.01769467
0.016939992
0.0028862269
-0.009093013
-0.018563977
-0.025985088
-0.018176442
-0.007470701
-0.0060430504
2.5642748E-4
0.011165846
0.016207874
0.008806943
-0.007558172
-0.015402611
-0.012908592
-0.006280684
-0.0020906753
-0.0015797488
0.0067717005
0.012165416
0.011644558
0.011264333
-0.0036179214
-0.012169074
-7.8008877E-4
0.005134442
0.001098703
-0.011742852
-0.017216338
-0.0014509179
0.011042829
0.0101991985
-4.9072114E-4
-0.013098263
-0.015742706
-0.013279041
-0.0037289306
0.008099497
0.0146959815
0.022068428
0.022977348
0.017358055
0.007073207
-0.009701707
-0.017232463
-0.011677125
-5.9865095E-4
0.006194388
0.0023452553
0.0027551397
0.013612789
0.021693537
0.013324985
-0.005847063
-0.015223525
-0.016042886
-0.012447386
-0.0034069698
-3.992723E-4
8.332506E-4
0.006258236
0.0064634457
-0.0015878843
-0.015365141
-0.022120493
-0.014441104
-0.007271593
-0.0042963433
0.0040406203
0.01387515
0.01976019
0.018805962
0.005063254
-0.009990301
-0.012164679
-0.007889833
-0.004779362
-0.0055935523
-0.0027560547
0.008858603
0.012731541
0.008593981
0.005984532
0.0018597236
7.944174E-4
-9.474029E-4
-0.006748508
-0.00793567
-0.004872162
0.004383085
0.015890274
0.016058596
0.0020121469
-0.012986362
-0.009152914
9.3050464E-4
0.0016573028
0.0058304863
0.0029874637
-0.0055907946
0.0026163522
0.009045286
0.0028071357
-0.006120151
-0.015570307
-0.013690404
-0.0087481765
-0.006984065
0.0014474164
-0.0020559977
-0.006807449
0.007196375
0.0066295746
-0.006768279
-0.006964946
-0.0035666605
8.150011E-4
0.0030787017
0.003765886
0.012421856
0.019251565
0.02309243
0.021912502
0.0064381855
-0.008825987
-0.011155489
-0.00488006
-0.0033750085
-0.00816834
-0.0027385873
0.008644252
0.010097782
-7.624972E-4
-0.01121938
-0.010214989
-0.011167569
-0.012311815
-0.0040503917
-0.0013770576
-0.0011132322
0.004801309
0.0067225276
0.0011570408
-0.007034792
-0.00500824
8.3435455E-4
-0.0056986096
-0.008844672
5.99516E-5
0.0093406765
0.016874714
0.017043812
0.0050376956
-0.010070795
-0.01768152
-0.014324702
-0.006116694
0.005003734
0.017902274
0.017008573
0.007228586
0.0063801687
0.002448559
-0.009063429
-0.012639907
-0.002432681
0.012556019
0.009641261
-0.0038710602
-7.7870594E-5
0.011761692
0.014137462
0.005048105
-0.007727684
-0.014269845
-0.017400093
-0.015535165
-0.008854073
-0.0032377369
0.0050879163
0.013795775
0.012279792
-0.0025649874
-0.013735513
-0.012288352
-0.008859247
1.891525E-4
0.0027698425
-0.0044354205
0.0033812446
0.0061973636
-3.4198957E-4
0.004725661
-0.00182929
-0.01472
-0.010855529
2.5730103E-4
0.013294473
0.018648492
0.0137723535
0.010387685
0.009357958
0.006687935
-0.0042931386
-0.013793547
-0.008498356
-0.0032822927
-0.0019945337
0.0019354151
0.0017960884
0.005107502
0.010381989
0.0012543187
-0.008288827
-0.010294708
-0.014359895
-0.008881942
0.0039941184
0.009330559
0.0115849385
0.013690751
0.014677435
0.010766707
-0.0037583602
-0.018656472
-0.018778976
-0.009100606
-0.0054193973
-0.0023350024
0.003859014
0.001616472
4.316909E-4
0.001007642
-0.009268919
-0.01784267
-0.016440567
-0.007734728
0.0068440572
0.017059822
0.017699128
0.01716395
0.0188017
0.010423832
-0.0062442003
-0.016825642
-0.017554175
-0.00543912
0.006266463
0.008235318
0.01198203
0.012971071
0.012433273
0.008708981
-0.0076239463
-0.016613394
-0.017452776
-0.019636307
-0.009411462
0.004243979
0.009851452
0.017743703
0.02683974
0.019243801
-0.0040127197
-0.016125781
-0.012147782
-0.006187421
-0.007670515
-0.014680109
-0.0067713326
0.013762175
0.027296504
0.023347154
-0.0035063552
-0.026626118
-0.030816346
-0.031448934
-0.021253137
-0.0038170207
0.0058847023
0.01340567
0.016723832
0.009203697
-0.0084994715
-0.022508195
-0.018484974
-0.0098909475
-0.004703548
0.0057260995
0.018463943
0.029199794
0.035869457
0.030003538
0.012024771
0.0042062644
0.011953011
0.009521945
0.006319897
0.016567806
0.006749411
-0.0114056
-0.0011470453
0.0054512974
-0.0086134905
-0.017962115
-0.022244494
-0.022160675
-0.015924193
-0.011683409
-0.007080757
-0.001726198
0.0042490927
0.0075920117
-0.0039606765
-0.022051929
-0.026372511
-0.015936848
-0.008820014
-0.01187647
-0.005461481
0.012160883
0.02285172
0.02491936
0.015147783
-0.0044146413
-0.0147697
-0.010586011
-7.105473E-4
0.004997112
0.010003496
0.02600367
0.03514652
0.01970919
-0.002601056
-0.018589977
-0.025880998
-0.022862311
-0.012925028
0.006310466
0.019798698
0.0171332
0.0221151
0.02499487
0.006819754
-0.00535638
-0.009508219
-0.018777667
-0.014592573
0.0016622373
0.010363023
0.011783881
0.009123482
-0.0017483096
-0.016926775
-0.026149629
-0.026941404
-0.01996625
-0.007729883
0.0043106005
0.015512878
0.022648955
0.020747148
0.011709877
-0.002165198
-0.018509712
-0.024021896
-0.010598801
8.324431E-4
0.0015163466
0.0065712226
0.010057731
0.009483091
0.008057585
-0.0040648184
-0.014825205
-0.014880595
-0.01116702
0.0020620527
0.019840948
0.023384249
0.011741372
0.0063335937
0.00856459
-0.0041165496
-0.021688294
-0.025407767
-0.020983174
-0.014352665
-0.0075540943
0.003245595
0.014063864
0.01792621
0.015822891
1.8804714E-4
-0.015648475
-0.011800381
0.0015766206
0.015460114
0.022869457
0.021130785
0.017336378
0.010282077
9.634157E-4
-0.011578072
-0.024057366
-0.021433866
-0.0048638303
0.008741797
0.0087269
0.009048505
0.01965789
0.02215464
0.0102975415
-0.011732227
-0.035308592
-0.046669234
-0.050230205
-0.038939763
-0.0109909335
0.010130939
0.021164313
0.023282953
0.024131771
0.028599743
0.006323916
-0.027232695
-0.027674193
-0.019096134
-0.026780102
-0.030024055
-0.019275093
-0.00717593
-0.008860129
-0.026284898
-0.043307114
-0.046518736
-0.03864142
-0.027887253
-0.01831406
-0.006668026
0.015229048
0.04022367
0.04886442
0.042445935
0.038810533
0.046808302
0.065524824
0.08979269
0.10771637
0.100758106
0.071400486
0.05242297
0.04490788
0.016686594
-0.020736145
-0.040314738
-0.050131314
-0.05591655
-0.055556703
-0.052381113
-0.044590622
-0.032067884
-0.020436406
-0.015995722
-0.015115114
-0.015266289
-0.019449674
-0.01848774
-0.019304957
-0.03013615
-0.03555092
-0.034501154
-0.029860437
-0.035123795
-0.06607827
-0.09613289
-0.10325779
-0.08931579
-0.06811663
-0.06240762
-0.07390664
-0.101374775
-0.13109474
-0.1405918
-0.14827783
-0.14504102
-0.0758369
0.020422056
0.05571559
0.0829497
0.17991984
0.29585412
0.373382
0.39305055
0.3853174
0.39832273
0.38698125
0.32464376
0.24139066
0.16780633
0.10411984
-0.015367079
-0.13568915
-0.1881432
-0.2279537
-0.22053102
-0.20404667
-0.23953706
-0.22517593
-0.20197804
-0.25748858
-0.33871734
-0.3928183
-0.42873502
-0.4648955
-0.3646997
-0.124362014
0.030288
0.094130866
0.10679156
0.086094484
0.15494113
0.25890908
0.32842195
0.35509607
0.29449815
0.21908832
0.16058655
0.12644325
0.14121851
0.107626185
0.029645812
-0.034774248
-0.112638146
-0.14867115
-0.0999557
-0.020898037
0.034564108
0.06480959
0.10136546
0.12915148
0.13730592
0.1313586
0.087678224
0.034175377
0.008770722
-0.008498922
-0.0478718
-0.11211232
-0.139919
-0.09654207
-0.052554138
-0.049131956
-0.056129713
-0.064379804
-0.077641726
-0.08954194
-0.11341258
-0.16773094
-0.23109673
-0.24947768
-0.19470954
-0.10086569
-0.025767284
0.020399615
0.068471834
0.11865529
0.14945468
0.16496529
0.17048386
0.1659936
0.16841932
0.17958032
0.17099606
0.14212775
0.12328663
0.101296455
0.048765276
-0.0086808475
-0.03902482
-0.047956284
-0.067602985
-0.10343465
-0.121779576
-0.12607004
-0.121898204
-0.094136536
-0.07205396
-0.055159222
-0.019891474
0.008433007
0.017997008
-0.0039241444
-0.0417558
-0.03335166
-0.0017576389
0.015028451
0.029779647
0.036528986
0.049539953
0.055302266
0.027576305
0.0108821085
0.006818154
-0.008223846
-0.008759659
0.00765228
0.028915053
0.038735628
0.027226876
0.02346937
0.034884498
0.03925808
0.026437346
-1.6011656E-5
-0.019503718
-0.016895253
-0.0014396817
0.016612735
0.036672637
0.04791444
0.044294834
0.038971923
0.025065677
-7.0327753E-4
-0.016740099
-0.02752251
-0.04358045
-0.059280176
-0.070482805
-0.06731792
-0.052066095
-0.038270134
-0.0375671
-0.058437683
-0.08102517
-0.0818894
-0.06877314
-0.057693362
-0.052106846
-0.04143552
-0.024106165
-0.014055293
-0.011581305
-0.0062280595
0.005840805
0.01593604
0.014751303
0.021716915
0.054996777
0.09342781
0.1162408
0.12420872
0.12181469
0.11558389
0.109479345
0.10922758
0.11322399
0.104533695
0.08505967
0.067175925
0.044218753
0.0039410796
-0.04883859
-0.08643332
-0.1089474
-0.13757555
-0.152648
-0.14464954
-0.1266988
-0.0959129
-0.06423835
-0.045256395
-0.050814275
-0.085837215
-0.11585791
-0.1209594
-0.10494241
-0.071526475
-0.03796977
-0.00486902
0.029669479
0.053407725
0.06650583
0.07364384
0.08454948
0.10064385
0.11571372
0.12582368
0.11129746
0.08184835
0.067831784
0.05861647
0.039836258
0.018542849
0.0060790586
0.0038299751
0.005290651
0.013411465
0.02136943
0.030914789
0.04693489
0.042716883
0.03154731
0.034956146
0.012661427
-0.03720983
-0.07636577
-0.09758707
-0.10220259
-0.09233106
-0.06593644
-0.034532916
-0.028461544
-0.039410207
-0.04392862
-0.042918313
-0.036775414
-0.026118964
-0.013876974
-0.0032129188
0.0019644755
0.005478155
0.0053535034
-0.0050646253
-0.016507959
-0.008833718
0.021446848
0.052717935
0.06926821
0.07510942
0.07747286
0.07512086
0.05984443
0.034649055
0.0132108005
0.0031938353
0.0041850223
0.00801833
0.008136562
0.006422732
0.0058046137
0.0049132654
5.692208E-4
-0.005883097
-0.013756439
-0.020965446
-0.022875054
-0.02455946
-0.025334874
-0.017765535
-0.0061575053
0.0022691248
-3.3171437E-4
-0.014001167
-0.026395464
-0.030360455
-0.025188062
-0.014784807
-0.0032534867
0.006163075
0.011928579
0.020248493
0.025429495
0.019842975
0.012299714
0.005706869
0.0012941107
0.0014554547
0.00294494
0.007976333
0.015783021
0.023401903
0.026117325
0.014624836
-0.004512096
-0.013972006
-0.0066487864
0.006838332
0.012280789
0.013713089
0.01816011
0.021177353
0.017751174
0.006973898
-0.0075259143
-0.014942386
-0.008937879
-0.0020531176
-9.359024E-4
0.0023747913
0.008667056
0.01575665
0.011723988
-0.007965424
-0.019592552
-0.013689943
-0.0039830636
-0.0011483474
-5.610372E-4
0.005496261
0.0066983365
0.0031630255
0.0015500841
-0.007393679
-0.022274826
-0.03093116
-0.021162175
-0.0012037449
0.0065135504
0.009542306
0.014190729
0.012375266
0.007439177
-0.0020893542
-0.012357841
-0.014313366
-0.009021827
-0.0010493972
0.0025337762
0.0055309944
0.011787719
0.014563165
0.013385686
0.005790134
-0.0049112565
-0.007700377
-0.0064890147
-0.0050874082
-4.7316472E-4
0.0047807996
0.010164955
0.014997198
0.012260845
-2.2877016E-4
-0.0152227245
-0.02268161
-0.020985054
-0.016568113
-0.007342033
0.0034653055
0.005484986
0.0083927205
0.012008815
0.0023300082
-0.0099545065
-0.0133764325
-0.010298746
-0.005747445
-0.0038864352
-8.200339E-4
0.003637114
0.008269736
0.008579676
-0.003324688
-0.014235389
-0.012874246
-0.005284833
0.0052059414
0.014612133
0.020226434
0.022536678
0.019650998
0.009651007
-0.003030944
-0.012123975
-0.01730122
-0.011871312
-1.5160927E-4
0.0026276314
0.004674355
0.00931466
0.009511052
0.0056833415
-0.007786469
-0.021212941
-0.020020014
-0.009624366
4.0122817E-5
2.5283016E-4
2.2591976E-5
0.008467694
0.013386563
0.012042579
0.0043976847
-0.009265651
-0.014635447
-0.0076475083
3.8025953E-4
-3.6812102E-4
-0.003569914
0.0011873373
0.008116397
0.0089437105
-0.0012570161
-0.015494809
-0.01803256
-0.01148038
-0.001043984
0.012143333
0.018020997
0.014890323
0.009791236
0.004067811
-0.0052699363
-0.01458978
-0.016379992
-0.011647951
-0.0039713397
0.0020172978
0.0061724344
0.013578618
0.018541243
0.016092515
0.0066146916
-0.0053224755
-0.010233369
-0.009601395
-0.0033665586
0.005566575
0.0075559374
0.00808028
0.009074679
0.009178034
0.0030719663
-0.012602968
-0.016421529
-0.01193667
-0.008989923
-0.0021812962
-0.009127745
-0.007894219
0.012033605
0.0064271097
-0.005660326
-0.004987126
-0.011326195
-0.010683107
-0.0060754702
-0.0032241237
0.005541066
0.008985247
0.011473484
0.012061771
0.0056642857
0.0019387965
-0.00458209
-0.009074746
-0.0034822265
0.0023394683
0.007918079
0.014044254
0.01760475
0.015005744
0.0031771967
-0.01090657
-0.01909822
-0.015339902
-0.0043614856
0.001986001
0.0053912224
0.007961044
0.009024132
0.011215557
0.009848592
-5.0952565E-4
-0.013008269
-0.015267764
-0.011252768
-0.010429077
-0.0075077172
-0.001177642
0.006094433
0.010514554
0.002060084
-0.011049305
-0.014511793
-0.0119032925
-0.00740696
9.233697E-4
0.009252782
0.010748838
0.0108750705
0.011549813
0.0031135618
-0.007830705
-0.010509195
-0.0043237405
0.0072468086
0.014863413
0.017895142
0.017129691
0.014416263
0.0141289495
2.5750112E-4
-0.023611616
-0.031308264
-0.02422837
-0.0092915185
0.004977201
0.0077809924
0.007983604
0.009603643
0.00843595
0.0036932607
-0.0029926477
-0.0053921584
-0.004117489
-0.0027566685
-7.8199524E-4
0.004424016
0.01388166
0.019983348
0.016639147
0.00478502
-0.0070937504
-0.010773585
-0.009663811
-0.0026102762
0.008034295
0.010438515
0.010083206
0.012635633
0.00831582
-0.0025766867
-0.010488037
-0.013814226
-0.01276792
-0.006149328
-0.0033278163
-0.010987568
-0.01530855
-0.0073921815
-0.0026482888
-0.012567861
-0.024802994
-0.02782885
-0.02479714
-0.018648857
-0.010325088
-0.0020204976
0.0059718755
0.013326112
0.0163981
0.012182523
0.0052786195
0.0032380673
0.008420525
0.014336097
0.01631163
0.021300847
0.027851671
0.029636003
0.029131493
0.022893582
0.013286253
0.009568654
0.008988935
0.01098021
0.022615552
0.03817265
0.03204187
0.0015323014
-0.020647421
-0.030932928
-0.045136083
-0.05415224
-0.052339777
-0.043820363
-0.03243762
-0.023342947
-0.014707954
-0.0052411235
3.6237758E-4
-0.0046008024
-0.016038038
-0.018794294
-0.012917382
-0.0063965814
0.0016688546
0.01136122
0.021423634
0.028282817
0.028819373
0.024645256
0.010849632
-0.0047028023
0.002064063
0.018739108
0.019795546
0.017080598
0.01668237
0.012538378
0.009126347
1.0761273E-4
-0.013357812
-0.019362483
-0.01812296
-0.010581417
-0.0012022076
0.005157087
0.00868611
0.0077433605
0.0063642957
0.004381413
-0.002629606
-0.008205328
-0.006720597
-0.0024569293
-2.1077484E-4
0.0034859537
0.010188493
0.013257567
0.009118159
-0.0020658018
-0.015312282
-0.023003938
-0.021939727
-0.013935066
-0.0053494354
0.0028380994
0.0100089
0.01150151
0.008723701
0.0015238619
-0.009529262
-0.016633384
-0.012617998
-0.003781347
-0.0033340813
-0.00284528
0.002716164
0.0047597275
0.010166343
0.010140462
-0.004188822
-0.011394608
-0.007888041
-0.0043450585
0.0010442043
0.008823146
0.01215973
0.009315807
0.009848095
0.009024969
-9.742152E-4
-0.008053959
-0.0070537925
-0.0012554213
0.0039576823
0.004206442
0.0060281293
0.011236073
0.015299922
0.01120106
-3.6757873E-4
-0.0068959245
-0.008792409
-0.00835459
-0.0031610623
0.004169249
0.011974595
0.013828045
0.011840882
0.007938232
-0.00566526
-0.016781406
-0.017347405
-0.015619205
-0.01151447
-0.006123113
8.30444E-4
0.0089806635
0.011189792
0.004549984
-0.009210268
-0.01793135
-0.0132009
-0.0069981883
-0.0045887716
6.633073E-4
0.0073134084
0.013986193
0.01827533
0.011124051
-0.0012285069
-0.006205001
-0.0040842276
0.0027374064
0.008213609
0.01283201
0.020675344
0.021155562
0.012675478
-9.9679E-5
-0.014538346
-0.020547323
-0.018765599
-0.011809618
-0.0029613047
-0.0012227999
-1.1359078E-4
0.004697102
0.008899673
0.00720445
-0.0059548584
-0.016007919
-0.015042846
-0.0130846035
-0.0072391382
-6.5879966E-4
0.0012435981
0.00904161
0.016715413
0.009775011
-0.0027690518
-0.009852244
-0.010744799
-0.0055229366
0.0022230975
0.010456785
0.014788932
0.0145530095
0.020360755
0.022316545
0.007407261
-0.01055062
-0.01952966
-0.01654193
-0.01103549
-0.009816504
-7.7853666E-4
0.008215682
0.008920953
0.008200724
-0.0035163818
-0.018476767
-0.018080726
-0.010305165
-0.0023521576
0.0060033863
0.011059512
0.011899621
0.011503081
0.007964058
-0.0037080122
-0.013772625
-0.011749937
-0.003706791
0.0016747467
0.0016988195
0.0029319194
0.008421051
0.010471119
0.0072334646
1.1635549E-4
-0.00842821
-0.011812148
-0.009044853
-0.0026160781
0.0045199823
0.0083341375
0.008726566
0.0074481224
0.0050165476
-2.0937859E-4
-0.009174701
-0.014839947
-0.010463086
-0.0028388242
5.520858E-4
0.0041422495
0.012279855
0.01997924
0.015808439
-0.0018074926
-0.015312168
-0.015142889
-0.010967857
-0.008400503
-0.0033576337
0.0049751666
0.0104691675
0.011620698
0.010657372
0.0030863916
-0.008701708
-0.013654941
-0.010705495
-0.006284169
-0.0034568503
9.147122E-4
0.009570591
0.017537886
0.015176376
-0.001185319
-0.015527761
-0.012298336
-0.00600382
-0.008923033
-0.0061293924
0.007051969
0.015706874
0.017420527
0.016144251
0.0056153256
-0.009772542
-0.016724208
-0.015876366
-0.012384133
-0.007876384
-0.002878385
0.0051852297
0.013099174
0.012256454
0.00235145
-0.008699057
-0.0125538455
-0.0073594577
-0.0012485986
0.0011090067
0.004543244
0.00915252
0.01279289
0.013691326
0.006424931
-0.0034175483
-0.0059867944
-0.0032686153
0.0010103901
0.003850859
0.0021876807
0.0020555756
0.009435624
0.011332975
-0.0029201624
-0.017123338
-0.018880421
-0.013841541
-0.0074129784
-7.797606E-4
0.0070397384
0.01040905
0.008989079
0.008309557
9.694439E-4
-0.009584564
-0.013158297
-0.01113961
-0.0045296038
1.5213345E-4
0.0045205387
0.012380419
0.015978593
0.01602011
0.0021508047
-0.022095231
-0.02271117
-0.007747444
-0.0016517402
0.0026615418
0.0070536104
0.01035026
0.013825288
0.010158317
1.5521505E-4
-0.00863784
-0.012206318
-0.008748266
-0.0035398272
-9.070697E-4
0.004550433
0.010626812
0.011116337
0.008853691
0.0024928364
-0.0076681483
-0.013139541
-0.010192723
-0.0038667994
0.0010478189
0.009287096
0.017228711
0.017102491
0.013226607
0.0015011772
-0.013535153
-0.016964033
-0.01421502
-0.010021928
-0.006448272
-0.005848477
4.0359044E-4
0.00904976
0.010251388
0.0042460314
-0.0036316544
-0.007914803
-0.009842675
-0.009294919
-0.003097689
0.0061369487
0.012142237
0.013234233
0.012291722
0.005870918
-0.0027969158
-0.005759375
-0.008028371
-0.008123138
-0.0041497243
-8.0152927E-4
0.0063484358
0.013905935
0.01270221
0.0022966012
-0.010552209
-0.01637585
-0.016015831
-0.009506645
0.0011725066
0.0050963624
0.008267322
0.014485208
0.0119144535
0.002120725
-0.007145443
-0.011831382
-0.008693604
-0.0025161405
8.2662713E-4
0.002837663
0.0057505956
0.008605712
0.01058348
0.0061160596
-0.0069629173
-0.016087959
-0.016121872
-0.010087677
0.0012926024
0.007901572
0.010099942
0.015810354
0.015295736
0.0042856988
-0.009869694
-0.017919034
-0.011932009
-0.001604945
0.0024883484
0.0047940314
0.009267489
0.014126679
0.015186217
0.009452255
-0.005736988
-0.023101276
-0.025015745
-0.012605119
-2.575596E-4
0.0069085546
0.011767807
0.016203236
0.014289449
0.0064899176
-0.0052566505
-0.016687939
-0.012147084
-0.007311622
-0.016365364
-0.01083894
0.006157189
0.013324767
0.015306411
0.0070689623
-0.0070153233
-0.012369546
-0.012623994
-0.008483679
4.3862816E-5
0.007949216
0.012650934
0.0133035965
0.013987878
0.009757807
-0.004103471
-0.0138154905
-0.010845277
-0.0019168847
0.0035548487
0.0026222435
0.0029964312
0.009693994
0.0125143975
0.0026480232