-0.0038843409
-0.0029472641
-0.0024733196
-0.0024928593
-0.0039886422
-0.0044383914
-0.0028454005
-0.005031866
-0.00808975
-0.0074442457
-0.005498555
-0.0030948855
-8.1750663E-4
0.0019807727
0.005286377
0.007927974
0.009209465
0.006346353
0.003972006
0.0067010806
0.008623062
0.007791473
0.007121118
0.008736051
0.010899535
0.0069117816
-0.0015298828
-0.007322338
-0.008734806
-0.0077434164
-0.00924346
-0.012244107
-0.010557334
-0.0055768513
-0.0015729136
4.4958064E-4
2.369426E-4
-0.0017272893
-0.0033517808
-0.0020261775
7.671918E-4
0.0020520152
0.003178745
0.0064789946
0.012540512
0.017494103
0.016733982
0.012557452
0.0063725775
-9.5733575E-4
-0.004671807
-0.005260601
-0.0044684014
-0.0036736196
-0.006150544
-0.008403752
-0.01011428
-0.014267543
-0.013901707
-0.009850119
-0.011025412
-0.012245177
-0.007454385
-0.0019667912
0.0012536338
0.003654092
0.0051183295
0.004426525
0.0018418786
0.001384187
0.003865919
0.006030983
0.009547587
0.014045787
0.016192112
0.01803573
0.019088985
0.015530611
0.008268738
0.002275876
-3.085507E-4
-0.0034324068
-0.0075828144
-0.010622705
-0.012018003
-0.009165585
-0.006250258
-0.007461186
-0.0085463235
-0.008997762
-0.008399961
-0.006150718
-0.0042295065
-0.001408115
4.798384E-4
7.140831E-4
7.310393E-4
-0.0011777327
-0.0016747803
-3.6328885E-4
-6.184554E-4
5.564006E-4
0.0028302283
0.0044277264
0.006235057
0.005829274
0.00383012
0.0030367249
0.001684449
-8.565932E-4
-0.0020897714
-0.0017308495
-6.900534E-4
5.922665E-4
1.6867674E-4
-0.0016345236
-0.0026168178
-0.0020990085
-4.6332727E-5
1.6697205E-4
-0.0017485915
-8.830508E-4
0.0017746935
0.0034483278
0.0036445733
0.002797045
0.0029745388
0.0025751418
0.0011740664
-4.6676633E-4
-0.0039346153
-0.0049797944
-0.0015903525
0.0016683858
0.0026810996
0.0013950987
7.612674E-4
0.0010267214
-7.1570533E-4
-0.002212029
-0.0024405415
-0.0014143485
1.1224348E-4
-0.0011172262
-0.0019453175
-4.7088653E-4
1.2664034E-4
-6.8219716E-4
-0.003464874
-0.0054789367
-0.0039430293
-0.002097578
-2.7613915E-4
0.0022177089
0.0026144702
0.002132856
0.003115696
0.0026597753
2.6757474E-4
-5.2048126E-4
2.0723643E-4
6.866356E-4
-1.7849372E-4
-3.694965E-4
0.0024636637
0.0026952557
9.897127E-4
0.0027987568
0.0012206634
-0.0030456847
-0.0020159415
-2.786107E-4
3.6803435E-4
0.002320785
0.0032428752
0.0035993678
0.0031336623
0.0010843322
-2.2700375E-5
-7.1192667E-4
-0.0023808882
-0.0030180118
-0.0014591201
8.3575863E-4
0.0024924937
0.0018796729
-8.3141786E-4
-0.0013341821
-3.8114956E-4
-0.002239635
-0.0039411373
-0.002899682
-0.0010702717
-3.0170326E-4
-9.610253E-4
-6.3657877E-4
-4.354223E-4
-0.0015178018
-6.7916175E-4
-9.390027E-4
-0.0031411021
-0.002364687
-0.0010967712
-0.0010811978
-7.060747E-4
-8.5566536E-4
6.8089087E-4
0.004509319
0.005222722
0.0015738093
-6.956329E-4
-4.886544E-4
-3.485644E-4
0.0017628074
0.0038707338
0.0041889967
0.005506626
0.0045000445
0.0015644762
-9.570496E-4
-0.0058375634
-0.007955494
-0.004383634
2.2650228E-4
0.0038319274
0.0052092196
0.005573045
0.0038148377
-6.974579E-4
-0.0028090023
-0.0023695608
-4.6118145E-4
9.0108614E-4
-3.7932117E-4
-2.3190139E-4
-3.2384763E-4
-6.6948537E-4
0.0011671475
-7.8332773E-4
-0.0033532917
-0.0024863824
-0.0040353662
-0.0046911454
-0.0011475253
0.0012068561
6.32397E-4
-7.5594685E-4
-0.0012124203
-0.0010925438
-0.001613448
-0.0033658624
-0.0043319617
-0.001693159
0.0010134125
0.0022035998
0.0043862583
0.0055735335
0.0055890027
0.00458064
0.0017222104
-5.347898E-5
-5.321445E-4
-9.3061075E-4
-0.0013454201
-0.0011116553
1.0320803E-4
-3.1128214E-4
1.664534E-4
0.0017576924
-2.126833E-4
-0.0018149136
-0.00172434
-0.0012681421
0.0012279901
0.0023167448
0.0018808871
0.0015873685
0.0012226321
8.477253E-4
-0.0010149858
-0.0014287867
-0.0014676544
-0.0024622278
-5.6760525E-4
5.456247E-4
6.6721614E-4
0.0014388369
0.0019818645
0.0030028548
8.3409704E-4
-4.5395116E-4
-0.0017103335
-0.0038745846
-1.0149604E-4
-0.0075393706
-0.0173279
-0.0035225877
0.0065337825
0.004046507
0.006193029
0.004018345
3.442742E-4
-0.0013261113
-0.003475873
-2.3902048E-5
0.001967112
8.6020376E-4
0.0019669642
0.0015399879
-1.1783002E-4
-0.0012989764
-7.8940275E-4
0.0010819673
0.002026379
0.0026094974
0.001920372
0.0016476993
0.0024212373
0.0011852046
-9.36675E-4
-0.0030633411
-0.0035568306
-0.001834588
-6.187021E-4
7.377531E-4
9.181437E-4
-9.034478E-5
0.0010971058
0.0026673677
0.0029242465
8.966581E-4
-0.0028669767
-0.0039898655
-0.002161143
0.0011024466
0.0030854882
0.0023093023
0.0025516748
0.0019228519
-0.0010636009
-0.0030245578
-0.004736571
-0.005221896
-0.0046357443
-0.0023735608
0.0014064155
-0.0021788734
-0.0045924466
0.0026960531
0.0043330225
0.0025986314
0.002875643
-0.0015555482
-0.0012328506
0.0018396172
-8.570545E-5
0.001681973
0.004914701
0.005653867
0.0050640632
0.0024007284
0.001403025
0.0011629106
0.001376707
0.001472569
-7.304258E-4
4.1655335E-4
7.9261826E-4
-0.003182785
-0.004037879
-0.0042312173
-0.0042423983
-0.0021862572
-0.0017592527
5.8154063E-4
0.0031643736
0.0014041304
6.634574E-4
5.429278E-4
-0.0031744908
-0.0075978762
-0.008293569
-0.0035490475
0.0033203643
0.0061390903
0.004014076
0.0022896822
0.003178766
0.0037630852
0.0027357137
5.997845E-4
-0.0011337941
-0.0014412375
-0.0010796718
5.938348E-4
0.0019715072
-2.782376E-4
-0.0029162692
-0.002701041
-0.0028926798
-0.003188925
-0.0017860313
-0.0020739462
-0.0022875797
-0.001534321
-0.003331334
-0.0016463407
0.003283329
0.0040733297
0.0038095326
0.0023595535
3.354015E-4
0.0024724721
0.0055917515
0.008013152
0.006932944
0.0024502175
0.0017820355
0.002386161
0.0014415175
1.2732384E-4
-0.0028370402
-0.0056584687
-0.006668158
-0.0038384502
-4.3231575E-4
-8.540968E-4
-5.892605E-4
-7.091197E-4
-0.0031344218
-0.0052652163
-0.0064441175
-0.005245613
-0.005483936
-0.006309406
-0.003839144
-0.0023075712
8.38308E-4
0.004919233
0.0046875337
0.0044092177
0.004739428
0.0055224346
0.007149978
0.0072272765
0.0074000033
0.0062902556
0.0043372144
0.0035061024
8.439667E-4
-0.0013801542
-0.0030062168
-0.006060101
-0.0056902464
-0.0025498918
-0.002380617
-0.004607795
-0.004886049
-0.0037432965
-0.0040804464
-0.0042462074
-0.0036144333
-0.0019671049
5.7455216E-4
0.0012947837
0.0034758954
0.0076626516
0.008214766
0.005693906
0.0016569227
-0.001834337
-0.0032834518
-0.005312253
-0.0052255737
-0.0018182229
0.0015122403
0.003700982
0.0034463292
0.003720253
0.005184153
0.0035066393
0.0012381742
-0.001043814
-0.0046240296
-0.00670276
-0.008944851
-0.009382488
-0.004808198
-0.0023398253
-0.0035468366
-0.0036290782
-0.0033336869
0.0014100282
0.011660342
0.01592846
0.01499014
0.017612815
0.019284705
0.015901992
0.00880685
0.0016880764
-0.0016105701
-0.005749984
-0.011219779
-0.014506524
-0.016011894
-0.01261475
-0.009558737
-0.010549213
-0.00855287
-0.007930395
-0.008108896
-0.004345102
-0.0051268735
-0.004496855
0.0015154331
-9.640463E-4
-0.0053113583
-0.0011506686
0.0034397272
0.004446118
0.001744688
-6.125939E-4
0.0021870714
0.0050522387
0.009308943
0.016635489
0.01897431
0.015932372
0.010871814
0.007160458
0.007865148
0.009114114
0.011529008
0.011833831
4.3088497E-4
-0.013208707
-0.016203284
-0.014150285
-0.015312096
-0.018927265
-0.019776942
-0.017142508
-0.013592933
-0.008488634
-0.0019669833
0.0039428906
0.0098227095
0.014901111
0.013616241
0.006184048
0.0012781137
0.0010669021
8.0625864E-4
6.169056E-4
0.0028033133
0.0070537506
0.011757111
0.010488319
0.001828432
-0.002981181
-0.002571539
-0.005201364
-0.0076437183
-0.0066709984
-0.004936713
-0.0018651099
9.446805E-4
0.0021131777
0.0032130177
0.0015416743
-0.0032873454
-0.0041466197
2.8222043E-4
0.0035009535
0.004316652
0.0041258507
0.0023024075
8.7585556E-4
4.4932723E-4
4.943318E-4
0.0012637686
7.246758E-4
8.401769E-4
0.003620373
0.0050124917
0.0029960417
-0.0047594295
-0.017019948
-0.0239372
-0.02416998
-0.022793442
-0.019200984
-0.014166671
-0.009974879
-0.005736743
8.6047704E-4
0.0072786217
0.010877881
0.018213497
0.029444532
0.040428884
0.049141385
0.045144685
0.03161907
0.016918031
9.539378E-4
-0.006191395
-0.010801838
-0.018784847
-0.019837791
-0.022790475
-0.02039948
-0.007284914
-0.005004927
-0.0057804817
-0.0071483497
-0.01651131
-0.016435737
-0.011227607
-0.008757782
-0.0036129323
-0.0045610424
-0.010283364
-0.011502019
-0.009865439
-0.010842301
-0.012172321
-0.0033448923
0.013122887
0.027452074
0.035840217
0.034867454
0.026891978
0.019367041
0.014720456
0.005726791
-0.007990986
-0.013718879
-0.010442791
-0.006506681
-0.0065105488
-0.009185255
-0.009894423
-0.013201126
-0.018429669
-0.017562952
-0.0136616025
-0.008438946
-0.0016948273
0.0011502955
-9.0975035E-4
-0.002348174
9.840399E-4
0.0051506376
0.008448915
0.013140721
0.016665714
0.019482927
0.021464964
0.018944418
0.014325747
0.013594597
0.016744293
0.014685526
0.008221921
0.008362392
0.010344323
0.005756991
-0.0030563395
-0.011688464
-0.015847264
-0.017178774
-0.01662964
-0.013855704
-0.017607316
-0.024968235
-0.023290766
-0.017320683
-0.014959928
-0.015233642
-0.01690492
-0.017977258
-0.0178787
-0.01653519
-0.014154769
-0.011045041
-0.002999371
0.009777707
0.023864537
0.036518786
0.041905425
0.046268944
0.05003886
0.033871178
0.0054965224
-0.012662866
-0.024876995
-0.032501765
-0.028025689
-0.019829195
-0.016083408
-0.008735013
0.004107736
0.009011528
0.009361672
0.018778218
0.030886969
0.03830189
0.036017988
0.014867176
-0.009785933
-0.017546512
-0.02742317
-0.046668913
-0.033325613
0.011564949
0.036089633
0.03736112
0.03570174
0.027714035
0.009314195
-0.01774433
-0.03043223
-0.018983884
-0.012827557
-0.013765887
-0.009069725
-0.010444365
-0.015800958
-0.01957102
-0.02846669
-0.03341726
-0.021956265
-0.002425964
0.010775522
0.014470987
0.014320191
0.017060583
0.019961178
0.018251762
0.015603738
0.010533247
0.0041898177
-2.844048E-4
-0.009757105
-0.015879637
-0.010299442
-0.0044004396
-0.0019965328
-0.0031586532
-0.0036011576
0.0025167137
0.004671556
0.0025222944
8.483586E-4
-0.00645029
-0.012844491
-0.013410291
-0.010942665
-0.0017377408
0.008495142
0.011352922
0.012183619
0.018099084
0.028200207
0.041186597
0.05425794
0.04820314
0.018497081
-0.0022273764
-0.0043760897
-0.01255849
-0.031106718
-0.043389015
-0.032954294
-0.0010256832
0.025401749
0.027077824
0.009663997
-0.008965706
-0.018418495
-0.033667877
-0.056383815
-0.058883734
-0.043474454
-0.032575887
-0.021933474
-0.0075677205
7.9131854E-4
0.0028144978
0.005763052
0.012964376
0.021209044
0.02590393
0.027098415
0.025673095
0.020544728
0.016067768
0.016544482
0.015432789
0.012124661
0.0134062255
0.014636122
0.013874136
0.014118888
0.009531892
9.0495823E-4
-0.005952415
-0.0125814965
-0.017239073
-0.017316623
-0.016630433
-0.016756373
-0.015282107
-0.013373909
-0.010380935
-0.001040865
0.010817861
0.018807555
0.022895273
0.020507291
0.01570166
0.014790399
0.009668352
-0.0044540367
-0.01956468
-0.028015804
-0.029918704
-0.026015833
-0.011082119
0.007910021
0.01812793
0.02102267
0.0140488185
-8.074487E-4
-0.009692878
-0.016672632
-0.027414333
-0.033738796
-0.029534854
-0.01540267
-0.0027462745
0.007842502
0.021573532
0.026051715
0.02676265
0.031613845
0.02756722
0.021774968
0.023069054
0.023841739
0.0143704
-0.013128207
-0.03495349
-0.024435487
0.0012538389
0.010153076
-0.004028179
-0.017565755
-0.021589924
-0.027897174
-0.036972456
-0.04647996
-0.042578146
-0.023386082
-0.012185056
-0.007042934
0.0033575397
0.022970371
0.040155336
0.037628647
0.04521093
0.063358456
0.05937254
0.056977507
0.051545184
0.014060145
-0.02963387
-0.054251708
-0.052431982
-0.03335118
-0.012928076
0.011637343
0.026483575
0.022089433
0.015660286
0.008609332
-0.01017285
-0.037471686
-0.051563036
-0.045564946
-0.037418168
-0.027970403
-0.0118481675
0.0031132572
0.013675462
0.018026842
0.016547062
0.015185416
0.014628864
0.011160479
0.0062000225
0.007700337
0.014871999
0.016633503
0.012919272
0.008031433
-0.0014928137
-0.012628775
-0.02460536
-0.0369377
-0.035287697
-0.026400171
-0.023547774
-0.014035406
0.0032469486
0.024145994
0.043822054
0.047232654
0.04972514
0.059300926
0.05575195
0.049567707
0.034665525
-0.018123468
-0.06870354
-0.08152709
-0.094993494
-0.10499872
-0.07775448
-0.03634771
0.0036192718
0.03695714
0.047988087
0.048824716
0.041178867
0.01765941
-0.01719082
-0.055495717
-0.07404855
-0.081194244
-0.084104635
-0.047416206
0.024924899
0.11004341
0.18663892
0.22026806
0.21898429
0.19177337
0.124659695
0.03827041
-0.030777236
-0.06416685
-0.06516202
-0.056812514
-0.07067579
-0.10359098
-0.11637134
-0.108142674
-0.10128798
-0.094438165
-0.086417235
-0.07445657
-0.054576535
-0.040364046
-0.04160062
-0.04115942
-0.026786806
-0.009952407
0.012849483
0.043640483
0.06140895
0.06882535
0.082128555
0.088083215
0.06668837
0.032949157
0.023113836
0.050654594
0.093433246
0.1188037
0.10704839
0.046866104
-0.02077476
-0.035734035
-0.04471491
-0.09039869
-0.124686606
-0.13548413
-0.1377577
-0.141594
-0.15570404
-0.1580629
-0.111980624
0.012233506
0.14645351
0.19991611
0.2248318
0.24320564
0.17715722
0.05366949
-0.0012952012
0.014779802
-0.028582087
-0.11534371
-0.14935654
-0.16248061
-0.13658614
-0.038476273
0.05668393
0.10368848
0.103388965
0.085533895
0.049425293
-0.025637643
-0.07815495
-0.116349205
-0.15242936
-0.12151077
-0.101732574
-0.12478024
-0.08205656
0.024234839
0.12952524
0.15379085
0.089832075
0.050564427
0.035090107
0.009391868
0.012243902
0.017770339
-8.9617993E-4
-0.027762782
-0.052021187
-0.07505683
-0.08775121
-0.06128833
-0.029228164
-0.0142182335
0.013174548
0.045371708
0.08925797
0.12136041
0.11061922
0.08623739
0.040280595
0.015479634
0.04483183
0.056987308
0.07341124
0.10369004
0.08828452
0.051299773
-0.009830665
-0.09274373
-0.12874305
-0.11609821
-0.085684195
-0.052125923
-0.028208751
-0.016502462
-0.033579066
-0.07031113
-0.08411619
-0.07452055
-0.067043275
-0.05426599
-0.022946863
0.013018444
0.037649058
0.036298327
-0.0028337087
-0.05516842
-0.07658191
-0.0662208
-0.05878125
-0.049617182
-0.021975012
-0.0026519545
0.0053615225
0.019901317
0.028656635
0.03502685
0.045798965
0.055048775
0.070950806
0.085833676
0.09413923
0.100687414
0.09914805
0.10066998
0.10340906
0.097060904
0.09103169
0.085380726
0.090220325
0.094033465
0.08246036
0.07963238
0.07439752
0.08129181
0.07464583
-0.06678364
-0.25899872
-0.32391536
-0.29501417
-0.24494691
-0.17972843
-0.11928375
-0.09984609
-0.103925735
-0.06346854
-0.0103695085
-0.007988278
-0.021273779
-0.0160264
7.133969E-4
0.012318781
0.023972647
0.04883922
0.06595395
0.07533416
0.085152104
0.0863633
0.08806756
0.08894902
0.085599035
0.08110309
0.07250038
0.064857475
0.05296788
0.035642806
0.021500358
0.009130031
8.8301196E-4
-0.004336366
-0.008519139
-0.011071566
-0.015033052
-0.015259037
-0.011278043
-0.0077335113
-0.0053465497
-0.0055796886
-0.0063603665
-0.008504975
-0.012219294
-0.015286261
-0.019833768
-0.023664681
-0.025655843
-0.027774818
-0.029835002
-0.03272026
-0.032401033
-0.025972323
-0.020167377
-0.018127989
-0.013479026
-0.0044239657
0.0035433187
0.009958514
0.014706087
0.017088734
0.020408206
0.02266298
0.022388384
0.022660822
0.023214655
0.022987718
0.021241207
0.019695755
0.018068856
0.012158561
0.0075901467
0.010300388
0.013044664
0.011369627
0.008282099
0.004065502
-0.0016679884
-0.0086942045
-0.017401895
-0.025294961
-0.031146638
-0.03788396
-0.04415408
-0.04648099
-0.046854947
-0.04672612
-0.04596598
-0.04561543
-0.042728078
-0.035669707
-0.028089022
-0.02024526
-0.011442366
-0.0024631922
0.0069386344
0.014498529
0.020856347
0.028336937
0.03486642
0.042784814
0.05553641
0.06981238
0.08322374
0.096046284
0.101579875
0.09490161
0.08831754
0.0893832
0.09074732
0.07852261
0.036948442
-0.013026615
-0.03975118
-0.050674476
-0.054342926
-0.055720776
-0.057981588
-0.059691366
-0.07082905
-0.077881254
-0.07569679
-0.074179724
-0.06193025
-0.058426008
-0.06052663
-0.04383985
-0.041242324
-0.045770694
-0.033816587
-0.02390165
-0.008144208
0.0069007385
0.01057807
0.01816098
0.023792129
0.028092135
0.033149607
0.034546968
0.037796054
0.037771974
0.03605757
0.03397983
0.02715076
0.022185165
0.01898597
0.016936693
0.013164811
0.0067243623
0.0060256864
0.007009564
0.009146301
0.012403881
0.011300315
0.0120512955
0.012642638
0.011557248
0.011226237
0.006607827
0.003918216
0.004058996
0.0011434891
-2.1823013E-4
-7.1045675E-4
-0.0035161856
-0.006296225
-0.007202373
-0.008425549
-0.011997733
-0.014026318
-0.012974518
-0.01187219
-0.013118026
-0.013825596
-0.010157771
-0.0070189894
-0.006072044
-0.0056850896
-0.007458991
-0.00820178
-0.008093741
-0.0093186395
-0.008911486
-0.0073934174
-0.006763548
-0.005866488
-0.0041303467
-0.0028025168
-0.0013469919
5.249997E-4
0.0025605462
0.005907739
0.007836626
0.009725791
0.013383988
0.012409759
0.0100071365
0.009781834
0.007577083
0.0073631527
0.008865479
0.00837057
0.008772769
0.00917551
0.008906737
0.009423701
0.009220695
0.0070970934
0.0052930554
0.0059668752
0.0058329306
0.004848676
0.006627895
0.009245051
0.009822867
0.009591907
0.010627163
0.0080181835
0.0019117063
0.0025221738
0.006644732
0.0074583665
0.006806388
0.005036587
0.0030107624
-6.5471383E-4
-0.0025846122
2.2826398E-4
-3.1364243E-4
-0.0014103245
0.0013079754
0.0018468739
0.0010869445
6.2047265E-4
1.5109705E-4
7.7546306E-4
0.0021937878
0.0027044667
-1.4049196E-4
-0.0014725045
0.0010122716
0.0028571738
0.0046078325
0.0044276733
0.0025546176
0.002703786
0.0018860421
-7.2318515E-5
-9.1191963E-4
-2.706436E-4
0.001828722
0.0030360396
0.003467034
0.0031974723
0.0020593507
0.0018849766
7.6164404E-4
-0.0012401572
-0.0015961231
-0.0015664266
-0.001248151
-5.42844E-4
-2.7949846E-4
4.3148387E-4
0.001140805
0.0017559639
0.0022659064
8.6604594E-4
8.426929E-6
0.0011076457
5.545678E-4
6.4760423E-4
0.0028404547
0.0030754677
0.0030694415
0.0024112512
-8.9020096E-4
-9.433731E-4
6.440739E-4
-0.0010619418
-9.2988525E-4
0.0012599708
0.0021998638
0.0030314564
0.0024256648
0.0018082113
0.0021009813
5.0959364E-4
-2.4290128E-4
-5.591572E-4
-0.0024176745
-0.0017146355
3.6619985E-4
7.126532E-4
-2.0210398E-4
-0.0016211779
-0.0012217513
-9.6252427E-4
-0.0025345862
-0.0014680225
0.0011277379
4.937778E-4
-0.0021200818
-0.0028863174
-4.4101273E-4
0.0015378329
-1.6947047E-4
-0.0019604424
-0.0021124708
-0.0025292847
-0.0012434382
7.4271846E-4
8.362661E-4
0.0013293013
0.0015176982
8.182767E-4
1.7881686E-4
-0.0017786629
-0.0029419332
-0.003255475
-0.0040684883
-0.0033728878
-0.0017479159
3.8126123E-4
0.0011214284
2.2321168E-4
3.3497222E-4
-0.0032026095
-0.0074196253
-0.004626574
-0.0011055525
4.5779935E-4
0.0027418663
0.0039928635
0.004627198
0.0030127428
-4.4288478E-4
-0.0012653631
-0.0018213645
-0.0026745817
-9.055709E-4
-1.9969787E-4
-5.9726293E-4
7.639946E-4
3.7901013E-4
-1.999451E-4
9.3899487E-4
-0.0010389519
-0.003967526
-0.004874274
-0.0043890383
-9.3271304E-4
0.0013700405
1.4581448E-4
-5.038483E-4
4.5231488E-4
0.0016025947
2.668949E-4
-0.0019746553
-0.0021923273
-0.002917781
-0.0032568243
-0.0020621177
-4.8509918E-4
0.0017334553
0.0020168293
7.914776E-4
-7.0493156E-4
-0.0033813668
-0.004303717
-0.003941884
-0.002836507
7.021583E-4
0.002889768
0.0028754373
0.002178928
7.88348E-4
-4.6934478E-4
-0.004120035
-0.0072924616
-0.004096842
6.408087E-4
0.0033043248
0.0039492436
0.0013414953
-9.376697E-4
-7.8684284E-4
6.709439E-5
-2.8154763E-4
-0.0025082123
-0.0029041513
-7.067067E-4
0.0016903814
0.0042639705
0.0045669223
0.0013649225
-0.0021728876
-0.0042775376
-0.005124546
-0.0043037045
-0.0019356221
-7.4485404E-4
-0.0016170696
-0.0015660202
2.8915025E-4
6.419396E-4
-0.0013263279
-0.0019607318
-0.0026482872
-0.004016175
-0.001827146
4.890457E-4
0.0014596569
0.0030485957
0.0028499588
0.0037524123
0.004500403
5.647092E-4
-0.002895138
-0.002796873
-0.0016204558
-7.277894E-4
7.2263344E-4
0.0010484263
-2.3040787E-4
0.0014145558
0.0013927545
-0.00158712
-0.0018941952
-0.003968248
-0.0048768898
-0.0010633472
0.0013170015
0.0010961514
-0.004211309
-0.010991625
-0.012470863
-0.009117888
-0.0012539389
0.002904356
0.002400157
0.004089089
0.0038773152
0.0037842917
0.0046767076
0.0031453052
0.0028492175
0.0013082742
-9.806078E-4
-2.3411946E-4
4.7931008E-4
8.220697E-4
0.001873091
0.0042357044
0.005893723
0.0055669546
0.0051254546
0.0020336395
-0.0013606224
-0.002592025
-0.0040312936
-0.0035230676
-0.003578412
-0.0045496156
-0.002630872
-0.0017421693
-0.0029089656
-0.0049142824
-0.006468249
-0.005431804
-0.004446238
-0.0026498793
-4.1946836E-4
-4.6768025E-4
8.55927E-4
0.0026968264
0.0018913108
-3.0130593E-4
-0.002531039
-0.0023567318
-7.08928E-5
0.0020346558
0.0033835825
0.0028256192
0.0019278106
0.0032845538
0.004365075
0.0021923247
-0.001120075
-0.0034970273
-0.004289317
-0.0018008578
0.0015824275
0.0037209757
0.0045562405
0.002068987
7.8594434E-4
0.001356904
-0.002417146
-0.004888888
-0.0033121917
-0.0028398542
-0.0010333408
0.0011201059
7.2849175E-4
2.441902E-4
1.0946689E-4
-4.8436882E-4
-0.0025043306
-0.0033097137
-9.529859E-4
-9.1358386E-5
2.2541241E-4
0.0021954793
0.0021754073
0.0011753447
0.0015521545
0.0012064129
-8.977783E-4
-0.0028205246
-0.0028811912
-0.0011153169
-1.3901739E-4
-0.0015719256
-4.969013E-4
0.0016053538
-0.0014977165
-0.0028812184
-0.0011536545
-0.0022127954
-0.0012135814
2.0497422E-4
-0.0016385176
-8.38764E-4
0.0013690421
0.0013909658
7.0164376E-4
-4.047723E-4
-0.0014387611
-0.0018498246
-0.0020335908
-0.0015425518
3.7053582E-4
0.0014245377
0.0011810857
0.0025463675
0.0027753809
0.001883589
0.0026807617
0.0011432121
-9.2216034E-4
2.0846164E-5
6.7870674E-4
0.0012001719
0.0016821931
6.10004E-4
-5.778787E-4
-8.0966746E-4
-0.0014635323
-0.003530445
-0.0034723463
-0.0018610127
-0.0020302082
-5.4932444E-4
0.001007383
3.6516263E-5
5.5644935E-4
3.5380252E-4
-0.0020376018
-0.001984205
-0.0011659701
-0.0019169813
1.4372119E-4
0.004015169
0.00359128
0.0014073009
6.432253E-4
-9.910599E-4
-0.0022337483
-0.0020984241
-0.0017098974
-7.7144994E-4
8.7811466E-4
0.0023161848
0.0014199701
-5.9783214E-4
-0.0017614082
-0.002237795
-0.0012147597
-0.0013444114
-0.0032287855
-0.0027210412
1.2345298E-4
0.0028106302
0.0025200085
7.0412864E-4
9.908368E-4
7.809633E-4
-5.3079025E-4
-0.0016030208
-0.001695361
9.183395E-4
0.0019910177
9.773797E-4
0.0023249001
0.0030712835
0.0022543867
8.1055495E-4
-0.0032602882
-0.0053992984
-0.0031061387
-0.0012277233
-1.3846876E-4
0.0014822518
0.0024130172
0.0019005239
5.4655997E-5
-7.246209E-4
-7.6337246E-4
-0.0025445318
-0.0034925214
-0.0022751756
-6.14144E-4
6.579712E-4
9.1089244E-4
0.0014271997
0.0021414745
0.0013005827
-0.0014732198
-0.0043578576
-0.0032215358
-2.7397618E-4
7.2281586E-4
0.001937818
0.0016682608
-2.0073658E-4
4.4878825E-4
0.0016893806
4.295676E-4
-0.0021181628
-0.0021653457
-1.6271685E-4
4.029751E-5
1.6292177E-5
6.7836914E-4
0.0015408389
0.0023494472
6.6648796E-4
-9.7465114E-4
-0.0015093653
-0.0014407637
0.0013976756
0.0018771214
6.003507E-4
0.0019146726
7.008132E-4
2.1443406E-5
0.0013302242
-0.0014111544
-0.003040999
-0.0023462768
-0.0021676293
-9.578737E-5
3.0973554E-4
-4.74891E-7
0.0013280079
2.7374952E-4
-2.3402309E-4
-2.0350194E-4
-0.00218677
-0.0019733994
-0.0010556472
-0.0012265284
4.9763123E-5
0.002179603
0.0031491134
0.0011810226
-0.0010453167
-0.0011073668
-0.0016134749
-0.0016105147
9.843567E-5
9.697502E-4
4.7419601E-4
2.2235065E-4
6.916741E-4
8.559012E-4
4.5824423E-4
-7.318395E-4
-0.0014969973
-4.7783685E-4
-4.5665758E-4
-0.0010818364
-1.4083569E-4
6.026985E-4
9.443143E-4
7.272303E-4
-7.3752756E-4
-0.0021680922
-0.0026161363
-0.0012096551
8.1503653E-4
0.0015012394
0.0027683098
0.004809297
0.0039918823
0.0013822148
-5.2276475E-4
-0.0025900446
-0.0027828321
-0.0016185362
-7.348027E-4
0.0020073978
0.003224842
0.0027005896
0.0025303494
8.407805E-5
-0.0011427982
-0.0016190762
-0.0032078577
-0.0021687371
-9.4589294E-4
-3.184987E-4
-7.531767E-4
-4.87176E-4
-0.0010225641
-0.011957998
-0.014837415
-4.9805176E-4
0.0049375007
0.003202719
0.0027371715
5.451098E-5
0.0034356567
0.0062782993
0.0041984404
0.003715931
7.7578076E-4
-8.904128E-4
2.046963E-4
-6.328689E-4
-4.057148E-4
-1.6250351E-4
5.478587E-4
0.0025660994
0.0019667
9.868005E-4
0.0013591703
0.0012307514
-1.6228735E-4
-0.0028096817
-0.0038770835
-0.0020002825
-8.594277E-5
-0.0010732966
-0.0020004653
6.4368924E-4
0.0013541627
-0.0014045289
-0.0026134006
-0.0031471183
-0.0027167655
-4.8570518E-4
3.1771272E-4
2.9765372E-4
0.0011321332
0.0026752988
0.0032580446
5.569013E-4
-0.0015871095
-4.2390198E-4
9.16533E-5
-4.0504604E-4
6.299704E-4
0.0015475501
7.460132E-4
8.8847446E-4
6.09029E-4
-0.0028630067
-0.0034840782
-7.746598E-4
-3.6603236E-4
-1.2532687E-4
2.7870986E-4
4.576977E-4
0.0019345318
0.0020764424
0.0012259041
-4.0184258E-4
-0.0027577325
-0.0026554833
-0.001550364
-7.0769864E-4
3.401507E-4
0.0016894699
0.0035607717
0.002510831
-8.987098E-4
-0.0017003018
-3.289498E-5
7.034301E-4
3.1059966E-4
0.0012296482
0.0012392853
-1.0747463E-4
3.392243E-4
3.5907466E-5
-8.216972E-4
-0.0011260789
-0.0027541646
-0.0027556168
-0.0011444011
2.860538E-5
7.932891E-4
5.664025E-4
0.0015888717
0.0024356754
0.0010755414
4.7667654E-5
-0.0016734989
-0.0031545302
-0.0019672716
-5.5278535E-4
3.0099406E-4
0.0010018393
7.8083074E-4
3.1814497E-4
2.5138876E-5
-0.0011761604
-0.0016018894
1.2211087E-4
4.446457E-4
9.890388E-4
0.0034190025
0.0024525858
9.17113E-4
0.0013586775
-2.5909036E-4
-0.0012520092
-0.0019394214
-0.004761999
-0.004558523
-6.7669345E-4
0.0019793194
0.0016616399
7.342682E-4
0.0016183263
0.0020333428
3.1158974E-4
-0.0010494078
-0.0012675603
-0.002010595
-0.0016940227
0.0013795969
0.002440386
8.6827634E-4
0.0011268609
3.583006E-4
-0.001245871
-1.1549038E-4
-1.7577408E-5
-1.4231437E-4
0.0018403566
0.0015027018
-3.2753167E-5
3.893057E-4
6.5297255E-4
-3.6262604E-4
-0.0023309714
-0.0039915214
-0.0036861515
-0.0019605302
1.9116967E-4
0.0022504197
0.003088601
0.0019476165
3.424563E-4
1.1719273E-5
2.2928491E-4
-5.77293E-5
-9.44562E-4
-0.0016453502
-0.0010931476
5.733284E-4
0.0019758996
0.001463348
3.5799254E-4
4.0572995E-4
-3.5710438E-4
-0.0016276251
-0.0015135502
-0.0010903504
2.9422643E-5
0.001312849
3.8268926E-4
-5.36431E-4