-0.001241767
-0.0010987173
-0.0017537108
-0.0020177762
-6.117995E-5
-2.3665557E-4
-0.0014970326
-2.4678948E-4
-6.915758E-5
-0.002295178
-0.0024955722
-4.923408E-4
6.596755E-4
0.0013278502
0.0017545824
0.0012936344
5.97273E-4
-6.773683E-4
-0.0018243301
-0.0010836116
3.9955202E-4
5.2397867E-4
-1.2478948E-4
1.6517886E-5
7.366961E-4
0.0017110992
0.002095596
0.0010000943
-9.696008E-4
-0.0030250873
-0.0022044093
9.1318623E-4
0.0017694468
0.0020221279
0.0027434079
0.0019457461
6.079893E-4
-3.0365435E-4
7.766855E-5
4.8600804E-4
-1.6849144E-6
-2.5620227E-4
-7.497245E-4
1.1056112E-4
3.8372065E-4
-0.0013639522
-9.339566E-4
-0.0017291718
-0.0034073389
-9.966483E-4
-1.9091056E-5
-0.0011423371
-9.4939844E-4
-0.001189993
-1.932311E-4
0.0020718528
0.0020349077
3.9581503E-4
-9.9298895E-6
3.4576416E-4
3.8365403E-4
0.0014062612
0.001787187
-2.737093E-5
-0.0013389544
-4.1629781E-4
0.0019429382
0.0022447137
1.9594046E-4
-2.6498365E-4
2.6558113E-4
8.805415E-4
0.002353898
0.0031237472
0.0010649795
-0.004297223
-0.0065089064
-0.0024118323
-5.3750834E-4
-0.0018316383
-7.2126853E-4
1.8718695E-4
-1.9962121E-4
6.9038605E-4
0.0014017241
4.7295348E-4
-2.7434033E-4
3.9541497E-4
3.2547343E-4
-5.637786E-4
4.6808276E-4
0.0016075653
0.0010361575
4.933374E-4
3.3573832E-4
2.7072537E-4
-5.6647573E-4
-0.0013163894
-1.2854708E-4
5.849124E-4
7.196311E-4
0.0020495744
0.0025366829
0.0015413228
-5.6985464E-5
-6.2905235E-4
4.9977266E-4
3.2471775E-4
-8.774386E-4
-0.0014152218
-0.0027249933
-0.0028007352
3.9342907E-5
0.0016476045
7.1723154E-4
5.594138E-6
-7.0041773E-4
-0.0013767417
-3.681987E-4
6.8920705E-4
-1.0796036E-4
-3.5767042E-4
0.0019249897
0.0029475305
0.0013365754
5.672829E-4
-0.0016212605
-0.0045026727
-0.0017808442
0.0014004764
4.3475207E-5
-8.744254E-4
-4.079981E-5
0.0011438611
0.0015464616
8.2507107E-4
6.91132E-4
2.4285015E-5
-9.3240436E-4
-9.31921E-4
-0.0014379866
-0.0017199976
-8.686676E-4
0.0010404259
0.0020438517
1.7102945E-4
-9.0362853E-4
-3.5787135E-4
9.494278E-5
7.776456E-4
-5.2299583E-4
-0.0013748591
7.700915E-4
0.0014996454
6.0939486E-4
6.254243E-4
0.0014501434
0.0014527746
8.922603E-5
-1.7348667E-4
9.1384436E-7
2.9394423E-4
0.0018529246
0.0015487872
-8.1495855E-5
-1.4432608E-4
6.334824E-5
-3.7337313E-4
-8.56279E-4
-8.0593076E-4
-4.8393782E-4
-4.2385308E-4
-8.968873E-4
-7.1832765E-4
2.3906902E-4
1.18098054E-4
0.0016614683
0.0018394594
-0.0017451918
-7.7242625E-4
-0.0037488556
-0.011346752
-0.0044928137
0.0046672556
0.0032010924
0.0016244077
1.6747108E-4
-3.5635827E-4
8.29808E-4
7.288848E-4
0.0014142634
9.376203E-4
0.001478557
0.0032493777
0.0018825369
0.001423635
0.0014039461
-2.2092963E-6
2.9141003E-5
6.80715E-4
5.900659E-4
-6.0383586E-4
-5.0141715E-4
3.403469E-4
-5.3190737E-4
-4.1816136E-4
-7.213865E-4
-0.0015765879
-4.7199105E-4
-7.703635E-4
-0.0019971186
-0.0010025663
1.9824179E-4
-4.9982854E-4
-3.751104E-4
0.0010263644
1.9949603E-4
-4.306991E-5
2.9998E-4
-0.0010415743
-2.1772546E-4
6.5961917E-4
0.0010849885
0.002048567
2.2471418E-4
-1.4729296E-4
4.3128742E-4
-9.267527E-4
-9.294334E-4
-0.0013204927
-5.458476E-4
2.903061E-4
-0.0014656301
8.04136E-4
0.0019012437
-0.0019213066
-0.001445051
1.3413315E-4
-6.5804156E-4
2.1321155E-4
7.5125584E-4
3.9667194E-4
8.1303145E-4
0.0015962173
0.0018023642
9.1421505E-4
6.96463E-4
3.6334601E-4
-0.0010472826
-0.0013996074
-8.906248E-4
3.7335147E-5
1.9050202E-4
-8.597813E-4
3.3091402E-4
0.0015798702
-5.4957036E-5
-0.0010840785
-9.676961E-4
-3.3743322E-4
3.9192472E-4
-4.8782476E-4
-5.730415E-4
2.887483E-4
3.051767E-4
8.927495E-4
5.021025E-4
-4.0142182E-5
0.001832692
0.0021066174
9.786516E-4
0.0015233743
1.5278003E-4
-0.002059648
-4.98244E-4
0.0018463549
0.0022019001
0.001173619
-4.995197E-4
-0.0014483917
-0.002990331
-0.00370524
-0.0010109846
2.5608216E-4
-4.8750069E-4
8.0126375E-7
-2.6964175E-4
-5.0685863E-4
-3.7473574E-4
-0.0015988015
-0.001848371
-4.0767936E-4
3.1565534E-4
-5.715038E-4
7.19588E-5
0.0018675275
-3.8498187E-5
-0.00122548
0.0011443887
0.0017105885
0.0010796973
7.796385E-4
0.0011525183
0.002116727
0.0010541762
2.3276414E-4
5.2297517E-4
5.779997E-4
0.0012428581
4.7117478E-4
-6.434887E-5
8.89784E-4
-5.567902E-5
-7.6111715E-4
-5.639448E-4
-0.0011545597
-6.658894E-4
-2.2722728E-4
-7.1245135E-4
-6.763266E-4
-2.541512E-4
7.364136E-4
0.0014488016
3.9094055E-4
-0.0013777713
-0.0015534431
-5.6731503E-4
-7.322176E-4
-0.001626482
-0.0017843887
-2.4404797E-4
0.001607164
2.3948835E-4
-0.0012675374
-2.8382332E-4
-6.8867674E-5
5.863294E-4
0.0010461127
4.0312158E-4
0.0023669081
0.0017626266
-0.0026132208
-0.0025993716
-8.925285E-4
-7.8431395E-4
-1.6352598E-4
2.34891E-4
0.0018360751
0.0031727469
0.0023274953
0.0024625075
0.0021966747
-1.8817693E-4
-0.001835881
-7.9049176E-4
7.1347377E-4
-2.628074E-4
-2.7676136E-4
5.769707E-4
-9.740962E-4
-0.0011206233
-8.929353E-4
-0.002233692
-0.001252352
3.415636E-4
-1.4705744E-4
-0.0020670434
-0.0023759885
4.5966211E-4
9.983127E-4
-8.4031693E-4
-0.0010262664
-0.0013560549
-0.0012827184
0.0010318927
0.0029072359
0.0021622705
7.897581E-4
0.0010598177
0.0017097848
0.0012984098
7.9665065E-4
8.79235E-4
-2.3104472E-4
-8.935591E-4
0.0010406013
-1.9144591E-4
-0.002660353
-2.0191146E-5
0.0015153345
4.6891812E-4
5.3702656E-4
1.9956211E-4
-3.829558E-4
-0.0013552833
-9.103743E-4
6.4428773E-4
2.481886E-4
2.5786128E-4
-0.001281348
-0.0032005408
-0.0012952501
-0.0012524407
-0.0016099601
5.721377E-4
2.824417E-4
-4.3917657E-4
4.0338005E-4
9.2544715E-4
0.0010755684
5.44912E-4
-7.586621E-4
-0.0021013555
-8.1920566E-4
0.0014468875
5.194045E-4
-9.6658524E-4
-3.326972E-4
0.0012728277
0.0012900345
3.7400192E-4
0.002001592
0.0027433492
0.0010051436
6.013731E-4
8.347186E-4
0.0014338992
0.0018587211
3.678043E-5
-0.0014337924
-5.0836E-4
2.565561E-4
-7.333344E-4
-0.001203585
-5.072203E-4
-3.433422E-5
4.4559312E-4
-2.4945775E-4
-0.0014516809
-0.0013864072
-0.0018911884
-0.0020208703
-4.6088075E-4
7.864218E-4
0.0010488809
1.7202283E-4
-0.0013599358
-0.0018287629
-5.476277E-4
0.0010973945
8.421936E-4
-3.6398225E-5
6.931934E-4
6.459009E-4
-4.2931628E-4
9.1258093E-4
0.0014622363
-2.7980906E-4
8.8937953E-4
0.001166979
-9.968412E-4
3.1422594E-4
6.2888983E-4
-7.941353E-4
-3.5546207E-5
-0.0013270723
-0.0018668894
0.001043548
0.0014125516
-3.4985563E-4
-2.2781313E-5
0.001973252
0.0020866147
-1.2405218E-5
-0.0012897649
-7.593467E-4
0.0014628894
0.0022016733
6.2991644E-4
3.8118064E-4
-2.6449328E-4
-0.0014881006
-5.018487E-4
0.0012128907
0.0014179695
-0.0011226624
-0.0035218883
-0.0033626258
-0.0023092853
-3.7261553E-4
6.749324E-4
0.0010382886
0.0020495162
5.480459E-4
-0.0018835609
-0.0032917962
-0.0031818515
4.454136E-4
0.0026103815
0.0014135636
7.476252E-4
2.985205E-4
-1.2696159E-4
-7.3404E-4
-1.13570124E-4
0.0024757234
0.0026361705
0.0017730359
0.001376153
-5.8933627E-4
-3.1606678E-4
-4.4382436E-5
-0.002363702
-7.377227E-4
0.0011480794
-0.0010634474
-8.264474E-4
6.7770353E-4
2.8128971E-4
9.0603146E-4
0.0010543801
-9.289671E-4
-0.0023906513
-0.0016442054
4.8533565E-4
0.0011257175
-8.754697E-4
-0.0015723351
2.8499146E-4
4.9518247E-4
5.0628226E-4
0.0021084636
0.0016458
0.0011415643
0.0017009082
3.3518494E-4
-0.0012713821
-0.0023215564
-0.0019432342
6.0740833E-5
1.18626005E-4
-0.0010541562
-0.0014245803
-7.438213E-4
3.2988653E-5
-3.9195913E-4
1.24982525E-5
5.1896175E-4
6.729724E-4
9.4645354E-4
-0.001316311
-0.0017075135
7.5206836E-4
2.298529E-5
-4.782505E-4
9.924864E-4
0.0011655345
9.98713E-4
3.5182852E-6
-0.0013920544
-4.460379E-4
0.0019533378
0.002898029
0.0025148268
0.0027083615
0.0021100203
7.182602E-4
4.8943184E-4
-4.144766E-4
-0.0019080967
-0.002052842
-0.0016234299
-8.266008E-4
-5.4906914E-4
-0.0010956576
-0.0011838791
-0.001274101
-0.0012041642
-0.0012890607
-0.0016570385
-4.8092735E-4
3.1356118E-5
-0.0017869709
-0.002195923
-4.4458784E-4
8.6824526E-4
0.0011829081
6.074544E-4
-4.7664568E-4
-6.603806E-4
-0.0010190686
-0.0019354643
-5.1222235E-4
0.0013278369
0.001957159
0.0036063376
0.0038276378
0.003247818
0.0045883707
0.003500202
-2.1635572E-4
-0.0018656163
-0.002210845
-0.0028476357
-0.0015084818
7.7337003E-4
0.0012182463
0.0017303277
0.001630151
4.373505E-4
2.4571415E-4
1.4897918E-4
0.0013128252
8.4744825E-4
-0.002374084
-0.0024463176
-0.002188077
-0.0013813328
3.9671792E-4
-0.0022762823
-0.0030589956
-0.001096944
-0.0018298369
-0.0021617094
0.0013280218
0.0054435423
-0.0015518682
-0.009450171
-0.0015740785
0.004366383
0.0018024594
0.001238867
0.0014115865
0.0024797865
9.661496E-4
-0.0010028953
8.887696E-4
3.2991733E-4
3.5091487E-4
0.0014415773
-9.936184E-5
-6.386297E-4
-7.432496E-4
6.24264E-4
0.0026133207
0.0022028193
0.0022226148
0.00229358
0.0010677201
-0.0020452016
-0.004582885
-0.002924861
-0.0014668473
-0.0010276489
8.829248E-6
-6.8516977E-4
-7.0154556E-4
7.733779E-4
0.001483009
0.0022830965
0.0022398646
2.6114017E-4
-6.4986915E-4
-4.302675E-4
-0.0013428241
-0.0010030544
-7.671357E-5
-0.0011182616
-0.0014437354
-0.0013180153
-9.831638E-4
0.001190812
0.0019544861
3.7735136E-4
-3.3379951E-4
6.859484E-4
0.0014941923
6.518866E-4
-0.001791704
-0.003674791
-7.563353E-4
0.0032663313
0.0025027979
9.011243E-5
-0.0023072269
-0.0029980354
1.8852243E-4
0.0028648856
0.0034434916
0.002644336
7.397741E-4
-7.509061E-4
-0.0013884845
-1.0120967E-4
6.7230244E-4
-4.4332823E-4
-5.3368305E-4
-0.0012370676
-0.0017814359
-8.109584E-4
-0.0018159379
-0.0028299883
-0.0021222054
-0.0016046787
-2.452659E-4
0.0016483441
0.0020248382
6.4505474E-4
-1.7853653E-4
7.515959E-4
0.0012121364
7.20874E-4
6.3812966E-4
0.0023057996
0.0027455708
-5.775071E-4
-5.232504E-4
0.0023745825
0.0025795852
0.0035683874
0.0020874164
-0.001086502
3.5308182E-4
-4.2258546E-4
-0.0034978965
-0.0043090354
-0.0044337893
-0.0021999488
-0.0015781566
-0.0021088775
4.8678037E-4
-3.4780143E-4
-0.0021476373
1.1313487E-4
0.0016878302
0.001738179
7.8863953E-4
0.0015081356
0.0033880463
7.90732E-4
-9.350368E-4
0.0019470406
0.0036220965
0.002678772
0.001202602
4.7971145E-4
-5.2690663E-4
-0.001286936
-6.2808616E-4
-0.0021537505
-0.0040600286
-0.0025946859
-8.7310973E-4
8.45015E-5
3.5796693E-4
2.1388094E-4
0.001135884
5.4057187E-4
-0.0011989886
-0.0012383374
-0.0015778195
-0.0021047953
-2.4797115E-4
0.0017335042
4.8586223E-4
-0.0013198387
1.7615796E-4
0.0025810308
0.0026331497
0.0014758856
0.0013159466
8.972806E-4
-0.0015760944
-0.0024312234
-3.4563924E-4
2.1490928E-4
-6.7570654E-4
-6.6098344E-4
-0.0011095445
-0.0021437667
-0.0013351599
2.9979853E-4
4.5850905E-4
0.0018119098
0.0041747773
0.0038664832
0.0031377056
0.0029413998
0.0020508575
0.0020226988
0.0012738729
-8.096618E-4
-0.0024517481
-0.0043710587
-0.004568248
-0.001038964
0.0019621272
0.001515152
1.079843E-4
-6.7688804E-4
-2.9198738E-4
3.8057004E-4
-0.0019892692
-0.003718676
-0.0018222572
-0.0028340765
-0.0050839167
-0.0037681006
-0.0024011661
-0.001339896
-6.93935E-4
-2.7001163E-4
0.0019867313
0.002394311
0.0012377162
0.0014683125
0.0013501536
0.0016176148
0.0022364089
0.0026438537
0.0032823952
0.0025981623
0.0021310835
0.0022369504
0.0020204086
0.0030660785
0.0033452725
0.0019883418
5.450522E-4
1.10883724E-4
9.6352515E-4
-0.0020509276
-0.0062634195
-0.004291534
-0.0026755242
-0.0029292174
-2.0882707E-4
3.8352178E-4
-6.769834E-4
-7.8033196E-4
-0.0031935715
-0.004997758
-0.0051000733
-0.005844098
-0.0056340257
-0.0050365804
-0.0038738896
-9.13979E-4
0.002225024
0.0033060133
0.002197085
0.0029721332
0.0047607864
0.004711175
0.0060622175
0.0056334175
0.0025640158
0.0034275304
0.003439849
2.6794822E-5
8.9895795E-5
0.0020806524
0.002062217
4.3527904E-4
-0.0010146613
-5.8412115E-4
-0.0012417375
-0.001874463
8.124872E-4
0.0010146459
-8.93915E-4
8.989395E-4
0.0032210418
0.0035934886
0.0023791508
0.0011545172
0.0012854832
-5.663602E-4
-0.0019715615
-0.0015825334
-0.0036563827
-0.004446705
-0.0029298977
-0.0019836887
-0.0012631613
-0.0024964977
-0.0031267288
-0.0020275193
-0.0024337936
-0.0035982963
-0.0057665263
-0.008114593
-0.00938888
-0.010492972
-0.01161071
-0.013708894
-0.01593566
-0.017747253
-0.013900491
-0.006050201
-0.00928758
-0.008192393
0.013055853
0.029857187
0.03641094
0.04084307
0.036881693
0.031055762
0.028835949
0.02613107
0.02195889
0.015568548
0.006337527
-0.005865223
-0.012459259
-0.0071925204
-6.1736425E-4
-0.0012649719
-0.0059729633
-0.009216842
-0.011790728
-0.011850506
-0.0058572725
-0.009149808
-0.026074065
-0.03583537
-0.034806173
-0.031019391
-0.024931164
-0.021117942
-0.022920037
-0.02371734
-0.017677784
-0.012009149
-0.011464056
-0.008169322
6.932667E-4
0.012354433
0.01943541
0.01741491
0.016142987
0.01696296
0.017777286
0.02167536
0.020134408
0.014658735
0.0159471
0.01966998
0.014411979
0.0043491484
0.014108961
0.035341688
0.041891985
0.048282146
0.052849155
0.043841556
0.038966954
0.02720153
1.6436166E-4
-0.015514698
-0.023401184
-0.045225207
-0.07892629
-0.11040991
-0.121147975
-0.10102772
-0.06326895
-0.021263044
0.02044068
0.050886184
0.07201608
0.088325314
0.09213824
0.08414449
0.05288548
0.0032420754
-0.025499053
-0.038661227
-0.05617589
-0.06367292
-0.05888674
-0.036914505
0.0018888764
0.025562454
0.028616628
0.015467278
-0.017552
-0.03351112
-0.022939023
-0.018608032
-0.02945876
-0.06086203
-0.08269211
-0.073040985
-0.0739981
-0.07391081
-0.026611745
0.075496756
0.1818696
0.21014461
0.19008298
0.15136689
0.06640194
0.0035094297
-0.02222189
-0.04352865
-0.014234599
0.059188552
0.11711293
0.10219315
0.027731037
-0.02602869
-0.06507018
-0.1073804
-0.14736818
-0.19655177
-0.22114436
-0.21378283
-0.17645095
-0.093673065
0.0070326845
0.09902177
0.13071486
0.09695562
0.07394488
0.06343273
0.05978202
0.04359042
-0.047722843
-0.10127348
-0.024871146
0.016587906
-0.0457682
-0.06680894
0.006544687
0.080114946
0.095181
0.099599525
0.119100146
0.09866509
0.032335456
-0.035232797
-0.0933939
-0.14069957
-0.16268963
-0.13815683
-0.0713637
-0.004877039
0.034141317
0.04553786
0.033387646
0.0067457147
-0.019477367
-0.050122023
-0.089430615
-0.089295916
-0.02968527
0.043633144
0.097798765
0.1042658
0.070609465
0.050259344
0.02548167
-0.026205352
-0.033283953
0.014722665
0.04575641
0.05055034
0.034387745
0.015052705
0.025309475
0.018720543
0.0046155234
0.011425091
0.009004857
0.0660356
0.14260133
0.14086571
0.14558956
0.10729475
-0.03697256
-0.16587082
-0.26258677
-0.30306432
-0.23220105
-0.12114644
-0.016165346
0.058014248
0.060086187
0.0048192386
-0.03347015
-0.017363716
-0.021796089
-0.05123186
-0.04398943
-0.038073443
-0.04404635
-0.032983568
-0.017983103
-0.009995222
-0.0152004715
-0.008834703
0.032066718
0.082317196
0.11747627
0.13058777
0.13892512
0.14707227
0.12937766
0.0988576
0.08063937
0.06596672
0.048545267
0.02795781
0.004817583
-0.0075907377
-0.012131593
-0.026247093
-0.0418144
-0.05424886
-0.07032738
-0.077852756
-0.0774055
-0.07553229
-0.06865666
-0.06492093
-0.06312342
-0.057898328
-0.050848953
-0.03795026
-0.024639241
-0.015821148
-0.0068590897
0.003902236
0.008210322
0.006301118
0.024249248
0.055963974
0.07307496
0.083855644
0.09569435
0.111838974
0.12746729
0.13273387
0.12858358
0.05964559
-0.06682794
-0.11645106
-0.07615414
-0.039939146
-0.031873055
-0.045061428
-0.06117469
-0.05865991
-0.041390512
-0.022941248
-0.019199587
-0.02257847
-0.020178426
-0.020205889
-0.01595652
-0.0020075107
0.008998321
0.01646549
0.021664457
0.020493567
0.018620577
0.022238616
0.032566395
0.047661304
0.057510708
0.05715053
0.050582558
0.039846808
0.031083858
0.02796589
0.027228009
0.028858397
0.029218309
0.026759343
0.027551865
0.029306166
0.026278114
0.0221973
0.02008516
0.015425361
0.008652397
0.002519132
-0.0053790235
-0.0139552355
-0.024025073
-0.03689472
-0.051680602
-0.072551385
-0.09297128
-0.10412748
-0.10934664
-0.11002932
-0.10726297
-0.099620245
-0.088506676
-0.081956625
-0.075029545
-0.06239881
-0.047113754
-0.028589863
-0.007863575
0.012804699
0.034042962
0.057137758
0.07829525
0.09925277
0.1261631
0.13967285
0.12518035
0.10284502
0.0871539
0.080671415
0.08299701
0.07604734
0.049084105
0.02098367
0.0028899817
-0.011868153
-0.015735397
-0.0113647245
-0.016758641
-0.025800006
-0.034105152
-0.048044488
-0.0605777
-0.06586148
-0.06394316
-0.059846524
-0.055771466
-0.0483913
-0.043422412
-0.040187944
-0.034736242
-0.03069093
-0.027144747
-0.025296144
-0.023597578
-0.019857109
-0.016529238
-0.010058227
-0.005342429
-0.0056972145
-0.0038687347
-0.002497104
-0.0018080341
7.2923664E-4
0.0032901089
0.0074525946
0.010080754
0.011885543
0.018839264
0.028219005
0.0368195
0.043773994
0.04762581
0.048534952
0.047950696
0.046106078
0.04112449
0.03496714
0.029115053
0.023524154
0.020903574
0.016913798
0.009113753
0.0030963158
-0.0014270258
-0.004651911
-0.0071515935
-0.012965532
-0.017897824
-0.019022197
-0.0195264
-0.01889836
-0.018875599
-0.021223651
-0.0217484
-0.020662995
-0.021680312
-0.023053246
-0.022018308
-0.018327663
-0.013694166
-0.011657949
-0.012106377
-0.01175312
-0.01042371
-0.0093546985
-0.008076371
-0.005298843
-0.0017702006
5.928381E-4
0.0035988747
0.0083850715
0.011386274
0.01139299
0.011370178
0.013494816
0.016786449
0.018019553
0.016719261
0.016243856
0.017393345
0.018057955
0.017287528
0.015120979
0.013379258
0.013659248
0.0142751485
0.013925696
0.012932657
0.0126679065
0.01400886
0.013797483
0.011797341
0.012022556
0.011392792
0.007080028
0.0052572144
0.007144853
0.0074631395
0.005700162
0.0047266274
0.006501667
0.0076085255
0.0042194985
0.0011040544
-7.405593E-5
-0.0015098958
6.98528E-5
0.0027960278
0.0031358462
0.0038325265
0.003786196
0.0011932007
-9.6651656E-4
-0.0014300372
-7.7133335E-4
8.100764E-5
-1.5810682E-4
-0.0012486171
-6.1573606E-4
0.0023485022
0.004034094
0.003708035
0.0031731706
0.0030998883
0.0035644912
0.0020643398
-2.966619E-4
8.266423E-4
0.003425
0.0042551635
0.003742662
0.0027897044
0.0014592132
-2.3226334E-4
-0.0014689815
-0.0016895686
-4.8177064E-4
8.970174E-5
-3.426259E-4
0.0015893561
0.0024824964
0.0010561201
0.001033542
-1.7515918E-4
-0.001700296
-0.0014593431
-6.2198885E-4
6.996935E-4
-4.029281E-4
-0.0013789964
-4.733957E-4
-6.9132156E-4
-2.0548812E-5
-4.4443939E-4
-0.0018597844
-0.0016922886
-0.0013555441
3.2443664E-4
2.1170713E-4
5.3204206E-4
0.0020472812
-6.68638E-4
6.8335445E-5
-0.0034498468
-0.012680455
-0.008519467
-0.0079181865
-0.012133113
4.911931E-4
0.0077384114
0.0030752423
0.0035242294
0.0037478686
0.0018911078
-0.0020711105
-0.0050137276
-0.0017559277
-7.082195E-4
1.0896673E-4
0.0025553778
6.495611E-5
-1.1838611E-4
0.00237978
0.0010350506
4.5909785E-4
8.4965944E-4
1.0531731E-4
-5.246919E-5
-8.1527384E-4
-0.0010849853
-2.8991475E-4
-5.4682593E-4
-6.1351235E-4
-0.0011007728
-0.0036503023
-0.004707219
-0.0018494847
4.684271E-4
-0.0010308423
-0.0014737038
2.3742004E-4
-5.3535774E-4
-0.0020831858
-0.0026297977
-0.002779459
-0.0019503525
-0.0018265318
-0.0016541984
-7.9490634E-4
-0.0014125825
-0.0021452084
-0.0016548189
-0.001525905
-0.002537091
-0.0030304494
-0.0032252707
-0.0034992117
-0.0011861074
0.0011758696
0.0026675654
0.003812477
-6.812158E-5
-0.001748159
0.002012317
0.0011951755
-1.5892078E-4
4.255171E-4
-0.0012795842
-4.693077E-5
0.0019763855
7.3332083E-4
6.382468E-4
0.001380038
9.380723E-4
9.214675E-6
-9.493502E-4
-7.282152E-4
-0.0010538882
-0.0029422028
-0.0025014873
-8.257694E-4
-4.9281487E-4
-3.501688E-4
-0.0024457315
-0.003937008
-0.0017917175
-0.0014829243
-0.0019035769
-7.75271E-4
-7.607673E-5
9.388934E-4
3.7939532E-4
-0.0010338357
-0.0018166078
-0.0027801525
-0.0021973266
-0.0021805896
-0.002691009
-0.0029251352
-0.0032954612
-3.499543E-5
0.0013186636
-0.0013443561
-0.0011926412
-9.608829E-4
-5.529132E-4
0.0010174814
5.011584E-4
6.2599214E-4
0.0015851288
0.002556529
0.003371352
0.0018447551
-4.2672927E-4
-0.0016480944
-7.9087116E-4
7.024639E-4
7.184925E-4
6.0228916E-4
-2.1992647E-4
3.2717548E-4
0.0029284942
0.0016089194
-0.0028265188
-0.0044685705
-0.0031777034
-0.0023575798
-0.0016030674
-0.0010899949
-0.002749544
-0.0019787627
-2.526199E-4
-0.002119793
-0.0023361882
-0.0018921182
-0.0028616902
-0.0023488142
-0.0012542614
0.0011223298
0.0021950232
0.001131957
0.001174739
-5.8066536E-4
-0.001586304
-2.0898608E-4
-6.399299E-4
3.2288663E-4
0.001969524
3.8451338E-4
-0.0010363384
-5.6114925E-5
0.0013378396
0.0010037473
-3.4184897E-4
-0.0017845698
-0.0024910066
-7.0386624E-4
8.253438E-4
0.0010765848
0.0016946412
6.054067E-4
-8.922594E-4
-0.0013171036
-0.002260039
-0.001506268
1.895679E-4
-0.0010254071
-0.0021491053
-5.0307528E-5
0.0020050767
0.0015226052
3.1758016E-6
-5.4637174E-4
-2.7165576E-4
-0.0015850529
-0.004685434
-0.0054395446
-0.0029211787
-0.0011342916
-8.39679E-4
-4.0406318E-4
-2.328268E-4
-5.26961E-4
-5.8760645E-4
2.8452472E-4
5.939645E-4
-0.0011913129
-0.0015302885
9.830723E-5
5.4452456E-5
7.208677E-4
0.0029143142
0.0024204487
3.7850233E-4
4.581102E-4
0.0019441397
0.0021731332
6.8111287E-4
-7.5145654E-4
-4.1861317E-4
0.0011384516
0.0017535544
0.0014532914
7.982567E-4
-2.7767647E-4
-3.525142E-4
-1.4993882E-4
-6.240354E-4
-6.4704014E-4
-8.139677E-4
-5.9372815E-4
4.4213198E-4
1.8745214E-4
-8.1095897E-4
-0.0010738382
-0.0019092889
-0.003590718
-0.0030201362
-6.0010294E-4
-0.0010255602
-0.0023276214
-0.0014224251
-0.0015929611
-0.0019692138
-0.0011131297
-0.0028177625
-0.0049078944
-0.003653424
-0.0030074455
-0.0027563695
5.948169E-4
0.001856096
4.4623538E-4
0.0019501547
0.002877406
0.002083403
0.0030176071
0.0027215779
0.0018461937
0.0032321836
0.0037255501
0.002536545
0.0019853588
0.0023957926
0.0028064807
0.0022340352
0.0011698332
0.0010939301
9.087013E-4
-7.115046E-5
8.0156326E-4
0.0013785735
-0.0010120901
-0.0024711327
-0.0025160077
-0.002535233
-0.0026317877
-0.0041737063
-0.0049374485
-0.0040892796
-0.0032120377
-0.0023983219
-0.0019298638
-8.4016606E-4
-8.833446E-4
-0.0022678017
-0.0017407872
-8.1832154E-4
5.902228E-4
0.0020670514
0.0010643448
1.9653673E-4
-2.111169E-4
-6.440357E-4
4.0126152E-4
0.0016656343
0.0018577309
6.854289E-4
9.595638E-4
0.0022900454
9.6010626E-4
9.558224E-4
0.0021215917
5.7397777E-4
2.8812973E-4
0.0011682104
4.1183602E-4
5.3270636E-5
4.3500107E-4
-1.5260199E-5
-0.0010338019
-9.891585E-4
-0.0011403617
-0.0024630995
-0.0018669618
2.3142053E-5
1.0033394E-4
-6.483998E-4
-3.1945956E-4
2.449831E-4
-1.5712604E-4
-4.346295E-4
-7.974263E-4
-0.001441517
-9.15257E-4
-2.985904E-4
-2.101415E-4
-2.4685378E-5
2.834112E-4
8.854606E-4
0.0014091086
0.0018351984
0.0012958996
2.418723E-4
-2.7862636E-4
-0.0010506458
4.7157523E-6
0.0010907708
-2.878841E-5
6.430169E-4
1.5506758E-4
-0.0019628133
-0.0018279356
-0.0026436027
-0.001500412
0.001155611
4.147091E-4
5.0589367E-4
-0.0012262149
-0.0029140268
3.8843954E-4
-0.0012697831
-0.0032431462
2.861044E-4
-7.4883785E-5
6.803468E-4
0.0027074774
2.7864458E-4
2.0754841E-4
4.076725E-4
-3.694367E-4
4.4960252E-4
-7.939054E-4
-1.022947E-4
0.0019333515
5.7302724E-4
-5.265187E-4
-3.090458E-4
6.7399594E-4
7.113621E-4
6.246931E-5
0.0013150577
-5.902908E-5
-0.0024712645
-0.0016328818
-0.0013034872
2.7086962E-6
0.0023867106
0.0020828897
0.0010219334
-8.4098725E-4
-0.0023166891
-8.002297E-4
-3.3619237E-4
-7.907105E-4
7.562246E-4
7.201123E-4
-5.345459E-4
-4.7028263E-4
-8.820365E-4
-1.0123223E-4
0.0017136835
0.0019092262
0.0021843272
8.6482434E-4
-0.0014549865
-2.3273048E-4
9.274774E-4
2.3968461E-4
1.1254675E-4
7.484657E-5
1.3051003E-4
-0.0015536017
-0.0032097537
-0.001844037
-0.0017335765
-0.0016887023
4.0289175E-4
3.5831638E-4
2.9463292E-4
9.826238E-4
-6.030245E-4
-0.0011440632
-8.433347E-4
-0.0014999253
3.5686386E-4
0.0016514634
-5.5991416E-4
-8.8524213E-4
1.8994842E-4
-6.4757845E-4
-6.8912696E-4
3.531947E-4
5.7258626E-4
8.6254404E-5
3.162285E-5
0.0013777612
0.0015613206
1.8838709E-4
3.025019E-4
9.365172E-4
8.809325E-4
-3.3809418E-5
-8.525474E-4
4.0227722E-4
9.189226E-4
1.6289402E-4
6.801451E-4
8.1115554E-4
9.7130943E-4
0.002150745
0.0018638817
1.0786399E-4
-7.3012954E-4
-9.128644E-4
-0.0016495469
-0.0012508256
-1.2912824E-4
-3.2761777E-4
-3.1160837E-4
-1.6822925E-4
-0.001284668
-0.0026821934
-0.0021045534
-4.6179473E-4
-0.0015915395
-0.0020398719
-2.0216353E-4
-2.2420801E-4
9.0606255E-4
0.0014256934
-0.0013546605
-0.0011442068
5.793043E-4
9.467507E-4
0.0014297962
5.801027E-4
1.5196908E-4
8.550149E-4
9.883201E-4
9.776852E-4
2.064901E-4
-2.8663702E-4
2.2253496E-4
-2.8825883E-4
-5.270027E-4
0.0015362658
0.0021316272
-3.7425538E-4
-9.595225E-4
-2.3448617E-4
-0.0015485778
-0.001712011
1.9729116E-4
3.5566103E-4
-0.0014226543
-0.0013506406
3.3608338E-4
0.0017689934
0.002707975
3.8345624E-4
-0.0011123348
0.0011772483
3.5634617E-4
-0.0011163248
2.6085583E-4
9.469838E-4
4.786752E-4
-0.0010534492
-2.1224654E-4
0.0011082423
-2.1458804E-4
0.0016114947
0.0016127159
-0.0017030195
-1.8266602E-4
9.603556E-4
-0.0010847723
-0.00238107
-0.0025193116
-8.521039E-4
9.2258176E-4
0.0014261788
5.0158275E-4
-8.188512E-4
-9.774371E-4
-0.0010423103
-6.0104945E-4
1.2427414E-4
7.401507E-4
9.769398E-4
-5.114898E-4
-6.7419297E-4
1.6096621E-4
-9.241728E-4
-0.0015659512
-0.0017461965
-0.0027259612
-0.0026111407
-7.3325944E-5
0.0025975097
0.0026464695
7.7470194E-4
-9.144703E-4
2.490325E-4
0.002121567
0.0016535776
0.001396306
0.0010867235
0.0011349482
0.001434704
4.8414254E-4
0.0014851458
0.001962505
7.6402427E-4
6.9589715E-4
2.0942696E-4
-1.5973217E-4
-6.36081E-4
0.0013951191
0.0037363803
0.0015167792
0.0020214429
1.3393279E-4
-0.0040216697
-0.002180181
-0.00939464
-0.015334459
-0.00475243
2.4697997E-4
1.4870521E-5
0.0037278759
0.0030261565
0.0011755222
4.3658272E-4
-2.6846761E-4
-4.2280933E-4
-9.25905E-4
7.771106E-4
0.0019533604
0.0011755843
9.7545667E-4
6.156098E-4
9.048456E-4
7.0541824E-4
1.6347745E-4
0.0014875391
0.0017338477
2.0403297E-4
-3.1379587E-4
-1.1040155E-4
-5.193361E-4
-6.1421574E-4
-5.6768965E-4
-0.0012381205
-6.1516854E-4
-2.8022923E-4
-0.0020774885
-0.0022835797
-2.2673351E-4
0.001813728
0.0027059782
0.0024794305
0.001936916
9.204054E-4
7.3882646E-4
0.0020160489
0.002170598
7.3834974E-4
-2.017947E-4
-5.235036E-4
-2.0335836E-4
0.0016415131
0.0016806322
-4.9927615E-4
-9.299041E-4
-0.0013565496
-0.0019202654
-0.0025443009
-0.0050709066
-0.0045827185
-0.0024503588
-0.0024676337
-8.591327E-4
-8.185076E-4
-0.003197657
-0.0016311959
0.0013221614
0.0021316167
0.0030157624
0.0035066158
0.0024022923
0.001580868
9.174693E-4
-2.5047158E-4
-3.5834764E-4
-9.235268E-5
4.6535858E-4
0.0018996045
0.0015916711
-8.432769E-5