3.4229414E-4
-0.0013766931
-0.002171426
-0.0055880034
-0.0049422025
-0.0014166569
-0.0015271434
0.0013153935
0.0035229544
0.0036012628
0.0054298537
0.004232937
0.0033967323
0.0038452938
0.0031082667
0.0031586809
0.0011636658
-3.837892E-4
-9.915847E-4
-0.0031619642
-0.0023609854
-7.0709636E-4
-0.0017785607
-0.002729111
-3.7866042E-4
0.002458988
0.0010524677
1.0089911E-4
-4.4089564E-4
-0.002295678
-5.3081004E-4
6.196273E-4
1.05605504E-4
9.889444E-4
8.964979E-4
0.0015588107
0.0016078844
-1.18579446E-4
-0.0012226922
-0.00215618
-0.0014121016
-0.0010447202
-0.002038233
-0.001552064
-9.90447E-4
9.152492E-4
0.0024630113
-1.9478792E-4
-0.0028040956
-0.0034521185
-0.0024988465
-4.3546465E-6
0.0013932646
0.002769245
0.003748485
0.0019894124
6.6595094E-4
-7.770363E-5
-0.001425934
3.8657687E-4
0.0025247652
5.979647E-4
-5.0764554E-4
0.0012411247
0.0025384796
0.0024796457
0.001501308
-1.8284441E-5
-0.0019266038
-0.0026877702
-0.0019636026
-0.0013438185
-2.2235983E-4
5.829798E-4
-7.5430213E-4
-0.0012698215
0.0010474944
0.0014837673
-6.4707507E-4
2.625141E-4
0.0016121638
5.3352804E-4
6.0698646E-4
-1.2172136E-4
-0.0012589237
-3.0747478E-4
7.625351E-5
9.1459876E-4
0.0012862941
-5.549645E-4
-0.0016164171
-0.0023809539
-0.0017456908
0.0015322345
0.0025409702
0.0019089124
0.0028070488
0.0010413378
-0.0024558366
-0.001552473
-1.232209E-4
-0.0016042336
-0.0021262737
-0.0012027234
3.812078E-4
9.3054026E-4
1.652441E-4
-4.5327173E-4
-0.0032899098
-0.004238236
-9.868391E-4
-4.038868E-4
-0.0014020577
-4.7389432E-4
0.0018563499
0.0041832337
0.003875487
0.0026861508
0.0019496697
0.0014012194
0.0018651414
9.939646E-4
-0.001381071
-0.0018390088
-2.3709967E-4
5.8998854E-4
0.0021091045
0.0055319993
0.0053260536
0.0025146974
0.0018398331
8.1140234E-4
-0.0023721023
-0.005739904
-0.0063397307
-0.005270556
-0.0045558047
-0.004474745
-0.005992251
-0.0045593656
-7.607723E-4
0.001960326
0.0051336694
0.002832844
-0.0017570376
-0.0027428411
-0.003622632
8.8566245E-4
0.003802394
-0.0010020419
-1.4895738E-4
0.0029068817
0.0019439665
0.0017901678
0.0024822787
0.0037334892
0.0026755622
3.603275E-4
-8.7154773E-4
-0.0030159086
-0.0026232046
-6.671393E-4
1.8744808E-4
0.0017567112
0.0035664649
0.005065751
0.003936418
0.0029113365
0.0045986143
0.00384499
0.0026216668
0.0023881
9.412549E-4
6.8147585E-4
0.0012107288
0.0011588652
-7.546358E-4
-0.003080928
-0.003304528
-0.003888333
-0.0034209113
-0.0028661306
-0.0045980527
-0.005101385
-0.0065667736
-0.008872393
-0.009088124
-0.009028538
-0.007490555
-0.006162083
-0.0063897762
-0.0053632953
-0.0032430836
0.0016059871
0.008923885
0.014007703
0.013581212
0.008998551
0.0053026127
0.0028395138
0.0017507094
0.0033062452
0.0056337835
0.008895477
0.009198375
0.0052765394
0.003940064
0.0040477756
0.0018478449
-9.855332E-4
-0.0026769491
-0.004232567
-0.00727884
-0.007382911
-0.004526928
-0.0034092267
-0.0016179421
-6.397101E-4
-0.0028410824
-0.0031984393
-0.0010175597
6.780242E-4
0.0015173032
5.897499E-4
-0.001401907
-1.6996101E-4
0.0017847663
5.359584E-4
5.097645E-4
4.6291295E-4
-0.001505044
-0.0021555074
-0.0030633032
-0.003045148
-0.0027690092
-0.0028522275
-6.032303E-5
-0.001049345
-0.0047100536
-0.0032807707
-8.258811E-4
2.7118172E-4
-5.8609872E-5
3.2065227E-4
0.0028915764
0.0031487436
0.0035147474
0.0038694367
0.0019296469
0.0024384637
0.0026148646
0.0010312771
0.0016031067
0.002550225
0.0033584572
0.003297098
0.0014466696
2.6595857E-4
-0.0013779267
-0.00398661
-0.0036516779
-0.0014156572
-4.9922446E-4
0.0012358065
0.0032687623
0.003105408
0.0020215444
-7.62257E-5
-0.002004164
-0.0026352212
-0.0035288986
-0.003290144
-0.0020472445
-7.28289E-4
8.889747E-4
0.0010403463
0.0014334054
0.0026467096
0.0014105373
-0.0014061726
-0.0039314283
-0.0068605132
-0.008456022
-0.005755686
-0.0027769376
-0.00244288
-0.0010891404
2.883858E-4
0.0024066453
0.005218778
0.0029900004
-2.2739466E-4
-0.0014697363
-7.844031E-4
0.005326968
0.008288103
0.0053187916
0.0049209455
0.005962486
0.00668272
0.0067978967
0.0070001474
0.007321238
0.0018265609
-0.0037036256
-0.0022215866
1.5572173E-4
-4.20561E-5
-0.0045430497
-0.0112192985
-0.014058017
-0.012278889
-0.0075514605
-0.0064638336
-0.009248802
-0.007736587
-0.0032658596
0.0013210617
0.0029494243
-0.0019282715
-0.0060827313
-0.005145902
-0.002724765
-0.0013797916
-8.895185E-4
0.0014743374
0.0059753037
0.012612064
0.01811609
0.01644992
0.011705592
0.009148904
0.008176341
0.007532605
0.0062488047
0.0068887654
0.008188394
0.005793135
0.0010847956
-0.004227535
-0.008034259
-0.008751232
-0.0085246125
-0.008411481
-0.007320807
-0.0051469393
-0.0037809068
-0.0026737219
-0.0025946826
-0.0065483246
-0.009590928
-0.008305739
-0.00606192
-0.004121204
-0.0018544819
0.0016525629
0.0028780054
0.0021775581
0.003547675
8.342261E-4
-0.003452291
-0.0017960077
-6.060744E-4
-0.0014855562
-9.508695E-4
0.0010919769
0.0043852557
0.00651489
0.007345224
0.0057091364
0.0021342868
0.0010034773
-5.9145263E-5
-0.0027046122
-0.0038267898
-4.562868E-4
0.005462553
0.0065815914
0.0050780484
0.00506502
0.005382546
0.008497157
0.011790282
0.011363092
0.0047038654
-0.006941533
-0.009867159
-0.005395896
-0.005717754
-0.006632722
-0.0071969214
-0.008077723
-0.004941818
-0.004044491
-0.0056376015
-0.00229794
0.0011920015
-6.5479724E-4
-0.0047632875
-0.006153175
-0.0031202238
-0.0014748508
-0.0035749008
-0.003354594
-0.0018567116
-0.0016998486
0.0010405842
0.0048413523
0.006895796
0.007904292
0.0066564647
0.0035507032
9.558917E-4
0.0017431203
0.0047212904
0.0040959604
0.0014774618
8.784371E-4
-3.0793537E-5
-8.0460997E-4
2.967594E-4
9.517719E-5
-8.597757E-4
2.2524674E-4
6.8695843E-4
0.0012822923
0.0035156705
0.003867359
0.0041014836
0.0037747656
-3.3663685E-4
-0.0034673638
-0.0040705544
-0.0026635872
7.388236E-4
0.0014294027
7.2533416E-4
0.001138036
5.5133237E-4
1.8627048E-4
6.861498E-4
-1.0460631E-4
-0.0025185954
-0.0026153882
2.851954E-4
6.1923795E-4
-9.820516E-4
-0.0015722008
-0.0032420491
-0.0059174653
-0.0063318964
-0.0047726324
-0.005588073
-0.006719023
-0.008228414
-0.014810125
-0.0156032555
-0.007677636
-0.0040571713
-0.0022161473
9.1010175E-4
0.0018606824
0.003700299
0.0060626385
0.0075690043
0.008896764
0.011189252
0.0126633905
0.008983078
0.006695646
0.00915922
0.011184618
0.014187835
0.015863575
0.014165251
0.013197137
0.0125760315
0.012195925
0.011027363
0.005367321
-0.003689971
-0.01110597
-0.01514808
-0.01899945
-0.020827753
-0.018729916
-0.01700668
-0.015586779
-0.011822089
-0.0047943667
-1.6791679E-4
-0.0057169283
-0.013896803
-0.015208741
-0.010815343
-0.003839705
0.0012447028
0.0023821427
0.0014762749
0.0014290131
0.0037993996
0.0064813886
0.008330694
0.0091937715
0.009831874
0.0108123915
0.0102469055
0.00813443
0.0044515883
0.0018630477
0.0029686985
0.0031845088
0.0025032475
0.0030296573
0.0023629505
7.074174E-4
-0.0011431491
-0.0021164438
-0.0019934038
-0.0017895981
-0.0012046568
-0.0010951636
-4.3100477E-4
0.0020840862
0.0053318576
0.0065012136
0.0027889726
-0.0010149695
-0.0028079709
-0.0062654926
-0.007146415
-0.0038123284
-0.0019164622
-0.0026136152
-0.0034851672
-0.0021060063
0.0018620061
0.0042235455
0.0026329043
0.0010492009
-8.114766E-4
-0.0033723495
-0.001696648
-0.001138053
-0.0031989813
-1.0314448E-4
0.0022610053
0.001340134
0.0019514464
0.0010463907
-0.0014852536
-0.004405834
-0.0057722004
-0.002956689
-5.2899076E-4
-0.0011381808
-0.002840934
-0.0033725728
-0.0021501202
-6.8981876E-4
2.844613E-4
-5.4896687E-4
-7.876375E-4
0.0010514366
0.0016207196
0.0016806308
0.001846321
0.0026740015
0.0033119523
0.0012983243
3.3417044E-4
-3.8471425E-4
0.0011077854
0.008253001
0.009734642
0.006471274
0.007695148
0.008289118
0.0070042396
0.0050986055
6.336948E-4
-0.004524675
-0.007889029
-0.007621141
-0.0044162124
-4.2616524E-4
1.4166806E-4
-0.003758658
-0.005596524
-0.005127919
-0.004295845
-0.0025086403
-0.001309762
9.6743525E-4
0.0017594718
8.885055E-4
0.0024855793
2.0433501E-4
-0.0051420215
-0.0069908793
-0.007116039
-0.003697221
0.0012714579
0.002274931
0.0028551868
0.0056476095
0.0069887745
0.005058243
0.003358156
0.0015794446
-0.0017475123
-0.0014266578
9.660976E-4
8.649414E-4
8.6002477E-4
8.979011E-4
5.408659E-4
4.3367583E-4
-0.0010413968
-0.0026996527
-0.0031664267
-0.0032277827
-0.002640095
-0.0012258521
6.9272786E-4
0.0027839125
0.0024984125
-6.1920757E-4
-0.0018593716
-7.869282E-4
-7.3279545E-4
-0.0011745638
-7.001375E-4
6.9340353E-4
0.0016957986
0.0014863926
9.5325493E-4
0.0015698473
0.003264685
0.00290508
0.0019843196
0.0016287712
-0.0010599063
-0.0010920878
0.001259884
9.960091E-4
0.0011923001
-7.116602E-4
-0.0034234426
-0.0011797238
6.034628E-4
-5.6275394E-4
-0.003540043
-0.0060227807
-0.003716691
-4.7430137E-4
8.4604626E-4
0.0014195691
9.3148305E-4
-4.5602172E-4
-0.0016640604
2.454767E-4
0.0023548962
9.5748E-4
-6.0810364E-4
-6.2125345E-4
0.0010187298
0.0014272209
-2.3505688E-4
4.573018E-5
-5.1038683E-4
-0.0022403325
-0.0018984089
-1.4292513E-4
0.002739121
0.0025683374
7.488783E-5
-2.9822477E-4
-0.0011903188
-4.0725063E-4
0.0025846406
0.0036071395
0.0047297534
0.0047930037
0.0020423306
5.7823514E-4
7.3088374E-4
-0.0026886305
-0.008916488
-0.010107616
-0.0069805505
-0.0013599104
0.0063859955
0.006719882
0.0029137235
0.0034752584
0.0036737816
0.002100966
-0.0033564472
-0.0097395
-0.009096417
-0.0057322546
5.734583E-4
0.006651507
0.004860425
0.004575871
0.0055495384
0.0023848782
0.003326664
0.0047985306
9.672888E-4
-0.0026966261
-0.0045140903
-0.0038800852
-4.893491E-4
8.237187E-4
-9.292183E-4
-8.517179E-4
-4.4403653E-4
-0.0035101075
-0.004912258
-0.0025217237
-8.984358E-4
-0.0020187395
-0.004665944
-0.0039035105
-3.9157316E-5
7.6805125E-4
-2.8628693E-4
-9.6789113E-4
-0.002088973
-8.9069863E-4
0.0027496784
0.0052831857
0.007162089
0.008278742
0.006865529
0.0052931053
0.002093387
-0.0032199114
-0.0027648238
0.00134612
0.0028988472
0.0049229525
0.006629531
0.005544847
0.0028972386
-7.468726E-4
-0.004593336
-0.0057928003
-0.002420789
-0.0024059422
-0.00831609
-0.0091245985
-0.0054996647
-0.0029771419
-3.2058306E-4
8.519422E-4
0.0017822068
0.0028860597
0.0022651297
-7.309854E-4
-0.007100365
-0.008306557
-0.003796001
-0.0045528607
-0.004567036
-6.694683E-4
-7.580646E-4
-0.0022445451
-0.0031180058
-0.0035228236
-0.0022892028
-5.971836E-4
0.0022330752
0.0035424412
0.0045706434
0.008551447
0.0097443
0.008424515
0.006430986
0.0038888352
0.0060655675
0.007745163
0.005837086
0.0061735786
0.0054034432
0.003524343
0.0039260522
0.003688344
0.0033130185
0.0038383908
0.0036903229
0.0017226343
-0.0015663061
-0.0040216963
-0.008767848
-0.018151717
-0.024134845
-0.02293995
-0.021019854
-0.0172171
-0.009624178
-0.004838951
7.2354823E-4
0.0076251193
0.00644351
0.003408002
0.003386706
0.001841713
0.0022845247
0.005128049
0.008037059
0.009088577
0.005867273
0.0048999414
0.009450421
0.013192201
0.010853738
0.0035935168
-0.0013798507
-0.002380562
-0.0026953074
-0.0028500168
-0.00291836
-0.0031852215
-0.004394532
-0.0048418725
-0.0031685021
-0.0021074496
-0.0016905188
7.9330656E-4
0.005218944
0.0068670823
0.0066703353
0.009461772
0.009868728
0.0079794545
0.007507271
0.0043756007
0.0011622211
-0.0037892512
-0.010802677
-0.011910844
-0.013210625
-0.014187715
-0.009534611
-0.009961769
-0.013204451
-0.010720866
-0.008994614
-0.012312627
-0.015328675
-0.013048738
-0.008849871
-0.005703304
-0.0037387963
-0.0034463091
-3.1278472E-4
0.005840042
0.011994187
0.01742324
0.02154679
0.027447525
0.029852448
0.027006458
0.028866038
0.027470076
0.016948761
0.010415842
0.008072008
0.0018338886
-0.008035271
-0.01834781
-0.02557151
-0.028786656
-0.03233749
-0.034629326
-0.02560059
-0.011397282
-0.003928323
8.810269E-4
0.00395272
0.008023316
0.015268428
0.017631052
0.023619406
0.036915895
0.04313797
0.040504254
0.03098365
0.020221129
0.012657224
-8.4376254E-4
-0.016711548
-0.027603356
-0.037967056
-0.049406637
-0.06147781
-0.06979908
-0.07266789
-0.07274013
-0.06600721
-0.05422852
-0.04318947
-0.03418082
-0.029823082
-0.023634708
-4.2402674E-4
0.037158374
0.066319495
0.07880339
0.08838966
0.10467418
0.12321176
0.1296866
0.118158855
0.09863956
0.082362846
0.076522335
0.0760316
0.06947676
0.048333004
0.008658972
-0.03429534
-0.07393825
-0.116605155
-0.14692065
-0.16235486
-0.16995537
-0.15903533
-0.13940893
-0.12221784
-0.09524628
-0.056592096
-0.016958598
0.015620557
0.045470994
0.077177085
0.10214792
0.117775545
0.12707706
0.12959777
0.12114007
0.10474956
0.096560106
0.08699462
0.05753481
0.019229759
-0.03559836
-0.11514989
-0.17432888
-0.18924429
-0.18539342
-0.16692343
-0.1392977
-0.123931326
-0.10512181
-0.07615604
-0.054907836
-0.035784144
-0.019068746
0.006910849
0.06245642
0.12957676
0.19976658
0.25524932
0.27418062
0.29407182
0.318963
0.31224424
0.28926444
0.2682456
0.22787179
0.15204686
0.06700149
-0.017739274
-0.15249282
-0.32825208
-0.45166382
-0.4881355
-0.4833147
-0.46124026
-0.40799248
-0.32621595
-0.23559852
-0.1591877
-0.10720783
-0.06767607
-0.037956815
-0.0074351043
0.036702935
0.08380185
0.13507836
0.18253052
0.2288495
0.30480218
0.38229713
0.42392203
0.4420124
0.43988764
0.4072078
0.32704058
0.20572974
0.087034106
-0.017619278
-0.12260092
-0.21475942
-0.27428252
-0.3088302
-0.33372653
-0.3346505
-0.29497442
-0.23634247
-0.18815197
-0.15142767
-0.11840874
-0.09091261
-0.06692883
-0.043172732
-0.019416949
0.009770569
0.044229403
0.075984344
0.10281904
0.12314837
0.13350253
0.13902603
0.13751847
0.12109523
0.10167254
0.08224102
0.05790671
0.042000793
0.03811001
0.03806792
0.021260185
-0.0143014835
-0.034906954
-0.05371085
-0.07536662
-0.06101651
-0.038588844
-0.035473827
-0.03377894
-0.034898475
-0.03334176
-0.026584404
-0.015890315
0.0010166058
0.006027144
0.002150476
0.003423421
0.010405649
0.023071997
0.02271341
0.00310157
-0.018402504
-0.03410355
-0.038365435
-0.032344453
-0.022707717
-0.008366404
0.008100162
0.021360703
0.03003717
0.034849584
0.036963668
0.035328403
0.027120726
0.016911699
0.013475927
0.013251231
0.0123581765
0.009132278
-0.0031333012
-0.01435429
-0.015441054
-0.013286571
-0.008378436
-0.005957875
-0.008166676
-0.007077418
-0.00835012
-0.012873421
-0.013298607
-0.011165885
-0.0076341904
-0.0072408793
-0.010841762
-0.009767608
-0.0053410227
-0.0022845103
-1.1282479E-4
-0.0015620688
-0.0053828903
-0.0060615027
-0.0040402855
7.9742254E-4
0.009495953
0.017456954
0.024179803
0.026010755
0.016061459
0.007729584
0.008830901
0.009177842
0.0102333175
0.011916677
0.014731357
0.023128701
0.022686813
0.013070257
0.012415926
0.017288266
0.012923477
-0.0042733303
-0.016944723
-0.010589004
-8.193733E-4
-9.46039E-4
-0.0073198196
-0.016241057
-0.02260922
-0.023976332
-0.023937069
-0.024836661
-0.023973294
-0.020749379
-0.01929635
-0.019568563
-0.02135178
-0.024041206
-0.023737922
-0.02137837
-0.018356288
-0.014821903
-0.00811728
0.0031199546
0.0073050763
0.004432295
0.008891009
0.019247916
0.027290188
0.03178164
0.034693178
0.037710506
0.04092471
0.04218228
0.03732461
0.03297544
0.032607146
0.026072796
0.01903225
0.015572712
0.005959047
-0.0018266246
-0.0033462313
-0.010348373
-0.022171041
-0.031568725
-0.036136422
-0.03569979
-0.033649176
-0.03066488
-0.024966504
-0.020238275
-0.017647738
-0.014678464
-0.01434462
-0.015095915
-0.01195876
-0.0066778683
-0.0014986646
-5.629826E-5
-3.017224E-4
0.0032677564
0.0058993455
0.008606049
0.013428442
0.015075204
0.016795589
0.017309284
0.0134956725
0.011813287
0.010079857
0.0057986123
0.0025358119
-9.648418E-4
-0.0024708475
-9.518273E-4
-0.0011121321
-0.0015401787
-0.0016451085
-0.0053317556
-0.007628117
-0.0019683926
0.005302631
0.0068821916
0.0061376425
0.0072354404
0.007235796
0.0033456772
-0.0011642048
-0.0035053478
-0.0043485025
-0.0040241987
-0.0029552002
-0.0018079394
-0.0014837708
-0.0027132342
-0.0037262088
-0.0028024695
-0.0019937803
-0.0019697796
2.4631934E-4
0.0029744583
0.004329813
0.0052270438
0.0028934006
8.272499E-4
4.8031803E-4
-0.004753561
-0.008823734
-0.008702555
-0.008872079
-0.005959915
-0.004697483
-0.0066238334
-0.0057817586
-0.004750271
-0.0030438947
-0.0025328733
-0.0030644399
0.0011611831
0.0031846848
0.00279302
0.004917209
0.004702936
0.004444899
0.0039884774
8.490753E-4
1.9656822E-4
0.0019093597
0.0034889537
0.003646032
0.003888391
0.0058617354
0.0041196947
1.9149072E-4
-6.2210694E-7
0.003222625
0.00820951
0.011431464
0.012243862
0.00815118
-0.0036690861
-0.011805174
-0.0102544855
-0.006736172
-0.0046622674
-0.004198948
-0.0028987024
0.0011526629
0.0038148067
0.0047459253
0.0067790495
0.0073769176
0.0041707815
-0.0015967875
-0.00973509
-0.015264016
-0.012934054
-0.00992446
-0.008707843
-0.005522187
-0.0048626745
-0.0043927114
-4.99019E-4
0.0021692405
0.0050143627
0.0072954567
0.0061601694
0.0055641164
0.0063325465
0.0072126985
0.0071785967
0.00699031
0.008415405
0.006822588
0.0027785313
0.0012066956
0.0012464015
0.002622239
0.0024100193
6.125819E-4
0.0016787418
0.0022960957
0.0012666925
-7.2364847E-4
-0.00444468
-0.0057513155
-0.0065940497
-0.008495868
-0.007054337
-0.0046772123
-0.0032348367
-0.002345286
-0.0025890665
-0.0026367088
-0.0031872948
-0.002787526
-6.298663E-4
7.3018915E-4
0.0020837341
0.0030271832
0.0030535725
0.0031490098
0.0030426772
0.003002078
0.002207278
9.5177424E-4
-6.361627E-4
-0.0020360474
-4.9000274E-4
0.001475072
0.0014698349
-4.6934E-4
-0.0030995447
-0.0020622944
-8.200967E-4
-0.0011976374
5.756414E-5
-8.924338E-4
-0.0016703849
6.6350105E-5
9.122584E-5
4.5639946E-4
4.9423333E-4
4.5608575E-4
0.0027164437
0.0024648288
8.98759E-4
0.0015600087
0.0026561876
0.003297315
0.0027027228
0.0030945046
0.004009442
0.0023423783
0.0014824959
0.001150824
-5.520721E-4
-7.694037E-4
-2.060175E-4
3.9594146E-4
5.9992255E-4
-2.0220962E-4
1.809997E-4
-8.789994E-4
-0.004244105
-0.0051082913
-0.0041235853
-0.0037432895
-0.0045710746
-0.0046248133
-0.0016406353
-9.329778E-4
-0.002493815
-0.0011477502
-7.28395E-4
-7.389297E-4
0.0013191059
0.0013841758
8.9416106E-4
3.5291287E-4
-7.419276E-4
0.0012432329
0.002040571
-8.2631194E-4
-0.0020394595
-0.0010619337
9.078941E-4
0.002645961
0.0021199922
1.1662209E-5
-0.0012824509
2.233849E-4
0.0014852873
3.4548735E-4
-5.605796E-4
-0.0020808163
-0.00348567
-0.0016661369
0.0026763591
0.007653907
0.009347997
0.007999277
0.0063767973
0.001108356
-0.0046327063
-0.0048934757
-0.0033266814
-0.0017649677
0.0010051857
0.0033017192
0.0031003908
0.0013283892
0.0011148768
6.5582345E-4
-0.0016393411
-0.0032981848
-0.004698292
-0.0051583396
-0.0041975863
-0.0029441142
-0.0010190418
-8.727629E-4
-0.0023090153
-0.0029565834
-0.0034686162
-0.002688426
-0.0015173162
-0.0015090165
-0.001580227
-6.847526E-4
0.0020422542
0.0031133872
0.0034255113
0.0048990096
5.0006155E-4
-0.004485104
-0.0017684925
0.0019250046
0.0034858184
0.0030526377
0.0024640034
0.0053070784
0.006016805
0.002465294
-2.3840554E-4
-9.4935583E-4
-0.0014470366
-0.001510781
6.7997165E-4
0.0016012602
9.4106264E-4
0.002521626
0.0014041467
-0.0021471442
-0.002976486
-0.00361106
-0.0036122936
-0.0017660103
-9.7391475E-4
-0.0020013894
-0.001728049
0.001246142
0.0010627456
-0.0011934664
-2.299233E-4
-9.871875E-4
-0.0025144112
-0.0014833296
-0.0018062665
-0.001545089
1.4823292E-4
0.0013119009
0.0025579724
0.0012265976
-8.3983404E-4
1.3378128E-5
4.6875887E-4
-8.305863E-4
-0.0014328436
5.772805E-4
0.0034109936
0.003223343
0.0021885652
0.002593554
0.0016699927
-2.2826556E-5
-2.5230995E-4
2.2895997E-4
0.0011148945
0.0018323074
0.0013452374
1.5588131E-4
-8.764686E-4
-3.999805E-5
6.0317013E-4
-0.0035448407
-0.00689908
-0.0046132766
-0.0029488273
-0.0030165273
-0.0021181605
-8.738356E-4
5.407521E-4
-4.2391664E-4
-0.0015074997
7.259822E-4
6.3352997E-4
-7.5894844E-4
0.0010315366
0.0015994059
8.7969116E-4
0.0010928988
5.817098E-4
7.8836037E-4
0.0014878387
6.202569E-4
-8.093537E-5
8.954511E-4
0.0021713742
0.002342978
0.0026055924
0.0028425045
0.00162478
0.001367949
0.0020319112
3.8038904E-4
-0.0014953436
-0.0014252802
-0.001136846
-2.9573927E-4
8.0806814E-4
-1.8271273E-4
-8.339541E-4
-1.4988454E-4
-0.0014389757
-0.0016566381
2.5440386E-4
-5.0232717E-4
-0.001629519
-0.0012021211
-0.0017222844
-0.0012134829
0.0010361628
9.761879E-4
-0.0017465579
-0.0027197462
-0.002852853
-0.004010894
-0.0017479822
4.0210417E-4
-0.0012255659
8.956009E-4
0.004451502
0.0034270599
0.002429766
0.0024352877
0.0010157488
-6.657534E-4
-5.049413E-4
0.0013384615
0.001828143
0.0017440614
0.0025158466
0.0019980303
5.08775E-4
-0.0014193873
-0.0034558724
-0.0036547233
-0.0021904765
-9.639378E-4
-9.948639E-4
-9.302129E-5
0.0019935332
0.0016079135
1.4195305E-4
-6.5969565E-4
-0.0016292171
-9.267111E-4
4.0376017E-5
4.1583244E-5
6.0910947E-4
9.0369757E-4
0.0021695883
0.0025529733
-4.994415E-4
-0.0013811553
-2.694351E-4
-4.0858187E-4
7.2056765E-4
0.0018150167
0.0030213725
0.005075564
0.0029904163
-0.002401839
-0.00598472
-0.0070394995
-0.006673599
-0.0047498504
-0.0015962512
-1.0971008E-4
5.627475E-4
0.002190824
0.0020195877
0.0017412807
0.0024170452
0.0014366992
9.3204516E-4
2.903507E-4
-0.0016605973
-0.0012896119
8.1794005E-4
0.0023701363
0.0024163502
8.988093E-4
-5.391567E-5
-6.7424716E-4
-4.8865686E-4
0.0012876452
0.0016183206
0.0012691992
0.0024131346
0.0029905273
0.001972268
-3.5045287E-4
-0.0029880495
-0.0049757175
-0.006000848
-0.00426219
-0.0015977011
-0.0011898881
-2.9908313E-4
0.001822679
0.00341195
0.0043074787
6.2582915E-4
-0.0056959563
-0.005467194
-8.138387E-4
0.0010087641
4.438419E-4
-4.8333136E-4
1.2070195E-4
0.0023375687
0.0030730937
0.002165138
0.001624838
0.0019622145
0.0016518974
0.0010931031
0.0020401082
0.0016726158
8.7843835E-4
0.002506893
0.0019990273
-0.0014064456
-0.0035173604
-0.0031857884
-0.002920347
-0.0037002212
-0.0021233056
-9.043383E-4
-4.616343E-4
0.0015941345
-5.183578E-4
-0.0023836335
-0.0015068288
-0.0025353918
-1.7368686E-4
-1.0026034E-4
-0.002763599
3.3950334E-4
9.872104E-4
0.0017771625
0.004461958
0.0017824612
0.001510272
0.0013815692
-8.48711E-4
0.0010676172
0.0012998655
0.0011127302
0.0022093467
9.742316E-4
7.9509534E-4
4.7316085E-4
-2.8843767E-4
-0.0011484878
-0.0034325612
-0.0027849253
-0.0012302505
-0.0012174185
1.8389891E-4
6.550845E-4
-1.1500826E-4
-1.1867008E-5
-8.3365134E-4
-0.0014310529
-1.8187848E-4
-7.462201E-4
-0.00167146
2.6845615E-4
0.0010650636
0.0013016333
0.0011881824
-0.0017502292
-0.0016573974
8.315679E-4
0.0010719444
0.0018043185
0.0019260495
-1.2576047E-4
-0.0015334944
-1.00943944E-4
0.0016857097
5.37028E-4
-2.5324328E-4
-3.0279648E-4
-9.5947547E-4
2.6423807E-4
0.0016458735
0.0021862006
0.0026154048
0.0021974347
0.0017426364
0.0019781543
0.0021563326
-2.6550438E-4
-0.002869361
-0.0024688474
-0.0021631191
-0.0017306374
-0.0015067047
-9.377098E-4
0.0012712824
1.13734844E-4
-0.0010251298
-0.0012727829
-0.004296362
-0.003428705
-0.0017407959
-0.001222462
0.0024018942
0.001611905
-0.0015241526
-0.0010714235
-1.3878179E-4
0.0013834039
0.0012050718
2.7020986E-4
0.0021584553
0.0035102214
0.002644473
0.0015103576
0.0025432068
0.0027327454
-7.550154E-4
-0.002708366
-0.002817349
-0.0023948401
6.639276E-5
0.0011414068
8.672498E-5
-1.827129E-4
0.0010091582
0.0020217018
7.1356184E-4
-0.0011763019
-0.0018680053
-0.0025937827
-0.0022239804
4.576199E-4
0.0019348689
0.0017398001
0.002346519
5.9915683E-4
-0.0013201061
2.146617E-4
-0.00116875
-0.002905433
9.839621E-5
0.0015283596
0.001988427
0.0043601757
0.003963104
6.029906E-4
-0.0020480773
-0.003380753
-0.003772618
-0.0036066475
-0.0037916447
-0.0030670543
-4.575686E-4
0.0022856032
0.0026493506
1.6984875E-4
-5.798847E-4
-6.0199044E-4
-0.002900698
-0.0018906657
-2.8784812E-4
-0.0010062894
9.093149E-4
0.0022625367
0.002740911
0.003803204
0.0022443195
5.6117284E-4
-2.3065515E-4
-7.819035E-4
-1.9429067E-4
9.6814585E-4
0.0020315866
0.0020469024
0.0024960868
0.0022990594
1.2504202E-4
-0.0018839343
-0.0038453364
-0.0023876068
4.8086047E-4
-0.0014232609
-0.002480795
-7.656563E-4
-1.1472792E-4
-8.20901E-4
-0.0022838758
-0.0011772997
7.150298E-4
4.1477478E-4
5.9451256E-4
3.9650823E-4
-6.765653E-4
8.154073E-4
0.0036191174
0.0023305877
-0.0010412725
-0.0012986774
-7.9881074E-4
-5.789235E-4
-6.9956045E-4
-0.0014697019
0.0010054929
0.0037374073
0.0031650602
0.001986533
-6.029777E-4
-0.0029666612
-0.00194424
-8.324661E-4
-5.719505E-4
6.492523E-4
5.0263066E-4
0.0015009951
0.0034099412
-0.0030059211
-0.007532395
-0.0014221834
2.5841484E-5
-0.0011943633
0.0012556068
0.0011973189
0.002588112
0.003449804
0.0023971552
0.0032248993
-4.6137382E-5
-0.0029752713
-0.0017125962
-0.0020249924
-0.0013651319
-6.474472E-5
6.5489626E-4
0.002544946
0.0024628409
0.0012078576
7.0451736E-4
-8.1637216E-4
-0.0020665757
-0.0011571773
-0.0011571656
-0.0023544165
-2.946818E-4
9.4106747E-4
1.5173708E-4
0.002177502
2.642875E-4
-0.004264093
-0.0029913692
-0.0018833681
-0.0018725337
3.424867E-4
0.0010854853
0.0010883107
0.0018257224
0.0027117424
0.0027118807
7.1434694E-4
-6.9748773E-4
-6.892696E-4
1.1914903E-4
0.0010268443
8.4186037E-4
0.001668846
0.0028726275
0.0024960442
9.4018044E-4
-0.0012839689
-0.0012761995
-4.8697533E-4
-4.8769775E-4
9.182939E-4
4.505276E-4
-5.517378E-4
5.468828E-4
-2.9228162E-4
-0.001947435
-0.0037754036
-0.0055145924
-0.0046646004
-0.002725572
6.653683E-4
0.0024550792
0.0014570995
0.0031928218
0.0035705655
7.146279E-5
-0.0019151659
-0.0015204997
-3.2531476E-4
-3.216603E-4
-1.7924081E-4
0.0014083493
0.0027746768
0.0036171584
0.0015190543
-0.0012568958
-0.0011668399
-0.0015154879
-0.001952614
-0.0011682449
6.815219E-4
0.0018497303
4.7793754E-4
0.0025733027
0.0047714105
6.081245E-4
-0.0010916344
-7.370205E-4
-0.004152766
-0.00511528
-0.0021890919
4.7109803E-5
0.0016517852
0.0034714334
0.0027532137
5.566554E-4
7.855304E-4
1.41278E-4
-0.0012734575
-4.910771E-4
-7.370409E-4
-8.6964184E-4
-4.0718337E-4
-0.0013084434
-6.823431E-4
1.6019431E-4
-6.977506E-4
-0.0011278206
-6.8959425E-4
-3.3547234E-4
-8.5807196E-4
3.1716234E-4
0.0030417591
0.0031076137
0.0018534326
-2.2386093E-4
-0.0033967162
-0.0033993316
-0.0015543011
-0.0014368917
-3.0880127E-4
0.0021382913
0.0023917228
0.0018689763
0.0018343893
5.670804E-4
3.7029354E-4
6.681017E-4
-0.0010670375
-0.0015920489
-7.124121E-4
4.2048132E-4
0.0023463112
0.0025321324
7.6330383E-4
-8.357801E-4
-0.001379582
-0.0017761746
-0.0020433923
-6.4325205E-4
-2.8163104E-4
-8.176996E-4
-1.3878853E-4
0.0010163524