0.0043073446
0.009164046
0.007143207
0.001630406
-0.010713472
-0.020033255
-0.017878324
-0.009090672
2.0034451E-5
0.0034932846
0.0043319613
0.005189954
0.00237666
-0.0013442099
-0.004484657
-0.0069633923
-0.0053170975
6.972093E-4
0.0072771586
0.009370907
0.009071401
0.009272619
0.0069266306
0.0025654284
-0.003528217
-0.008662078
-0.007413231
-0.0019283284
0.0043480825
0.00844738
0.008711155
0.00629631
0.0015167968
-0.0026293998
-0.0062134936
-0.00965581
-0.008294195
-0.003368658
0.0020147513
0.0054135346
0.0049827048
0.004541221
0.003951691
6.618877E-4
-0.0038817145
-0.009034724
-0.011174265
-0.006283356
4.3505407E-4
0.0034937246
0.006628994
0.0102718435
0.008799446
0.0035328371
-0.0015128131
-0.0049083047
-0.004459889
-0.0014041716
-3.010694E-4
-5.302279E-4
0.0016689097
0.003697994
0.0035149981
0.0014224277
-0.0056732073
-0.0116108125
-0.009219038
-0.0044397833
-6.381058E-4
0.0037853783
0.0069964053
0.007128327
0.0059369174
0.0025787873
-0.004041344
-0.006662931
-0.0048891692
-0.0012295939
0.0013458249
-0.006197236
-0.0067996774
0.0066447183
0.00939225
0.0061067967
0.0031465674
-0.004284846
-0.0047856756
-0.0015695369
0.0035923366
0.010058888
0.009470726
0.009317419
0.0017107517
-0.010558046
-0.0050343415
-0.0015668923
-0.0070521394
-7.6012657E-4
9.928441E-4
-0.005281142
0.0018612657
0.008996961
0.0030759764
-0.0021623925
-0.0063285204
-0.010377141
-0.0059814495
-0.0015444803
-6.86093E-4
0.0037936214
0.0063899313
0.005117009
0.002361668
-0.003641102
-0.00743499
-0.0076633063
-0.007933463
-0.0039260425
0.0023866477
0.004117584
0.0057689003
0.008729463
0.00748306
0.005101976
0.0028279831
-0.0031261856
-0.0076610046
-0.0050216317
9.616904E-4
0.006126373
0.011184048
0.013092432
0.0096324
0.00454502
-0.0021232828
-0.0072659613
-0.0077688578
-0.007115114
-0.00291927
0.0014324506
8.014823E-4
0.0015958891
0.0019127193
-0.0025682994
-0.009663644
-0.016248707
-0.015742317
-0.009272264
-0.0017190528
0.004733922
0.0060308003
0.0050028744
0.004060278
0.0014511117
-0.0021636526
-0.0062803044
-0.0057256166
-7.174235E-4
0.0017803309
0.002971207
0.0043604593
0.0067589064
0.009926559
0.009646993
0.008275554
0.005481833
1.4788912E-4
3.2464706E-4
0.0052029174
0.008715906
0.010417731
0.008456848
0.0032646386
-0.0036439023
-0.010495737
-0.013586039
-0.013493851
-0.0103418175
-0.005167969
-0.0025213154
-0.0015102442
-6.8238616E-4
-1.1892709E-4
8.853663E-6
-0.004678573
-0.011741101
-0.012340353
-0.0065827337
-4.5671113E-4
0.0036196667
0.006668535
0.008209861
0.007457669
0.005371158
0.0017051302
-0.0017259611
-0.001290371
0.0026307558
0.006382213
0.008438925
0.01001008
0.009316471
0.0070868786
0.0050197626
-0.0027439673
-0.011884216
-0.0110047385
-0.0042393142
0.001464112
0.004988373
0.004853992
0.003325282
0.0026611804
-1.5630621E-4
-0.005924613
-0.01024242
-0.010664618
-0.0068619153
-0.0012968823
3.8644456E-4
7.9626805E-4
0.0021973664
7.775491E-4
-2.9711227E-4
-0.0032437332
-0.010239569
-0.0101834
-0.003212113
0.003218467
0.008663993
0.010598397
0.009290965
0.0064826757
0.0014902313
-0.0030866351
-0.004018498
-0.0012328548
0.0019296331
0.004488032
0.0060768924
0.0048963465
0.0043377033
0.0030718744
-0.001517763
-0.005723904
-0.011134678
-0.012978282
-0.005656854
3.9800972E-4
0.0032779684
0.008207312
0.009729193
0.006209961
0.0012008345
-0.0051190485
-0.011379172
-0.012703867
-0.0066775335
0.001157511
0.0046742084
0.0046904106
0.0048174625
0.006328288
0.007297234
0.005091657
2.912484E-4
-0.002099353
9.586762E-4
0.005371822
0.0054850862
0.002905701
0.003469227
0.0040644365
-8.1458944E-4
-0.00714499
-0.011665553
-0.013076599
-0.009776493
-0.006225421
-0.0050692945
-0.0033135726
4.6302777E-4
0.002908869
0.0012101097
-0.0020532624
-0.005841148
-0.0071988287
-0.0019602915
0.0029963865
0.0029124601
0.003220792
0.006060582
0.008585065
0.008527231
0.0051621143
-3.9153988E-4
-0.0038848598
-0.0034095575
-4.2965382E-4
0.0058247717
0.0129429335
0.016292656
0.013028466
0.0050894944
-0.0015254486
-0.008168082
-0.012267226
-0.010206496
-0.008850885
-0.007988818
-0.006808344
-0.0016881584
0.009846306
0.013039742
0.009980451
0.009027392
0.0063147456
0.004038671
-0.0033257653
-0.01157587
-0.014385607
-0.019778382
-0.017057821
-0.0067736753
-8.7105157E-4
0.0060601807
0.008082317
0.004570541
0.0046747443
0.0049727587
0.0056509534
0.008594004
0.0059316573
-0.007846399
-0.018258546
-0.015833843
-0.009586756
2.2395916E-4
0.00617978
0.006773786
0.013925839
0.01761676
0.014633045
0.0080378605
-0.0020155217
-0.007234446
-0.016034538
-0.021428164
-0.0077837724
0.010805241
0.020733207
0.01698318
0.01036189
0.0030457173
-0.013905835
-0.018815758
-0.013030277
-0.010737225
-0.0045016916
-0.0018126977
0.005132506
0.015578431
0.013033357
0.010211541
0.0030329681
-0.009332379
-0.010360451
-0.007305532
-0.00852794
-0.021182267
-0.027811958
-0.0034218875
0.025001986
0.03488429
0.031373277
0.023220332
0.019666819
0.0090753855
-0.008039841
-0.015389561
-0.01545999
-0.011389032
-0.00615832
-0.0010013459
0.001663325
-0.0074940044
-0.010702917
7.559261E-4
-3.1042405E-4
-0.0061205914
0.001289961
-7.1539654E-4
-0.0089023495
-0.004656768
-0.0072349575
-0.01648759
-0.014294416
-0.012482826
-0.015464956
-0.011594943
-3.308557E-4
0.0128952395
0.021573694
0.02082019
0.013950694
0.013822969
0.019944755
0.01761537
0.014597586
0.019955745
0.02324903
0.017748777
-0.0014251956
-0.023462785
-0.028161021
-0.022791285
-0.017119754
-0.010290841
-0.010353583
-0.01325896
-0.0067099766
6.586154E-4
0.003206578
0.011022145
0.015981141
0.001903784
-0.022271948
-0.03295022
-0.018319307
0.0027926103
0.010665703
0.019508967
0.033459295
0.035934936
0.027820865
0.011150954
-0.009571691
-0.013359798
-0.0030123782
-4.4038353E-4
2.5882703E-4
0.007251833
0.0027509856
-0.014809913
-0.022827873
-0.016665608
-0.012544581
-0.014649421
-0.012226622
-0.009850593
-0.012424712
-0.006826836
0.003565828
0.009495162
0.0118435845
0.0031595586
-0.0076395534
-0.0027521076
0.008914445
0.014270049
0.012667201
0.009152895
0.009913523
0.014059892
0.015399636
0.009851268
-4.008189E-4
-0.0071415775
-0.00477093
-0.0014386133
-0.0031408998
-3.0766512E-4
0.0046624965
0.0023509439
-0.0016768561
-0.0025202706
-0.0035144198
-0.010612046
-0.014186768
-0.0053697154
-0.0036787372
-0.0077597103
-5.6872563E-4
0.0056866487
0.0037728604
-0.0023612818
-0.009074741
-0.0090014655
-0.0050649066
0.0010505542
0.010466975
0.019590316
0.026739884
0.02553114
0.012970114
-0.0055479915
-0.022085415
-0.024967944
-0.01442627
-0.0055217627
-0.004304855
-0.0018392883
0.0040873885
0.0050584613
4.2328198E-4
-0.006142971
-0.0113748545
-0.010605259
-0.0040047555
0.0058035306
0.013106832
0.011681594
0.005519088
0.002253684
-0.0017214199
-0.010698277
-0.012070101
2.2458588E-4
0.014758958
0.022369925
0.015909154
0.004460308
0.0059007984
0.0112563325
0.0063544586
-0.0044905054
-0.0117426645
-0.01423691
-0.01774805
-0.01873355
-0.014074314
-0.008651062
-0.0018577222
0.005012566
0.010807437
0.016323019
0.012109979
-0.0018994968
-0.009108208
-0.006024285
-0.002554844
-7.662444E-4
0.0013500507
0.002069498
0.0017169175
0.0021884725
9.084956E-4
-0.0033442725
-0.0038343852
0.005805158
0.02019342
0.0213185
0.00532799
-0.0040450483
-0.0023828435
-0.008904868
-0.020039473
-0.022371717
-0.01481623
-0.0043853554
0.0019757207
0.005963089
0.0072912397
0.008599636
0.010959871
0.0025084005
-0.011000286
-0.012105914
-0.0011083034
0.009990271
0.012597939
0.010968925
0.008500976
0.0051520336
6.797845E-4
-0.008518856
-0.014147434
-0.012379803
-0.006458157
0.0046811826
0.009934993
0.009923871
0.008611399
-0.001749226
-0.007981494
-0.0078309635
-0.010833888
-0.0065255873
0.002302294
0.0064668474
0.009339517
0.0117441155
0.010874991
0.0040816227
-0.0033626773
-0.007858395
-0.01280562
-0.015057433
-0.010746131
-0.0019585397
0.003354295
0.0034598873
0.005675342
0.005379695
0.001128277
4.3143844E-4
-0.0019191832
-0.0058717243
-0.004144641
-4.604105E-4
0.0016623815
0.0036955923
0.006850143
0.0071326788
0.0016932118
-0.0018612614
-0.003059652
-0.006296626
-0.0053992267
0.003762454
0.014406145
0.016381979
0.013875963
0.011125455
-7.2707725E-4
-0.012515597
-0.018082136
-0.022393055
-0.014411767
-0.002702734
0.001243625
0.0054502217
0.0057631745
0.00568841
0.006944804
0.0023308496
-0.0016342567
-0.005205846
-0.0037277208
0.0046741944
0.005930613
0.00622123
0.008260484
0.001214671
-0.0066229
-0.007817664
-0.010111427
-0.011351947
-0.0037440364
0.0020452503
0.006180851
0.012114176
0.0014115022
-0.007181339
0.0041550775
0.005962078
-0.002484325
-0.0067454823
-0.0060070306
0.0030211578
0.01043265
0.009970577
0.0019047667
-0.006768097
-0.004244983
-9.0419466E-4
-0.0028175327
-0.004301555
-0.003235598
0.0020095313
0.0012846169
-0.0027363475
0.004363083
0.013038713
0.009386456
-0.004626596
-0.017183132
-0.019517325
-0.013440195
-0.004519892
9.2492223E-4
0.0035040874
0.008225022
0.0131478915
0.014789444
0.011511863
0.0025668696
-0.0059897886
-0.0051337657
0.001402123
0.0057191406
0.01020411
0.015561395
0.016491883
0.0063130725
-0.010094708
-0.01872127
-0.020548202
-0.01416036
2.3845218E-4
0.0057858406
0.0032684556
-0.002448465
-0.01044487
-0.009550844
-0.008047647
-0.011865389
-0.01162968
-0.010439096
-0.004380289
0.007913514
0.013014625
0.011490452
0.00944037
0.005688883
2.3106215E-4
-0.0040163957
-0.0037902205
-1.9382108E-4
0.004477423
0.009201459
0.012425087
0.0137212435
0.0123434095
0.009679828
0.0055013117
-0.0035729364
-0.009869715
-0.0070209033
-0.0030942764
1.0121527E-4
0.0045242226
0.005890739
0.0056215664
0.005185449
8.3742815E-4
-0.0064405086
-0.011712614
-0.010566607
-0.0035304835
0.0020650916
0.0024848687
0.0018133372
0.0017298243
-7.580371E-4
-0.0067433957
-0.013640133
-0.017076697
-0.016048478
-0.010513026
-0.0012310697
0.0037739435
0.004138117
0.006258856
0.0054244427
-2.2533764E-4
-0.006141325
-0.010418449
-0.009864897
-0.0053455113
-0.0019899774
-9.924818E-4
0.0025805854
0.01015099
0.015141656
0.015255776
0.010742378
0.0068454505
0.01058617
0.015993234
0.021491457
0.024431914
0.019191474
0.018344017
0.02001415
0.012575937
0.0023439091
-0.00899935
-0.01686418
-0.01770437
-0.020221176
-0.021879682
-0.018687084
-0.015640292
-0.01769594
-0.023731584
-0.028234476
-0.03090808
-0.026072927
-0.014091446
-0.006498405
-0.0020282401
-0.0012933535
-0.002455087
-3.0283307E-4
-0.003151748
-0.0040359953
2.582731E-4
0.0015742818
0.012662016
0.02577144
0.024851635
0.024929233
0.029145189
0.02943786
0.025911257
0.019173214
0.016556175
0.016169976
0.010186565
0.0052616624
0.0057638907
0.0065827514
0.003215256
-0.0029490604
-0.0074982056
-0.0124331545
-0.017846499
-0.01839157
-0.014783994
-0.010622695
-0.008339445
-0.008795381
-0.009237373
-0.008551434
-0.0077999365
-0.0077177826
-0.007363703
-0.0021411385
0.0072569815
0.014095445
0.018508265
0.02210644
0.02059738
0.0128581505
0.0025982352
-0.005854987
-0.010645429
-0.015204309
-0.020430896
-0.022760736
-0.022619855
-0.021260343
-0.019312596
-0.019694144
-0.02268874
-0.026582101
-0.028873354
-0.026642624
-0.020051356
-0.010217157
2.4031673E-4
0.009265556
0.017285144
0.025308091
0.0360702
0.042874385
0.04125607
0.044682037
0.050947428
0.04900563
0.04923901
0.05554851
0.05867243
0.05208946
0.03099462
6.6103844E-4
-0.024280911
-0.033712775
-0.035967235
-0.04381901
-0.04904511
-0.050481077
-0.061285123
-0.06991721
-0.060283016
-0.042618558
-0.028481238
-0.018926518
-0.014456101
-0.010016833
-0.0014334031
0.0054890667
0.008348094
0.010366636
0.014363488
0.021348042
0.027346153
0.03172851
0.03518703
0.036840342
0.040693067
0.042334106
0.034142528
0.01984689
0.004112094
-0.009406805
-0.018742228
-0.02353859
-0.023700066
-0.024428893
-0.024390856
-0.019202875
-0.014606334
-0.012487768
-0.010057414
-0.009283161
-0.0101530375
-0.008144178
-5.911859E-4
0.009621316
0.017724982
0.021216486
0.02015546
0.016500805
0.0121202
0.0063449037
-1.0143753E-4
-6.801672E-4
0.0032616425
0.0035584974
0.0034661393
0.0048534903
0.0045992415
0.0044033383
0.0010932046
-0.005193601
-0.008937354
-0.009414237
-0.005129716
-2.2106922E-4
5.02003E-4
0.0011700774
0.001619578
-8.157201E-4
-0.0060582235
-0.012863519
-0.01762059
-0.019027978
-0.015125337
-0.0066035767
-4.402923E-4
0.003287616
0.008054177
0.011216362
0.009773233
0.004264984
-0.0016178809
-0.0031449778
-7.610814E-5
0.0031099415
0.005890119
0.008149693
0.005007264
-0.0014693091
-0.0073011443
-0.012884574
-0.015842643
-0.015670408
-0.009577768
0.0022664235
0.010068174
0.013986643
0.016173823
0.015153003
0.015689788
0.0136746755
0.0061216033
-9.2287944E-4
-0.0042096004
0.0016625589
0.01143926
0.01615842
0.020792952
0.023045227
0.01750709
0.0071323514
-0.00765689
-0.02293033
-0.031732094
-0.033932228
-0.03248419
-0.02831074
-0.022607116
-0.016919522
-0.012142743
-0.013026008
-0.018680422
-0.020344501
-0.01916694
-0.01913375
-0.012710515
0.0051210336
0.023023777
0.033081707
0.041643735
0.048809014
0.05622518
0.066104226
0.0667576
0.056899216
0.03787248
0.006690041
-0.021347236
-0.034108162
-0.03442631
-0.03145453
-0.032600965
-0.031143634
-0.025864035
-0.022250688
-0.01669217
-0.009039083
-0.0058044908
-0.008826947
-0.011816899
-0.016425256
-0.026623696
-0.030749438
-0.024385886
-0.0114573
0.00524662
0.01666681
0.021746298
0.023416933
0.022651188
0.020000536
0.012579719
0.008569498
0.010747904
0.0094943475
0.0073968126
0.007270921
0.00551447
0.0021008083
-9.468675E-4
-0.0047600507
-0.012749389
-0.017260222
-0.012807034
-0.005768364
0.002047866
0.008213848
0.011820011
0.015557101
0.015236291
0.0104717035
0.0052947323
8.982557E-4
-5.3622783E-4
0.002106625
0.0048885974
0.0037335616
6.8852276E-4
-0.0034238244
-0.009407223
-0.0130275125
-0.014254129
-0.015268518
-0.014321425
-0.012600003
-0.010075807
-0.00581137
-0.0031693897
-3.4029328E-4
0.00354582
0.0015967779
-0.0036205235
-0.0057392525
-0.0048186784
6.2708376E-4
0.00673693
0.010859195
0.014536736
0.013207353
0.010020494
0.0071840226
3.2513388E-4
-0.0066688987
-0.0121478215
-0.012544094
-0.005236638
0.0018494942
0.007804957
0.012140478
0.010494697
0.004884281
-3.380601E-4
-0.0015685392
0.0010385799
0.006267287
0.009034434
0.006850629
0.0054881293
0.003518585
0.0028978041
0.004326151
3.758115E-5
-0.006393596
-0.011961853
-0.013595348
-0.0108692795
-0.008648187
-0.0035033943
-0.0074614757
-0.014859546
-0.0048569865
-3.0183119E-5
-0.0045339353
-0.0032772971
-0.0030701302
0.003545396
0.01019386
0.007494189
0.006634041
0.0027937545
-0.0010947892
-3.07806E-4
-0.0025334328
-0.0024187025
0.0023531958
0.010191863
0.016538974
0.015015404
0.013706302
0.013229113
0.0049149054
-0.009540195
-0.019314822
-0.016583454
-0.00841349
-0.001610327
0.0022694252
0.002152084
0.00304211
0.00384734
1.9468252E-4
-0.005148905
-0.00702211
-0.0039536804
-0.0017019883
3.901905E-4
0.004500919
0.0049584988
0.0038565567
0.002511584
-0.002614046
-0.008661028
-0.011624231
-0.009108644
-0.0034247357
0.001529464
0.004829566
0.0066283704
0.008595321
0.0068381242
4.6912694E-4
-0.0040608095
-0.0073736426
-0.007763997
-0.0019474317
0.004237537
0.007498968
0.008299027
0.006238419
0.001909532
-0.0024911207
-0.0053194216
-0.0078462465
-0.007308538
2.8826062E-5
0.008080624
0.00971064
0.0076476587
0.007260188
0.005663331
0.0018625875
4.5498603E-4
-0.0027155133
-0.008485714
-0.008646896
-0.004293607
-5.971653E-4
0.0023401934
0.004043557
0.0021414724
-0.0025638647
-0.0077217463
-0.013954063
-0.015643869
-0.008773746
-0.001592068
0.0030549322
0.0067424816
0.008444292
0.0077661895
0.0018328563
-0.004439554
-0.005835676
-0.00544074
-3.2437578E-4
0.0053229933
0.004066175
0.004857383
0.011241516
0.015656894
0.014021313
0.009239787
0.0076774834
0.0050693327
-0.0010934414
-0.0031596608
-0.0039274525
-0.0058840695
-0.0050976737
-0.0054165693
-0.0080341855
-0.010743947
-0.014141393
-0.014279003
-0.009025475
-0.0031679757
1.2739058E-4
0.0011676467
0.002245837
0.005686822
0.0062041557
-5.854974E-4
-0.006630426
-0.006566343
-0.001377753
0.006594214
0.009735715
0.008843715
0.010236789
0.010885781
0.0065366286
-0.0017056776
-0.005949868
-0.0034721533
-5.3555507E-4
0.001574578
9.284027E-4
-2.4446004E-4
0.0018836568
0.0012296584
-5.3863804E-4
-0.0030540235
-0.009118793
-0.0100438185
-0.0059403735
1.17769654E-4
0.007134608
0.008122815
0.00590522
0.003909945
0.0024640588
0.0019326071
-0.002123757
-0.003612023
-1.045495E-4
0.0018102013
0.0052130516
0.008419372
0.00700539
0.0021978563
-0.004578572
-0.009430895
-0.013497734
-0.016027628
-0.011057205
-0.0025435078
0.0024585049
0.0030237916
0.0019797403
5.036951E-4
-0.0024789483
-0.0048644417
-0.0056969775
-0.0061108368
-0.005592751
-0.0014015433
0.0045646643
0.003247443
-1.0246321E-4
0.0041798805
0.007642692
0.005948522
0.0034142428
0.0043857335
0.0126254475
0.019603368
0.018274618
0.012847648
0.008234888
0.007168042
0.004147265
-0.0024672246
-0.007719772
-0.014418144
-0.017811991
-0.011636287
-0.0051902314
-0.002964171
-0.0015635346
-0.0018823363
-0.005005599
-0.008256729
-0.008470729
-0.008517352
-0.009224738
-0.0056941477
-8.9780573E-4
0.0010163209
0.0028943801
0.0045474037
0.0037732855
0.0020592227
3.010916E-4
-0.0021562232
-0.0017434333
0.0034369836
0.0073965467
0.0078068688
0.0070915725
0.0060616345
0.004357841
-1.779046E-4
-0.0045782835
-0.005978447
-0.0065017035
-0.002576115
0.004291722
0.008078039
0.010043029
0.009326284
0.0069450876
0.0034281027
-0.004220035
-0.008485335
-0.005743246
-0.0023628063
8.163839E-4
0.0039518476
0.00536057
0.0046650725
0.0025070673
-0.0026345048
-0.012155853
-0.017005237
-0.012941169
-0.0073688915
0.0015820918
0.012824396
0.014026593
0.0086000925
0.006790735
0.0023572189
-0.007258551
-0.012042128
-0.00884204
-0.0019333778
0.0029975064
0.004139842
0.0046812072
0.004392623
0.0037051006
-1.5673602E-4
-0.009699286
-0.012855915
-0.007484441
-0.0032598695
0.0014054113
0.005572825
0.0063792462
0.005923193
0.0026649355
-0.0025380063
-0.007298386
-0.009474529
-0.0061781066
-4.4680794E-4
0.0036369956
0.005297011
0.0058008498
0.006952087
0.0076871826
0.0056663747
-2.5360318E-4
-0.0057929107
-0.00452475
0.0016081164
0.006343625
0.008138542
0.009045453
0.0087392
0.0062261564
0.0020744773
-0.0067096446
-0.01753097
-0.018853638
-0.010615216
-0.0029010046
0.001552634
0.0048524234
0.006891134
0.005217302
-6.4549583E-4
-0.0056502568
-0.0059659597
-0.0025302737
0.001727178
0.0037531008
0.0051504266
0.0075703766
0.008490961
0.0068238284
0.0013583108
-0.007206672
-0.013498147
-0.0118716005
-0.0034674744
0.0011897475
0.0029108627
0.0077512125
0.0066801435
3.2294905E-4
-0.004655981
-0.009699931
-0.010887819
-0.0089393025
-0.004227445
0.0039447914
0.007991356
0.009709754
0.010425775
0.008851843
0.007119512
-3.1147787E-4
-0.007194319
-0.00564225
-0.0022514109
7.962111E-5
-0.0014792792
-0.0037696173
-0.0022709235
-0.0026063072
-0.0057608807
-0.010929105
-0.012497854
-0.006285578
0.0017221125
0.012205832
0.02201558
0.02596944
0.024921628
0.017469523
0.009741162
9.409331E-4
-0.010579209
-0.011811882
-0.007018178
-0.0044203354
0.0015147437
0.008445344
0.012923905
0.011311223
2.7603062E-4
-0.011762889
-0.018852798
-0.020830918
-0.017443355
-0.014188472
-0.013467099
-0.011021112
-0.007741082
-0.0071300752
-0.009746953
-0.014717627
-0.018032245
-0.013281968
4.267762E-4
0.011769168
0.012744077
0.012421267
0.016227933
0.018965317
0.020099316
0.021680351
0.022834413
0.018029476
0.005163415
-0.0046317587
-0.005758564
-0.0065640938
-0.008687772
-0.0062172823
1.06955275E-4
0.0068491036
0.014174049
0.02112135
0.021743901
0.009492079
-0.0024483437
0.0040438543
0.0065643713
-0.0102127865
-0.016415184
-0.012123387
-0.018260784
-0.023217143
-0.023581142
-0.023397118
-0.016457519
-0.0076401695
0.0028656165
0.009864885
0.0015060045
-0.007232268
-0.010688067
-0.017728413
-0.01851606
-0.011674427
2.0113926E-5
0.013495221
0.01622169
0.017556421
0.01642911
-0.0048962547
-0.02072792
-0.0058467095
0.019285789
0.03694352
0.048772674
0.054133657
0.051079858
0.036843054
0.012403416
-0.004723224
-0.016986443
-0.040750496
-0.050683223
-0.035216738
-0.021071492
-0.018435223
-0.029132629
-0.033813067
-0.010269774
0.015693096
0.023532564
0.01777152
-0.003449539
-0.029453726
-0.03694063
-0.02371877
-0.012815772
-0.009614283
7.908065E-4
0.012140335
0.014252306
0.0147995
0.022559704
0.03923404
0.05232326
0.047750197
0.036995996
0.033325404
0.023702262
1.1271252E-4
-0.02560868
-0.04045579
-0.036136705
-0.017344935
0.004767658
0.020160992
0.01634939
-0.004239308
-0.024206143
-0.03384719
-0.0348722
-0.025052654
-0.0077426666
-0.0037493568
-0.010397274
-0.009301896
-0.0057285987
-0.0025145207
5.81606E-4
-0.0022648175
-0.007840137
-0.00924869
-0.0010892949
0.00982102
0.013234845
0.010603988
0.009562213
0.015007742
0.01452198
0.008090065
0.0075648595
0.0034515036
-7.6363125E-5
0.0037541837
0.008096963
0.01853726
0.025249427
0.013734599
-0.004601257
-0.014797903
-0.015937211
-0.013199071
-0.003345012
0.010460466
0.022214917
0.027894692
0.02191432
0.018915392
0.0075128716
-0.024065366
-0.03186047
-0.023257576
-0.031978823
-0.032333586
-0.01937323
-0.009966567
-0.0028228671
0.0028077895
0.0037772872
-0.0061323126
-0.01598647
-0.013415961
-0.0062823617
0.0018097914
0.010906703
0.020583073
0.024931412
0.01672081
0.009103447
0.010147006
0.00926507
0.004105177
-6.079862E-4
-0.005304868
-0.008796692
-0.008084115
-0.0045130798
0.0025906074
0.00872866
0.007817791
0.005788101
0.0019701086
-0.002521751
-1.1119453E-4
0.0015621717
3.2288906E-5
-0.0011170526
-0.0036310614
-0.002635457
-2.8102298E-4
-0.00277536
-0.0054370444
-0.0021760522
0.005326418
0.007189021
0.0043555843
0.0060592103
0.006489029
7.004015E-4
-0.006675612
-0.013011337
-0.013268155
-0.007018308
-0.0012148577
0.0025218013
0.0031117257
0.0012500746
0.0017020303
2.0786503E-4
-0.004814012
-0.0065203966
-0.0038998323
0.0018679929
0.0045893355
9.5822715E-4
0.0014856842
0.006335583
0.0064083943
0.0031950395
-9.79735E-4
-0.008088827
-0.014329639
-0.011132119
-0.001165293
0.005288488
0.0072780894
0.0076069497
0.008145352
0.0075815856
0.0030343183
-0.0018706864
-0.00513236
-0.003602797
0.0029890619
0.0025409143
-0.0031511802
-0.0010231881
0.0062939078
0.008069515
0.0025925084
-8.6695136E-4
-3.8500718E-4
-7.5334846E-4
0.0012073043
0.0056627663
0.0070535997
9.731052E-4
-0.0074677207
-0.008925508
-0.01051807
-0.015428726
-0.014891985
-0.010332971
-0.003799192
0.0013730217
0.0032322127
0.009659821
0.014436555
0.010674016
0.0045448733
-0.007834056
-0.018208757
-0.010826344
-2.518105E-4
0.005298864
0.012469462
0.013595351
0.010869086
0.0070405807
-0.0030528486
-0.0091259
-0.008397881
-2.7070217E-5
0.017431652
0.023170784
0.015715504
0.008629428
-9.783363E-4
-0.009250942
-0.01593356
-0.020415232
-0.014262238
-0.008026535
-0.0058459803
-3.7761749E-4
0.002262298
0.002259554
0.004105671
0.004666162
0.0036847764
7.7512616E-4
-0.0050443728
-0.009816701
-0.009182583
-0.0047987713
-1.8164438E-4
0.0036513875
0.0049516787
0.0045325607
0.001773201
-0.0046601575
-0.0057598487
3.7203374E-4
0.004627425
0.0076628844
0.010822215
0.010473767
0.0067026657
0.001867874
-0.0013286502
-0.0047932197
-0.008573665
-0.006712544
3.9768682E-4
0.007426845
0.008286954
0.0029240162
2.689648E-4
-3.901975E-4
-0.005137762
-0.01019933
-0.01022725
-0.004944845
0.0017802586
0.007068685
0.009061025
0.006532246
0.0038087387
0.00115687
-0.0027510007
-0.0037930433
-0.0077038156
-0.016988685
-0.015758557
-0.0027786945
0.0044754525
0.0059801443
0.008852498
0.007337563
0.0016263456
-0.002941289
-0.0038124204
8.4564975E-4
0.0042471928
0.0061009605
0.009485869
0.005069627
-0.0023858466
-0.002376092
-0.002141507
-0.006357793
-0.008588884
-0.003148082
0.0026947067
0.0037642515
0.006749847
0.0053525385
-0.0017208968
-0.001129285
0.0015016327
-0.0045647086
-0.012128683
-0.0098005105
-0.0016124103
0.0014603358
0.0044876286
0.008795954
0.006231261
0.0022090261
-3.957966E-5
-0.004091809
-0.007125518
-0.0070223864
-0.00426758
-9.813714E-4
0.0014109376
0.004773833
0.0073506916
0.005212015
-2.3412929E-4
-0.0060088965
-0.010624342
-0.008901313
-0.0013957631
0.0023987268
0.0036623797
0.0070258155
0.0075758174
0.0048901355
0.0024580264
-4.954781E-4
-0.0031131697
-0.0018316907
0.0025869966
0.0061111944
0.008571535
0.01005156
0.009934747
0.0092202835
0.0048139733
-0.0039603272
-0.010279202
-0.011032846
-0.008132623
-0.0037266805
-4.0720118E-4
0.0011071146
0.0011820054
-4.4548712E-4
-0.003307524
-0.007072843
-0.00909876
-0.005911925
5.0937495E-4
0.0068245926
0.011160463
0.013316741
0.013755659
0.010541685
0.0048788013
-0.0030155743
-0.011227843
-0.010517333
-0.0036757165
0.0026067996
0.0074434555
0.0066496492
0.0049366714
0.002325863
-0.0067984783
-0.015289549
-0.022559293
-0.027343208
-0.024440072
-0.018716445
-0.010390696
-0.003735611
-0.0033725363
-0.001672206
0.0017341458
0.0047941143
0.008277407
0.011101788
0.016277699
0.024384605
0.030146169
0.028952425
0.02529195
0.022110729
0.012844673
8.7615696E-4
-0.009605072
-0.01734177
-0.013926427
-0.0049017793
2.124796E-4
7.6964253E-4
-0.0051495954
-0.009817091
-0.01008112
-0.013906959
-0.015532561
-0.011257881
-0.0078716045
-0.0017249831
0.0080753565
0.013242143
0.01422866
0.011470043
0.0033477808
-0.0020267589
-0.0014675611
2.4846953E-4
0.003753344
0.009222503
0.010314604
0.0033117533
-0.004383042
-0.006147939
-0.0071487785
-0.0129587175
-0.022430424
-0.02939332
-0.02741072
-0.01755618
-0.0069277263
-5.2737317E-4
0.003679769
0.0063059446
0.004762657
0.003079663
0.0018256889
-7.9244754E-4
0.0030273783
0.0127431555
0.017906485
0.018754696
0.019532159
0.018874979
0.01541868
0.008439583
3.7977542E-4
-0.0032911936
-0.0024301275
8.0792035E-4
0.003985045
0.0030481764
3.7761923E-4
-4.307804E-4
-0.0028452342
-0.009722833
-0.016107261
-0.01493613
-0.008491389
-0.0017773048
0.0039059652
0.00649999
0.008910121
0.011676699
0.008741918
0.0013250822
-0.005775991
-0.009370521
-0.007173098
-0.0021656533
1.771044E-4
-0.001359907
-0.0024466454
-0.0027313877
-0.0061554527
-0.011359955