0.008500357
0.007347608
0.0042149494
-0.0015852789
-0.0049626017
-0.0045236223
-0.0056402376
-0.0058231517
-0.002888567
0.0015123937
0.0048636887
0.0024533917
-0.0025299685
-0.0060728807
-0.009369712
-0.010632171
-0.010381847
-0.009997127
-0.008768648
-0.0063318945
-0.0011343457
0.0011576784
-0.003983795
-0.0069183563
-0.0045008943
-0.0043481
-0.0044727228
-0.002380644
-6.219863E-4
0.0052884165
0.013622186
0.016109426
0.013360988
0.0068060504
2.9549567E-4
7.4466234E-6
0.0025948428
0.0042159865
0.006668154
0.010049379
0.011230222
0.010243637
0.008206205
0.0028575652
-0.0023183892
-0.005533202
-0.009667952
-0.0116564175
-0.011540154
-0.008482323
-0.003161853
-0.0032240734
-0.0052584913
-0.0052615777
-0.006290953
-0.0080912
-0.007824608
-0.0028732212
0.0017073343
0.0055864854
0.010909725
0.011397935
0.009858977
0.0070626745
0.0028146463
0.0022838705
5.186253E-4
3.5809603E-4
0.004830536
0.0089798225
0.0130702555
0.011776593
0.005495238
2.360267E-4
-9.407725E-4
-0.0043360447
-0.021683611
-0.027264755
-0.008716017
3.8897185E-4
-8.466503E-5
0.0023745715
7.728717E-4
-0.0022281443
-0.003993655
-0.003746929
-0.003208449
-0.0032615042
-9.1430626E-4
0.0023786344
0.007917288
0.009867362
0.0059998245
0.003951997
3.6987642E-4
-0.002369358
-0.0020238496
-0.0034285649
-0.0019803052
0.0014502896
0.0041719293
0.006286384
0.0045833313
0.0020092726
6.378115E-4
-3.459086E-4
-0.0011695459
-0.0014988204
5.597097E-4
0.003351308
0.00670378
0.0088750115
0.006578229
0.0039102295
0.002122499
2.8849475E-4
-2.2382743E-4
-2.7590117E-4
0.001028662
0.004061282
0.0067282342
0.0066071833
0.002940132
-0.0010545137
-0.0042000203
-0.0070266286
-0.008081911
-0.008925436
-0.009418602
-0.0061067836
-0.0024823232
-0.0028449406
-0.004698909
-0.00627412
-0.0075551183
-0.008998412
-0.01035061
-0.008128047
-0.003271836
4.5119133E-4
0.005182182
0.009935481
0.008266342
0.0029447025
6.054264E-4
4.2793163E-5
9.316196E-4
0.0012164125
1.363475E-4
0.0043118717
0.009035328
0.008843529
0.00679346
0.001829818
-0.001341349
-0.0014897387
-0.0026571162
-0.0014577707
5.0214125E-4
0.0020606776
0.004630653
0.0057839355
0.0055818562
0.004206814
0.002297822
-7.845E-6
-0.0017464015
-0.0017166369
1.7812803E-4
0.004220155
0.0047180178
0.004762481
0.0048652757
-5.227653E-4
-0.0015998391
-0.0053547784
-0.0076148156
-2.2616543E-5
-0.013847508
-0.022925373
-2.5504592E-4
0.005773953
-2.7112237E-5
0.001799169
-0.0045029973
-0.0075669503
-0.006853811
-0.006812247
-0.003255757
-0.001425213
0.002246735
0.004177642
0.0033281527
0.0043054326
0.0016559053
-2.8288732E-5
7.1540725E-4
5.5226835E-4
0.0029222036
0.006828263
0.011211262
0.013550172
0.011774174
0.007627601
0.0038409282
0.0025258176
1.4994995E-4
-0.0015283356
1.7549671E-4
0.0024119732
0.0054051816
0.0066617075
0.005798722
0.0027126805
-0.003141359
-0.0060611097
-0.008137181
-0.008798934
-0.0035099504
2.2304977E-5
4.1525267E-4
0.0028019976
0.004121877
0.0014437346
-0.002372213
-0.004701292
-0.0052596848
-0.0033194062
-0.0018505404
-3.120073E-4
0.004540953
0.0066621853
0.005219266
0.0021257414
-0.0034461415
-0.0052823583
-0.0042336686
-0.0038413631
-0.0020499316
9.052819E-4
0.005387942
0.006823792
0.0034083251
0.0011253209
3.5201278E-4
-4.6560031E-4
-0.0016890218
-0.0013808428
9.125838E-4
0.0019416326
0.0055247573
0.009453573
0.007117078
0.003459964
5.6935885E-5
-0.0035189672
-0.004645779
-0.0044294875
-0.0022687889
9.577892E-4
0.0032147455
0.0051096063
0.0047283564
8.328648E-4
-0.002937735
-0.0032429367
-0.002987353
-0.0036964936
-0.002867433
-6.791167E-4
0.0042516715
0.007656777
0.0030986846
-0.0026131705
-0.005475783
-0.007491344
-0.0072092796
-0.0057857786
-0.0035849845
-0.0010108693
0.0013457056
0.004341271
0.0045656716
0.0022253795
9.0881204E-4
5.4501975E-4
6.323375E-5
-0.0015031958
-2.763783E-4
0.0045625498
0.007904146
0.0103670005
0.009368947
0.00360136
5.631272E-4
-0.001202506
-0.0033665802
-0.0014913023
4.8084464E-4
0.0018107943
0.006051244
0.008631504
0.006885296
0.0034847956
2.342618E-4
-0.0022954696
-0.0058518224
-0.0099484185
-0.009084336
-0.0034506493
-5.9361704E-5
8.369141E-4
0.002086019
0.0016549828
5.542815E-4
-3.6138506E-4
-0.0026752518
-0.0030793622
-0.00137352
8.329528E-4
0.0060991296
0.0097963875
0.0069667613
0.0032691013
0.0013709326
-0.0011586344
-0.003101114
-0.0045503117
-0.0056544584
-0.0028438054
0.0027198351
0.005240428
0.0018065991
-0.0023129857
-0.001427111
-0.0012848967
-0.003579916
-0.0027867535
-0.0010969744
0.0015692507
0.0071909674
0.0110134
0.010201678
0.006593001
0.0038404805
0.0029212139
0.0021622009
0.0011335604
3.6785405E-4
0.0019071669
0.0059777317
0.008816097
0.006645082
0.002438544
1.2624823E-4
-0.0033523636
-0.0049489397
-0.004257658
-0.0066152927
-0.0052450453
-0.0021004693
-0.0026278354
-7.5106975E-4
-0.0010733102
-0.004004315
-0.0034559965
-0.0037464339
-0.0044240244
-0.0037344827
-0.002658669
8.311046E-4
0.004256658
0.0041176165
0.001591759
-0.002744449
-0.007422131
-0.006966756
-0.0053589656
-0.005621281
-0.0016506626
-3.2559357E-4
0.0011028117
0.0028811842
-0.010613241
-0.013272888
0.003413084
0.0048494632
0.002887989
0.008456083
0.00761879
0.0077697565
0.007374854
0.0055402024
0.0071475147
0.0031145627
-0.0039456356
-0.00597848
-0.0038378919
-4.2890132E-4
0.0013520711
0.0031846804
0.0058414056
0.006373023
0.003107127
4.741815E-5
2.9438362E-4
-0.0011894747
-0.0051219435
-0.0076986034
-0.005995357
-6.467992E-5
0.0026602354
8.448163E-4
-0.0017639011
-0.0041580363
-0.00500082
-0.0060055363
-0.0055545405
-0.003636505
-0.0030151075
3.3035575E-4
0.002597321
4.6800516E-4
-0.0014654539
-0.005317487
-0.008030907
-0.0073423684
-0.008216022
-0.0074431715
-0.0043291515
-3.823805E-4
0.0047045425
0.0054455153
0.0021720363
-0.0019055164
-0.006541325
-0.008742683
-0.0081063565
-0.0040026866
0.0027511613
0.0062604942
0.006619729
0.0067986287
0.005609936
0.0029013364
0.0013364442
5.183002E-4
-0.001973614
-0.0018453388
0.0027183662
0.006117329
0.0075504556
0.00749422
0.005683776
0.002895544
-9.3247094E-5
1.1543863E-4
0.0011525558
5.293746E-4
0.0023876699
0.0049736644
0.005973301
0.0052500973
0.001186536
-0.001997837
-0.0023964993
-0.0036502515
-0.004836795
-0.004179533
-0.0034434188
-0.0019511668
0.001302129
4.6890957E-4
-0.0051979
-0.00815205
-0.009010326
-0.010829961
-0.01205794
-0.011455054
-0.0068011433
-4.3873495E-4
0.0029622652
0.003544236
0.0020587556
8.241337E-4
7.425629E-4
5.828176E-4
0.0016914435
0.0025581573
0.0037300915
0.008843918
0.013906734
0.0146673275
0.012397703
0.009716599
0.008027844
0.0064994683
0.0062346063
0.006734812
0.0070184176
0.008879512
0.009052635
0.0062658517
0.0022562512
-0.0025118382
-0.003998971
-0.0053161425
-0.008204491
-0.008029079
-0.009115455
-0.008889965
-0.004163133
-0.002666802
-0.0027520412
-0.003852357
-0.007350583
-0.007559983
-0.005968611
-0.004447496
-0.0034602804
-0.0029600745
0.0028069534
0.0092671765
0.007860032
0.0025394752
-0.0010377815
-0.003395648
-0.0056969924
-0.0061943745
-0.005167774
-0.0036460245
-0.001063354
3.5576428E-5
-0.0014133403
-0.0038705112
-0.0059792744
-0.0057334686
-0.0035608201
-7.5071526E-4
4.2402575E-5
4.297412E-4
0.0041517527
0.00665585
0.007547056
0.007372667
0.0042758645
0.003879369
0.0068498193
0.01007273
0.012545082
0.01523644
0.019530788
0.017739773
0.010059618
0.0024962474
-0.0052253245
-0.007378902
-0.0071298964
-0.01024722
-0.0113861915
-0.010431939
-0.0080026
-0.006868942
-0.008455789
-0.008928878
-0.010233308
-0.009777118
-0.008391268
-0.010404714
-0.010707
-0.0096663935
-0.00784662
-0.004531143
-0.0035304234
-0.0045922855
-0.0071117748
-0.009006511
-0.009266007
-0.008648672
-0.005622812
0.0016734279
0.01052474
0.009719427
0.005880932
0.005533936
8.758381E-4
0.002939838
-0.0034411114
-0.016242104
0.0030408073
0.0065669287
-0.014141282
0.0065230248
0.024066178
0.0134049095
0.016271396
0.013247582
0.008692382
0.011374198
-0.003928251
-0.008204696
0.0070170383
0.0056430004
-0.0023295702
-0.0017579786
-0.002032896
-0.0017058111
-0.0019599365
-0.006221983
-0.007662817
-0.007318857
-0.0072256327
-0.004500823
-0.0045212163
-0.007541464
-0.009748137
-0.012942238
-0.014526655
-0.014173408
-0.013313939
-0.010027351
-0.0071891323
-0.0065638
-0.008417803
-0.0104954345
-0.005010219
0.0024327447
0.0028706144
0.00474237
0.011271422
0.015580943
0.01709607
0.015938565
0.014090867
0.013314554
0.010355953
0.008806716
0.009683535
0.007877576
0.006042113
0.005185638
0.004674573
0.004769626
3.3228623E-4
-0.0073350035
-0.013310154
-0.017914915
-0.02148824
-0.025282057
-0.02798298
-0.02688305
-0.024281131
-0.022006342
-0.019298648
-0.015758445
-0.011537838
-0.005923953
1.1004816E-4
0.004923848
0.010638553
0.017807625
0.023635022
0.027006937
0.028423764
0.028346853
0.027073128
0.025328476
0.02293082
0.018630166
0.01362509
0.010287033
0.008718565
0.0069372714
0.0043061418
0.0012098518
-0.0028277107
-0.0061810715
-0.00882875
-0.0117664365
-0.012500677
-0.012450493
-0.013431313
-0.0139151765
-0.01517353
-0.016329616
-0.014652564
-0.012086774
-0.012569385
-0.013371408
-0.009640863
-0.0075714304
-0.009775578
-0.009975201
-0.008519954
-0.0063007735
-0.0059965304
-0.009217962
-0.0086497655
-0.0065891566
-0.0075094104
-0.005271016
-2.7427278E-4
0.0032488254
0.0071641216
0.013201958
0.018011754
0.020147022
0.024501862
0.02930652
0.030430645
0.03139842
0.031011678
0.028120674
0.026365306
0.02225061
0.015423911
0.010234352
0.0037774781
-0.0022589173
-0.004377166
-0.0077850786
-0.011854797
-0.012593234
-0.0123671265
-0.014078404
-0.018919094
-0.021768114
-0.02016685
-0.021916535
-0.026406417
-0.025164004
-0.017867403
-0.012426454
-0.011942403
-0.008531626
-0.0028965138
-0.0016396233
6.145317E-4
0.0050548622
0.006837258
0.007773443
0.008644091
0.009424541
0.011872594
0.014133486
0.012867969
0.00856022
0.0054774703
0.004279464
0.0014087633
2.6039708E-5
0.0047817826
0.0074777477
0.0028515477
0.0011510566
0.0032762093
5.619896E-4
-0.0030225618
-0.0036380207
-0.005248401
-0.0059016747
-0.002884917
-4.4576384E-4
-5.5863743E-4
4.2336262E-4
0.0017015298
9.931612E-4
7.3119445E-4
-8.3367014E-4
-0.0026836856
-7.5409346E-4
-0.00162585
-0.004414253
-0.002662826
-0.002416764
-0.0024342106
3.8562974E-4
-3.1713076E-4
-0.0012077146
3.8197773E-4
4.9596165E-5
-3.2009179E-4
6.571902E-4
5.1314785E-4
-0.0024179409
-0.0045849252
-0.0036224055
-0.0042978334
-0.0038180607
-0.0020954432
-0.0057418905
-0.0067652403
-5.987857E-4
0.0065343236
0.0104046
0.00645859
9.1457745E-4
-1.5926147E-4
-7.861001E-4
-4.2274885E-5
-1.8972062E-4
-0.0014367407
8.2908984E-4
0.0019070902
0.0022704813
0.0036496487
9.5834106E-4
-0.0018684819
-0.0016070994
-0.0020442023
-0.0029931257
-0.0024115306
-1.6864124E-4
0.0029665753
0.005213967
0.00314673
-6.014965E-4
-0.0019980976
-0.0050845984
-0.0066910037
-0.0051814327
-0.0067875166
-0.0033461077
0.00510388
0.0050251116
0.0018319726
0.00203157
0.0017077837
0.0015873695
9.5095194E-4
-5.389734E-4
-8.6219684E-4
-0.001887204
-0.0019579532
6.2743475E-4
0.0012993512
9.187805E-4
0.002104307
0.0013369638
-6.856005E-4
-0.0013565002
-7.0159324E-4
4.973424E-4
4.5479526E-4
0.0024166321
0.0036297834
-2.4178668E-4
4.1638545E-4
0.0026350413
-6.510189E-4
-9.2132675E-4
2.8740217E-6
-9.0074673E-4
3.70155E-5
0.0016064099
0.0035050618
0.0021310013
2.0462536E-4
0.0010591125
-0.002275378
-0.0031947258
0.0012151313
0.0014271622
0.0013728258
0.0030968876
0.0030834125
0.0032632381
0.003485601
0.003158737
0.0027868955
0.002943547
0.0020812107
8.5666316E-4
0.0024977608
0.002158088
7.326705E-4
0.0033009718
0.0031098125
2.1319874E-4
7.8461965E-4
0.0016760525
4.748611E-4
5.5939745E-4
0.0031933351
0.002440812
-0.0025828385
-0.0038333263
-0.0023354103
-0.0022367917
-7.715424E-4
0.0012545828
0.0024574008
0.0039013922
0.0038471355
0.0031471774
0.0042753303
0.0053174505
0.005813786
0.0064848023
0.0042529386
0.0010322987
0.002922607
0.006267702
0.005072057
0.0042300364
0.0067425948
0.0062185447
0.0029196783
0.0025552963
0.002516488
2.5011261E-4
-2.3799823E-4
0.002284543
0.0041769245
0.0042669955
0.00482216
0.0052407286
0.0050984765
0.006203591
0.007363218
0.0076723592
0.0074219517
0.008457329
0.012536512
0.014198812
0.012903925
0.01305243
0.009925848
0.004261328
0.0014321804
-0.0029526416
-0.01082794
-0.017707355
-0.020687494
-0.021511404
-0.024434274
-0.029003767
-0.03266619
-0.033686504
-0.03160551
-0.029322498
-0.027615009
-0.023688024
-0.016951967
-0.011637159
-0.008504322
-0.0051854253
-0.0052175187
-0.0068607293
-0.009117376
-0.015673239
-0.019211963
-0.022093913
-0.03053607
-0.033293545
-0.030659504
-0.030933088
-0.029906116
-0.02490038
-0.017153399
-0.007116012
0.004844174
0.019967575
0.03893932
0.05802838
0.07255824
0.083217464
0.09208397
0.0975672
0.09620382
0.089250915
0.07998591
0.06808342
0.057335123
0.047841907
0.035222813
0.021773767
0.0069608134
-0.009664631
-0.029299082
-0.052130513
-0.07336594
-0.09952421
-0.13218799
-0.18146643
-0.2546764
-0.28374526
-0.22005704
-0.124170355
-0.054317165
-0.0079908455
0.036544297
0.084082596
0.11731005
0.1248886
0.11564203
0.11456639
0.13452859
0.16072014
0.16565217
0.14019842
0.1196656
0.11914472
0.122212
0.13025513
0.11203163
0.05815836
0.02300695
0.0013568021
-0.047311146
-0.13005804
-0.22483018
-0.2658384
-0.22842687
-0.16182925
-0.10614729
-0.074327745
-0.055300146
-0.036701996
-0.022756482
-0.011060254
-0.0026937262
0.008237231
0.035106268
0.067596234
0.09718689
0.11660106
0.10828785
0.08157776
0.057033688
0.036386196
0.01672343
-0.0014881691
-0.016706178
-0.027551135
-0.032219738
-0.04175462
-0.0712024
-0.10142488
-0.10566058
-0.08788114
-0.060005493
-0.02787598
0.0045625553
0.033774823
0.057984147
0.07762528
0.09089317
0.10056379
0.1100046
0.11754421
0.12154798
0.11868488
0.114088185
0.11175993
0.10178798
0.08136369
0.054514263
0.025226222
-0.004075849
-0.035963614
-0.06646905
-0.092483796
-0.11544634
-0.13273568
-0.14450027
-0.15210351
-0.15521143
-0.15000762
-0.1365336
-0.122016795
-0.10481973
-0.08298595
-0.058629137
-0.03340985
-0.013093453
0.0041633695
0.020273402
0.034014083
0.044865757
0.04902208
0.056847133
0.06334071
0.053735573
0.055247653
0.072815455
0.078630134
0.08023655
0.08410124
0.08192517
0.07638841
0.06860633
0.060768712
0.053600512
0.046112593
0.03998003
0.03280044
0.024368426
0.014200598
0.0026129275
-0.0049803928
-0.009470931
-0.014586371
-0.019415502
-0.021556431
-0.02434311
-0.031487867
-0.037294704
-0.04225577
-0.050555956
-0.0572788
-0.061300345
-0.06334933
-0.06278332
-0.062388502
-0.061380304
-0.058560304
-0.05572189
-0.050916202
-0.042488713
-0.034618653
-0.027232833
-0.016888991
-0.007829393
-0.0010022221
0.005537536
0.009502353
0.0127254855
0.014058917
0.013312929
0.014392284
0.014136204
0.015168237
0.019276021
0.019608023
0.018791737
0.019630866
0.020435076
0.021850895
0.023044342
0.025098057
0.026164519
0.02468863
0.024284571
0.023706105
0.023069229
0.023424681
0.020737283
0.016266754
0.013284544
0.010641739
0.008535264
0.008094423
0.0076980367
0.006086095
0.004857098
0.0043097488
0.0038660953
0.003188481
0.0021426885
0.0019035287
0.0010583815
-9.925184E-4
-0.0022836134
-0.004717949
-0.00765191
-0.008004014
-0.008192149
-0.009657655
-0.011050365
-0.012578397
-0.013887886
-0.012679142
-0.008396346
-0.0066127633
-0.007200317
-0.0057050902
-0.0076162666
-0.011401311
-0.013582317
-0.018777892
-0.019271825
-0.014988246
-0.014505396
-0.011409673
-0.0069146347
-0.0046804477
-0.0011612892
6.563863E-4
0.002271981
0.004979237
0.0052611064
0.004683676
0.0057046977
0.0056577306
0.0013188267
2.0592482E-4
0.003907564
0.0050381543
0.0066544516
0.0099595245
0.014860736
0.01760501
0.014254273
0.015507247
0.018478647
0.01853024
0.019390646
0.016629359
0.017189194
0.017372595
0.0146649
0.018146956
0.008418131
-0.0045306105
0.006682877
0.016384203
0.009017637
2.0825064E-4
-0.0045139473
-0.0064370446
-0.0050513633
-0.0024051846
-3.480039E-4
0.0032624854
-0.008486947
-0.030161465
-0.024468603
-0.012896879
-0.01719259
-0.016584788
-0.020220296
-0.025343727
-0.020725237
-0.019956727
-0.020343738
-0.021762462
-0.02447865
-0.022720903
-0.023011561
-0.02070411
-0.0154531915
-0.01328969
-0.009302749
-0.005071614
-0.0020570613
-0.0024238436
-0.0061591943
-0.0053186184
-0.0010664844
0.0056980597
0.011267132
0.009546167
0.0074578607
0.0074748886
0.009350036
0.014004897
0.018058782
0.022963589
0.027265908
0.031829245
0.038285233
0.039866734
0.03987205
0.042402703
0.044994492
0.045684893
0.039119355
0.032492764
0.03165792
0.030121436
0.029878506
0.027508186
0.019064814
0.009104469
-0.0068943845
-0.027187983
-0.04234684
-0.050480105
-0.052078307
-0.052515257
-0.055863846
-0.0606888
-0.06870597
-0.080706425
-0.09549403
-0.10850478
-0.106018946
-0.08620057
-0.066514865
-0.047685813
-0.022270966
-0.0044099484
0.0013853075
0.00970933
0.026798
0.04074226
0.040130567
0.04276357
0.058714345
0.070697464
0.07619762
0.0789767
0.0787004
0.0775321
0.07567628
0.07429818
0.06712294
0.05365256
0.040412415
0.029094247
0.02435797
0.01961335
0.011895815
0.0061427574
-0.0017838032
-0.007920155
-0.016306667
-0.029059464
-0.037348595
-0.04287958
-0.040773872
-0.04548399
-0.058940154
-0.047264375
-0.033245377
-0.039870605
-0.042995386
-0.042635117
-0.03849129
-0.03196658
-0.030314554
-0.023788678
-0.020105084
-0.020045422
-0.014044121
-0.011162889
-0.00988749
-0.004647917
0.002963206
0.010593726
0.01453136
0.019732842
0.025243914
0.025283832
0.02354511
0.021036545
0.019006647
0.019934144
0.019766517
0.019007066
0.022938304
0.026940659
0.02428996
0.01974616
0.01818002
0.016522743
0.011809947
0.0067506186
0.0043291254
0.0029353388
0.0035610371
0.004586787
0.002488543
3.9130528E-4
-0.0034737578
-0.00578391
-0.002065286
-0.0043076184
-0.009681601
-0.0070122904
-0.0031085045
-3.773719E-4
0.0024180133
0.0020170442
-0.0013542292
-0.00459115
-0.0056712143
-0.009464877
-0.012712473
-0.008658287
-0.0077759963
-0.011345245
-0.0105711855
-0.010238041
-0.01212398
-0.013290982
-0.014893176
-0.015193907
-0.016154889
-0.01911014
-0.017357739
-0.012142735
-0.008601419
-0.004743914
-0.0031020755
-0.0031295668
0.0018147933
0.0049621025
0.0031774773
0.0071581835
0.01407145
0.016799456
0.018439785
0.016956933
0.013693194
0.013410824
0.010167867
0.0062944843
0.007507172
0.007912356
0.009334172
0.013093959
0.014070349
0.014747499
0.014812409
0.013535598
0.0111549515
0.0057808612
0.003810905
0.0043805568
7.115097E-4
-0.001971946
-3.7274152E-4
3.2393058E-4
-0.0044762194
-0.00918597
-0.008889219
-0.012212186
-0.018026067
-0.019390838
-0.020132562
-0.020775964
-0.022337282
-0.028595742
-0.03831537
-0.045793377
-0.043294206
-0.033457935
-0.023614235
-0.013992263
-0.0050993026
0.0014443862
0.006058587
0.011217547
0.016214125
0.018406658
0.020623121
0.022877067
0.023266917
0.022495857
0.02092587
0.021413576
0.022706611
0.021846019
0.019792736
0.016550586
0.013366435
0.011322519
0.009714055
0.0043506497
-0.007375142
-0.015517606
-0.014666772
-0.0117583405
-0.010579213
-0.010982336
-0.010046696
-0.007143221
-0.0059776283
-0.0053341603
-0.0030649719
-9.428737E-4
-1.512245E-4
0.0011638332
0.003116134
0.0017789168
-4.303216E-4
3.1842694E-5
-7.1451586E-4
-0.0015337094
-6.1452534E-4
-5.4111256E-4
0.0015099866
0.004278143
0.004255855
0.0039370963
0.0010073648
-0.0022958696
-0.0010945667
-0.0017353212
-0.004279653
-0.004486312
-0.005296683
-0.007295748
-0.0085892035
-0.008829814
-0.010557472
-0.011939865
-0.009505422
-0.007163682
-0.006130335
-0.0063295523
-0.0038748728
9.313957E-4
-1.5021022E-4
0.002008182
0.0044123586
0.0023988923
0.008599795
0.0017498473
-0.008291695
0.011192327
0.023455787
0.020286432
0.026156623
0.027624907
0.02796397
0.03072768
0.032172337
0.03783252
0.035111785
0.025634406
0.018995887
0.008897851
-0.0012523284
-0.007594814
-0.013107571
-0.018846424
-0.023071874
-0.024508413
-0.024806779
-0.023790436
-0.024930034
-0.028831026
-0.03183906
-0.0344525
-0.033518437
-0.02949033
-0.025254184
-0.02094736
-0.018653277
-0.016425932
-0.014145701
-0.0081458455
0.0039280797
0.013723587
0.023747688
0.03271844
0.03398411
0.034956504
0.03494257
0.03185344
0.0310456
0.029001864
0.022240257
0.014667629
0.009630399
0.0032330346
-0.003957432
-0.0070212367
-0.010069617
-0.011961935
-0.010746174
-0.01082588
-0.011511087
-0.012572151
-0.011619937
-0.008394172
-0.0063451934
-0.004860234
-0.0066553475
-0.0072226413
-0.0030438036
-9.544189E-4
5.538738E-4
0.0013174223
0.0012026037
0.0038078441
0.004511348
0.004877185
0.006313331
0.005546161
0.005150163
0.0050253985
0.0050080447
0.002091435
-0.0047251387
-0.008567053
-0.011900351
-0.015527817
-0.015353871
-0.01422503
-0.012147819
-0.008822722
-0.005400166
-0.0030003462
-0.0025277757
-0.0019006259
-0.0016805344
-8.350231E-5
0.002633025
0.0041132616
0.008549995
0.011500817
0.011213397
0.013163137
0.013154187
0.012968978
0.01207046
0.0060673286
0.0046366313
0.007815414
0.008652465
0.008886056
0.009007506
0.010994577
0.012097384
0.008869203
0.0067266948
0.0049915165
0.0017819481
-1.8355368E-4
-0.0019438101
-0.00269909
-0.0034282904
-0.0074208095
-0.010325381
-0.011182524
-0.014699723
-0.018234326
-0.020268662
-0.022883223
-0.02317193
-0.021521924
-0.0202836
-0.017731596
-0.0154056605
-0.01352105
-0.00950877
-0.0057966053
-0.003789867
-5.041561E-4
0.004892837
0.009687911
0.014065195
0.020484727
0.026709339
0.030946853
0.035089906
0.04064193
0.04642587
0.04704039
0.040980697
0.033084262
0.026098644
0.019225681
0.011692335
0.0052094613
-0.0021249375
-0.011278963
-0.015282854
-0.016663691
-0.022487888
-0.02702324
-0.027832674
-0.029673964
-0.031489193
-0.031211961
-0.030912586
-0.030721348
-0.027303569
-0.022102565
-0.018703086
-0.014287079
-0.007589696
-0.0018798439
0.0026549895
0.007137624
0.010738146
0.013124165
0.016098913
0.02025489
0.024102375
0.026337294
0.023424553
0.016249744
0.011618816
0.007941034
0.002555341
-8.1343774E-4
-0.0023106958
-0.002481738
-7.8802387E-4
0.0026873313
0.0060221395
0.005260769
0.004302386
0.0047491514
0.00406151
0.004814463
0.0039386027
0.002843628
0.004386534
0.0034956732
0.0025805193
0.0010147385
3.7519468E-4
0.0038369065
0.0025918602
2.6951332E-4
1.2433744E-4
-3.373338E-4
-0.0029876677
-0.017019276
-0.019513613
-0.0029427076
-0.0020381447
-0.0063495915
-0.0028115325
-0.0060354625
-0.007519725
-0.0064523295
-0.0060035517
-0.0032852883
-0.003621142
-0.0030181173
-0.0024657652
-0.0039068284
-0.0038759669
-0.005934231
-0.006039973
-0.0034566792
-0.0026880817
-0.0014099273
-2.812083E-4
4.2483484E-4
9.3619036E-4
0.001961107
0.0035022602
0.0030557113
0.0042207353
0.0076502142
0.010505372
0.012134899
0.012652186
0.01522591
0.01569203
0.01151232
0.009741866
0.010628556
0.011020519
0.010367355
0.0100805
0.010225755
0.00799793
0.0051398403
0.0012886566
-0.0048519797
-0.0107027935
-0.015890872
-0.019824712
-0.023060977
-0.024578828
-0.023421407
-0.02237288
-0.020373076
-0.018515982
-0.015159613
-0.007969695
-0.0047220387
-0.0011788841
0.008524279
0.015923921
0.021441128
0.026094591
0.025465118
0.022539293
0.01922667
0.015517076
0.01153044
0.006212001
0.0029064368
0.003983249
0.007096897
0.009442056
0.0093797725
0.007652972
0.004942518
0.0020337328
-2.6172138E-4
-0.004105351
-0.007856845
-0.009850995
-0.01380511
-0.015776774
-0.013543695
-0.013521753
-0.013816096
-0.012919199
-0.012046986
-0.009132341
-0.008028089
-0.006725209
-0.0027010026
-0.002559102
-0.0034303716
-0.003048744
-0.0050788526
-0.008101807
-0.011407122
-0.012423882
-0.011599873
-0.010780562
-0.00674764
-0.003498579
-0.0018328027
0.0027386548
0.0070344824
0.00998421
0.01185381
0.012637951
0.014345293
0.0167301
0.020435499
0.022832736
0.022391103
0.02213114
0.018860279
0.012870901
0.0090712095
0.00576724
0.0038728442
0.00563149
0.0064811986
0.0056143296
0.005309336
0.0012457168
-0.005958872
-0.010068826
-0.012729908
-0.016107297
-0.02009156
-0.023705931
-0.022415686
-0.019202167
-0.01828673
-0.016221816
-0.013724041
-0.013178226
-0.013294804
-0.011824435
-0.006847097
-4.525424E-4
0.004754909
0.007514402
0.006601241
0.004053643
0.0026066948
0.002399014
0.0019067053
8.1764435E-4
5.7492364E-4
0.0014012806
0.0025297734
0.002421752
0.0011979903
0.001511466
0.002678424
0.0014679225
-0.0029634985
-0.0066487887
-0.005347325
-0.001525947
0.0010214665
0.0015682636
0.0013134313
0.0017071972
0.0017807842
0.0028426046
0.0051526753
0.0048614717
0.005594835
0.010584974
0.01424057
0.014440684
0.013875194
0.014157856
0.013544887
0.009847912
0.0051414547
0.0010616856
-0.0028195484
-0.0054503814
-0.0053801993
-0.0039089588
-0.003960223
-0.0063047227
-0.009482709
-0.010897713
-0.013133935
-0.017624574
-0.01650449
-0.011966838
-0.010144181
-0.007974909
-0.00790098
-0.008857993
-0.0073861065
-0.007002641
-0.007523644
-0.009254638
-0.009229932
-0.0038155317
0.001954203
0.0056120874
0.0076942937
0.009041776
0.0076037156
0.00594822
0.009078877
0.006375774
0.0024995252
0.008179113
0.0109978
0.011430005
0.011582327
0.009383056
0.011789846
0.01117824
0.006924347
0.004771766
0.004711824
0.0065631983
-0.0033754131
-0.010388119
0.002979902
0.008540683
0.00363772
0.0021245345
-0.0021604903
-0.0038812442
-0.002899119
-0.002010649
0.0018779364
0.0024943107
0.0020179753
0.004068672
0.0032041923
0.001802262
0.0021067192
7.7821824E-5
-0.0016019118
0.0010453846
0.004061555
0.005061632
0.0042278543
0.0015626932
-0.0013892502
-0.0052380143
-0.0077556684
-0.008854813
-0.0116415275
-0.010786135
-0.0074062278
-0.008274043
-0.010309493
-0.01101381
-0.010857451
-0.0105333775
-0.012310809
-0.014661667
-0.013143341
-0.007791302
-0.0039199702
-0.0028300744
-0.0020433515
-0.0023123578
-0.004598025
-0.007545878
-0.010036352
-0.012435368
-0.012699483
-0.010785633
-0.010090099
-0.008978017
-0.009146579
-0.009904217
-0.0044278665
9.914633E-4
0.0036187193
0.009626981
0.015784811
0.022006538
0.029726679
0.035084113
0.03711294
0.03591739
0.034257416
0.033875965