0.0026576866
-5.1024894E-4
-5.8205146E-4
7.2400953E-4
1.859749E-4
-6.461611E-4
-2.511734E-5
0.0017269196
0.0026733784
0.0028907608
5.6694343E-4
-0.0018213673
5.3957925E-4
0.0021964228
0.0020634606
0.0011783066
-0.0016759146
-9.1688894E-4
1.9936E-4
-6.6935964E-4
2.1671345E-4
-0.0012965763
-0.0015657505
0.0010557071
0.0013376971
0.0018292163
9.560321E-4
-8.454653E-4
-6.856912E-4
-5.855057E-4
-4.4518066E-4
-0.0034295786
-0.0055429814
-0.002208575
-0.0011494552
-5.3801347E-4
9.6707133E-4
-5.128535E-4
1.6243693E-4
0.0013792901
3.1080475E-4
-1.5676867E-4
-9.577763E-4
1.5531048E-4
0.0023552517
3.9944644E-4
-0.0020521923
-0.0015239917
-4.6221894E-4
0.0012081438
0.0037597402
0.004696072
0.004227791
0.0044406266
0.0032403346
-4.722391E-4
-8.2346227E-4
0.0023986131
0.0015507126
-0.0013718157
-0.002199895
-0.0035784398
-0.0036711833
-0.0028820978
-0.0030856496
-8.3843066E-4
8.314951E-4
-4.9876453E-5
-4.2804782E-4
-0.0015060342
-0.0022753226
-0.0018104013
-0.0015252539
-8.679471E-4
-1.4216908E-4
5.60564E-4
7.333048E-4
6.1079185E-4
0.0010328289
7.458407E-4
0.0010558452
0.0015896787
4.4602828E-4
5.897745E-5
5.178931E-4
0.0013029106
0.002449555
0.001787253
9.935093E-4
0.0013451123
0.0019785129
0.003480629
0.0027623388
-0.0015914171
-0.0054131877
-0.0060403743
-0.003283675
3.3576394E-4
0.0020767322
0.0020756086
3.380574E-4
-0.001188244
-0.0013359211
-0.0029273122
-0.0032985497
9.19938E-5
0.001718489
6.135692E-4
-1.5690085E-4
-8.346798E-4
-2.4772415E-4
0.00167121
0.0011202118
-0.002348089
-0.00349946
-4.0352432E-4
0.0017021049
0.0022585301
0.0048958813
0.0051181433
0.001421635
3.2528388E-4
1.3823061E-5
-0.0015553487
3.5320754E-5
0.0011392306
2.8310902E-4
0.0017938211
0.0019504438
1.4955041E-4
-5.0245144E-4
-0.0020002855
-0.0028665606
-0.0018182312
-0.0012161791
-0.0016333911
-0.0017898105
5.3694996E-4
0.002760443
0.0016310955
-4.0714734E-4
-0.0024088947
-0.0038457923
-0.003968817
-0.0038930539
-0.0019681372
0.001939106
0.004669363
0.004838377
0.0029049409
0.0012765371
-7.214074E-5
-0.0029729924
-0.002899617
8.247268E-4
0.0020738922
0.002609241
0.0027714178
-2.5275625E-5
-1.4295302E-4
2.3232453E-4
-0.0029121516
-0.0031536513
-0.0011579957
5.928361E-4
0.002069326
8.487839E-4
6.9110194E-4
0.0017171317
0.0014665402
0.0013941822
-0.0014572408
-0.0032234672
-9.291874E-4
-0.0019463929
-0.0028781684
3.4127533E-4
0.0028131888
0.003917467
0.0021061187
-0.0012550995
-0.0010571099
-2.4883504E-4
-6.919427E-4
-0.0012890005
-0.0023215783
-0.0017269064
-0.0010566392
-2.8229263E-4
0.0033118546
0.0040501026
0.0010645741
1.2263298E-4
-3.6233594E-4
-6.736998E-4
8.401918E-4
0.0013274178
3.2649975E-4
-1.4276901E-4
-2.855692E-4
-4.8411734E-4
4.732186E-5
-5.3507625E-4
-0.0022572218
-0.0012384827
4.6083797E-4
5.457793E-4
1.5252976E-4
-5.82139E-4
9.326079E-4
0.0017190608
-0.0012027171
-0.0025523508
-0.0019950091
-9.424286E-4
-8.5601845E-4
-0.0024922378
-0.0011522091
-2.377568E-6
-5.5403315E-4
0.0018316525
0.0027652096
0.001244838
8.08654E-4
0.0012841022
0.0020230075
0.001577214
0.0018338319
0.0014611654
-0.0011196902
-2.4767965E-4
0.002543375
0.0030397316
0.0017961002
-1.0816443E-4
-6.258406E-4
-0.0013962348
-9.716737E-4
0.0016052552
5.434877E-4
-0.0012801868
-0.0010603179
-0.0013675084
-0.0012760976
-0.0036875678
-0.0061823674
-0.0032484473
-3.9561372E-4
9.891812E-4
0.0024252294
2.3391898E-4
-0.0026773026
-0.002890825
-0.0025234157
-0.001463358
-5.724221E-4
-0.00158294
-9.162071E-4
0.003230685
0.0055290693
0.0035570953
0.0012644029
4.0280464E-4
9.33335E-4
0.0030475338
0.0031435248
-5.0382943E-5
-0.0015989812
4.4916468E-4
0.0028780776
0.0029173486
0.0015581517
0.0013257507
0.0011176274
5.763592E-4
0.0016204204
0.0018122434
-1.31456045E-5
-0.001488133
-0.0021949427
-0.0018797871
-0.0024957084
-0.0035624572
-0.001408715
-1.5351258E-4
-6.588094E-4
5.137157E-4
-1.905656E-4
-0.0016828675
-0.0032512385
-0.0075002373
-0.0072547505
-0.0017267611
2.4040314E-4
-1.2762306E-4
0.001568345
0.0027481522
0.002329977
0.0020242808
9.10954E-4
2.7728028E-4
0.0011574028
0.0013351375
0.0023174617
0.002614061
0.0012948944
0.0024059322
0.0026321937
0.002035022
0.001667729
-0.0019906005
-0.0014132444
0.002057396
0.0011643906
0.0022035677
0.003026391
0.0018419826
0.0021132878
1.4264441E-5
-0.0012096664
-0.0015031863
-0.0038259926
-0.00351309
-0.0028230771
-0.0022928196
-6.392552E-4
-2.6835405E-4
0.0011420278
0.0014664074
2.1338064E-4
-3.4658264E-4
-0.002612701
-0.0032396188
-0.0032056393
-0.0055270586
-0.0044040573
-0.0011586723
-2.8474012E-4
-7.523599E-4
-1.6402806E-5
0.0030606866
0.0036159882
0.0011386772
-2.8365565E-4
-7.909693E-4
0.0010188262
0.0028952083
0.0018179438
0.0033498541
0.006847913
0.005840344
0.004351288
0.0053700455
0.0022911716
-0.0015085826
5.54981E-4
0.0010781963
-9.445358E-4
-0.0017931536
-0.0042044763
-0.0028788932
2.925165E-4
-0.0026979223
-0.004417544
-0.0027932604
-0.0021119309
-8.357731E-4
-0.0013183248
-0.0025123158
-0.0014915414
-0.0010116281
-0.0020327605
-0.003530416
-0.0031005542
-0.001058961
-3.0762094E-4
2.2404082E-4
0.0011422003
0.0031407904
0.004814487
0.0025977446
6.373134E-4
7.8755146E-4
-1.14826995E-4
-7.787951E-5
0.0012551483
0.0016225531
4.0095864E-4
-8.8408706E-4
7.792077E-4
0.002317159
0.0011546323
0.0014384978
0.0025796113
0.0029265408
0.003911763
0.0029317518
0.0013271092
0.0019705645
3.8956865E-4
-0.0014981016
-6.23914E-5
-4.6904932E-4
-0.0017604133
-0.002047618
-0.005858414
-0.009492318
-0.00756197
-0.0030367828
4.4346234E-4
8.208794E-4
-0.0010486784
-0.0011908187
-1.9472257E-6
-0.0010599887
-0.0028230627
-0.0019185373
3.3418418E-4
0.0016370788
0.0030609446
0.004693492
0.0021887321
-0.0021863806
-9.718957E-4
0.0013416811
7.257581E-4
0.0018077085
0.0038495199
0.007069916
0.009181871
0.0044835126
-2.183139E-4
-0.0016116182
-0.002922545
-0.002398198
-0.0029617518
-0.0033641316
-0.0012613042
-0.0023376727
-0.0025751553
7.709944E-4
7.1606686E-4
-6.728614E-4
6.1429804E-4
0.0023387207
0.0035156198
0.0040915622
0.0034181273
0.0021403546
6.2288437E-4
-0.0029381784
-0.005618962
-0.0031670157
-0.0013161375
-0.0035727653
-0.004371982
-0.002753334
-0.0016627315
-6.6836353E-4
7.649034E-4
8.918895E-4
-3.9116177E-4
-9.84559E-4
-0.0013103412
-0.0012492999
6.4808805E-4
0.0012415738
1.8952861E-4
0.0014201301
0.0031128596
0.0031076465
0.002719511
0.002528546
0.0027654537
0.0027462263
0.0018067459
2.2978678E-4
-6.250309E-5
0.0019966047
0.0031630201
0.0024085934
5.759916E-4
-0.0020446226
-0.0032298984
-0.003466038
-0.0028386943
-0.0013289665
-0.001409908
-3.0490998E-4
0.002056479
0.0018263714
0.001417724
2.0435345E-4
-0.004012188
-0.005681603
-0.0034467457
-0.00238942
-9.440518E-4
0.0019480963
0.0017832081
0.0012840199
7.7557244E-4
-0.0031958332
-0.0031846133
8.957144E-4
0.0010622742
-3.4487105E-4
-0.0011369769
-5.054241E-4
0.002670924
0.0034936108
0.0014359991
0.0015083195
0.0028952635
0.0019922154
8.882726E-4
0.0017279888
0.0021136547
0.0022249504
0.004532787
0.0072757313
0.0037639518
-0.003055942
-0.0026896738
-0.0037261227
-0.01063684
-0.00820825
-0.0010860268
-2.3267763E-4
5.8164547E-5
9.807876E-4
0.0012626667
-5.8678037E-5
-0.003565645
-0.0026900885
2.8191312E-4
-4.59085E-4
6.660991E-4
0.0034768959
0.002836529
0.0011543066
-2.7382895E-4
-0.001234936
-9.554133E-4
-1.9070209E-4
0.0030296599
0.0049476232
9.7647466E-4
-0.0013242462
4.7105024E-4
0.0010836178
5.149439E-4
-6.076749E-4
-8.2494324E-4
-2.5771562E-5
-0.0014656344
-0.0033747018
-0.0026166046
-7.987329E-5
0.002059588
0.001929366
2.009848E-4
-5.717002E-4
-4.41239E-4
-9.2232996E-4
-7.7336543E-4
-6.330746E-5
-1.8177256E-4
5.195016E-4
0.0010058344
5.501443E-4
0.0017091203
0.0019197289
-1.6161488E-4
-9.188648E-4
-7.1226317E-4
-0.0011727817
-0.0010960553
8.151481E-5
0.0012145551
7.108168E-4
-4.4709208E-4
0.0015591149
0.0033280537
-0.0016737222
-0.0056850654
-0.0026981644
-5.890698E-4
-5.14115E-4
-2.3201431E-4
-2.933725E-4
0.003084995
0.006893564
0.004594654
-3.3198702E-4
-0.002963729
-0.0029281522
-0.0012135642
1.2211032E-4
5.6442386E-4
0.001192551
2.5816073E-4
-0.0022983379
-0.0026948235
-0.001905719
-0.0019713936
-0.001067342
2.0890594E-4
0.0010796525
0.0017900441
0.0011340304
5.4748857E-4
0.0012344583
2.9554384E-4
-0.0019819336
-0.0011306182
7.561369E-4
-7.3295005E-4
-5.8729196E-4
0.0022255483
0.0015228399
4.2941936E-4
9.728151E-4
1.9615842E-4
0.0015761139
0.003422299
0.0035112416
0.0054417616
0.0034895863
-0.0015256504
-0.0014988258
-0.0038996811
-0.0081113605
-0.0046645203
-0.0014018832
-0.0012349137
5.841655E-4
-2.4258863E-4
-0.0010250307
0.001707168
0.0021704414
9.356108E-4
7.1475346E-4
6.7061315E-5
1.4040535E-5
0.0010092477
5.8356085E-4
-8.100376E-4
1.12314425E-4
7.850497E-4
-0.0011520999
4.122503E-5
0.0025123195
-3.128325E-4
-0.002960505
-0.0013505958
4.525017E-4
4.7735524E-4
-0.0010463417
-0.001481971
6.8229256E-4
0.0015790806
-4.8979966E-4
-0.0022471042
-0.0018277285
-3.457738E-5
0.0022257287
0.0021653315
4.2629385E-5
2.6874934E-4
9.751671E-5
-0.002022975
-0.0011519176
8.036324E-4
9.928675E-4
8.1392855E-4
-2.7613305E-5
-0.0017256255
-8.894306E-4
0.0045575514
0.006084559
0.0011721902
-0.0015089555
-0.0037512723
-0.004447463
2.1892176E-5
0.0014324168
4.5711605E-4
-1.9913244E-4
-0.0031397159
-0.002989694
4.7303172E-4
0.0023311942
0.002791055
0.002994811
0.0026474048
0.0013575035
8.2618097E-4
-9.860684E-4
-0.003955331
-0.0023189287
-2.1115744E-4
-0.0017936624
-0.002143111
-1.4102091E-4
0.0010496068
-1.9941921E-4
-0.0014831711
-5.989991E-4
0.0016405238
0.0026496185
3.2507617E-4
-9.879926E-4
-2.8122106E-4
-5.9975684E-4
-1.1883655E-4
-5.06597E-4
-0.0013709599
-5.514554E-4
1.2095224E-5
0.0019903078
0.0022521508
-0.0010107986
-0.0028940486
-0.0037796048
-0.0014915417
0.0030892855
0.0039310614
0.0019798437
-7.359761E-4
1.3787001E-4
0.003923127
0.003501354
0.0014413381
-1.9112763E-4
-0.0017747881
-0.0012279762
-0.0016074971
-0.0022557767
-0.0015682201
-0.0026009474
-0.0027400616
-6.080193E-4
-4.3225125E-5
-5.3935626E-4
-5.832671E-5
9.623568E-4
0.0021226143
0.002557697
0.0012790948
-2.4925565E-4
-1.6907221E-5
9.067477E-4
-1.2638574E-4
-0.0014111246
6.012018E-4
0.0018858043
-6.0426124E-4
-0.0011076118
0.001076924
0.001744707
9.565186E-4
-0.0011141807
-0.0023501208
-8.403245E-4
-0.001364611
-0.0036048794
-0.0019162981
-7.30985E-4
-0.003372738
-0.0027097103
1.4545082E-4
-6.401457E-4
-9.85004E-4
6.992804E-4
0.0015477443
0.0015810905
3.2691009E-4
1.6324087E-4
0.0026349926
0.005634571
0.0073859054
0.004487796
0.0012999631
0.0022259497
0.0012059311
-1.4180635E-4
2.4026033E-4
-9.815622E-4
-0.0014048924
-0.0023628105
-0.0038568757
-0.0022625404
-0.0013023239
-0.003906228
-0.0069439723
-0.0066030393
-0.0055395123
-0.0058263605
-0.0033292999
-7.3926104E-4
-6.5284997E-4
0.0010404316
0.0059205974
0.0116358735
0.013923377
0.014000415
0.012555454
0.0070751184
0.0033369488
0.00517157
0.008556862
0.0070654214
-0.0013626632
-0.009102158
-0.012002204
-0.0117876325
-0.010638186
-0.008376221
-0.0050736843
-0.0086444095
-0.015498056
-0.015750598
-0.013833584
-0.011593496
-0.008196911
-0.003117548
0.0036729395
0.006289893
0.007844004
0.009932694
0.0069901613
0.0024161825
0.002130194
0.008341965
0.012776301
0.012362595
0.018598946
0.024704963
0.022584895
0.01981031
0.009647117
-0.010285464
-0.022079548
-0.019924417
-0.016156571
-0.015405002
-0.010933463
-0.006868508
-0.01014647
-0.012392702
-0.009862854
-0.006067321
-4.1083223E-4
0.0013779273
2.5878943E-4
0.0051453933
0.009731787
0.009549455
0.006724053
0.0019242552
0.0047568167
0.010485666
0.007751624
0.003947968
-0.0019105464
-0.010184328
-0.010872993
-0.006624297
8.829072E-4
0.008625186
0.008069137
0.0056579057
0.0044152075
-0.0027703433
-0.00947382
-0.010335816
-0.0120192785
-0.0140384445
-0.01585688
-0.019348633
-0.018416693
-0.015805965
-0.016235739
-0.013965084
-0.009000759
-0.0035588632
0.0026416879
0.009822074
0.016951367
0.020568794
0.022866767
0.0225059
0.018054169
0.016741069
0.016530547
0.01311
0.0105919605
0.013070226
0.014589709
0.007954544
0.004733158
0.0047277245
-0.002716686
-0.0055358433
0.0010299573
0.011257401
0.018692281
0.015225664
0.009401017
0.001636404
-0.011260433
-0.012547841
-9.85805E-4
0.003678449
-0.006439033
-0.017462812
-0.020624138
-0.0193831
-0.010282911
0.0010905763
0.007436972
0.0093824025
0.002592987
-0.008925536
-0.0233906
-0.033806965
-0.027785482
-0.024117783
-0.030151369
-0.034098905
-0.052773766
-0.08808003
-0.10208349
-0.080183126
-0.04957058
-0.019165903
0.0189297
0.055122957
0.0924804
0.12601224
0.13431588
0.13039067
0.13120973
0.12638505
0.10083116
0.06205625
0.03612895
0.029818278
0.03380236
0.026653692
0.006190463
0.0064930604
0.019678012
0.013053596
-0.027983278
-0.10017044
-0.16642466
-0.22415791
-0.26289988
-0.22995998
-0.15959997
-0.10239755
-0.049325313
0.0017442112
0.040605575
0.036536958
0.023044731
0.07619975
0.14822637
0.17707196
0.19106303
0.21794821
0.2438077
0.2243656
0.15173422
0.040384788
-0.090811744
-0.15776686
-0.14765841
-0.14592701
-0.15911478
-0.15824069
-0.12915045
-0.06864716
-0.039950512
-0.06370509
-0.077753246
-0.07168107
-0.08598142
-0.13442872
-0.17318255
-0.14554995
-0.079693384
-0.021368919
0.07196553
0.20976737
0.33100915
0.42113364
0.45806363
0.41440696
0.32763878
0.22494929
0.13491267
0.055165336
-0.06287669
-0.17313713
-0.23168252
-0.24311537
-0.20925239
-0.19564916
-0.17908108
-0.14621125
-0.21404184
-0.2752819
-0.17910863
-0.053583045
-0.008786445
-0.017273694
-0.026598342
-0.01990304
-0.015905496
-0.015261128
-0.049804606
-0.09961899
-0.07412866
0.018511953
0.12425932
0.19906163
0.2221803
0.2290576
0.21200986
0.16040882
0.109863244
0.06776256
0.035300076
-0.005298457
-0.06047906
-0.06739734
-0.024945665
0.0053669517
0.016587988
0.009909149
0.019399052
0.07202836
0.050599787
-0.052256413
-0.06790237
-0.033886172
-0.05490951
-0.05321798
-0.018609677
-0.021629917
-0.041743867
-0.047707047
-0.05746502
-0.08869949
-0.12406501
-0.12634708
-0.086569816
-0.04147486
-0.013341431
0.017437527
0.03415868
0.020319331
0.019660804
0.036003996
0.042552005
0.04875929
0.054185297
0.06351117
0.096789934
0.14128128
0.16925937
0.14366351
0.048512794
-0.04899542
-0.09194188
-0.09333778
-0.07135479
-0.058707856
-0.068219155
-0.075711474
-0.07758934
-0.059393402
-0.029142482
-0.022072416
-0.025153065
-0.021741606
0.0040045874
0.045534022
0.062727764
0.07492666
0.07818052
0.032099668
-0.0097156465
0.001843004
0.02633709
0.032046694
0.035737544
0.04322817
0.04544831
0.053134173
0.05767722
0.044290926
0.023589378
0.009142313
0.011602706
-0.0019088171
-0.049619976
-0.07725211
-0.07428875
-0.075491935
-0.089375675
-0.10165452
-0.09028528
-0.06774582
-0.049627814
-0.028841248
-0.009387226
0.008270563
0.020325072
0.023771863
0.020967279
0.011779023
0.01292872
0.01675339
0.008717973
0.009607779
0.019152753
0.025665268
0.029509729
0.026202088
0.018911723
0.013538812
0.018588968
0.03689506
0.057737947
0.07376991
0.07970724
0.079364866
0.07675605
0.06572965
0.04577972
0.013311322
-0.027847417
-0.061807293
-0.08189948
-0.083813734
-0.07468816
-0.06615853
-0.054541476
-0.047159277
-0.050572142
-0.047476985
-0.031869113
-0.015217852
-0.0021759896
0.0019951863
-0.0057122037
-0.012218043
-0.0128584765
-0.017962568
-0.02519867
-0.02398694
-0.011107895
0.009158168
0.034046926
0.061885383
0.07747177
0.07447048
0.06539986
0.05610345
0.05123458
0.047199953
0.030424356
0.003629953
-0.021877462
-0.036466654
-0.039838213
-0.03615799
-0.02200764
-0.012421502
-0.017741667
-0.021539846
-0.021158636
-0.015606729
-0.00273432
0.00388932
0.007392158
0.014552568
0.0120597
-0.002758562
-0.012603177
-0.011163814
-0.013028478
-0.021071253
-0.019603176
-0.0037705966
0.009250897
0.0037678513
-0.005635979
-0.0031867046
0.00480218
0.012297459
0.008914949
-0.004282325
-0.006008828
0.0035979468
0.009593192
0.00669856
0.0019779403
0.008084046
0.016958442
0.013418287
-6.355617E-4
-0.01409539
-0.012972271
-8.2987465E-4
0.0068806726
0.0125749055
0.018782573
0.022366714
0.026922883
0.021949165
-0.0038472745
-0.0333315
-0.045333643
-0.035497446
-0.017502641
-0.014131933
-0.020749751
-0.014979529
-0.002058913
0.0010979418
-0.0019342846
0.0020422668
0.012216059
0.018274698
0.02003712
0.01670475
0.0060079377
-0.0011973142
-0.0020236564
-0.002234199
0.0013743185
0.00521935
0.0042958925
0.006009676
0.013739422
0.02315656
0.023181941
0.006821067
-0.007235397
-0.006142789
-0.0019991023
-0.0017597899
-0.008739221
-0.018585278
-0.02219562
-0.026127521
-0.021713983
-0.0025187687
0.0060674534
0.002935586
0.0041665337
0.0046830745
0.002741461
0.002152414
0.0032511877
0.004705857
0.0035753383
0.0017086216
0.0017780595
0.0032832203
0.0038819623
0.0047392375
0.006828574
0.0041252235
-3.3592555E-4
-2.683585E-4
-0.0010200487
-0.0052746837
-0.008463039
-0.0081806565
-0.0067658867
-0.0040293923
-0.0034194195
-0.009301187
-0.008687126
-0.0015399203
-9.916348E-4
-4.887248E-4
3.946961E-4
1.4066717E-4
0.0047430415
0.005518468
3.279672E-4
-0.002565364
-5.8610115E-4
0.0046184794
0.008703566
0.011594448
0.009508637
-1.607316E-4
-0.008848856
-0.011394361
-0.007997351
-0.0031136086
-2.192628E-6
5.88912E-4
-0.0010994199
0.003090916
0.005718797
-8.545882E-4
0.0010210249
0.010491005
0.016114013
0.020166844
0.017637553
0.01127308
0.010022955
0.011860738
0.014521988
0.013014949
0.005992286
-0.001773001
-0.010673956
-0.016234891
-0.015601908
-0.015750583
-0.016940601
-0.01862513
-0.021827605
-0.02144332
-0.021358697
-0.023674952
-0.020355474
-0.015494132
-0.013495601
-0.012900445
-0.014691964
-0.0139882695
-0.011884465
-0.005928565
0.011057905
0.023533786
0.024746677
0.025686668
0.027753906
0.032986756
0.034353532
0.025087973
0.01857523
0.017602041
0.016149644
0.013721501
0.0070117903
7.941171E-4
-5.8719236E-4
-0.004493098
-0.011332815
-0.012369274
-0.0069536055
-0.0049935095
-0.009330837
-0.00951026
-5.0697784E-4
0.007816882
0.006545625
-4.075464E-4
-0.0067674113
-0.008408177
-0.00477634
-0.007560158
-0.018989472
-0.023416681
-0.018780358
-0.01305626
-0.008435983
-0.007112055
-0.0076631345
-0.0075293737
-0.0065230243
-0.0044982117
-0.0040008854
-0.0038453883
-0.0025209584
-0.0030666736
-0.002903291
7.812533E-6
0.0025009173
0.005158204
0.008852161
0.011455726
0.013319218
0.01687574
0.020244895
0.022328796
0.026530433
0.02815713
0.021350035
0.012054342
0.0073137796
0.0047958572
-0.0032755702
-0.010724537
-0.008250043
-0.0088280225
-0.0144240055
-0.011453963
-0.008936928
-0.013715484
-0.014810387
-0.0120692365
-0.010703092
-0.009468893
-0.009079617
-0.009201653
-0.006030541
-0.0014393522
3.6785458E-4
3.426405E-4
4.4154128E-4
0.0012308569
0.0018085565
0.0029765698
0.0057875086
0.0067363163
0.006692945
0.006907839
0.0047454177
0.004345701
0.0065319045
0.007155193
0.006960679
0.0066148965
0.007423027
0.008010793
0.0038725794
-0.0021511598
-0.0016580474
0.005341669
0.0053436346
-0.0018438004
-0.004411611
-0.007964026
-0.00974307
-0.0014873261
0.002099298
-2.4031116E-4
-1.9494047E-4
-0.004400682
-0.008415943
-0.008056573
-0.009657639
-0.01033125
-0.009581951
-0.011391589
-0.014044932
-0.014731267
-0.01120385
-0.006079496
-0.0025022798
0.0016447593
0.0052593555
0.005597091
0.0046547786
0.006176559
0.00950349
0.011325791
0.011392375
0.008780338
0.0062533766
0.008932285
0.012512766
0.015717871
0.020325454
0.022872902
0.02440243
0.01863275
0.0019932596
-0.010069875
-0.01600504
-0.020289367
-0.014623146
-0.0068665394
-0.008769799
-0.011599946
-0.0066866647
-0.0017748983
-0.006184753
-0.009768743
-0.0039022265
-9.511718E-4
-0.005307315
-0.008605734
-0.008433764
-0.006007977
-0.0038846962
-0.0028662775
-0.0014723033
-0.0012637924
-0.002903662
-0.0050945277
-0.006847336
-0.006118423
-0.0035277319
-0.00212732
-0.0011688006
0.0011367239
0.0037816651
0.0052817347
0.0038801539
0.0012860795
0.0019745862
0.0043016276
0.0055748434
0.006631009
0.008270399
0.014026322
0.021631816
0.023764614
0.023385113
0.02086094
0.014560323
0.013885023
0.015328748
0.010005923
0.0063597336
0.0026816467
-0.010177969
-0.02406595
-0.031375438
-0.03165515
-0.02383626
-0.014378309
-0.012057289
-0.013199697
-0.010199349
-0.007234487
-0.0073945434
-0.006450527
-0.0070108026
-0.007071731
-0.0020496012
-6.4081803E-4
-0.003429121
-0.0035927612
-0.0029252686
1.2934695E-4
0.0051496173
0.008026775
0.009873042
0.009352108
0.007730267
0.0069109476
0.0044638515
0.004500163
0.0068107364
0.0066083535
0.005705123
0.0022058224
-0.0021959327
-6.79575E-4
0.0030234954
0.002891631
8.026068E-4
0.0037977032
0.01168484
0.01623665
0.017107833
0.014802785
0.009548915
0.005743519
-2.842436E-4
-0.008081197
-0.012836214
-0.01597615
-0.01396842
-0.010485644
-0.012028669
-0.010893712
-0.007345199
-0.006585728
-0.004000182
-5.643744E-4
-0.0022300421
-0.0058335653
-0.004171238
-8.369356E-4
-0.0015025671
-0.0020622218
-0.0014314171
-7.764464E-4
0.001467881
0.003345998
0.0033956927
0.0021850406
0.0015283695
0.0016098884
5.40803E-4
5.467065E-4
0.0026031346
0.0049275905
0.0061799893
0.0052153184
0.0013514822
-0.005489677
-0.008031116
-0.0040943082
-0.0017404903
5.76858E-4
0.0028986433
0.002897265
0.0068974975
0.0119195655
0.013334428
0.01277127
0.0095387185
0.008800823
0.010210121
0.005349494
-0.0020309538
-0.0077219126
-0.014496858
-0.016326007
-0.010526597
-0.0069210595
-0.006414262
-0.0044946955
-0.0031560827
-8.4558595E-4
0.002333067
0.0013873558
-0.0029008891
-0.0058824145
-0.0050522992
-0.0021030041
5.110536E-4
9.785846E-4
-7.706408E-4
-6.6155416E-4
9.5901394E-4
0.002111827
0.0032063199
0.0020537726
0.0018136511
0.003466198
0.0020906676
0.0014804337
0.0031713045
0.0028549307
0.0024358032
0.001883367
-0.0018916768
-0.0049428763
-0.0059524765
-0.010018351
-0.0099401
-0.0012691799
0.0033787752
0.0057483157
0.012079017
0.013161229
0.008398042
0.0035046977
5.240492E-4
0.001232978
0.002927519
0.0017661002
-9.017862E-4
0.001512516
0.0061684544
0.004422488
-6.2611734E-4
-0.0071040574
-0.010986023
-0.006567704
-0.0019245729
0.001062396
0.0028908462
1.3099813E-4
-0.0011164185
-0.0032654388
-0.00926318
-0.009870962
-0.0053219087
-0.0026143265
-0.002139885
-1.2021052E-4
0.0018553978
0.00108884
0.001082972
-4.4421144E-4
-0.002233206
0.0017812635
0.005053313
0.004321137
0.0015344004
-0.0020096677
6.666395E-4
0.0049903137
0.0027511353
-2.151852E-5
-2.8377032E-4
-4.5129066E-4
-2.8584423E-4
-3.7740817E-4
2.460551E-4
0.002712463
0.0040130625
0.0044055013
0.0074561373
0.009528044
0.0065969178
0.0014181988
-0.0025040295
-0.001826542
5.282157E-4
-0.00223118
-0.005840933
-0.0040782136
-0.0010428757
-0.0018919072
-0.004014084
-0.003432212
-0.003244858
-0.0053860433
-0.006269903
-0.005400668
-0.0038961489
-0.0017664002
-4.5071793E-5
-3.0242754E-4
-0.002189226
-6.667382E-4
0.003989241
0.005397194
0.005615861
0.005449281
0.0031197022
0.0037260249
0.0035490897
9.6869003E-4
0.0029273483
0.0018821119
-0.0038733722
-0.0055612815
-0.0055339527
-0.0039399248
-0.0023646697
-0.0037156444
-0.0020621435
3.765254E-4
6.4161466E-4
7.2117476E-4
-0.0018669774
-0.0037857904
-0.00317699
-0.0032401134
-0.0017099318
3.9963436E-4
3.2596375E-4
0.0010794097
0.0035539859
0.0073658633
0.014313255
0.019163111
0.017568754
0.014737348
0.008114228
-0.003316753
-0.009045471
-0.010475957
-0.012152987
-0.010763829
-0.008184396
-0.004575594
-5.6271895E-4
-0.002058805
-0.0048726248
-0.0023198645
1.0709982E-4
-0.0010337108
-0.0018206025
-0.0028450969
-0.004540187
-0.004677372
-0.0036311387
-0.0015819814
-1.12270856E-4
0.001385151
0.004022163
0.0025664456
-0.0010860709
-9.187149E-4
5.4311607E-4
0.0013658763
0.0019139196
0.0019349208
0.0019161397
0.0016789628
4.183872E-4
-4.213928E-4
0.0028022672
0.005367869
0.0031812477
0.0026714047
0.0013130279
-0.0024187856
-4.3234733E-4
0.0029181547
0.0032823174
0.00312736
0.0020434281
0.0040435777
0.0070365584
0.007206225
0.008172377
0.004844861
-0.0023597886
-0.005848494
-0.00724544
-0.0054704365
-0.0074197277
-0.015364486
-0.009681367
-9.539125E-5
-0.0048729484
-0.0048990566
0.0015698111
0.0010553958
0.0019315272
0.002601821
-0.0012348511
-6.2265433E-4
0.0023101787
0.0017201677
-9.854534E-4
-0.003344221
-0.0026355495
-3.0631502E-4
0.0011813921
0.0025577194
0.0033686664
0.0027382427
0.0018811576
0.0017046904
7.3938526E-4
-0.0021434152
-0.0047908006
-0.0031338977
0.0017018552
0.0034060532
0.0029668272
0.0027845409
9.857338E-4
0.0017390655
0.0040308447
0.002950222
0.002206321
0.0023349624
0.0027103655
0.0017333986
-0.0020423643
-0.002390261
-0.0026452453
-0.0029891068
0.001767046
8.614288E-4
-0.001800032
0.0010409659
-6.919833E-4
-0.0013604269
6.9612294E-4
-0.0010227606
-9.173838E-4
-0.0031723487
-0.006409366
-0.0029292833
-0.0012169991
-8.261696E-4
0.0027320457
7.828481E-4
-0.0054674484
-0.0043434263
0.003015236
0.005388091
0.0030632103
0.0033108955
0.00337659
-2.44151E-4
-0.0023660446
-5.8559823E-4
1.2370953E-4
-0.0012457276
-0.002629875
-0.0032264697
-9.7373995E-4
5.1545753E-4
2.7802438E-5
0.0020714076
0.0033189617
0.0033473058
0.0037825636
6.9400796E-4
-0.001835772
-7.656763E-4
-6.502779E-5
0.0012129289
0.0027665521
0.0015031064
-6.2568E-4
-0.0012523201
-0.001295984
-6.506166E-4
8.190838E-4
0.002127379
0.002448247
0.0010516256
0.001037421
0.0020971773
4.6529825E-4
-4.413038E-4
-0.0021770257
-0.006146346
-0.005925933
-0.0035921915
-7.90967E-4
8.909801E-4
-0.0022995903
-0.0028355296
-6.1243976E-4
-7.7884283E-4
-7.985298E-4
-0.0017054012
-0.0018203298
-0.0013852377
-0.002485942
-7.038858E-4
0.0017407999
0.004215768
0.008225368
0.009441568
0.009249263
0.006196916
-4.3485317E-4
-0.0026848675
-0.0014540183
-0.0012926186
-6.371785E-4
0.0016665378
0.0034916068
0.001823272
-8.8226434E-4
-0.0025079632
-0.0039297026
-0.0020975522
5.040238E-4
-0.002489598
-0.0057742563
-0.0039173905
-0.002549455
-0.0033238837
-0.0036908188
-0.0043790014
-0.0021605545
0.0013931416
0.0010182014
0.0021409944
0.0063784663
0.008377518
0.0065479027
0.001985772
-4.8005432E-4
-7.1847846E-4
-9.519868E-4
8.963836E-4
0.0014416412
-5.24719E-4
-0.0019959854
-0.0037309818
-0.004300035
-0.003184322
-0.0014243247
9.369032E-4
0.0021691837
0.0017866897
-5.312588E-4
-0.00204559
5.857636E-4
0.0022022505
0.0012470592
0.0015735495
8.1575345E-5
-0.0023072832
-1.1263765E-4
0.0019592484
8.242792E-4