0.004052566
0.0025292474
0.0017998829
3.2601858E-4
-0.0019326613
-0.0018388714
-0.0015484834
-0.0014509006
3.3435784E-4
0.0019499583
0.0022207052
0.0011380753
1.9922231E-4
7.7193114E-4
-4.973707E-4
-0.003486247
-0.0031760102
-3.7807404E-4
4.3390208E-4
1.7084714E-4
9.996787E-4
5.8676547E-4
3.268856E-4
0.0016146323
-9.210008E-4
-0.004195857
-0.002370947
-3.103698E-4
8.5198815E-4
0.002840327
0.0020640478
3.4183107E-4
7.340064E-4
-0.0010868043
-0.004465066
-0.0034938846
-9.549487E-4
7.674847E-4
0.003417258
0.003491227
0.0023025228
0.003003296
0.0027126817
0.0017208345
2.097132E-4
-0.0013090974
-3.3925739E-4
0.0018065411
0.003679191
0.0036685553
0.0023980772
0.0020763632
0.0013569779
-4.304753E-4
-0.002955268
-0.0036202378
-0.0024574217
-0.0023104602
-8.761024E-4
-5.2116124E-4
-0.0016025101
-1.46588045E-5
6.7389634E-4
5.372468E-4
-0.0011115028
-0.0043288954
-0.0035757718
-0.0027945244
-0.0016095856
0.002001015
0.0024968593
0.0022003166
0.0018759994
8.653389E-4
1.5572605E-4
-0.001964694
-0.0018334956
4.4362666E-4
0.0018971312
0.001965608
0.0011179629
0.001934274
0.001317924
9.832892E-4
-7.850827E-5
-0.004720056
-4.2665543E-4
0.0018599294
-0.006687939
-0.0023963691
0.0057432367
0.0033239524
0.003112223
0.0015365034
-8.0402853E-4
0.0013313268
-9.262545E-5
-0.0013385642
6.4859836E-4
7.9162826E-4
9.0697984E-4
0.0019492868
0.0012161122
-0.0019179991
-0.003730229
-0.003054193
-0.0033513913
-0.0026367698
2.2557689E-4
0.0010787437
3.4849395E-4
-1.0218739E-4
-0.00129194
-0.0025161488
-0.0025073444
-0.001823767
-0.0011966737
-0.001065574
-8.64696E-4
4.8942276E-4
0.0015477753
5.949815E-4
2.0503692E-4
0.001817334
0.0010191889
-0.0015325252
3.9320663E-4
0.0032259142
0.002200569
0.002545734
0.004310643
0.0028076137
5.5597245E-4
-2.554477E-4
-6.357957E-4
-6.4873084E-4
-0.001453732
-0.0022562756
-7.6959893E-4
7.14868E-4
-4.898323E-4
-0.0016124118
4.2295633E-4
0.0022101188
1.2268669E-4
-0.0024562094
-0.002673976
-0.0016143619
3.4543824E-5
0.0010990043
0.0016093403
0.0017045949
2.3928714E-4
-2.4341005E-4
-1.0217859E-4
-0.0016035419
-8.556088E-4
0.0010946789
8.2526926E-4
0.0014483415
0.0019152823
0.0011647386
0.0020709387
0.001406284
-7.64174E-4
3.255947E-4
0.0014960113
4.5405707E-4
-3.702046E-5
-2.7905565E-4
-8.806718E-4
-5.0793117E-4
0.0012865409
0.0015207588
-0.0013817602
-0.0031792957
-0.003141264
-0.003525265
-0.0036903368
-0.0031281637
-0.0014835472
-0.0016577743
-0.0031776123
-0.0010258476
-4.1964167E-4
-0.0024753101
-0.0011432496
-7.396083E-4
-0.0016449566
-1.8849013E-4
0.0011100164
0.002385305
0.002314565
7.754888E-4
0.0023346047
0.0042745285
0.003078662
0.002362185
0.0040074685
0.0050309664
0.0037910235
0.00292924
0.003606923
0.003475441
0.0022700296
0.0010065568
-5.6851166E-4
-0.0012302331
-6.990186E-4
-6.3679664E-4
-2.9071592E-4
-2.7662134E-4
-0.0012767976
-0.0013018497
-0.0011079059
-0.0010490661
-0.0017749214
-0.003162664
-0.0022071837
-0.002707616
-0.0049180137
-0.004098741
-0.00358156
-0.0036048724
-0.0028660197
-0.0026419056
-0.0017533362
-0.0019268634
-0.0027258454
-0.0025776962
-0.0016853656
-4.8649733E-4
-0.0017837269
-0.0016404229
9.306758E-4
9.2882675E-4
0.0017627466
0.0034871611
0.00403845
0.004122381
0.0030838537
0.004432477
0.0064146
0.0067706783
0.007200907
0.004645983
0.0028086144
0.003716591
0.0032210557
0.003243191
0.00216432
2.4373947E-4
6.0013327E-4
-1.0954049E-4
-0.0015629013
-0.0034042946
-0.0053980937
-0.00471553
-0.0046822676
-0.0057518766
-0.0061315126
-0.0069151223
-0.006010339
-0.004808311
-0.0040816683
-0.0015926319
-5.9669797E-4
-0.0012949926
-0.0011493199
-1.3299132E-4
0.0014641864
0.0010211818
5.6704594E-4
0.0022793105
0.0017879629
0.0012020497
0.003256727
0.004006071
0.002650841
0.0011698932
6.8682054E-4
5.3238205E-4
0.0015060151
0.003050632
0.0010705255
3.7984026E-4
0.003118791
0.0026179547
0.001677744
5.1386247E-4
-0.0039761476
-0.0041120825
6.0022273E-4
0.0020956534
1.9307436E-4
-6.5986655E-4
1.802941E-4
9.193123E-5
-9.374834E-4
-0.0019106814
-0.0021880022
-0.0011035018
-6.568028E-4
-5.10554E-4
2.755923E-4
3.3707393E-4
0.0010278113
0.0014074348
-2.6510746E-4
-0.0011014191
-7.3616835E-4
-0.0010261702
-0.001980326
-0.0025894747
-0.0012591014
8.769867E-4
0.0020834464
0.0022979723
8.317474E-4
2.585111E-4
0.0024027668
0.0022839857
-6.788585E-4
-0.0022415628
-0.0025777975
-0.0014334162
4.5481356E-4
-5.908598E-5
-0.0011099384
-5.6506495E-4
6.6682306E-4
0.0013563053
6.434864E-4
8.001643E-5
7.1081345E-4
0.0026026983
0.0035972502
6.455262E-4
-0.0017101812
-9.604285E-4
-0.0011999209
-0.0022670496
-0.002413398
-7.968251E-4
0.0017276267
0.0018233258
-4.3970914E-4
-0.0024555088
-0.0023917644
-7.750028E-4
0.0014597779
0.003231961
0.0013647925
-0.0014425681
-9.130179E-4
2.2722007E-4
-3.6075723E-4
-0.0021551368
-0.0030218393
-0.0019644373
1.888203E-4
0.0016700532
3.5986194E-4
1.1048012E-4
0.0010612592
0.0014030259
0.00433705
0.0038596068
4.501978E-4
-0.001207729
-0.004077948
-2.4453434E-4
8.703772E-4
-0.010624824
-0.010024
3.0252273E-4
0.001151032
0.0011326518
0.001988568
7.322514E-4
0.0011257426
0.0011070726
1.738674E-4
-2.0649847E-4
-5.408655E-4
-8.6459314E-4
4.04193E-4
0.0017220897
0.0015128454
0.0021829188
0.0020049328
0.0021158955
0.0030678895
0.0015410464
0.0018668005
0.0019168364
-8.1153703E-4
-0.001343513
-0.0018439455
-0.0016213371
-9.298989E-4
-0.0019483783
-0.001556211
-0.0015370107
-5.757206E-4
2.765669E-4
-0.001931928
-0.0016588648
-0.0019477493
-0.0038542713
-0.002705555
-0.0016754455
-8.028789E-4
4.2000672E-4
0.0014536615
0.0015012287
7.052782E-4
0.003206862
0.0036775256
0.001320362
0.0024445506
0.002141736
6.1947294E-4
-1.6697437E-5
-0.0013209187
1.8704814E-4
0.0012696616
6.029349E-4
0.0016059352
0.0010301111
-2.6865545E-4
6.124738E-4
1.5723339E-4
-0.0037135254
-0.0054396354
-0.002291603
-0.0014487288
-0.002982713
-0.0017611723
-8.4445387E-4
-8.997173E-4
-0.0012456938
-0.0023251893
-0.0015069589
-0.0016418187
-0.0025830169
6.8556593E-4
0.0027679096
0.0011026292
0.0014116293
0.0038115233
0.006665442
0.007638505
0.0055091213
0.004038261
0.0037295416
0.0037844852
0.0028855933
-2.9512253E-4
-0.0025032077
-0.0046439967
-0.0056194887
-0.0020593198
-3.3409055E-4
-9.0131187E-4
-2.0653087E-4
-8.185816E-4
-0.0014625964
-0.0023767033
-0.0031278462
-0.0017954544
-0.002180977
-0.002033688
-2.3585366E-5
-2.5714378E-4
-1.7510001E-4
-3.013585E-4
-0.002277121
-0.0022820842
-8.6394494E-4
0.0011013395
0.003590628
0.0033783654
0.0020431792
0.0034261777
0.0043458426
0.0028423688
0.0026008084
0.001317909
-0.0023087019
-0.0019005844
0.0010902364
0.0015873485
6.6239765E-5
-0.002260165
-0.002581366
-0.002150017
-0.0020401073
0.001376748
0.0027929493
3.927069E-4
8.3499716E-4
0.0011763893
6.2302244E-4
0.0025408822
0.0027591079
0.0013511656
0.001413694
4.422065E-4
-0.0017234931
-0.00224342
-0.0019123311
-0.0018585268
-8.9449214E-4
-4.925009E-4
-0.0011537684
-0.001252571
-0.0017300973
-0.0016949289
-0.0010114878
-9.482344E-4
-7.8406447E-4
-0.0023008992
-0.003912132
-0.0030699992
-0.0025875026
-0.002374657
-0.0017756987
-3.8746797E-4
0.0021138552
0.0038351663
0.006017289
0.0071820193
0.006029691
0.0052036406
0.004045377
0.004733335
0.006553611
0.005057362
0.0022596254
-9.703991E-4
-0.0019032174
8.637719E-4
0.0011255072
-7.045986E-5
6.257552E-4
0.0010288793
-0.0013427917
-0.006441016
-0.008401965
-0.006583578
-0.006064155
-0.0055191107
-0.00407993
-0.003511207
-0.0028675296
-0.0019496935
-0.0022762604
-0.0020382109
2.7021798E-4
0.0012157374
0.0016409506
0.0031986437
0.003406586
0.0036339315
0.003121036
0.0011608513
0.0011373252
0.0014234142
7.814321E-4
6.905147E-4
0.0011948057
0.0018662537
0.0017784494
0.002153659
0.002921785
0.0013649946
-0.0012687022
-3.9263838E-4
0.0025867855
0.0023843094
0.0016159597
5.4359296E-4
-0.0022518146
-0.0013543221
1.5402845E-6
7.4992736E-4
0.0031726277
0.0010021429
-0.0012612531
-0.001099377
-0.0026654769
-6.3490035E-4
0.0029612472
0.0032676046
0.0013881039
9.824989E-5
-3.6979458E-4
-0.0072490545
-0.012858254
-0.0073370873
-0.0014719947
9.119066E-4
0.003246883
0.003577489
0.0013502404
-4.1191E-4
0.00114095
0.0016460598
0.0010133177
0.0021706338
0.0019981097
0.0023093505
0.002003084
-9.36522E-4
-0.0023694695
-0.0029835054
-0.0028082433
-0.0024752545
-0.0030301695
-0.0017998018
-8.736091E-4
-2.1318016E-5
6.086904E-4
-0.0017659607
-0.0023520503
-8.6241524E-4
-6.382728E-4
-4.940702E-4
-0.0013714357
-0.0011472563
0.0017126744
0.0034182232
0.005011461
0.006747376
0.006941697
0.008831185
0.010103062
0.008227071
0.007999803
0.007912462
0.0054195873
0.0026923278
9.636092E-4
3.9032486E-4
-0.0039614565
-0.00982975
-0.010213641
-0.010870419
-0.013001909
-0.012275132
-0.009790903
-0.0069628167
-0.007007873
-0.0069389227
-0.0049466887
-0.0046549384
-0.0016569288
0.0028175148
0.0044160793
0.0053496747
0.0062009776
0.0085013
0.008710775
0.006322464
0.0075358776
0.008973019
0.009197329
0.0076699685
0.0022530244
7.9471886E-4
0.0027454991
0.0017162856
1.9018046E-4
-0.0028321673
-0.007847152
-0.009468078
-0.007755984
-0.0072794086
-0.007982278
-0.007627689
-0.0061025843
-0.0026753447
3.8249308E-4
6.5810134E-4
-5.050113E-4
-0.004280076
-0.006795012
-0.0027704798
0.002822948
0.0068849837
0.010502193
0.012901323
0.013713846
0.014672145
0.017752713
0.017866196
0.012020477
0.0034791343
-0.008739844
-0.01860477
-0.018446218
-0.013064435
-0.006615584
-0.002491358
-0.0018899784
-2.917375E-4
-5.2719977E-5
-0.002405259
-0.0031859379
-0.004309659
-0.007296399
-0.008751109
-0.007119426
-0.004240836
-0.0013261992
0.0012837343
0.0016893717
7.9918344E-4
0.0019295166
0.0049920566
0.0065182783
0.004892959
0.0040002605
0.0047018034
0.0044050873
0.0050618704
0.006233745
0.0054022837
0.0040134275
0.0036016572
0.0038574205
0.002703803
-6.423631E-5
-0.0020190105
-0.0027704823
-0.0033866891
-0.0043364204
-0.0038723908
-0.00215852
-0.0020451795
-0.0024840573
-0.0029522402
-0.0029651527
-0.0010798057
-3.2441676E-4
-5.834391E-4
-9.801531E-4
-0.0026043965
-0.002362335
-0.0017093276
-0.002967355
-0.0026815205
6.945078E-5
0.0038491099
0.0055676703
0.0047334614
0.0042027407
0.0034084723
0.0026862198
0.0021041622
0.0020317454
0.002913882
5.236763E-4
-0.0012220464
7.127177E-4
-8.142744E-4
-0.0044420995
-0.006613814
-0.00656416
-0.004017703
-0.0038652413
-0.004804087
-0.0047984896
-0.005504455
-0.0041322685
-0.0028365199
-0.0039696223
-0.0036791142
-3.6636097E-4
0.0038871663
0.0055221496
0.006362677
0.008999659
0.0112539595
0.014402203
0.017189246
0.014416617
0.0075027705
0.0012750532
-6.629666E-4
0.0015983493
0.001903175
-0.00161251
-0.0037528449
-0.0050952607
-0.00534112
-0.0016524777
-8.4172806E-4
-0.00293853
-0.0046371263
-0.010216211
-0.012134958
-0.008027304
-0.0060763564
-0.0050166813
-0.007723277
-0.012477302
-0.011398766
-0.0092852
-0.0075234156
-0.0044091046
-0.002658963
-9.1825306E-5
0.0048458823
0.009427186
0.010744161
0.010148968
0.0098402025
0.009377703
0.010094809
0.009323132
0.0057076253
0.0036444478
0.0040533296
0.009769816
0.01816173
0.02116844
0.021363089
0.017480172
0.006652345
-0.0033656405
-0.009948107
-0.012919411
-0.012571245
-0.016865755
-0.02452687
-0.024085637
-0.014973197
-0.008544853
-0.009817287
-0.011642257
-0.012730655
-0.016910437
-0.020610157
-0.024281817
-0.025654184
-0.016609324
-0.0055618268
-8.699879E-4
0.0053636916
0.018333055
0.034983777
0.047415428
0.05099791
0.047715683
0.038672827
0.027349541
0.018813508
0.012962608
0.004854745
-0.002676109
-0.0015100356
6.283535E-4
-3.5926135E-4
4.9814046E-4
-0.006668491
-0.019136563
-0.02507784
-0.031898063
-0.037995357
-0.037398607
-0.03853227
-0.040769864
-0.0369091
-0.027431417
-0.017068999
-0.011432573
-0.009639453
-0.009028301
-0.009377427
-0.005549767
-2.023926E-5
0.0038177262
0.018026937
0.039193545
0.054423723
0.06703537
0.07190946
0.06754929
0.0578169
0.034152623
0.009559912
-7.682972E-4
-0.0036337264
-0.0036402135
-0.006373739
-0.004908208
0.0062574847
0.003545372
-0.026900576
-0.057494156
-0.051456876
-0.029111782
-0.022105902
-0.010787901
0.002021134
0.0053085703
0.0031465446
-0.024179136
-0.054799866
-0.059502415
-0.055840287
-0.044248473
-0.019574802
0.021231893
0.0700151
0.09711205
0.1054707
0.097952776
0.06825477
0.023749191
-0.038074482
-0.07774556
-0.07123638
-0.07046381
-0.07141836
-0.039671194
0.0034254456
0.034598604
0.03090371
0.008571434
0.018769074
0.03798791
0.02807623
-0.005184419
-0.047452033
-0.061577145
-0.059648488
-0.081307895
-0.07631871
-0.017945727
0.05296251
0.1310688
0.20246516
0.2260478
0.18039717
0.07199223
-0.04466292
-0.11124178
-0.13829164
-0.147803
-0.09590376
0.023624256
0.11627779
0.14488924
0.13274504
0.034782615
-0.12431767
-0.19787322
-0.17811759
-0.1631491
-0.13141538
-0.071982086
-0.03353185
-0.0016365243
0.016470484
0.0033135796
-0.020878175
-0.03885497
-0.013878837
0.017955234
0.010240968
0.027679186
0.07947759
0.11242024
0.08508175
-0.0056372937
-0.05936922
-0.03374824
0.011896858
0.026900029
-0.004933928
-0.012138458
0.011113167
-0.0018845227
0.007862057
0.06590145
0.09150975
0.055923637
0.013271204
0.013988943
0.003733487
-0.037685998
-0.052907806
-0.05352765
-0.016651627
0.09242718
0.20464598
0.2414441
0.15220964
0.0010913674
-0.08315476
-0.14584063
-0.2395107
-0.252994
-0.1848798
-0.15053746
-0.11846356
-0.052087277
-0.02139062
-0.021491641
-0.048230313
-0.11450912
-0.1380853
-0.124371074
-0.13883364
-0.14022914
-0.09930266
-0.03618663
0.01662113
0.03893838
0.067341544
0.12600681
0.18927738
0.20898548
0.17885786
0.16462877
0.17392784
0.12334117
-0.010964833
-0.12457433
-0.15263858
-0.15052034
-0.102754645
0.004973515
0.08777854
0.15064906
0.20224398
0.21724522
0.23884703
0.20940131
0.07403889
-0.05288111
-0.10740994
-0.121441215
-0.09707318
-0.022088157
0.06451351
0.09956828
0.09570197
0.063283
-0.03449369
-0.12803434
-0.13376462
-0.11803089
-0.14715031
-0.1877831
-0.20901857
-0.21731144
-0.22309421
-0.22574419
-0.20775126
-0.16180104
-0.108307496
-0.071501285
-0.05119289
-0.023405503
0.013692961
0.050318275
0.09727375
0.14120331
0.15989843
0.16472507
0.1706841
0.18247363
0.19543968
0.205654
0.21358845
0.20830037
0.18765196
0.15899736
0.12467934
0.09230853
0.065884344
0.043131106
0.019692965
-0.007692164
-0.031362556
-0.0474458
-0.06206219
-0.07721905
-0.08970041
-0.09905585
-0.10843328
-0.117331944
-0.12546198
-0.13391313
-0.14166674
-0.14682321
-0.13767883
-0.108565606
-0.073303126
-0.041123845
-0.012467022
0.012157062
0.028372476
0.034399774
0.038643185
0.043690804
0.050582003
0.06316832
0.07463273
0.08094134
0.084042184
0.08491815
0.08479474
0.080730535
0.075152785
0.073596515
0.07539188
0.07913575
0.08148003
0.08320062
0.08786379
0.09094829
0.08730722
0.07571295
0.060916055
0.04784664
0.03381708
0.019401673
0.0047485884
-0.011001442
-0.023991024
-0.036938082
-0.051417097
-0.06560439
-0.0798701
-0.08919212
-0.09320668
-0.096053705
-0.097682215
-0.09588321
-0.08939691
-0.08657435
-0.09108258
-0.09882455
-0.11093015
-0.12184658
-0.12988962
-0.13697113
-0.13252859
-0.11564237
-0.0949103
-0.07350607
-0.05169126
-0.026492724
0.004589231
0.045848977
0.0978886
0.14954713
0.18557727
0.19729169
0.19310026
0.18501705
0.17171723
0.15120691
0.13693994
0.14026137
0.14635377
0.15167768
0.16979493
0.19462085
0.22108915
0.22976816
0.19252485
0.11811062
0.011757027
-0.11123089
-0.20894498
-0.27221486
-0.3042864
-0.31099758
-0.3087108
-0.29750553
-0.285451
-0.2798111
-0.2659043
-0.23881313
-0.20512491
-0.17006989
-0.13660905
-0.10602085
-0.077430725
-0.047742646
-0.018193463
0.01204889
0.045609493
0.07969054
0.10924199
0.13233598
0.15382847
0.17131966
0.18145928
0.18741654
0.18194453
0.16922738
0.15853852
0.14071171
0.11715676
0.0928382
0.06881787
0.053126
0.040408596
0.025696298
0.013292871
0.0010989895
-0.008319784
-0.013251748
-0.01718611
-0.01819046
-0.018228643
-0.021352135
-0.025405088
-0.029559147
-0.034985706
-0.041148093
-0.04902835
-0.058384944
-0.06539128
-0.07028191
-0.07334854
-0.07104944
-0.06660058
-0.06281288
-0.056544535
-0.04970164
-0.041330118
-0.029170074
-0.02001613
-0.013313246
-0.0052124704
4.5085716E-4
0.007006754
0.016090525
0.021844517
0.025678907
0.029414136
0.031635266
0.031448364
0.028345251
0.026004445
0.026150584
0.027477212
0.029233553
0.029119574
0.027848221
0.026893938
0.025574302
0.024487207
0.02363242
0.023273472
0.022683788
0.021023795
0.020038702
0.01930395
0.019123713
0.019274298
0.01655248
0.013625126
0.01353425
0.0146477455
0.016690223
0.017943656
0.016961973
0.016510097
0.016929857
0.0153359985
0.013941639
0.015898515
0.016587086
0.01384306
0.012500691
0.013090909
0.012671094
0.011599879
0.010990502
0.009159394
0.0058036167
0.0041668257
0.0047328454
0.004999075
0.0048027933
0.0057809055
0.0062856297
0.0049834703
0.0055673635
0.0058361585
0.003181605
0.0033757654
0.004661133
0.004117246
0.0042936914
0.0040748287
0.0049854075
0.004873624
0.0015931238
9.487256E-4
5.057183E-4
-6.128627E-4
9.027891E-4
0.0013453864
0.0016787471
0.0015563382
-2.4325421E-4
7.7720697E-4
0.0017917309
7.529383E-4
8.333848E-5
-3.384555E-4
8.39786E-4
0.0020033082
0.002578361
0.0044207615
0.004785332
0.00393138
0.003602629
0.002568511
9.5379015E-4
-9.940553E-4
-0.0017681979
-0.0011934488
-0.001702683
-0.0018617931
-9.294226E-4
-0.001652155
-0.0041976995
-0.006295968
-0.00731114
-0.008599644
-0.009268155
-0.008654267
-0.008074699
-0.005773197
-0.0036043283
-0.005884559
-0.008340665
-0.0067025656
-0.0020868047
0.0038020047
0.0072267177
0.006855233
0.0063273963
0.007598541
0.009441195
0.010184068
0.00875013
0.0070587257
0.0077544153
0.007958942
0.005149945
0.0023134516
0.0015568364
0.0028916555
0.0035127504
4.6870977E-4
-0.0025566774
-0.0035746908
-0.005121295
-0.0058321543
-0.004605078
-0.0038858082
-0.0044228355
-0.0053286985
-0.0065776384
-0.0075991154
-0.00838509
-0.009815024
-0.009907614
-0.00864163
-0.007703519
-0.0052443705
-0.0040161144
-0.005083062
-0.002606701
9.090456E-4
0.0013150786
6.649847E-4
-2.5224514E-4
-3.9031985E-4
-0.0010681049
-0.00264837
-0.0010416872
0.0015997195
0.0021132603
0.0030770197
0.00456872
0.004790757
0.00446279
0.0038688495
0.0021241582
0.0010099948
0.002028585
0.0031264867
0.0037691987
0.0034069598
0.0012721895
9.033128E-6
-8.2371477E-4
-0.00303908
-0.0045823692
-0.0043274607
-0.0026253038
-0.0014086583
-0.002102721
-0.002742375
-0.0035710223
-0.0051481086
-0.005094076
-0.0037824395
-0.0034800505
-0.0038126563
-0.0032144159
-0.001835351
-9.779594E-4
-7.986214E-4
-6.317576E-4
-0.0011398973
-0.0030822947
-0.0034401428
-0.0016937287
-0.0022128364
-0.00255026
-5.2775914E-4
-7.883676E-4
-0.0019096034
-0.0017860263
-0.0018789266
-0.001938889
-0.0032070342
-0.0040107
-0.0034152507
-0.002637536
7.2229694E-4
0.0028265938
0.0019093096
0.002353336
0.0017225135
7.778258E-4
0.0017096595
0.0030327349
0.0049564424
0.004210985
0.002666815
0.002952549
0.0019150386
0.0026713721
0.0032237947
0.0010457129
9.319511E-4
5.563329E-4
7.610704E-4
0.001496746
-0.0017057798
-0.0033684259
-0.0037821853
-0.005087176
-0.0040296842
-0.0057777935
-0.008516606
-0.0068712207
-0.005089011
-0.0040787105
-0.004460687
-0.0056309677
-0.0042041987
-0.0036353718
-0.004693966
-0.004127389
-0.0032183651
-0.0021299322
4.327822E-4
0.0012313222
-0.0011383886
-4.7861278E-4
0.0028808874
0.0025798427
0.0022117952
0.0047915294
0.0061132456
0.005364624
0.00533027
0.0067392467
0.005798397
0.0037985074
0.0049548736
0.004095421
0.0010306593
7.204068E-4
-3.122459E-4
-0.0021096172
-0.0019375875
-0.0020305421
-0.0023777417
-0.0031707333
-0.005429308
-0.006292035
-0.0056208433
-0.0056968024
-0.0046924213
-0.0027835413
-0.002438766
-0.0030427654
-0.0046523707
-0.004987372
-0.0025539205
-0.0021078305
-0.0021140354
-8.4068737E-4
-0.00258305
-0.0019221689
0.004277345
0.006463835
0.0033587208
0.0020558985
0.002295818
0.0026187839
0.0055064433
0.007049459
0.004065031
0.0019562058
4.1247453E-4
-0.0024558578
-0.0025053853
-6.1034E-4
-7.615461E-4
-0.0038698118
-0.0063317027
-0.0047952556
-0.0033312584
-0.0033432292
-0.0021664975
-0.0011407578
-0.0013020864
-0.0022260596
-0.0024613985
-0.0013354768
-3.3706886E-4
7.3673937E-4
0.0016904962
0.0013977679
7.132807E-5
5.2858184E-5
0.0021388796
0.002219138
0.0010186854
0.0011691084
6.5659214E-4
0.0011685246
0.0026694448
0.0025184988
0.0015375305
3.799336E-4
7.5852923E-4
5.166203E-4
-0.0022421933
-0.0025474408
-8.755575E-4
4.690344E-5
-4.2820617E-4
-0.0028290518
-0.0031821353
-8.8252523E-4
5.898905E-4
-6.1087374E-4
-0.0030283001
-0.0027394113
-0.0010917054
0.0010417195
0.0029934398
0.0017600857
0.0014346475
0.0013745634
-0.0024363631
-0.0050436985
-0.0052835443
-0.0058713756
-0.005845812
-0.0037136276
-8.8109775E-4
-5.969639E-4
-0.0013735386
-6.157045E-4
6.6441484E-4
8.6916215E-4
-4.288809E-5
-0.0012026252
-0.0013077509
0.002189167
0.004754449
0.0041921926
0.007539131
0.010264384
0.00871576
0.006343905
9.824603E-4
-0.0023128807
-0.0022923448
-0.002462102
2.1036492E-4
0.0013748673
-9.095171E-4
-0.0011335227
0.0035576073
0.007581046
0.002354923
-0.00360892
-0.0034006208
-0.0017189113
-8.727917E-4
-0.0034156118
-0.0037075735
-0.0066179605
-0.017230976
-0.014722185
-0.0041715675
-0.0026334603
-2.1366126E-4
0.003548529
0.0057374914
0.0073837037
0.0059369667
0.006330442
0.0053306394
-2.8937173E-4
-0.003383476
-0.0041807746
-0.004763758
-0.0040339525
-0.0010035554
0.0030773026
0.0037958142
0.0019646527
6.393909E-4
3.8351872E-4
0.0017260716
0.003176236
0.0035743138
0.0032870737
0.0016863546
-3.6718504E-4
-0.0011611085
-9.408218E-4
-5.348411E-4
-0.0017885837
-0.004336421
-0.0034917388
1.238204E-4
0.002323121
0.0037880812
0.0043017925
0.0034010708
0.0034119156
0.0029351152
-2.8314571E-5
-0.001671164
-1.7628037E-4
-9.407924E-4
-0.004200313
-0.003950619
-0.0021293534
-0.0024125618
-0.00226758
-0.0016222808
-0.0034221644
-0.0062514236
-0.0053475336
-0.0019289448
-4.4672264E-4
3.01089E-5
5.316776E-4
0.0017004459
0.0033684897
0.0018503078
-5.488897E-5
0.0015018608
0.0025229384
0.0024439648
0.0018290674
-2.652981E-4
0.001420184
0.0045660967
0.0016199934
-0.00150106
-0.0010814806
-7.273896E-4
2.471343E-4
-0.0014487732
-0.005692898
-0.0055780103
-0.003842118
-0.0048882826
-0.0062541254
-0.005839011
-0.004414124
-0.0039360328
-0.0024757371
3.3837798E-4
5.445248E-4
0.0012666413
0.0055049104
0.006798739
0.0035884718
0.0024563724
0.0031885828
0.0030632822
0.006845145
0.012865848
0.012482882
0.007157768
0.002288332
-9.314461E-4
-0.0022418867
-0.0039246636
-0.0070523084
-0.008694791
-0.0070178774
-0.0031785346
3.7843946E-4
0.0038999561
0.0068136947
0.0036633164
-0.0025706058
-0.0028682253
-0.0029402704
-0.009605833
-0.013471706
-0.008961386
-0.002097404
0.0021938614
0.002839221
0.0028989268
0.0040313485
0.0026142627
-0.0017358124
-0.005939128
-0.007107243
-0.003655119
1.115155E-4
1.1611786E-4
-8.5020927E-4
1.2857783E-4
0.001650105
8.4979984E-4
-0.0021015462
-0.0041078255
-0.002898588
0.002378245
0.0072787968
0.0067462334
0.007220168
0.010439552
0.00749538
0.0069171945
0.014970747
0.01201932
-0.0026726485
-0.010066473
-0.010400144
-0.008106308
-0.0042607374
-0.0031700188
-0.0021941606
-0.001322125
-0.0036070158
-0.004583202
-0.002755696
-9.206251E-4
5.665857E-4
0.0010913127
1.8643468E-5
-2.3786435E-4
0.0016560034
0.0019395328
1.3501491E-4
-7.5998047E-4
-9.476867E-4
6.3721434E-4
0.0029186707
0.0027991554
0.0018118677
0.0016046184
0.0036500131
0.0046611796
6.7118515E-4
-0.0012510716
-7.1658293E-4
-0.0025554476
-0.0024946
-0.0024275845
-0.003141563
-5.6171196E-4
3.838046E-5
-0.0023221306
-0.004015026
-0.004534075
-0.0033871508
-0.0035995175
-0.0033506695
-9.837218E-4
-4.384603E-4
0.0010798735
0.0024894557
2.4503568E-4
-0.0012448726
-5.6714093E-4
0.0021479041
0.0051967525
0.0060887057
0.007721085
0.0065231095
-7.685059E-4
-0.004703057
-0.0017161353
9.3539135E-4
-4.7948654E-4
-0.004464876
-0.004717077
0.0030073253
0.010705166
0.014247566
0.018558111
0.016737286
0.0029513938
-0.010765285
-0.015029413
-0.013414786
-0.01007928
-0.0045807245
-2.674904E-4
-7.3641835E-4
-0.0012011472
-9.0732746E-4
-0.0026608892
-0.0045630415
-0.0062559377
-0.0057208994
-0.003425303
-0.003570629
-0.0032728103
-0.0015951053
-8.912409E-4
1.3143028E-4
8.252724E-4
0.0015153635
0.004897269
0.009271772
0.009282322
0.006059553
0.0042001824
9.851006E-4
-0.0021212143
-0.0015375252
1.5949989E-4
0.0030722974
0.0020642593
-0.0029594235
-0.0025904342
-0.0038329945
-0.00990215
-0.009199939
-0.0045413296
-0.0037515985
-0.002395589
1.4808305E-4
-0.002972163
-0.0056206337
-0.002512448
-0.0016479861
0.0017376754
0.009368389
0.011970278
0.011190402
0.0068899333
0.0023431578
0.0017224789
0.0011034849
0.0015353862
0.0019820917
0.012554435
0.027718151
0.013672882
-0.0098188715
-0.013548323
-0.017388856
-0.01731913
-0.007145974
-0.0063802036
-0.008638973
-0.005414517
-0.0045650476
-9.780223E-4
0.0053576347
0.0025626179
-0.002155019
-0.0013680648
2.2838414E-5
0.004058413
-0.0022211068
-0.01853275
-0.014290151
8.9286856E-4
0.0052427687
0.006987835
0.008945795
0.013305182
0.014385939
0.0049013514
-0.0011111012
-0.0010457041
-0.0011491575
-3.9627633E-4
-0.0011096463
-0.0030522395
-0.0043688132
-0.002715616
5.8511074E-4
3.0953914E-4
-0.0026073325
-0.0058125616
-0.0038878485
0.0013108035
-8.675912E-4
-0.0031190293
0.0010588067
0.0016763443
-5.144839E-4
0.001837475
0.0046774345
0.005828185
0.01094087
0.014312089
0.009021509
0.005313768
0.008104238
0.008388566
6.676978E-4
-0.007943826
-0.009637046
-0.009366497
-0.0071201366
-0.0014644413
1.74089E-4
0.0021786944
0.005565229
0.0022906358
-0.0035281868
-0.008659953
-0.012505421
-0.0129841585
-0.013011379
-0.01278028
-0.010611325
-0.0057896255
9.7250135E-4
0.007711097
0.011467409
0.006493393
-7.345251E-4
-8.477585E-4
-9.828102E-4
-0.005421221
-0.008498976
-0.0059378836
-0.0013111922
5.017473E-4
0.0049401806
0.010067687
0.009697582
0.011211099
0.014571172
0.011947223
0.0058630626
2.9960138E-4
-0.0060771145
-0.010116853
-0.0059781545
0.0010906184
0.0057466133
0.009982259
0.012239088
0.013132872
0.012359806
0.0069306646
3.9698856E-4
-0.003150486
-5.341066E-4
0.002734141
-0.0051899306