0.007936586
-0.0056166393
-0.017933303
-0.020494541
-0.0140005555
-0.003086242
0.0045717717
0.0068710707
0.008752718
0.0067554936
-0.0025946945
-0.014641283
-0.020514691
-0.013162831
-9.5050415E-4
0.006361352
0.010948083
0.014224894
0.01321197
0.006123018
-5.918961E-4
-0.004750606
-0.01207429
-0.016879179
-0.012679292
-0.0021940072
0.0066514215
0.0069432943
0.0037688126
8.1485306E-4
-0.0036340172
-0.009559806
-0.014122912
-0.010767486
-0.0031348818
0.0046747085
0.011888007
0.012365265
0.009379891
0.0063366094
0.004404945
0.0010737713
-0.008050606
-0.008127991
0.0016904455
0.010572784
0.014130048
8.9709053E-4
-0.0058619827
0.0071346336
0.007395193
-0.0018115346
-0.007068675
-0.010033968
-0.0025152054
0.005318629
0.007849699
0.009794366
0.005381516
-0.001560551
-0.007907098
-0.013587654
-0.014361272
-0.011149
-0.0035243554
0.006092219
0.011838629
0.014286693
0.013152207
0.005075305
-0.0048988545
-0.010853438
-0.016927727
-0.018790312
-0.0110037755
-0.0040856153
-7.5114414E-4
0.002288228
0.0017846897
-4.8419597E-4
-0.0030174418
-0.008037332
-0.011903103
-0.007771838
0.0024727834
0.01122042
0.014163606
0.009697379
0.0048632594
0.0041672196
8.341137E-4
-0.0058993297
-0.01378841
-0.015777228
-0.0029507414
0.01264792
0.017305493
0.014332319
0.010629781
0.008682427
0.0030060275
-0.008201624
-0.018222492
-0.020985778
-0.011063833
0.0032390743
0.0071515003
0.005902498
0.0073621282
0.008185928
0.006637623
-6.328652E-4
-0.013385279
-0.018742727
-0.010270263
0.0037338147
0.016319688
0.025059892
0.0257789
0.019497247
0.00856592
-0.009396447
-0.024726706
-0.027297897
-0.023044694
-0.014523675
-0.00560806
-0.0033724792
-7.158899E-4
0.0027538976
-0.0014771741
-0.0036595878
0.002975056
0.008078601
0.016359704
0.031087305
0.034940273
0.03280613
0.033604637
0.023552723
0.008054287
-0.0038296997
-0.016054628
-0.023002509
-0.021033976
-0.010512727
-0.0033582498
-0.009593355
-0.017051417
-0.027609922
-0.0419337
-0.04654268
-0.042711917
-0.02891828
-0.008268192
0.00881688
0.019875707
0.01969374
0.01093204
9.3696546E-4
-0.0029494695
-0.0030163073
-0.011958276
-0.017625067
-0.01518327
-0.0126689
-0.0056713885
-0.0049695154
-0.0029374377
0.010389833
0.01621118
0.01962296
0.024014434
0.02387759
0.02937806
0.041573334
0.04670748
0.022662008
-0.01472255
-0.034876443
-0.040939488
-0.02576787
0.0013253863
0.021702785
0.046055064
0.07126672
0.085802935
0.078136116
0.074323066
0.09583248
0.06368252
-0.033337258
-0.09944898
-0.11591411
-0.10896745
-0.08906186
-0.068752594
-0.052896034
-0.0415343
-0.031200787
-0.027802745
-0.033635695
-0.039356314
-0.04291569
-0.04166007
-0.03571458
-0.028958768
-0.023660222
-0.016499393
-0.0048107584
0.0048234495
0.00883643
0.0024135036
0.011666836
0.05263266
0.07552381
0.07871213
0.08023401
0.06493708
0.04871956
0.028689887
0.03980134
0.09704207
0.09055579
0.03010495
0.005198928
-0.0063153016
-0.015398099
-0.017299926
-0.020257222
-0.017870996
-0.021249786
-0.025722234
-0.02287095
-0.021477677
-0.022134641
-0.024671547
-0.031088483
-0.043952044
-0.049932197
-0.038172394
-0.026576653
-0.027557967
-0.03236049
-0.027054744
-0.016624149
-0.005360851
0.0110821435
0.018728213
0.024668345
0.026878603
0.0041664997
-0.008585824
5.849503E-4
0.0018253786
0.0039023082
0.0095368875
0.011299969
0.015097014
0.015280654
0.009508115
0.0032008223
-0.0026725493
-0.008445538
-0.012044638
-0.012443954
-0.011788241
-0.0073277615
0.0051553985
0.023064371
0.030829316
0.018664366
0.0042091976
-0.0013839717
-5.22422E-4
0.009649817
0.021210182
0.025475565
0.02416822
0.020319447
0.01463682
0.0019960848
-0.014788017
-0.026261358
-0.028577931
-0.019048696
-0.0037960086
0.0036760457
0.002490329
0.002019366
0.0014932073
-0.0046029584
-0.009445447
-0.01003954
-0.009706251
-0.0034943048
0.0047866483
0.005855074
0.00327216
5.032809E-4
-0.0013837285
-0.00455255
-0.013915346
-0.022078179
-0.023131113
-0.01691335
-0.005035834
-3.6725902E-4
-0.0024171227
-7.140886E-4
0.0032504373
0.007405059
0.004958159
-7.7943876E-4
0.0030624147
0.010695283
0.016564047
0.017142825
0.011177743
0.010863477
0.014440063
0.01406936
0.010352981
0.0036045306
0.0018843424
0.008629938
0.012288404
0.0069457334
0.0011828989
-0.0028206366
-0.009286873
-0.014272963
-0.02017855
-0.02475648
-0.021020798
-0.015849408
-0.008655656
-5.2806886E-4
0.0029420853
0.002890746
-0.0032885761
-0.010310555
-0.017622111
-0.02194449
-0.014685441
-0.006816647
0.0042983615
0.014744694
0.01445063
0.017314596
0.009024912
-0.007405449
-0.004363972
-0.0013838157
-0.0044809007
0.0037542516
0.016237676
0.014178934
0.0017789444
0.012774964
0.03044571
0.01651349
-0.001247056
-0.001031599
0.002623527
0.0044791712
0.0047967746
2.2113501E-4
-0.005924796
-5.8549736E-4
0.0050629894
-0.005993219
-0.019661384
-0.027969416
-0.028911915
-0.018589672
-0.0070115747
-4.5528778E-4
-0.0012718935
-0.0053913835
-0.0041753887
-0.0014777826
-0.00273258
-0.008647417
-0.011738427
-0.0038981484
0.007705084
0.014707734
0.0140809985
0.007822512
0.005293522
0.008322275
0.0061515006
-0.006403314
-0.013886023
-0.0031294567
0.013720789
0.021668844
0.01962653
0.012637174
0.004209108
-0.0074062683
-0.021702588
-0.03050031
-0.026958918
-0.01325563
0.0018082458
0.012830832
0.021134038
0.023043774
0.01685881
0.010674489
1.324462E-4
-0.015741223
-0.018196478
-0.0054469476
0.010864034
0.022254782
0.022149438
0.017222133
0.010311669
-0.001453915
-0.013653727
-0.025012733
-0.028211998
-0.018068595
-0.005777549
2.448488E-4
-0.0011848464
-0.0033656175
-4.1837525E-4
-8.567686E-4
-0.008006703
-0.015587039
-0.016874135
-0.008497288
0.001255949
0.0076621296
0.010919793
0.009630437
0.013315897
0.018593691
0.010942345
-4.89171E-4
-0.007255956
-0.0078107435
0.004345493
0.014490159
0.010318216
0.004370503
0.0021309573
0.0018469788
0.0010390476
-0.0032248932
-0.0032354745
0.0020007524
0.0042392635
0.0039924365
0.0036090082
0.0017664131
-0.0032203484
-0.009563947
-0.015015076
-0.022696158
-0.028604953
-0.024670713
-0.013524111
-9.876157E-4
0.005076261
0.0028610153
0.0028497744
0.0033894852
-0.0025149852
-0.00889193
-0.010107387
-0.001859885
0.0112599265
0.0144302575
0.009277556
0.004373191
-2.2081149E-4
-0.0028917517
-0.006966999
-0.013937978
-0.0117418645
0.0014197287
0.012959528
0.018797303
0.020256095
0.020190185
0.024436455
0.028571315
0.026944935
0.021805543
0.015292284
0.015543058
0.022695746
0.02199248
0.013064418
0.006994811
0.004841086
-0.001050362
-0.0142421
-0.027092976
-0.034054317
-0.036234476
-0.03477447
-0.029233284
-0.02315635
-0.02439433
-0.026230313
-0.027605455
-0.04043219
-0.05456634
-0.060497094
-0.05811613
-0.055210102
-0.05560256
-0.013589662
0.06193205
0.0910246
0.08101059
0.06835872
0.049301893
0.0363416
0.031943962
0.031156218
0.03168084
0.025806515
0.02390829
0.027185634
0.02381316
0.014828454
0.006870599
0.004078406
0.0017378863
-0.003945751
-0.0067852177
-0.0016166174
0.0022813857
-0.002654943
-0.01048229
-0.027232122
-0.04672919
-0.052302275
-0.04960699
-0.035133593
-0.015665183
-0.0052204803
0.004262059
0.009637481
0.012512304
0.0034110348
-0.02144721
-0.024712598
-0.018898774
-0.01642945
0.0074517243
0.022293506
0.01881024
0.018535957
0.012132887
0.0053826408
-0.0012786657
-0.010143604
-0.0061747557
0.005674314
0.013464012
0.014868743
0.015315423
0.014897052
0.009913381
0.007839977
0.003167392
-0.005390567
-0.006489623
-0.0033222593
0.0036350123
0.008051741
4.343038E-4
-0.0100161
-0.017314496
-0.018314317
-0.011134672
-0.0030876482
0.0035394698
0.0121425195
0.020779414
0.020080581
0.013213836
0.012213765
0.012241816
0.00583357
-0.0061664693
-0.014436237
-0.009165272
2.4715898E-4
0.0047519044
0.006518376
0.005682484
0.0011119907
-0.0061511626
-0.011372386
-0.017045604
-0.023949938
-0.021861985
-0.014170689
-0.009945054
-0.010732696
-0.013329625
-0.008270586
-0.0012860177
-0.0026027865
-0.00543919
-0.0043119625
0.00221822
0.013224452
0.022760838
0.024269946
0.017196635
0.012778596
0.013529533
0.011494051
0.0047155176
-0.008751179
-0.018160004
-0.010508943
4.712798E-4
0.0013847256
8.9813507E-4
0.0072335415
0.012669335
0.012106495
0.007389738
-0.0050545773
-0.014179797
-0.0101619745
-0.0054875356
-0.004268999
-0.0050874166
-0.00466246
-0.001568836
-0.0061321594
-0.012867454
-0.018437993
-0.02293399
-0.010658933
0.006936204
0.013907273
0.01668958
0.012620155
0.0025576763
-0.006812529
-0.009799229
-0.006791925
-0.0039752186
0.0059448844
0.009711018
-2.7414467E-4
0.0072692977
0.016973088
0.0045623616
-0.0013282618
-4.579294E-4
-0.005832097
-0.002647842
0.0059219096
0.0075483704
0.004846698
0.003752371
0.004403821
0.0023404807
-0.0028060502
-0.009133885
-0.012458162
-0.00787447
0.0028400302
0.011760206
0.011337895
0.00678295
0.0035708728
-0.0014979251
-0.0046242336
-0.0052922494
-0.0046225246
0.0030534684
0.015790626
0.02357652
0.015121422
-8.193688E-4
-0.007488164
-0.01369705
-0.022766706
-0.028340725
-0.029080978
-0.017891416
-0.0026357616
0.0073673236
0.010627316
0.0029348875
-9.4188185E-4
0.004158656
0.0043864357
-0.0031804594
-0.017465815
-0.026839813
-0.020588558
-0.0039206105
0.009786096
0.0085628955
0.008833324
0.017276216
0.011429928
-0.0015401285
-0.005352383
-0.002599855
0.005716194
0.015070693
0.02060092
0.02024164
0.014046012
0.0074869758
0.0029339318
-0.0013390408
-0.007072844
-0.00821359
-0.0011675921
0.002527487
-2.4139052E-4
6.453052E-5
0.0057897493
0.015608343
0.026621869
0.023863224
-0.0013129108
-0.030155597
-0.036842342
-0.016271807
0.0042691967
0.0073022167
0.010802149
0.008679412
-0.00576013
-0.01078413
-0.01762658
-0.032149278
-0.030158225
-0.011430061
0.0077055027
0.009177169
-0.003848984
-0.010188158
-0.0100756055
-0.00738335
-0.0033548407
-8.1582024E-4
0.0059673255
0.014669913
0.017227193
0.012866382
0.0090051275
0.010506992
0.009588119
0.0031823725
-0.0018741286
-1.2799885E-4
0.0062424843
0.012541277
0.016826479
0.012281388
0.00460337
0.0055355127
0.0049385442
-0.001443277
-0.0059210686
-0.007419615
-0.0050716633
-0.0041824975
-0.0054637482
-0.002071457
-2.9091604E-4
-3.0484062E-4
0.0026802411
-0.0032970628
-0.0145614715
-0.010878414
0.002057523
0.009512266
0.012719209
0.01107627
0.0034468304
-0.002665601
-0.005676332
-0.013463208
-0.026387297
-0.03234273
-0.023350764
-0.0071226344
5.3771614E-4
-0.0033046084
-0.0036389849
0.0036329024
0.0041203345
-0.0033980543
-0.0053765047
-0.0015989557
0.0027609917
0.008114878
0.009868386
0.011224829
0.015493611
0.016945146
0.018745683
0.011809779
-0.001387294
0.005902896
0.020023746
0.028445708
0.040033612
0.03798944
0.022696098
0.0064544515
-0.0017112526
0.0015916323
-0.00855557
-0.018701963
-0.021168606
-0.045232438
-0.05269389
-0.034399208
-0.031030944
-0.02198956
-0.009704437
-0.0071651647
0.0022308684
0.0033790045
0.00334956
0.0038242168
-0.014211143
-0.011218013
0.017518269
0.021303926
-7.0565473E-4
-0.020702103
-0.020277334
-0.003380367
0.00786219
0.010362244
0.011692647
0.01735839
0.030271899
0.038614996
0.027836617
0.005543827
-0.007234099
-0.014035338
-0.022221483
-0.015292416
9.314874E-4
0.007818277
0.012008378
0.015102203
0.014741388
0.016733905
0.011778705
-0.0016419769
-0.0041020135
0.0034323602
0.0072248005
0.008749049
0.008619361
0.0063472358
8.69395E-4
-0.013970318
-0.028553454
-0.029568935
-0.02163503
-0.015498786
-0.017899923
-0.026004953
-0.026326358
-0.016748847
-0.016407955
-0.02339613
-0.0195954
-0.0050252983
0.024055885
0.047003675
0.038622774
0.030120969
0.034558106
0.033096172
0.011479712
-0.029577356
-0.04291023
-0.02988996
-0.0234932
0.001476833
0.018957732
0.007005634
0.01914951
0.05316898
0.06319327
0.016254976
-0.061307758
-0.07838386
-0.032105662
-0.0019562896
-0.0054692887
0.011047597
0.06358139
0.07628033
0.022916697
-0.025468271
-0.027630657
-1.18222466E-4
0.010785111
0.001366603
0.0019443925
-0.022838805
-0.06121807
-0.03891292
0.031826124
0.1044601
0.12898864
0.07599325
-0.005606738
-0.09392987
-0.15565504
-0.11686753
-0.04364213
-0.015635882
0.0145365
0.042223983
0.045985077
0.049819224
0.021816727
-0.031126337
-0.059007976
-0.062294148
-0.041793473
-0.018503483
0.0024733047
0.03147035
0.011421421
-0.035267044
-0.01926528
0.016473923
-0.029283714
-0.13216297
-0.12012156
0.063706525
0.21481587
0.18909419
0.07663709
0.012511596
0.057443816
0.16400218
0.19416985
0.11271128
0.03273163
-0.006189976
-0.024992501
-0.041545227
-0.07883007
-0.06257514
-0.029542707
-0.084489875
-0.104877844
-0.053792596
-0.02078789
0.0012168726
0.014989015
0.061694533
0.090713866
-0.002035844
-0.10521309
-0.13806549
-0.12679906
-0.088223614
-0.07358681
-0.07126139
-0.052007575
-0.02359034
0.008089782
0.02714914
0.04366041
0.045638572
0.03153969
0.025661673
-0.009616238
-0.07160106
-0.12345412
-0.16257538
-0.14355943
-0.06094632
0.005585481
0.071361944
0.1968044
0.2848954
0.27634242
0.24909234
0.18422665
0.07740737
0.022391185
0.038170695
0.07963827
0.10362342
0.11791544
0.1256485
0.12101838
0.122599564
0.03113385
-0.15008043
-0.23929901
-0.24684362
-0.24250409
-0.2122923
-0.187948
-0.16620757
-0.14027126
-0.123962805
-0.10186787
-0.08534149
-0.07701789
-0.059038647
-0.034544926
-0.01560647
0.0014857833
0.02964518
0.054355815
0.072654195
0.09180758
0.09510435
0.089510754
0.088491425
0.0933077
0.10507406
0.108853534
0.096029475
0.07214015
0.047013417
0.024166336
-0.0012189694
-0.015820872
-0.014654606
-0.01640718
-0.0221521
-0.017859794
-0.005189575
5.184457E-4
0.004720527
0.019201815
0.021315722
0.0016174762
-0.00970688
-0.002828138
0.0035527733
8.806751E-4
-0.008265581
-0.019798804
-0.025774974
-0.026119633
-0.033842828
-0.04778782
-0.05649865
-0.062482808
-0.05750444
-0.036456898
-0.026175529
-0.018883348
0.006137959
0.020043718
0.02667994
0.03429427
0.009872653
-0.016198957
-0.010317412
-0.0021740147
0.0011675829
0.007249726
0.018710587
0.037920453
0.049061928
0.042646497
0.018251333
-0.009991123
-0.016032439
-0.0028910653
0.010700262
0.011257856
-0.0033614729
-0.015037516
-0.014293965
-0.014336795
-0.0202205
-0.015931888
-0.0010718448
0.008198811
0.015992872
0.023932334
0.02299023
0.014398422
0.0034706374
-8.23228E-4
-0.001662268
-0.0033271436
0.0036119376
0.009944081
0.007626101
0.004970872
0.003253841
0.0017929219
-0.002623119
-0.010314771
-0.016195534
-0.01409985
-0.0040345583
0.0018686166
0.010054022
0.018208139
0.006397908
-0.007928153
-0.015056024
-0.018451389
-0.008122444
0.0062237303
0.026272306
0.03499915
0.0071571292
-0.0052500204
0.01135817
0.0072057676
-0.008184521
-0.015607251
-0.017591428
-0.00856964
0.0027589663
0.0073418356
0.0067546233
0.005377016
0.0047383336
-3.819724E-4
-0.005179321
-0.008923727
-0.019611552
-0.021909088
-0.0056215455
0.007091934
0.008061187
0.008145416
0.006045187
0.0033585723
0.0030584768
-0.0010845271
-0.004039764
0.0015734073
0.008983563
0.009833925
0.0056689624
0.0052374434
0.008286807
0.0058114748
-0.00192847
-0.003693539
6.074014E-4
-0.0045054355
-0.009998584
-0.0014699703
0.0011735077
-0.0026263443
0.002233891
0.0055420115
0.0054176725
-6.459743E-5
-0.010632784
-0.009797918
-0.0075203804
-0.0077224774
0.0042137234
0.011448556
0.0048076287
-0.002495896
-0.0070181713
-0.009305473
-0.01537681
-0.021591133
-0.016283564
-0.00781443
-0.0056338958
-0.007877597
-0.011080608
-0.006464306
0.0137404455
0.037151013
0.036513064
0.01104922
-0.008299427
-0.007843722
-0.0022326997
0.0035004716
0.014663665
0.02011403
0.0139273815
0.0042128866
-0.006315743
-0.008349939
-0.0012200656
0.0027406893
0.0057250587
0.007239777
0.0061454573
0.0104512395
0.014488589
0.0046938397
-0.014017517
-0.017864993
-0.008197655
-0.002974014
0.0062515535
0.014966669
0.008965983
-0.0015616987
-0.013621976
-0.02588758
-0.030641034
-0.030250594
-0.02736655
-0.022205159
-0.012856969
-0.0033933998
-0.002662986
-0.005817224
-0.0073399898
-0.013410776
-0.024617137
-0.030217098
-0.025056891
-0.005828713
0.025397537
0.041497104
0.037956886
0.037395578
0.032746185
0.025125911
0.02591451
0.019639298
0.013169867
0.01947123
0.021663614
0.02092808
0.025078924
0.026095312
0.025963008
0.018067284
-0.0037343788
-0.02274227
-0.036625054
-0.041493822
-0.02936068
-0.022995193
-0.022447657
-0.01342804
-0.012793343
-0.019200467
-0.02260708
-0.024915038
-0.016429838
3.7125222E-4
0.0064594094
-0.008781598
-0.025615914
-0.019321622
-0.008686548
-0.0093425205
-0.00911715
-0.0041473345
0.008340171
0.02385855
0.03036534
0.026157135
0.017007241
0.015130766
0.01632796
0.0055603115
-0.0056327763
-0.0040394147
0.0020787776
0.007211818
0.011548153
0.012583817
0.011060653
0.007680073
0.0025300896
-0.0011677076
-0.005264163
-0.008560427
-0.004497184
0.001397826
0.0029298754
0.0034353924
0.0050825886
0.0051686647
-9.742994E-4
-0.00979689
-0.012803799
-0.0067879013
0.005831545
0.012761728
0.005776669
-0.003556586
-0.003179217
0.0016204376
0.002663241
-2.747572E-4
-0.006988484
-0.011597213
-0.008623306
-0.0026189731
0.005613924
0.0086391885
-0.0012195499
-0.010187415
-0.010216601
-0.0064942725
-0.007159261
-0.014723711
-0.013455547
-0.004174286
-5.1456946E-4
0.0030059263
0.004472459
-4.797495E-4
-0.004850415
-0.0087347245
-0.013555871
-0.014968204
-0.0075766775
0.0057581486
0.017073918
0.02244923
0.017239751
0.007883403
0.0020604155
-0.0048147617
-0.008846153
-0.009156046
-0.0076759174
0.0013092358
0.010028552
0.013725718
0.015560658
0.0140221035
0.0172153
0.02144903
0.014904877
0.008674458
0.010023723
0.014415981
0.019141028
0.018538114
0.015225927
0.011294614
3.0359035E-4
-0.014141434
-0.02593543
-0.03238214
-0.030554162
-0.023667784
-0.017094664
-0.017066345
-0.020619778
-0.017447839
-0.01597939
-0.024736647
-0.034131873
-0.03591641
-0.026934868
-0.011135743
0.0034286976
0.014654407
0.02233665
0.025252052
0.020877583
0.009552114
-0.0025467924
-0.004675793
0.007836759
0.023554314
0.03852085
0.050936908
0.046493653
0.032830905
0.021476561
0.0071261623
-0.0046048034
-0.013188735
-0.019158337
-0.013026038
-0.0029825878
4.575313E-4
-0.0019613162
-0.0069102864
-0.008853205
-0.011206082
-0.017578157
-0.024617573
-0.026216304
-0.01801589
-0.012291074
-0.009728511
0.0051177805
0.019710403
0.018463105
0.005565559
-0.013156453
-0.02291867
-0.016207943
-0.0041665426
0.006374111
0.013239854
0.015149861
0.013356245
0.0107742995
0.008520741
5.9069926E-4
-0.009311282
-0.011162329
-0.007447728
-1.8721918E-5
0.006103574
0.0040619876
0.002675158
0.0043870076
0.0029345357
2.1054132E-4
-0.0048140413
-0.009729505
-0.0050832676
0.00765856
0.017079545
0.015334553
0.007434281
0.003045686
-1.9224444E-4
-0.00832446
-0.015649194
-0.014227967
-0.0069022216
-9.230118E-5
0.0034961675
0.0037617239
0.003088951
0.0032524609
0.0021006688
-0.004534133
-0.012511526
-0.0108738905
-0.00252645
0.0034588648
0.009812526
0.015476563
0.012586791
0.0058119446
0.0019831995
-0.0049334504
-0.013903752
-0.015041349
-0.008252964
0.00349059
0.012116922
0.008086805
0.0024020362
0.005709293
0.0072368784
-0.0018300684
-0.0117312735
-0.011011317
-0.004299735
0.0037023642
0.009922273
0.005222822
-0.0013127232
0.0025486625
0.0061135683
4.181085E-4
-0.0085220365
-0.0101528065
-0.004003335
0.0017115058
0.0057376
0.0057123504
0.0012407625
2.0198076E-4
4.0273313E-5
-0.004802491
-0.010230138
-0.011482585
-0.00503412
0.00568643
0.010879561
0.010315362
0.0095417015
0.008013595
0.0043891883
-5.4725324E-4
-0.0061188713
-0.009965853
-0.008560395
-4.942238E-4
0.008401436
0.010307309
0.0059489105
-0.0012056669
-0.008792385
-0.014697482
-0.01737539
-0.013425641
-0.004828629
0.003583333
0.010117464
0.012361074
0.010977353
0.006107656
-0.0014403308
-0.007610718
-0.013353552
-0.016073052
-0.010267075
0.0021145765
0.013306835
0.016177392
0.015437812
0.015347684
0.011580943
0.0022906193
-0.011013741
-0.015326305
-0.0063080075
0.0015350209
0.0075953947
0.010712087
0.005197627
0.00116564
5.419572E-4
-0.003700986
-0.0107364105
-0.014660146
-0.011708711
-0.006303218
-1.3295395E-4
0.0048959707
0.005078098
0.0050482587
0.0031403587
-0.0037869595
-0.010058731
-0.012121775
-0.006174811
0.0055810628
0.011751236
0.009390454
0.0062521677
0.004999653
3.6524993E-4
-0.0062819584
-0.010013768
-0.009018608
-0.0021354065
0.0041143405
0.009036481
0.016473768
0.014788431
0.005085456
7.535957E-4
-0.0045849583
-0.01326381
-0.013756819
-0.0045127645
0.0054820115
0.007269609
0.0045082932
0.005125033
0.0035628541
-0.003558165
-0.009976097
-0.013122693
-0.013079013
-0.0086009195
-1.2162311E-4
0.0047554458
0.0027294687
0.003688094
0.004221231
-0.0034091575
-0.0102363555
-0.015640981
-0.01286821
0.008047171
0.02297813
0.01907262
0.011785077
0.00574625
0.0040521286
0.0065973443
0.0034524458
-0.0065352623
-0.015469605
-0.014174834
-0.0028599077
0.008200249
0.012874034
0.012830342
0.011108315
0.005544557
-0.0043505356
-0.013564008
-0.0170327
-0.010959458
-0.0011703722
0.0034175948
0.0058119353
0.010241027
0.0104169315
0.001404677
-0.007184489
-0.009504365
-0.011945555
-0.011523933
-0.004063218
0.0035244746
0.0032372877
-0.004734297
-0.006752599
-0.0010305817
-0.0029869701
-0.010043003
-0.010260338
-0.0031585752
0.0061841635
0.010037869
0.010387533
0.014336372
0.01672977
0.014213003
0.007515302
-0.005632294
-0.015533499
-0.009598286
0.0058139567
0.014568566
0.011020173
0.005337864
0.0053576664
0.0038319381
-0.004176421
-0.012507951
-0.016339492
-0.013446798
-0.0033215806
0.0061171376
0.008610937
0.006324693
7.3979254E-4
-0.0041798516
-0.006270928
-0.00923167
-0.011769316
-0.01270688
-0.009388457
4.4163433E-4
0.0071503813
0.008025025
0.008525069
0.008254188
0.0060899495
-6.543947E-4
-0.0075020087
-0.0056836577
0.0014222437
0.008301157
0.0130464425
0.01146138
7.7959494E-4
-0.0077895
-0.004331474
-0.002851832
-0.007567628
-0.0075475913
-0.0028537433
0.0065658726
0.01239311
0.009292422
0.0078711435
0.0022478127
-0.00993412
-0.014807782
-0.012332534
-0.0060106567
0.003007157
0.008085074
0.0063851187
0.0041588224
0.0055384403
0.0046127806
8.772544E-4
-0.004126727
-0.012149848
-0.013096497
-0.0044145333
0.0016245553
0.0045360895
0.008644783
0.008469775
0.0028268844
-0.0023775618
-0.007353936
-0.008878301
-0.0018379668
0.0034555255
0.00155385
0.0017388193
0.006970113
0.0096827
0.005072037
-0.001075065
-0.0058336044
-0.009886336
-0.009551284
-0.005075851
0.0024695867
0.009232645
0.012812842
0.014447972
0.0031362171
-0.015978342
-0.020919528
-0.013707048
-0.004257685
0.0034519657
0.009164487
0.014452666
0.012106694
0.006021567
0.0043090004
-0.0010321048
-0.01145834
-0.018716365
-0.016860524
-0.0070359586
0.0048909686
0.016528217
0.019136013
0.010953965
0.004780919
-8.0428453E-4
-0.00895315
-0.012023221
-0.0109975785
-0.0065772934
0.0024014954
0.009188718
0.011737261
0.011045377
0.00491158
-0.00267625
-0.0077597937
-0.012005867
-0.01345528
-0.010203151
-0.0033447572
0.005822218
0.011399921
0.0116724735
0.009292363
-0.001211438
-0.0155672515
-0.01876001
-0.012507027
-0.002684885
0.012163906
0.021914518
0.017204491
0.009112176
0.004431076
-0.0052825753
-0.013124504
-0.010056242
-0.0071126125
-0.0037918864
0.0046001747
0.0068586846
0.004468438
0.004867236
0.003077423
-0.0015855684
-0.009043494
-0.017325755
-0.014168766
1.1844806E-4
0.013986412
0.020784335
0.017263
0.010859008
0.0076406305
0.0027252834
-0.0055851312
-0.015106267
-0.018013593
-0.011147545
-0.0023996148
0.004209636
0.0069725676
0.008469184
0.008064338
7.570392E-4
-0.008767949
-0.018949252
-0.01944691
-0.0044204877
0.005669745
0.008181797
0.009301798
0.0077598277
0.005694773
-5.340688E-4
-0.0037610303
-0.005938197
-0.010791137
-0.004328974
0.0049608313
0.011484827
0.014591305
0.010091334
0.008450898
0.0026098872
-2.997834E-4
-4.791402E-4
-0.01603484
-0.014652968
-0.0021667096
-0.0054002446
0.002543031
0.014588259
0.013054912
-0.0027293637
-0.02078743
-0.013620928
-0.003885845
-0.0016929528
0.008308192
0.009013183
0.0067730807
0.006126307
0.0023460584
0.004187212
-0.0032644956
-0.0155215245
-0.011746196
0.0013532349
0.010121796
0.008526382
0.005127867
0.004317493
0.0047765854
0.0050118063
-0.005768313
-0.015633238
-0.010511899
-0.0022772008
0.0037732457
0.006006651
0.004461897
0.004513992
0.0039623003
0.002134885
-0.0019314567
-0.00943441
-0.010657466
-0.00159199
0.0073702093
0.010318773
0.010746961
0.009783466
0.005019414
-0.0016387755
-0.0074818665
-0.014023004
-0.014828615
-0.0059199305
-0.0010354181
-0.0014356475
9.987283E-4
0.001900655
0.00285459
0.0033531946
-0.0014489358
-0.007348498
-0.010886443
-0.0047845216
0.009028319
0.014834674
0.012162916
0.008168903
0.0050593223
0.0017542334
-0.006049043
-0.014428443
-0.01321307
-0.002775311
0.006868414
0.0120285675
0.012975448
0.009070536
0.003961158
6.4831524E-4
-0.0033750331
-0.014081105
-0.021532193
-0.008718219
0.008404248
0.010954953
0.0064535853
0.002771191
0.003613293
0.0035122258
-0.0036459938
-0.010106003
-0.011794742
-0.007961681
-0.0012551361
0.0037579194
0.008974213
0.010025222
0.0059880908
0.0013183384
-0.0046084463
-0.009177939
-0.012621283
-0.01092554
1.7347327E-4
0.007863878
0.009416609
0.013788554
0.014544081
0.0047390666
-0.0071066604
-0.012348272
-0.012426497
-0.007154515
0.0022198914
0.0067032003
0.007329464
0.007914486
0.005306236
0.004185427
0.004200387
-0.0030014887
-0.013450112
-0.017251108
-0.008933353
0.0056162006
0.013750577
0.014502697
0.010374
0.0013366237
-0.008894293
-0.016282674
-0.01712717
-0.012857752
-0.0048845126
0.004611951
0.0067104585
0.0055709654
0.007495446
0.007918862
0.0056822957
-7.424236E-4
-0.0056982622
-0.0027367575
0.0035098863
0.008249153
0.008135792
0.00860096
0.007481563
0.00183417
0.0010642705
-0.00652511
-0.013475382
-0.004686975
-7.6755224E-4
0.002451383
0.0021923878
-0.004138755
0.006854195
-3.8930022E-5
-0.02444686
-0.01686295
-0.0063006757
-0.00731324