0.0024113243
3.1883805E-4
-2.9299755E-4
-9.948779E-6
-3.9848228E-4
-4.4958296E-4
-7.342631E-4
2.4939026E-4
0.0012824605
2.916326E-4
-7.445638E-5
-0.0010170323
-0.0023324613
-3.1180176E-4
7.413176E-4
-0.002035957
-0.0025002973
1.00334575E-4
4.363091E-4
1.3704826E-4
0.0015710075
0.0014134415
3.1019175E-5
-4.0715316E-4
-1.7021383E-4
3.7576054E-4
4.0613065E-4
4.8276465E-4
2.8515304E-4
9.569165E-5
0.0013037618
0.0015532138
7.0531125E-4
1.13794435E-4
-4.7933846E-4
-9.5952646E-4
-0.0016082582
-4.0083786E-4
-7.089605E-4
-0.0042077405
-0.0022578768
0.0016557287
0.0017310433
0.001786891
-6.147055E-4
-0.0027881993
-9.742424E-4
-5.686059E-4
-4.3692075E-6
0.0023431964
0.0026874063
0.0015816686
7.714471E-4
6.678107E-4
0.0012810313
0.0020690393
0.0015639364
-2.9408975E-4
-0.0011205476
-4.921663E-4
6.816512E-4
9.6866937E-4
-2.609113E-4
-3.172802E-4
0.0010776143
6.698403E-4
-0.0016110484
-0.0030781624
-0.004144065
-0.004613501
-0.0017270407
5.8447744E-4
-1.5765987E-4
2.7513856E-4
1.790651E-4
-4.5884098E-4
0.0010783608
3.890455E-4
-0.0019056917
-6.764317E-4
0.002053803
0.0027438104
0.0016857997
0.0011615906
0.0012454026
-5.1991738E-6
-0.0012687017
-8.436067E-4
4.614E-5
0.0011094103
0.0023599393
0.002440481
0.0010726881
-5.691333E-4
-2.4983234E-4
0.0011336139
-4.0072546E-4
-0.0022910598
-0.0012078733
-1.0521835E-4
1.1126292E-4
-3.6749823E-4
-5.1301153E-4
0.0014449379
0.0017204618
3.2016973E-7
-4.8786442E-4
-6.549758E-4
1.2693804E-4
7.502971E-4
6.761991E-4
0.0021208774
0.0014971182
-6.7599246E-4
-5.6374527E-4
-1.8182506E-4
-1.328262E-4
-0.0017666033
-0.0034050636
-0.0019883474
-0.0027015365
-0.0037564258
-0.0014262554
-3.416648E-4
-6.6037726E-5
-5.075991E-4
-0.0018807377
-9.421864E-4
0.0016336633
0.004125305
0.0027237067
-5.026937E-4
-1.3313159E-4
-2.734501E-4
-1.200895E-4
7.2157313E-4
9.863176E-5
0.0031200743
0.0046518142
0.0032339967
0.005209092
0.004498057
0.0013716385
-9.985052E-5
-0.0012536129
-6.9260783E-4
-0.0018476271
-0.0041057467
-0.0041151303
-0.0032916756
-4.2890076E-4
5.9404765E-4
-0.0014482908
-0.0012939848
-6.709588E-4
-0.0011788992
-0.0017190326
-0.0014479703
-4.6237218E-4
-4.1383033E-4
1.797045E-4
7.8568165E-4
5.0270645E-4
0.0010350618
0.0010872898
4.817619E-4
-5.8309967E-4
-9.5981255E-4
8.674261E-4
0.001273402
9.32727E-4
0.001683447
0.0010964313
2.648135E-4
-7.7305804E-4
-0.0011067523
2.7996892E-4
-1.8785971E-4
-3.282129E-4
3.9622926E-5
-0.0023511893
-0.0013147157
0.0024731625
0.002181845
0.0012784539
6.995693E-4
-0.0011808213
-8.999404E-4
8.7471935E-4
0.0016669258
0.0012335263
1.0956789E-4
9.115113E-4
0.002045704
-2.1658298E-4
-0.0027786195
-0.0029862334
-0.0020016725
-2.239052E-5
4.3443104E-4
-0.0011470335
-9.76877E-4
-4.732438E-4
-0.0012014398
-0.0010967304
-0.0013855179
-0.0015413021
2.0481519E-5
0.0015186827
0.0022642761
0.0014300229
-6.919387E-8
6.419155E-4
0.0013456906
3.17878E-4
-2.8942488E-6
0.0016331989
0.0019531653
-7.029716E-5
-6.5444375E-4
-2.0430524E-4
1.3038435E-4
8.233213E-4
5.6596415E-4
0.001267038
0.001836434
2.5307128E-4
-1.7862469E-4
-3.2231607E-4
-2.2674163E-4
-7.437431E-5
-0.002494009
-0.0028232634
-5.411428E-4
-1.5254266E-4
-7.14823E-4
-0.0020239644
-0.0023787725
-1.941731E-4
0.001004513
4.5632615E-4
4.9540584E-5
5.13006E-5
-1.3922147E-5
3.7327493E-4
9.774336E-4
-2.561428E-4
-7.916193E-4
0.0010144056
9.227653E-4
2.2715803E-4
0.001528952
0.001947726
5.088593E-4
-0.0010715488
-7.355381E-4
-4.0822016E-4
-0.0015302686
-7.4070944E-5
6.4882595E-4
-0.0018485314
-0.0017274931
-6.6104694E-4
-7.886524E-4
-9.948089E-5
4.22067E-4
5.8003253E-4
4.7025306E-4
0.0013713727
0.0020289319
0.0016289204
0.0033526723
0.0029868693
0.0010765633
0.0018498414
0.0013476685
4.0651343E-4
-0.001085508
-0.0016230971
-1.4635701E-4
-0.0013757808
0.0017764518
0.0037940794
-0.0017330608
-0.0016113035
-0.00557266
-0.012165062
-0.0024393662
0.0051430487
-0.0015716607
-0.008270602
-0.006399127
0.0021202131
0.00542273
0.0027828712
0.0015225817
9.343746E-4
0.001569891
0.001719895
0.0011118946
0.0018465334
0.0018047706
0.001159196
2.8756593E-4
-4.3081623E-4
2.750488E-4
0.0017149375
0.0016646108
-2.0073698E-4
9.402986E-4
0.0026212216
9.014068E-5
-0.001047372
-5.702039E-4
-0.00141758
-0.0017550683
-0.0020378781
-0.0013206712
-1.6418949E-4
-0.0010723706
-9.961262E-4
0.0013333277
0.0014372661
-4.9014814E-4
1.6255991E-4
0.0013378583
6.461584E-4
8.0340996E-4
0.0012247041
9.4573933E-4
3.3708246E-4
-5.0782645E-4
-3.5669236E-4
-0.0010107075
-0.0026792092
-0.0020350993
-5.263076E-4
-4.620337E-4
-5.755705E-4
-5.470906E-4
-3.7656742E-4
3.4743434E-4
7.520025E-4
0.0010206524
0.0010478315
6.545137E-4
8.3032256E-4
-6.530927E-4
-0.002400733
-0.0010537959
-4.3529161E-4
1.3119588E-4
0.001573675
7.200816E-4
5.3605845E-4
9.974982E-4
-9.773771E-6
-7.68899E-4
-0.001138076
-7.1314955E-4
1.01286925E-4
5.9949484E-4
4.3549613E-4
4.4612263E-4
0.0019989905
0.001003047
-0.0011903722
-5.3862575E-4
-8.5042726E-4
-3.227697E-4
0.002266602
0.0019345471
4.0183007E-4
4.90651E-4
1.9140728E-4
-0.0014674607
-1.2213037E-4
0.002662347
-8.201949E-4
-0.0029130585
0.0013006657
0.0015150488
1.09933375E-4
0.0012844669
-0.0019877816
-0.0065094787
-0.0041517876
2.3241801E-4
5.883403E-4
6.4917497E-4
0.0013095083
9.1710687E-4
0.0017211983
0.001545975
-1.9427731E-4
-3.6814957E-4
-2.0042318E-4
-2.2287517E-4
-3.6604132E-4
-3.2846417E-4
2.7336E-4
-2.8583437E-4
-7.137943E-4
-8.6124695E-4
-0.0011290634
2.5087618E-4
4.968674E-4
-4.8038148E-4
-2.626405E-4
-8.8131834E-5
8.453099E-4
0.001965555
0.0023534803
0.002654965
0.0012919047
4.902677E-4
8.6531177E-4
-3.9736912E-4
-7.161375E-4
-2.0172757E-4
-5.7604717E-4
5.10817E-5
8.850956E-5
-1.0414575E-4
9.786908E-4
1.32571E-4
-0.0013034665
-9.923958E-4
-9.7548985E-4
-4.2856828E-4
4.9691263E-4
-6.3530446E-5
-8.5281313E-4
-0.0014483634
-0.0011398069
-0.0011273356
-0.00400733
-0.004279909
-7.796304E-4
1.07061605E-4
5.909523E-4
0.0018444173
0.0010249122
7.2362117E-4
0.0012412124
0.0017480272
0.0022239021
0.0018379914
0.0031467304
0.003344996
-9.633786E-4
-0.003354723
-0.0020463404
-9.852661E-4
-9.3693816E-4
-0.0015434336
-7.278131E-4
0.0015416573
0.0025823421
0.0022556074
9.991409E-4
9.864873E-5
9.0243074E-4
0.0012620263
-4.6622066E-5
-0.0011106607
-0.0015608822
-0.0024721948
-0.0024889281
-4.9811765E-4
0.0013104408
0.0015279725
8.961103E-4
3.7456097E-4
1.2914237E-4
-4.217707E-4
-2.56648E-4
6.1458955E-4
7.288225E-5
-2.0637884E-4
1.7361631E-4
-0.0013386708
-9.987022E-4
0.0014657276
5.800524E-4
-2.0277712E-5
2.4405004E-4
-0.003527085
-0.004050965
5.4122234E-4
0.001459488
8.571882E-4
0.0010916739
7.005206E-5
4.6076305E-4
1.3113E-4
-0.0018734593
-0.0011937596
1.1507026E-4
-4.2831473E-4
-0.0013957279
-0.0011134411
3.1932103E-4
4.4656167E-4
0.00118283
0.0028434773
0.0017697309
0.0011182913
0.002162459
0.0016902976
0.0015659546
0.002237389
8.715007E-4
-0.0014676144
-0.0015759609
-1.9622756E-4
8.785392E-5
-3.3345807E-4
-0.0010362965
-0.0016479137
-0.0015742864
-0.0018008525
-0.0010527563
0.0010982371
9.415941E-4
-0.0015607455
-0.0015531938
8.991762E-4
0.0012741653
2.3187108E-4
-1.5145075E-4
9.694153E-5
-3.5549822E-4
-0.0027801231
-0.001247625
0.0037339772
0.0041166437
0.002188164
-1.5306997E-4
-9.944226E-4
0.0017072437
0.0011254551
4.3486152E-4
0.0018489696
-0.0020567062
-0.005996123
-0.006266047
-0.005347188
-0.0028526036
-0.0020595777
-8.1216026E-4
0.0031910685
0.0057722507
0.0055802832
0.0029364978
9.046844E-4
5.873695E-4
6.432214E-4
0.0011151601
-0.001448288
-0.004199558
-0.0028583829
-7.5803336E-4
0.001903337
0.002713362
9.813247E-4
0.0010243797
4.703781E-4
-2.0956155E-4
9.141688E-4
0.0014332401
0.0011880234
3.464991E-4
6.7883724E-4
1.1275848E-4
-0.0021096328
-2.1899091E-4
0.0014435962
4.2539946E-4
6.537898E-4
-4.884793E-4
-0.0017821572
-0.0015961605
6.376033E-4
0.0035912564
0.0025811333
0.0026120474
0.002103271
1.5158035E-4
0.0024772892
-0.0054141246
-0.016460128
-0.007884988
0.0013976893
-6.005671E-4
-6.296161E-4
3.8835223E-4
-2.90992E-4
-5.5256515E-4
6.9403194E-4
0.0021526115
5.834331E-4
-7.403232E-4
2.2550701E-4
0.0010234112
4.1763642E-4
-9.303778E-4
-1.6932812E-4
0.001524309
0.0022934321
0.003588712
0.0048363884
0.005394618
0.0046077967
0.00136095
-0.0028502205
-0.0041530603
-0.001514542
-1.483751E-4
-8.858747E-4
4.8643156E-4
0.0023327682
0.0024938583
0.0012887628
-0.0014037646
-0.0030649048
-0.0018530688
-2.7332007E-4
-3.3889413E-5
7.6777197E-4
0.001650768
-3.201253E-4
-0.0028411776
-0.002427003
-6.161817E-4
-3.1566428E-4
-0.002144628
-0.0027660192
-1.8029596E-4
0.0017271314
0.0017908933
0.0019347429
7.816568E-5
-0.0032460522
-0.0042309444
-0.0036779547
-0.0025660188
-0.0014485097
-0.001322481
8.1132347E-4
0.0033628137
0.0026963605
0.0016519843
1.7647486E-4
-4.7153537E-4
0.0016995735
0.001440529
5.611299E-4
0.001534353
2.655495E-5
6.201277E-4
0.0035227279
0.00281164
0.0030110402
0.0034356604
3.36298E-4
-4.5179648E-4
0.0019479161
0.0022918181
-2.2790815E-4
-0.0024086914
-0.0030230503
-0.002728954
-5.4274406E-4
5.396981E-4
-0.0015352209
-0.0029782527
-0.0034167492
-0.0031327435
-0.0026413265
-0.003062527
-0.0011436751
0.001468823
0.0015861084
0.0010382619
-2.9685113E-4
-5.27223E-4
0.0011524191
8.908786E-4
1.3820922E-4
0.0021934311
0.0047121854
0.0033910503
8.3987374E-4
0.0019625062
0.0014072752
-0.0019105043
-0.0015474579
-0.0016547836
-0.0038260883
-0.0023480237
-1.8142379E-4
-8.635601E-5
4.334241E-4
7.7012787E-4
1.9962952E-4
-9.147656E-5
-0.0011610839
-0.0036039057
-0.002287022
0.002536589
0.0021298393
-0.0011263328
-4.4231868E-4
3.1744543E-4
3.5117258E-4
0.0021834841
0.0033448383
0.0036908202
0.0035298406
9.512771E-4
-0.001414883
-0.0010362909
-0.0012400569
-0.0025269995
-0.0018322575
-0.001330509
-0.0023242394
-0.0020251924
-0.0018833915
-0.0024367557
-7.525051E-4
0.0012667621
0.0017785942
0.0020757606
0.0010424311
-4.779473E-4
-3.599663E-4
2.2193874E-4
9.31635E-4
1.9659147E-4
-9.0185535E-4
0.002353633
0.003224093
-0.0014440817
-0.0012104649
0.0015819102
8.4742164E-4
4.6610498E-4
5.487416E-4
0.0017789678
0.0023491685
-9.394987E-4
-9.727637E-4
0.0016409841
-2.5667287E-5
-0.0019225291
-5.6868925E-4
-9.510262E-5
-0.004000819
-0.005764895
-9.1092504E-4
0.0014294347
2.6028912E-4
8.825533E-4
7.6623604E-4
4.97124E-4
1.3529643E-4
-0.0017352593
-0.001561302
5.670204E-4
0.001321641
4.1080132E-4
5.6143437E-4
0.0016249209
-7.13715E-5
-0.0022605644
-0.0024077024
-0.0030156476
-0.0038837844
-0.00399056
-0.0034917789
-0.002591526
-0.0016646138
-1.3225127E-4
6.626867E-4
4.88211E-5
5.77243E-4
0.0019652436
0.002428834
0.0035114153
0.0060846023
0.0075879926
0.006908043
0.0047991737
0.0019910878
0.0022059064
0.0060212216
0.0072887177
0.0044116983
4.7419046E-4
-0.0029709607
-0.003330636
-6.0463764E-5
0.0023404665
7.0026057E-4
-0.0039783088
-0.009784632
-0.013759756
-0.0128633715
-0.008971693
-0.0051775253
-0.0029675898
-0.004687946
-0.0069939024
-0.0065810354
-0.008124098
-0.011284095
-0.011631949
-0.008169097
-0.002148736
0.003550229
0.0095126955
0.014059968
0.015576243
0.01796307
0.016803185
0.012246764
0.0124790305
0.013376878
0.012905436
0.012106743
0.006520929
-8.759558E-4
-0.008389963
-0.016152753
-0.015065435
-0.0039713783
0.00397217
0.003259921
0.0019103071
0.0036024156
0.0032868418
-3.1745748E-4
-0.0016171508
-0.0010871933
-0.009077572
-0.02275538
-0.028117852
-0.02656224
-0.022832585
-0.010664688
0.007438233
0.017670654
0.016983317
0.0069845025
-0.008549551
-0.014052047
-0.010441013
-0.00855755
-0.006142417
-0.00227497
0.010200347
0.029146448
0.04136106
0.047723044
0.0444723
0.036764264
0.030727101
0.019349195
0.0049215467
-0.023152087
-0.047419008
-0.032482054
-0.006459578
0.002233538
-2.8177985E-4
-0.0015071649
-8.6263457E-4
-0.012771853
-0.017358415
-0.014341046
-0.022633072
-0.020091515
-0.015594757
-0.018378332
-0.018006204
-0.023743581
-0.01625231
0.001474098
0.005092542
0.0096032405
0.018560112
0.02644358
0.041617062
0.05070908
0.013806334
-0.04207096
-0.04724487
-0.031985115
-0.029676158
-0.022207981
0.0042003663
0.06813729
0.109008245
0.09699486
0.07613126
0.012330294
-0.06610456
-0.089396335
-0.0804326
-0.06200069
-0.04425564
0.0013401891
0.08330748
0.13743882
0.1400841
0.10559153
0.06910467
0.009588734
-0.10398752
-0.16659872
-0.14913687
-0.115830995
-0.06330145
-0.016625406
-0.0118027935
-0.04488059
-0.082672365
-0.11078075
-0.14706434
-0.12347354
-0.018640267
0.06721887
0.11232237
0.14098053
0.1381452
0.09589498
0.0148351975
-0.061949465
-0.04366309
0.050485585
0.10438267
0.105821505
0.07276261
0.026451632
0.028632337
0.017710803
-0.046114378
-0.07858461
-0.038154215
0.054159988
0.10342348
0.094500445
0.08099412
0.022346232
-0.024577912
-0.02998886
-0.07855526
-0.11777413
-0.11259277
-0.10492987
-0.110568024
-0.13599795
-0.12780322
-0.080400765
-0.016566712
0.07427137
0.12391689
0.1154947
0.09363996
0.042241078
-0.013955239
-0.07380797
-0.18139501
-0.2522458
-0.2357596
-0.2281135
-0.22408609
-0.16328356
-0.09188485
-0.025461584
0.08700084
0.23067628
0.27569953
0.19124815
0.1456193
0.15079987
0.0766415
-0.03929108
-0.1054322
-0.09473336
-0.044063803
-0.014273348
-0.009886638
0.0023804826
0.095542766
0.24754669
0.3389791
0.3569384
0.29825547
0.17720248
0.06784988
-0.034229174
-0.09137582
-0.092216015
-0.14573087
-0.20341294
-0.17917727
-0.15050954
-0.11900322
-0.03627192
0.0053946134
-0.06251956
-0.16857138
-0.22490811
-0.20798068
-0.167155
-0.14646462
-0.12295471
-0.1003767
-0.10054686
-0.09326554
-0.08221739
-0.087904714
-0.067731276
-0.01176919
0.03100194
0.051947273
0.07393648
0.10751658
0.15419528
0.1982474
0.22434603
0.23272836
0.22506008
0.2078446
0.18472911
0.15949263
0.14372662
0.13207266
0.10907358
0.07399587
0.040785555
0.023787085
0.017107992
0.0061380356
-0.009946183
-0.025019063
-0.038359266
-0.05765639
-0.08552017
-0.11278359
-0.13605064
-0.15812477
-0.17525889
-0.18424338
-0.18301795
-0.17082661
-0.15507437
-0.1393374
-0.120628424
-0.093791075
-0.05596492
-0.019313153
0.0064165825
0.02816543
0.048704017
0.06357903
0.07425147
0.08244863
0.085362665
0.084885016
0.08464861
0.08380752
0.08168033
0.076149985
0.06743811
0.05918274
0.050705817
0.04314123
0.03546112
0.023986913
0.01428513
0.009289289
0.005016721
3.207173E-4
-0.004341172
-0.008215059
-0.010726907
-0.009517997
-0.0051262686
-1.9729203E-4
0.008229764
0.0179696
0.026145404
0.03487842
0.03937233
0.040985465
0.045645807
0.049704354
0.05278734
0.05469317
0.05232263
0.050045878
0.04925292
0.04448149
0.03431176
0.020912413
0.0063558873
-0.006175487
-0.014257709
-0.020570166
-0.027460238
-0.030525876
-0.029987063
-0.033834603
-0.04298854
-0.05215536
-0.056523476
-0.056554995
-0.060388178
-0.06700331
-0.07052329
-0.073606454
-0.075706504
-0.07781971
-0.0809345
-0.07971294
-0.07719739
-0.07576706
-0.07399847
-0.07536237
-0.07687069
-0.07314119
-0.064436175
-0.05230855
-0.036086015
-0.016226493
0.004176667
0.029246505
0.060149588
0.09113914
0.12382019
0.16080418
0.20027126
0.22853796
0.22827002
0.20315315
0.17276244
0.15590735
0.15061565
0.1487342
0.1497058
0.14489703
0.1449274
0.134729
0.06391018
-0.02901963
-0.08656891
-0.13031153
-0.17136204
-0.2072123
-0.2439935
-0.2722537
-0.28951982
-0.29291138
-0.27872837
-0.25583106
-0.22853677
-0.19739391
-0.16256645
-0.12674396
-0.09492971
-0.063131474
-0.028103279
0.00626088
0.037834432
0.06796256
0.09898463
0.12773035
0.14676824
0.15537988
0.15814103
0.15922366
0.15755259
0.14855428
0.13810791
0.1278564
0.11015183
0.09245218
0.07757277
0.06066022
0.04664775
0.03201973
0.017073622
0.006607681
-0.0040821102
-0.012558752
-0.018872667
-0.024774048
-0.027076999
-0.026659023
-0.023737004
-0.022631664
-0.022958338
-0.026569404
-0.037716907
-0.040825494
-0.03871055
-0.041883506
-0.041682404
-0.04468626
-0.048945066
-0.0499225
-0.054325026
-0.046943385
-0.031998523
-0.027444445
-0.022770746
-0.0152766425
-0.009915734
-0.0042739646
-3.5800666E-4
0.0020557693
0.0042596636
0.005417925
0.005235217
0.004665309
0.005725315
0.007757589
0.011200443
0.015805742
0.017178021
0.016952889
0.018236017
0.01703776
0.015610622
0.01816564
0.019922487
0.02129584
0.023486558
0.022921387
0.022308337
0.021769516
0.020786148
0.021945912
0.022039002
0.02141026
0.02159737
0.021254512
0.024219235
0.029403688
0.029002532
0.022284927
0.015240848
0.011233036
0.009432858
0.006615555
0.0032838401
0.0042796778
0.005027558
0.0038240245
0.0060608755
0.006462792
0.006981229
0.008915367
0.0053342674
0.005840671
0.009346574
0.0074166283
0.0077307997
0.007946644
0.0072770803
0.010401618
0.011873159
0.011928019
0.011533966
0.009245347
0.008021167
0.008367609
0.009092087
0.010095222
0.011634255
0.011486985
0.009996382
0.009623062
0.008374926
0.0069995825
0.0049707163
0.002484792
0.0023413075
7.5811474E-4
4.956932E-4
0.0025901876
0.0017673695
0.0021974333
0.002252535
1.5924191E-4
-3.9044586E-5
-9.0533687E-4
-9.5732574E-4
-0.00102449
-0.0022657467
0.0011117823
0.0053658984
0.0061433855
0.0036487933
-0.0012619708
-0.003373686
-0.0037341535
-0.003812133
-0.0011515063
0.0012084815
0.0019920722
0.002662359
0.0023412926
4.382358E-4
-0.0015628607
-0.0023081198
-0.003209554
-0.0033962901
-5.4852443E-4
0.0019993342
0.0011191494
9.648951E-4
0.0035434486
0.0030939782
6.749441E-4
0.0014916066
0.001595327
5.1176823E-5
6.7307075E-5
4.7801746E-4
0.0020473811
0.0036776338
0.0030625483
0.0030216114
0.002954473
7.7694334E-4
-7.669802E-4
-8.53355E-4
-0.0013694223
-0.0026793003
-0.0027483683
-4.1660518E-4
3.0022382E-4
-0.0016358731
-0.002074495
-0.0028330486
-0.0045854487
-0.002974858
-3.9995974E-4
6.1433844E-4
9.289951E-4
-4.9982627E-5
4.8745287E-4
0.0019156077
4.3980178E-4
-0.0015799815
-0.00372757
-0.005890814
-0.004656026
-0.0017127743
-2.3926494E-5
3.4784805E-4
0.0010544142
0.0021850693
3.8403974E-4
-0.0017633194
-9.493908E-4
-6.5123045E-4
-7.8621675E-4
-0.0010784303
-0.002054091
-7.602412E-4
2.5371052E-4
-7.356155E-4
-0.0016127571
-0.0035344479
-0.004096622
-0.0014465951
4.7983872E-4
-3.6207732E-4
-0.0012377658
4.0746204E-4
8.427802E-4
-2.7586657E-4
-5.8897166E-4
-0.0032408447
-0.0043201223
-0.0028193656
-0.0034715966
-0.0018605265
-2.0991701E-4
-8.4993726E-4
0.0013570182
0.0022777293
6.5322325E-4
-3.6798397E-4
-0.0011982986
-0.0010137248
-9.313577E-4
1.6542028E-5
6.1311165E-4
-9.4038196E-4
-1.1552167E-4
-2.6718E-4
-0.003086035
-0.0032771607
-0.0038455906
-0.0056384257
-0.0044757766
-8.5991615E-4
0.0014927107
0.0013832462
0.0017302774
0.0016484973
-2.3939463E-4
-0.0014068587
-0.0015801009
-0.0013142943
-0.00101972
-7.99173E-4
-6.338093E-4
-5.8585743E-4
2.600557E-4
3.9037442E-4
-2.4516074E-4
-6.7202933E-4
-0.0020120004
-0.0028026097
-0.0021223
-7.835931E-4
-7.23186E-4
-6.467037E-4
0.0026674157
0.0022311395
-0.001770877
-0.001755783
-0.003040616
-0.0043064198
-0.0014179368
-0.0011704245
-0.0024591396
-0.0014772232
6.869996E-4
0.0021464752
9.4940166E-5
-0.0020697322
-0.0018208763
-0.001700497
-0.0011428796
-3.9006458E-4
1.9787776E-4
0.0011722398
9.841614E-4
4.429877E-4
-6.6770904E-4
-0.0026110597
-9.890535E-4
8.495477E-4
-0.0027845646
-0.004746508
-0.0018601165
6.192187E-4
0.0019107772
0.00173313
5.466124E-4
-6.977681E-4
-0.0016645879
-5.161447E-4
4.3783913E-4
4.936344E-4
8.527994E-4
-6.095458E-4
-0.001780723
-0.0022320051
-0.0038234529
-0.003902729
-0.0029217366
-0.0020778643
-7.410105E-4
-3.6160275E-4
-6.606083E-5
0.0015148368
0.0015344681
-1.1018501E-4
4.3454272E-4
9.5842365E-4
-7.384621E-4
-0.002052491
-0.002414776
-6.232334E-4
9.18885E-4
0.001228867
0.0032395388
0.0020310592
4.5361836E-4
0.0023323768
0.0010612601
2.122792E-5
4.8964255E-4
-4.4201472E-4
-6.930245E-4
-0.0014258048
-8.0217904E-4
-9.651746E-4
-0.0021027518
-7.4198545E-4
-0.0021236509
-0.0020094882
-8.248762E-4
-0.0021170918
9.242654E-5
-0.006061034
-0.012693942
-0.0023301374
0.0019904207
-0.0020596841
5.832616E-4
8.5781014E-4
2.1581192E-5
7.1114465E-4
-2.9005227E-4
0.001281534
0.0025635504
0.0015332886
4.6913425E-4
-0.001973402
-0.004026618
-0.0022179778
0.0019498272
0.0037596296
0.0037252547
0.0040404983
0.0036146962
0.0031431366
0.0017529615
-1.9246146E-4
-4.6062752E-4
-9.346481E-4
-0.0016018407
-0.0025515233
-0.003458
-0.0015305703
-1.5635142E-4
-0.0014608182
-0.0024712784
-0.0023209667
-0.0016968595
-0.002468767
-0.0031434332
-0.0013673018
4.0128437E-4
8.151039E-4
1.8419824E-4
-7.578083E-4
-0.001080625
-0.0012951498
-0.0014190628
-6.7774014E-4
7.900821E-4
1.304222E-4
-9.684817E-4
0.0010102366
0.001402133
8.4664073E-4
0.0010660182
-0.0016421144
-0.0021423798
-6.7154417E-4
-0.0012379243
1.3794014E-4
4.5174005E-4
-6.837587E-4
1.767557E-4
-7.4617325E-5
-0.0010853063
-0.0021278635
-0.0019178077
-5.351468E-4
-0.0020714365
-0.0014882218
0.0023373219
0.00204759
-7.8340125E-4
-0.001677303
-0.0010508584
-0.0014590952
-0.0016478923
3.2722822E-4
0.0012748858
9.022559E-4
5.044596E-4
0.0010735433
0.0027223453
0.0018224786
-4.527507E-4
-0.0020967002
-0.002361914
-1.6215334E-4
-8.2609076E-5
-0.0010442848
7.6397916E-4
0.0024028756
0.0024854052
8.001963E-4
-4.993099E-4
-6.7027996E-4
-0.0017209036
-0.0012126196
5.035417E-4
0.0020749464
0.002109567
-8.490633E-4
-0.0011012688
2.2792997E-4
-0.001714183
-0.0032213638
-0.002560476
-3.713102E-4
5.029545E-4
-0.0010217034
-0.0010844136
-0.0017171765
-0.0024435369
-7.7961315E-4
-0.0014081795
-0.002386119
-7.403376E-4
-0.0010938123
-0.0024553295
-0.0016558918
-3.3848442E-4
3.8158798E-4
6.05895E-4
0.0010321504
0.0019166417
0.0012958153
-3.182846E-4
1.0488533E-4
0.0010958958
8.299857E-4
0.0014137506
0.0024570278
0.0026393195
0.0028160557
0.0018504185
-6.2276603E-4
-0.0015223426
5.093141E-4
0.0021484368
7.075774E-4
-1.5481807E-4
0.0012851014
0.0011877015
3.3165672E-4
-1.9907924E-4
-0.0013063615
-5.3435744E-4
4.7961534E-5
-5.86518E-4
5.017338E-4
-1.3371437E-5
-0.0016886916
-0.0021386323
-0.0031201658
-0.0022545084
-0.0023345202
-0.004047876
-0.0014693622
3.8418703E-4
2.4834773E-5
6.405296E-4
-0.0010507989
-0.0011887086
0.0011834843
7.172203E-5
-0.0020559418
-0.0016983884
-5.251492E-4
5.8590714E-4
0.00235528
0.0026865546
0.0013321035
0.002312824
0.00271541
1.056914E-4
-0.0013386783
-0.0019427085
-0.0023317118
-9.5988094E-4
2.3015257E-4
-7.42843E-4
-9.2442025E-4
0.0010428946
-2.6297423E-5
-0.0022271029
-7.624001E-4
4.2452395E-4
2.1012226E-4
7.2189124E-4
0.0020778144
0.0026290088
0.002080565
0.002263005
5.302608E-4
-5.7110813E-4
0.0014449069
0.0017116936
0.0014614367
-2.3784518E-5
-0.0012190406
5.7511707E-4
-2.9450483E-4
-4.077936E-5
0.0017545159
-2.0871856E-4
-0.0032981378
-0.0032026402
0.0037528786
-7.163445E-5
-0.01267786
-0.0051377043
-0.0021524266
-0.012776865
-0.004065876
0.0051465714
0.0018332754
0.0020194885
5.6272204E-4
-1.8392207E-5
0.002744583
0.0030939896
0.0029512898
0.0023105072
0.0021676933
6.719545E-4
-0.002082121
-0.0012807447
4.4528698E-4
0.0016577919
0.0019955083
0.0012826193
0.0014451074
9.3581015E-4
4.941308E-4
-7.305656E-5
-0.0016577769
-0.0019733165
-0.0017002022
-0.0015317696
-0.0013714836
-6.533355E-4
-4.9719285E-5
-0.0011001464
-8.1680005E-4
-6.2028965E-4
-0.0019649903
-1.3942261E-4
0.002304577
0.0021757416
0.0020445064
0.0011351715
-2.0975652E-4
3.192094E-4
7.169353E-5
-0.0014490508
-7.8586256E-4
-6.591443E-6
-3.64008E-4
4.905673E-5
-2.420934E-4
-5.794543E-4
-3.647272E-4
8.373711E-5
7.677274E-4
-0.0011298369
-0.002471293
-7.149037E-4
2.463909E-4
1.8744821E-4
-4.5001978E-4
-3.6158235E-4
-8.475915E-5
-0.0014631165
-7.240757E-4
1.6503815E-4
-9.4584737E-4
-3.385736E-4
-6.7049405E-5
-8.946853E-5
0.0010459719
7.6377526E-4
6.891719E-4
0.0010434873
-3.9209033E-5
2.8833005E-5
6.5797777E-4
-6.581232E-4
-1.263693E-4
0.001565567
-4.2269126E-4
-0.0011987597
0.0010319613
0.0018555645
0.002145765
0.0015044116
3.6036145E-4
1.5842641E-4
2.4663008E-4
0.0010724623
0.00137548
0.0020097813
4.4181282E-4
-0.0031608152
-2.9249847E-4
0.0011299083
-0.0030700683
-0.0021991183
-0.0014668078
-0.0030629865
-9.339707E-4
3.8673863E-4
-9.842404E-4
-0.0025275273
-0.0023925875
-5.9222605E-4
7.811736E-4
0.001522476
8.9659996E-4
1.5363828E-4
2.1839481E-4
2.841303E-4
0.0010093419
9.759853E-4
8.103102E-4
4.8778902E-4
-0.0011542956
-0.0014195082
-3.7127253E-4
6.9350825E-4
-2.792656E-4
-0.0013517737
0.0016876797
0.0019623574
-3.3767102E-4
5.645432E-4
-3.6240584E-4
-0.0014556614
-2.3282568E-4
-0.0010422601
-0.0017818683
2.2997377E-4
0.0018692366
4.8799097E-4
-3.838159E-4
-1.4201166E-4
-0.001067303
7.144615E-4
0.002126033
3.643614E-4
2.0752937E-4
7.853159E-5
7.943143E-4
0.0023344993
0.0011576602
3.7217402E-4
2.0529934E-4
3.869437E-4
9.7668104E-5
-0.002204496
-0.0012992483
3.2403204E-4
-4.2446645E-4
8.118253E-5
-0.00107215
-0.0028954095
-0.0025296404
-0.0019543003
-4.27885E-4
5.2388484E-4
3.880713E-4
4.746397E-4
-6.1525166E-4
-0.0017200897
-0.001808
-0.001275437
-3.3289415E-4
6.598689E-4
0.0010257749
-3.2845997E-5
1.1161228E-4
0.0015202401
0.0018360951
0.0017791151
8.263194E-4
7.689755E-4
0.0012416701
-6.3150015E-4
-8.062584E-4
2.6109323E-4
1.6673632E-4
0.0012272167
0.0017086741
0.0011575714
-3.4376574E-4
-0.002646465
-0.0024629855
-0.0016809476
-0.0013583999
4.9490307E-4
0.0018007014
0.0013099844
2.7328354E-4
1.15395575E-4
-1.171086E-4
-9.0481475E-4
6.762763E-5
4.0266567E-4
-6.9325854E-4
2.853203E-4
4.6451372E-4
-0.0014489689
-0.0013874654
-3.0541234E-4
-1.4498427E-4
2.9970673E-4
2.7626377E-4
-5.334434E-4
-2.8559685E-4
8.402492E-4
0.001317417
8.231939E-4
5.279492E-4
6.263194E-4
5.85802E-4
0.0010376435
7.447407E-5
-0.0014371565
-1.2618635E-4
3.2997364E-4
-5.747274E-4
6.7198544E-4
0.0012216403
2.2791963E-5
-9.971029E-4
-0.0024070533
-0.003507299
-0.0024626646
-6.1066536E-4
5.080754E-5
3.9936992E-4
5.4034236E-4
9.765655E-4
0.0014397908
-8.00247E-4
-0.0024368197
-0.0010803285
-5.703127E-4
-3.6385303E-4
8.2027074E-4
0.0011178795
2.8204004E-4
2.5734812E-4
0.0016975465
0.0017371713
1.5936824E-4
-8.1338425E-4
-0.0010846016
-2.2500678E-4
0.0010200106
0.0011395757
0.0012278574
0.0020174005
0.0018665099
3.3427213E-4
-8.5644214E-4
-4.5349898E-5
0.0021963983
0.0018649445
3.5170192E-4
0.0015986167
0.001970541
0.0011107683
-5.1526783E-4
-0.0039525786
-0.0048611844
-0.003864492
-8.823631E-4
0.0034258645
0.0020133676
-0.0018911664
-2.4242597E-4
0.005584609
1.1355767E-4
-0.0130575625
-0.0054013813
0.002819254