-0.0028946118
0.0014159004
0.00248168
0.003103386
0.004366025
0.0020709217
-0.0014591012
-0.0029739614
-0.0018884861
7.0106983E-4
0.0014090098
0.0041177287
0.010094319
0.008931382
-9.9821715E-5
-0.0052395486
-0.0034074213
-7.1032747E-4
0.0015947422
0.004262402
0.0039476883
0.0011757675
-2.0487295E-4
4.185402E-5
-2.6549606E-4
-0.0032642388
-0.0077990233
-0.010039902
-0.008374212
-0.0049420777
-0.0033964412
-0.0033092524
-8.3943247E-4
0.0032012877
0.0039987327
0.0013232504
-1.20311284E-4
-1.9372851E-4
-0.0018572703
-0.001962428
0.0012688625
0.003268432
0.0033422047
0.0040795365
0.005186307
0.0043642675
2.8134475E-4
-0.0037260782
-0.003962429
-8.626913E-4
0.004125911
0.010830222
0.018939018
0.017987715
0.0020026641
-0.0109824175
-0.012735416
-0.012251729
-0.009403963
-0.0054807123
-0.0018253322
0.001398632
4.5909022E-5
4.421104E-4
0.0037893767
0.0040774313
0.0037766625
9.371557E-4
-0.003719653
-0.0060336892
-0.0077448
-0.005204597
2.4909893E-4
0.0018243128
0.0011078519
-2.4415947E-5
-0.0015441711
-0.003771451
-0.0052954988
-0.003084858
1.974427E-4
0.00202286
0.0028638563
0.0035069215
0.005129967
0.0048267795
5.7856715E-4
-0.0036086272
-0.004047955
-0.0016122031
0.0013365753
0.006214587
0.012339995
0.012497435
0.007069727
0.004585243
0.003473078
-6.5471034E-4
-0.0046239044
-0.008542246
-0.008696946
-0.0010871082
0.004888006
0.0055548064
0.0015392348
-0.0075172503
-0.011086374
-0.009408542
-0.010395656
-0.008313555
-0.002012766
0.0025591203
0.004115958
0.004480319
0.0045046248
0.0018715555
-0.0010423309
-0.0019047648
-0.003385994
-0.0030006762
-1.13611575E-4
0.0017820427
0.0037946692
0.005524753
0.005799656
0.0063235164
0.0042075114
-0.0016657516
-0.0043614623
-0.0032651024
-0.0019409101
0.0014954188
0.004308651
0.0035381005
0.002557714
0.002257445
0.0012795198
-0.002224076
-0.0059138467
-0.004725488
-0.002313421
-0.0017761798
-5.82678E-4
-3.9449165E-4
-2.1618558E-4
0.0035860073
0.004977708
-4.4501675E-4
-0.00506104
-0.0060899537
-0.0053172973
5.6038855E-4
0.007038477
0.0083118025
0.006741909
0.00126563
-0.005806637
-0.008379313
-0.007143364
-0.0036900002
8.050509E-4
0.0043184333
0.0048054424
0.0028832636
0.0035123772
0.004782125
7.2268787E-4
-0.0063718213
-0.009801471
-0.0065536797
-0.0010230448
0.0022081998
0.004136613
0.0049807373
0.003792758
0.001823764
3.1097993E-4
-9.632209E-4
6.1725447E-4
0.0045128693
0.0026386906
-0.0012417969
-2.378758E-4
7.4241415E-4
0.0024241046
0.0015065422
-0.0045260363
-0.0053021377
-0.0047641224
-0.0041353977
0.0012080777
0.001360925
0.0030923218
0.006421266
-0.0035381222
-0.008280142
-0.0012570301
-8.490617E-4
-0.0011199841
-5.629964E-4
-0.005015165
-0.0035935938
0.0025808278
0.0040937383
0.0042474004
0.0047244313
0.0026925304
-0.0015876297
-0.0045260615
-0.0019283063
0.0024338956
0.0066153016
0.013454115
0.013125628
0.0037433098
-0.0039336463
-0.010493748
-0.011914551
-0.00767641
-0.006446853
-0.0011747328
0.0055257324
0.0041057933
0.0018031828
-4.2899186E-4
-0.0023336543
-0.0013631261
-0.0028538802
-0.0048237992
-0.002204522
0.003093965
0.004894896
0.0029575655
0.0026004817
0.00236559
0.0021870057
4.1581658E-4
-0.0039472613
-0.003527299
-0.001686611
-0.0010294996
9.1086485E-4
8.148183E-4
0.0022685225
0.0026200514
-3.5749006E-4
-7.72579E-4
-0.0036012642
-0.0055439104
-0.0024188343
-0.001116008
0.0014187307
0.004880595
0.005861586
0.005810785
0.0027608594
-6.549887E-4
-0.0030065232
-0.0038154123
-6.299434E-4
0.0014715748
0.0023312834
0.0052432977
0.005327995
0.0013742659
-9.679979E-4
-6.741403E-4
-0.0032527375
-0.0072258315
-0.0069718724
-0.004966872
-0.002532505
-6.079103E-4
-0.0011837133
3.3457577E-4
0.0027415692
5.264791E-4
-0.0017407533
-9.841196E-4
-0.001963175
-0.0023318746
0.002607844
0.006579177
0.0062944083
0.005266866
0.00279453
-0.0010855768
-0.0049740598
-0.0069308393
-0.0055964314
-0.0019578969
0.0040204776
0.0071147727
0.006287642
0.0076888707
0.0076906737
0.0034714339
-0.0017611447
-0.0037866337
-0.0016852774
-0.0051800474
-0.010613635
-0.006084593
4.6723348E-5
-4.1059186E-4
-0.0020835109
-6.38505E-4
-0.0010930421
-0.003954944
-0.0010267993
0.003892398
0.009093238
0.014155176
0.008100948
-2.1743498E-4
-0.0016181582
-0.0033531745
-0.003995071
-0.0060602245
-0.010001405
-0.008940308
-0.0059671667
-0.0018021109
0.0032681618
0.0056362865
0.00580506
0.0027439236
-0.0017365076
-0.0038816205
-0.0032820636
1.6243481E-4
0.0048450488
0.0065813814
0.0037440315
0.001508898
5.0332124E-4
-0.0022010647
-0.0025871256
-0.0013671946
5.870153E-5
0.003806205
0.0067740083
0.008391951
0.0076627266
0.0048216134
0.003725894
2.1599978E-4
-0.006956329
-0.012668261
-0.013000948
-0.006700885
-0.0011583907
-6.355237E-4
-9.1834174E-4
4.68636E-4
0.0017030371
-6.422931E-4
-0.0028668689
-0.003311195
-0.004853158
-0.0025576698
0.0013624182
0.001822212
0.0042259796
0.007392293
0.0066292984
0.0034310983
-4.577663E-4
-0.004060561
-0.0053906096
-0.0010860546
0.0057912585
0.00950218
0.009632907
0.0045952974
-7.875931E-4
2.4621366E-4
8.5634924E-4
-0.004165194
-0.0101557495
-0.0104734395
-0.0042323465
7.280762E-5
6.371163E-4
0.0027990188
0.004701081
0.003028999
-8.284623E-4
-0.0039991764
-0.007647332
-0.00917874
-0.0023677375
0.0034991677
0.0037796032
0.0070254924
0.0087528145
0.008518854
0.008794854
-6.7249784E-4
-0.012730177
-0.011836687
-0.004290864
-0.0014100776
9.774079E-5
0.0058494117
0.0070617255
0.0015222717
-0.0014903515
-0.0044044424
-0.006178735
-0.0024210373
7.623702E-4
0.0034652383
0.00785988
0.010308429
0.007456518
0.0013261782
-0.0018473105
-0.006709185
-0.012249474
-0.007519457
-9.877093E-4
0.0014389514
0.006401542
0.009019461
0.0063621267
0.0023140176
-0.0032243137
-0.00884979
-0.009709072
-0.005228144
-0.0012785681
0.00167633
0.0050468165
0.004325272
9.2428917E-4
-0.0014357548
-0.003085614
-0.0031204452
-2.4680214E-4
0.0047247
0.005886465
0.0020330478
4.6852586E-4
0.0019399871
0.002900408
0.0014574862
-0.003332466
-0.007911808
-0.008283339
-0.004296083
5.538488E-4
0.003125469
0.0042881686
0.0054742806
0.0052517406
0.0017963904
-0.0025909585
-0.005788801
-0.0058762105
-0.0015665949
0.0019909686
0.0050599393
0.007743431
0.004534185
9.3039824E-4
-0.0011356734
-0.0036787787
-0.0029217636
-0.0027317004
-9.1517775E-4
0.0047308956
0.0064815427
0.005595283
0.0018290058
-0.0032602234
-0.0037838027
-0.005638118
-0.009128133
-0.008998361
-0.0060552545
-0.0022410024
-2.841105E-4
0.0025595522
0.006081085
0.0046035466
3.878425E-4
-0.0024729583
-0.003342183
-0.0033751493
-0.0018606145
0.0019704718
0.0045969114
0.006975399
0.010695248
0.013073987
0.011003825
0.0043711215
-4.6385237E-4
-0.005285119
-0.011321614
-0.008344357
-0.0018437604
-7.513127E-4
-5.382671E-4
-0.001521156
-0.0036602055
-0.0047054724
-0.0048954487
-0.0018404663
0.0029387
0.0036925534
2.3840387E-4
1.3876216E-4
0.0038823988
0.0032186403
1.780946E-4
-0.0022883452
-0.00592988
-0.006640806
-0.0035422386
0.0019531276
0.0074731163
0.007654632
0.004638755
0.0016763313
-0.0013082847
-0.0042981086
-0.008078405
-0.007598779
-0.0017163438
0.0023815723
0.0055563417
0.009608293
0.009036286
0.0030425403
-0.0027107764
-0.0050953017
-0.00650372
-0.008109981
-0.005742082
0.0021179272
0.009243779
0.011726026
0.0123623265
0.010597939
0.004810841
-0.0033167703
-0.01286523
-0.017648786
-0.012527499
-0.0050372784
-0.0015869604
8.3200645E-4
0.004412725
0.005621514
0.0018651475
-0.0031170498
-0.0049440158
-0.002929896
-7.2411075E-4
-7.084808E-4
0.0019213476
0.005683854
0.0044747796
0.002081676
0.0010647137
7.274238E-5
-0.001957379
-0.005739318
-0.0030678997
0.0053407736
0.007378807
0.007672657
0.009661324
0.0050493414
-0.0020609966
-0.006270397
-0.008666194
-0.0076129404
-0.0049596853
-0.0013698515
0.003427575
0.004230538
0.0018527432
9.879308E-4
3.3472264E-5
-0.0026747424
-0.005029694
-0.0053166277
-0.002647451
0.0012161622
0.0028250378
0.005923888
0.009681363
0.0053825094
6.5841E-4
0.0012435843
-0.0025519023
-0.0071957815
-0.007242542
-0.0053618634
-6.7257363E-4
0.0022132434
0.0019666469
0.0026989377
0.0020522934
9.546304E-5
-0.002174354
-0.004730872
-0.0046336357
-0.0014568073
0.0032229577
0.0063014114
0.006155091
0.00467242
0.0025173738
-3.9896235E-4
-0.004786909
-0.008497152
-0.0070082694
-0.001119992
0.003864085
0.003360747
0.0012634487
0.0029204302
0.0032115665
-0.0011618555
-0.0057724677
-0.0054740836
-6.101096E-5
0.0045343987
0.0065695364
0.0068237786
0.0056903316
0.005250017
0.0018984099
-0.0040480695
-0.007598485
-0.008581504
-0.004346081
-7.594604E-4
-0.0032626395
-8.398121E-4
0.0048496667
0.008069306
0.011790744
0.0048067933
-0.011294216
-0.017286247
-0.013087292
-0.0058185677
2.4254769E-4
0.0017027615
0.0032975315
0.005175281
0.0044587045
0.0029412108
-5.168336E-4
-0.0037241762
-0.0020844825
0.0011794929
0.003585251
0.0071563795
0.008095626
0.00443719
0.0035256546
0.0034192023
-9.299392E-4
-0.0029006912
-0.002885473
-0.0036587717
-0.0016512934
0.0016919674
0.005960564
0.006634312
7.4779184E-4
-0.0031647298
-0.0064603756
-0.0096596945
-0.007981274
-0.0067378385
-0.004223108
-3.2739612E-4
6.875184E-4
0.003567115
0.0030577336
-0.0033593313
-0.0064367177
-0.005669004
-8.337477E-4
0.006961262
0.01036647
0.007367295
0.0024099567
0.0018188902
0.0036985986
0.0023351822
-4.2414299E-4
-0.002580062
-0.0034010431
-0.0022114047
-0.0012187302
-0.0011521598
3.4717104E-5
0.002844489
0.003933534
7.9199526E-4
-0.003764648
-0.0051923143
-0.003934661
-0.0019915085
0.001906536
0.0037126509
0.0021184115
0.0030718765
0.0023546636
-0.0018730565
-0.0044288808
-0.0066642854
-0.0057712216
-5.3478533E-4
0.0033009136
0.0048114494
0.005269809
0.005136419
0.002772172
-7.469591E-4
-0.003140635
-0.0064771683
-0.006677156
-0.003475876
-0.0017314369
0.0023508754
0.0064363983
0.006295313
0.004972961
0.002813813
4.605696E-4
-0.0012836116
-0.0010873553
-2.510852E-4
-0.0026475547
-0.003214565
-2.9158636E-4
0.001433003
0.001653423
-5.3975923E-4
-0.0048741978
-0.009059456
-0.008338674
-0.0021649075
0.001645134
0.004263841
0.006501672
0.0046176966
0.0027810012
-7.369928E-5
-0.003496737
-0.004425842
-0.0054225093
-0.002747188
0.0016623079
0.0045796293
0.008896816
0.0091898125
0.0056527993
1.3111829E-4
-0.006697746
-0.00640276
-0.0036320325
-0.002817761
0.0013547064
0.005513635
0.00801119
0.008048062
0.0045243306
6.0316484E-4
-0.004924502
-0.0090098465
-0.008853408
-0.0076942984
-0.0034459557
0.0016066737
0.0023148085
0.002516917
0.0032679562
8.3465106E-4
-0.0035459301
-0.0069048344
-0.006707539
-0.0025557051
0.0010309567
0.004766297
0.00924328
0.0077117
0.0029103365
-0.0013857471
-0.006602557
-0.007088865
-0.0030774786
0.0011277613
0.004062339
0.002841044
0.0011371705
0.0011424276
0.002115511
0.0039151832
0.0014630026
-0.0031127394
-0.0049217166
-0.004136847
-9.797628E-4
0.002328065
0.006889361
0.009128588
0.00393742
-0.0017047103
-0.005012131
-0.0063778525
-0.0053833923
-0.0050083464
-0.0022637497
0.001081889
0.0013513222
0.0022667465
0.002563224
0.0016933896
-5.3349626E-4
-0.004590557
-0.0042792307
-0.0016209199
-3.337542E-4
0.0031238142
0.005486745
0.0049850843
0.0047631427
0.0024209516
-0.0034324445
-0.009280393
-0.009819573
-0.0043014265
0.0014929274
0.0061073485
0.007929405
0.0040848115
0.0017726077
0.0020267083
-0.0014142442
-0.0048332238
-0.006054115
-0.0048377425
-0.001115655
7.828022E-5
0.0022798788
0.006699934
0.005677637
0.0025303098
0.0011354237
-0.0032769497
-0.007926559
-0.004892183
7.2735007E-4
0.001393528
0.0035220808
0.0061234063
0.0018997167
-0.003976677
-0.008038939
-0.008400898
-0.0038529693
7.242165E-4
0.003985077
0.0038624455
0.0016388611
5.2184425E-4
-0.0035068272
-0.0067015747
-0.0062004193
-0.008042644
-0.009579354
-0.0047375867
0.0029856265
0.00584246
0.0076609137
0.012391563
0.011786185
0.0076098465
0.0032471672
-0.002918517
-0.002968568
0.0019447432
0.0053282636
0.008088071
0.0079319365
0.005234299
0.0015289503
-0.0034556356
-0.0068342076
-0.0076692146
-0.00515093
-7.244436E-5
0.0030919714
0.0040767854
0.0050924127
0.005992431
0.0066954186
0.0068146633
0.0036836178
-0.0023226214
-0.0064563137
-0.006919345
-0.0055497386
-0.0044390517
-0.0074134236
-0.014334856
-0.01588278
-0.013863288
-0.018416893
-0.020689987
-0.015397955
-0.009800315
-0.0032821405
1.1263582E-4
-4.0615667E-4
8.152116E-4
0.0023027905
0.005486253
0.0068039973
0.005183618
0.0060153096
0.0053968187
0.007635791
0.012871836
0.015455833
0.026079707
0.04021461
0.04395038
0.041540094
0.038431194
0.033086155
0.02150813
0.0060363603
-0.01051921
-0.026519725
-0.03210661
-0.031622276
-0.042520884
-0.06135786
-0.06125528
-0.03794967
-0.02435654
-0.021462372
-0.008276947
-2.6391383E-4
-0.0063272207
-0.013543521
-0.01437186
-0.008022462
-1.1757744E-4
0.007006828
0.009833424
0.012257047
0.020683657
0.02478156
0.031187935
0.050257344
0.06872521
0.07436657
0.06524939
0.05319296
0.04030567
0.025763743
0.021979589
0.016059699
-0.0036099812
-0.040349063
-0.09636402
-0.13128151
-0.12465498
-0.099854596
-0.06982468
-0.042861156
-0.019185122
-0.00388369
-2.0828246E-4
0.008495962
0.016593534
0.013123337
0.0012000325
-0.017865384
-0.02269883
0.004548565
0.04098385
0.055196315
0.05761158
0.077526584
0.105823316
0.12383216
0.13317351
0.13049982
0.10694882
0.0562892
-0.0071096527
-0.05287434
-0.081196845
-0.10614436
-0.12506403
-0.13197301
-0.11356885
-0.07291692
-0.039140206
-0.02749048
-0.03498728
-0.032591064
-0.0065277554
0.0029278544
-0.0065132813
-0.008040212
-0.010525755
-0.012266508
-0.0061878413
0.0024434424
0.0022616605
-0.005944699
0.007424569
0.03764734
0.06381733
0.085325584
0.09302502
0.09360379
0.08563443
0.062141288
0.025156222
-0.034072135
-0.07157482
-0.05926653
-0.04524513
-0.04428812
-0.04989538
-0.064293906
-0.05415934
0.011654064
0.07881314
0.08466308
0.07363182
0.056283094
0.01278595
0.0025059618
-9.553905E-4
-0.0542838
-0.097666144
-0.083072424
-0.02799023
0.02039606
0.03788281
0.037812438
0.023467837
0.0031122922
-0.0132153705
-0.0149380835
-0.017097615
-0.048201103
-0.061420422
-0.035645224
-0.015172924
-0.002546826
0.004829724
0.0047062826
0.0046654725
0.00486295
0.0120704705
0.01850191
0.01990924
0.024526635
0.027997123
0.026251787
0.017962186
0.012847212
0.015550085
0.016432114
0.018286223
0.017836135
0.010321401
0.0041812505
-0.0011485213
-0.008164158
-0.012984094
-0.014901695
-0.015410911
-0.013310614
-0.0065706763
0.0033346124
0.00625445
-0.0011754486
-0.003943165
-0.008399958
-0.020472396
-0.016995944
-0.009980971
-0.013142973
-0.008770578
-0.004633712
-0.003546437
0.0012180825
0.0014958226
0.001142292
4.221746E-4
-0.001509904
-5.274029E-4
-0.0017747956
-7.1550166E-4
0.004515641
0.0067866235
0.0074288202
0.005256814
-6.566279E-4
-0.004960838
-0.004760781
-0.0024688356
-0.001437376
0.0012218631
0.0067118322
0.010117084
0.009503688
0.006702356
0.0037713074
0.0010769989
-0.0011552547
-0.0025223217
-0.0020306082
0.0022820556
0.007025902
0.008773258
0.010186147
0.012097957
0.0122257825
0.007005587
-0.0040224185
-0.014125874
-0.018806085
-0.018289357
-0.013164636
-0.0057656365
0.00161302
0.0065188482
0.009720403
0.012738266
0.006492631
-0.008443842
-0.015931318
-0.018184252
-0.021640763
-0.017289888
-0.0065447893
0.0039372863
0.014514461
0.02011621
0.015824238
0.0056357374
-0.0017452668
-0.001190211
0.0038543856
0.005876737
0.0033866114
0.0028294006
0.004044492
0.0018127671
-0.0054177963
-0.017452132
-0.021708809
-0.010760101
0.0025579229
0.013028681
0.017865632
0.012591155
0.004222244
-0.0043802583
-0.009274991
-0.0075435103
-0.007458223
-0.006001415
9.452437E-4
0.008006753
0.014491548
0.015475547
0.01121008
0.00895819
0.0040954296
-0.0039154924
-0.008433732
-0.006955444
0.0026691244
0.012712478
0.011572009
0.0018974274
-0.0067455336
-0.0124424
-0.019961696
-0.025124041
-0.020458134
-0.009753314
4.3039935E-4
0.0024233726
-0.0029790318
-0.0030983107
8.9703465E-4
0.0022800057
0.0020361217
-1.4213771E-4
-7.7219453E-4
0.0018121124
0.005710523
0.0096398005
0.009368013
0.008909786
0.010378329
0.005924676
-5.76962E-4
-0.0032645233
-0.004162901
-0.0012818881
0.0029763384
0.004193712
0.0046928306
0.0032586944
3.7163228E-4
-2.1946481E-4
-0.003172685
-0.009392336
-0.012705965
-0.008822293
0.0013990846
0.0058236527
0.0060251975
0.011109971
0.008368386
0.0047672903
0.011250252
0.005152919
-0.0071931067
-0.003108064
0.0035992097
0.0010151898
-0.0067735277
-0.012799378
-0.01122322
-0.009022596
-0.011354071
-0.0144895855
-0.01498509
-0.009028353
-6.1867817E-4
0.0037850807
0.007470957
0.010376464
0.007576404
0.0023821355
-5.3090364E-4
-0.0020656988
-0.0029070806
-0.0011507795
0.004597472
0.009930599
0.009616075
0.0076524895
0.0102485
0.014155599
0.014688661
0.013186288
0.0052773925
-0.008817805
-0.013587783
-0.009556903
-0.008735207
-0.0071809134
-0.004129055
-0.0035782736
-0.0033267047
-0.007382277
-0.015625892
-0.017153181
-0.009715508
-8.2026573E-4
0.0042689815
0.004587469
0.0042209686
0.006829748
0.007728902
0.0066441223
0.008973899
0.011064755
0.008142036
-0.0010005997
-0.008878214
-0.0028294458
0.0050636726
0.0030486137
0.0033822616
0.0028089497
-0.0020006127
0.0013206578
0.0037598608
-7.4923073E-4
-5.258185E-4
-0.0015091358
-0.0076415334
-0.010909033
-0.014159413
-0.0154233165
-0.009291957
-0.002427698
4.4478703E-4
0.0015069916
0.004675978
0.009976417
0.012641699
0.011174344
0.00611042
-2.2134355E-4
-0.0044179154
-0.0050157853
-0.0023605546
-0.0010898835
5.876568E-4
0.005897419
0.007909788
0.0072384384
0.0057806526
0.0031472095
0.0036744066
-0.0021151463
-0.013322847
-0.01306514
-0.005679097
0.0024035494
0.008813397
0.008643645
0.006831651
-0.001706557
-0.012478198
-0.0060959025
3.9709927E-4
-0.00785713
-0.009076698
-0.0013590539
4.8148286E-4
1.6478312E-4
8.5717364E-4
-0.0012086534
-0.0038276531
-0.004273759
-0.0018437329
0.0035387366
0.008497855
0.009776564
0.0070790923
0.002616294
-5.891017E-4
-0.0024604534
-0.0028893824
-7.092573E-4
0.0016582855
0.0027402933
0.0032840057
0.0017895434
3.3545998E-4
0.0020286415
0.0034725773
0.0018965906
-0.0034533066
-0.008025767
-0.00333054
0.0024851416
1.6371527E-4
-0.0030441144
-0.0041313
-0.002622571
-8.6569844E-4
-0.0049172193
-0.007637238
-0.0047598174
4.475657E-4
0.0042240606
0.0030350473
0.006032055
0.009352855
0.002468394
-0.002118782
-0.003644574
-0.0079439925
-0.0076504224
-0.0015085802
0.008104403
0.01244008
0.00880306
0.0065768785
0.0048498847
0.004287832
0.003568776
-0.0063051726
-0.017349271
-0.016858535
-0.007497195
0.00128226
0.0052092266
0.0052391696
0.004241811
0.0045269807
0.0015186329
-0.003961939
-0.0055986694
-0.0054148734
-0.0013630149
0.0052222554
0.0041071023
3.833308E-5
0.0019011245
0.0027225586
-0.0024537367
-0.00541783
-0.004027863
-0.002535769
-1.343088E-4
6.1685167E-4
6.8277563E-4
0.0030785082
0.003547307
0.0026144814
-0.0011570925
-0.0072377976
-0.0070174676
-0.0020456372
0.0037012093
0.006472937
0.0037712976
0.0039657466
0.006843408
0.0053218715
-9.882493E-6
-0.005668162
-0.0061982577
-0.0020329303
1.7547068E-4
-7.3072367E-4
5.1864714E-4
0.003889395
0.0021281329
-0.001738019
-0.0029361208
-0.004787751
-0.0041516544
-0.0012598872
-0.0011560356
-1.1934269E-5
0.004448935
0.0068891877
0.0048154397
0.0030588633
-6.711832E-4
-0.01015588
-0.012310304
-0.00446769
5.3727586E-4
0.0032465423
0.006441306
0.00666
0.0054346914
0.0060191983
0.004428721
-0.004523821
-0.012353867
-0.010365525
-0.0038358367
0.0017976039
0.0065344577
0.009628955
0.0061063757
-0.0028349585
-0.0077617434
-0.007598092
-0.004606475
-3.590199E-4
0.0014864892
0.0030170253
0.005840135
0.0087661855
0.008954951
0.0034591476
-0.004059449
-0.011839969
-0.014886462
-0.00782705
-0.0013355524
0.0010380676
0.0052517345
0.00816951
0.0105797835
0.012814733
0.008698909
0.0018820226
-0.0027822414
-0.007832831
-0.008423926
-0.0042525176
-0.0054554273
-0.0051321913
0.001958739
0.003670744
8.397961E-4
-0.0022135475
-0.005398325
-0.0038892385
-4.7828478E-4
0.0039543686
0.010492142
0.014507992
0.012552116
5.291252E-4
-0.013519032
-0.018387023
-0.016157877
-0.007667249
0.00141997
0.0039179535
0.004801733
0.008105138
0.010237301
0.0068813567
0.0016901577
-0.0019988504
-0.0042382013
-0.0018801332
4.382336E-4
0.0012485409
0.0039291475
0.0036816178
0.002086002
3.3290117E-4
-0.0036282535
-0.0064600953
-0.007591894
-0.0053235055
-0.0019307744
0.0010501381
0.004176952
-0.0016322603
-0.006998737
-6.7306584E-4
7.6109794E-4
-0.0050558266
-0.0062328107
-0.003326315
0.0011715712
0.00433885
0.0043096803
0.004272967
0.0067270026
0.008996628
0.0077273934
0.0051432024
0.0025186925
-6.937767E-4
-0.0016274427
6.6417817E-4
0.0022462371
0.0036897338
0.0076534534
0.005057423
-0.0046044313
-0.009573584
-0.012237269
-0.01165085
-0.0044640144
-1.9878034E-4
4.0135277E-4
-8.978492E-5
-8.7102805E-4
2.649444E-4
-3.3259846E-4
-0.0017519969
-0.004136099
-0.0060132723
-0.0017535115
0.0026337823
0.005368586
0.0075227707
0.0066861524
0.0060705896
0.0021267785
-0.0030479664
-0.002671866
-0.0017549292
1.7006748E-4
0.0035686498
0.0031830883
8.82017E-4
6.09583E-4
-2.826632E-4
-0.0063068774
-0.01055395
-0.009019938
-0.006839892
-0.0022445568
0.0015224685
0.0022053646
0.0036298311
0.0025828432
5.7700905E-4
-0.0022242474
-0.006563508
-0.00607975
-0.002659297
0.0023681263
0.009322872
0.013652686
0.018115917
0.023074202
0.019550567
0.0045849187
-0.010578816
-0.016709689
-0.015233119
-0.006187678
0.0018627534
0.0014032361
9.484446E-4
6.3133356E-4
-5.331447E-4
9.729425E-4
3.481473E-4
-9.750533E-4
-0.0039230105
-0.011578892
-0.012853166
-0.005653057
2.8660236E-4
0.002469798
0.0013442596
-0.0012866317
-0.0027373724
-0.0031516228
-0.0013799476
0.0026919348
0.005236118
0.00512795
0.0048111086
0.005865061
0.0072119003
0.005379778
-0.0011516686
-0.0074505704
-0.0057089953
3.2555906E-4
0.0017027083
0.0032401101
0.0051218504
0.0015183672
-7.4057066E-4
-0.0025752499
-0.0070903283
-0.006833605
-0.0049154456
-0.0028653685
0.0028238932
0.00448533
0.0029165493
0.005232465
0.0050494308
-1.7751593E-4
-0.0036603739
-0.0049212268
-0.0039460463
7.016269E-4
0.0069154543
0.012486097
0.011215637
0.0047056014
0.0021588646
-4.3324797E-4
-0.003930662
-0.004191763
-0.0036280435
6.829703E-4
0.0031551325
-0.001899092
-0.0038154717
-0.0030171552
-0.004899744
-0.0066488436
-0.008475937
-0.0067312005
-5.638663E-4
0.0022323853
0.0023007032
0.0051022484
0.0063578696
0.0024522536
-3.9423964E-4
-7.386224E-4
-0.002104722
-0.003643537
-0.00428426
-0.0021096773
0.0012321568
0.0030931788
0.005838042
0.0057462053
0.0022705644
-1.2901615E-4
-0.0041843457
-0.006428936
-0.0033215492
6.2877376E-4
0.0041644746
0.0053348253
0.0046064537
0.0041788807
0.0017423274
-0.0017106003
-0.003974593
-0.004960551
-0.0047808457
-8.6779054E-4
0.006466235
0.007922288
0.004255804
0.0018389444
-7.4422645E-4
-0.0019717547
-0.004566344
-0.0072409995
-0.0030285264
0.0012795014
0.003201964
0.0056757513
0.006962129
0.0068833344
0.0031916006
-1.865459E-4
-0.0034445357
-0.011171025
-0.01365616
-0.007518955
0.001449907
0.0067614224
0.003936867
7.1759516E-4
0.0016969389
0.005259713
0.003323497
-0.004655793
-0.0019598184
-1.4596379E-4
-0.008134786
-0.00618919
-3.232994E-4
0.0041762176
0.010031447
0.007103802
6.4718846E-4
-0.006644681
-0.010355486
-0.002487107
0.0017483548
0.002266063
0.007066194
0.0054474026
5.1452887E-5
-0.0025477472
-0.0054812557
-0.0066444855
-0.004089249
-5.981155E-4
0.002276557
0.005525422
0.007215376
0.0054313177
0.002284376
-0.0016642987
-0.0045641735
-0.0034564494
1.07389256E-4
0.0030954175
0.00426197
0.0037731703
0.0031332958
0.0043656356
0.0044840756
7.7949895E-4
-0.0035096135
-0.00759028
-0.0086335335
-0.0046251686
-3.0622297E-4
0.0035951457
0.005396252
0.0046281773
0.003984113
6.166491E-4
-0.0038269232
-0.008070201
-0.010134241
-0.0042943675
7.7048916E-4
0.0013742059
0.0024901598
5.04286E-4
5.5250243E-6
0.0020919568
-9.6892635E-4
-0.005023721
-0.0051193894
-0.0017021587
0.0026853266
0.0050514685
0.0054252213
0.0039053126
0.0028948882
0.0012685858
-0.0024026104
-0.0025171877
-2.6064762E-4
0.0014730968
0.0036541629
0.0037069342
0.0031341666
0.004449686
0.003265819
-0.0026551068
-0.006298115
-0.0045916084
-0.0033271033
-3.7088603E-4
0.0054619005
0.0077265743
0.007930474
0.008464104
0.005687665
-0.0036711774
-0.014420455
-0.015982546
-0.009410045
-0.0025307685
4.101754E-4
8.42537E-4
0.0024441015
0.0024249253
0.0011004889
-6.576031E-4
-0.005042635
-0.0071958513
-0.005729974
-0.0018230441
0.0024284923
0.0033499864
0.0055123824
0.0074437046
0.0052270154
0.0036690808
0.0016370646
-0.003243031
-0.006580265
-0.0027693438
0.004938117
0.0068109385
0.005436648
0.0063409726
0.0063810544
0.0039741965
-8.6738344E-4
-0.0066841054
-0.008899197
-0.005677005
-4.482447E-4
0.0040531475
0.007586181
0.008447469
0.0064618294
0.0018009753
-0.0060577383
-0.013616036
-0.015769841
-0.011002519
-0.0035859447
0.0022682832
0.005010543
0.004335076
0.0032386766
0.0013309346
-0.0034846966
-0.00739649
-0.0050261472
7.4025255E-4
0.0022525426
0.004584453
0.008856553
0.005693825
0.0014467104
0.0016201457
0.0017845463
-9.633362E-6
-0.003494554
-0.0038487657
-0.0029812458
-5.1119376E-4
0.0028328851
-6.1211415E-4
0.0022993644
0.006748858
-0.0035700398
-0.0077251294
-0.0033211668
-0.0012955549
0.0055724233
0.008485573
0.0044092415
0.0023933307
9.416546E-4
-0.0012023218
-0.003369677
-0.004927103
-0.004572842
0.0012112939
0.007596384
0.004688813
6.0932897E-4
0.0012838886
0.0021302411
0.0028163295
0.0013530096
-0.002053515
-0.00784722
-0.013021113
-0.010434452
-0.0052055013
-5.959543E-4
0.003564109
0.003977161
0.0032935722
0.0012151398
-0.0024361608
-0.0030431366
-0.0010174515
9.397577E-4
0.0026942191
0.005333035
0.0055902987
0.0032012153
0.0025918526
2.110251E-4
-0.0043084756
-0.0046808855
-5.1718735E-4
0.0049400353
0.010978859
0.017210508
0.013122133
-0.0031923146
-0.012002555
-0.008800278
-0.0072348877
-0.010098634
-0.009797079
-0.0038759736
5.0217175E-4
0.0015895792
0.0017258133
7.0499856E-4
0.0018990566
0.0010036879
-0.006462518
-0.010556923
-0.005371577
0.0019232759
0.0048060133
0.006587424
0.0096933525
0.010330583
0.008166267
0.0035861847
3.537955E-4
0.0016558666
1.3963587E-4
-0.0038300913
-0.0031302162
1.366384E-4
0.0023294638
0.0034025414
0.0033893439
-8.0474315E-4
-0.005429052
-0.0041344026
-0.0054485113
-0.008622899
-0.0027811364
0.003874277
0.0045938664
0.00403362
0.002046669