0.0018049995
0.0019996362
0.0027348485
0.003413186
0.0016847276
5.834102E-4
0.0013046918
7.7076675E-4
-0.0011862977
-0.0033598135
-0.0040593795
-0.003436542
-0.0024489053
1.0219055E-4
8.29447E-4
-5.43989E-4
8.999779E-4
0.0018562388
5.3206953E-4
8.506156E-4
0.0011410966
-5.2751444E-4
-0.0014313776
2.1820604E-4
0.0015635182
9.891653E-5
-9.1849396E-4
5.546151E-4
0.002139349
0.0016005256
-3.023642E-4
1.6348611E-5
7.9962803E-4
-0.0012886362
-0.002017604
-0.0011049699
-0.0013189287
-7.050672E-5
7.910145E-4
-9.5460203E-4
-0.0019105789
-9.218271E-4
5.342638E-4
5.9444585E-4
1.3941653E-4
-1.1032975E-4
-0.0010317963
7.2036105E-6
9.186767E-4
-5.0321345E-5
9.041162E-4
0.0010542758
4.269774E-4
0.0013216595
0.0013568923
0.0023583383
0.0028888397
0.00205551
0.0026761584
0.0016795185
2.8083564E-4
0.0010301056
0.0014432167
-1.3482927E-4
-0.0026545045
-0.0017396098
-0.001241278
-0.0042794063
-0.003598242
-0.0014046505
-0.0014262737
-0.0023330771
-0.0051192627
-0.0040620635
0.0011002676
0.0021961415
5.833069E-4
8.094321E-4
0.002120131
0.0022758825
0.0017156628
0.0014005456
-4.695831E-4
-0.0017032918
-6.9010166E-5
-3.9900353E-4
-0.0027594194
-0.002144295
-4.639068E-4
4.652089E-4
0.0025352696
0.0038092392
0.003853914
0.0036632312
0.0029897708
0.0027748498
9.770716E-5
-0.0036504315
-0.0032391609
-0.0031435515
-0.004634903
-0.0023842724
8.219495E-4
0.0010430356
0.002226006
0.005179915
0.0060366294
0.007406836
0.008739733
0.0061623026
0.0024928378
-0.00208642
-0.005062041
-0.0068395506
-0.011117551
-0.009482712
-0.006677727
-0.007403612
-5.656354E-4
0.0032461786
-3.0176158E-4
9.820067E-4
0.0014781776
1.3909704E-4
3.0670478E-4
-8.990464E-4
-0.0012768537
-0.0014564752
-8.0933253E-4
6.829846E-4
4.8547E-5
3.936492E-4
0.0017411739
0.0022299977
0.0033868197
0.0052544796
0.005422588
0.0028059098
0.0023933372
0.003099907
3.8324966E-4
-7.4251805E-4
1.5768457E-4
-4.7393644E-4
-0.0016859808
-0.0027459948
-0.0023543944
-0.0012930854
-3.1329406E-4
0.0013460538
0.001852579
8.602761E-4
-2.624587E-4
-4.601187E-4
1.0720045E-4
3.8972514E-4
2.866882E-4
-2.727737E-4
2.2347142E-4
5.0858443E-4
-9.448322E-4
-4.337205E-4
-3.4536506E-4
-0.0034393326
-0.0051072007
-0.0042641205
-0.0024482135
-0.0016289526
-0.0021160848
-0.0013955649
-8.69986E-4
-0.0011406196
-0.0010574363
-4.4528177E-4
0.0023611307
0.0036362046
0.001612253
0.0023454258
0.0034568626
0.0015372355
0.0012327657
0.0014557278
7.867829E-4
0.0021914924
0.0037311898
0.004253637
0.004304297
0.0020622748
4.9038295E-4
0.002149774
0.0027743725
3.0133466E-4
-0.003242019
-0.0051780455
-0.0045204647
-0.003622518
-0.0026075647
-7.4521604E-4
2.5319881E-5
1.2840297E-4
4.985583E-4
8.72955E-4
0.0012981493
0.0015843591
0.002353837
0.001426847
-0.0013077467
-0.0013738517
-0.002092451
-0.005282664
-0.0048718057
-0.0028270816
-0.0021176706
-9.86188E-4
-0.002003298
-0.004499153
-0.003733743
-7.099416E-4
8.506054E-4
0.0010164388
0.0016223942
0.001887223
0.0013255657
0.0015784483
0.0023319821
0.0012100345
-1.4268189E-4
0.0024548674
0.0059610275
0.007267072
0.00861254
0.008478206
0.0071516484
0.006180848
0.004276358
0.00387382
0.005699687
0.0063441955
-2.5660952E-4
-0.012859815
-0.017167173
-0.012556118
-0.008868719
-0.005921453
-0.0041480213
-0.004333996
-0.0044477833
-0.0023582631
2.807691E-4
-0.001627039
-0.0028202182
-0.0011171227
-0.0014695366
-5.1145966E-4
0.0011637791
0.0021341895
0.0033716774
0.0024498405
0.0029115048
0.0054177647
0.0076565146
0.009466213
0.006946964
0.002203718
-7.064597E-5
-2.650375E-4
-4.770663E-4
-0.001609072
-9.921558E-4
-6.0948945E-4
-0.001820974
-0.0017309845
-0.0027479674
-0.0036144406
-0.0022676382
-0.0016061207
-9.573687E-4
-6.65727E-4
-0.0011561211
-2.280553E-4
0.0011557778
0.0010227723
1.6686296E-4
3.9484963E-4
4.553983E-4
3.3609354E-4
0.0013077224
0.0010495359
9.831699E-4
0.0012373151
-0.0017483386
-0.0027534121
5.8626826E-4
0.0010884003
-0.0015379059
-0.002309213
-0.0010685268
5.8423466E-4
0.0021958367
0.0031154926
0.0028038893
7.667131E-4
-0.0020778037
-0.0022998115
-1.7258548E-5
0.001356847
0.0011910448
-3.465106E-4
-0.0010995845
8.678331E-4
0.0013685141
-8.8885037E-4
-0.0019462886
-6.2427064E-4
0.001320031
0.0021998524
0.0028479814
0.001463044
-0.002862054
-0.0027979412
-3.3248973E-4
-0.0023411682
-0.0034742437
-0.0027737988
-0.0023010294
2.2281951E-4
0.0012049418
3.0367906E-4
-2.2934981E-4
-0.0019541555
-0.002295428
-6.532857E-4
5.0216785E-4
0.0013929042
0.0018532259
0.0019269938
0.0018617834
0.0021114035
0.0023318315
0.0015010523
0.0021669948
0.0042407997
0.0034421007
4.109238E-4
-8.583589E-4
4.3036265E-4
0.001762791
8.7077497E-4
-0.0013882782
-0.0015339577
6.763549E-4
0.0014656677
0.0010116735
3.627875E-4
-0.0018469961
-0.0038119382
-0.0043987483
-0.003927696
-0.0020274224
-0.0014917254
-0.00251483
-0.0013924397
6.581782E-4
8.0415374E-4
4.0932832E-4
6.705364E-4
0.0010287627
0.0011806417
-2.3274632E-4
-0.0030112183
-0.0034751098
-0.0011676683
5.1009783E-4
-3.4609788E-5
-9.294423E-4
6.439606E-4
0.0026152947
0.0027717694
0.0036602751
0.0033484069
3.3804672E-4
-0.0014051658
-0.0024332353
-0.0021919236
2.4823484E-4
0.0017689249
0.0044716974
0.005936321
0.00373021
0.004975177
0.0057312665
0.001692373
-0.0014535547
-0.0041726823
-0.005441613
-0.004703632
-0.0044069304
-0.0017287902
1.0903173E-4
-0.002090146
-0.002900924
-0.0010567394
-1.3253832E-4
-7.552998E-4
-6.2834664E-4
-6.2061526E-4
-0.0015375932
-0.0016745141
-0.001931398
-0.0010856007
8.388879E-4
0.0019303021
0.0030537448
0.0016418458
1.6200161E-4
0.0030387826
0.005209416
0.004556023
0.0021754133
-0.0010731478
-0.0023289623
-0.001489326
-1.9471998E-4
-6.763375E-4
-0.0016452342
-6.4431364E-4
3.969094E-4
6.2716374E-4
-8.315851E-4
-0.0017437933
3.2735776E-4
2.9762278E-4
-0.0011510256
-1.7161295E-4
-1.7707605E-5
-0.0013176254
-0.0012016392
-3.3101212E-4
-8.7334675E-4
-0.0011700082
3.4353588E-4
0.0017412595
0.0017288467
7.938996E-4
5.9070054E-4
-2.7535128E-4
-0.001234973
9.0241915E-4
9.577896E-4
-0.0016272593
-0.0016750161
-8.760719E-5
0.0023988276
0.002377231
9.5269666E-4
0.00238665
0.0016165375
-5.7131494E-4
-7.4848393E-4
-3.2420224E-4
0.0010012877
6.537405E-4
-1.7700635E-4
8.790725E-6
-0.0014693933
-0.0019898873
-8.7959773E-4
-2.729402E-4
-6.4297335E-4
-0.001541887
-0.0011123177
-0.0010253779
-0.0022713179
-0.0031033962
-0.0024535127
-0.0013582562
-0.001410429
8.582836E-4
0.0026205033
6.039268E-4
0.0021879904
0.004732558
0.0030545562
3.9115272E-4
-0.0016314891
-5.700207E-5
0.0019182356
2.7889875E-4
-4.3807254E-4
-3.8086757E-5
-4.2632775E-4
-0.001226763
-0.0014715351
-0.0010377375
-2.8933546E-5
0.0025246877
0.0018520101
-3.5629695E-4
7.567632E-4
-6.7300274E-4
-0.001803655
-6.843812E-4
-0.0016871814
4.4623852E-5
8.848918E-4
-0.0018546849
-0.0018039255
-0.0012501538
2.6018074E-4
0.0031270906
0.0031241458
0.0030657
0.0034474172
0.001386721
-7.9084205E-4
-2.837415E-4
5.185049E-4
2.2636914E-4
0.0015396401
0.002021022
-1.6315978E-5
-0.0018151109
-0.0029136196
-0.003342117
-0.0059812763
-0.0088458145
-0.0060781487
-0.0025643685
-0.0021994472
-0.0022848188
-2.4031928E-4
0.0030792458
0.0026602892
0.002066363
0.0039164894
0.002769704
9.1518555E-4
-4.3802187E-4
-0.0011532084
0.0020343426
0.0034652695
0.0017970578
0.0022936321
0.0030085077
0.0032357208
0.005113952
0.007063816
0.006816572
0.004335419
0.0010157613
-0.0019929565
-0.004693404
-0.008023608
-0.01016075
-0.009127043
-0.0064499234
-0.0028435006
-8.540307E-4
-0.0013110433
-5.451357E-4
-4.336003E-4
-8.373338E-4
0.0012813126
0.0016434342
6.772977E-4
0.0017677192
0.0017010786
0.0010401008
0.0013010496
5.1266706E-4
0.0016186035
0.004901481
0.0041351737
4.4819077E-5
-0.0019996443
-2.7577035E-4
0.0034332578
0.0029319993
-0.0014236445
-0.0018035203
3.5765913E-4
6.6164514E-4
-0.001099104
-0.0052126558
-0.0062819556
-0.0016087418
0.0017413739
0.0011245667
3.1259216E-4
1.1821356E-4
-9.296177E-4
-9.2087686E-4
0.001236012
7.965917E-4
-0.001728136
-0.0013490005
-8.3696557E-4
-0.0011643181
0.0011230867
0.0029773866
0.0025024898
0.0019907255
4.8496516E-4
-0.0012762771
-0.0013072627
-4.226655E-4
4.921398E-4
-4.5984352E-4
-8.178666E-4
0.002074026
0.0013838733
-0.0011860845
0.0017179782
0.0034465564
0.0013541522
6.948738E-4
3.5271773E-4
-5.787225E-4
-0.0012230311
-6.713854E-4
0.0010328644
0.0015131045
0.0013867146
0.0011333368
-3.8773994E-4
-0.0028148734
-0.0042677745
-0.0022374326
-3.2753046E-4
-0.0015975401
-0.0019103185
-0.0018597632
-0.0029903671
-0.0023737687
-0.0018527353
-0.0027576748
-0.0016373891
4.5009056E-4
0.0011196347
7.457787E-4
-9.282579E-4
-1.8476664E-4
0.002754227
0.0012160294
-4.371223E-4
0.0010080151
9.6430816E-4
0.0018499059
0.0026814197
0.0021573363
0.0040021744
0.006092492
0.008366178
0.0076615727
-2.6222537E-5
-0.0035686158
5.515768E-4
0.0016076692
-0.0013062804
-0.0032460873
-0.004692356
-0.0051402603
-0.00244848
3.475283E-4
8.3721336E-4
-4.3399665E-5
-0.002158291
-0.0031731057
-0.004242042
-0.007092747
-0.006108145
-0.0025600847
-0.0019227688
-0.001142288
0.0023723154
0.0058282088
0.004993435
0.0017546819
0.0021276227
0.0027845937
-6.73683E-4
-0.0034669945
-0.0019129461
0.0012274425
0.002120531
0.0013930523
0.0012983315
9.492012E-4
9.1019395E-4
0.0022498306
0.0016171504
-4.8496865E-4
-9.989875E-5
-3.5906363E-5
-9.324488E-4
-1.905328E-4
-8.5466716E-4
-0.0014125851
1.11263034E-4
-3.3249686E-4
-0.0013491324
-0.0013167522
-0.0014814237
-0.0013467285
-4.811791E-4
7.5551827E-4
2.6350582E-4
4.1302966E-4
0.0011683147
-9.648002E-4
-2.8995782E-4
0.0014230706
-1.3595485E-4
-4.1400654E-5
4.1143293E-4
0.0022438813
0.0033083162
-7.4079225E-4
-0.0010636895
9.227344E-4
4.157488E-4
-2.5333755E-4
-0.00287556
-0.0024898346
5.605216E-4
0.0023633838
0.0047748154
0.0041673156
0.002700943
6.0527167E-5
-0.0035512545
-0.0017096233
-0.0039370637
-0.0079361135
-0.0050715306
-0.0040879897
-7.7550265E-4
0.003305737
2.4219471E-4
-3.1092204E-4
7.360468E-4
-3.042428E-4
3.0423523E-4
7.576418E-4
8.474191E-4
-8.4501815E-5
-2.5557834E-4
6.9520983E-4
-8.533427E-5
8.5217314E-4
0.0012866631
7.1310863E-4
0.0023457878
9.881662E-4
-7.3722695E-5
0.001950012
7.173173E-4
-3.2662446E-4
0.0019776262
0.0032369054
0.0027293263
0.0020450335
0.0013449804
2.8914248E-4
-0.0012024591
-0.001711234
3.8439834E-5
9.0590504E-4
-5.154336E-4
-0.0016920655
-0.0030577881
-0.0032059625
-0.0015998583
-0.0017496607
-0.0023229565
-0.002248855
-0.0024606667
-0.0022388755
-8.878335E-4
0.002319913
0.0033641185
1.798726E-4
-0.0028838837
-0.0039607007
-0.0025144482
-3.646706E-4
0.0010826997
0.003093371
0.00260446
6.988441E-4
0.0012052694
0.0017879704
0.002657437
0.003595756
0.002708675
0.0028331908
0.0022621118
-9.864442E-4
-0.0022147791
-0.0019945928
-0.0010497519
0.003523044
0.005818594
0.0015400314
-0.0022417153
-0.0017938789
-0.0013676509
-0.0024014872
-0.0010419058
0.0018330198
0.0017488361
1.9656953E-4
-0.0015998535
-0.0042238594
-0.0053441385
-0.0046851244
-0.0031695326
-0.0019959395
-0.002958354
-0.004001006
-0.0027955368
-0.0014259764
-0.0015192076
-7.888254E-4
4.2975452E-4
6.062713E-4
0.0017833796
0.0027454908
0.0044433335
0.006670172
0.0030252188
0.0010718798
0.004467968
0.0022628813
6.514205E-4
0.006243637
0.0096956985
0.007172888
0.0033444026
0.0042607426
0.007370277
0.0066567655
0.0034616066
-0.0033500337
-0.0130585795
-0.018274028
-0.016947657
-0.012765511
-0.008610078
-0.005576921
-0.0049427296
-0.0045431876
-0.0016573177
-1.9419134E-5
3.705577E-4
0.002208868
0.002968335
0.004528662
0.0067232936
0.003739109
3.906863E-4
0.0016800547
0.003804413
0.0055132294
0.0036806315
9.969034E-5
0.0017867583
0.0021400272
9.1034354E-4
0.004870575
0.0061755725
0.005835028
0.008577021
0.008336729
0.0069083394
0.00492042
0.0024021785
0.0030706788
0.0015759539
-0.0021409378
-0.0035990837
-0.0045672087
-0.006052167
-0.009599076
-0.013050317
-0.014130474
-0.017147806
-0.02089785
-0.020804808
-0.018378792
-0.016448434
-0.013381409
-0.008200644
-0.0041398364
5.0164945E-4
0.006220548
0.00860851
0.010601411
0.012781063
0.011966803
0.012217292
0.014864598
0.01885773
0.025115099
0.029468652
0.029190924
0.026573403
0.01955517
0.008779624
0.00438622
0.0025733754
-0.0115806395
-0.029877318
-0.040604003
-0.050365057
-0.053767305
-0.04069856
-0.02367041
-0.01298667
-0.0038134842
0.0032386228
0.0069098393
0.01108681
0.013347648
0.012144692
0.009496803
0.0060405163
0.005251832
0.004359393
7.552876E-4
0.0029264544
0.00769834
0.004366128
-0.0025649231
-0.0071749706
-0.011160405
-0.014646972
-0.018327931
-0.022250634
-0.018243505
-0.003968512
0.011934477
0.029649032
0.05080797
0.07228846
0.098124824
0.12306293
0.13432099
0.13399106
0.12330527
0.09780465
0.05993441
0.009124937
-0.0482966
-0.09881463
-0.14899789
-0.19966955
-0.22390975
-0.21214718
-0.18783778
-0.1677088
-0.1473976
-0.12632328
-0.108378865
-0.08841846
-0.064008206
-0.034842815
0.005306641
0.05884463
0.111508824
0.14566468
0.17412966
0.21137069
0.24170259
0.2591191
0.2696781
0.26643908
0.23583594
0.17577694
0.10772296
0.055980954
0.022393921
-0.033045944
-0.13271394
-0.21350835
-0.244577
-0.26735568
-0.2820866
-0.27483982
-0.2632196
-0.25772724
-0.23743331
-0.18852669
-0.13654433
-0.0596671
0.077018
0.22857372
0.3523281
0.42133886
0.42203748
0.3632671
0.23946819
0.116246425
0.05845497
0.006393937
-0.06879665
-0.097970195
-0.047927592
-6.4881526E-5
-0.02188714
-0.08575571
-0.19004609
-0.26997918
-0.22331825
-0.13920803
-0.11183092
-0.11894905
-0.1395377
-0.13886634
-0.12293455
-0.111572765
-0.082812004
-0.044117313
-0.0063552796
0.034261573
0.097390786
0.18174632
0.23509164
0.25092876
0.2416029
0.22472127
0.21658373
0.14616302
0.025827227
-0.024255943
-0.014904629
-0.024582913
-0.0371322
-0.04040479
-0.1085223
-0.18828097
-0.13064341
-0.0073116827
0.064564794
0.10199278
0.116028324
0.12640126
0.1176797
0.077487536
0.0558317
0.009049594
-0.08710589
-0.1517892
-0.16319181
-0.15463014
-0.16450351
-0.18630405
-0.16786446
-0.11538442
-0.06871128
-0.03511883
-0.0068908245
0.0028316563
-0.01207178
-0.016699271
-0.0072617573
-0.0051932107
0.0036761742
0.028909246
0.061416056
0.09061851
0.10867092
0.117523596
0.12961286
0.14698805
0.1440185
0.120686546
0.097592555
0.06850886
0.038518067
0.011050871
-0.023936251
-0.05476727
-0.07072871
-0.06986708
-0.058112312
-0.04417113
-0.022031287
0.0013271241
0.0041330843
-0.016006138
-0.030135956
-0.018812718
-0.018273735
-0.055460155
-0.08968818
-0.0852516
-0.06525756
-0.05047907
-0.023754539
0.011658662
0.038372416
0.068073586
0.08781212
0.05438447
-0.005574689
-0.032258417
-0.053523608
-0.08718523
-0.08177064
-0.058790278
-0.053348962
-0.032963965
0.006092808
0.054909285
0.103896424
0.13679029
0.15985934
0.1560044
0.12314852
0.07988673
0.019388804
-0.024351321
-0.015075573
0.024165506
0.05144101
0.034498483
-0.003966029
-0.02027276
-0.028392497
-0.06569353
-0.11941127
-0.13559555
-0.11034574
-0.09853167
-0.12172438
-0.13142279
-0.088869736
-0.026810016
0.025842937
0.04701411
0.020007947
0.002954961
0.004943616
-0.014496294
-0.019552061
-0.0027302161
0.018629832
0.053929314
0.08133075
0.099918
0.11995882
0.12755671
0.12125235
0.0969074
0.063497186
0.039564498
0.023398468
0.020402946
0.024775133
0.0030337605
-0.0450231
-0.0860336
-0.11087067
-0.11014131
-0.08103907
-0.059032556
-0.039535627
-0.002803982
0.027725477
0.04829461
0.056535766
0.04473555
0.026825204
0.0033796914
-0.02413817
-0.04354554
-0.040255193
-0.024486095
-0.024398528
-0.016131744
0.0033977316
0.004040005
0.0069991886
0.0032784792
-0.021359995
-0.026814852
-0.019997953
-0.022471247
-0.01870903
-0.0112704
-0.0055209156
0.0021995578
0.005816822
0.0053894385
0.005930579
-1.8966252E-4
-0.017252369
-0.025686836
-0.016977224
-0.010949773
-0.015100331
-0.024889916
-0.034891244
-0.030628616
-0.015801592
-0.0070672296
-0.003796947
8.170752E-4
0.013023896
0.029429387
0.038965385
0.043060966
0.04018228
0.035585053
0.04619852
0.063810185
0.076359846
0.08656681
0.095215425
0.10080302
0.098477945
0.095515646
0.10028165
0.09840909
0.060016938
-0.033863842
-0.12999125
-0.15496652
-0.11088243
-0.040795077
-0.014760294
-0.06261395
-0.11405614
-0.13688394
-0.15383902
-0.15707634
-0.15123087
-0.14660484
-0.1288276
-0.09020034
-0.0381406
0.009378195
0.039676104
0.0578968
0.07082183
0.07733725
0.077968776
0.0790431
0.081560284
0.08245491
0.085042834
0.08916132
0.087825105
0.081761986
0.072633795
0.05927338
0.05014529
0.04535287
0.036234654
0.026102858
0.01585773
0.0046085836
-0.0064520775
-0.017834192
-0.023976384
-0.02882993
-0.036021587
-0.03792523
-0.038069863
-0.03819565
-0.034966134
-0.0313683
-0.02664721
-0.019139562
-0.012305792
-0.012294138
-0.016062753
-0.021406678
-0.030912042
-0.02978658
-0.022070538
-0.026264882
-0.02986494
-0.027747495
-0.023926863
-0.013532642
0.001320577
0.018906245
0.023726204
0.013523546
0.013328251
0.015060638
0.007498351
0.004745663
0.0024474317
-0.0018554954
0.0058126715
0.02019097
0.024803367
0.025008544
0.03249892
0.034397084
0.018449444
-8.141191E-4
-0.007914594
-0.008300023
-0.011820549
-0.013608098
-0.00816011
-3.005382E-4
0.004025897
0.00395093
0.0051074545
0.00521398
4.86245E-4
3.4394918E-4
0.004675107
0.008002765
0.009338372
0.0043944474
6.6725776E-4
0.0026467904
0.0040303166
0.00579535
0.0041627595
9.830117E-4
0.0024655683
-3.3876178E-4
-0.0047843657
-0.0046704262
-0.0069782967
-0.005999337
9.3367946E-4
0.004166589
0.004123336
8.638497E-4
-0.0059475102
-0.009452058
-0.011067575
-0.015198175
-0.017296374
-0.013561221
-0.008400867
-0.005670513
-0.0026811198
0.0010946163
0.0034101827
0.0014686923
-0.0030424318
-0.001030711
9.4115554E-4
-0.0039795623
-0.0024498564
6.167067E-4
-0.00271434
-3.5310094E-4
0.0042432165
0.004463751
0.0043748133
0.0046955827
0.0054270825
0.0013727451
-0.0033638333
0.0010466302
0.0058688987
0.0059364084
0.00478615
0.001428356
-0.0014993941
-0.0033230016
-0.004340476
-0.0010431383
0.002042543
-0.0019854927
-0.0071567725
-0.0065897326
-0.0058047688
-0.0085256165
-0.011871093
-0.012813925
-0.008270686
-0.002044305
-3.799505E-4
-0.0031648765
-0.005775719
-0.0035800023
0.002005721
0.008261865
0.010929149
0.009874292
0.011375403
0.009171674
0.0049770684
0.008213611
0.009158736
0.008038655
0.008979856
0.008335891
0.013435052
0.018385282
0.016012156
0.010614687
-9.903355E-4
-0.010964194
-0.015333235
-0.019977925
-0.018891996
-0.014977489
-0.011688074
-0.00775669
-0.010619862
-0.015946893
-0.017149271
-0.015624316
-0.010909958
-0.006351202
-0.002832896
-1.4516023E-4
0.0024876834
0.006280965
0.004595733
0.0019329796
0.0058327722
0.008580561
0.010265707
0.014107945
0.014500685
0.011275834
0.008398388
0.0077224546
0.007485227
0.006047536
0.0044626845
0.0014041553
-0.002419013
-0.0050608227
-0.005767721
-0.0030863895
-0.0018959041
-0.0035538236
-0.0012405746
0.0018974087
2.3779819E-4
-0.0016633616
-0.0012473186
-0.0016675432
-0.0036864572
-0.0036104578
-4.8192178E-5
0.0022003541
0.0019180791
0.0013326164
-0.0011805538
-0.002405742
9.287146E-4
0.001980125
3.225631E-4
0.0029439963
0.0069531337
0.0066040843
0.0020693322
-0.0050886422
-0.011702968
-0.013111988
-0.008274342
-0.0026841091
-0.001189353
-8.4795285E-4
0.0022163226
0.006692684
0.008634038
0.006184627
0.0029369476
0.0033585713
0.006733357
0.007012334
0.0011081331
-0.0029823678
-0.0016435238
-0.003045573
-0.006403742
-0.006358468
-0.0064547975
-0.007949406
-0.00891986
-0.008280807
-0.005268765
-0.0032387904
-0.0036658926
-0.0033683751
-0.0012300023
-3.2014726E-5
-2.8892758E-4
0.0017447559
0.004077416
0.00481027
0.006309968
0.0055425274
0.0050358186
0.008191354
0.010530977
0.014346594
0.01813868
0.017697606
0.017783439
0.015273122
0.00896876
0.0075571905
0.008836593
0.0056782966
-0.0028852662
-0.015665255
-0.027856978
-0.03173371
-0.024084255
-0.012571816
-0.006665346
-0.005348635
-0.0056998217
-0.0071490663
-0.006011408
-0.003963947
-0.005153574
-0.005738022
-0.005001515
-0.0047062226
-0.0017441398
0.0021364389
0.003827934
0.0039841007
0.0037439405
0.005090566
0.0066494932
0.007546458
0.008067531
0.006413701
0.0070959544
0.01205603
0.013385701
0.009003631
0.0040174406
-2.1296297E-4
-0.004097851
-0.004315496
-6.9535413E-4
0.0018827845
0.002692899
0.0038510642
0.0052941223
0.005386122
0.004349931
0.0038003663
7.9149776E-4
-0.00518143
-0.0073763663
-0.006093161
-0.009916343
-0.015246722
-0.012517553
-0.009250572
-0.007979404
-0.0017357051
1.0520669E-4
-0.0027756607
-0.0018905968
-0.002100724
-0.0014616777
1.0504654E-6
-0.0015268706
-6.8627676E-4
0.0015490163
0.0038744225
0.006741044
0.008359736
0.008100637
0.0047783186
0.0066996575
0.0126266945
0.013675645
0.015855646
0.011485587
-0.0021162522
-0.0068019303
-0.006080901
-0.0071105664
-0.00661427
-0.007549259
-0.0077545294
-0.0058279387
-0.0045652296
-0.0041356348
-0.004935643
-0.004116439
-0.0016170765
-0.0013266254
-0.0015467762
-8.2744705E-4
-0.0016896131
-0.0018332714
0.0012197347
0.0015456465
-3.9080204E-4
0.0019743824
0.0030776353
4.2657665E-4
0.0010464924
0.00288967
0.0023647721
0.0023373587
0.003177868
0.0032056838
0.0037958883
0.005917096
0.006492449
0.005076335
0.002768043
-8.291716E-4
-0.0015546507
5.8011874E-4
8.500714E-4
-8.992809E-4
-0.0041187718
-0.0050758654
-0.0033928305
-0.0019157315
0.0021680947
0.003749593
0.002734864
0.005536278
0.002852467
-0.0046096225
-0.0071673184
-0.007529372
-0.007164387
-0.007688814
-0.007463905
-0.00443322
-0.0047147702
-0.004832247
-6.637543E-4
0.0021598996
0.0026627795
0.0039662016
0.004485305
7.1070745E-4
-0.0013792512
0.0012247175
0.0027639142
0.003368522
0.0030141494
0.0047049727
0.00833671
0.010014124
0.014324731
0.010339265
-9.193653E-4
-7.2609534E-4
-0.0023526952
-0.006581757
-0.0019108535
-0.0014998286
-0.002394983
-0.0025701115
-0.0065249256
-0.00418487
-0.0018684529
-0.0036035094
-0.0021945888
-0.0015257687
-0.0018704077
-0.0035769998
-0.0059627513
-0.0038412486
-0.0011771057
4.4848394E-4
0.0022460772
0.002358137
0.0035516042
0.00423673
9.010764E-4
-2.65718E-4
0.002375982
0.001551024
-4.249767E-4
8.8800944E-4
5.8388035E-4
2.5933946E-4
0.0022676205
0.0012757968
-5.0039525E-4
-1.6378511E-4
7.651031E-5
0.0012260908
0.0021061185
0.001378459
2.547551E-4
-0.0011743868
-0.001266044
-5.20528E-4
-6.0407544E-4
-1.4543405E-4
3.7333037E-5
-6.2534044E-4
-6.238934E-4
2.8571652E-4
0.0019011507
0.0028432696
0.0030376683
0.0017270461
-0.002186436
-0.002843633
0.0010359122
0.003655013
0.004215278
0.0016063787
-0.0036261592
-0.0068964027
-0.008053163
-0.007223974
-0.004297549
-9.1463584E-4
0.0038378618
0.008697973
0.008347906
0.0031443336
7.4351975E-4
0.0019106439
-0.0017643666
-0.009481909
-0.010815895
-0.0055922708
-0.0016064843
4.3489103E-4
0.001766332
0.002273907
0.003495429
0.0038935593
0.0042422577
0.005565822
0.0038647843
0.0022874493
0.0030261767
4.9282267E-4
-0.0019904706
8.1905135E-4
0.0033682256
1.947805E-4
-0.0046819607
-0.004819895
-0.0012049681
6.043928E-4
-0.0014961871
-0.002258922
-1.9756253E-5
-0.001568728
-0.0019511168
0.0036107565
0.004696086
0.002837694
0.0029494318
-4.9720396E-4
-0.0034134227
-0.0032594753
-0.0033007725
3.0594753E-4
0.003807066
0.0012101246
-0.0016451174
-0.0020074008
-0.0014290424
7.896531E-4
0.001777198
6.700828E-4
7.6821685E-5
-3.951739E-4
0.0011473643
0.0028103967
-0.0014751471
-0.0048731887
-0.0030519126
-0.0037096408
-0.0046726153
-0.0019117607
2.2736918E-4
0.0019649032
0.0044672373
0.004923124
0.0038258925
0.0043505174
0.0051654107
0.0026265183
-0.0016966803
-0.0041478933
-0.0028384812
7.65948E-4
0.0016516148
-4.0963056E-5
1.1261933E-4
0.001501371
8.516902E-4
-2.0651349E-4
3.9830946E-4
-0.0013762388
-0.0030862065
2.5172604E-4
8.970226E-4
-0.003156632
-0.0044039437
-0.0025637082
-1.8766927E-4
0.0012565176
0.0013125755
8.709238E-4
6.602225E-4
-6.96248E-5
-0.0026721542
-0.0026976925
-9.7690354E-5
4.9106806E-4
0.0025710943
0.004642752
0.0037561979
0.0033442203
0.0034280429
0.004450609
0.0037272943
9.481194E-4
7.421229E-5
-0.0027767513
-0.005048962
-0.0040505636
-0.0047052735
-0.0054316223
-0.005442888
-0.0030086283
-2.293937E-4
-0.0018216068
-1.9849138E-4
0.0020790198
-3.292832E-4
-6.4791576E-4
1.8264516E-4
0.0019359649
0.0031593852
1.0359381E-4
-9.6628116E-4
-1.9657832E-4
8.613075E-4
0.0037431458
0.0035776126
0.0033856835
0.0070994194
0.009388679
0.010309338
0.011817314
0.008545171
0.0014277053
-0.0019695945
-0.004837391
-0.007948446
-0.0067457864
-0.008943718
-0.014011392
-0.012058206
-0.0076533863
-0.006287393
-0.004757215
-0.0018961473
-9.934737E-4
-0.0020495078
-9.329031E-4
7.1601244E-4
8.370266E-4
0.0014143926
0.0018815051
0.0021017254
0.002463093
0.0031387794
0.0041294666
0.003504875
0.0029601355
0.0040853987
0.0047499626
0.005932668
0.007906098
0.007592036
0.0062857447
0.007778478
0.009953851
0.008370755
0.0026369046
-0.0044007096
-0.007334408
-0.0058595813
-0.0067551625
-0.010383659
-0.012444345
-0.011402902
-0.0061877784
-5.367159E-4
5.646531E-4
-0.0012232894
-0.0024073524
-0.001317903
-2.1429744E-4
-0.0022250663
-0.004028874
-0.0028313922
-0.001685576
-0.0021059765
-0.0020426793
-5.488455E-4
7.5175206E-4
0.0016614432
0.0029328521
0.003479918
0.003775253
0.0051289075
0.008523489
0.013565097
0.014841797
0.010544872
0.0044067046
-0.0021816597
-0.005726157
-0.0035406663
-0.0010860187
-0.0032065285
-0.005810089
-0.0039117425
-0.0014675319
-0.0020412933
-0.0027815364
-0.0011062177
0.0021239454
9.822998E-4
-0.0031870115
-0.0039920467
-0.004778078
-0.0033644373
8.585196E-5
-0.0029310794
-0.0041680923
4.1533686E-4
0.0023487592
0.004034113
0.004975599
9.859127E-4
-0.0027985328
-4.6571635E-4
0.0036010966
6.491488E-4
-0.002443467
3.7644515E-4
0.0014409343
0.002693059
0.0041077095
7.023245E-4
-0.0014386869
-0.0019237779
-0.0027811367
-0.001722066
-0.0021939077
-0.0031426556
-0.002500456
-0.0035182133
-0.003467388
-1.2565136E-4
0.0016876609
0.001997834
0.0046995194
0.0055124965
0.0036887384
0.0063166996
0.008550888
0.006382171
0.005041053
0.001546494
-0.001972406
-2.0452443E-4
-3.6023604E-4
-0.0024306376
-0.0016925413
-0.002466547
-0.004885285
-0.0051140375
-0.0040137074
-0.0048377616
-0.0049430463
5.180651E-4
0.0051621837
0.005838827
0.008609702
0.010612698
0.008613236
0.006433948
0.0049614077
0.0024672642
-7.449623E-4