-0.035880946
-0.022123197
-0.015801998
-0.032573782
-0.040889647
-0.022975035
-0.012389461
-0.003093807
0.014709347
0.045859464
0.06969797
0.0447059
0.0064315144
-0.022982426
-0.035862315
-0.0032676805
0.014488681
0.012458665
0.040367898
0.04240137
0.023913734
0.028690334
0.026420157
0.024479058
0.016557751
-0.014874428
-0.030249862
-0.02804894
-0.026900608
-0.037754357
-0.058804233
-0.03017408
0.017716069
-0.011990054
-0.048161056
-0.0062782154
0.03905433
0.04350386
0.02608436
-0.009179433
-0.014101102
0.013445128
0.011917273
0.010620809
0.020925466
-0.005454604
-0.027855054
-0.0150697725
0.0024541623
0.0052600387
-0.023975467
-0.051807936
-0.043958046
-0.02345794
-4.948963E-4
0.010504714
0.007364235
0.0128739
0.017202381
0.014198402
0.009429113
0.0097708255
0.020991115
0.02195003
0.019251669
0.02697968
0.025655085
0.027349535
0.036870066
0.024049606
-0.0025901983
-0.019041466
-0.028232384
-0.031821523
-0.023396226
-0.012349731
-0.0010489863
0.014971313
0.005920025
-0.016298646
-0.007342031
-0.002775953
-0.019163132
-0.021045769
-0.014604325
-0.007676181
-0.0020222038
0.011058179
0.04140714
0.049863897
0.026086852
-0.007460462
-0.03237063
-0.0290382
-0.025027307
-0.01876465
0.0031225123
-0.008705106
-0.033535685
-0.029056916
-0.030874254
-0.043019306
-0.032455906
-0.0062730326
0.005026929
0.01301896
0.03762894
0.054695223
0.04935333
0.027481973
0.019602723
0.04376377
0.0631585
0.07440011
0.08331091
0.06635885
0.029413294
-1.5499014E-4
-0.0029847657
-0.009584516
-0.019137684
0.005239439
0.0042709718
-0.035299
-0.074526496
-0.13330469
-0.16001512
-0.124589644
-0.08934357
-0.058074202
-0.01743979
0.011528905
0.029210838
0.049029093
0.055630296
0.04661513
0.046380922
0.042512737
0.029725786
0.01822084
0.010195963
0.01641149
0.016033988
0.0137512535
0.019113902
0.0063213212
-4.8314448E-4
-0.011065125
-0.035350148
-0.02556105
-0.001405167
0.016378019
0.009722243
-0.029744375
-0.023557765
0.021147212
0.028120423
-0.0042420835
-0.032562826
-0.011783248
0.030131306
0.06288368
0.09045714
0.08584048
0.0728325
0.065850325
0.045315728
0.021795992
-0.02660631
-0.066130586
-0.0642129
-0.075321004
-0.06664968
-0.031837292
-0.054461133
-0.109284155
-0.13210596
-0.11843315
-0.084916025
-0.04630184
-0.013587617
0.008229332
0.036629703
0.053616595
0.045672823
0.050498396
0.06040401
0.06461078
0.06420592
0.049323708
0.036199756
0.01747629
0.013306949
0.030431762
0.0298889
0.04585842
0.045844566
-0.012071103
-0.03975071
-0.032619912
-0.017361274
0.018779933
0.023700276
-0.012534987
-0.045063395
-0.04924024
-0.026335845
0.0039664237
0.021293504
0.003914182
-0.008687625
0.01810078
0.042599633
0.06185567
0.05795176
8.914859E-4
-0.046445627
-0.053510573
-0.042826228
-0.021920115
-0.010485561
-0.0027931633
0.00991255
-6.4185726E-5
-0.018333428
-0.004930785
0.0068587735
-0.023478685
-0.05503932
-0.05817734
-0.053574532
-0.046061352
-0.030014023
3.657971E-4
0.03234384
0.045366455
0.056708258
0.05010841
0.0023266778
-0.029063117
-0.02684283
-0.021507043
-0.0024728517
0.021209363
0.041999556
0.055115774
0.028835494
-0.0016916791
0.009323604
0.03825729
0.052553352
0.035986423
0.015021286
0.018490005
0.036302272
0.055100072
0.031097865
-0.035146993
-0.061885834
-0.04236274
-0.019701557
0.004887632
0.019710498
0.024724957
0.03145026
-4.6338743E-4
-0.06667846
-0.08905282
-0.07198924
-0.06773957
-0.06425432
-0.056345236
-0.05676063
-0.047573846
-0.021168388
0.006338304
0.021836065
0.026413435
0.032536525
0.03984702
0.041983422
0.04982001
0.056999523
0.043279815
0.018846005
0.003927505
0.013845499
0.028973099
0.014418395
0.004472287
0.017709373
0.023243375
0.021627985
0.015422884
0.016738847
0.02434162
0.013596893
-7.079633E-4
-0.022952473
-0.05056557
-0.047314443
-0.028815027
-0.018235506
-0.020524776
-0.030132987
-0.022456098
-0.009171056
-0.013704995
-0.020351697
-0.020958517
-0.03331986
-0.032484706
-3.0423974E-4
0.01902615
0.033279724
0.045618564
0.030571274
0.028776119
0.021566123
-0.008433169
-0.011719354
-0.015882144
-0.029634787
-0.027510507
-0.014872923
0.016573146
0.03286767
0.019463053
0.02055253
0.037842352
0.042227596
0.022130704
4.7951555E-4
-0.0038777513
-0.001350544
-0.014178876
-0.058661424
-0.083462104
-0.05019862
-0.010922474
0.007919832
0.015736165
0.015935164
0.027331702
0.04672816
0.042692855
0.018312415
0.0019959277
-0.014784584
-0.037925623
-0.046646003
-0.03423976
-0.0012376702
0.023713429
0.025549652
0.030271195
0.030242067
0.023019101
0.009999133
-0.01329794
-0.007617055
0.002775903
-0.022725275
-0.03192216
-0.021792183
-0.02388142
-0.011247354
0.012587667
0.018515216
0.010243216
0.0032836536
0.013021653
0.029578531
0.027164333
0.017586498
0.022771863
0.022049783
-0.009628978
-0.049702886
-0.06744261
-0.061656315
-0.039573297
-0.016070722
0.007466181
0.041198436
0.061749943
0.050544266
0.011825253
-0.030619282
-0.034195576
-0.0206466
-0.027733512
-0.030780608
-0.016557094
-0.0016290573
-0.004722663
-0.00904636
0.009969542
0.019459847
0.013911776
0.016842708
0.025651582
0.039932884
0.030914612
-9.409415E-4
-0.0072079664
-2.9353684E-4
-0.010060283
-0.021858813
-0.019180296
-0.009047889
0.004240163
0.022177566
0.028528476
0.024280678
0.016542256
0.008807479
0.014277971
0.010796157
0.004241711
0.01934937
0.023487637
0.021164916
0.030143186
0.030093694
0.0125365835
-0.030646417
-0.06270941
-0.051133327
-0.039876528
-0.041668195
-0.035804592
-0.028633729
-0.029339598
-0.031246357
-0.024248114
-0.015948983
-0.0044629583
0.0024266054
-0.012672522
-0.016840523
-0.0049594543
-0.0041889185
0.0052286303
0.021017328
0.021756986
0.018256871
0.018538056
0.02503334
0.031845953
0.035815805
0.044889685
0.03899761
0.013191432
0.0027903458
0.010536535
0.016623177
0.015532859
0.0018980032
-0.012073465
-0.011104379
-0.004767432
9.1886753E-4
0.0034142241
0.0020018585
0.0077708946
0.01541229
0.006194502
-0.019242084
-0.030580085
-0.015407639
-0.009340241
-0.018958
-0.019661818
-0.014755064
-0.01214622
-0.015475582
-0.0156372
-0.010835276
-0.02274853
-0.031559747
-0.024430094
-0.019948186
-0.0037106508
0.0145659875
0.018013105
0.02365842
0.026769325
0.02327178
0.0164519
0.01068698
0.01620013
0.018649476
0.01188095
0.0014969502
-0.0074103717
-0.0017584091
0.006815546
0.0056609446
-0.0014046578
-0.006419653
-0.0012425171
4.275218E-4
0.0011276383
0.011925674
0.0071600983
-0.013325649
-0.015544301
-0.009257207
-0.023943093
-0.034624908
-0.017321732
-1.3210488E-4
0.0024939368
0.0028989273
0.015589935
0.031293616
0.031865496
0.038285356
0.044455968
0.030399293
0.0024535155
-0.041593924
-0.057787795
-0.028861754
-0.002896515
0.0038515907
-0.012735013
-0.01612095
1.9233063E-4
-0.013106388
-0.0136811575
0.0070728576
0.012197262
0.026596665
0.027325163
0.003866042
-0.011336465
-0.019149948
-0.018537134
-0.019295665
-0.018209826
-0.006551504
0.0014114446
0.015389124
0.02928083
0.029973848
0.026078992
0.016606994
0.016260482
0.025720831
0.026013697
0.022050254
0.009132465
-0.017184325
-0.037103146
-0.04329516
-0.045862194
-0.04781501
-0.048881136
-0.048590913
-0.03444334
-0.005048878
0.019248283
0.025218586
0.018646875
0.010137092
-9.837193E-5
-0.0049774535
-0.0048855925
-0.011707177
-0.0026063973
0.022166535
0.032146424
0.036765184
0.032663587
0.020929446
0.025789723
0.026393395
0.022079362
0.032795373
0.039918
0.039994404
0.035579227
0.022589961
-0.0043039843
-0.04069297
-0.050659698
-0.051708393
-0.055086225
-0.029511916
-0.02687379
-0.03880525
-0.012051277
-0.006927869
-0.014478715
0.0051155007
0.014608823
0.020033894
0.015260719
-0.00615299
-0.010362974
-0.015568557
-0.034765266
-0.038772337
-0.02288908
-0.009770783
4.07967E-4
0.015779486
0.01383744
0.0077676135
0.00884293
-0.0039367583
0.0017203734
0.022041926
0.024464652
0.03367433
0.04204419
0.039883416
0.036838014
0.0157233
0.002974851
0.021912243
0.034536228
0.03118376
0.026102908
0.0130805615
0.0035740843
5.591358E-4
-0.01759241
-0.035103872
-0.035225656
-0.028040985
-0.02143446
-0.03597883
-0.05180524
-0.03116325
-0.010001951
-0.020071711
-0.03911429
-0.048623882
-0.051180825
-0.046463322
-0.017992795
0.025550285
0.050235853
0.054810546
0.049730483
0.020802204
-0.0078176735
-5.2689936E-4
-0.003923735
-0.022937547
-0.011300436
-0.006649016
-0.010967509
-1.243065E-4
-0.0019091095
0.008069701
0.029082652
0.028754145
0.02964024
0.03928114
0.0557669
0.067203365
0.06315
0.05065166
0.015787689
-0.01461175
-0.027268082
-0.035751015
-0.0120046055
0.007546318
0.007241886
0.023213064
0.0047742915
-0.036411498
-0.028253691
0.0013559555
3.158432E-5
-0.048696253
-0.11485539
-0.15089755
-0.1407955
-0.087829955
-0.031270545
-9.776502E-4
0.016717939
0.028949799
0.039588857
0.041534003
0.0338736
0.042289596
0.057252493
0.05361421
0.044233426
0.048632458
0.06115371
0.06698508
0.0672376
0.055193987
0.02216288
-0.008142747
-0.0211333
-0.022167813
-0.012617515
-0.0029159004
-0.0015466715
-0.012103264
-0.030614857
-0.04119815
-0.043374237
-0.03953826
-0.03425953
-0.034313645
-0.023060357
-0.009586559
-0.009283132
-0.0035360325
-0.011565593
-0.029960686
-0.0116369
0.014994681
0.023304595
0.030026404
0.024381045
0.014079144
0.00805612
6.3167005E-5
-0.0030803077
-0.012928564
-0.019081715
-0.0011658379
0.0150333885
0.020740028
0.028557707
0.036266923
0.040315807
0.025680175
-0.010670458
-0.036434215
-0.032514904
-0.018130261
-0.010603857
-0.007852915
-0.005045547
0.006584356
0.02282964
0.022634333
0.0059595834
-0.0035296706
0.0076372563
0.017164594
0.0047982726
-0.013413317
-0.029393768
-0.04151172
-0.040721625
-0.02626259
-0.0015693583
0.0042390027
-0.00825182
0.0044267955
0.021674767
0.024873516
0.035601147
0.031221783
0.009107216
-0.0070052375
-0.016245281
-0.0104044685
-0.0044850307
-0.014937515
-0.02071095
-0.01605031
-0.00655258
0.009613721
0.023438532
0.024762213
0.017253553
0.0129798
0.018291611
0.034753036
0.047283355
0.03379036
0.009428185
-0.014582071
-0.040817007
-0.033674143
-0.006265902
-0.023017894
-0.054245822
-0.04331019
-0.017903022
-0.008539303
-0.005360386
0.002470008
0.0064420654
-0.0010422813
-0.0012918
-0.0016832567
-0.018770915
-0.018846236
-0.0010192216
0.0056892983
0.010337145
0.009743256
0.0050616823
0.009896588
0.012112037
0.018783541
0.03488902
0.04213714
0.035348717
0.009151657
-0.013291654
-0.007948475
-0.0059896223
-0.008341182
-1.09622735E-4
-0.015713958
-0.04796271
-0.05038685
-0.029818607
-0.0106395595
0.007547474
0.017608317
0.013206198
0.009608162
0.01096777
0.008891899
0.009130192
0.019102853
0.03370786
0.033971827
0.014344318
0.0025449574
0.00992751
0.019407084
0.02015871
0.01292623
0.014580828
0.019282438
-0.00531581
-0.030378284
-0.025491193
-0.035869405
-0.053734735
-0.03500064
-0.01717537
-0.01615867
-0.01582123
-0.031802095
-0.03652284
-0.027564926
-0.040762514
-0.02905803
0.008497193
0.0040950794
-0.01049828
0.0036772818
0.019832436
0.036422864
0.05319015
0.054882646
0.0502597
0.046801224
0.040736876
0.027622128
0.0031080057
-0.015870547
-0.014789448
-0.0067788777
-0.001374657
-0.00228743
-0.0038403159
0.0014664863
0.004532588
0.010337515
0.010848496
-0.0061629675
-0.009237821
0.0016714192
-0.0022460413
-0.014988974
-0.018003311
-0.003962788
0.009283895
0.021098891
0.026680224
-0.007507126
-0.03297963
-0.012395586
-9.7549247E-4
-0.0018820913
-0.014021529
-0.059716843
-0.08469416
-0.052509196
-0.0135944355
-0.006922283
-0.009515546
-0.0040164725
-0.0015499179
0.013603364
0.03622067
0.025817659
0.0049087307
0.014369951
0.025961675
0.013110028
0.0061401236
0.02102871
0.031508677
0.028439322
0.028492933
0.042120032
0.057066645
0.053344045
0.04068764
0.03592206
0.028801054
0.012857023
0.0012838588
-0.0024064116
-0.011157619
-0.02688038
-0.046425175
-0.070201516
-0.07616333
-0.05607165
-0.03781813
-0.03253107
-0.03899869
-0.04753585
-0.0410021
-0.034539398
-0.031472534
-0.018826198
-0.0112707745
-0.0048244335
0.010898252
0.029732816
0.04061915
0.024771083
0.0142419785
0.027913898
0.026608517
0.027587414
0.03878712
0.040947534
0.05951802
0.06916151
0.054275878
0.048621144
0.029602699
0.0071292813
0.007251999
-0.01438044
-0.052440964
-0.06779469
-0.07184264
-0.0563911
-0.012227314
0.008345259
-0.019150881
-0.04693315
-0.040644925
-0.011294659
0.01439748
0.03670879
0.07018852
0.08807413
0.07060233
0.031234743
-0.009096903
-0.0239234
-0.026796661
-0.035898052
-0.05121324
-0.08359428
-0.09647042
-0.06974153
-0.040066782
-0.013857068
0.005260943
0.013326795
0.012085201
-0.0028184361
-0.004076616
0.00515901
-0.004692845
-0.0057415524
0.024231587
0.048145995
0.048525624
0.06352869
0.10059579
0.12824327
0.13020246
0.10255481
0.08007345
0.06434281
0.0030037377
-0.07088078
-0.113322996
-0.13937898
-0.13495308
-0.09966568
-0.06448086
-0.037716594
-0.020521073
-0.021710396
-0.03193675
-0.02868518
-0.025655428
-0.0319352
-0.030212566
-0.026045695
-0.016194224
-0.009065475
-0.024336785
-0.030777305
-0.003569092
0.05291104
0.10745382
0.12362785
0.12608886
0.12219865
0.099637166
0.07080397
0.016425421
-0.031199584
-0.035004873
-0.05935755
-0.09129205
-0.0656046
-0.028106857
-0.018482942
-0.013630433
0.0033899385
0.032751884
0.050185516
0.04200637
0.024382375
0.009328691
-0.0019782777
-0.020678801
-0.042787865
-0.04833236
-0.049995862
-0.049534615
-0.028964786
-0.013635932
-0.013889063
-0.012100453
-0.019996533
-0.019458765
0.01126827
0.026817426
0.008350684
-0.005891789
0.0020359415
0.017914977
0.028968895
0.03652843
0.031414684
0.015733164
0.010987231
-0.0035493046
-0.04365276
-0.066114895
-0.039837193
0.010184399
0.041391484
0.048255164
0.041198924
0.024932198
0.023264762
0.035989556
0.038370427
0.031395707
0.021765029
0.006966844
-0.014435363
-0.029333921
-0.025165621
-0.00673813
0.013734677
0.0067898426
-0.014304303
-0.002502851
0.014862844
0.012137939
0.006820232
-0.009221957
-0.0214191
-0.021633245
-0.037777495
-0.054104973
-0.058794625
-0.057518717
-0.040142592
-0.037537728
-0.042504933
-0.017142426
-0.0025978803
0.0054253894
0.02421994
0.016476719
0.018735724
0.031056128
0.03508316
0.07166732
0.08526719
0.071385585
0.07253086
0.025345428
-0.027758596
-0.022059195
-0.007178411
1.1643972E-4
0.002433109
0.015571614
0.034220718
0.025595495
0.013942829
-4.4826273E-4
-0.01977434
-0.029028041
-0.048677452
-0.059757713
-0.051960193
-0.038393207
-0.01771237
-0.013202778
-0.009588969
0.007956178
0.012685863
0.0108553
0.0045261304
-0.008511598
-0.01352691
-0.016487233
-0.02815
-0.040981356
-0.037216727
-0.023836257
-0.016740814
-0.0110014435
0.0018492643
0.02666026
0.04095012
0.03519757
0.027972603
0.012690802
0.0026942813
0.008136668
0.008274641
0.010095774
0.016232295
0.028218655
0.05131538
0.06434974
0.060776755
0.051565256
0.044867508
0.040863622
0.04356095
0.043556653
0.009512021
-0.02966206
-0.043500934
-0.049932063
-0.05545027
-0.088586986
-0.11135003
-0.06403814
-0.024265599
-0.023702208
-0.027736422
-0.04022381
-0.017509969
0.0328764
0.03797112
0.007701217
-0.019108674
-0.035880018
-0.038857687
-0.032686003
-0.03772034
-0.036657315
0.0057996507
0.054023374
0.068557166
0.043232787
-0.013439431
-0.032502588
0.0063563734
0.033274267
0.02397866
0.011364381
0.022435594
0.03464445
0.017149508
-0.007869444
-0.015143342
4.8469557E-4
0.022013461
0.02962532
0.03452615
0.029218981
0.01678782
0.027394604
0.036089912
0.02018265
0.0086690625
0.009945168
0.0025041034
-0.021026919
-0.037706815
-0.038189407
-0.04054935
-0.035238046
-0.019775882
-0.022271095
-0.029411796
-0.022479286
-0.016924055
-0.0074784216
0.0040472834
0.0025170944
0.007453014
0.02014031
0.022776652
0.019941838
-0.0036517237
-0.04395785
-0.057692435
-0.046414778
-0.019558003
0.018889552
0.023046602
0.0029057725
0.013826513
0.036142334
0.044860642
0.059943307
0.065008335
0.01788928
-0.049755864
-0.049932927
0.003806457
0.021447342
0.010045585
0.013653575
0.018624594
0.015285673
0.010705162
0.01220674
0.013851236
0.005644124
0.0062542893
0.009113448
0.001349151
0.0028866217
-0.020162608
-0.08214999
-0.10118344
-0.06436065
-0.040185817
-0.02817245
2.3567713E-4
0.019661868
0.018685605
0.016934345
0.010366025
0.005804629
0.012200969
0.008202911
0.001672307
0.0065187435
0.014495854
0.027456505
0.030379938
0.020918874
0.02263542
0.022774864
0.009304863
0.0078085903
0.023983432
0.032228928
0.032489937
0.03740106
0.034310073
0.021207308
0.008690309
0.0030775506
0.0015772382
-0.01790702
-0.051019523
-0.07000168
-0.06838513
-0.062354714
-0.06916645
-0.06901315
-0.047728006
-0.02156546
0.008310416
0.034584656
0.04151693
0.019491894
-0.010206757
-0.01288504
-0.020123053
-0.040549386
-0.032613643
-0.0035552483
0.028821407
0.046758056
0.048923768
0.055649996
0.05991601
0.060042974
0.04448062
0.03128875
0.047147732
0.039346356
0.021033002
0.011249235
-0.034555797
-0.063495256
-0.06620658
-0.0697042
-0.02867863
0.0029318724
-0.00951987
-0.0057592075
0.0022972561
-0.0040016933
-0.011177873
-0.0077346484
0.009101673
0.01088221
0.0051468294
0.012402655
0.015884563
0.013003248
-0.0034336937
-0.033387735
-0.039633743
-0.024594143
-0.015836146
-3.8628932E-4
0.020537086
0.028831234
0.035593364
0.03402794
0.012617535
-0.004268616
-0.012984291
-0.019881323
-0.0076954355
0.015802214
0.03673281
0.054719612
0.040253274
-0.0060069216
-0.038573977
-0.054377217
-0.049792644
-0.015503753
0.011394596
0.022967307
0.026418447
0.017247459
0.011115328
-0.0067591793
-0.029426629
-0.03659531
-0.060231265
-0.07422234
-0.0465205
-0.011763367
0.014643482
0.01410391
-0.005781
-0.0022984103
0.015641786
0.024530321
0.028749274
0.042897787
0.040980738
-0.0017879846
-0.02636812
-0.0095064975
0.011007634
0.025410851
0.024440322
0.017183673
0.016677745
0.0104141245
0.0060353326
0.010842198
0.017205235
0.021026704
0.030621398
0.05099223
0.056071866
0.03278375
-0.004893556
-0.035239957
-0.04280195
-0.04495817
-0.046384044
-0.044328436
-0.050963357
-0.04237337
-0.0065739146
0.02318871
0.021440329
-0.009972616
-0.037705645
-0.038110618
-0.02796384
-0.012733842
0.015411979
0.02916727
0.016492784
0.0067571397
0.0026498944
0.002266228
0.0077440715
0.005987232
0.013678489
0.028473401
0.026035115
0.018674634
0.01529451
0.0140075935
0.007692523
-0.008561616
-0.032744102
-0.060100626
-0.06468544
-0.061230883
-0.056380596
-0.017033273
0.012396134
0.014499829
0.027453328
0.040414825
0.051919606
0.059640482
0.063500896
0.059458636
0.028183926
0.0153303025
0.024768196
0.018171089
0.022249574
0.031695567
0.03311674
0.030670226
0.0037178139
-0.026254635
-0.03806216
-0.049953897
-0.060477197
-0.06217673
-0.06439696
-0.06271861
-0.047601476
-0.03420456
-0.022683645
-0.018597206
-0.03509665
-0.03361975
-0.01571298
-0.014792179
-0.014789556
-0.0074474663
0.012259714
0.03800655
0.056967705
0.06687688
0.04965185
0.03718267
0.049230877
0.05083266
0.041185282
0.01690575
5.180491E-4
0.01506567
0.020866763
0.018901004
0.0154835675
8.785243E-4
-0.0032769027
-0.0051802536
-0.013692404
-0.019771798
-0.016349362
0.0046873307
0.016594624
0.0053515094
-0.008917813
-0.028186992
-0.05432853
-0.060722053
-0.042665567
-0.025888901
-0.01228106
-0.014429308
-0.02719162
-3.444787E-4
0.014985462
-0.02920617
-0.05249157
-0.031783346
-0.011321744
-0.007227099
-0.005981224
0.013326066
0.026564
0.026268665
0.03240088
0.037765786
0.038067423
0.02635227
0.023275843
0.043024115
0.03796753
0.017327562
0.022762913
0.030916523
0.02947225
0.026998052
0.01072313
-0.0015946986
0.016817348
0.02392721
0.0014556599
-0.003005047
0.0016592722
-0.006635939
-0.005287165
0.0024978358
0.0020025577
-0.0072795
-0.026624994
-0.05713531
-0.07870469
-0.07247267
-0.066922516
-0.06447932
-0.046667468
-0.039827365
-0.03606959
-0.0026952564
0.037955828
0.02897907
-0.024314255
-0.043411583
-0.030796545
-0.025518304
-0.0064748595
0.012598802
0.028010644
0.05008222
0.049178667
0.042214595
0.05028931
0.06302293
0.08340512
0.10182384
0.10175827
0.067159496
0.01889526
-0.0024737339
-0.011993129
-0.014903672
-0.007498841
-0.014973265
-0.028625786
-0.03506088
-0.03422497
-0.02908624
-0.038648006
-0.04434356
-0.029880568
-0.03159692
-0.05003959
-0.047272235
-0.029621454
-0.025449501
-0.025251852
-0.017287204
-0.018529654
-0.02617595
-0.025344873
-0.02066941
-0.0022712506
0.041263532
0.076967694
0.08048972
0.07812786
0.0727931
0.048965067
0.029928088
0.017641611
-0.002827992
-0.0124687515
-0.0066924426
-9.033506E-4
-0.0021250295
-0.0036628142
-2.7586362E-5
-0.016377069
-0.043758567
-0.040351156
-0.02644064
-0.023049772
-0.015450003
-0.009434524
-0.008214623
-0.012728497
-0.019155059
-0.016960317
-0.02155931
-0.02575344
-0.020458318
-0.023524094
-0.010874968
0.015849799
0.022295458
0.03299353
0.050272375
0.047807533
0.037055932
0.025306767
0.021013746
0.024993207
0.019277556
0.009183538
-0.0049317516
-0.016873742
-0.006677658
0.0011500787
-0.010398202
-0.019300118
-0.020743445
-0.020763269
-0.020258233
-0.014771384
-0.002802956
-0.001031957
-0.011798582
-0.013947617
-0.0068927603
-0.010450461
-0.02024737
-0.018338311
-0.010363533
0.004607308
0.030761937
0.042411122
0.03385105
0.024986831
0.01945153
0.017099788
0.015004822
0.0075000688
-0.0021084487
-0.006299646
-0.0012804562
0.0023000843
0.0013406548
0.0030390408
3.9756446E-4
-0.0051862
-0.010096968
-0.018137794
-0.022129435
-0.02360032
-0.023169449
-0.021184959
-0.027589494
-0.034051895
-0.043135
-0.037615344
0.008520155
0.018686686
-0.024984187
-0.025211431
-0.0016319746
0.008640695
0.04498132
0.06532913
0.037175827
0.012341817
0.0019993193
-0.0051496145
0.0034087931
0.015505499
0.023829436
0.042504705
0.03840913
0.009178839
0.017206388
0.035928674
0.026245844
0.029043594
0.034753628
0.019533973
0.0021746394
-0.013510357
-0.021077134
-0.017482545
-0.011917788
-0.013600359
-0.033817206
-0.054874133
-0.052777275
-0.0363864
-0.02500672
-0.026924055
-0.037249815
-0.045119278
-0.044559855
-0.03599417
-0.015045757
0.009228512
0.015456031
0.012109652
0.010071815
0.00927131
0.012749636
0.013744043
0.017226515
0.016107067
0.007240185
0.01651767
0.026046894
0.023561396
0.02411451
0.013877988
-0.002196896
-0.018160284
-0.024223598
7.731686E-4
0.024811544
0.029578649
0.024298554
0.0069191456
-0.0049433974
-0.013589854
-0.016922636
0.0048301513
0.024727061
0.020931559
0.008064688
0.006715563
0.028803477
0.05888809
0.068824336
0.03938837
0.001905725
0.0013149257
5.9873133E-4
-0.024129873
-0.029861595
-0.024221499
-0.041137327
-0.06623255
-0.075691745
-0.074024655
-0.07625902
-0.06955136
-0.04792674
-0.03970644
-0.043288518
-0.039913863
-0.034939837
-0.0144089125
0.03133002
0.06127303
0.055640247
0.051576585
0.062337816
0.0655326
0.061885938
0.056866422
0.04870108
0.046271052
0.042281665
0.0322423
0.028688062
0.017954413
0.0037735372
0.018759124
0.027215451
-0.008947132
-0.039835203
-0.04331457
-0.03632366
-0.019240236
-0.024665922
-0.044048756
-0.04589463
-0.062205534
-0.067295186
-0.041731346
-0.034792654
-0.023257304
9.1113814E-4
0.012350429
0.026889475
0.029669678
0.029711017
0.031410288
0.0067020417
-0.0010599213
0.01388259
0.007925574
-0.009995417
-0.018433778
0.0024367478
0.01784323
-0.0013307969
-0.0055275317
0.0041954047
0.015213013
0.038614467
0.054711983
0.068614066
0.06169168
0.021054633
-0.0043736524
-0.006267867
-0.0024519637
-0.0072676
-0.023201594
-0.033644076
-0.046321735
-0.051470138
-0.040341645
-0.017641436
0.015755197
0.015236755
-0.020630268
-0.05098717
-0.06501872
-0.065512925
-0.083907574
-0.08575038
-0.037742645
-0.0042924867
0.015742816
0.03334523
0.039176878
0.056840707
0.061617248
0.0717466
0.096233696
0.09634628
0.10391201
0.09458038
0.04753116
0.017040184
-0.0027933407
-0.0031012997
0.02013327
0.0236334
0.013697599
0.0041912706
-0.014944764
-0.04213716
-0.048193824
-0.04210149
-0.06425017
-0.072652146
-0.06402199
-0.07908374
-0.07844412
-0.07522313
-0.08899858
-0.08287369
-0.07696584
-0.0602524
-0.010523727
0.031466924
0.06553951
0.089759
0.07700622
0.042724773
0.0070407945
-0.0017280233
0.029676914
0.052627917
0.047167253
0.047670074
0.0719178
0.089009404
0.058429524
0.016422838
0.0038987
-0.0027120984
-0.0019059572
-0.0047132373
-0.02489677
-0.019971425
-0.009056557
-0.015125973
-0.0033010782
0.002092385
-0.002407805
0.0115834335
0.011099905
-0.0060564238
-0.01638146
-0.021516507
-0.017154392
-0.019368103
-0.02753522
-0.017969595
-0.008761307
-0.017294899
-0.038657997
-0.057691764
-0.052462567
-0.034481134
-0.017626222
-0.009271443
-0.02671124
-0.04774023
-0.05345347
-0.040680002
3.1519477E-4
0.015308991
-0.012684832
-0.0056673903
0.035649262
0.057700314
0.06648871
0.078985594
0.09022184
0.09111
0.088487856
0.0868327
0.07913085
0.07094631
0.051645424
0.016611941
-0.011427953
-0.03975125
-0.056159172
-0.034872223
-0.03655194
-0.08295462
-0.093070574
-0.057252392
-0.017698731
0.01256639
0.004526521
-0.023811936
-0.026477914
-0.027955279
-0.04448098
-0.053901944
-0.050763704
-0.03748496
-0.01143736
0.02586323
0.04909372
0.043811806
0.025481476
0.005707097
0.008672029
0.029680744
0.028381167
0.013526046
0.0034243078
0.0046205726
0.019072795
0.017075358
0.011829954
0.01764348
5.1476044E-4
-0.015456066
-0.013309729
-0.015765004
0.0034227464
0.040557783
0.056188814
0.04360941
0.004546056
-0.033925146
-0.040971942
-0.034826234