0.0034434607
0.0031760186
0.0036239368
0.0044342433
-2.8495005E-4
-0.003942184
-0.0049308892
-0.004504794
-9.122018E-4
-4.9198134E-4
-2.7398439E-5
0.0034020052
0.0040135626
0.0042623035
0.0019026668
-0.003544358
-0.0048122928
-0.0034135699
-0.0016187071
4.4558363E-4
0.0029743612
0.004849068
0.0028276264
0.0011752392
7.471945E-4
-0.0020972823
-0.0045594783
-0.0051569487
-0.003393535
-6.434581E-4
9.263379E-4
0.0029871936
0.00427724
0.0036443279
8.771389E-4
-0.0031801767
-0.0043653394
-0.003660321
-0.0022425966
5.5671297E-4
0.0021779533
0.0032370025
0.004098239
0.0038114567
0.0031266282
4.1021247E-4
-0.0030965228
-0.0033072098
-0.0011277911
2.1626262E-5
-1.4357636E-4
0.0010690572
0.003966463
0.0049508023
0.0013191832
-0.004174615
-0.0067046005
-0.0062718447
-0.0041906894
-9.714835E-5
0.0033783538
0.0038178125
0.003542139
0.0032565878
8.117615E-4
-0.0029699595
-0.0061301677
-0.0061137197
-0.0026763063
-6.3093146E-4
0.0010664203
0.0040540737
0.004604522
0.0046916883
0.0034590734
-0.0012434536
-0.0035480717
-0.0029497058
-0.0015418153
5.596624E-4
0.0017898674
0.0034895889
0.0043440307
0.0034086052
0.002199118
-0.0022113654
-0.0066119754
-0.0052998527
-0.0032751893
-0.0041075707
-0.0027397266
0.0022140064
0.0059500686
0.0066374764
0.003665494
-0.0018729647
-0.0037697707
-0.002698849
-0.0025166625
-4.6966207E-4
0.002080177
0.0028544108
0.004799907
0.005824104
0.0030424034
-8.677326E-4
-0.0047155335
-0.005992016
-0.0031514545
-0.0025192641
-0.0030574051
0.0011073834
0.004755952
0.0049842624
0.0028100715
-0.0028666863
-0.007120322
-0.0071356553
-0.004511515
-2.2549679E-5
0.0024034502
0.0027185492
0.0046422603
0.00589724
0.003388556
-4.0199404E-4
-0.0028153174
-0.0038917959
-0.002357195
4.3674887E-4
0.0011673613
0.002113805
0.004243112
0.004990378
0.0031852974
-0.0017874921
-0.006845187
-0.007479209
-0.0041908473
-8.872544E-4
0.0010803163
0.0036818024
0.005904802
0.0057960507
0.0032850264
-0.0022970438
-0.007029548
-0.0059942817
-0.003212608
-0.003075126
-0.0014817595
0.003379083
0.006874279
0.0074262926
0.0046607777
-0.0011357964
-0.005145418
-0.0049726563
-0.0020859705
8.093257E-4
0.0022939949
0.0041469135
0.005458262
0.0045941053
0.0017836516
-0.0022089686
-0.0045587867
-0.0054935515
-0.0054604067
-0.0030170495
-4.877788E-4
0.0015290488
0.0037112404
0.004468089
0.0022468285
-0.0033088275
-0.007374251
-0.006264368
-0.003225606
-7.969328E-4
0.0013922934
0.0034895749
0.004464589
0.004963255
0.0044413707
-7.0932496E-4
-0.005223065
-0.0030935588
-3.1213647E-5
0.001022428
8.8310556E-4
-1.3239858E-4
0.0024010555
0.005746844
0.0037540584
-8.0394704E-5
-0.0030893271
-0.0045144213
-0.0021961401
4.159608E-4
0.0013545887
0.0026854326
0.004093534
0.0049489127
0.0038431878
-4.750813E-5
-0.003992228
-0.0047703832
-0.0026913802
-0.0014278553
-9.3741395E-4
8.1114215E-4
0.0029638074
0.004211641
0.0017285584
-0.0028391555
-0.004940038
-0.0054315464
-0.0038193697
-0.0017551918
-0.0015064998
4.6367917E-4
0.002414703
0.0027388434
0.002208366
-0.0011199787
-0.0034453075
-0.0032657168
-0.0020975985
4.5546546E-4
4.5118792E-4
2.979699E-4
0.003828402
0.0060468526
0.004836125
9.0057636E-4
-0.0028488222
-0.0027017274
-0.0010804264
5.6136743E-4
0.002545594
0.0038967861
0.0051245457
0.0054651755
0.0036854781
2.3941165E-4
-0.0032127928
-0.004053988
-0.0030626056
-0.0032986922
-0.0028575228
2.2787915E-4
0.0019355424
0.002014405
0.0016200809
-0.0034117626
-0.008405244
-0.0065045296
-0.0029056033
1.1854288E-4
0.0040637413
0.0057209344
0.0048486427
0.003635198
8.970555E-4
-0.0037343684
-0.0060827546
-0.004805628
-0.0025733877
3.5549127E-4
0.0021302223
0.0025840532
0.004170209
0.004494065
0.0029630011
-3.583313E-4
-0.0044063195
-0.0038335035
-0.0012973358
2.167885E-4
0.0021675052
0.0022215708
0.0031786202
0.0050439704
0.0027072893
-4.3053416E-4
-0.0027509807
-0.0046609854
-0.0033785226
-9.0396346E-4
7.965521E-4
0.0025075017
0.004407867
0.004857449
0.0011184389
-0.004340675
-0.007647486
-0.008427832
-0.006097552
-0.0011828294
0.0033378568
0.00508721
0.0047956775
0.0042318804
0.0029732953
2.4939113E-4
-0.002781022
-0.0045317803
-0.00398402
-8.227104E-4
0.0011756761
7.7728694E-4
0.0032381394
0.00583582
0.004010596
0.0010053589
-0.0026746714
-0.004412902
-0.0018631323
1.2789283E-5
1.9731029E-4
5.960656E-4
0.0018965618
0.0029277222
0.0013041727
-0.0022130425
-0.005817223
-0.005611342
-0.0036628426
-0.0041370504
-0.0015092603
0.0010859114
0.0016576685
0.0056798556
0.005042861
5.168874E-4
-2.093575E-4
-4.3170815E-4
0.0013203621
0.0027974376
0.0020255463
0.003784698
0.0052055316
0.0051425765
0.0034740544
-1.5680322E-4
-0.0025883792
-0.0037723107
-0.0019909034
-0.001402072
-0.004316671
-0.0025579995
-1.8447282E-4
-5.896322E-4
6.1688514E-4
-8.070432E-4
-0.0042890524
-0.0043983506
-0.0011321851
0.0022262335
0.0026107498
0.0021673732
0.0023412416
0.0017082496
-5.393717E-4
-0.003205769
-0.003493233
-0.003161745
-0.0024415252
-4.0875003E-4
3.6383278E-4
0.0019748772
0.0040417598
0.0040608286
0.0032128522
-1.307239E-5
-0.0032471356
-0.0035072837
-0.0023750565
9.547867E-5
0.0022978801
0.004127847
0.0053217327
0.0036908807
0.0015382199
-4.214996E-4
-0.0018747272
-0.0013563682
-3.7347103E-4
9.973024E-4
0.0016642034
0.0017386067
0.0028986852
0.0018262381
-0.0015225533
-0.0037097214
-0.0050105643
-0.005223688
-0.0034939367
-0.001626329
-2.6902297E-5
0.0032676416
0.0043218513
5.9345784E-4
-0.0011235679
-4.689083E-4
-0.0011967974
-0.0013135581
-8.6312316E-4
6.296254E-5
0.0013816268
0.0020025792
0.003248042
0.0029647702
-1.7392091E-4
-0.003439898
-0.0055506015
-0.0047330684
-9.0926676E-4
0.0031922173
0.004026739
0.0015647229
0.0017308255
0.003115223
2.9934195E-4
-0.0030332408
-0.0035385492
-0.0017845961
0.0012126167
0.0030525373
0.0030926117
0.0021059972
9.3536125E-4
-2.3349193E-4
-0.0018095254
-0.0030283742
-0.0036292558
-0.0024978418
6.698596E-4
0.0027907016
0.0031452957
0.0028828343
0.0026710432
0.0022078839
1.2250959E-4
-0.0016780422
-0.0029774406
-0.0043945713
-0.002580428
1.3567749E-4
7.567168E-4
0.0012881802
0.0012288265
4.4642348E-4
-0.0010394141
-0.0024041757
-0.0017614679
-0.0010924073
-1.12606176E-4
0.0014806392
0.0025075632
0.0041791373
0.0040896824
0.0020830394
-2.8596492E-4
-0.003900489
-0.005114966
-0.0038726784
-0.002092162
0.0013704745
0.0030327835
0.0025276977
0.002648412
0.0021692123
-1.0295374E-4
-0.0033007676
-0.0045065642
-0.0033528514
-4.9015996E-4
0.003156908
0.0037030145
0.0029342
0.0030996806
0.002016723
-4.0092907E-4
-0.003123306
-0.0024629994
-2.650419E-4
-5.835548E-4
8.9338236E-4
0.0018533734
5.8754353E-4
0.0012897647
3.2824534E-4
-0.0020579852
-0.0038595852
-0.0055329977
-0.0031933433
3.220116E-5
7.40933E-4
0.0013770158
0.0013748445
0.0018180433
0.002266021
-8.0018835E-5
-0.0027074632
-0.00277111
-9.406516E-4
0.0014035046
0.003189996
0.0034299477
0.003858243
0.004903963
0.0026264116
-9.962593E-4
-0.0029315539
-0.004538764
-0.003376155
-1.3868004E-4
0.0019307411
0.0027083796
0.0013870095
6.6889566E-4
0.0014693569
8.031211E-4
-8.1612135E-4
-0.0023761012
-0.0011089375
0.0019822153
8.411409E-4
-0.0015534897
-9.5283514E-4
3.80331E-4
5.3775724E-4
-0.0016874372
-0.004306106
-0.0045473254
-0.0032370684
-7.990919E-4
0.002355174
0.0034788135
0.0023957763
0.0027689997
0.0025429789
-6.042005E-4
-0.0014921918
-0.0011137101
-0.0017706858
-2.5229226E-4
0.0013302538
0.0024833714
0.0033511638
0.0014027586
4.3548242E-4
3.8785246E-4
-0.0019197227
-0.0033487116
-0.0029534237
-0.001256044
0.00197865
0.0036731078
0.002860984
0.0028884124
0.0030835827
1.8302408E-4
-0.0033043735
-0.0046190596
-0.0034872475
-5.289319E-4
3.5207925E-4
-7.607371E-4
-6.7715714E-4
7.534075E-4
0.0023257425
0.0012202809
-0.0021347296
-0.0045615467
-0.0039835474
-3.8795386E-4
0.002294227
0.0035734065
0.0038081189
0.0022487189
0.001592581
-1.0711921E-4
-0.0030098893
-0.0037307204
-0.0031456414
-1.1593577E-4
0.003250962
0.004008288
0.0042067356
0.0027925153
6.4300065E-4
-8.0954493E-4
-0.0035370246
-0.0054694773
-0.0037304275
2.1756452E-4
0.0031318385
0.004574823
0.0043611904
0.0016095348
-4.3727533E-4
-8.266347E-5
-1.829984E-4
-0.0024537067
-0.0027151038
-2.3404544E-4
-0.0024205437
-0.0035309237
0.002011928
0.0037372366
0.0015749501
-3.323687E-4
-0.0027861064
-0.003698913
-0.0043432573
-0.0028933925
3.535406E-4
0.001375249
0.0023969244
0.0028750778
0.002872882
0.0023258952
-6.390548E-4
-0.0022127798
-0.0024101702
-0.0014755888
8.281252E-4
0.0013816587
0.002333252
0.0030716106
0.0025005322
0.0021599105
-5.7691213E-4
-0.0032989294
-0.0025448883
1.09316126E-4
0.002488912
0.0025212592
0.0016602172
8.4599707E-4
-6.278129E-4
-0.0018061274
-0.0017520377
-0.0015951458
-0.0035912422
-0.0036802609
-6.056567E-4
7.2348636E-4
0.0021864297
0.00377303
0.0031267968
0.0012811729
-0.0014378713
-0.002618493
-0.002793454
-0.0021481614
8.262229E-4
0.0022538186
0.0027711997
0.0034103426
0.0021920498
8.9040416E-4
-0.001635479
-0.0047147665
-0.005037362
-0.00353073
-0.0014863434
-5.507341E-4
-2.9249894E-4
0.0013431743
0.002666177
0.002263178
0.001625985
0.0010415359
2.13488E-4
0.0013025524
0.0029106846
0.0024768573
0.0026335283
0.002895851
0.0015913739
-2.784192E-4
-0.0022903292
-0.003745755
-0.005633551
-0.0056454255
-0.0026254384
-9.816083E-4
3.023653E-4
0.0018972415
0.003119783
0.0029183729
-3.6750783E-4
-8.9042395E-4
-0.0017443263
-0.005420404
-0.0015838922
0.0038413582
0.003435764
0.0031205646
0.003603452
0.0029422322
-0.0013482202
-0.004336798
2.9010556E-4
0.0038283607
0.0028643156
0.0024359429
0.0023870207
0.002686594
0.0018351801
-0.0021764564
-0.0067007653
-0.008587831
-0.0073558474
-0.0032824876
0.0010391815
0.001809626
0.0020112123
0.0039814794
0.0037029954
0.0013453463
-6.562515E-4
-0.0024074155
-0.0026037176
1.7526749E-4
0.0017300746
1.1079856E-4
0.0017642974
0.003703025
5.202587E-4
-0.0012143758
-0.0018355246
-0.0035320937
-0.0029154262
-0.0022001078
-2.880601E-4
0.0037621977
0.0051826495
0.004822838
0.004244923
0.001922863
-0.0010097753
-0.002351762
-0.0017721583
-9.812803E-4
-0.0011977775
-9.271892E-4
0.0011750002
0.0031445625
0.0026887304
3.1143078E-5
-0.002636894
-0.0039732167
-0.004694103
-0.0027014373
0.0011762495
0.0017552298
0.0019136
0.0030928215
0.0011281592
-0.0017472319
-0.0030757892
-0.0035918537
-0.0033219126
-0.0017500565
1.9683618E-4
6.9038455E-5
5.4200675E-4
0.002649814
0.0019215696
-7.9108914E-4
-0.002524559
-0.0031484086
-0.0031115464
-0.0017001586
0.0013608447
0.003547416
0.004471634
0.004267738
0.0029200956
0.0016567969
-9.147455E-4
-0.0028348828
-0.0018440057
-2.7793416E-4
0.0010001421
0.0015492421
0.002740277
0.0050576525
0.006217647
0.005344103
0.0016160585
-0.0020143916
-0.0031919738
-0.0028242224
-0.0015149254
-0.0017995414
-8.120766E-4
0.0013206857
3.5339748E-4
3.671886E-4
-7.8091124E-4
-0.00419742
-0.0045825625
-0.005005597
-0.004915336
-0.0025596553
9.176179E-6
0.0018897444
5.860672E-4
-9.78197E-4
-0.0021204296
-0.0034835073
-0.0021248972
-0.001812812
-3.961888E-4
0.0034252347
0.0037899287
0.003911384
0.003576276
0.0018775567
0.0012711384
-0.0014158118
-0.0025518406
-7.9607405E-4
2.6892178E-7
0.0015794461
0.0023859872
0.0035240224
0.0060006795
0.0042916387
7.587978E-5
-0.0024614027
-0.0031245626
-0.0018180473
5.833694E-4
0.002964553
0.0037232167
0.002875191
0.0020960814
0.0012115747
-9.096391E-4
-0.0033425863
-0.003294753
-0.002646031
-0.0032678295
-0.001979376
-1.4215628E-4
0.0011291029
0.0030173722
0.001271027
-0.0038573823
-0.0066638575
-0.005561485
-0.0023221213
-7.242195E-4
-0.001023807
5.470164E-4
0.0027068642
0.0024790377
9.673214E-4
-0.0012984705
-0.0031592443
-0.0017144608
4.5431108E-4
8.0546044E-4
0.0018914838
0.0027104563
0.0027315903
0.003556475
0.002305689
-5.2790844E-4
-0.0016387583
-0.0015255987
-3.5417455E-4
0.00107551
0.002328254
0.0042520547
0.004893142
0.0038084
0.0024808717
1.2314126E-4
-0.0032441018
-0.0048154406
-0.0029434476
-5.7209237E-4
-4.6576845E-4
-0.0012082049
-6.232717E-4
0.0014495774
0.0012058724
-0.0026691395
-0.004678302
-0.0034516316
-0.0020612343
-0.0010171953
8.609499E-4
0.0038973617
0.0042345473
0.002127362
0.0025890053
0.0012500205
-0.0034679575
-0.004061992
-0.0024872595
-0.0023730013
-0.0010099573
1.4018988E-4
0.0012223602
0.00349649
0.0028091304
-6.6436466E-4
-0.003194429
-0.0037432488
-0.002534548
-0.0013351539
-7.172194E-5
0.00159834
0.0024931307
0.003412622
0.002433691
-0.0010439799
-0.0023424912
-6.6847354E-4
0.0014607836
0.0015939438
0.0012483003
0.005525781
0.010634794
0.011377457
0.009890866
0.0053795874
-0.001316589
-0.004623183
-0.0058860155
-0.0059561445
-0.0040196907
-0.003654644
-0.005100748
-0.0060600997
-0.0063210465
-0.0062297876
-0.007735405
-0.008591338
-0.0048568742
-4.0004414E-4
0.0017794337
0.0035447376
0.005506688
0.007754818
0.0076935245
0.0030139647
-0.0015317907
-0.0030317395
-0.004439183
-0.0056296135
-0.0056719617
-0.0056254985
-0.0056722374
-0.006159221
-0.005579476
-0.005058514
-0.0061805705
-0.0039368016
0.0010561455
0.0049637
0.009784963
0.014123821
0.015831357
0.017120669
0.018750098
0.016580509
0.010706234
0.007203395
0.0047985865
0.0041777603
0.0054549407
0.003400734
0.0036619364
0.0027038716
-8.7969995E-4
0.0017489028
-3.3860834E-4
-2.3222687E-4
0.0062767095
0.0057293694
0.017263543
0.0053682816
-0.07616565
-0.13908911
-0.1039281
-0.027217546
-0.0017502966
-0.011394359
0.034233075
0.08334819
0.051533267
0.016865987
0.017749358
0.011138314
0.007715312
0.0070238956
0.0023986557
0.0059411246
0.0090114465
0.011038764
0.012058831
0.011514689
0.01515257
0.014712333
0.012983309
0.010084611
0.0027922948
5.8223304E-5
-0.012314689
-0.028203484
-0.021704044
-0.012762079
-0.012987056
-0.010411716
-0.009990898
-0.010603699
-0.008781441
-0.007427976
-0.0041555115
8.432827E-4
0.0049323034
0.007022606
0.008349023
0.009292651
0.0074324342
0.0039303373
4.4708964E-4
-0.0022285504
-0.002448773
-0.0017267361
-0.002267965
-0.0029892903
-0.0024264008
-0.001853464
-0.0020086488
-0.002202999
-0.0018096995
-4.0154083E-4
3.1220444E-4
0.0011981822
0.0038743461
0.0057023326
0.006668123
0.007406808
0.0059376773
0.002948506
5.8284943E-4
-7.161994E-4
-0.0021451348
-0.0015882642
2.3186876E-4
9.317219E-4
0.0021841035
0.001381769
-0.0015794174
-0.0031545283
-0.004822478
-0.0046077874
-0.0032191628
-0.0038938613
-0.0031146682
-0.0014341032
-2.730308E-4
0.0024141509
0.003670737
5.4297113E-4
-0.0030797292
-0.0027605547
-6.6806946E-4
5.8433943E-4
0.0013501106
0.0019778714
0.0024469185
0.0015369537
5.64451E-4
-5.38627E-4
-0.001668055
-2.6769904E-4
1.5974739E-4
2.3182279E-4
0.0021419406
0.0020961477
0.0015216082
2.1598229E-4
-0.0011673627
-4.5015966E-4
-0.0019622967
-0.0026225937
-5.377522E-4
-2.4644757E-4
8.0087245E-4
0.0031096814
0.0034580857
0.0015324751
2.9347627E-4
6.317243E-4
-7.6652126E-4
-0.0018959729
-0.0014290322
-4.1183646E-4
0.0015932067
0.0019490519
0.001697833
1.0947038E-4
-0.0038212074
-0.0044436567
-0.0035700232
-0.0035561752
-0.002647108
-0.0017829805
3.139048E-4
0.0012254962
-5.496574E-4
-0.0010680925
-9.503946E-4
-0.0017446439
-0.003357862
-0.004322055
-0.0029718478
-0.0017132359
-0.0013494733
5.919069E-4
0.0037662126
0.004647337
0.0041468376
0.005331757
0.0051458515
0.0038377617
0.004640342
0.0055566328
0.006225262
0.005901847
0.0029979844
1.1942201E-4
-0.0014124453
-0.0029107141
-0.0050098468
-0.005724447
-0.004207272
-0.0024467525
2.2347862E-4
0.0031092698
0.0042138905
0.0047984184
0.0049322587
0.004415299
0.0037886286
0.0032056167
0.0031840652
0.003463222
0.0033196313
6.0478924E-4
-0.0036203235
-0.006728376
-0.011084447
-0.0146708805
-0.015462279
-0.016468743
-0.015524598
-0.013441592
-0.012253239
-0.008770008
-0.004762896
-0.0019030556
2.3043121E-5
0.0013303034
0.0033270672
0.0024497411
3.6225928E-4
0.0013352481
0.0030177606
0.006492411
0.011622486
0.01646933
0.02046733
0.023093786
0.032280482
0.04469762
0.044172253
0.033972163
0.022570668
0.007951907
-0.009479105
-0.027479252
-0.040233675
-0.040708367
-0.032112222
-0.02318896
-0.017301403
-0.013036217
-0.009543008
-0.007446545
-0.0079681985
-0.011171198
-0.015084565
-0.015381267
-0.011037444
-0.008168268
-0.005515004
3.7791582E-5
0.004107201
0.009881307
0.015820844
0.016078534
0.015159358
0.011351635
0.007210511
0.009540643
0.0117208995
0.012355977
0.012324916
0.0098931035
0.008070595
0.0042829136
-8.0959994E-4
-0.0030645344
-0.0044970876
-0.0054928227
-0.004958348
-0.003123613
-0.0029175607
-0.003894329
-0.0019435307
-2.0323582E-4
-7.8304776E-4
-0.002144515
-0.0023425852
2.27542E-4
4.996182E-4
-0.001237416
-0.0010898962
-0.0019426453
-0.0032625555
-0.003546831
-0.0043865484
-0.006713891
-0.0082602585
-0.0059545985
-0.0033501412
-0.0023224726
-0.0014225631
-6.0513406E-4
0.0021829165
0.0045666033
0.004456202
0.0040089563
0.003068446
0.0027956206
0.0034341558
0.0039138193
0.004234224
0.0037102993
0.0024498513
3.0764705E-4
1.3432742E-4
0.0021965967
0.0013312885
-3.5996173E-4
-3.1204423E-4
-6.250185E-4
-0.0011322792
-0.0010147057
1.9608349E-4
3.3584784E-4
-0.001141452
-0.0020456247
-0.0027099387
-0.0026235094
-0.0026143452
-0.0026470516
-0.0014830525
-0.0012474746
-1.9245235E-4
5.802178E-4
-0.0018548084
-0.002081612
-5.7486485E-4
-0.001244659
-0.001275683
4.9576964E-5
8.3972915E-4
5.2633585E-4
0.0010067133
0.002697794
0.002341825
8.2766596E-4
3.40562E-4
-2.2926937E-5
3.8056655E-4
0.002266707
0.0036337427
0.0027882329
0.0024115192
0.0037923162
0.0030003053
8.7638304E-4
3.7854793E-4
-2.2359203E-4
-4.3345313E-4
-5.7256693E-4
-0.001650886
-9.607328E-5
6.002258E-4
-0.0032610106
-0.0040035704
-0.0012080576
-4.9356953E-4
-2.9297825E-4
-0.0010937122
-0.00313669
-0.0022364582
7.346042E-5
1.1619442E-4
-1.2713185E-5
5.6516944E-4
-8.8048674E-4
-0.0021800317
-7.286728E-4
5.18105E-4
5.0752755E-4
-3.911296E-4
-0.0010891086
5.599969E-4
0.0019245306
0.0016479633
0.0012002888
6.783751E-4
0.001480251
0.002212825
0.0014722862
9.089379E-4
-3.5792138E-4
-9.886539E-4
3.2178932E-4
4.600786E-4
-2.2858851E-4
-7.658848E-4
-0.0016341917
-9.500395E-4
5.723675E-4
0.0013719324
0.0018073029
0.0013994274
0.0010644549
4.8602262E-4
-8.314123E-4
-9.820173E-4
-0.0017346357
-0.0016188466
0.0018588019
0.0020513844
-5.4702326E-4
3.8555544E-4
0.0019136753
0.001403432
-2.2646479E-4
-0.0016808497
-0.0016700119
-0.0013853644
-0.0012698497
-0.0015068409
-0.0016252736
-2.1526244E-4
9.769367E-4
8.298566E-4
2.6301792E-4
-1.4501819E-4
-7.5169904E-5
3.5402205E-4
0.0014914969
0.0024794322
0.0023846647
0.0016875046
5.304046E-4
6.666856E-5
4.1582208E-4
-6.203272E-4
-0.0027727017
-0.002879071
-0.0013955648
-9.4860676E-4
1.4585647E-4
7.50101E-4
-7.143054E-4
-5.5060844E-4
-4.228127E-4
-0.0011440265
-7.362205E-4
-0.0017781885
-0.002286468
-0.0010650541
-1.1251973E-4
0.001463196
0.0017695861
9.337085E-4
7.284202E-4
8.1987574E-4
0.002054334
0.003248671
0.0038218733
0.0034125915
0.0021075853
0.0019890242
0.0014405545
7.6712946E-5
-0.002047043
-0.004189577
-0.0018903064
0.0010166197
4.4085202E-4
-3.5452514E-4
-0.0014534107
-0.002433122
-0.0020095068
-0.0021889228
-0.0033127458
-0.002833465
-0.0010933537
-0.0014367922
-0.001402502
5.600907E-4
7.5817626E-4
8.525959E-4
0.0017405841
0.0011093143
2.9588188E-4
-2.986864E-4
-6.54207E-4
0.0013275521
0.004002161
0.004098144
0.0040761237
0.003859973
6.450849E-4
2.9707904E-4
0.0035085664
0.0038093
7.304252E-4
-0.00522148
-0.008551615
-0.0055643073
-0.0029036808
-0.0018834245
-5.8489165E-4
7.1184724E-5
-8.409076E-4
-0.002246303
-6.98456E-4
-2.3516365E-4
-0.0022444734
-0.0014958361
-4.979887E-5
0.0021801745
0.00444144
0.0031984353
0.002291955
0.0010429196
-0.0013206718
-0.0017944144
-0.0020545062
-0.0010561454
6.588469E-4
0.0023260731
0.0063346745
0.008399687
0.008795921
0.009478844
0.003959488
-0.0031758596
-0.004105468
-0.0041787876
-0.004368804
-0.0029289385
-0.0036793742
-0.004005057
-0.0028052635
-0.0036995567
-0.0031298925
-0.0010563667
-9.3904964E-4
-6.4232305E-4
-3.1728225E-4
-6.902735E-4
-0.0017714499
-0.0035392945
-0.0031901915
-0.0020080125
-0.001984635
-0.0017332729
-1.7148613E-4
0.0023238948
0.0019175053
2.4773483E-4
0.0021034172
0.004097325
0.005455848
0.008869294
0.010916972
0.0083761215
0.004067488
5.780298E-4
-0.0039424766
-0.006908441
-0.0049344418
-0.0026507957
-0.0018040532
-1.5301614E-4
5.229049E-4
-0.0015390771
-0.002024347
8.2247035E-4
-3.445405E-4
-0.002768812
-5.6087284E-4
-0.0015864101
-0.0046167867
-0.0037942643
-0.0017551656
0.0016647992
0.0033621355
0.0027568007
0.0035465762
0.0026386667
0.0016342124
0.002063192
6.633484E-4
6.2764407E-4
0.0015410793
-0.0010667823
-0.00340898
-0.0020537158
-5.46143E-4
5.5240566E-4
0.0024777653
0.0019244306
3.1806593E-4
6.000566E-4
-3.0789254E-4
-0.002404621
-0.0027257027
-2.839967E-4
0.0015550912
1.0803056E-4
-4.967087E-4
-6.9038215E-4
-0.001269871
0.0012724141
0.00288636
0.0016427009
8.0464635E-4
7.394927E-4
7.486145E-4
-0.0010836493
-0.002640749
-0.0020818524
-0.0017492669
-5.096684E-4
5.060371E-4
-6.476734E-4
-0.0019331698
-0.001813184
1.0522402E-4
6.787653E-4
-3.260118E-4
-6.491755E-4
-0.0019703782
-0.0017990285
3.3688865E-4
0.0012128984
0.002563049
0.0033922836
0.0030501718
0.0034157445
0.0028512229
0.0021085918
0.0018112182
4.0447197E-4
-2.5930192E-4
3.9107076E-4
4.735771E-4
6.3232234E-4
9.391144E-4
-8.760463E-4
-0.0028110996
-0.0021372777
-0.001410688
-0.0015066044
-0.0016703977
-0.0016693252
-0.0010429864
-0.0011099798
-4.250753E-4
0.0013739082
0.0014080454
5.2974897E-4
-7.0838834E-4
-0.0017161559
-0.0020087494
-0.0022974086
7.768126E-6
0.0017409972
-5.673046E-4
-6.1146397E-4
0.0016498863
0.001173239
4.5580667E-4
0.0014655513
0.0012683257
-2.921796E-4
-5.301281E-4
-0.0010663661
-0.0029684943
-0.001634955
0.0025787603
0.0035089885
0.001368521
-5.1551353E-4
-0.0032572728
-0.0037481566
4.281865E-4
0.0018535396
0.0010440517
0.0031039068
0.0032704496
0.0017985109
0.0020925417
0.0018445068
0.0010857343
2.5747975E-4
-1.2637915E-4
8.5665885E-4
0.0010964493
3.542138E-4
-2.8836948E-4
-6.745361E-4
-3.2939433E-4
1.2454014E-4
6.6605303E-4
6.769867E-4
-0.001092277
-0.0020598893
-0.0018014164
-0.0028343431
-0.0027523749
-9.449348E-4
-4.7288154E-4
-9.878357E-4
-0.0021994528
-0.0028848997
-0.0014685526
-1.9894388E-4
1.2893962E-4
-1.0008873E-4
-5.7742454E-5
9.1468845E-4
0.0014575832
0.0024488694
0.0021545545
-2.6503688E-4
-2.2624413E-4
7.4604456E-4
0.0016509179
0.0029441717
9.6362724E-4
1.8845162E-4
0.0025954372
0.0016463388
-0.0012715041
-0.0021536485
-0.0013102514
6.586467E-5
6.19074E-4
9.454375E-5
-6.3605595E-4
2.7368555E-4
0.0012430805
2.8883832E-4
3.1967703E-4
5.782815E-4
-8.6998375E-4
-0.0017199065
-0.0014834742
-8.644949E-4
-6.547071E-4
-8.604789E-4
-3.5459173E-4
3.7342848E-4
9.943239E-4
8.938078E-4
3.7935682E-4
8.5319247E-4
0.0015438059
0.0018790861
5.4622226E-4
-0.0018203537
-0.0024723348
-0.0031824836
-0.0027097694
4.0953237E-4
0.0016324293
0.0015238653
0.0013603237
-4.1276584E-5
-2.3412381E-4
8.275978E-4
0.0013667457
7.763602E-4
2.8272141E-5
0.0014849238
0.0028489076
0.0015164706
1.5361854E-4
5.721354E-4
4.1421564E-4
-7.2175544E-4
-9.735226E-4
-0.0023737508
-0.0030837501
-0.0014772672
-0.002769115
-0.0026493634
7.5935415E-4
1.9788944E-4
-7.462244E-4
2.5585003E-4
7.697893E-4
0.0012419751
-6.748675E-4
-0.0025146394
-0.0017927629
-4.4244554E-4
0.0013395457
0.0016429935
0.0011117432
0.0011937177
0.0019908503
0.0030819327
9.965014E-4
5.037168E-5
0.0020219143
9.676488E-4
7.380819E-4
0.0017335057
8.8724884E-4
0.0012155464
3.5566522E-4
-5.482992E-4
-9.225261E-5
-0.0020453073
-0.0015114114
9.2111283E-4
-4.1571815E-4
-7.136664E-4
2.026982E-4
-5.948779E-4
-2.240302E-4
8.2182945E-5
-9.868019E-4
-0.0016745519
-0.0020337768
-0.0016735991
-0.0016011773
-0.0019798924
-2.7890122E-4
0.0011399665
2.1740618E-4
-3.6377177E-4
-5.392877E-4
-5.469567E-4
2.9820306E-4
9.467395E-4
0.0014374922
0.0015822445
0.0013369318
0.0012466105
2.8804058E-4
-3.996824E-4
3.166153E-4
4.4403053E-4
-1.4100916E-4
-1.230418E-4
8.9963444E-4
0.0018241995
7.6995324E-4
-4.4351726E-4
-1.06842905E-4
-3.1260191E-4
-0.0011524693
-0.001438293
-5.30912E-4
0.0010833307
2.543893E-4
-0.0011375226
9.313867E-5
5.2992476E-4
-2.0668554E-4
-7.1397406E-4
-0.0013235622
2.9126013E-4
0.0018223646
4.787606E-4
1.4524368E-4
0.0015442688
0.0017897517
3.968565E-4
-5.064958E-4
-2.718151E-4
-0.0018601991
-0.0031478119
-1.8609014E-4
0.002014763
8.288335E-4
5.5755157E-4
3.5402982E-4
-6.876588E-4
-1.5641662E-4
-3.5673426E-4
-8.772567E-4
3.7484933E-4
-1.4362888E-5
-5.00842E-5
9.016407E-4
-0.0016031424
-0.0026376462
1.4950939E-4
0.0016660832
7.0253E-4
-0.00164681
-0.0021901198
-0.0010248261
-3.2216625E-4
0.0011206107
0.0015348914
0.0010123261
6.617268E-4
-3.943295E-4
1.4709958E-4
3.2527512E-6
-0.0014081439
-1.5364787E-4
3.1149428E-4
2.7295505E-4
0.0022795582
0.00223823
0.0012868752
9.288981E-4
-0.0016799957
-0.0033285806
-7.2784716E-4
0.0015625341
5.2206276E-4
-3.6397183E-4
0.0013421907
0.003966986
0.003801059
2.2020779E-4
-0.0021628416
-0.002090929
-0.0013095862
-1.9445136E-4
4.010486E-4
0.0010543343
5.963635E-4
-0.0016260288
-0.0022869771
-0.0023461145
-0.0021417367
1.12333124E-4
8.976479E-4
-2.7653752E-4
-1.6817934E-4
9.1348734E-4
0.0012845091
6.9250865E-4
-1.2492374E-4
-0.0014584054
-0.0021955222
-0.0020068586
-0.0025995886
-0.0013802791
0.0012716424
0.0023600003
0.0032655045
0.0025293294
5.888774E-4
1.1533682E-4
-4.7867966E-6
6.878904E-4
5.2685157E-4
-2.0344518E-4
0.0015717254
0.0018060385
2.6023804E-4
3.4863013E-4
6.307655E-4
5.671134E-4
-4.6870744E-4
-0.0014139374
-8.2108105E-4
-2.3392076E-4
5.469909E-4
8.949197E-4
0.0010751317
0.0013532045
-2.7252513E-4
-0.0011943041
-0.0012663265
-0.0024370197
-0.0020888513
-0.0012768083
-0.0012612649
-4.3485794E-4
4.9368636E-4
8.2371116E-4
7.3542993E-4
6.412972E-4
3.49894E-4
-2.741918E-4
-0.0010489356
-0.0014805137
-3.5599984E-5
9.502463E-4
-4.3731652E-5
-5.1970624E-6
4.604533E-4
3.391939E-4
6.124252E-4
0.0010917602
8.350811E-4
-6.8656744E-5
4.9800886E-4
7.5941737E-4
6.4624724E-4
0.0025090806
0.0018634326
1.6659174E-5
-3.8054795E-4
-0.0018191995
-8.628879E-4
-4.734899E-5
-7.330179E-4
0.0012213902
2.3426222E-4
-0.001197002
6.685329E-4
-1.607305E-4
-0.0012010448
-0.0011338717
-1.6517424E-4
0.0011313384
-0.002268496
-0.0029037758
6.033343E-4
-2.4097913E-4
4.6144685E-4
0.002935934
6.794696E-4
-0.0013692603
-3.8784195E-4
4.328947E-4
4.1165805E-4
8.6321466E-4
9.2745636E-4
-9.418419E-5
-5.06763E-4
-5.3599884E-4
3.9542868E-4
0.0013491806
-9.021018E-5
-7.8989135E-4
-2.5679736E-5
2.3782566E-4
3.4273654E-4
-1.1948038E-4
-6.5555345E-5
-1.18411146E-4
-0.0015832792
-0.0021069918
-0.00129852
-4.3503742E-4
-1.3612043E-4
-4.029603E-5
8.377762E-4
0.0021037832
0.0028712295
0.0014668645
-6.389332E-4
-4.4553133E-4
6.2637514E-4
0.001191616