-0.014087372
-0.01064775
-0.002027586
0.006148084
0.00817978
0.005708623
0.0050129816
0.0031692903
-0.002390381
-0.01033372
-0.014933657
-0.007936833
0.0030457356
0.008845148
0.012165276
0.011855896
0.006731865
4.1201452E-4
-0.0047609326
-0.010038753
-0.014679866
-0.010766711
-3.781703E-4
0.004998721
0.006027316
0.007037252
0.006520513
0.0039184443
-0.0023122309
-0.012250939
-0.017172668
-0.010563586
0.0011570588
0.010699855
0.016325634
0.015531647
0.010132196
0.005602476
-9.352479E-4
-0.011024866
-0.01476155
-0.008968852
-1.00261874E-4
0.007594413
0.0092061
0.0060266396
0.004666861
0.0038141345
-0.0010912319
-0.011112615
-0.017364986
-0.011023923
-6.652673E-4
0.00581872
0.0098870285
0.010931642
0.008193983
0.002652946
-0.0038718765
-0.01199815
-0.018469332
-0.014814379
-0.0041192775
0.004918229
0.009415392
0.010323161
0.01024767
0.008112007
0.002311446
-0.0070558037
-0.013686686
-0.008845653
8.100805E-4
0.008216512
0.014374507
0.015521788
0.0107388
0.003052086
-0.0033315048
-0.008872056
-0.016247373
-0.015666906
-0.0052767955
0.0037259124
0.00752827
0.0073408126
0.007320376
0.0064646266
-6.8852605E-5
-0.00965123
-0.017395824
-0.014947735
-0.0026355442
0.0064360336
0.010207961
0.011681827
0.009310505
0.0058378433
7.5177714E-4
-0.009609211
-0.016733965
-0.011908279
-0.0016794257
0.006679945
0.009128619
0.006761213
0.007799149
0.00745719
-7.495549E-4
-0.010885756
-0.017782161
-0.014683154
-0.002695044
0.0076740487
0.01333372
0.014197452
0.011956442
0.0070471624
-0.0014559723
-0.009064816
-0.013392659
-0.01113411
-0.0021402233
0.0051963767
0.007745045
0.006262876
0.0047026863
0.0054820837
0.0013386008
-0.008042133
-0.014022433
-0.010916785
-0.0012010721
0.0059593455
0.008644134
0.009440372
0.00819829
0.004684724
-0.0023088346
-0.009283742
-0.01316964
-0.013326585
-0.0050030323
0.00595448
0.009382252
0.00895375
0.009498117
0.008605674
0.0016884576
-0.009239938
-0.015390727
-0.013388336
-0.0046988525
0.0046293014
0.009400764
0.012591155
0.011055483
0.0037711516
-0.0021837282
-0.009065659
-0.014396172
-0.011022333
-0.0037310848
0.002656304
0.0061188834
0.0067407778
0.0055803847
0.0024207365
0.0020484386
9.52459E-5
-0.008785762
-0.011500839
-0.0037584293
0.0047816895
0.01112631
0.014327457
0.013329878
0.008405061
-1.3151643E-4
-0.008462995
-0.013342206
-0.013872626
-0.007703911
8.5017475E-4
0.0038073084
0.005279437
0.007953225
0.00636832
6.8399543E-4
-0.009166094
-0.016740352
-0.0118555585
-0.0019565017
0.0054317596
0.009903411
0.0093654655
0.007001049
0.004230424
-1.8750447E-4
-0.0055287057
-0.010068214
-0.009944036
-0.0039841146
0.004928082
0.00938691
0.007678149
0.006097261
0.00480616
0.0034857984
-0.0022583243
-0.013190409
-0.01350583
-0.0031426635
0.006053836
0.012518869
0.013652121
0.00935683
0.0032512452
-0.0014822279
-0.006899061
-0.014453183
-0.014660066
-0.009604794
-0.0044063707
0.003652351
0.007270749
0.007735778
0.00762308
0.001507862
-0.0058502085
-0.013201363
-0.0153011605
-0.0062265387
0.003967933
0.011833761
0.015329608
0.012442605
0.009617741
0.0045557036
-0.003164286
-0.008817697
-0.011687765
-0.0073525035
0.002201566
0.007398501
0.0072329077
0.007306304
0.007745459
0.002935387
-0.008088572
-0.017658116
-0.016531806
-0.0070253583
0.0022745302
0.009605124
0.011779337
0.0077642696
0.003553207
-7.625583E-4
-0.0078073363
-0.014491907
-0.014613737
-0.007093394
0.0020837358
0.007933262
0.0086824475
0.008009452
0.008644238
0.00587679
-6.1155227E-4
-0.008278279
-0.012978606
-0.0065291943
0.005496656
0.010871581
0.011765627
0.011697739
0.0074268086
6.5069174E-4
-0.0060222475
-0.013186391
-0.015491469
-0.008639215
0.0011478246
0.0068775653
0.007385973
0.0060983705
0.006050918
0.0039434843
-0.0040711677
-0.014221853
-0.01794377
-0.010614034
0.0022964675
0.009843233
0.009994358
0.009450962
0.008842329
0.004144958
-0.005124586
-0.014468809
-0.016404971
-0.008823646
0.0026595187
0.008794322
0.00721664
0.006471963
0.008113404
0.005939234
-0.0018761123
-0.011671215
-0.013929997
-0.0062221144
0.0045232736
0.012811498
0.013941252
0.009956383
0.0067110565
0.0039679715
-0.0018119338
-0.010627411
-0.014551874
-0.009038158
9.940015E-4
0.007654136
0.006953725
0.005312304
0.0051195067
0.002526616
-0.0033406704
-0.013101124
-0.016852543
-0.009676031
-3.5263065E-4
0.009204415
0.013348595
0.010509375
0.008179646
0.0025434014
-0.006566174
-0.014719904
-0.018428843
-0.010999977
0.0011652288
0.0076911864
0.007914806
0.0072096474
0.009153074
0.006469363
-0.0021400116
-0.010287221
-0.013981546
-0.0075631808
0.0029841755
0.009201161
0.012938047
0.012062943
0.008474715
0.0055892942
-0.0015323414
-0.009664963
-0.012981246
-0.011490595
-0.0025224283
0.007354311
0.0080992775
0.0068064565
0.0075091855
0.0028341652
-0.0058855363
-0.0135335475
-0.016727546
-0.01203628
-0.0011776594
0.009341373
0.012019923
0.009318808
0.0073745237
0.0031353382
-0.0037479983
-0.011311338
-0.015884789
-0.010073722
8.5394765E-4
0.0072581638
0.009389022
0.009883559
0.009516702
0.007486101
0.001694239
-0.008340406
-0.013946881
-0.008625531
0.0012273302
0.011087107
0.015692523
0.012132595
0.007052907
0.0013447701
-0.005793253
-0.01385646
-0.018317113
-0.011903163
-0.0033506548
0.0025203796
0.007496085
0.0052178693
0.0028052782
0.0038680895
-0.0020055624
-0.01164393
-0.01510162
-0.009672714
-3.895239E-5
0.008923139
0.014250873
0.012720974
0.009777211
0.0069903387
-6.1449007E-4
-0.008918247
-0.013656804
-0.011199673
-0.0012890088
0.0070739063
0.010053944
0.009004922
0.005986362
0.0027488938
-0.0026526926
-0.009984391
-0.015528302
-0.012782051
-7.234707E-4
0.01046395
0.014620007
0.012602649
0.0070502604
0.002390476
-0.0020855337
-0.008504098
-0.013849027
-0.013667432
-0.0050975764
0.005766186
0.008423618
0.006092058
0.0061592874
0.005305837
-4.0302788E-5
-0.009716478
-0.016979339
-0.01116454
7.295999E-4
0.007402556
0.011965169
0.012733713
0.0074542616
0.0024988805
-0.0017873945
-0.0067483876
-0.01053837
-0.01104715
-0.0037290836
0.0061139325
0.0070457333
0.005278099
0.008243306
0.006319285
-0.0017844985
-0.009293432
-0.015267336
-0.0127577875
-0.0027646138
0.0046223914
0.010803177
0.012691624
0.007859047
0.004132467
-0.0016803636
-0.010348893
-0.013808164
-0.01097602
-0.0022388706
0.006508241
0.008990247
0.00896958
0.008490541
0.0068924027
0.0013320391
-0.008664214
-0.013909845
-0.010290144
-0.0012400891
0.008101205
0.011775834
0.011241506
0.008953096
0.0037930354
-0.0032505458
-0.010843005
-0.015660664
-0.013819662
-0.005038406
0.0047523845
0.0076873093
0.006452667
0.0064354786
0.0062832776
0.0023644809
-0.0070966124
-0.0143302
-0.012322798
-0.0041931677
0.0061845793
0.01394211
0.015270557
0.009874664
0.0021705143
-0.0021042074
-0.0077757253
-0.013951694
-0.011445499
-0.003134966
0.0049719396
0.0075821625
0.0051333667
0.0064633186
0.0073341825
9.7002764E-4
-0.007720283
-0.013554423
-0.013831834
-0.008445111
0.0022025271
0.012405311
0.013522367
0.009043035
0.005446526
0.0018301475
-0.005611705
-0.0133404005
-0.011975916
-0.0040656985
0.0039320737
0.007974285
0.0062346873
0.007006332
0.008140571
0.0011906712
-0.008518841
-0.014460403
-0.011652222
-0.0022272302
0.0062940945
0.011831398
0.012127697
0.010255367
0.0075238543
6.532813E-5
-0.008099399
-0.014209722
-0.015002326
-0.00750398
0.001302337
0.0062746685
0.00805211
0.0077732312
0.004552463
5.033296E-4
-0.0032773616
-0.011458352
-0.013770891
-0.0043653687
0.0034588377
0.008413622
0.010225037
0.007930571
0.0065559032
3.250504E-4
-0.007748671
-0.012290087
-0.015356992
-0.0081305755
0.0037918547
0.007161324
0.008033476
0.008852523
0.007340553
0.0043511405
-0.0030646948
-0.011701278
-0.012300395
-0.0033916207
0.007429346
0.013811108
0.014344961
0.010491472
0.006236359
5.005208E-4
-0.008239806
-0.014186148
-0.015151535
-0.009864928
7.3351245E-4
0.005948815
0.005535112
0.0063793487
0.0053175297
0.001425532
-0.005688819
-0.015168619
-0.015572193
-0.0055581178
0.0036556083
0.00896817
0.012225241
0.012157646
0.00854969
0.0029174923
-0.0049745566
-0.011902407
-0.0118133845
-0.005052638
0.0034784763
0.008203973
0.0088572595
0.009259671
0.0072123557
0.0010672704
-0.007942339
-0.015998071
-0.015575758
-0.00802167
0.0017806499
0.010528485
0.013113041
0.010983897
0.0069210776
0.0019883597
-0.004574955
-0.013725055
-0.016272034
-0.009430801
-6.2836386E-4
0.00692245
0.008691365
0.006953719
0.0073660635
0.004929497
-0.0021946405
-0.009930545
-0.01359678
-0.007871498
0.0035516676
0.011243272
0.013501743
0.0121891145
0.0070889257
4.4118843E-4
-0.0073470706
-0.014821429
-0.014965927
-0.0076311924
0.0023931295
0.009705831
0.010457798
0.00938156
0.007609111
0.002646754
-0.005490474
-0.015341844
-0.016655728
-0.007543886
0.0025137812
0.010119953
0.011862694
0.009112389
0.0063474313
0.0013561387
-0.005899419
-0.012670016
-0.014373316
-0.009223565
-7.510866E-4
0.0067154537
0.006930533
0.0041932496
0.0056422027
0.005046829
-0.0014943352
-0.011110541
-0.014905363
-0.0063042524
0.005639978
0.013626509
0.01602966
0.012304001
0.007768846
0.0033701488
-0.0033787913
-0.011416228
-0.015565752
-0.0100602275
5.8647076E-4
0.007137076
0.0073182588
0.0061560846
0.0066298917
0.0037915846
-0.0041722627
-0.013872178
-0.01853194
-0.011464359
5.6856207E-4
0.0084447665
0.011868851
0.010292534
0.0058456315
0.0027638965
-0.0021821994
-0.010262437
-0.012769227
-0.00757788
-7.7327236E-4
0.005666987
0.009017791
0.009241459
0.008245859
0.0039991043
-0.0026935078
-0.011174528
-0.014165448
-0.0054424163
0.004641039
0.011441471
0.013504911
0.008925641
0.005644622
0.0020093007
-0.0038703494
-0.009243113
-0.015120021
-0.0131413285
-0.0038979982
0.003532358
0.0075933435
0.0064176037
0.0058260234
0.0063249697
-9.995402E-4
-0.011447271
-0.015587449
-0.010506022
-0.0012312481
0.006722803
0.012574473
0.0121994605
0.007829888
0.002786953
-0.0054094964
-0.012337663
-0.014113011
-0.008895814
0.001258931
0.008334189
0.010962627
0.0097156
0.008061602
0.006931885
-0.001057459
-0.011036155
-0.015904857
-0.012846815
0.0012659697
0.012473227
0.013596998
0.014028627
0.010482936
0.0013765412
-0.005682451
-0.010778775
-0.014811786
-0.012559457
-0.0019846126
0.0056741894
0.0029186003
0.0020127438
0.0077258404
0.008459255
0.0010908736
-0.008481382
-0.0142859435
-0.010765525
5.2752433E-4
0.009950996
0.012560213
0.01141004
0.0067577055
-2.625882E-4
-0.0048654145
-0.009798286
-0.015127419
-0.011995641
-0.0010333454
0.008469098
0.012036369
0.012019007
0.011398889
0.008636211
0.0017603923
-0.010004339
-0.020397272
-0.017160477
-0.0038633943
0.0068499628
0.0121921655
0.011342678
0.005968821
0.0017752163
-0.0027002145
-0.011051962
-0.01589176
-0.0089858705
0.0022172683
0.009012182
0.011545022
0.008755813
0.004785893
0.0022213452
-0.0064930758
-0.018577594
-0.022817785
-0.016308682
-0.0052176383
0.0037360108
0.011809754
0.016879465
0.015788125
0.013829289
0.008702551
-5.2682543E-4
-0.006069468
-0.006794489
-0.0011333288
0.0062779705
0.0045056497
-8.886507E-5
7.149577E-4
0.0030234284
7.7403523E-4
-0.0086714355
-0.014329805
-0.0068168426
0.0049396297
0.011423815
0.009994696
0.005516854
0.004449439
0.0011922694
-0.0064996113
-0.014304681
-0.0214113
-0.021525204
-0.013398121
-0.0030206211
0.0069163344
0.008192915
0.0024162638
0.0032065543
0.005757146
-7.983424E-4
-0.011416885
-0.015097077
-0.007597073
0.0032272916
0.010399942
0.013400666
0.007931842
-0.003711869
-0.012867613
-0.019481177
-0.0227022
-0.017301597
-0.005795786
0.0015096525
-1.047397E-4
-2.7632643E-4
0.004691729
0.0018520552
-0.007968597
-0.014640741
-0.017164886
-0.011621581
-3.473703E-4
0.006761403
0.011023525
0.016925026
0.023193352
0.024943944
0.019800503
0.00960564
-0.0014833973
-0.002847919
0.002294495
0.0010619133
0.002772852
0.012662357
0.018457448
0.02036583
0.021746924
0.012026157
-0.0064190556
-0.014106503
-0.011327694
-0.0035136053
0.01242668
0.024002356
0.02696855
0.030020215
0.032097913
0.02268053
-0.008642678
-0.039883833
-0.049345016
-0.048612252
-0.04396558
-0.046643976
-0.057458278
-0.04943039
-0.024890983
-0.011784895
-0.016564287
-0.016780479
0.0014776156
0.021229407
0.019601684
-0.006370036
-0.028393146
-0.03430624
-0.032370508
-0.014170187
0.0026291986
0.008376333
0.027136749
0.05788956
0.08687538
0.09572515
0.090260535
0.09287679
0.080585845
0.045259073
0.014290948
1.8025607E-4
-0.0058704033
-0.016048009
-0.022067118
-0.030947696
-0.042951487
-0.030325383
-0.010297592
-0.008523428
-0.010831145
-0.0075713475
-0.01888023
-0.04415446
-0.04304439
-0.031819057
-0.0319158
-0.021080041
-0.023133526
-0.02942217
-0.015587016
-0.012149639
-0.005377637
0.0069309482
0.0010710993
0.0034752744
0.010404544
6.699299E-4
-0.0038014262
0.007973925
0.015507969
0.01215443
0.021036353
0.03680791
0.02783377
0.008265217
0.0037344666
6.903961E-4
-0.0149907805
-0.044953864
-0.07558796
-0.07510979
-0.04136594
0.01167149
0.067516446
0.099747635
0.12405111
0.12738067
0.06664401
-0.004542758
-0.03954824
-0.060812455
-0.06811275
-0.044709876
0.0018671171
0.02592709
0.022561552
0.0233721
0.019336563
0.023733603
0.029146727
0.005708725
-0.013541003
-0.024841394
-0.0372027
-0.03464108
-0.030448122
-0.024515951
-0.02859788
-0.06296361
-0.09200036
-0.07440395
-0.013180237
0.042475455
0.054233223
0.037431378
0.01445338
-0.0041663293
-0.011646072
-0.009922363
-0.007831635
-0.006877841
-5.825429E-4
0.009589872
0.022717688
0.031058133
0.02736452
0.022748003
0.01665971
0.0071814526
0.0013744844
-9.320531E-4
0.0045392364
0.014105566
0.017532451
0.014466824
0.008942153
0.006636924
0.005246221
-0.0014984002
-0.014122411
-0.022542924
-0.016499903
-0.006511727
-3.258117E-4
0.0049650175
0.0061032656
0.0031665675
-0.002257102
-0.008754523
-0.014258826
-0.016046511
-0.010539798
-0.0031961536
0.0020386379
0.0025072647
-0.0027976776
-0.0032817835
-0.0024508263
-0.009667059
-0.016710494
-0.016373232
-0.0076366053
0.0053770696
0.016884156
0.02394151
0.023442771
0.020661877
0.017420625
0.008086425
-6.729898E-4
-0.002158525
0.0015124683
0.0075558703
0.0077365385
5.225201E-4
-0.0017050761
-3.754433E-4
-0.006808827
-0.015819535
-0.020263886
-0.01675181
-0.0049024746
8.9390075E-4
-0.0025402934
-0.0048464276
-0.0077825403
-0.012172559
-0.0139844
-0.012155523
-0.009114147
-0.007914858
-0.003917852
0.0025004328
0.0075780447
0.011319615
0.009258787
0.008075634
0.011728495
0.010364888
0.01115171
0.01875876
0.02693368
0.041945614
0.05283148
0.03974766
0.021621283
0.020749366
0.018364837
-0.005002703
-0.034235768
-0.048470292
-0.04266492
-0.023269083
-0.005022924
0.0024005962
0.0056669503
0.01564279
0.019983048
-0.0012527528
-0.027597878
-0.034989554
-0.03546268
-0.029815396
-0.01786186
-0.019651152
-0.026553517
-0.020722907
-0.013647998
-0.014045802
-0.014971128
-0.010464086
-0.0019673787
0.005822551
0.010219682
0.011214827
0.0139563475
0.01847739
0.01750191
0.011846025
0.0048496467
-0.0019067986
-0.0021355152
0.005922205
0.016664732
0.028491668
0.038270496
0.03781424
0.032614835
0.028162988
0.01569648
0.0017359529
-0.0017997818
1.3756046E-4
0.0020828864
0.0012818042
-0.0015772741
-0.004497661
-0.009566949
-0.017355207
-0.029150454
-0.039232533
-0.035502464
-0.0146714775
0.008524992
0.012117608
0.0068585225
0.009715964
0.006310966
-0.0039693066
-0.012419778
-0.020427028
-0.020037366
-0.012135146
-0.004589251
-1.915423E-4
5.4408458E-5
0.0012715214
0.0017701092
-0.0024624232
-0.010710916
-0.017802013
-0.013289545
-0.0017350315
0.008254928
0.01289784
0.008885392
0.0056434833
0.0044130865
3.1951856E-4
-0.0036156338
-0.005327698
0.005236245
0.023336912
0.0316876
0.03228432
0.0286063
0.02373978
0.018564984
0.007344977
-0.003654207
-0.008755904
-0.007178959
6.978969E-4
0.0077828546
0.010683352
0.007984074
0.0018601698
-0.0042061247
-0.013264158
-0.021812836
-0.025021086
-0.021532746
-0.00857857
0.0050600613
0.008806363
0.0074434173
0.0074068923
0.006905154
0.003937741
-0.0034452842
-0.013686027
-0.015350074
-0.0077615413
-0.0019663658
0.0014708788
0.002997358
0.0016761695
-4.474728E-4
-0.0056903046
-0.013355658
-0.01932971
-0.018156635
-0.00847073
1.0250597E-4
0.0042494456
0.00805184
0.011780801
0.012578024
0.008208628
0.006076908
0.010191232
0.016135762
0.022574274
0.024186872
0.02214046
0.020227706
0.011747212
0.0028516275
8.1329787E-4
-0.0010071272
-0.003285973
-0.0064273044
-0.010109626
-0.009196002
-0.0046223784
0.0012943918
0.0027948378
-0.0040644077
-0.014428493
-0.02906816
-0.043372396
-0.04779465
-0.044227753
-0.02562391
0.007987239
0.03394969
0.046693426
0.046473373
0.030750094
0.016479189
0.0051711546
-0.00903866
-0.010992013
-0.0061214236
-0.008711171
-0.01479176
-0.022430249
-0.018418204
9.892177E-4
0.009595732
0.0070338845
0.01024748
0.015386414
0.019392384
0.016522542
0.003229384
-0.0073844264
-0.013865363
-0.02098933
-0.025065487
-0.027549742
-0.025960399
-0.013850544
0.0028243663
0.012728474
0.016965628
0.021765346
0.022324115
0.018068478
0.011305606
4.6263667E-4
-0.002952243
0.001596913
0.0020870196
0.0047513214
0.011716151
0.013401915
0.008343831
0.0025231955
-0.00346713
-0.015300249
-0.021112544
-0.010314852
0.0030508023
0.008928011
0.0071041062
0.0034989228
0.0013512794
-0.0068357424
-0.016956357
-0.023559352
-0.024687916
-0.014048945
-9.5098367E-4
0.005721548
0.0072578513
0.0032894267
2.112185E-4
-0.0016747031
-0.007723858
-0.012365307
-0.010222056
-0.0011206429
0.010490605
0.017121064
0.018483173
0.018403612
0.015773036
0.0074269436
-0.0052576773
-0.01578759
-0.017044108
-0.007822429
0.006778429
0.016265092
0.014002946
0.009608779
0.0076998076
0.0035346823
-6.541981E-4
-0.0070042275
-0.009553479
-0.0020107515
0.0015569571
0.0024131977
0.0058960957
0.0041414155
0.0018637701
-0.0013216087
-0.009841139
-0.018009877
-0.01976862
-0.009115054
0.0042730407
0.009151295
0.010719529
0.008914332
0.0050751828
0.0021096286
-0.00475842
-0.012014186
-0.012940165
-0.0062372074
0.0050950623
0.013494618
0.014596317
0.010555382
0.0077612177
0.005866991
-0.0021628381
-0.011844049
-0.014892661
-0.011512605
-0.0037824325
0.0033800553
0.0065227957
0.0068260427
0.0037681307
-3.629225E-5
-0.0036116182
-0.010946999
-0.016355855
-0.011948659
-0.0012544141
0.00731388
0.008772145
0.007268125
0.007786475
0.0068248236
0.0015687286
-0.0048072524
-0.0062434436
1.0549266E-4
0.010116806
0.01685513
0.017369997
0.015714116
0.0123604
0.0046816994
-0.004306005
-0.013624095
-0.018359244
-0.01228606
-0.0031946695
0.0015669989
0.0025936172
0.0017028018
-4.0813473E-5
-0.0029626547
-0.0068932497
-0.01413666
-0.018197505
-0.009370031
0.0029334135
0.0098196445
0.012189831
0.011062851
0.008569287
0.002489821
-0.0049644187
-0.010290792
-0.014047444
-0.009460453
0.0015873577
0.008204555
0.008574761
0.0069644507
0.0071722157
0.003149248
-0.007694231
-0.015693009
-0.019335844
-0.015449499
-5.6931964E-4
0.009701982
0.011557016
0.014984392
0.01233004
0.0036020568
-0.0015763602
-0.008938009
-0.013217032
-0.0052045337
0.0052701468
0.012050171
0.013482734
0.011886378
0.0121560665
0.007275946
-0.0030050382
-0.011696631
-0.0153835695
-0.008870696
0.0042340076
0.015557955
0.01866009
0.010645052
1.7131543E-4
-0.0061905063
-0.011649604
-0.017681621
-0.01866284
-0.011663582
-0.0026252894
0.0036453903
0.0060453373
0.008174781
0.009980184
0.005116906
-0.0022410767
-0.009096664
-0.012234024
-0.0049322727
0.0045744525
0.011404408
0.012632708
0.005737647
6.2463793E-4
-0.005288102
-0.012300779
-0.013735379
-0.014392746
-0.008905244
0.002671156
0.009405894
0.012167976
0.0127713075
0.0117639955
0.007866872
-4.0242063E-5
-0.0096714655
-0.017268809
-0.012943341
-6.385167E-4
0.0070936517
0.010446807
0.009147569
0.00433117
-0.0014237466
-0.0082296785
-0.014578321
-0.020023625
-0.016446097
-0.0015184776
0.010777828
0.014630641
0.015016439
0.015912551
0.015131914
0.009329438
8.4844645E-4
-0.007180555
-0.007593585
0.001717259
0.011386056
0.018254459
0.022007424
0.021730224
0.020908888
0.018639853
0.015321648
0.008396543
-0.010206306
-0.025372805
-0.023526171
-0.020721665
-0.020613195
-0.018217012
-0.019968366
-0.026444517
-0.039133057
-0.04668298
-0.033417393
-0.013220492
0.0018777873
0.011295441
0.015617629
0.01754654
0.009967742
-8.0315076E-5
-0.0033040785
-0.007002073
-0.0036555189
0.009654299
0.021727001
0.029261263
0.030489976
0.028495988
0.025932051
0.018885747
0.00671557
-0.0026442835
3.1865732E-4
0.010832942
0.02317448
0.029009154
0.014651702
-0.0037228165
-0.010421303
-0.018437043
-0.029427817
-0.03470429
-0.031054268
-0.019350726
-0.006255734
0.0040111844
0.008501585
0.007457803
0.0055520944
-1.1503314E-4
-0.012016679
-0.020950817
-0.018198594
-0.0075188656
0.002592121
0.008832227
0.009860107
0.0054420903
2.2485887E-4
-0.003429738
-0.008654275
-0.011730662
-0.0076185022
-1.17999836E-4
0.008588363
0.013829425
0.011121644
0.008165007
0.00705972
0.0016859965
-0.007049912
-0.01278778
-0.010625293
-0.0011409622
0.012066709
0.020511407
0.01836751
0.0120007945
0.005625904
-0.0014086312
-0.008939222
-0.014669818
-0.012973179
-0.0050510303
0.0035639205
0.007857842
0.007140388
0.007941396
0.006953237
-5.656233E-4
-0.009682326
-0.016721483
-0.014747055
-0.004436319
0.003564879
0.007988913
0.01019494
0.009855133
0.0075831125
0.0026986941
-0.0042207185
-0.011561083
-0.012957346
-0.0040477645
0.0059003104
0.007677634
0.0055446797
0.005598235
0.0052346783
9.6835685E-4
-0.008129352
-0.017548116
-0.015749443
-0.0047052777
0.003917603
0.010418059
0.01427346
0.010978937
0.0040164343
-0.002534823
-0.008203085
-0.013110876
-0.013646638
-0.0053018387
0.0042135557
0.006890081
0.008009879
0.008728989
0.005725272
0.0014692893
-0.005691257
-0.013827524
-0.012669581
-0.0032680521
0.006413409
0.012057174
0.011331799
0.008385883
0.0058875633
8.749236E-4
-0.005297178
-0.009799743
-0.011650793
-0.0074638966
0.002906863
0.009767884
0.008232449
0.0069800573
0.008351434
0.004941195
-0.00457878
-0.014157259
-0.015879141
-0.008423514
0.0021093898
0.010979169
0.014529752
0.011560962
0.0064420984
3.7469307E-4
-0.00907558
-0.01638034
-0.015438386
-0.008642364
0.0010804774
0.0073729097
0.007396302
0.008122915
0.0071902876
0.0016490736
-0.0055122585
-0.014310211
-0.014921704
-0.004341406
0.005793507
0.012079328
0.0132514825
0.010306857
0.006598861
-2.866505E-4
-0.007942058
-0.011872374
-0.011139848
-0.0067813867
-9.551238E-4
0.0046439553
0.0064145895
0.0064249253
0.0068828184
0.0027997291
-0.0058389027
-0.014753918
-0.015539349
-0.005492351
0.0046552597
0.011853985
0.016049396
0.012910748
0.005806612
-0.0010844653
-0.006801917
-0.011740501
-0.013489315
-0.0070899753
0.0025106422
0.0076245735
0.008304129
0.0069616796
0.00511245
0.002340071
-0.0046096668
-0.014976215
-0.017258994
-0.00787763
0.0032676128
0.012026952
0.015381552
0.012786039
0.008763999
0.0019501144
-0.006984235
-0.015023767
-0.017360142
-0.009546437
0.0012616778
0.0095238
0.013151901
0.011482067
0.009747644
0.0051593003
-0.0043112207
-0.01431533
-0.019538974
-0.01122541
0.002140691
0.0064762356
0.006678595
0.006024374
0.003848967
0.0022413423
-0.002685697
-0.011734788
-0.016941091
-0.011938524
-8.263598E-4
0.006464954
0.008652538
0.010169504
0.010354208
0.008425671
0.0015602156
-0.011416791
-0.015178863
-0.0033286419
0.008227095
0.01295744
0.013980812
0.012134846
0.008126178
0.0023743657
-0.0026543292
-0.009510033
-0.015263405
-0.009639279
-0.0014246692
7.9396757E-4
0.0026493745
0.0030781943
0.0025340677
0.0016927437
-0.005580104
-0.0152010815
-0.01664599
-0.008562165
0.0028707131
0.011217604
0.013684859
0.011730679
0.007937074
0.003437945
-0.0017875774
-0.0091002155
-0.01443186
-0.010641878
-0.0018026888
0.0043958393
0.00611064
0.005329873
0.0061290474
0.0054651927
-2.535889E-4
-0.0066415374
-0.011534107
-0.0109984195
-0.0012647186
0.008333121
0.010641959
0.010546319
0.009210946
0.00369765
-0.0029209873
-0.0076914737
-0.0116457045
-0.010425522
-7.424555E-4
0.0073592663
0.008128649
0.007709928
0.006261575
0.0024160927
-0.002993285
-0.011478979
-0.016165761
-0.010866383
-5.0607196E-4
0.008230961
0.011653857
0.012035952
0.009432417
0.0026909446
-0.0043096007
-0.012389341
-0.015797721
-0.008595413
7.048566E-4
0.008572107
0.011364648
0.008217215
0.0074346187
0.0042118626
-0.004311908
-0.012328386
-0.01663712
-0.011436109
-0.0015441544
0.0051292996
0.009696132
0.01028877
0.0069813975
0.0033289394
-0.0011704586
-0.010254723
-0.018346153
-0.013143668
-6.471414E-4
0.0076673203
0.010950877
0.010278831
0.010198844
0.009599395
0.0029658892
-0.007350472
-0.013832149
-0.009819761
-1.8072582E-4
0.008037829
0.013443404
0.012246002
0.006918418
0.0025436294
-0.002550163
-0.010713052
-0.017021604
-0.013531086
-0.005438671
0.0012155382
0.005116326
0.0028806366
0.0030923267
0.006696063
0.0026363092
-0.0068868203
-0.013802999
-0.009525213
0.0021536367
0.009632787
0.013894452
0.012510132
0.006864097
0.0023742688
-0.004916109
-0.010394325
-0.011622831
-0.009897484
-0.002358032
0.003404593
0.0050458508
0.0062352666
0.005817179
0.0048086955
-0.0013722806
-0.012873459
-0.017943028
-0.011619093
9.695582E-4
0.012100004
0.016562376
0.014018158
0.0091675185
0.005940422
0.0013030322
-0.0072045997
-0.014713043
-0.013037881
-0.002731157
0.006199311
0.00967646
0.01052655
0.01015499
0.0068809628
1.926833E-4
-0.008778497
-0.01714038
-0.01431043
-0.0017285275
0.0059766658
0.009225954
0.009166867
0.004557996
0.0014663358
-0.004070341
-0.011934348
-0.0145801995
-0.012003028
-0.0033863708
0.0040502804
0.004736473
0.0063451263
0.0070813857
0.0048873583
2.4575175E-4
-0.010703793
-0.016325261
-0.010109054
-4.0145492E-4
0.010697528
0.01573576
0.013514141
0.010763672
0.0036151528
-0.0024821765
-0.006333788
-0.013153199
-0.010295561
8.971827E-4
0.0081803305
0.011256089
0.00967185
0.008303343
0.006775899
-0.0010231823
-0.009799404
-0.015065627
-0.013313901
-0.00393284
0.0049669715
0.009602436