-0.022308057
0.0745835
0.17044246
0.12486799
0.06504151
0.06082427
0.03497408
0.022513557
0.0033805978
-0.04907731
-0.04514401
-0.008196273
0.0031834345
0.011466422
0.023219323
0.0649693
0.12054472
0.11377544
0.05902533
-0.0052504665
-0.06871979
-0.092516
-0.092724435
-0.103499204
-0.08920352
-0.044608034
-0.008914654
-1.0257648E-4
-0.007365106
-0.00373734
-0.007840787
-0.032382492
-0.007104916
0.074040495
0.109513365
0.07957243
0.052733447
0.04298666
0.024032846
-0.01540822
-0.056099348
-0.069426775
-0.08067613
-0.09543608
-0.08665778
-0.07069543
-0.0314526
0.035321936
0.1005063
0.15223151
0.1234643
0.04225611
-0.0016668983
-0.042682208
-0.05645595
-0.035021745
-0.046060022
-0.046108413
-0.035139192
-0.05508597
-0.07820602
-0.06705382
-0.0043072645
0.021935003
0.038361825
0.16924499
0.2572305
0.1906699
0.09002074
0.0045154984
-0.044719722
-0.070662685
-0.1059379
-0.12081225
-0.12739061
-0.1335766
-0.12979814
-0.09906832
0.003484506
0.12614611
0.18273501
0.1640014
0.10899715
0.06245454
0.017844768
-0.0318813
-0.07048121
-0.08676693
-0.076813266
-0.07631732
-0.07685955
-0.027439743
0.02624039
0.021273829
0.021237029
0.090903156
0.13049972
0.07129787
0.008290121
-0.015313616
-0.037158914
-0.06643137
-0.07386287
-0.041200172
-0.021187479
-0.04355304
-0.085415244
-0.11889764
-0.123508215
-0.12864287
-0.11873649
-0.07709046
-0.017200012
0.11533833
0.21799035
0.18806577
0.16835412
0.16133997
0.0988747
0.049117662
0.0045882585
-0.030179905
-0.029651893
-0.035828244
-0.037597712
-0.02867609
-0.019460866
0.014575417
0.055324662
0.08664683
0.1439044
0.20782968
0.18532081
0.065504946
-0.06946545
-0.16474241
-0.19549488
-0.19239424
-0.19411811
-0.17402142
-0.14449462
-0.12697813
-0.10511017
-0.073037975
0.011843952
0.12259463
0.1416942
0.076437846
0.010165191
-0.033782825
-0.03322301
0.01230925
0.013535145
-0.045317635
-0.058243904
-0.040025346
-0.030534342
0.01962948
0.08186349
0.17417407
0.2741574
0.2217783
0.09530817
0.026752919
-0.037071064
-0.065526314
-0.046825152
-0.03794892
-0.035944235
-0.06331715
-0.08067315
-0.030758452
0.0026428741
-0.00830087
-0.0036498783
-0.019604674
-0.04372065
0.025433725
0.1273828
0.14514838
0.089589775
-0.007204836
-0.098335534
-0.10425248
-0.021428227
0.015964005
-0.039186828
-0.034670442
-0.006886356
-0.04751983
-0.0225411
0.03468498
0.033718392
0.03672212
0.004877992
-0.08443737
-0.15863392
-0.18537262
-0.1811645
-0.118428536
0.023491623
0.092302844
0.07405762
0.08326206
0.055587385
0.04411729
0.08301235
0.048532452
-0.01340935
-0.0077820285
0.108375415
0.2051612
0.12056215
0.019282436
-0.025035918
-0.05756808
-0.015029546
0.013639098
0.008609319
0.016253449
-0.026071483
-0.046296317
-0.009351303
-0.0022487615
-0.017575534
-0.0021602924
0.03278427
0.017664725
-0.015382723
-0.008786838
-0.013634776
-0.010268645
0.024494331
0.014478343
-0.048899714
-0.0650351
0.011815428
0.047616556
-0.014019677
-0.039560247
-0.033582292
-0.07067459
-0.0947592
-0.08855719
-0.09982986
-0.12139074
-0.08820106
0.02332188
0.11614272
0.12334018
0.08980558
0.02618179
-0.056452166
-0.10331572
-0.09816937
-0.0021859836
0.16100341
0.23871219
0.19943996
0.12831749
0.046085607
-0.02889544
-0.04090692
-0.0022636524
-0.005254033
-0.052431207
-0.062122937
-0.03721663
-0.020342963
-0.016325729
-0.019660553
-0.06043658
-0.124378264
-0.10494251
-0.045406662
-0.026560709
0.023477562
0.054721314
0.029080963
0.039222118
0.061552417
0.09356252
0.12808438
0.06827852
-0.03835939
-0.07110627
0.0063934755
0.09955333
0.07949714
0.006446063
-0.04134139
-0.08047052
-0.055078056
0.012660237
-0.010606978
-0.096074544
-0.12901407
-0.11396357
-0.07106031
-0.006116942
0.008785535
-0.042074203
-0.093489416
-0.123216
-0.12144231
-0.046173643
0.112123884
0.24137232
0.21791852
0.12110453
0.06160952
0.02314982
0.046163786
0.12446854
0.111185394
0.01465408
-0.0554433
-0.090356804
-0.051929854
0.024089493
0.020957006
0.035519373
0.11779887
0.099146985
-0.014020294
-0.09857248
-0.14544937
-0.14885879
-0.12195316
-0.094735324
-0.03642579
0.031327948
0.033785768
-0.01165474
-0.036405753
-0.022121128
-0.010985108
-0.043340787
-0.038107593
0.06454488
0.12336241
0.05858337
-0.02631392
-0.047467172
0.016479138
0.091032915
0.078770794
0.04310647
0.0486689
0.047569904
0.008918884
-0.07058858
-0.11805724
-0.08355961
-0.06134287
-0.042552248
0.01001908
0.02798441
0.045576606
0.05818698
0.0318428
0.018214883
-0.030499713
-0.07471313
-0.042344656
-0.016497552
0.024108741
0.051672813
0.0030156695
-0.006334446
0.017366618
0.037109416
0.09163573
0.132682
0.17033
0.16647546
0.058792915
-0.04251209
-0.10960607
-0.14548486
-0.07538977
-0.0066170236
-0.051413987
-0.10196952
-0.07993371
-0.038470875
-0.006305469
0.018629063
-0.0015867855
-0.07779249
-0.14169157
-0.1174253
-0.021002205
0.044213183
0.03135466
-4.4547214E-5
0.0042385743
0.016018659
-0.0039412635
-0.009217354
0.014660663
0.0018444443
-0.026321206
-0.01816998
0.01882877
0.09665472
0.18810508
0.20099716
0.116036564
0.033219926
0.023295896
0.0087853875
-0.05422482
-0.05058663
0.04637864
0.065918036
-0.032404218
-0.06158062
0.008934671
0.055188295
0.07520706
0.06702726
0.019685607
-0.018299598
-0.059043642
-0.09455578
-0.0923922
-0.08445356
-0.092065334
-0.101756096
-0.07785327
-0.038709715
-0.036256507
-0.047139227
-0.0620277
-0.061107334
-0.024160517
-0.011771693
0.0024061177
0.052252404
0.0906481
0.11591953
0.093058385
0.032329064
2.2543322E-4
-0.023994522
-0.015169405
0.021885695
0.016770555
0.013485051
0.022952091
0.005654346
0.0024371836
0.06818228
0.16889943
0.14979568
0.03359864
0.0020515437
-0.013365496
-0.06851578
-0.080357544
-0.10203971
-0.10432156
-0.033978067
-0.008036371
-0.054218285
-0.09174496
-0.035989337
0.09196089
0.12916747
0.07859385
0.05887205
0.04417994
-0.008255011
-0.07159643
-0.1240374
-0.14239621
-0.092668675
-0.03214953
-0.033001818
-0.014972185
0.04079448
0.04458207
0.0234094
0.024708854
0.04831179
0.07249527
0.03990987
-0.018924128
-0.03609721
-0.021975793
0.015655307
0.057963613
0.06125441
0.04618179
0.039721385
0.029137665
0.029156808
0.023636987
-0.010056691
0.005108018
0.065847345
0.057981078
0.021096744
0.052546382
0.08433182
0.031210668
-0.071559645
-0.16257113
-0.2154299
-0.24690865
-0.27452773
-0.22779085
-0.08589122
0.021574732
0.054724164
0.080078386
0.09464408
0.109209456
0.13265376
0.11371436
0.07433182
0.0705216
0.08921051
0.07979372
0.03783116
0.049210936
0.09485814
0.06602126
0.011156687
-0.026563117
-0.049723834
-0.0025082007
0.03417522
-0.0061667166
-0.04845917
-0.09133805
-0.124985576
-0.1279084
-0.12743993
-0.08941972
-0.030904965
-0.008369822
-0.010537724
-0.029025467
-0.032506384
-0.017465452
-0.012860247
0.045230035
0.1553544
0.1805501
0.1140501
0.0914711
0.109055065
0.07651703
0.051264416
0.06648415
0.02681491
-0.06395432
-0.12282085
-0.1424365
-0.14755316
-0.12642053
-0.08277286
-0.054575328
-0.04709773
-0.06487943
-0.06667834
0.016443325
0.08253208
0.06850654
0.084039874
0.11273409
0.0883207
0.04724663
-0.001050837
-0.052984867
-0.06587648
-0.025898917
0.015490125
0.015233728
0.013221563
0.029291917
0.009020621
-0.044614978
-0.0476739
-0.0015390331
4.1770603E-4
-0.041794043
-0.057237975
-0.031425953
-0.004297548
-9.694678E-5
0.031039232
0.08839925
0.10001322
0.079517394
0.047899332
-0.001821348
-0.040152058
-0.042500477
0.013893969
0.076348715
0.064772695
0.026362764
0.018880745
0.034098577
0.024880778
-0.03258997
-0.048543148
-0.011633367
-0.030525213
-0.08825707
-0.10477563
-0.08978972
-0.0879614
-0.09345337
-0.05469863
0.013853051
0.041429535
0.029023465
0.030647395
0.03590284
-0.0073091825
-0.062756866
-0.0738426
-0.03976807
0.056213282
0.13973388
0.09869039
0.007348642
-0.039531544
-0.06072652
-0.076828055
-0.07147978
-0.017844224
0.04873099
0.11331449
0.19093688
0.1836544
0.08223281
0.008481361
-0.028183272
-0.049435887
-0.026247367
0.033191957
0.06884539
0.05023021
0.011267185
-0.037643
-0.07863602
-0.08426907
-0.06257149
-0.012952518
-0.001887967
-0.05408665
-0.06794974
-0.044449717
-0.045112666
-0.063284636
-0.05051293
0.009364568
0.030019062
0.019768037
0.040527295
0.024125267
0.0010815957
0.032890465
0.031689793
-0.0044756704
-0.010627446
-0.011673959
0.0025698035
0.06548865
0.1058588
0.06644712
0.0027513052
-0.03877782
-0.061713003
-0.06874547
-0.07468375
-0.09493287
-0.109583996
-0.106160976
-0.11465033
-0.10801963
-0.006284975
0.14637247
0.21548353
0.17512128
0.11458921
0.08853354
0.0765358
0.046866942
-0.005141449
-0.018742444
0.053156506
0.13961594
0.15677667
0.11707159
0.08700777
0.060749914
-0.0102842385
-0.08011059
-0.12236691
-0.17143637
-0.20734927
-0.22047985
-0.22346506
-0.20384005
-0.14602837
-0.06695793
-0.029493783
-0.032728095
-0.018481113
-0.0046554846
-0.03427102
-0.07121923
-0.06779154
-0.041234586
0.038776062
0.19959366
0.33116323
0.36836576
0.32138368
0.2001158
0.07887012
-0.0046226974
-0.06166634
-0.08977669
-0.09172724
-0.051615898
0.004755448
0.033323772
0.028102202
-0.014634811
-0.052466527
-0.050203755
-0.047768686
-0.074627176
-0.10532709
-0.11672831
-0.11031251
-0.050717656
0.044219054
0.06565012
0.018593661
-0.0252168
-0.066713914
-0.09092489
-0.07736709
-0.058363646
-0.02574118
0.066215105
0.15216978
0.14754997
0.09445782
0.037641563
-0.0043312674
-0.03343699
-0.08883218
-0.10832457
-0.05839996
-0.038034666
-0.026202772
0.042321995
0.08874672
0.09206361
0.12901528
0.17030025
0.1487081
0.09270973
0.037386924
-0.011893437
-0.040247224
-0.04612537
-0.050328348
-0.06196035
-0.056140188
-0.034733497
-0.036756143
-0.07378479
-0.11749847
-0.11967855
-0.10565272
-0.10290605
-0.043603607
0.025211662
0.03184739
0.049621347
0.060803577
0.012604373
-0.036756787
-0.05769091
-0.05675054
-0.050693028
-0.045514304
-0.012445275
0.045380943
0.12028563
0.19686368
0.2215907
0.19375384
0.16842923
0.15736997
0.11469747
0.04136627
-0.0037477086
-0.039220493
-0.1039175
-0.13645466
-0.11411522
-0.10846157
-0.12977181
-0.12445054
-0.0839353
-0.04247791
-0.028278166
-0.04462411
-0.07850066
-0.11292046
-0.1305722
-0.12071589
-0.092594475
-0.083899096
-0.07648987
0.016033348
0.13476235
0.14755018
0.11556246
0.11143341
0.096509434
0.105949245
0.17666008
0.23743549
0.22006348
0.14796227
0.08249902
0.035736326
0.0045496845
-0.022237472
-0.057305045
-0.06896325
-0.07398811
-0.09933907
-0.10225308
-0.08711122
-0.09253367
-0.11600023
-0.13428177
-0.14253171
-0.15191476
-0.1417231
-0.11100478
-0.033897147
0.11515047
0.18365796
0.11100416
0.041062087
0.009358375
-0.009836804
-0.03256705
-0.061017767
-0.049527586
-0.033989787
-5.346979E-4
0.1060579
0.18375991
0.19936498
0.20357844
0.1669803
0.10171138
0.04870246
0.023371866
0.024204457
0.025604773
0.02355227
-0.0072343554
-0.072097465
-0.10506257
-0.099773824
-0.10073155
-0.13499644
-0.18111214
-0.16733958
-0.1322596
-0.12648189
-0.069977395
-0.008393344
-0.051570337
-0.12668115
-0.15726434
-0.16194034
-0.17034534
-0.17556612
-0.11901044
-0.018338006
0.071376085
0.17408156
0.27884036
0.35427988
0.39630008
0.3753931
0.3343909
0.3632744
0.39234304
0.28314582
0.12243961
0.07289374
0.049673624
-0.054639347
-0.16739966
-0.2445392
-0.28837517
-0.27445272
-0.23017012
-0.2087637
-0.21013156
-0.21379021
-0.21081358
-0.19144404
-0.18276691
-0.18123192
-0.10013781
0.018226132
0.039810978
0.004730707
0.0011120839
0.0035614397
0.008939243
0.08053289
0.19437587
0.22930343
0.17317206
0.1293635
0.13932014
0.157776
0.113860145
0.0066809566
-0.08936935
-0.15036474
-0.19009311
-0.1998598
-0.17465091
-0.13815774
-0.10495996
-0.016353788
0.11817647
0.17913455
0.18652105
0.22510937
0.2519304
0.23012227
0.18900596
0.14676462
0.10367827
0.08818938
0.096208125
0.038049884
-0.044492718
-0.038901374
-0.039004676
-0.10893998
-0.15953603
-0.18002576
-0.20856498
-0.26458737
-0.3159316
-0.26900095
-0.15194394
-0.06473903
-0.0173446
-0.00856638
-0.021963112
-0.020886261
0.010091373
0.10565052
0.20196496
0.19447406
0.14716648
0.11556733
0.06818903
0.005182144
-0.0643992
-0.09452356
-0.07709053
-0.043533154
0.029326579
0.0651408
-0.004318608
-0.08177171
-0.11631382
-0.120433725
-0.09479198
-0.058693737
-0.02336749
0.009612097
0.08487832
0.24676962
0.3965848
0.39365909
0.2720947
0.14360082
0.030288763
-0.04459207
-0.07496842
-0.09018725
-0.057351712
6.980339E-4
0.01895905
-0.015678471
-0.09784528
-0.15939932
-0.17439698
-0.19857892
-0.23484468
-0.23711576
-0.19308123
-0.17844018
-0.19195774
-0.15606874
-0.09661139
0.008444205
0.16050814
0.25300092
0.27936777
0.27105615
0.25708905
0.24211034
0.16408353
0.047179516
-0.047495108
-0.108618915
-0.13373688
-0.09339189
0.019446932
0.08176701
0.042927086
-0.008868889
-0.020056082
0.05101052
0.13502978
0.12800837
0.08042107
0.01627047
-0.077739306
-0.13895544
-0.12670083
-0.087357886
-0.09744577
-0.14629813
-0.1509744
-0.09749078
-0.038673416
0.016386034
0.048220497
0.0069669127
-0.049382497
-0.07239411
-0.08481963
-0.078762464
-0.089855686
-0.08551985
-0.00955089
0.036623146
0.026839262
0.011325944
0.0065434086
0.06564165
0.1689326
0.26257518
0.31132346
0.29831928
0.3136848
0.35727376
0.30723205
0.17794158
0.033545714
-0.13616036
-0.26619902
-0.26627725
-0.23523492
-0.27241784
-0.27772427
-0.19780278
-0.11494336
-0.088269055
-0.10981726
-0.13453716
-0.13946125
-0.12352035
-0.09637296
-0.07428937
-0.052870166
-0.04644733
-0.02437958
0.06405174
0.12454907
0.115132906
0.122850485
0.11851871
0.12318734
0.2349085
0.3197989
0.26947707
0.19304262
0.1248575
0.06940176
0.07042343
0.061006304
-0.009631596
-0.08312107
-0.122176714
-0.1336485
-0.1320421
-0.14492586
-0.17894043
-0.20656362
-0.21460253
-0.2009156
-0.16031995
-0.07293698
0.06710766
0.14858232
0.10376645
0.044237707
0.02137765
-0.0034242664
-0.035434175
-0.05413453
-0.028225357
-0.0012926679
0.021140225
0.09095913
0.11931565
0.11405034
0.17940539
0.20891482
0.14336875
0.0666409
-0.0041593597
-0.058364265
-0.0908248
-0.113935955
-0.12730633
-0.14647815
-0.13401833
-0.048197977
0.04530414
0.072640315
0.056973044
0.04173749
0.011268736
-0.017550878
-0.014612469
-0.028366307
-0.029463684
0.042123597
0.09811064
0.09955348
0.10196168
0.08764464
0.04408221
-0.003912533
-0.05558514
-0.102225654
-0.12247828
-0.10464125
-0.074503295
-0.06971339
-0.07246189
-0.062484235
-0.05892838
-0.066435285
-0.07921263
-0.086663246
-0.07659603
-0.0665476
-0.050299414
-0.019546745
0.00337123
0.090162225
0.25258726
0.30424926
0.21357737
0.1235298
0.058545087
0.025748368
0.04438757
0.058767777
0.048084382
0.018339556
-0.01683602
-0.006613671
0.026858734
0.025264738
0.008289307
-0.013068082
-0.061327726
-0.11411134
-0.13384095
-0.12166561
-0.115952305
-0.12937996
-0.13518837
-0.14395304
-0.12386715
-0.014979894
0.086870596
0.11137383
0.13017449
0.14066139
0.11484855
0.07055668
0.015414674
-0.0062906914
0.008844582
0.011103443
0.002139222
-0.013368434
-0.02120302
-0.0019623896
0.0027972243
-0.010577116
-0.02149471
-0.044095248
-0.00626124
0.101725064
0.11877844
0.02928493
-0.04825998
-0.080412805
-0.067613795
-0.042967405
7.694735E-4
0.07408012
0.058589093
-0.019534063
-0.042774387
-0.03954704
0.018747546
0.09079894
0.043019835
-0.04496445
-0.09224322
-0.1185135
-0.11802847
-0.11049338
-0.07208801
-0.024937501
-0.037790608
-0.03650016
0.023398781
0.108353354
0.18667677
0.16825397
0.072399914
-0.009684208
-0.08396001
-0.10278551
-0.04750936
-0.008031424
0.060197912
0.20183215
0.27107698
0.2110186
0.11951016
0.033325553
-0.032931067
-0.04075815
-0.025645247
-0.038662475
-0.06723856
-0.10314128
-0.14803508
-0.16430992
-0.123001285
-0.06388397
-0.043953218
-0.051931072
-0.055413697
-0.050462194
-0.025900075
-0.01811072
-0.048333593
-0.019059913
0.05250868
0.035147905
-0.029214852
-0.060257368
-0.08199871
-0.100939035
-0.10313239
-0.05390516
0.07567254
0.22784296
0.30945337
0.28042677
0.19927184
0.14050344
0.09408136
0.03443164
-0.029995402
-0.07712421
-0.104755305
-0.09863039
-0.004141598
0.100885026
0.08344476
-0.0040280228
-0.07042242
-0.07904088
-0.037074916
-0.021773161
-0.031874757
-0.040899243
-0.07140386
-0.10141759
-0.1294979
-0.1507973
-0.16014706
-0.16314451
-0.080569215
0.039529882
0.06285403
0.02757932
-0.017696224
-0.03572031
0.014672448
0.09601804
0.18357249
0.20752458
0.13824521
0.06471005
0.017874576
0.0128676845
0.0153885
-0.017662184
0.008313394
0.081611805
0.09722127
0.06320051
0.024486143
0.01409459
-0.0057689897
-0.05958004
-0.069796026
-0.05207143
-0.084255725
-0.10109355
-0.022830877
0.036758516
-0.00582654
-0.045585673
-0.06750379
-0.09485214
-0.073089644
-0.051369768
-0.06701395
-0.083803385
-0.09516754
-0.084239945
-0.05199923
0.015451937
0.13679886
0.2329384
0.23448569
0.1735055
0.10069565
0.032826528
-0.018138582
-0.055033743
-0.0801017
-0.07588637
-0.0770696
-0.0642501
0.025954219
0.09368548
0.055783212
-0.018210592
-0.035641797
0.045637302
0.1200686
0.0945696
0.031165982
-0.03306049
-0.07106283
-0.04976399
-0.0370814
-0.08379088
-0.1362207
-0.12706453
-0.08225496
-0.07690542
-0.041982472
0.104996264
0.20633791
0.14658006
0.051418763
-5.637725E-4
-0.026220163
-0.032563057
-0.045493953
-0.06840386
-0.08831087
-0.07395159
-0.00887034
0.0324546
0.012511362
0.0070037763
0.09876655
0.20275451
0.14980705
0.04043865
0.04798934
0.116228774
0.15053828
0.08192214
-0.059703406
-0.16010116
-0.22819732
-0.25780964
-0.21771468
-0.1384293
-0.008310937
0.09161079
0.06844561
0.0036196224
-0.051178176
-0.10170448
-0.108214006
-0.037577845
0.07874026
0.12562467
0.0666907
0.009942782
0.010086492
0.016538454
0.015732307
0.07184706
0.14088392
0.10602761
0.045656547
0.060254533
0.102569945
0.11783675
0.057849355
-0.0016057303
0.043080375
0.06799701
0.0037575527
-0.065514274
-0.11440992
-0.13631833
-0.15698077
-0.17625754
-0.124611445
-0.042543583
-0.014219295
-0.025593108
-0.026151758
0.0015064459
0.0044567795
-0.054907247
-0.07583249
0.014694074
0.082935885
0.040564135
-0.019270038
-0.054004136
-0.06742665
-0.035481192
0.05354483
0.17611815
0.20259316
0.09487672
-0.012683517
-0.06827294
-0.030026052
0.11676713
0.20795417
0.16377522
0.073109835
0.0051199766
-0.019242682
-0.025682406
-0.058824822
-0.11342303
-0.13355762
-0.09853212
-0.070945986
-0.08610593
-0.100049876
-0.09227174
-0.104577534
-0.14068846
-0.113765344
0.001129608
0.096463695
0.1283503
0.14529702
0.12484817
0.058825556
0.019883996
0.0010011368
-0.029359745
-0.03177834
0.0043258234
0.07126338
0.12938933
0.10382004
0.03253204
-0.0070638326
-0.016406031
0.0026394026
0.04170037
0.05565137
0.024694046
-0.023765007
-0.055210043
-0.05296236
-0.037651468
-0.05810066
-0.106413476
-0.13840239
-0.15084657
-0.14933592
-0.13200347
-0.10600775
-0.08807833
-0.023533033
0.15815802
0.3077523
0.2829481
0.1948245
0.11580332
0.031753354
-0.030648613
-0.069793954
-0.09264486
-0.10717847
-0.102810666
-0.07720718
-0.07343603
-0.052444767
0.047318514
0.18255784
0.25223166
0.18743022
0.05312424
-0.04961009
-0.105062604
-0.13126749
-0.14092351
-0.13187048
-0.12916948
-0.103889145
0.005161564
0.08861652
0.06663434
0.006148798
-0.022877311
0.048923396
0.13514109
0.12227894
0.081180185
0.042379223
0.038419105
0.09630194
0.10164272
0.04251991
-0.012725699
-0.06503066
-0.10822398
-0.13234639
-0.124929205
-0.10077
-0.075199746
-0.058541093
-0.08782077
-0.10470683
-0.09227629
-0.08018959
0.020909624
0.12588944
0.08822092
0.006740562
-0.026411097
0.010988797
0.08498224
0.10101339
0.059792705
-0.0074249813
-0.05812699
-0.069992974
-0.05934724
0.036319252
0.16727534
0.2269286
0.25043264
0.20434092
0.08467369
-0.0051603164
-0.066933185
-0.121944614
-0.15970531
-0.16998164
-0.15463117
-0.1344968
-0.062350612
0.022380255
0.016524043
-0.030300364
-0.06660493
-0.033522196
0.100480445
0.16905038
0.12288026
0.071258485
0.013025128
-0.041210923
-0.065637566
-0.0830723
-0.0787447
-0.06571565
-0.05380511
-0.03669085
-0.04906456
-0.016347691
0.10495516
0.15471011
0.09961479
0.052150514
0.0020484233
-0.05560386
-0.04719645
0.0037949223
-0.0025315238
-0.057229076
-0.09206186
-0.112339005
-0.071804844
0.07205091
0.18864551
0.18122369
0.099701785
0.013421145
-0.044690765
-0.086354256
-0.10501564
-0.06960118
-0.0030807077
0.031980272
0.03691593
0.06589121
0.07208217
0.009126329
-0.06035054
-0.11790671
-0.14500138
-0.121459804
-0.08439843
-0.0018184362
0.0965264
0.09561529
0.030766837
-0.012745909
-0.036825106
-0.037073903
0.044313688
0.16003288
0.14352378
0.039890964
0.015059056
0.02310512
-0.01757698
-0.07214862
-0.09771914
-0.098881
-0.07486039
0.026382264
0.15384828
0.18122765
0.12991413
0.08192787
0.049924344
0.013778783
-0.029696245
-0.051885586
-0.06152264
-0.0880884
-0.10830091
-0.100248516
-0.078944094
-0.06279286
-0.06471791
-0.08599593
-0.11322883
-0.1219689
-0.048643135
0.09740968
0.1464071
0.072267525
0.015538812
-0.02634816
-0.06256653
-0.07925857
-0.11046963
-0.060222995
0.07216613
0.13790797
0.15070772
0.16758128
0.1836362
0.1852461
0.13327321
0.03430927
-0.039229576
-5.6077796E-4
0.08619386
0.057405405
-0.037330806
-0.08583323
-0.09965904
-0.09715835
-0.113219045
-0.13372834
-0.12454419
-0.13344428
-0.13307191
-0.0795913
-0.059817582
-0.09619681
-0.06758312
0.0537893
0.1407872
0.11932886
0.035244163
0.0049792267
0.09354819
0.16819543
0.1226878
0.04120207
-0.018982073
-0.059696563
-0.041018248
0.06551684
0.1792029
0.16633719
0.050144803
-0.034595117
-0.031797722
0.03197342
0.06015409
-0.0061663534
-0.09172402
-0.1332965
-0.13803299
-0.13113658
-0.14299737
-0.13422316
-0.05960575
-0.008478607
-0.040968113
-0.047955424
0.025959576
0.084027566
0.07557714
0.045625832
0.018991642
-0.013602556
-0.025683908
0.014172456
0.055289607
0.05209725
0.020194087
-0.031528078
-0.029262673
0.06804556
0.119816124
0.07155237
0.022239557
0.0023230752
-0.013240556
-0.050215777
-0.06294106
0.0030925206
0.05079322
0.044021886
0.051409837
0.055083126
0.044256918
0.008168938
-0.04220254
-0.016787032
0.032967303
0.011782685
-0.038246207
-0.06986184
-0.03497477
0.05270057
0.07771507
0.01724309
-0.050876323
-0.08285827
-0.10761955
-0.1382173
-0.14117144
-0.11508403
-0.041371666
0.05013271
0.058651846
0.013944414
-0.025830848
-0.056114234
-0.040664792
-0.023127848
-0.048432775
-0.04810983
0.041218095
0.18685092
0.23761724
0.15742993
0.10378169
0.095950864
0.059388444
0.014825654
-0.023816887
-0.044982944
-0.035503473
-0.0118885515
0.009956865
-3.324783E-4
-0.030997675
-0.049339477
-0.068915
-0.06897956
-0.024167312
0.0061492724
-0.0402933
-0.0767939
0.012243944
0.101222254
0.057745736
-0.01946194
-0.05919906
-0.07073158
-0.06817441
-0.07074914
-0.031962965
0.036232103
0.055862308
0.039608695
0.013402532
-0.027364617
-0.07161616
-0.10149437
-0.10414354
-0.09167204
-0.086490214
-0.06859052
0.04523439
0.2163233
0.2579777
0.18537925
0.12751032
0.06867123
0.011566439
-0.022673303
-0.019147294
0.055443898
0.11323021
0.104498304
0.08607783
0.05147456
0.0052843397
-0.040770512
-0.08851605
-0.106284104
-0.11113486
-0.12769912
-0.15566951
-0.18358919
-0.19330569
-0.18549974
-0.09054604
0.050586462
0.06020741
-0.011970158
-0.048154682
-0.008978707
0.1188766
0.18305415
0.1274014
0.050978795
0.013167195
0.08341889
0.15860587
0.11377531
0.027576426
-0.03549376
-0.005627632
0.0764132
0.0573114
-0.015476806
-0.06805127
-0.102811255
-0.10312739
-0.097622
-0.10329371
-0.10624607
-0.08932917
-0.07897808
-0.07443532
0.027664678
0.15353979
0.15017267
0.08991014
0.05741482
0.04206026
0.032552693
0.03880372
0.061280917
0.0359584
-0.035302512
-0.054318275
0.008649774
0.06802242
0.049264695
-0.0014558695
-0.050395254
-0.068259485
-0.0014608211
0.037740614
-0.012921706
-0.05322687
-0.082421504
-0.12091588
-0.14666605
-0.15142862
-0.1097192
-0.0027402746
0.15720975
0.24256983
0.17310041
0.07577783
0.025507638
0.0056072758
-0.019361699
-0.08035156
-0.0808232
0.0025031685
0.046255972
0.022244414
-0.0152002685
-0.054861117
-0.106541805
-0.081537984
0.054232117
0.12460038
0.07325089
0.013986415
-0.034722947
-0.091177195
-0.10145026
-3.1107766E-4
0.12335648
0.11826213
0.02393038
-0.06798481
-0.12728985
-0.10391206
0.008448887
0.113682665
0.10527111
0.022687588
-0.042163324
-0.06551772
-0.016502332
0.042035196
0.033984184
0.018369686
-0.008860204
-0.03324225
0.03168982
0.106716596
0.09984728
0.054346204
0.0048118164
-0.052540455
-0.096034564
-0.05975656
0.0459215
0.1050842
0.06809132
-0.0139040705
-0.07429846
-0.098793134
-0.105867036
-0.09320168