-0.001400635
-2.3940668E-4
4.2483912E-4
-0.0016253327
-0.0018440142
-0.0016134903
-0.0022714098
-0.0017289489
-0.0013501557
-1.00561505E-4
-2.0228817E-4
-0.0012713694
-1.7639235E-4
-0.0035043946
-0.007897206
-0.00686266
-0.008500016
-0.011284492
-0.008955035
-0.004665314
-8.382886E-4
-0.0019697642
-0.0064852308
-0.0052699093
-9.6612494E-4
0.0011841096
0.0031509758
0.0053981156
0.009070359
0.012936123
0.012598177
0.010818644
0.00956823
0.0074196314
0.007215705
0.0071761278
0.0057108286
0.005990741
0.004499316
0.0013698423
0.001938919
0.0032235226
0.0017171121
-5.7455245E-4
-0.0018801602
-0.004300346
-0.0069354186
-0.005977068
-0.006953168
-0.009470518
-0.0054026498
-0.0029204497
-0.0065051625
-0.005057835
0.0012000805
0.0034989878
7.741798E-4
-0.005010893
-0.011484051
-0.011362043
-0.0019676147
0.0057976106
0.0048794583
0.0026374212
0.0038497944
0.003772398
-3.2578675E-5
-0.0032661376
-0.0029801806
-0.001775557
-1.9163528E-5
0.0031764451
0.0038354523
0.004150425
0.0073491684
0.0068693873
0.0042180554
0.0039751427
0.0041143736
0.007260899
0.008413905
0.0020695156
-0.0035994782
-0.0060383184
-0.0058426694
-0.0041347495
-0.0059303013
-0.0068597724
-0.004850589
-0.0037233839
-0.0012013854
7.462764E-5
-0.004047772
-0.008734276
-0.010557053
-0.010133528
-0.0072853826
-0.0039905035
-0.0024564432
-0.0019897076
-0.0023562766
-0.0024730207
-7.3661737E-4
0.0025203708
0.0053139166
0.0053936252
0.005728216
0.007239028
0.0069243764
0.0067738886
0.005692792
0.0032769274
0.0019761927
3.2010526E-4
0.0015018637
0.0038649964
0.0028969743
0.0023391088
-1.533496E-4
-0.0031609228
-2.9906433E-4
0.0020035629
2.8776113E-4
-5.756798E-4
3.498877E-4
0.0021722983
0.004321654
0.005613832
0.005653725
0.005361215
0.004638829
0.0025968635
-3.3033444E-4
-4.7667217E-4
0.0019986469
-0.0011541058
-0.006130871
-0.0055644372
-0.0068669715
-0.008073289
-0.004959593
-0.0044658105
-0.0047358456
-0.0048994953
-0.008003699
-0.009341649
-0.008574173
-0.010840996
-0.0157407
-0.0161532
-0.009554485
-0.0011731249
0.006105295
0.009339812
0.0095112985
0.011965949
0.012262163
0.008355209
0.0062208488
0.0057513923
0.006714799
0.010129982
0.013119402
0.013303018
0.009360366
0.005156764
0.0041932752
0.0030495373
0.0026204847
0.0019581604
-0.002106648
-0.004530723
-0.0062575378
-0.00771807
-0.0048123994
-0.0043610493
-0.006083076
-0.0037761717
-0.0010270296
0.0013511479
0.002981107
0.0017295856
-7.6193624E-4
-6.246149E-4
0.002208114
-0.0011706615
-0.007148417
-0.005254138
-0.0026938985
-0.0016952321
0.0012671708
0.0023135745
0.002661843
0.0011209757
-0.0030544298
-0.0038214088
-0.0027220799
-0.0031349983
-0.0043771896
-0.0038799553
0.00142516
0.004551064
9.779959E-4
-0.0011669779
-9.5241226E-4
-6.431591E-4
0.0025546758
0.0040303227
0.0026218768
0.004805361
0.0069248746
0.004506562
0.0023376134
9.197709E-4
-0.002191087
-0.0032284902
-0.0017510226
-0.0018551766
-0.0016002469
-8.027447E-4
-7.4301905E-4
0.002720984
0.004389544
-0.0018911512
-0.0074437186
-0.005237476
0.0026458588
0.008518323
0.007159969
0.0041507566
0.0022805918
-1.7354022E-4
-3.2531045E-4
0.002383487
0.005206343
0.0057783313
0.0041013756
0.0036899664
0.0030539185
-6.579199E-4
-0.0022044943
-0.002842452
-0.008854995
-0.012677379
-0.009632142
-0.006167191
-0.005528598
-0.007832819
-0.0059937006
-9.4570615E-4
-0.00463805
-0.0077627418
-0.0019972674
0.002079187
0.002730049
0.0020375068
0.0026113119
0.0056494814
0.0046260445
0.0038266922
0.0068473606
0.006172604
0.0033762562
0.0020563612
-8.6101856E-5
-0.0012555781
7.827116E-4
0.0027489103
0.0027782132
0.0013114874
-0.0022360177
-0.004135722
-0.004793253
-0.007457126
-0.0057425597
-0.0015297936
-0.0013304497
-0.0015820938
-0.0031009805
-0.00382047
5.083967E-4
0.002495516
0.0010960792
0.0040590107
0.0104891155
0.013093287
0.01026943
0.006394939
0.0036500357
0.0023896077
8.248237E-4
-0.0023898012
-0.00394634
-0.004283007
-0.005191219
-0.004228759
-0.0024582795
-0.0023661822
-0.0011060609
0.0016858518
9.0048794E-4
-9.1399887E-4
-6.4345804E-4
-0.0050096544
-0.009982025
-0.0060860408
-8.129558E-4
-0.0012911722
-0.0021816802
-9.041831E-4
-5.8416754E-4
-6.19199E-4
7.596122E-5
2.4136303E-4
0.0020654083
0.004158636
0.004022457
0.0041900417
0.0015397712
-0.0035227672
-0.004756146
-0.004919553
-0.004050012
0.002706825
0.010119044
0.011175071
0.009924102
0.009397408
0.0036919198
-0.0023525509
4.7660753E-4
0.0052811834
0.007351156
0.008819445
0.008280539
0.0068895747
0.0041965363
-3.1718373E-4
-0.0030530207
-0.0039699394
-0.005379189
-0.009857407
-0.016219428
-0.017229384
-0.011970753
-0.0074847303
-0.006095965
-0.004542299
-0.0029284158
-0.0023508258
-0.0019278154
-0.004935241
-0.009973885
-0.009871693
-0.007129269
-0.003980331
8.489494E-4
0.0034438712
0.00682168
0.011225277
0.009704104
0.007891493
0.008053966
0.0075027733
0.009917917
0.0088986885
0.005755668
0.009365088
0.009989011
0.005809576
0.0037859685
0.0011569199
1.7674225E-4
6.0132885E-4
-6.2025123E-4
-9.7498036E-4
-0.0019891763
-0.002523987
-6.4191874E-4
6.684534E-4
-3.903981E-4
-0.003957641
-0.004445204
-0.0021162773
-0.0033858167
-0.0041553443
-0.004890059
-0.008353163
-0.009102667
-0.008447733
-0.007087731
-0.003508503
-0.0024534068
-0.0049806316
-0.006884287
-0.005359926
-0.003790934
-0.0025590148
0.002281435
0.0049166745
0.0042822934
0.0044903234
0.0027880976
0.0018772458
0.0032973753
0.0061566667
0.009379827
0.0076132277
0.006579498
0.007383036
0.0035458377
0.0030786966
0.0070757326
0.008831947
0.00857513
0.007626633
0.008418012
0.007288891
0.0040970827
0.0031935673
-2.6378175E-4
-0.005692351
-0.0105922995
-0.013494028
-0.011206734
-0.010904975
-0.0121292425
-0.009904736
-0.00799932
-0.0041454583
-0.0015070961
-0.0042418027
-0.005907858
-0.006483938
-0.006882791
-0.0044905897
-0.0011021998
9.428212E-4
0.002282527
0.0027702819
2.8712658E-4
0.0011597866
0.007617927
0.008342635
0.0053648786
0.007591188
0.010509621
0.009394121
0.0075644413
0.0095031075
0.012480524
0.0098510785
5.302708E-4
-0.007869144
-0.0072851893
-0.0021210327
2.7019E-4
-0.0011700793
-0.0028284467
-6.7190995E-4
2.050219E-4
-3.5467156E-6
0.0015374005
-0.0012659051
-0.0035093927
-0.0036077115
-0.007959108
-0.0109829055
-0.009788729
-0.0061560604
-0.005143441
-0.007945049
-0.005292434
-0.0019583297
-0.0019028807
1.6752924E-4
-3.2533662E-4
-0.0020993766
-0.0019238062
-0.0013626999
5.524243E-4
0.0026403945
0.006167612
0.008493944
0.0075837644
0.008343871
0.008589157
0.007683882
0.0063426443
0.003757956
0.004492259
0.0049999435
0.0019085534
8.4107666E-4
0.0019262367
0.0018015198
0.0011785986
0.0022321825
0.0010372145
-0.003182679
-0.0059524244
-0.012384971
-0.019106707
-0.016546845
-0.011123311
-0.0063813543
-0.00200624
-0.0012319926
-9.3466596E-4
1.445949E-4
1.2623868E-4
6.6910885E-5
0.002226242
0.0055484613
0.0057226107
0.0062440066
0.009551286
0.008824521
0.0051998664
0.0039628707
0.0022811696
-5.3120963E-4
5.263386E-4
0.0044160304
0.005083215
0.0025141924
-4.0796032E-4
-0.0025876511
-0.003233671
-0.00202345
-8.986197E-5
-0.0024011738
-0.007406256
-0.007820051
-0.006622653
-0.004901656
-0.0016472915
-0.0028837998
-0.0042832578
-0.002243895
-0.0025744848
-0.0021179623
6.111771E-4
0.0014535992
8.6162984E-4
1.6880914E-4
0.0023381163
0.0062624747
0.0062191756
0.002937104
0.0013062918
0.0028745185
0.003497214
0.0015565623
-8.697062E-4
-0.0050934167
-0.0082039945
-0.0072652274
-0.0059857643
-0.003558026
7.781828E-4
0.0022692203
0.001390388
0.0023343354
0.00461513
0.006161512
0.005747971
0.0024619675
-0.0011626313
-0.001951414
9.256295E-4
0.0031287782
-5.5285247E-5
-6.3816646E-5
0.0059995893
0.008168424
0.007952933
0.007501242
0.0047207302
0.0016367788
-0.002364347
-0.004373023
-0.0038460088
-0.0018647244
0.0029648512
0.0021372389
-0.005334229
-0.013168462
-0.018182058
-0.013031951
-0.005882847
-0.0046282317
-3.884259E-4
0.0037583467
0.0033980059
0.0018614406
2.9721312E-4
0.0014350351
0.0019232744
-3.419797E-4
-8.805359E-4
7.765742E-5
0.0011373519
9.917176E-4
1.0450676E-4
0.0020316294
0.00511092
0.005483863
0.0051483912
0.0058701704
0.0034888098
-0.0010552001
-0.004274145
-0.009439569
-0.012706737
-0.00847511
-0.002781226
3.4478193E-4
0.003573311
0.0072544105
0.0059242854
7.255916E-4
0.0012999563
0.0038571472
0.001755029
8.0491335E-4
0.0019094446
0.0022743414
0.003743238
0.0047792196
1.768161E-4
-0.00686083
-0.0062008365
-0.0019467677
-0.0017840805
6.864228E-4
0.0047148187
0.005441819
0.0068028253
0.0072848094
0.0046542883
-0.002413816
-0.014079655
-0.016011491
-0.004641783
0.002699465
0.0010020229
-0.0015185638
-4.4310805E-6
0.0024791826
-3.4480636E-5
-0.0037107007
-0.0039400905
-0.0022863743
0.0010612475
0.0027310788
9.704754E-4
7.403114E-4
0.0034607542
0.006204583
0.0069169356
0.004887935
-0.0012839411
-0.007975405
-0.008245169
-0.007938021
-0.010672361
-0.009020422
-0.0068643484
-0.005920496
-2.0269846E-4
0.003713831
0.0044163647
0.009213369
0.011868102
0.004430187
-0.0050007906
-0.0041824095
0.0035151178
0.008080783
0.009631752
0.009613731
0.00695364
0.0016974547
-0.003953212
-0.002836527
0.003510046
0.0055560097
0.00603366
0.008413908
0.008009919
0.007930565
0.010159347
0.009412075
0.006738828
-0.001123809
-0.016182944
-0.026390001
-0.030837027
-0.029419614
-0.015644468
-0.0047900877
-0.0026952338
0.0013226987
0.0016792507
-3.6818314E-5
0.0024240583
0.0037565469
0.004820871
0.00478462
0.0012330837
-0.0018530476
-0.0010640624
0.0037363255
0.002830936
-0.0044305213
-0.004561688
4.5385485E-4
0.005644954
0.011953578
0.013611388
0.012089135
0.010607621
0.006978961
0.005356301
0.0053252745
0.0019579052
-9.794066E-4
0.0011580348
0.0032552762
-0.0033134054
-0.011309617
-0.0092070885
-0.004730103
-0.0041650403
-0.0051876935
-0.008561353
-0.0093970755
-0.006699053
-0.0040387656
9.1594993E-4
0.0043439814
0.0045827962
0.006191793
0.007538083
0.0068197176
0.0018635369
-0.0037890424
-0.0018698705
0.0022146937
0.0028899233
9.837713E-4
-0.004694295
-0.008374651
-0.0064317426
-0.0049398
-0.005774024
-0.0037364278
0.0017732176
0.0041128155
0.0035756344
0.0031197758
-6.315341E-4
-0.006971127
-0.010275041
-0.0046483814
0.004445187
0.0053667054
0.0038917675
0.0049325204
0.004805834
0.005405014
0.0048017497
0.0055787703
0.009420437
0.008567301
0.0066788406
0.007993487
0.009343044
0.008199315
0.0020542522
-0.006093737
-0.016695803
-0.024874022
-0.01980035
-0.010269795
-0.0047060447
-0.004133315
-0.0088926945
-0.009144434
-0.0075567695
-0.008371578
-0.0038489006
0.0015092412
0.0047103474
0.0060891216
0.0049132057
0.009184699
0.013487172
0.012192494
0.013581489
0.011395824
0.001452119
-0.0050741467
-0.0045357337
0.0019770307
0.00877223
0.0084044775
0.0069131674
0.008278264
0.011008145
0.0151677
0.010460687
-0.002048567
-0.01042673
-0.020941975
-0.028837474
-0.021215064
-0.010686689
-0.0067507513
-0.0053965757
-0.0045761997
-0.0015966586
0.0016481655
0.0033316305
0.005879657
0.007834915
0.006942516
0.0028660013
-0.0025235794
-0.0044559916
-0.003199908
-0.003215829
-0.0018685329
0.0029948228
0.0056652287
0.0045441203
0.0033517738
0.0065546436
0.011902191
0.010494171
0.0053996597
9.115767E-4
-0.0076161115
-0.018530292
-0.024178911
-0.01533258
-4.8094432E-4
0.0010805633
-0.0046609873
-0.0061389823
-7.4723945E-4
0.008067854
0.009373704
0.0096328
0.014354252
0.016814107
0.019340629
0.019429985
0.018672392
0.019210817
0.0134953065
0.008007625
0.0033431882
-0.005118434
-0.010440644
-0.015278912
-0.020759542
-0.022924708
-0.021387711
-0.01859064
-0.0233459
-0.02893186
-0.023922304
-0.012092191
0.0015773252
0.009775767
0.012660869
0.014130336
0.012943319
0.012676149
0.009209985
0.0046627237
0.009174259
0.015930686
0.019766169
0.020979868
0.01931326
0.015445517
0.010767674
0.012153291
0.007884185
-0.009551902
-0.020192204
-0.023447633
-0.027714761
-0.033186045
-0.039692663
-0.032372303
-0.01432613
-0.006023956
-0.0059367972
-0.007833913
-0.010484715
-0.009788503
-0.0037641008
0.0025045308
0.0030162744
0.0028585503
0.0054647066
0.009245977
0.016833046
0.025007036
0.031041289
0.039249666
0.044978675
0.039764132
0.029439352
0.020269942
0.00920886
0.0016277619
-0.0016109174
-0.01223824
-0.027399296
-0.03572944
-0.0352205
-0.03133053
-0.02935539
-0.028811267
-0.030505516
-0.025768103
-0.0026617942
0.02198369
0.029276537
0.022893619
0.006627614
-0.010811896
-0.016530853
-0.01515363
-0.01105
0.0011076279
0.008777907
-0.0017928327
-0.020988869
-0.03359156
-0.028137462
-0.010763413
0.0105981985
0.041463688
0.05558225
0.04396806
0.04545753
0.04329135
0.014260969
0.0118772965
0.05072428
0.06355613
0.024808584
-0.017156322
-0.038427234
-0.043350726
-0.017851185
0.016212607
0.02813213
0.043999616
0.07019586
0.06851996
0.042911436
0.020513875
-0.02550072
-0.08940527
-0.10045252
-0.07131535
-0.058869746
-0.063739575
-0.090091474
-0.12126096
-0.11454801
-0.09706322
-0.10589363
-0.10268568
-0.07783062
-0.060480505
-0.013499118
0.05313623
0.06748421
0.06348861
0.10876173
0.19083738
0.2268708
0.17661804
0.09645783
-0.017999316
-0.13628395
-0.14575031
-0.082852565
0.0043371012
0.14472638
0.28883514
0.3661022
0.35494325
0.30355737
0.2433852
0.11614056
-0.082534626
-0.2766316
-0.3913048
-0.39625898
-0.32357588
-0.23345976
-0.15655202
-0.066450626
0.0021380913
-0.0071161487
-0.04089757
-0.07318526
-0.11517826
-0.16142628
-0.204429
-0.1949414
-0.13978982
-0.04425145
0.10205785
0.193252
0.2182217
0.25751433
0.29408318
0.31100324
0.27671897
0.18283375
0.11237944
0.06424279
0.0030039838
-0.007053144
0.039505832
0.07300077
0.08034453
0.040697888
-0.06980656
-0.23578382
-0.42127916
-0.48151705
-0.35504833
-0.21140736
-0.13112642
-0.06692626
-0.0013560023
0.08104805
0.1570465
0.19333541
0.18430959
0.13003603
0.06886673
0.0403633
0.03791798
0.0432102
0.09002707
0.1982265
0.292004
0.33719632
0.34772456
0.27801746
0.11850246
-0.07621357
-0.26317084
-0.39571583
-0.42064193
-0.35033438
-0.26619154
-0.21481922
-0.17500071
-0.12224459
-0.074470446
-0.047372587
-0.030445328
-0.03839117
-0.050836645
-0.032633543
-0.024111636
-0.00891491
0.05384227
0.1047276
0.1227756
0.13388497
0.13433218
0.12885194
0.092299774
0.026550047
0.018889163
0.067930244
0.083468854
0.057971247
0.017723683
-0.03083281
-0.06490041
-0.081579834
-0.07876279
-0.04448323
-0.006940822
0.007814658
0.01329631
0.024739895
0.031326078
0.03081642
0.05009208
0.08660536
0.12695883
0.17314273
0.19514936
0.18239188
0.16307022
0.13583736
0.080766656
-0.011947174
-0.1246594
-0.21031778
-0.24552675
-0.242438
-0.20542833
-0.13938452
-0.082785055
-0.06357426
-0.064923465
-0.0754973
-0.105376825
-0.14553383
-0.16922109
-0.17792988
-0.17827687
-0.13393846
-0.03486419
0.06737056
0.14692812
0.21538666
0.2568098
0.2561616
0.24705803
0.23952436
0.20576848
0.15848145
0.11155093
0.059443463
0.022355385
0.012954491
0.017952608
0.0094679445
-0.02237468
-0.053810045
-0.08017176
-0.096759446
-0.08700661
-0.06518931
-0.0478381
-0.041616503
-0.04322473
-0.038697716
-0.037312344
-0.042114947
-0.035410445
-0.018931963
-0.0043387506
0.0066654063
0.016046114
0.019089336
0.01407791
0.012480114
0.016564934
0.019174
0.021187859
0.021615675
0.014928207
0.0038360632
-0.005608076
-0.016564501
-0.032382168
-0.043454733
-0.039191004
-0.027141115
-0.01572048
-0.001805432
0.006925598
0.01210727
0.025324233
0.037563037
0.045002107
0.04161691
0.02055256
0.0015152742
-0.0037841036
0.005644968
0.012101632
-0.0071890536
-0.026216127
-0.03840317
-0.058857862
-0.062990606
-0.05392266
-0.049178287
-0.035262063
-0.017904501
-0.012254951
-0.010088871
0.0026960806
0.021264577
0.03419975
0.045285575
0.05482431
0.058890622
0.056804623
0.042467188
0.01956014
0.009933297
0.026156453
0.04510868
0.044219427
0.034489144
0.030259429
0.033204522
0.028520877
0.007287277
-0.011523979
-0.023850897
-0.03612916
-0.03867406
-0.032795038
-0.026765479
-0.018783174
-0.011490978
-0.02078599
-0.04923405
-0.07453063
-0.08504356
-0.08360553
-0.07371458
-0.059730384
-0.042590532
-0.030790973
-0.02792782
-0.02370135
-0.017475542
-0.011126158
-0.002630227
0.0063785287
0.01343601
0.017904568
0.024497721
0.02779748
0.018186292
0.010046279
0.017365571
0.032685902
0.044278834
0.045828328
0.045096707
0.05113688
0.05702589
0.057708707
0.051284626
0.033615895
0.011086056
-0.009321035
-0.022019032
-0.017760497
-0.0020697396
0.009907836
0.011910263
0.0033072364
-0.015270321
-0.034399536
-0.0373152
-0.027258707
-0.0253061
-0.032305665
-0.03317194
-0.027062548
-0.025181832
-0.027209992
-0.021717833
-0.012763214
-0.012724352
-0.016235253
-0.013517555
-0.007158423
-5.501174E-4
0.0071657677
0.013832851
0.018375324
0.023019964
0.027423367
0.02914437
0.02675652
0.024616094
0.025810553
0.024768982
0.021099951
0.019623017
0.020407008
0.021085432
0.018902997
0.014088005
0.009446711
0.006514974
0.003296767
-0.0014946563
-0.0052325283
-0.007302272
-0.0043758056
0.0012032612
2.9322345E-4
-0.0013735121
-0.003125232
-0.008962331
-0.008887295
-0.0064832
-0.006894817
-0.0041468376
-0.00390271
-0.006536184
-0.0041677104
0.0014534199
0.005840979
0.008090946
0.0076581347
0.0031594548
-0.0013652578
-0.0040547433
-0.00811148
-0.0075530596
-7.3404465E-4
0.0036872572
0.0053075557
0.007019827
0.0052137943
-6.23613E-4
-0.0023271455
0.0021918255
0.0051370435
0.004848978
0.0057234657
0.0066588004
0.0030613441
-9.861258E-4
-0.0017974267
-0.0043743
-0.005653205
-0.0038193339
-0.004090238
-0.0025330582
0.003674223
0.010862666
0.013197082
0.0072001526
-8.1827707E-4
-0.0054771444
-0.0051081204
-0.0014623468
3.676811E-5
0.0014025003
0.0029992866
-0.0016652573
-0.010495365
-0.012203994
-0.006220238
-0.0036479575
-0.002140223
0.0018435623
0.0010478245
-0.0024244618
-0.006217887
-0.008888858
-0.006825805
-0.0050505083
-0.002904954
0.0015242103
0.004093263
0.0036606444
2.183741E-4
0.001735552
0.00886754
0.0068285363
-0.004807767
-0.013204224
-0.0109949075
-0.005413566
-0.005974827
-0.0041044415
0.0013863662
1.3059317E-4
-0.0010695009
0.0034449867
0.005842136
0.005044975
0.0061140344
0.007966286
0.005992085
7.464905E-4
-0.003894803
-0.005551619
-0.0049551595
-0.003600407
4.3934397E-4
0.0045162127
0.0043101176
0.004821039
0.0068931347
0.006500945
0.006554605
0.0062742895
0.0023872242
-4.5871953E-4
-7.0524536E-4
-0.004018074
-0.009669267
-0.011359912
-0.010234206
-0.010204007
-0.009373465
-0.0067778165
-0.00370498
-0.0011680366
-1.4470622E-4
0.0020284813
0.0052152616
0.006785749
0.009097457
0.009144022
0.0038186358
-9.6319837E-4
-0.0031181474
-0.0033918687
-0.004596256
-0.008337077
-0.0074036303
-0.003629874
-0.0014802164
0.0034390462
0.0071727457
0.0074609173
0.005787218
-3.6482123E-4
-0.0051788385
-0.0055745873
-0.0045084734
-0.0036460275
-0.0052959034
-0.005467135
-0.003999095
-0.002825766
0.0014929605
0.0044577993
0.005005213
0.006098616
0.005813772
0.0061103543
0.007122438
0.010080466
0.01220318
0.0059238286
0.0012083303
0.002987348
-8.4141345E-4
-0.009305281
-0.010862228
-0.0054619852
-0.004541929
-0.0050976234
4.5692283E-4
1.1976588E-4
-0.005477785
-0.0071430746
-0.010358923
-0.012637418
-0.011106577
-0.008528939
-0.0032882413
0.0015265034
0.0044958587
0.0054933303
0.0034415189
0.002268533
9.427748E-4
-0.0020742198
-0.0011389855
0.0053547816
0.011115144
0.013297815
0.015358086
0.014301563
0.008510966
0.0049848845
0.0037234921
0.0021472562
-2.6539376E-4
-0.0051583895
-0.008757108
-0.008977603
-0.006982249
-0.0040904568
-0.0045926813
-0.00667169
-0.006904499
-0.0064638024
-0.004329122
-0.0028702084
-0.0034776733
-0.0016527913
2.0387508E-4
-0.0014522914
-0.002833802
-0.0026668126
-0.0032110887
-0.0038494307
-0.0022527585
2.3204128E-4
5.90382E-5
-6.309722E-4
0.0012768178
0.0032321785
0.004908257
0.008014617
0.010039942
0.01039129
0.011547594
0.010480267
0.0035474703
-0.0026966238
-0.0027851602
-0.0028039413
-0.0050288755
-0.0038730486
-3.28295E-7
0.0020904585
0.0024751737
0.002285083
0.0012537944
-5.2181206E-4
-0.0018960005
-0.0013083355
-4.6361593E-4
-0.0018724874
-0.0031781353
-0.0030471422
-0.0025225733
-0.0016661382
-0.0018440066
-0.0010580006
0.0017454273
0.0028858816
0.00464077
0.007586897
0.007007989
0.0028895228
-0.003194103
-0.0067335144
-0.005834864
-0.005573012
-0.0056564
-0.006413563
-0.009765173
-0.008274529
-5.710682E-4
0.0014520296
-0.00512707
-0.010240751
-0.010022
-0.0064920923
-7.1815937E-4
0.0016134642
-1.3781244E-4
-9.876294E-5
0.0017620539
0.006855008
0.016790777
0.026672123
0.031176327
0.025129639
0.012259678
0.004864567
2.6950008E-6
-0.009752014
-0.011481657
-0.0010809908
0.002737156
-0.0010404349
6.186222E-4
0.0024945543
-0.0035791225
-0.009668353
-0.008415014
-0.009093977
-0.014368656
-0.013173544
-0.008948322
-0.004112453
0.0032034663
0.0013123972
-0.005309897
-0.0063700695
-0.006068229
-0.0032985955
-3.0158652E-4
0.0049058287
0.014896274
0.012850696
0.0015148337
-0.0021717339
-0.0031556783
-0.003490247
0.0023957696
0.009157436
0.0083958935
0.0027722062
0.0010163696
0.0011265172
-3.7506848E-4
-2.8195005E-4
-0.0016403608
-0.0076020765
-0.011317384
-0.00581406
0.004347932
0.009210766
0.008149087
0.00889328
0.014008378
0.015010957
0.008048599
4.3011598E-5
-0.0065163
-0.010694989
-0.012855817
-0.016581325
-0.01753402
-0.015018366
-0.012978272
-0.009252235
-0.0046603438
4.8345965E-4
0.0046065734
0.0035715455
0.0019273167
1.7193516E-4
-0.0041882736
-0.0058041424
-0.0045188037
-0.0036696885
-0.0029506693
-0.0015043298
7.235955E-4
0.002506255
0.0047168727
0.0069465586
0.0077728517
0.008637969
0.007809387
0.0044498905
0.0020873111
0.0023976578
0.0044389623
0.005638586
0.0050162706
0.0022752155
-7.770372E-4
0.0010287955
0.0025681907
-0.0018130302
-0.0028363606
0.0021311205
0.00518456
0.0053402926
0.004278118
0.0017586397
-0.0018837794
-0.0048327735
-0.004003712
-7.0820056E-4
0.0020299521
0.0052458947
0.007401447
0.0036791544
-0.006074441
-0.016053
-0.020727405
-0.020058362
-0.015454899
-0.011941103
-0.015289717
-0.014275437
-0.0016911549
0.005928905
0.005907671
0.010316622
0.01375722
0.008944252
-4.5782755E-4
-0.007599339
-0.006403316
-0.0018379892
-2.0551764E-4
0.0031757783
0.008728074
0.011158754
0.013405669
0.01898277
0.020034337
0.014250989
0.0114307795
0.009910682
0.005515184
0.0040930896
0.0017545912
-0.0034098404
-0.003460917
-0.0030478463
-0.006575022
-0.0068035712
-0.003669498
-0.0029905962
-0.0028972016
1.079597E-4
0.001978017
0.0022399053
0.0029758548
-0.0024418964
-0.009737371
-0.009384986
-0.010088055
-0.01263873
-0.008625545
-0.0039404756
-4.7878025E-4
0.004911795
0.006868781
0.003031495
-0.0026467259
-0.004345919
-0.001535745
-7.33782E-4
-0.0022850633
-0.0024512615
-8.267981E-4
0.0024038206
0.003832363
0.0014659867
0.0013618101
0.004925893
0.0054653194
0.005103131
0.0075934306
0.006021124
0.0025183016
0.004039972
0.003777856
0.0015021224
0.003560906
0.0038910888
0.0012872476
0.0035262704
0.008108554
0.0068351105
-7.430173E-4
-0.0072229533
-0.00582839
1.6223326E-4
0.0021645222
0.0010550084
0.0012268302
-1.5301022E-4
-0.0024142787
-0.0034467
-0.0057781735
-0.006001223
-0.0034883346
-0.003660684
-0.0046880078
-0.005101043
-0.0038929845
0.0010638072
0.0038258934
0.0040211026
0.0067649004
0.00658163
1.7280801E-4
-0.006678859
-0.010678555
-0.011246996
-0.0069161654
-6.6386117E-4
8.7290304E-4
7.762039E-4
0.003654924
0.0045530763
0.004921602
0.0053423583
2.3544418E-4
-0.0015453099
0.0031002578
0.0015111241
-0.0027333344
-6.4244523E-4
7.189169E-4
-0.0015393795
-0.0018341218
-9.2357124E-4
-1.0957915E-7
0.0015274644
0.0031955165
0.007653737
0.010681059
0.0070678503
0.003532057
9.2502066E-4
-0.0032075886
-0.004869756
-0.006005135
-0.0078058247
-0.00869427
-0.010270313
-0.009581219
-0.004708459
2.9283197E-4
0.0023622245
0.002130594
0.0014942935
1.7533096E-4
-7.1789447E-4
0.001091097
0.003236636
0.0014657587
-0.0027981817
-0.004144586
-0.0028513502
-0.001259265
-7.217833E-4
-2.3343845E-4
0.0063143927
0.00985486
0.001651439
-4.656113E-4
0.0054265247
2.4805154E-4
-0.011950393
-0.012785029
-5.5996312E-5
0.0098922625
0.008571517
0.0046951966
0.002682226
2.7191083E-4
-0.0027310278
-0.004189549
-0.0036918768
-0.0025644596
3.2245863E-4
0.0032352922
0.006803478
0.01262672
0.014635236
0.0133683225
0.010053024
0.003226273
-3.618493E-4
-0.0033020545
-0.009600437
-0.0112889
-0.008244334
-0.0051991423
-0.0034448616
-0.0030352755
-0.0018170812
-0.0018532854
-0.003915221
-0.002907447
-4.3275172E-4
-0.0021421984
-0.0046093655
-0.0026968638
-3.0613132E-4
-1.370751E-4
0.0019095876
0.0056541534
0.0063303616
0.005268631
0.0051980517
0.0035315014
0.002112842
0.002566623
9.6568355E-4
-7.1827427E-4
-0.0012288634
-0.002066692
-0.0024714519
-0.0035205195
-0.0023746935
-1.4106621E-4
-0.0010107665
-0.001613198
-0.0022552093
-0.0017038977
5.614583E-4
0.0010186844
0.0028926209
0.0014744698
-0.0035910048
-0.0028079955
-8.8101026E-4
6.199884E-4
0.0037949255
0.0069300574
0.012445343
0.012879721
0.0065907175
0.002922562
4.469582E-4
-0.0012368452
-7.3731627E-4
-0.0037372776
-0.010741779
-0.013617067
-0.011465572
-0.00995078
-0.005089318
4.891008E-4
-1.027846E-4
8.127551E-4
0.0031822554
0.0030115393
0.0043418794
0.005636984
0.0047984477
0.0034718558
0.0052134744
0.0062165344
4.918428E-4
-0.0024213537
7.4417563E-4
0.0024159052
8.83628E-4
-0.0030621442
-0.0052706795
-0.0055321474
-0.004564871
-0.0017138992
-0.0027906597
-0.0058230334
-0.0071166344
-0.0073889364
-0.004744287
-0.0027706288
-0.0019197885
2.4691503E-4
0.0017645268
0.0011801745
-7.295703E-4
0.0013919504
0.0026059954
9.3686767E-4
0.009807527
0.02193142
0.025666872
0.025173038
0.01878626
0.008744645
0.001902164
-7.186782E-4
-0.0044161775
-0.012500631
-0.015769217
-0.013337724
-0.010460738
-0.007446528
-0.008515302
-0.009230372
-0.008143431
-0.010464101
-0.01094482
-0.009553741
-0.007469762
-0.003817503
-0.002162079
3.4965714E-4
0.0028917897
0.0032467877
0.0048266896
0.006733538
0.0074934145
0.0066303015
0.0074527934
0.009798568
0.0070783715
0.004264164
0.005596695
0.006504332
0.005649638
0.0037203745
0.0020497146
-0.0021823058
-0.0072815223
-0.0068095387
-0.0045506866