-1.7782263E-4
-0.001891416
-8.436683E-4
9.76338E-4
-6.933379E-4
-0.001416001
-8.752755E-4
-4.6648388E-4
1.0388878E-4
-0.00246392
-0.0038505052
-0.0015934096
2.0950063E-4
0.0012687143
1.413854E-4
-4.2702386E-4
0.001118516
-1.1902017E-4
-8.552001E-4
0.0011410282
0.0015808699
5.1470246E-4
1.0207328E-4
0.001315878
0.00276435
0.0026482912
9.5363095E-4
-0.0013604094
-0.0023110965
-0.0017505671
-2.1497942E-4
0.0013079875
0.0016025411
0.0018850595
0.001445735
-2.2878787E-4
-9.373236E-4
-5.006682E-4
-2.60827E-4
-6.171617E-4
3.689946E-4
0.001708251
3.1273055E-4
-6.2876096E-4
4.3902593E-4
8.834577E-5
-0.0016824963
-0.0024199805
-0.0017650649
-0.0016467369
-5.250117E-4
0.0017453233
1.6705379E-4
-0.0010454662
0.0014273872
7.026336E-4
-7.484272E-4
2.730748E-5
-0.0012115798
-0.0010347932
8.692464E-4
6.2493264E-4
8.842414E-4
0.0010376094
4.1646243E-4
8.921877E-4
6.652344E-4
3.0706584E-4
2.3742808E-5
-7.1788585E-4
-4.2924107E-4
-7.0904184E-4
-8.702133E-5
0.0023153918
0.0024960812
0.0013063927
4.2755077E-5
3.6572135E-5
0.001183548
-0.0017303397
-0.0037506518
-4.4077088E-4
7.705206E-4
0.0010846817
0.0029995437
0.0016556408
-5.3012226E-4
-6.001723E-4
-8.330452E-4
-7.1252906E-4
7.334691E-4
9.1826625E-4
-9.0407726E-4
-9.330457E-4
-2.1497878E-4
-0.0015404515
-0.0017296516
-0.0019567457
-0.0036504793
-0.002825284
-3.583699E-4
5.998885E-4
-7.1600656E-4
-8.474104E-4
0.0020774633
0.0019045345
-5.840202E-4
-0.0013339703
-0.002282671
-0.0014484805
0.0010209341
0.0029781847
0.0044546546
0.0037962857
0.0027005835
0.0014860213
3.4966556E-4
0.0013701346
0.0017590955
9.97752E-4
-3.5616648E-4
-5.4475386E-4
0.0021544395
0.0021405404
4.1557715E-4
6.377807E-4
4.7715395E-4
-3.2041696E-4
-5.7181483E-4
0.001506049
-0.002733142
-0.013278449
-0.009901359
-1.6778797E-5
0.0015424457
0.00285441
0.001515882
-0.002045964
-0.0011427522
-3.672396E-4
3.313055E-4
0.0013373443
0.0019296515
0.0031250985
0.0021972284
-2.5949224E-5
-0.00198038
-0.0015417673
6.975475E-4
-1.7242062E-4
-2.7783863E-5
0.002336405
0.00216295
0.0018325195
0.0020158726
0.001115245
-4.7726947E-4
-0.0016128861
-0.0015083568
-0.0020137911
-0.0012145648
0.0011087679
9.139982E-4
8.230273E-4
0.0013090769
-4.4127245E-4
-0.0012107315
-6.0945057E-4
-9.2340435E-4
-3.684961E-4
8.4185594E-4
7.816177E-4
0.0012347335
0.0025433206
0.0021711858
0.0013083256
0.0017068326
0.0013970853
-4.5266558E-4
-0.0013278369
-7.1949576E-4
-0.0013252583
-0.0010404494
8.1099605E-4
-0.0015415545
-0.0044118683
-0.0028618216
-0.0016569467
-0.0010946123
-0.0012446116
-0.0031266562
-0.0023521828
-1.783472E-4
4.0352574E-5
-7.644329E-4
-0.0013062067
2.5614287E-4
0.0020495218
0.0021168867
0.0018407976
9.889195E-4
4.7906046E-4
9.995005E-4
0.002670399
0.00487815
0.0042027086
0.0040340223
0.00657332
0.0062066596
0.0048418795
0.003492594
-6.222213E-4
-0.0028273913
-0.0039574057
-0.0064453445
-0.005698432
-0.0040973816
-0.004122632
-0.0026807867
-9.890464E-4
-6.496712E-4
-0.001117522
-5.635792E-4
6.4450176E-4
-0.0011512678
-0.002402664
-0.0011542769
-0.0021795637
-0.0018560603
0.0016821325
0.0024213304
0.0011643419
7.198708E-4
6.323613E-4
0.002070487
0.0040225256
0.0030141808
7.13085E-4
9.36158E-4
9.097225E-4
-9.299479E-4
-8.204661E-4
1.8578827E-4
4.4470647E-4
0.0011338555
6.8729935E-4
-2.957805E-4
-4.1726738E-4
-0.0012879388
-0.0015815625
-6.933029E-5
9.244529E-4
0.0015328999
0.0021405735
0.001058912
-3.079388E-4
-4.7122722E-4
-5.076869E-4
-6.086759E-4
-8.7726675E-4
-0.0010041675
-0.0011764168
-0.001562126
-5.3280324E-4
-8.839661E-4
-0.003046952
-0.0016582694
-4.3082377E-4
-0.002001061
-0.0012037785
-5.808513E-4
-0.0015546181
-1.224205E-4
0.0023989358
0.0042500854
0.0042921347
0.002434368
0.0018071408
0.001374363
-3.4943904E-4
1.2211213E-4
0.0030786728
0.004012629
0.002186578
0.0011211198
4.4449355E-4
-0.0010899088
-8.66472E-4
-9.26963E-4
-0.0027647666
-0.0024828177
-0.0020387329
-0.00252823
-0.0012569056
-0.0010418199
-0.0018364175
-0.0013383386
-0.0021760445
-0.0031443064
-2.7614858E-4
0.0022997009
-5.960168E-5
-7.444069E-4
0.0021625825
0.0013658358
-1.6098169E-5
7.6564524E-4
-1.05576946E-4
-6.96648E-4
-0.0011362826
-6.47848E-4
0.0014747375
3.5845995E-4
-3.1904056E-4
0.0017837033
0.0017210775
0.0014751076
0.001628133
-1.3416886E-4
-4.454198E-4
0.0021471274
0.0030621872
0.0017072385
0.0021230304
0.0021411853
4.602991E-4
1.9833814E-4
-9.705248E-5
-0.0013343834
-0.0030298855
-0.0031777506
7.976299E-5
0.002231992
0.0026323947
0.0022152415
-0.0010206416
-0.0032923124
-0.0019235577
-0.002144285
-0.009480322
-0.013478333
-0.0041420683
0.0029496073
0.0028766852
0.005145545
0.0043438775
0.001991531
0.0022014778
2.3724859E-4
-5.119569E-4
0.0011872068
0.0021996547
0.0026315532
0.0020773367
0.0014092033
0.0010799029
7.9718546E-4
-1.7346947E-4
-0.0013552064
-5.019514E-4
0.00135152
0.0022117966
2.7014368E-4
-0.0018898102
-0.0012071414
-0.0020697557
-0.0029240276
-0.0023265812
-0.0034196088
-0.0016695174
7.921609E-4
-4.728773E-4
-0.0010284128
-2.138793E-4
0.0012117055
0.0015635638
-2.314243E-4
-0.0010343728
-9.973013E-4
4.7548942E-4
0.0032793374
0.004266367
0.0035670511
0.002091161
0.0014326206
0.0017562964
9.878543E-4
-4.194694E-4
-7.8305445E-4
2.4189285E-4
1.7564201E-4
-2.5439422E-4
7.614394E-4
3.207091E-4
-5.5123185E-4
-0.0017926706
-0.0034456442
-9.826719E-4
6.65167E-4
-0.0019015165
-0.0021023306
6.283016E-4
0.0019340273
9.6212476E-5
-0.0025018682
-0.0036777277
-0.0035788128
-0.0024493334
-0.0020790217
-0.0010748554
-2.2516622E-4
-0.0010571842
9.6483756E-4
0.0018703161
5.151738E-4
0.0022967246
0.0022402797
0.0013906822
0.0019554019
3.517316E-4
7.3843263E-4
0.0018210593
0.0019766244
0.0038405717
0.0034163655
0.002271599
0.0019845988
2.240038E-4
-2.5303257E-4
-6.8534835E-5
-2.1524688E-4
-1.9113066E-4
-8.211978E-4
-4.6063433E-4
1.8058819E-4
-3.2992673E-4
-0.0021747928
-0.004707741
-0.0048024133
-0.0032470876
-0.0023692816
-0.0015268535
4.6024175E-5
0.0010645196
4.6095916E-5
5.159062E-4
0.0018725825
-1.017991E-5
-9.5628505E-4
-5.9790426E-4
-0.0010266351
9.3810266E-4
0.0023954664
0.0017686025
0.0027010276
0.0033930133
0.0019845732
7.2633754E-4
9.569236E-4
7.650126E-4
-8.715936E-4
-0.0013759162
-5.097615E-4
-4.7434843E-4
-0.0010676639
-6.782674E-4
-1.2701059E-4
-0.0010939707
-0.001242736
-5.172591E-5
-3.417771E-5
-1.2867982E-4
-4.1874012E-4
-0.0016231245
-7.576227E-4
0.0013649509
2.738811E-4
-0.001799767
-6.905103E-4
-5.226698E-4
-0.0019590608
-3.2051485E-5
0.00204629
0.0021157735
0.0023124348
0.0019333289
0.0019523527
0.0011624171
-6.5002835E-4
-4.5440157E-4
-6.6454965E-4
-0.0013132449
-6.9142715E-4
-5.38346E-4
5.080236E-4
0.001670644
4.383941E-4
-0.0011512394
-4.043428E-4
0.002063048
0.003251951
0.0039289654
0.0037017793
-6.7740196E-4
-0.00484452
-0.0049842317
-0.0036095835
-0.0030007241
-0.0030299993
-0.001114101
4.3989674E-4
-4.8213184E-4
-2.532413E-4
4.0613228E-4
5.298032E-4
3.663716E-4
-5.0463824E-4
6.01095E-4
0.002319626
0.0029892665
0.0031309882
0.0012675828
9.778979E-5
4.9730646E-4
-2.0478232E-4
-7.459182E-4
-3.0675644E-4
-3.192986E-4
-0.0011046949
-9.743623E-5
0.002421648
0.0032206536
0.002791602
3.4970616E-4
-0.0023091554
-0.0018879026
-0.0022869874
-0.002997236
-0.0021663406
-0.0031425022
-0.004235209
-0.002922821
-3.9767596E-4
0.0013502208
0.0021239289
0.0028818566
0.0021448077
0.0014875457
0.0025765782
0.002986308
0.0028831295
0.0029826066
0.0032358398
0.003282848
0.0013732464
-0.0024264466
-0.0058881724
-0.0067273155
-0.005254274
-0.0026322834
-1.2069465E-4
0.0012664445
0.0032409807
0.0039162203
0.0016897244
3.568037E-4
-3.41917E-4
-0.003042261
-0.0059522977
-0.0050448044
-0.0024631447
-0.0016852912
7.327777E-4
0.0024311375
0.0014493816
0.0020854997
0.0021494303
0.0020980833
0.0028251181
0.0022780013
0.0037240114
0.0051712473
0.0036238413
0.0013254477
-4.1045423E-4
-7.4874994E-4
-0.0014525926
-0.0023732942
-0.0019852098
-0.00151822
-0.0022130425
-0.0033650736
-0.0011822662
8.406623E-4
-7.6664356E-4
-8.901965E-4
-0.001862097
-0.0039255023
-0.0028358523
-8.8646985E-4
0.001922244
0.0026265068
-4.945109E-4
-0.0010037516
0.0012798818
0.0018081423
-3.9409738E-4
-0.0011892922
5.774895E-4
2.3787678E-4
-2.8715117E-4
5.7633966E-4
6.4635E-4
0.0019597132
0.003566678
0.0033332505
0.0018493645
-4.716468E-4
-0.0022788018
-0.003951049
-0.0050277687
-0.0037086739
-0.0016800486
6.304636E-4
0.002545851
0.0023196898
0.0034141864
0.005227008
0.004046813
0.004049744
0.0047131297
6.1204156E-4
-0.0035375613
-0.002078335
-3.1621073E-4
-0.0027615754
-0.0036012407
-0.0024067697
-0.0022816812
6.102928E-4
0.0021429784
0.0030000934
0.0050310576
-0.0040064785
-0.012083544
-0.006265855
-0.0015257681
8.257108E-4
8.594686E-4
-0.0030239292
-5.2669074E-4
0.0039269254
0.00443645
0.0022048526
-8.1028393E-4
1.9973045E-4
2.045306E-5
-0.0016600026
-1.787446E-4
0.0017870308
0.0043131565
0.003988283
0.0021416203
0.0037007418
0.0030538093
-1.1527667E-4
-0.002404739
-0.0031781017
-0.0023821893
-0.0037032748
-0.006276008
-0.0064689456
-0.0031104228
9.144401E-4
0.0011318673
0.0017380631
0.004363093
0.0049846875
0.005203
0.004484609
3.1898892E-4
-0.0048701544
-0.006803861
-0.003971749
-6.0562993E-4
-3.2042403E-4
-2.5040502E-4
0.0017132811
0.002831787
0.0033140255
0.0044778488
0.0044530565
0.004854059
0.0047424296
0.0013957617
-8.452116E-4
-0.0021688084
-0.0041977656
-0.0035825642
-0.00257372
-0.002282407
-7.4985786E-4
-3.198488E-4
-6.0781726E-4
7.695609E-4
0.0017123747
-2.803006E-4
-0.0029830171
-0.0028152086
-3.835213E-4
0.0012780613
6.317601E-4
-5.137295E-4
7.991914E-4
0.002770382
0.0025573056
0.001480375
-3.6558387E-4
-0.0043274146
-0.0073308665
-0.0050367513
-0.0010326004
-0.0012439574
-8.2153344E-4
0.002516752
0.002282665
0.0023362297
0.004082176
-0.0013766832
-0.008297473
-0.008073771
-0.0052590887
-0.0027833316
-9.616083E-4
-6.311149E-5
0.0025348284
0.0076955142
0.010140326
0.0058749523
0.0021727663
0.002385288
0.0022369518
0.005252642
0.010154049
0.008848827
0.0018422593
-0.0032508504
-0.0018078584
-8.933007E-4
-7.7121943E-4
0.0066562993
0.011348603
0.0033901716
-0.010888031
-0.018873634
-0.0125680175
-0.004653796
-0.0036112235
-0.0016228288
-1.8578499E-4
7.6771376E-4
0.0037472704
0.003066538
3.0220815E-4
7.862802E-4
0.0024261584
1.3424255E-4
-0.0059480793
-0.010416605
-0.010508088
-0.0067798523
-0.003126362
-9.5854513E-4
0.0031447927
0.0060794884
0.0045661405
0.0017921715
-9.6415065E-4
-0.0022537487
9.945175E-5
0.0028610043
0.0017509756
-7.995935E-4
-6.122543E-4
0.001828213
0.0047371886
0.005508113
0.003928328
0.003950731
0.0039803856
8.8163867E-4
-0.0013353159
-4.428164E-4
8.8302535E-4
0.002317535
0.00380277
0.004344904
0.005476563
0.004577014
-0.0014808661
-0.007531217
-0.009086576
-0.0045266543
0.0022041097
0.0020951892
-0.0010048432
-2.845657E-4
4.2395026E-4
-0.001407753
-0.0045053763
-0.0048678713
-0.002170179
-2.182874E-4
0.0030360334
0.0051379176
0.0031287111
-2.961403E-4
-0.008214791
-0.015234888
-0.013509072
-0.009892592
-0.006771917
-0.0037441081
-0.002621238
-5.9102604E-4
0.0014457202
0.0059594186
0.012696215
0.01232102
0.0075775464
0.00336781
-3.3880955E-5
-4.941742E-4
-9.772624E-4
0.0012854473
0.0042482466
5.369814E-4
-0.0019572955
-0.0053990576
-0.011470366
-0.007188612
6.920681E-5
0.0027597714
0.004743256
0.0040121493
0.0030803506
-0.0026203878
-0.011660178
-0.008520235
3.3444452E-5
7.622192E-4
-0.0030526272
-0.0021408135
0.0045320448
0.0025660414
-0.007394179
-0.010021851
-0.0045895083
0.005109666
0.010506008
0.006643753
0.008005937
0.016674342
0.0199569
0.01905949
0.01374409
-6.2970514E-4
-0.01308262
-0.019411873
-0.02802533
-0.031068612
-0.023686098
-0.020094428
-0.022954093
-0.020677734
-0.011577004
-0.0023638597
0.008429413
0.019269079
0.023376161
0.025219822
0.02133046
0.009428397
0.007861048
0.016907733
0.023303522
0.02836521
0.031549823
0.024573684
0.0040213685
-0.015745107
-0.016243732
0.001156011
0.019025492
0.024602234
0.02182145
0.0126834335
0.003473795
0.0054421173
0.00797597
0.002955263
-0.008528003
-0.019509304
-0.02618073
-0.04434739
-0.06571969
-0.0835185
-0.09768255
-0.08016367
-0.050802983
-0.046360813
-0.062949926
-0.08818348
-0.09448805
-0.07977572
-0.060008284
-0.037343174
-0.02940455
-0.027389323
-0.0026102266
0.03190707
0.041223444
0.017065031
-0.03131558
-0.07581746
-0.045592986
0.043872606
0.10626904
0.15997931
0.22137672
0.2526502
0.237177
0.1731964
0.1134722
0.07532391
0.038996585
0.056380138
0.109150164
0.10962426
0.060832314
-0.019828627
-0.15757367
-0.27982363
-0.25923544
-0.13369888
-0.023394076
0.020171138
0.004564473
-0.010187633
-0.03720402
-0.09960848
-0.1084738
-0.076619394
-0.08237072
-0.11290481
-0.16868357
-0.21925184
-0.1698991
-0.038428113
0.021033037
-0.022784375
0.0091213025
0.15882377
0.24190344
0.22705929
0.27523196
0.37576732
0.33570114
0.14095609
-0.031534325
-0.12988514
-0.20517053
-0.19768639
-0.0582025
0.11118562
0.20867334
0.20917279
0.12914293
0.012587791
-0.12981619
-0.2765847
-0.36209738
-0.36302146
-0.30195224
-0.22391553
-0.16140074
-0.10344963
-0.05182822
-0.018835116
0.020859994
0.07126846
0.082852766
0.074212834
0.090005286
0.085180655
0.08420684
0.16038406
0.29376712
0.4330839
0.4710107
0.37619826
0.2705686
0.17918894
0.086987525
0.040651202
0.021855757
-0.030888066
-0.1279371
-0.18168487
-0.16054438
-0.16287996
-0.1870433
-0.17836934
-0.16650775
-0.16457741
-0.17698477
-0.19952406
-0.20180169
-0.20503321
-0.21236946
-0.17124248
-0.09124339
-0.02326912
0.016301515
0.024141394
0.002151002
-0.018886643
0.0124594
0.08006162
0.10912601
0.10745704
0.10486482
0.082519285
0.07012043
0.08550979
0.093723156
0.09675244
0.105666675
0.113211446
0.1120898
0.09993214
0.09316732
0.09816879
0.10018346
0.09009888
0.07431208
0.058530994
0.033771284
0.0077721537
-0.0058655865
-0.016959716
-0.030401709
-0.04731377
-0.06715739
-0.08215534
-0.0938619
-0.101315625
-0.10551713
-0.11179162
-0.11282109
-0.106286556
-0.09612291
-0.08162387
-0.064534545
-0.04741677
-0.0328277
-0.019645289
-0.0057454617
0.004731726
0.012076126
0.01936728
0.025247032
0.030693138
0.035203848
0.035589457
0.036379285
0.038449172
0.033962023
0.026066301
0.016122324
-3.6063575E-4
-0.0131748365
-0.017976198
-0.02008384
-0.01768679
-0.013567019
-0.00957251
-0.0047992575
-0.0027662886
-0.0013261508
3.1566215E-4
0.0014188446
0.0040406166
0.0035903342
0.002583373
0.00668065
0.007782959
0.005142601
0.004760346
0.0046919985
0.005116235
0.006254521
0.006479525
0.005273745
0.004448608
0.008148528
0.011435994
0.010550047
0.010955753
0.011673442
0.0112775285
0.01152556
0.010154471
0.0072775907
0.0050558783
0.0045632273
0.0050337366
0.0038055868
0.0014339545
-5.3492555E-4
-0.0020681324
-0.0019856442
-1.9502451E-5
0.0017187027
0.0017828902
0.0015972875
0.0019227295
5.493239E-4
-0.0018775981
-0.0032305971
-0.0049765585
-0.00648885
-0.0072921677
-0.009423852
-0.009615547
-0.0078037763
-0.008120389
-0.008031935
-0.0065351417
-0.00509072
-0.004265134
-0.0042160265
-0.001686192
0.0026786965
0.0064771897
0.008204434
0.008028891
0.009854594
0.008779496
0.0052110543
0.006821352
0.009152769
0.010738548
0.0098007815
0.0074187415
0.007897208
2.6746007E-4
-0.004574772
0.0054467884
0.009498781
0.00575759
-2.7919217E-4
-0.0056898817
0.0018687991
0.00795128
0.0039942856
0.0027958062
0.00208791
0.001305965
0.0023104579
0.002057952
0.0018529134
0.0027557528
0.00498595
0.005327808
0.0047165956
0.0061902315
0.0058873063
0.005520293
0.005463736
0.0028794338
0.002062049
0.003608592
0.0042389263
0.0029730268
0.0023290908
0.004067877
0.003510756
0.0013166071
9.263877E-4
4.179936E-5
-2.3475378E-4
8.5627666E-4
4.4168433E-4
-9.7219413E-4
-0.0010867548
2.9096456E-4
0.0010440872
5.717982E-4
-5.9592316E-5
-8.338673E-4
-4.2554823E-4
9.802583E-4
0.001331248
0.002114789
0.0031904108
0.0021136992
9.180777E-5
-0.0015182083
-0.0020092602
-0.0012543387
-0.0013321195
-0.0016766611
-7.620258E-4
0.00151839
0.0040033413
0.0030999756
8.1565074E-4
8.3414675E-4
6.0301524E-4
0.0015357579
0.0048035407
0.0052834894
0.0039444873
0.00407432
0.0026262568
4.29889E-4
5.1473617E-4
-0.001051191
-0.0032678025
-0.0017235292
-5.507682E-4
-4.7918072E-4
7.196929E-4
3.7392744E-4
-1.4357558E-4
-1.299872E-4
-0.0014532382
-0.0022254686
-0.0027461336
-0.0031784666
-0.0028884518
-0.003384709
-0.0028451397
-0.0015900858
-0.0016760306
-4.3053032E-4
0.0016698972
0.001782914
0.0010271685
0.0015084908
0.0021834837
0.0014449207
0.0019314064
0.002918146
0.0024842494
0.0027751545
5.912726E-4
-0.0012474979
0.0018417725
4.695575E-4
-0.0029156567
-0.0013417365
-0.0021701506
-0.0024266148
9.79569E-4
7.8382826E-4
-6.7590317E-4
-2.6045772E-4
-1.8355505E-4
-4.4164262E-4
-4.4416595E-4
2.889509E-4
9.593804E-4
7.756681E-4
-3.082065E-4
-8.829223E-4
9.1853966E-5
2.757035E-4
-9.6603326E-5
-0.0015287229
-0.0029682152
-1.4104473E-4
9.976408E-4
-3.991126E-4
0.0011660536
0.0011383162
5.967922E-4
-0.0011830279
-0.006432737
-0.005822579
-0.0038704847
-0.0054642446
-0.002417613
0.0012808006
0.0020290632
0.0019241525
0.0011835732
0.0018629923
5.3445826E-4
-0.002183211
-0.0016470734
0.0010829864
0.0043668197
0.004568397
0.0035565945
0.0040764106
0.0030311183
0.0024691678
8.510697E-4
-9.405542E-4
2.5924225E-4
-0.002474811
-0.00448485
-0.0012753482
-2.111715E-4
-4.9127964E-4
-0.0013552854
-0.0018565928
-0.0010113999
-0.0013953474
-6.978835E-4
-4.686841E-4
-4.4043417E-4
0.0014793228
0.0013281335
0.0010364954
0.0016267035
0.0013953767
-1.6130731E-4
-0.003067628
-0.0026086166
-0.0010809279
-9.1817265E-4
9.3346796E-5
-9.08913E-4
-0.0019672245
-0.0024315065
-0.003175497
-0.0015232259
-8.4041967E-4
-0.001001676
3.8836614E-4
0.0014056887
0.0020262212
0.003268229
0.0048155054
0.0038058634
0.0018763045
0.0013283178
7.47934E-4
0.0014090568
0.0014081433
6.709663E-4
-1.3485475E-4
-1.4103782E-5
0.0038967463
0.0037963307
0.0020154219
0.0024371569
5.215974E-4
0.0024758622
-0.0041866573
-0.014276549
-0.0043813
-0.002545878
-0.012182452
-0.008481213
-0.005364977
-0.0017872688
0.004272888
0.002683187
0.0022008752
0.0018602526
0.0015225817
0.003664869
0.002899711
0.0032697734
0.0028427409
-2.1003973E-5
-4.137098E-4
8.9079906E-5
0.0011826776
0.0014034167
0.0014567287
0.0031792328
0.0028502548
0.0013079449
1.2015889E-4
-8.6301257E-4
-7.7735947E-4
-7.428783E-4
-0.001194309
-0.0019707289
-0.001707933
2.0888583E-4
0.0020878238
0.0023287046
3.1997406E-4
-0.0013929957
-0.0016534979
-9.6655224E-4
-3.7004866E-4
-0.0012719259
-3.0927546E-4
0.0011091797
3.77194E-4
0.0012674475
0.001097232
-0.0012140754
-0.0024282378
-0.003059511
-0.0017857108
-0.0012373751
-0.0028327152
-0.0021758121
-0.001958137
-0.0032956232
-0.001812043
-1.8232677E-4
-0.0015502329
-0.0010225031
0.0024298665
0.0022481673
4.1176737E-4
0.0022902593
0.0031746272
0.0012135891
7.5087626E-4
4.703681E-4
-0.0013476276
-0.0010216585
0.0011229006
9.974149E-4
2.644948E-4
0.0010357674
0.0014764249
0.0013230541
6.486606E-4
-2.5682047E-4
-8.5893966E-4
-8.85625E-4
6.9776323E-4
0.0018554691
0.0016734287
0.0010377516
-4.4891104E-4
-2.9388236E-4
5.7083846E-5
-0.0011532082
-2.400327E-4
7.6678523E-4
5.7733234E-4
7.5789914E-4
-1.7386753E-4
-6.162221E-4
-0.0012484841
-0.0032630416
-0.0036140974
-0.0030325246
-0.0022480388
-8.729088E-4
-8.6736836E-4
-0.0015512805
-9.201224E-4
5.085662E-5
-2.2623921E-4
-9.374682E-4
-0.0013430521
-0.0011126215
-1.2182661E-4
-2.736369E-4
-2.1694186E-4
8.833805E-4
3.641294E-4
8.0138916E-4
0.002458397
0.0020699669
0.0011398979
-4.5921849E-4
-0.0014404238
7.281639E-4
0.0025297706
0.0030943404
0.0036332482
0.0027747764
0.0023072725
0.003059585
0.0018807488
-0.0016811608
-0.0041592116
-0.0028883961
-6.863189E-4
-0.0012899534
-0.0021036027
-0.0012292335
-7.0025295E-4
1.0118361E-4
9.2691404E-4
2.7504924E-4
-6.0483365E-4
-0.0013117515
-9.988109E-4
-1.5064242E-4
-0.0015308296
-0.0020447348
-4.5089776E-4
-0.001088881
-0.002113807
-0.0011142038
-5.965072E-4
-6.499414E-4
-4.826835E-5
5.650358E-4
6.419397E-4
3.5979226E-4
-1.4962046E-4
1.07552725E-4
8.2462205E-4
-4.660918E-4
-0.0018317641
-9.1684976E-4
2.7288872E-4
0.0013858726
0.0020242985
0.0018962323
0.0017732057
0.0014666093
0.0024864632
0.0022895124
-7.5406313E-4
-0.0012693049
-1.3019165E-4
5.7969656E-4
0.0010220946
-0.0014338531
-0.0022124029
3.5623836E-4
-1.2478002E-5
-0.0018473706
-0.0018089658
-5.9860985E-4
9.178088E-4
0.0014251966
6.666623E-4
-8.87102E-4
-0.001086331
5.3904287E-4
8.265065E-4
1.4367032E-4
-3.1270512E-4
-0.0011694466
-0.0015434056
-0.0015422147
-8.928696E-4
5.637397E-4
9.985415E-4
0.0010879829
2.8971443E-4
-0.003258658
-0.004722701
-0.0014976899
4.3850206E-4
-2.8021005E-4
-6.126571E-4
-0.0011139723
-6.299299E-4
0.0012595966
0.0010700804
-3.9133255E-4
-3.5770054E-4
7.69805E-4
0.0023262738
0.003147428
0.0031228974
0.003352334
0.0026354024
0.0014675983
0.001203233
-3.0393468E-4
-0.0015276516
-4.912808E-4
-9.2642446E-4
-8.732488E-4
0.0020013454
0.002298059
7.412021E-4
1.528657E-4
-0.0016920149
-0.0032756452
-0.003511868
-0.0036440939
-0.002154211
1.4922739E-4
2.8165698E-4
-4.1906693E-4
1.4565354E-4
3.3802097E-4
-5.704268E-4
-0.0018458595
-0.0026732057
-0.001121092
0.001226398
0.0012766107
4.902756E-4
0.0011032677
0.0017311444
8.680807E-4
2.4885687E-4
-8.1141904E-4
-0.0020645135
3.385229E-4
0.0020224026
5.731127E-4
0.0012001927
0.0022437251
0.0024937042
0.002451066
3.127188E-4
-0.0010496982
-8.551495E-4
-0.0011653139
-0.00140399
-1.2883428E-4
0.0019678518
0.0012699662
-7.2395883E-4
-0.001300289
-0.0024141704
-0.0024924595
-0.001810401
-0.0030408918
-0.0029193496
4.138327E-5
0.0016837389
2.8679348E-4
2.6580718E-4
0.0020939282
8.275135E-4
-6.7398197E-4
-1.6515187E-4
-0.0011470518
-0.0013387079
2.7705077E-4
0.0018049508
0.003249101
0.0027168707
0.0011846116
5.568157E-4
4.913741E-4
5.807745E-4
-0.0012745645
-0.0025237612
-0.0012913473
-5.969104E-4
9.783731E-4
0.001760749
-1.2880152E-4
-7.854899E-4
-9.1026665E-4
-0.0012350068
-0.0013120637
-0.0018400049
-0.0016738184
-5.462693E-4
0.001024884
3.2084473E-4
5.6367833E-5
0.0011478874
-0.0023346478
-0.0012890701
0.0036644328
0.0018545123
0.0015734262
-0.0015236697
-0.008731725
-0.005610617
0.002268212
0.0066698072
0.0010583957
-0.008591936
-0.002885102
0.004874951
0.0038975012
0.0050079795
0.004880364
0.002923089
8.39701E-4
-0.001724011
-0.0012847586
-0.001199175
-6.7279546E-4
0.0011188207
1.7247349E-4
-6.5687095E-4
6.0368906E-4
0.001519069
4.3919857E-4
-9.3187985E-4
-0.001761414
-0.002493718
-0.0019058962
-0.0025100815
-0.0021987467
7.3129433E-4
8.684658E-4
4.0715316E-4
1.05327344E-4
-6.5692374E-4
4.0992003E-4
-7.992581E-4
-0.002021475
-7.0088916E-4
-3.7258246E-4
5.824944E-4
0.0012798015
0.0012418284
0.00169612
8.132216E-4
-4.3560658E-4
-0.0015688922
-0.0012011855
5.5923994E-4
3.811248E-5
-6.547883E-5
0.0010981044
7.778036E-4
6.950269E-4
8.8653766E-4
0.0012625676
0.0010847345
-0.0012485192
-0.0016399858
-8.5947994E-4
-0.0013328786
9.425075E-4
0.0018233001
-3.7883045E-4
4.2637475E-4
4.151962E-4
-7.2311633E-4
1.5479492E-4
-5.398375E-4
-7.249374E-4
2.570466E-4
8.165135E-4
0.0012524583
-8.881355E-5
3.3911184E-4
9.281578E-4
-0.0016394547
-0.0017053587
-7.811206E-5
0.0012374169
0.0021113039
8.34759E-4
8.6648617E-4
0.0012237758
1.823012E-4
-4.1364765E-4
-0.0018425235
-0.0026586263
-0.0021536935
-9.593643E-4
9.3651103E-4
0.001354449
0.00101211
4.3704524E-5
-7.210003E-4
1.5605341E-4
-8.671621E-4
-0.002633456
-0.0030849127
-0.0032116054
-0.0011024742
9.776602E-4
9.4931334E-4
0.0012827787
0.0026186525
0.0035853037
0.0019919968
2.985816E-4
0.0011114391
0.0012030049
7.3839654E-4
0.0012681788
0.0011062382
9.490313E-5
-5.0010515E-4
-2.0993472E-4
-1.9185994E-4
-9.6241804E-4
-0.002307557
-0.0034703126
-0.0020317314
2.2307354E-4
6.927989E-4
8.9645473E-4
2.7307757E-4
-7.300333E-4
-0.0017979495
-0.004070419
-0.0027125534
0.0011514769
8.2285336E-4
1.8998484E-4
0.0016075781
0.0017723318
0.0018653213
0.0014676637
2.4630307E-4
6.918512E-4
0.0012326392
9.388132E-4
0.0017616132
0.0020751858
7.10201E-4
2.2013608E-4
1.4516135E-4
-8.307899E-4
-0.001025697
-9.630997E-4
-0.0016087347
-0.0026945719
-0.00352493
-0.0013043679
0.0012633349
5.2667735E-4
1.9373457E-4
-7.9837366E-4
-0.0035604176
-0.0025455458
6.2084256E-4
0.0011122172
-2.8927036E-4
-9.345502E-4
7.462921E-4
0.002173326
9.3718513E-4
-8.435311E-4
-0.0014467285
-0.0010057737
3.2366585E-4
0.0012019346
6.783435E-4
0.0010686406
0.0024665412
0.0017484662
4.3657148E-4
8.104021E-4
7.0569525E-4
-8.5497624E-4
-9.621992E-4
0.001473058
0.0022085048
5.4338604E-4
1.3148354E-4
-1.6211075E-4
-0.001059896
-0.0011397323
-0.0011600917
-8.30801E-4
-1.0757486E-4
5.5343757E-4
0.0011337334
0.0011570511
0.0011198804
1.21888625E-4
-8.4451307E-4
-3.259451E-4
-0.0014799666
-0.0023805466
-0.0020111233
-0.0035940486
-0.00222508
6.481727E-4
-2.5227384E-4
3.0541327E-4
6.5260567E-4
-0.001206403
-3.359954E-4
1.1829274E-4
9.7687494E-5
0.0014526368
-2.9691691E-5
-3.529108E-4
0.002645665
0.0021996114
-1.18104464E-4
-3.8467857E-5
-6.2867184E-4
-0.0013811432
1.7957191E-4
6.896128E-4
2.4384132E-4
0.0016331163
0.0022165698
9.997924E-4
8.195294E-4
7.9462066E-4
-0.0014449011
-0.002489465
-5.4594566E-4
-3.0328272E-4
-6.2720914E-4
0.0018216516
0.0031056118
0.0012956624
4.8160867E-4
0.001416254
-9.618402E-4
-0.0040645367
-0.00213979
-2.8333525E-4
-8.717508E-5
4.4450213E-4
-8.47627E-4
-0.0016760961
-0.0017104747
-0.001615161
-4.5701614E-4
-4.3175524E-4
-1.4038681E-4
6.261961E-4
0.0010088721
0.00248613
0.0018908456
-4.838206E-4
-3.7474142E-4
-3.4095848E-4
-0.0038984464
-0.0051056463
-2.664446E-4
0.0025158254
0.0018589437
0.0016101327
0.0025046824
0.004431647
0.0025217691
0.0013964003
0.0015353241
-0.0016103139
0.0019416829
-9.599167E-4
-0.01323067
-0.0057661086
0.005837286
0.0027872524
0.0019382249
0.0023541187
-4.0804767E-5
-0.001060583
-4.454698E-4
5.6346477E-4
-7.9933676E-4
-1.0776364E-5
0.001249583
-3.7308564E-4
-6.400526E-5
-5.509539E-4
-0.001483933
-0.0018261818
-0.0023236566
8.9567614E-4
0.0017615857
-2.8168023E-4
0.001211971
0.002113053
9.813876E-4
-2.9425207E-4
-6.2866346E-4
-3.7012526E-4
-0.0014555627
-7.820644E-4
8.7629765E-4
4.1913576E-4
-7.2987063E-4
-0.0013697025
2.7956095E-4
0.0022047209
0.0013607193
-0.0015842415
-0.0041756677
-0.0019818395
0.0012733475
9.5708424E-4
0.0017368849
0.0025318894
0.0011223233
6.821915E-4
-2.160019E-4
-0.001933391
-0.0018421126
-0.001156606
-6.904897E-4
7.9474406E-4
0.0016223987
3.1887693E-4
-1.7751068E-4
1.12149464E-4