0.016309595
0.010914497
-0.0016814314
-0.009984989
-0.011843598
-0.006992759
-0.0043743765
-0.0034702355
0.0019151567
0.011151398
0.020175088
0.014768533
-0.0010356326
-0.010230207
-0.012974518
-0.009746909
-0.0031324618
0.0015951821
0.006917739
0.014353858
0.02070568
0.016681155
0.0016865731
-0.010974776
-0.015734678
-0.015096119
-0.011282587
-0.007821168
-0.0018435996
0.010556031
0.016547754
0.011792703
0.0033766688
-0.01558221
-0.026460245
-0.014705386
-0.010748994
-0.010772216
0.002034486
0.012842141
0.020526193
0.01917444
0.0057970206
-0.0019368134
-0.002833121
-0.0021212066
-0.0027028143
-0.00329181
0.0038913772
0.012839971
0.01645228
0.012252943
-0.001609534
-0.014360045
-0.018046292
-0.017638167
-0.015280376
-0.008904999
-4.3363438E-4
0.009504696
0.018075
0.01652442
0.008017421
0.0021010952
7.074164E-4
0.0011189161
-0.0014834751
-0.002629632
0.0036928344
0.013739995
0.020136181
0.012511241
-0.0051988675
-0.017772187
-0.023518132
-0.02455652
-0.020318482
-0.014390677
-0.009676678
-0.003973048
0.004299181
0.0073058824
-0.001492393
-0.012669802
-0.013883101
-0.008209045
-0.0034363985
1.9843284E-4
0.005780614
0.018265098
0.028233936
0.022152537
0.010906661
0.005135629
0.0072566494
0.01628476
0.022218056
0.024155984
0.022764545
0.021515243
0.021210397
0.0071362555
-0.013970496
-0.031850442
-0.04444969
-0.038904905
-0.030230451
-0.030391492
-0.02037221
4.1331584E-4
0.01640349
0.015133664
0.0010749099
-0.011035651
-0.019271487
-0.020235498
-0.014295256
-0.006991994
0.0036692799
0.015383798
0.02397421
0.025702585
0.019849718
0.011304699
0.0054642693
0.005400219
0.0028604122
-3.5446032E-4
0.006675072
0.015369832
0.016772619
0.006339844
-0.0131888
-0.025919905
-0.027870357
-0.022185035
-0.014291343
-0.0070721796
0.0034496568
0.010985498
0.019029036
0.028687235
0.021575164
0.0052154157
-0.0022989516
-0.0030692923
-0.0024226012
-0.0033416154
-1.3254234E-4
0.009805423
0.017161274
0.015495915
1.3595895E-4
-0.020758227
-0.029209258
-0.026519127
-0.020999089
-0.01389121
-0.007634958
7.380223E-4
0.011215805
0.012055432
8.756341E-4
-0.010616411
-0.013662088
-0.011870026
-0.011761574
-0.008741329
0.0019471584
0.018046191
0.031933505
0.028976627
0.011977678
-6.377797E-4
-0.0053777997
-0.0059216702
-0.0039119544
2.0245562E-4
0.0074129966
0.014725564
0.021923926
0.024709482
0.013303076
-0.0046899454
-0.014623221
-0.01706551
-0.018940521
-0.020412898
-0.017333986
-0.0052652913
0.013465697
0.019635312
0.0053831115
-0.008716219
-0.013801887
-0.015777625
-0.011488612
-0.0035213188
-5.0820607E-5
0.003705924
0.011859013
0.013418894
0.003887043
-0.0060200132
-0.009321104
-0.006491149
-0.0032848082
-0.002170945
0.0043751053
0.017124645
0.026570449
0.023979807
0.009525889
-0.0068280785
-0.017301809
-0.019582484
-0.016925208
-0.015091066
-0.010901201
3.232562E-4
0.012678128
0.015936254
0.009014525
-4.833732E-6
-0.0055652116
-0.0066675423
-0.0051373304
-0.0018514211
0.0039828704
0.010283065
0.014862194
0.012167179
4.491545E-4
-0.010718929
-0.015371813
-0.0127091715
-0.00722642
-0.0030263471
0.005468966
0.013973517
0.017297383
0.019133503
0.009971277
-0.009720966
-0.01824893
-0.011785199
-0.0063580796
-0.006604134
-4.218347E-4
0.01330934
0.019225754
0.012335091
-0.0016992084
-0.016544212
-0.023051895
-0.02006748
-0.015241925
-0.010270596
-0.0013121016
0.010915449
0.019737555
0.021463893
0.015956296
0.0030905586
-0.0075091445
-0.008359242
-0.009751529
-0.014427809
-0.0114378035
0.0030898482
0.021318642
0.026709449
0.015207841
7.180681E-4
-0.008299896
-0.010942824
-0.009223438
-0.0058161956
-0.0017024745
0.0039771018
0.013404641
0.015788132
0.0037360012
-0.008255803
-0.013257615
-0.01407093
-0.011649066
-0.011290716
-0.0092549715
0.003011853
0.017451208
0.019254941
0.00916653
-0.00241673
-0.010581215
-0.012837858
-0.011561197
-0.010502631
-0.0049606916
0.006947685
0.018193528
0.019465119
0.009057819
-0.003925783
-0.01020383
-0.007972607
-0.0052138413
-0.0032021557
0.00614121
0.016996456
0.022700464
0.021733843
0.0066874544
-0.014800057
-0.02440047
-0.021900835
-0.017516555
-0.010907711
5.345263E-5
0.010631751
0.019210001
0.020141069
0.009475871
-0.003328431
-0.01179106
-0.013685164
-0.012370322
-0.012266345
-0.005649485
0.006796669
0.016157195
0.017391797
0.0059845536
-0.009454413
-0.017096275
-0.017467579
-0.014169232
-0.008797519
-6.4025517E-4
0.010213757
0.021292236
0.02546055
0.016221114
0.0015371864
-0.006764216
-0.0074801194
-0.0060744984
-0.0040955185
8.513641E-4
0.00690211
0.014405716
0.016950827
0.0031005787
-0.014417
-0.020218715
-0.01757607
-0.009127746
3.3434506E-5
0.0041562025
0.009500676
0.018740365
0.021353453
0.010483035
-0.007103474
-0.017263386
-0.01569443
-0.015684957
-0.018457754
-0.010694101
0.0051135845
0.019797232
0.021559756
0.0063979793
-0.006512726
-0.012205757
-0.017096527
-0.015347163
-0.008745194
-4.9381936E-4
0.009309198
0.016007936
0.016770396
0.010580037
0.0017793719
-0.0045404476
-0.005924654
-0.0035881079
-0.00274511
0.0023440917
0.01392391
0.022786748
0.02475332
0.014473671
-0.003335954
-0.015359199
-0.022210091
-0.02441582
-0.020292815
-0.012735131
-4.613088E-4
0.012755946
0.016747579
0.009394727
-0.0023658348
-0.011187446
-0.014214751
-0.0122515075
-0.008136939
-0.0023534116
0.008181906
0.01987533
0.021184525
0.009699618
-0.005293059
-0.0149454605
-0.015216082
-0.011479447
-0.008229737
-3.8337574E-4
0.0107974
0.020801647
0.025350565
0.01665397
0.0010877314
-0.008363227
-0.009869597
-0.008886231
-0.00956875
-0.005548765
0.006953719
0.020172955
0.023766879
0.012265088
-0.0035314749
-0.014646194
-0.023020914
-0.022689402
-0.016191293
-0.010623399
1.7746519E-4
0.012450393
0.016997732
0.010478434
-0.007647
-0.017800808
-0.010569813
-0.00934843
-0.014777457
-0.010144224
-6.5378967E-4
0.01187978
0.022193087
0.016733292
0.0047311485
-0.0026380422
-0.0043873163
4.9402446E-5
0.0028916313
0.004036375
0.01264986
0.022778869
0.020680625
0.00816821
-0.0036527237
-0.0098614115
-0.0081065195
-0.0050283195
-0.0072348486
-0.0062180143
8.171566E-5
0.0095896125
0.017128559
0.009876682
-0.005919386
-0.01783713
-0.021886772
-0.019756762
-0.018549519
-0.00998907
0.004288835
0.010207494
0.015338568
0.014574299
-0.001770905
-0.014610786
-0.013391985
-0.008996406
-0.009824395
-0.009727243
4.7693538E-4
0.015998675
0.02480584
0.01838034
0.0026845115
-0.007432924
-0.010248739
-0.011806728
-0.011834516
-0.006036309
0.005467736
0.020087063
0.032225356
0.027221283
0.0062373206
-0.009974582
-0.014169514
-0.0119086355
-0.010308767
-0.010803249
-0.004205789
0.009476019
0.017179206
0.0118199475
-0.0020185974
-0.014758993
-0.018706707
-0.014667794
-0.011092868
-0.006854407
0.00528962
0.016621506
0.017808925
0.013067137
0.0038564524
-0.0067818267
-0.009337834
-0.0066638305
-0.006991277
-0.0059072645
0.002200252
0.015113488
0.023090405
0.0153991915
-6.427537E-4
-0.010526686
-0.0126990555
-0.010518847
-0.009511822
-0.008920755
6.714801E-4
0.014367285
0.021159362
0.016951522
0.002566757
-0.008363494
-0.012170462
-0.014148779
-0.010810057
-0.015868304
-0.023168951
-0.0053071487
0.0111318575
0.003417324
-0.010503875
-0.024436142
-0.025936084
-0.013872646
-0.0055489284
0.0034526866
0.014820726
0.026573027
0.03614506
0.03096543
0.015452583
0.0018162304
-0.0021620959
9.3128554E-5
-1.6056032E-5
0.009093167
0.025430964
0.035371624
0.038537778
0.026145326
0.0030101691
-0.01532248
-0.026718719
-0.026042039
-0.016578777
-0.009074966
-0.0043753926
-7.202453E-4
-0.001173723
-0.010710898
-0.021701908
-0.025072973
-0.023046546
-0.018098718
-0.014207016
-0.010951955
-0.0038708115
0.0070732636
0.01449756
0.004280656
-0.01667464
-0.027168518
-0.02493932
-0.01750554
-0.009569341
-4.4927464E-4
0.010747929
0.021697477
0.030288672
0.029043252
0.01893189
0.011528645
0.009460686
0.0072553507
0.0019516274
0.0017642133
0.012597198
0.030678228
0.04677189
0.042295836
0.022088781
0.009451142
0.004630468
0.0037342466
0.0033281886
-0.0041901036
-0.013983784
-0.018980771
-0.017750088
-0.019971283
-0.033611167
-0.044178005
-0.042156003
-0.036657996
-0.03277277
-0.024769176
-0.010709739
0.0011386689
0.006773091
0.006296173
-2.6568302E-4
-0.007415093
-0.011130156
-0.0093043465
-6.953459E-4
0.010856932
0.022531563
0.032656495
0.036998566
0.032502916
0.0226229
0.016379409
0.014916801
0.01090038
0.0068704872
0.008730055
0.013584725
0.021141807
0.025065303
0.013527803
-0.006557745
-0.024199432
-0.035584692
-0.038695995
-0.037614904
-0.031220613
-0.019161807
-0.007614007
0.0018009718
0.0032280947
-0.006990579
-0.01798332
-0.01762951
-0.0116337575
-0.011794821
-0.009034881
0.004431732
0.023985347
0.042723827
0.043351553
0.026194422
0.0064912387
-0.009152906
-0.010695701
-0.0033047425
0.002326407
0.010596111
0.021031529
0.029116197
0.024595695
0.009011948
0.0030575811
0.0066430597
0.007496451
3.4070542E-4
-0.013220923
-0.020272871
-0.016103955
-0.009242393
-0.011038497
-0.022311324
-0.029839553
-0.028738562
-0.021996384
-0.0153936865
-0.012782177
-0.004056039
0.01054649
0.018943377
0.018734427
0.0056339204
-0.014616034
-0.022705987
-0.02391697
-0.028109875
-0.022914445
-0.011799871
-0.003016959
0.010669675
0.018234339
0.012561037
0.009178473
0.01262029
0.01597381
0.015327836
0.019098237
0.034538195
0.05143749
0.061585873
0.0608099
0.047979634
0.029684281
0.015259468
0.011149661
0.003901203
-0.010115947
-0.011094602
-0.0044968845
-0.01069649
-0.03356391
-0.0549816
-0.058044568
-0.05583544
-0.049175147
-0.031412568
-0.021985235
-0.021103488
-0.012344986
0.00243219
0.0065285848
-0.010050261
-0.027372617
-0.029486539
-0.028472865
-0.030988472
-0.025537811
-0.005113038
0.019844571
0.040643837
0.046254084
0.029149547
0.011906303
0.006796814
0.007192065
0.009589137
0.0028970924
9.481158E-4
0.019208783
0.03430377
0.038119126
0.035980977
0.022634713
0.009180588
0.013936958
0.035594784
0.045745037
0.035756998
0.037365526
0.042640112
0.020575894
-0.010115951
-0.03375713
-0.051584594
-0.052440524
-0.04828268
-0.046533383
-0.032196373
-0.020745413
-0.023772357
-0.025724212
-0.02906884
-0.032336272
-0.024580842
-0.016837202
-0.013587776
-0.0069413595
3.9903063E-4
0.006667497
0.012557522
0.01676915
0.017640756
0.014225876
0.014038138
0.017477464
0.016216436
0.016027205
0.020632619
0.021337276
0.01419015
0.0016681206
-0.012889923
-0.03142259
-0.046114005
-0.042079084
-0.031689774
-0.022917544
-0.004348301
0.013895196
0.0266638
0.037708767
0.03414778
0.024267705
0.026916409
0.032734383
0.026666326
0.012241338
0.010954228
0.028894505
0.037539914
0.020339316
-0.0057876077
-0.022269962
-0.024512732
-0.016719392
-0.0020751785
0.0142963845
0.016057324
0.0075237844
0.011339259
0.007997097
-0.017094081
-0.023814006
-0.0046926118
0.0021943015
-0.016339384
-0.038962226
-0.04049376
-0.034641102
-0.046775524
-0.064043775
-0.06396118
-0.04307395
-0.022439446
-0.014232833
-0.0051523894
0.0024671953
0.0123259965
0.029820077
0.034908682
0.024652503
0.0055169067
-0.0062139714
0.0042938166
0.009030033
0.006488967
0.01652711
0.03162691
0.062240887
0.0966486
0.10257531
0.08871272
0.06096813
0.022801192
-0.010492585
-0.034289062
-0.039010685
-0.026639653
-0.014985418
-0.013992375
-0.027297983
-0.04490443
-0.058235474
-0.07154519
-0.08116679
-0.07622846
-0.04983729
-0.012174112
0.01439041
0.031136636
0.05415837
0.072239295
0.073057964
0.06829156
0.057817467
0.04384897
0.034338087
0.015268209
-0.008990972
-0.033544432
-0.06620379
-0.0740335
-0.05089216
-0.034530777
-0.028158955
-0.029903803
-0.035209008
-0.026156591
-0.013670462
-0.0043303687
0.007777783
0.0073296693
-0.007079142
-0.013292165
-0.0061075115
-0.005008765
-0.022808656
-0.042580526
-0.038456943
-0.0032458624
0.044565856
0.07864681
0.09759714
0.10814667
0.10571542
0.1009825
0.09228059
0.05304249
0.0010295835
-0.026633931
-0.041037083
-0.05647153
-0.06570061
-0.06987126
-0.06366437
-0.04124137
-0.024989499
-0.024830172
-0.01660834
0.0069950214
0.0352336
0.04994542
0.023175694
-0.018490445
-0.035200283
-0.056858316
-0.0831902
-0.070174806
-0.029575918
0.003997441
0.010282047
-0.0035501148
0.0036249328
0.03755787
0.062698096
0.06347808
0.0578836
0.0642954
0.07468109
0.080594316
0.06501023
0.008571828
-0.050617166
-0.08340912
-0.11193782
-0.1329509
-0.13267115
-0.10892183
-0.056560185
0.0060453755
0.049994543
0.06972708
0.086430326
0.105132475
0.10518109
0.09653173
0.07898387
0.03905509
0.01527659
0.008710335
-0.01685704
-0.040331475
-0.056209084
-0.07347429
-0.065162346
-0.042404365
-0.029149992
-0.009455097
0.015586656
0.027130725
0.0195234
-0.0066567454
-0.03654343
-0.056826863
-0.073336065
-0.08296375
-0.08224501
-0.07971195
-0.06217516
-0.021581316
0.015483504
0.043548778
0.08594192
0.13383451
0.15197633
0.15086079
0.16766179
0.18364805
0.16797975
0.11680606
0.024305051
-0.062443566
-0.08969758
-0.10015807
-0.12799355
-0.14691633
-0.15343368
-0.14053325
-0.08726565
-0.027312268
-0.0026675486
0.008665468
0.015715428
-0.013476688
-0.054295488
-0.06777205
-0.073112085
-0.07268189
-0.04582928
2.8947843E-4
0.044677272
0.0645259
0.059208207
0.051523823
0.050729718
0.05562706
0.062452234
0.06356996
0.06400428
0.07555442
0.09080147
0.09117097
0.069817126
0.030298125
-0.010620832
-0.028683458
-0.017199494
0.0017303089
-0.008181304
-0.04588188
-0.07109667
-0.0724011
-0.070039004
-0.06861362
-0.05289717
-0.026391746
-0.012482889
-0.010852919
-0.011610428
-0.010738608
-0.0044256905
-0.0036568579
-0.008866337
-0.018786741
-0.03788787
-0.040980138
-0.018510565
0.013060656
0.040613484
0.049739435
0.04871372
0.035673402
0.012123453
0.020943737
0.044121504
0.032936756
0.0147576975
0.024165807
0.050285917
0.06586858
0.063065104
0.045912877
0.0049299914
-0.03894071
-0.060293205
-0.07661572
-0.08422383
-0.06660238
-0.041814487
-0.023519216
-0.007684709
-3.8498614E-4
-0.01128422
-0.024358097
-0.020764971
-0.013304265
-0.009427056
-4.0486996E-4
0.011903463
0.02521371
0.031729612
0.020657513
0.0017538477
-0.013070551
-0.023624357
-0.026084844
-0.015580231
6.084818E-4
0.02017752
0.055043384
0.08787407
0.091538705
0.084019385
0.073618606
0.048208494
0.020574102
-0.019616598
-0.07985829
-0.10927614
-0.088365175
-0.052605025
-0.02523067
-0.017605992
-0.021234447
-0.011484706
0.0067992676
0.018820716
0.024612537
0.02427352
0.026080906
0.032118328
0.025686674
0.0066089267
-0.012979885
-0.03038525
-0.040417843
-0.03804566
-0.024895782
-0.0059639616
0.014789973
0.030950014
0.026667941
0.0037031705
-0.015212946
-0.022966485
-0.023689697
-0.019132074
-0.012302373
-0.0037058378
0.0075344145
0.018260993
0.018263247
0.0051572174
-0.005220662
-0.0030553378
0.0043563102
0.009296685
0.013956799
0.025726335
0.0445119
0.055101335
0.042778123
0.017507346
-0.00317916
-0.01641839
-0.0216388
-0.021744793
-0.02092839
-0.014568248
-0.0037984129
0.0033693602
0.0018613876
-0.01076908
-0.026112227
-0.029276604
-0.023312926
-0.021604203
-0.020203967
-0.008279844
0.012299664
0.027231174
0.02253034
0.004547679
-0.00921204
-0.01216233
-0.009744242
-0.0063549564
-1.07561755E-4
0.005721984
0.01595061
0.032029577
0.027129343
5.314407E-4
-0.019072838
-0.025413383
-0.019959783
-0.0066616125
0.0041201166
0.01042199
0.019974342
0.033100676
0.027226914
0.0019294517
-0.014840578
-0.019926215
-0.019510461
-0.015171024
-0.009912528
5.7772285E-4
0.015876003
0.028913008
0.02683066
0.0086170705
-0.0045942194
-0.008852546
-0.013837649
-0.017229486
-0.015950402
-0.008784426
0.006029258
0.021026673
0.02019922
0.0039155977
-0.011284671
-0.01755398
-0.017191803
-0.016237618
-0.010181499
0.0039191986
0.012872493
0.017626218
0.018338311
0.004487261
-0.010870727
-0.014002357
-0.012289589
-0.0133875925
-0.011207113
0.0017167717
0.017400142
0.02730644
0.024070095
0.00514832
-0.013395984
-0.021176713
-0.019255169
-0.012476932
-0.0072070006
5.560064E-4
0.013008908
0.023480296
0.021625664
0.006171474
-0.007009136
-0.011193145
-0.009371662
-0.004937681
-0.0031076227
0.0023422122
0.01224592
0.016541157
0.011255634
-0.00305475
-0.016100876
-0.020413127
-0.019118393
-0.012050837
-0.0038638387
0.0036665509
0.016544163
0.025015632
0.018256648
0.0050934926
-0.0047216564
-0.007380768
-0.0027946904
0.0010344016
0.002723261
0.010405617
0.024457134
0.032733787
0.02063656
-0.0066372906
-0.030152097
-0.041179005
-0.038204875
-0.027792532
-0.017484741
-0.0053622997
0.0063799084
0.012132755
0.00934265
-7.140488E-4
-0.011761692
-0.016849305
-0.011966877
-0.0060942248
-0.0059793196
5.440478E-4
0.016542202
0.028567156
0.027796993
0.016033597
0.0018068065
-0.0047339695
-0.002496564
-0.0010816242
0.0028798277
0.01399968
0.021301234
0.026942156
0.02878783
0.016519904
0.0033233492
-0.002449369
-0.003337647
-0.0036838928
-0.011212953
-0.014441789
-0.008232544
-0.0036350586
-0.0037602468
-0.014035276
-0.027309397
-0.029187024
-0.026716689
-0.023408553
-0.013785217
-0.0026030166
0.0059946487
0.013575671
0.016197158
0.007340228
-0.0064242175
-0.011145987
-0.0075957417
-0.005384456
-0.0022473997
0.006559887
0.018168425
0.028956883
0.02867698
0.013960018
-0.0013733376
-0.010594888
-0.012330026
-0.0074475445
-0.0031489644
0.0045280894
0.01988794
0.032265965
0.029118273
0.010283674
-0.008504366
-0.015350064
-0.015905455
-0.018540325
-0.018272525
-0.008491712
0.004977079
0.017068075
0.019289533
0.0056919726
-0.010055669
-0.019977616
-0.021877268
-0.015568555
-0.010418101
-0.0020548047
0.0098680705
0.015636634
0.016016014
0.005208894
-0.0107217515
-0.014008893
-0.010511089
-0.00952525
-0.009368759
-0.0038476032
0.011795506
0.02702636
0.026774185
0.010253537
-0.008756943
-0.01900641
-0.021481242
-0.01836521
-0.0106101055
2.911412E-4
0.013769853
0.02746791
0.031647824
0.016934752
-0.004054774
-0.013829066
-0.013808302
-0.010514829
-0.0075646103
-0.0014749299
0.011550587
0.02353438
0.025033215
0.010749738
-0.01067425
-0.020332234
-0.01865984
-0.016569745
-0.013458532
-0.005481186
0.0076123187
0.022696704
0.029281303
0.016942695
-0.0040735374
-0.014105991
-0.012628311
-0.009575517
-0.008511349
-0.005384609
0.0059315832
0.019734269
0.020017743
0.00324723
-0.015766276
-0.025932336
-0.02878788
-0.02586868
-0.01786646
-0.0066037877
0.0070272256
0.018159855
0.019836161
0.009190341
-0.007278415
-0.014925436
-0.010353472
-0.004702561
1.867392E-5
0.010337992
0.025713691
0.040417712
0.041514557
0.021836422
-7.8035775E-4
-0.01065384
-0.012805308
-0.009791808
-0.0014373593
0.0038911735
0.007366791
0.017501993
0.021227451
0.003259437
-0.021292837
-0.031228295
-0.027954394
-0.025404321
-0.024552459
-0.015287369
0.0017903408
0.01842763
0.023217294
0.010022716
-0.008558404
-0.018451458
-0.018394032
-0.01585156
-0.011340632
0.0022615255
0.016969247
0.025699532
0.027817838
0.015890287
-7.829497E-4
-0.009461533
-0.012434444
-0.010985584
-0.008325743
-0.0042674695
0.00640946
0.020117886
0.0226944
0.0062846416
-0.011786783
-0.018383456
-0.019276569
-0.013419582
-0.0039328826
0.0032572937
0.013524956
0.02670246
0.033402793
0.024851598
0.006163715
-0.006496896
-0.009020408
-0.009277158
-0.011996452
-0.012450351
-0.004446237
0.010079106
0.019008214
0.010310932
-0.0055887196
-0.0153734945
-0.024057366
-0.027411586
-0.020671647
-0.011714303
6.032825E-4
0.014518087
0.01923962
0.008937082
-0.011370956
-0.020557519
-0.013788718
-0.009879872
-0.007034797
0.0030729438
0.017289735
0.03565747
0.042126104
0.0239993
-9.553333E-4
-0.01788949
-0.021079116
-0.012953036
-0.0069273175
-0.0018560279
0.008042897
0.01884411
0.022368535
0.009691561
-0.0087627275
-0.01672865
-0.0156206675
-0.013058755
-0.014475496
-0.012098136
0.002205297
0.017428346
0.02273745
0.013834854
-0.004060582
-0.01490022
-0.016062621
-0.013417676
-0.008271169
-0.0030251525
0.005823069
0.02007871
0.027830208
0.020087205
0.0028961238
-0.010574141
-0.014025725
-0.012876363
-0.011433907
-0.0068424167
0.004615743
0.020091012
0.02482374
0.011026504
-0.00946778
-0.024396494
-0.029138613
-0.024540596
-0.0149632925
-0.00363308
0.0085462835
0.022343012
0.029729053
0.022501688
0.007445596
-0.0070189284
-0.013156777
-0.010327393
-0.008348598
-0.005056837
0.0050387965
0.016350383
0.018824184
0.0077938843
-0.0062866984
-0.014793915
-0.018586302
-0.016303949
-0.009935385
-0.003004536
0.005264345
0.015807066
0.022953195
0.01630906
-4.971588E-4
-0.0112700155
-0.011275687
-0.009729372
-0.009579188
-0.005021319
0.0059650126
0.020953448
0.027382595
0.014932914
-0.004792235
-0.01735753
-0.019444555
-0.015783023
-0.010682226
-0.0032495465
0.0047369306
0.013904875
0.018005187
0.008612834
-0.0045729317
-0.014334001
-0.015671764
-0.009060437
-0.0074237715
-0.0044994075
0.0059538316
0.016050616
0.021479622
0.014298371
-0.0013582534
-0.013152847
-0.017343728
-0.013138741
-0.006568446
7.2216673E-4
0.010275448
0.019716904
0.02622473
0.019273324
-2.680423E-4
-0.014760839
-0.015307375
-0.010768708
-0.011595559
-0.0095501365
0.0012450849
0.014455688
0.021550614
0.011422846
-0.005060186
-0.014522971
-0.0215959
-0.021025361
-0.014318966
-0.007842864
0.0025171502
0.012740391
0.019963967
0.019309737
0.006273837
-0.0047932086
-0.0075160894
-0.009535638
-0.010722622
-0.006686151
0.005184998
0.020052852
0.024745
0.0150158
3.8625483E-4
-0.010144074
-0.014105726
-0.015352325
-0.015359286
-0.009594016
2.212365E-4
0.012315105
0.022133835
0.018260758
0.0055171414
-0.005409592
-0.010509044
-0.009044132
-0.010140621
-0.012695007
-0.0075866934
0.0055236625
0.020440968
0.017498171
-0.002615676
-0.01398183
-0.016641982
-0.016515322
-0.008188298
-9.904208E-4
0.0030133163
0.014592843
0.025172867
0.020219292
0.004573547
-0.00782874
-0.008885767
-0.0051575815
-0.005447918
-0.0023083696
0.00754927
0.016319333
0.01900263
0.010041371
-0.0069527323
-0.02125967
-0.027077744
-0.022505263
-0.016004201
-0.010566917
5.4995663E-4
0.012851919
0.019777905
0.016584812
0.0028450596
-0.008130702
-0.009496597
-0.008129249
-0.008419629
-0.0057315705
0.005588546
0.020170806
0.027189126
0.021094259
0.006204521
-0.005329549
-0.008353332
-0.007322457
-0.0044506337
-2.3966648E-4
0.0031025417
0.0077040065
0.014026032
0.012002376
-0.0037976818
-0.020478474
-0.022474142
-0.015646672
-0.013358511
-0.011220525
-0.0028259107
0.010450406
0.021678543
0.017709268
7.2798645E-4
-0.014187962
-0.0191607
-0.015915992
-0.0118909525
-0.005537238
0.006254193
0.018770115
0.02810564
0.02481074
0.008010603
-0.006198964
-0.009310973
-0.006980256
-0.007850087
-0.008541057
-7.6877075E-4
0.012422152
0.022401985
0.01871256
0.003091606
-0.010248403
-0.017971966
-0.020787701
-0.017361648
-0.012099046
-0.0047631743
0.008981637
0.020148132
0.017215425
0.00574325
-0.0055040247
-0.01063193
-0.007138166
-0.0045035426
-0.0054174806
-7.66192E-4
0.013594148
0.02584521
0.020470433
0.0055073076
-0.014108962
-0.035087094
-0.03187439
-0.0130437
-0.004487456
0.0042626997
0.017547099
0.024891665
0.021942988
0.00991679
-7.130027E-4
-0.005369219
-0.0072680605
-0.009530196
-0.013162531
-0.00945817
0.005607037
0.018933833
0.016682122
0.002893105
-0.008031097
-0.01103461
-0.009505414
-0.006898713
-0.003099908
0.0025919685
0.008126994
0.012780785
0.01170155
1.6017961E-4
-0.01207617
-0.014293884
-0.012177972
-0.012681721
-0.010084649
-0.0015414016
0.011074917
0.023338344
0.02032411
0.0037807687
-0.008345955
-0.0144597525
-0.016517436
-0.012144184
-0.0037959295
0.0055051716
0.014661203
0.022509184
0.02114944
0.008642817
-0.0026230009
-0.006480145
-0.006515351
-0.0069577536
-0.007122685
-0.0020100363
0.0074548163
0.015073759
0.013868666
0.0021651546
-0.012312059
-0.020388879
-0.02026831
-0.017573116
-0.011775826
-2.4423088E-4
0.01077688
0.017995687
0.018031593
0.007257998
-0.005530087
-0.0113983685
-0.011615858
-0.010329417
-0.007857141
-7.170113E-4
0.012959922
0.024873905
0.020082528
0.0016595031
-0.012633572
-0.015909333
-0.013285774
-0.011973531
-0.008086537
0.0026644985
0.012313552
0.019975435
0.021068042
0.006907686
-0.007286338
-0.009526644
-0.009560368
-0.0109314155
-0.007303638
0.0025779451
0.015159858
0.025613742
0.023381783
0.006607196
-0.009030266
-0.01723967
-0.0214624
-0.01734291
-0.008725097
-0.004615804
0.0025058386
0.014397779
0.016822243
0.008003851
-0.005240571
-0.014244471
-0.012350612
-0.011323066
-0.012310686
-0.0041747303
0.0074423747
0.018380519
0.021129457
0.007977743
-0.0068512657
-0.01366785
-0.014193429
-0.010378492
-0.0041262186
0.005635741
0.014989143
0.02110172
0.021248128
0.010696244
-0.0024422898
-0.009978229
-0.012553487
-0.0126311
-0.011510221
-0.0053994767
0.0072674807
0.02074322
0.021014327
0.0042261365
-0.01092431
-0.016245762
-0.017391415
-0.014951333
-0.010662348
-0.003988225
0.005905115
0.014331572
0.01724329
0.011148856
-0.002001078
-0.009673888
-0.0068572834
-0.00517026
-0.0062814956
-0.0026059852
0.0058401385
0.01825537
0.02068196
0.005830364
-0.008076437
-0.015559658
-0.015946163
-0.008617473
-0.005151435
2.5265434E-4
0.012421947
0.019659473
0.01751837
0.0055571417
-0.007097898
-0.01036969
-0.010397143
-0.010754169
-0.008642443
-0.0023370038
0.010125636
0.02176446
0.018679945
0.0015533972
-0.014861491
-0.021622898
-0.019893676
-0.015571615
-0.009478917
-3.4501497E-6
0.009932997
0.020342054
0.023319164
0.011166419
-0.0030077514
-0.009707773
-0.011499877
-0.010701231
-0.008203697
-0.0014977179
0.009836821
0.021984406
0.023589551
0.009968005
-0.0040292307
-0.011799925
-0.015404422
-0.013866097
-0.010296086
-0.0028457602
0.008748099
0.018196858
0.019306757
0.007360196
-0.007688334
-0.013170647
-0.0120211765
-0.010018254
-0.007690678
-0.0017752176
0.009952944
0.021064242
0.01935818
0.0033442564
-0.01363344
-0.02215582
-0.022343436
-0.016766693