-0.03274397
-0.020110238
0.022354307
0.011974017
0.00639536
0.033213228
0.005551869
-0.014083778
0.024281887
0.06502246
0.08528507
0.049604688
0.0017336212
-0.002961418
0.009618271
0.047101017
0.05805119
0.015360033
-0.020026546
-0.0567682
-0.063346446
-0.02647099
-0.026839998
-0.052949764
-0.063303895
-0.053139284
-0.029824954
-0.009398516
0.014580685
0.01060801
-0.020443343
-0.044987433
-0.071082085
-0.046231188
0.017243184
0.024097564
6.8569795E-4
-0.0065198587
0.009487804
0.033520415
0.006817151
-0.024277285
0.026129693
0.090378076
0.090713985
0.06389288
0.03563555
0.016226241
0.036279917
0.047682505
0.003600433
-0.038172666
-0.023298481
0.025499716
0.025931997
-0.030065058
-0.051064685
-0.028200973
-0.0058918027
-0.006385038
-0.03843226
-0.047314655
-0.02289106
-0.006908581
0.0233623
0.042192705
0.0083979955
-0.026758807
-0.042634062
-0.029365093
0.0076341033
-0.017710794
-0.05208802
0.0017719981
0.02869148
-0.004677232
0.003217528
0.017801292
0.022895688
0.062358085
0.0737377
0.031516578
0.0025478152
-0.01361104
-0.04315166
-0.04163311
0.0023672117
0.024746224
0.0061046113
-0.014473987
-0.031235803
-0.057470627
-0.05610251
-0.0066807084
0.037001397
0.022571435
-0.04159028
-0.07255938
-0.03438475
9.907486E-4
0.018282065
0.04311412
0.06898434
0.075347744
0.041812886
0.03536899
0.061124515
0.028311465
-0.03256143
-0.08337954
-0.100887015
-0.043722343
0.029508501
0.07372242
0.07934258
0.06904917
0.07888424
0.044032346
-0.0055507286
0.003863485
-0.006780755
-0.04889817
-0.0738323
-0.092509784
-0.083478816
-0.0468269
-0.031955138
-0.02701282
0.01892095
0.05503815
0.014551683
-0.013218422
0.012432746
-0.011221109
-0.04223724
0.012709326
0.043204796
-0.0054387967
-0.035760045
-0.041624196
-0.03338966
-0.004320345
-0.0046238485
-0.02682818
-0.03343207
0.005900133
0.07064325
0.06316689
0.0322371
0.07134064
0.09645235
0.046210192
-0.012844036
-0.02511958
-0.026584554
-0.03183386
0.002015833
0.016037695
-0.0021362759
0.04098389
0.07374399
0.024240768
-0.024358498
-0.055503458
-0.061103377
-0.020863777
-0.020554345
-0.04552452
-0.015722524
-0.0011571085
-0.019109787
0.0062244637
0.044655345
0.04196839
0.0010302002
-0.036841486
-0.013633402
0.02652857
0.010421559
-0.015571224
-0.0241868
-0.03587934
-0.01874668
0.0036323534
-0.015654705
-0.03933279
-0.024328044
0.03699742
0.07297817
0.026469935
-0.026904674
-0.05675392
-0.06585457
-0.012946351
0.044598695
0.04668202
0.04022836
0.04595134
0.01774357
-0.018019866
0.025228519
0.09045266
0.07692137
0.015710818
-0.022035534
-0.019372681
-0.027975762
-0.03003787
0.008469313
0.0038675077
-0.021981461
-0.019963654
-0.03958082
-0.04902122
-0.03074321
-0.008090616
0.004423591
-0.01753626
-0.042967264
-0.055356808
-0.023514416
0.032774664
0.028392883
0.039318945
0.054376226
-0.0020583014
-0.006453217
0.021301342
0.0024702034
0.009922403
0.019007914
-0.014212777
-0.05431152
-0.05261526
0.0061195362
0.0443958
0.021148449
-0.016730841
-0.03608338
-0.0372807
-0.012519181
0.027512018
0.015975665
-0.0051197466
0.035299327
0.045105964
0.0068369615
-0.010490108
-5.7454774E-4
0.03407053
0.03908344
0.009058699
-0.009106792
-0.022081092
-0.0011949645
0.019835759
-0.00456735
-0.015630575
-0.01283715
0.00132072
0.028873503
0.037831273
0.049910214
0.037608426
-0.0016473329
-0.009376797
-0.013076665
-0.023165213
-0.033674363
-0.034747746
0.00833544
0.033269554
0.022742411
0.030809125
0.022091242
-0.012449074
-0.039856564
-0.06912846
-0.093445435
-0.07975243
-0.04703663
-0.052475836
-0.058844943
-0.021092787
0.0029131547
-0.004460345
0.0095599275
0.05708119
0.05893026
0.0067894696
0.010857203
0.031748444
0.017941205
0.03251021
0.027770288
0.0050292164
0.016130235
0.015630992
0.020669116
0.019355508
0.009169498
0.052180693
0.05408542
0.005219553
0.019783888
0.04748711
0.051364135
0.0356928
-0.0067293295
-0.024172429
-0.052030284
-0.07748429
-0.03438094
-0.026145665
-0.03737366
0.017412987
0.023487946
-0.017898759
-0.0036113744
0.017620457
-0.007874397
-0.033458773
0.0030137922
0.0457726
0.022900047
-0.014415789
-0.046352692
-0.078613095
-0.07975894
-0.05193345
-0.035932295
-0.06364313
-0.048709013
0.02443706
0.025988791
0.02222577
0.08228635
0.087167405
0.029172184
-0.00842323
0.001396291
0.016026784
-0.0067622582
-0.03981508
-0.054355636
-0.017229501
0.03142899
0.028482422
0.04498467
0.07422641
0.06307573
0.07040438
0.080144264
0.040224556
-0.01847487
-0.045393154
-0.033204332
-0.03351093
-0.043651916
-0.00882945
0.044089224
0.04793908
0.0067093065
-0.03414785
-0.06302434
-0.08013399
-0.0809434
-0.047397543
0.014217723
0.043403953
0.061572175
0.085277855
0.05047716
0.010227573
0.008220216
-0.005864852
-0.033093754
-0.057407804
-0.056710765
-0.060379207
-0.077739835
-0.04789431
-0.031791296
-0.032955203
0.0023859232
1.9399424E-4
0.013925068
0.07245544
0.054482747
0.0027792964
-0.011932955
-0.0049353777
0.001504901
-0.031402487
-0.039609637
0.030273158
0.08594037
0.062461764
0.010916251
-6.1638374E-4
0.002310586
0.009121977
0.05709668
0.077365145
0.040569358
0.007070423
-0.024220886
-0.032537647
-0.0057070972
-0.0017045422
-0.03166097
-0.05248584
-0.032473247
-0.007427775
-0.006431386
0.004322482
0.0036707236
2.3367077E-4
0.04172902
0.055433642
0.014965116
-0.026350927
-0.06407795
-0.048043463
0.007946634
0.0028001494
-0.017174225
0.0021051252
9.4173214E-4
-0.02224034
-0.039408136
-0.05977214
-0.08223435
-0.0816185
-0.026734032
0.03910521
0.058268283
0.04685564
0.01751896
0.024274299
0.07831708
0.07626771
0.06306158
0.097635
0.07880469
0.011499676
-0.02881919
-0.024046112
0.004688167
0.003670895
-0.015616437
-0.034284025
-0.034276403
0.0038048178
-0.002895018
-0.056358494
-0.08381275
-0.08728757
-0.053520147
-0.008485961
-0.010799606
-0.047084246
-0.04897405
0.009543428
0.045481574
0.034931477
0.006406945
-0.016975684
0.03822834
0.09887664
0.07976989
0.045783058
0.024357079
0.052905567
0.08265416
0.020709123
-0.042315707
-0.058618166
-0.031753484
0.03763476
0.045195855
-0.0069976053
-0.038644284
-0.059972893
-0.07301726
-0.047123376
0.0021892316
0.012382895
-0.009032359
-0.017368676
-0.033686746
-0.052338008
-0.03725404
0.01359677
0.071037434
0.09077294
0.06056357
7.8426546E-4
-0.038079724
-0.025485527
0.005022096
0.011934886
-0.03027756
-0.07551931
-0.06488348
-0.02848284
0.026792746
0.07918611
0.054707617
-0.0093212845
-0.046613447
-0.07758865
-0.09115231
-0.035767842
0.04231443
0.060221557
0.052553374
0.04159225
-0.012763248
-0.036249116
0.034059018
0.10480334
0.10227554
0.047601562
0.007032792
0.036040187
0.06727199
0.03128904
0.0043850318
0.0044102427
-0.03293024
-0.06738879
-0.058783866
-0.0201663
0.029943326
0.029258091
-0.018583925
-0.052814487
-0.06406741
-0.04782099
-0.038513206
-0.052344568
-0.03545979
-0.01121
-0.0064436616
0.003183113
1.4745673E-4
-6.397773E-4
0.014298455
-0.0051303743
-0.05382482
-0.062528536
-0.024021512
0.006494855
0.027503245
0.038115017
0.025203126
0.046361756
0.06700826
0.024702875
0.002746618
0.01602535
-0.0015465484
-0.046342567
-0.06375515
-0.009106043
0.044659335
0.04189983
0.049409054
0.07679735
0.091457434
0.0758886
0.030036833
-0.007598179
-0.034981407
-0.034712274
0.0019015461
0.0069809463
-0.019851409
-0.046415634
-0.06975825
-0.06564385
-0.050542425
-0.037971962
-0.011484698
0.0015841625
-0.022599913
-0.048992235
-0.01461961
0.04945678
0.048665494
0.0070622233
-0.024479082
-0.038752176
-0.009831627
0.020200714
0.01501895
0.010943315
0.009620544
0.01865695
0.041281894
0.039760485
0.014341809
-0.011045431
-0.017732102
-0.007434727
0.0047910176
0.011768456
-0.014624867
-0.043170102
-0.009597946
0.025552586
-0.005681501
-0.03190825
-0.00228008
0.0031001586
-0.012834796
0.024767792
0.042833112
0.030500766
0.053394094
0.033650305
-0.02328828
-0.047510598
-0.063531384
-0.04317525
-0.013301627
-0.027293624
3.805568E-5
0.049378306
0.033413578
0.015460621
-2.7213467E-4
-0.051826634
-0.041143842
0.028619366
0.041556258
0.0013996806
-0.041045573
-0.02621973
0.05724802
0.1141404
0.12198771
0.090156525
0.017900335
-0.039262474
-0.07269695
-0.048346654
0.026534894
0.02483084
-0.033074666
-0.07332188
-0.08742553
-0.03994415
-0.0025136583
-0.02125131
-0.009928725
0.0026722117
-0.044301145
-0.06367146
0.0015847358
0.04245622
-0.014899821
-0.06511151
-0.040053166
-0.016952882
-0.03125902
-0.008946645
0.069746494
0.1077247
0.09128039
0.097488314
0.10173178
0.06057747
-6.27271E-4
-0.053923197
-0.074642144
-0.06847559
-0.060423538
-0.03448472
0.02543189
0.06623082
0.04057508
0.0156748
0.033216137
0.024696123
-0.0040615564
0.003526299
0.016326746
0.007199694
-0.0063659763
-0.021330418
-0.021513447
-0.0041566975
-0.011718533
-0.03802368
-0.039395124
-0.010673954
0.023678139
0.015150991
-0.003949345
0.03828921
0.052916333
-0.011846921
-0.06467008
-0.09802849
-0.11429832
-0.10060494
-0.08606628
-0.020345327
0.07810595
0.09188636
0.03602355
-0.013706387
-0.0074433438
0.05643682
0.07169001
0.016798284
-0.0052304426
-0.008380758
-0.033748575
-0.019635137
0.02941269
0.061212305
0.057110474
0.026928198
0.0675156
0.14396004
0.098723315
0.007203018
-0.044415507
-0.0895639
-0.079074174
-0.05435353
-0.053199302
-0.005219738
0.018253334
-0.026163716
-0.064620376
-0.07587925
-0.026595233
0.046421643
0.0462457
0.008934445
-0.010442435
-0.016482044
-0.01490543
-0.0266978
-0.037895437
-0.021888517
-0.004943978
0.0081631085
0.039095424
0.05990545
0.034009513
-0.016896032
-0.04242597
-0.025844805
0.002154557
0.01031578
0.0077755204
0.0157874
0.030146617
0.035699278
0.01934075
-0.023535378
-0.059631158
-0.051053766
-0.00904285
0.023736464
0.023259081
0.036381774
0.07233018
0.044890493
-0.006941749
-0.0059905695
-0.010121972
-0.0020545286
0.04834234
0.05668327
0.015605715
-0.0055447477
0.012714199
0.012561263
-0.0377615
-0.080548376
-0.10553472
-0.10573959
-0.04917542
-0.0016823295
-0.011005242
-0.033847753
-0.017742142
0.018813005
0.017982187
0.026011774
0.057300907
0.03863435
-0.008745335
-0.039482154
-0.04658266
-0.040300727
-0.018843798
0.030886022
0.03429447
0.030500187
0.12765308
0.19071257
0.1461702
0.08347058
0.0077212076
-0.05528004
-0.09439954
-0.11436175
-0.060197297
9.458026E-4
-0.0019812828
-0.004100099
0.0031997252
-0.01971205
-0.05319655
-0.06273373
-0.047940187
-0.0088998685
0.053890772
0.07304671
0.030733299
-0.007949606
-0.04721428
-0.07346387
-0.04571686
-0.0145522095
-0.008409917
-0.009559618
-0.02187026
-0.044075742
-0.06408769
-0.054103162
-0.025884444
-0.019641224
-2.2071133E-4
0.051060572
0.07155253
0.044464547
0.012633714
-0.014733928
-0.043501284
-0.064766906
-0.07494928
-0.008672204
0.1425137
0.1984792
0.12547228
0.058698323
-0.016921367
-0.05774497
0.056195475
0.19677532
0.21604793
0.17482741
0.12053344
0.03707026
-0.041698124
-0.09147174
-0.12033795
-0.12870413
-0.14050223
-0.13244876
-0.04747698
0.035824776
0.0113662705
-0.070010915
-0.12489935
-0.16569194
-0.16421272
-0.0498506
0.05668304
0.026237488
-0.03333391
-0.041040488
-0.035639144
-0.05535373
-0.09841267
-0.076848604
2.2335436E-4
0.04038248
0.0705505
0.073722035
0.016816018
-0.038949735
-0.07547045
-0.03710027
0.08240151
0.1407916
0.14849633
0.17096455
0.1477592
0.104418136
0.0855163
0.07069588
0.06188068
0.031572253
-0.026913846
-0.10087706
-0.16768937
-0.121617146
0.03703721
0.19070016
0.2802342
0.25385606
0.13584188
0.031198954
-0.035756025
-0.08531372
-0.1334693
-0.18028046
-0.20714353
-0.21646565
-0.2113654
-0.19272244
-0.1631973
-0.13114338
-0.07894653
0.020574521
0.08003348
0.052492455
0.025070066
0.013645816
0.0012474763
-0.018097773
-0.048618767
-0.03746212
-0.0071306927
-0.0034235145
0.020322489
0.07129426
0.095657155
0.07649635
0.07554176
0.11050836
0.127747
0.15886675
0.19200885
0.14450683
0.058760688
-0.0057205767
-0.049208883
-0.06825564
-0.06980686
-0.051094234
-0.0021235659
0.042519152
0.022180924
-0.035362
-0.06338213
-0.09090211
-0.11875215
-0.08968407
-0.031732377
-0.019046417
-0.042538036
-0.030298581
-0.0054123076
-0.024303269
-0.057679333
-0.067219645
-0.0075943437
0.07781504
0.091321655
0.09014411
0.10282287
0.08815141
0.08266654
0.0746098
0.032751385
-0.023993894
-0.05987778
-0.03483512
-0.015825242
-0.07906934
-0.13176993
-0.084955744
-0.014625801
-0.010033591
-0.0526607
-0.09619161
-0.11022889
-0.08164132
-0.035522223
-0.012783162
-0.024386676
-0.0345882
-0.031691838
-0.024872568
-0.011461795
-0.01866772
-0.001681892
0.11383892
0.26631206
0.35505462
0.33235243
0.23480384
0.1428203
0.06828589
0.0077106906
-0.034374446
-0.066144936
-0.08242418
-0.086252764
-0.08822005
-0.09990733
-0.11084991
-0.103966
-0.09981773
-0.11134297
-0.1140216
-0.08658275
-0.07934969
-0.09689927
-0.03920174
0.032742925
0.012471768
-0.018581122
-0.023575345
-0.040253527
-0.04594533
-9.82341E-4
0.08014343
0.10321479
0.057382945
0.03570301
0.05416633
0.064355336
0.03246705
0.009805672
0.061540846
0.10772945
0.07817121
0.023059683
-0.018451964
-0.027319701
-0.007619944
-0.007992529
-0.021741336
-0.007231789
0.008670169
2.827042E-4
-0.004858649
0.011598266
0.034211736
0.033049893
0.033876073
0.06019113
0.041671753
-0.017424744
-0.056042783
-0.09629139
-0.10344549
-0.052301053
-0.031105796
-0.05952822
-0.0810688
-0.061464243
-0.029960247
-0.029436568
-0.0151094645
0.0116770575
0.0018219134
-0.0016671603
0.022380909
0.03920663
0.019535953
-0.011658854
0.010359462
0.039860215
0.039284583
0.05549708
0.057325136
0.023285322
-0.0015953161
0.012590165
0.037904315
0.022580324
0.02190456
0.051054757
0.025947344
-0.016297307
-0.018510558
0.0068073967
0.037414227
0.028636368
0.0018469255
0.003764221
0.0077707605
-0.025157388
-0.078946166
-0.08866446
-0.06224294
-0.051301997
-0.03236262
-0.011739767
-0.02344732
-0.02303929
0.0063429396
-0.001217512
-0.043728594
-0.05258836
-0.03004234
0.004476471
0.035715967
0.041258983
0.052911043
0.049055446
0.021323545
0.039344564
0.040088728
-0.0058736517
-0.008544128
0.010667382
0.036245383
0.06388408
0.039854933
0.0014331309
-0.027302299
-0.029462779
0.023324877
0.036223557
-0.01069226
-0.046904944
-0.06037599
-0.01632096
0.027693277
-0.0032308898
-0.018378658
0.0115636755
0.023482723
0.0072817956
7.707264E-4
0.024718681
0.015581259
-0.013686896
0.0024355073
0.0033487524
-0.020445144
-0.019570755
-0.025372772
-0.053922772
-0.053200077
0.0047176927
0.0330153
-0.0072621703
-0.03905655
-0.0506681
-0.04206563
-0.0216118
-0.024655588
-0.010905352
0.024612186
0.030593116
-0.0079868985
-0.028536288
0.022243392
0.049274523
0.0384663
0.06687975
0.07944284
0.04106224
-0.00474659
0.013183771
0.06863377
0.05071044
0.038372193
0.05332657
2.0227281E-4
-0.049671147
-0.07148251
-0.06471266
0.008222018
0.053992104
0.022818439
-0.040703516
-0.09380341
-0.11652673
-0.10640945
-0.031172318
0.06057205
0.0830417
0.05027502
0.0038338643
-0.031677864
-0.056019425
-0.05469344
-0.030741109
-0.036149103
-0.033358786
0.020549387
0.0538444
0.026885862
0.006384934
0.035854492
0.050377432
0.037396323
0.05307449
0.054186083
0.022993498
0.012908734
-0.0019477209
-0.03608917
-0.037032247
-0.007327896
0.0055758175
-0.012854567
-0.033344563
-0.006316809
0.037712347
0.01631013
-0.017037796
8.3474195E-5
-0.003084811
-0.02474467
-0.02245841
-0.035751075
-0.042166203
-0.014166307
-0.0043752356
-0.009377928
-0.014280638
-0.029656412
-0.006602671
0.05536426
0.08004682
0.043958377
0.009381236
0.038356464
0.060307723
0.00939461
-0.04727367
-0.06756866
-0.038161185
0.0023849334
-0.0033392482
0.016320413
0.052074596
0.027538214
-0.006545104
-0.02241714
-0.022166153
-0.006755508
-0.0066754883
-0.024781847
-0.044807166
-0.023303641
0.024429265
0.036018062
0.031444788
0.035253353
0.04625617
0.024020191
-0.037902404
-0.041347828
-0.0219996
-0.041273545
-0.003037159
0.07160744
0.07072221
0.008423517
-0.046339426
-0.04938315
-0.008441221
0.004772658
-0.032325212
-0.057669368
-0.07199976
-0.08358305
-0.050006453
0.0038183255
0.0714683
0.13190787
0.107799396
0.045515332
-3.7356792E-4
-0.03068741
-0.027961016
-0.02161612
-0.009659841
0.0094701825
0.0015643876
-0.013866795
-0.03225869
-0.016941847
0.054006983
0.07899545
0.037280463
0.0022564803
-0.008966389
-0.02060908
-0.046292566
-0.054427035
-0.038547125
-0.012340624
0.022623837
0.013565691
-0.015047109
0.01885822
0.05130972
0.021632139
6.747463E-4
0.02871134
0.050765965
0.017721761
-0.036168914
-0.061931845
-0.05002806
0.010711799
0.073626556
0.059754003
-0.0014971829
-0.046430454
-0.069675885
-0.078800455
-0.06486896
-0.011313488
0.03248928
0.011226567
-0.005983975
0.020559765
0.016939431
-0.018510133
-0.012423339
0.019379562
0.01649116
-3.9586966E-4
-0.008811193
-0.008921134
0.020025814
0.03185009
0.005447028
0.002450821
0.020577991
0.024635412
0.0013998287
-0.018734138
-0.0020107585
-0.0024263435
-0.016267614
-0.014003749
-0.033293344
-0.0114518795
0.06213777
0.07089313
0.02775288
-0.0071856007
-0.017183634
0.027701737
0.074150495
0.060314436
0.02379352
-0.008129071
-0.03968641
-0.058370285
-0.05228747
-0.034124736
-0.044838764
-0.066222
-0.035603516
7.078349E-4
-0.016283555
-0.035016887
-0.027482577
-0.008818873
0.022749562
0.03163505
0.0033833752
-0.017057642
-0.031636916
-0.03884191
0.0062581613
0.06595865
0.077103026
0.04554206
0.003580143
0.0033690026
0.030206464
0.020782817
0.022228422
0.059660837
0.05085074
-0.0073786387
-0.040881533
-0.017575528
0.021828799
0.01189013
-0.027710605
-0.05346414
-0.078872725
-0.06430161
0.017765999
0.06814808
0.03620528
-0.0045980397
-0.0109026395
-0.019207297
-0.042599425
-0.02686219
0.0277016
0.045099225
0.009857652
-0.034059815
-0.06176774
-0.06417757
-0.02129473
0.042082757
0.042532474
-0.0059627322
-0.013659376
0.02957258
0.06881428
0.042380124
-0.0027780163
0.009382112
0.014263844
0.009108636
0.039832033
0.04799149
0.023871666
-0.017508635
-0.030433109
0.042191602
0.0809383
0.0310949
-0.0054984274
-0.022564702
-0.037711926
-0.048453905
-0.07777012
-0.10327096
-0.087125406
-0.052152574
-0.062558345
-0.077594616
-0.011274284
0.05931161
0.05862958
0.03486521
0.01137226
-0.018766418
-0.042860344
-0.015506619
0.068426475
0.10535402
0.05614783
9.857364E-4
-0.03020066
-0.040600307
-0.0028746347
0.028619977
-5.273619E-4
0.0115875015
0.07843851
0.08369402
0.050934806
0.018699663
-0.009157576
0.021431401
0.05285968
0.018469563
-0.026449304
-0.045506183
-0.053113602
-0.056050576
-0.031172799
-0.0049796645
-0.018947965
-0.032664236
-0.043409333
-0.04016138
0.016415529
0.04679183
0.010924887
-0.029578457
-0.061913136
-0.07400779
-0.029868864
0.017513605
-0.004959067
-0.037305806
-0.038610317
-0.028562749
0.029079098
0.07422241
0.053630307
0.032388337
0.022282433
0.03455467
0.049372744
0.044399615
0.061138846
0.04507078
-0.007871867
-0.03423133
-0.038210418
-0.012968614
-0.009760974
-0.022626799
0.009078295
0.020677973
0.0075454907
-0.007840371
-0.013567897
0.04317936
0.07104096
0.025343826
-0.010169859
-0.035042807
-0.03262531
0.002583527
0.014147544
-0.0027942164
-0.039089847
-0.060619473
-0.040861156
-0.03651197
-0.056921236
-0.05646827
-0.05041891
-0.036617856
0.019990494
0.07119422
0.06003675
0.018187974
-0.017163534
-0.031931464
-0.0046715904
0.019085214
-0.019886233
-0.029596534
0.041115765
0.067850314
0.040705584
0.042366814
0.05621245
0.05269689
0.025098603
0.024171468
0.07225381
0.0691535
0.012880748
-0.024323646
-0.052774552
-0.0740086
-0.07987433
-0.07263098
-0.061763123
-0.058312472
-0.0339078
-0.0106224725
-0.02283673
-0.015588394
0.018780872
0.025280885
0.011518433
0.0036480802
-0.0070826425
-0.020105554
-0.023086544
-0.013579792
0.01654926
0.049458224
0.039237354
0.017977703
0.061808474
0.12955196
0.12032547
0.059369963
0.0489275
0.08790496
0.09351626
0.047071215
-0.009303131
-0.06254084
-0.10038058
-0.086927585
-0.051811736
-0.06073996
-0.09560931
-0.1010378
-0.08993571
-0.10573111
-0.12764464
-0.12237553
-0.10234426
-0.04765585
0.020399354
0.015344765
-0.0029771128
0.04066178
0.06323155
0.060398515
0.0916632
0.11092016
0.07630078
0.01106089
-0.005269694
0.06069211
0.10994439
0.109828755
0.118025646
0.12444211
0.10172281
0.05405439
0.003175738
-0.035370607
-0.05766025
-0.051798582
-0.05057399
-0.07617239
-0.085591994
-0.08031413
-0.08107815
-0.05677038
-0.0021788275
0.02719747
0.002433277
-0.026767736
-0.02442421
-0.0147795
-0.0035321317
0.016052216
0.018636389
0.0012787245
-0.009101713
-0.020444367
-0.03559691
-0.032937974
-0.032988764
-0.04738381
-0.057166122
-0.052822873
-0.026301652
-0.013995094
-0.021662328
9.091666E-4
0.017769622
0.029108407
0.09456245
0.13353774
0.08588591
0.026087537
1.188324E-4
0.016485019
0.054862455
0.06462139
0.04354817
0.009453324
-0.024219126
-0.030454881
-0.014624898
0.008542944
0.03309774
0.022948084
-0.017118992
-0.04180412
-0.054938633
-0.052353054
-0.023163434
-0.008213062
-0.01782371
-0.025681423
-0.02863104
-0.034847144
-0.049594734
-0.041978218
0.005059077
0.052224074
0.096268006
0.12323614
0.08866048
0.035488978
0.0054765525
-0.014019353
-0.021719677
-0.03049261
-0.03082338
-0.01637597
-0.024527129
-0.044354465
-0.055119246
-0.051335327
-0.020227632
0.0024091972
-0.0068805194
-0.023168763
-0.03150774
-0.039012514
-0.04349678
-0.021657232
1.224153E-4
0.009608
0.039255336
0.043877866
0.028812908
0.055376075
0.06802985
0.028884282
-0.01021051
-0.014584065
4.1832775E-4
0.026445866
0.0818225
0.09843069
0.03632311
-0.0043583983
-9.465331E-4
-0.0059018154
-0.012567187
-0.023829369
-0.058516886
-0.07214772
-0.027742367
0.0051669846
-0.010054985
-0.031102141
-0.046954326
-0.04434841
-0.03286814
-0.027168635
-0.012470775
-0.01140478
0.002474891
0.041785963
0.047109935
0.034381308
0.02588626
0.03748484
0.074531116
0.06297702
0.01795636
-0.0020946804
-0.006830786
0.012106746
0.029863581
0.02011946
0.001263861
-0.023535693
-0.03162685
-0.020354314
-0.019107249
-0.023932127
-0.04055688
-0.0686386
-0.07734902
-0.075198084
-0.067675315
-0.028921695
0.007738103
0.018181704
0.031237269
0.023661274
0.0010525457
0.006206278
0.014305088
0.027485766
0.05454814
0.06326571
0.065068625
0.054736063
0.0149882855
-0.016282223
-0.024839694
-0.029645609
-0.02312242
-7.14982E-4
0.013031472
0.026752295
0.050362475
0.03572629
-0.0059450325
-0.022299986
-0.021049438
-0.014624187
-0.019227652
-0.033102684
-0.0349847
-0.03140878
0.0031364777
0.047457613
0.035750646
0.019775802
0.04181285
0.04491145
0.010422175
-0.016399939
-0.010165507
-0.002204155
-0.010102579
-0.02553563
-0.05138049
-0.072039284
-0.074603714
-0.059011813
-0.039784983
-0.037157096
-0.025171066
-0.0012845169
0.004557973
-0.0029568865
-0.012693321
2.582138E-4
0.0360753
0.058984824
0.06459462
0.049599864
0.022674305
-5.7937077E-4
-0.01989566
0.0055798697
0.05926132
0.05253234
0.010989001
0.016965425
0.053954657
0.069267154
0.047459614
0.0025388137
-0.024917936
-0.023851212
-0.022621067
-0.024298213
-0.03439713
-0.052811638
-0.059024133
-0.05783685
-0.033147424
-0.0018313815
-0.020536665
-0.033794295
-0.0020220203
0.012059047
0.0087281335
0.01477281
0.012558765
-0.0017958125
-0.017643124
-0.02954983
-0.026414204
-0.009098806
-0.0037742832
-0.0020412914
0.009658027
0.014292769
0.03561891
0.049095403
0.013802488
0.0019350697
0.013366992
-4.915463E-4
8.906926E-4
0.006426781
-0.003066048
-0.0040309206
-0.0034730185
0.002048248
0.005558261
0.011721236
0.028096244
0.019750334
0.018629715
0.03714765
0.022178225
0.0048747445
0.006634984
0.012282289
0.029309914
0.024301862
-0.0044306633
-0.02585241
-0.041458517
-0.04973322
-0.060058877
-0.05812166
-0.032072917
-0.027615322
-0.032045286
-0.003076604
0.0153509695
-0.013877093
-0.034607276
-0.012649573
-0.0061455662
-0.018009054
-0.012488487
-0.01656784
-0.016991595
-0.0071885125
-0.014828506
-0.015089495
-6.6306343E-4
0.049849227
0.1261011
0.13941517
0.108923554
0.07509347
0.02848809
0.004970119
-5.808192E-4
-0.006518365
-0.020995129
-0.056999512
-0.08194849
-0.08711127
-0.054301806
0.010427001
0.026636327
0.009785035
0.008234393
0.011090979
0.013558614
0.0047662524
-0.007703873
-0.022737077
-0.03029295
-0.0123216435
-0.012950454
-0.02083086
-0.018845355
-0.028187942
0.008929661
0.055975758
0.03419764
0.0068521625
0.0027618536
0.004321773
0.012707445
0.01182057
0.0021145146
-0.017493883
-0.026044184
-0.007525334
-0.0053378246
-0.02792559
-0.045159
-0.041145075
-0.016323661
0.009634722
0.021341354
0.014986123
0.010919919
0.023002734
0.02958441
0.024649585
0.023789689
0.040340893
0.051562656
0.025411898
-0.0077832425
-0.010324617
0.0016783478
-0.017689148
-0.0428848
-0.014624601
-0.0040122746
-0.029607764
-0.0037756448
0.025195457
0.02296371
0.04644623
0.06055147
0.014070509
-0.046137173
-0.0526684
-0.032515384
-0.028993191
-0.02862707
-0.030742038
-5.009125E-4
0.055469524
0.050817337
0.0011756811
-0.034265116
-0.026675638
0.010271853
0.0068618935
-0.01357232
-0.010479216
-0.012926909
-0.009695076
-0.0015436342
-0.009326682
-0.02798288
-0.024317792
0.041279525
0.086167865
0.0318966
-0.024310866
-0.029544698
-0.04240898
-0.049834315
-0.018849555
0.013705088
0.030949805