-2.3844402E-4
-8.4781685E-5
8.501009E-5
1.02131475E-4
1.6200411E-4
1.859889E-4
1.8145816E-4
1.5039908E-4
5.3226366E-5
8.6268235E-5
1.4940761E-4
9.0644215E-5
2.9813546E-5
4.4641606E-6
-9.4216935E-5
-1.9849457E-4
-1.7775585E-4
-4.266381E-4
-8.153777E-4
-5.910865E-4
-3.398423E-4
-5.154143E-4
-2.8391034E-4
1.2022183E-4
1.190557E-4
1.6846237E-4
2.8826031E-4
2.798471E-4
3.343112E-4
3.4053976E-4
2.837335E-4
3.5062342E-4
4.3332155E-4
4.0978784E-4
3.0194892E-4
2.5298004E-4
3.3949554E-4
4.1243472E-4
4.541467E-4
4.1457327E-4
2.3676877E-4
1.6985749E-4
3.591981E-4
4.391379E-4
1.6975573E-4
3.676647E-4
4.1879425E-4
-0.0012860948
-0.0022367684
-0.0011060865
-0.0011455487
-0.0016528608
-7.2119245E-4
-1.036097E-5
3.149234E-4
5.114389E-4
2.6015716E-4
1.4655468E-4
1.0145984E-4
1.8506045E-4
3.3103462E-4
2.9713011E-4
3.6956742E-4
3.3557438E-4
3.2937978E-4
2.6807975E-4
-6.037529E-5
1.0194257E-4
4.5768952E-4
4.2438862E-4
3.7185336E-4
3.4122122E-4
2.3857414E-4
1.2697985E-4
8.803284E-5
-7.109764E-5
-3.3403264E-4
-3.1509082E-4
-2.9143022E-4
-2.9784816E-4
-1.3010285E-4
-8.240775E-5
-9.460539E-5
-3.0846975E-5
9.73266E-5
1.6923116E-4
1.0653015E-4
1.08044136E-4
9.516874E-5
1.054919E-4
2.000589E-4
2.3450602E-4
2.7474787E-4
2.2791931E-4
1.3211093E-4
3.908485E-5
-5.3072148E-5
-6.3344516E-5
-1.9256974E-4
-2.0891632E-4
-1.6590842E-4
-1.9460963E-4
3.0344763E-5
-3.6453403E-4
-0.0010172506
-5.0647E-4
7.3437615E-5
9.146204E-5
2.957747E-4
2.91876E-4
-1.8726107E-4
-3.9600514E-4
4.5604505E-5
3.1856002E-4
2.128424E-4
3.2166304E-4
2.0615231E-4
-1.5287444E-5
8.725037E-5
1.3742922E-5
-1.1040172E-5
1.1759401E-4
1.16293704E-4
1.5682385E-4
1.13621856E-4
5.571646E-5
8.092673E-5
8.6590895E-5
7.062042E-5
-4.728222E-5
4.1443855E-5
2.6275511E-4
2.829596E-4
2.6159143E-4
1.5563836E-4
1.4938979E-4
1.8044094E-4
2.0336503E-5
2.6035314E-5
-2.9510205E-5
-1.0941826E-4
1.7643391E-5
6.862287E-5
1.7671891E-4
1.1729571E-4
2.0058818E-4
6.876631E-5
-0.0012317094
-0.0011815272
2.1993241E-4
6.010752E-5
-1.04795545E-4
-3.3727707E-4
-0.001579951
-0.0010197349
3.9750576E-4
5.5349997E-4
5.130437E-4
4.577672E-4
5.0607894E-4
3.9273046E-4
-8.400269E-5
2.3389749E-4
6.508238E-4
5.01011E-4
6.017872E-4
5.631418E-4
1.4824633E-4
-4.1705673E-5
1.7594999E-4
5.213236E-4
5.863431E-4
5.7042093E-4
6.3967827E-4
1.2136808E-4
-0.0012650536
-0.0023304918
-0.0017319683
-3.1518863E-4
1.321138E-4
-5.900191E-5
7.026043E-5
1.15934556E-4
-2.3309047E-5
1.610772E-5
7.808954E-5
8.131584E-5
3.764307E-5
-2.2749367E-5
3.6831163E-5
1.7767744E-4
3.0456067E-4
3.2309123E-4
3.512393E-4
4.4943648E-4
3.6718848E-4
2.015486E-4
8.6533786E-5
1.1907054E-5
9.1623384E-5
1.4263332E-4
4.486263E-5
-4.426494E-5
-6.1549246E-5
-9.24858E-5
-1.8801968E-4
-2.3900044E-4
-2.7600504E-4
-2.530858E-4
-1.0994828E-4
2.470135E-5
1.5591504E-4
1.256018E-4
8.898726E-5
2.5226694E-4
2.5057135E-4
2.4431103E-4
1.876686E-4
-1.1520039E-5
3.9654697E-5
-2.6139204E-4
-6.6846446E-4
-3.2132718E-4
-1.3211777E-4
-3.2540213E-4
-2.1998715E-4
-8.017874E-5
-9.55955E-5
-1.4088558E-4
-1.276448E-4
-4.0563746E-6
8.7906665E-5
9.3024784E-5
1.2562552E-4
2.4965813E-4
3.5002932E-4
3.1773094E-4
2.362954E-4
1.6017907E-4
8.065772E-5
1.2338927E-4
1.7776934E-4
8.597798E-5
1.3545112E-4
2.6953107E-4
2.7385715E-4
2.4685077E-4
1.7506663E-4
1.5186281E-4
-1.2179553E-4
-3.047432E-4
2.3607747E-4
2.2205203E-4
-1.5463088E-4
-1.9957693E-4
-0.0011025444
-0.0012490202
2.7610415E-6
2.6933488E-4
1.3308904E-4
2.6489608E-4
1.579891E-4
3.0733095E-4
4.2341658E-4
3.596932E-4
3.014492E-4
2.680106E-4
2.6957033E-4
1.3711324E-4
2.640595E-4
-8.087804E-5
-0.0012075661
-0.0012152642
-3.070185E-4
-3.359816E-5
-3.9416802E-5
1.0453509E-5
-3.151416E-4
-6.215624E-4
-2.8327585E-4
8.151671E-5
1.1235662E-4
2.0260221E-4
2.3458943E-4
3.0885424E-4
4.1652992E-4
3.8802475E-4
4.2600546E-4
3.842888E-4
3.3517138E-4
3.589921E-4
3.1157714E-4
3.4789913E-4
3.3501425E-4
2.8037676E-4
3.5258997E-4
4.6891617E-4
5.2057166E-4
4.2298454E-4
4.8871466E-4
6.338596E-4
4.584557E-4
-1.0040011E-4
-0.0011430872
-0.0019690052
-0.0020989713
-0.001842355
-9.5793535E-4
6.5433785E-5
4.2361906E-4
3.59101E-4
1.6887173E-4
1.06271895E-4
1.9359379E-4
2.1031231E-4
1.9393413E-4
1.336264E-4
8.528323E-5
8.819428E-5
6.7781955E-5
6.495437E-5
1.0172775E-4
1.3327485E-4
1.298845E-4
1.8661188E-4
2.6402788E-4
2.007311E-4
1.1276142E-4
4.2299678E-5
-7.1406714E-5
-1.3529352E-4
-1.1488283E-4
-5.3087966E-5
-1.3735181E-5
-4.072216E-5
-5.5949797E-5
6.4183645E-5
1.4302405E-4
7.1504044E-5
1.4621158E-4
2.7659777E-4
3.1067192E-4
4.0311168E-4
4.4539364E-4
4.5654687E-4
4.1342914E-4
2.1209162E-4
1.0577162E-4
3.8390175E-5
-4.362814E-5
2.3313682E-5
-7.9316625E-5
-3.6850662E-4
-1.6425783E-4
2.4395855E-4
-6.244386E-5
-2.934295E-4
-4.3176571E-4
-0.0017751341
-0.0021433556
-3.9846805E-4
3.7040055E-4
1.5226203E-4
2.576979E-4
-1.0461085E-4
-1.491885E-4
3.411342E-4
2.9204847E-4
1.7377912E-4
2.2376173E-4
2.2097968E-4
3.413427E-4
2.266884E-4
-1.2896226E-4
-7.778307E-5
2.331538E-4
2.6839256E-4
2.545221E-4
3.481234E-4
3.051514E-4
2.6504774E-4
2.9135554E-4
2.7608342E-4
2.617649E-4
1.2701603E-4
-4.4385793E-5
-4.0530518E-5
8.943787E-6
-6.314274E-6
-1.3534795E-4
-2.5393188E-4
-1.3767704E-4
6.7390474E-6
6.471668E-5
1.3208769E-4
1.7738568E-4
2.6030643E-4
9.919683E-5
-3.2409592E-4
-4.1210535E-4
-3.1685314E-4
-3.8396474E-4
-4.841046E-4
-5.0575176E-4
-2.1329157E-4
1.2114762E-4
1.14455535E-4
5.5004417E-5
-4.4558665E-6
-1.20846074E-4
-1.5355932E-4
-8.010388E-5
9.199333E-5
1.7835274E-4
1.1694607E-4
1.3662562E-4
2.6447242E-4
2.8833983E-4
1.9273166E-4
1.980113E-4
2.8888983E-4
3.335995E-4
2.7476E-4
2.1255076E-4
2.2610732E-4
8.223782E-5
3.350949E-5
-4.2143674E-6
-2.2335567E-4
1.3921507E-4
-2.1414731E-4
-0.0017726154
-0.0014421269
8.448616E-5
2.104623E-4
1.7864609E-4
3.464488E-4
1.457225E-4
1.6467224E-4
1.5777606E-4
1.2803664E-4
1.8758069E-4
1.2271406E-4
2.6300148E-4
3.9509803E-4
3.287575E-4
2.745722E-4
2.004459E-4
1.9992043E-4
1.653985E-4
2.1539573E-4
3.2927695E-4
2.2805171E-4
4.0847203E-4
2.6123884E-5
-0.0012401041
-8.25445E-4
5.823076E-4
3.940811E-4
3.1034764E-5
-1.6093727E-4
-0.0013377143
-0.0013268619
1.6793577E-4
4.860973E-5
-0.0010975932
-6.8095425E-4
3.101906E-4
4.0424737E-4
2.8599752E-4
2.899557E-4
2.7717976E-4
3.1833575E-4
1.5660231E-4
-7.2280534E-5
-1.2606447E-5
1.0781615E-4
6.259043E-5
3.975986E-5
1.4005396E-4
8.460749E-5
-2.7438247E-5
2.2595839E-4
5.50819E-4
5.4621475E-4
3.7185033E-4
2.1247486E-4
-2.0959213E-5
-9.271374E-4
-0.0028825577
-0.0054184133
-0.008223239
-0.011014353
-0.013297457
-0.01485639
-0.015114272
-0.01391896
-0.01150919
-0.008105792
-0.004053341
4.8330115E-4
0.004387128
0.006998863
0.0084732175
0.008386665
0.006418969
0.0023278056
-0.0031860466
-0.009728873
-0.017023442
-0.023816444
-0.029670669
-0.03347144
-0.034463633
-0.032507844
-0.026827848
-0.018358791
-0.007012173
0.006657674
0.020277645
0.03346153
0.04429414
0.051624663
0.055685844
0.055032447
0.049846534
0.040275972
0.027262108
0.012315368
-0.0038551497
-0.018866064
-0.031792942
-0.041023675
-0.0449945
-0.044060305
-0.036923457
-0.025281515
-0.010372007
0.0069613936
0.023394564
0.038676582
0.049035672
0.052551325
0.04991066
0.03776221
0.019014644
-0.007832567
-0.04069926
-0.07351901
-0.11204122
-0.11647705
-0.04619276
0.032864448
0.059941243
0.06178831
0.05139658
0.021585487
-0.017599924
-0.0648497
-0.10806236
-0.12616883
-0.12115257
-0.09543751
-0.051265832
-0.0026001604
0.034504402
0.050297074
0.061760493
0.075336024
0.06994023
0.062260553
0.07938648
0.10191152
0.105666
0.10094997
0.09609469
0.07003352
0.029831054
-0.002612136
-0.034798242
-0.049077593
-0.03658864
-0.023716677
-0.01287954
-0.0080288695
-0.0116570955
-0.015812699
-0.028451914
-0.044672973
-0.057385694
-0.062290292
-0.049386606
-0.030035958
-0.016894927
-0.01116871
-0.005960744
-4.0594657E-4
-0.01678149
-0.044419516
-0.050022755
-0.041297164
-0.029153699
-0.0132830795
-0.005419948
0.0016612327
0.01870267
0.026648974
0.021445662
0.015721882
0.009597597
0.013732604
0.02949852
0.04258805
0.049847506
0.045672137
0.03757377
0.032989714
0.024792312
0.02113897
0.014751126
0.002496297
0.007039158
0.019023921
0.02371711
0.0225469
0.012125571
0.0014790961
-0.005371003
-0.016309178
-0.029366996
-0.03621819
-0.032131057
-0.022481665
-0.015066083
-0.014306082
-0.01831073
-0.021020602
-0.024924232
-0.033457227
-0.045682818
-0.052465927
-0.04033935
-0.015552691
0.005274036
0.0143901715
0.011035887
0.0018449688
0.0029549876
0.017204551
0.020477468
0.01295859
0.018731663
0.035023503
0.04822474
0.049066678
0.04409368
0.04455097
0.03659531
0.016563691
-0.0062294686
-0.019966032
-0.01150961
0.004737445
0.017828152
0.02754503
0.03318879
0.035732415
0.006014262
-0.06183378
-0.12977606
-0.16640069
-0.14753272
-0.102717996
-0.07645805
-0.045875885
-9.030518E-5
0.03469662
0.049977638
0.046142265
0.027379576
0.015064829
0.028668601
0.05281488
0.06635267
0.07076029
0.06340561
0.04727587
0.034905247
0.02451955
0.012229334
0.001721174
0.0013361516
0.015234655
0.028851407
0.029440457
0.025556969
0.019579435
0.005564856
-0.01299159
-0.037695404
-0.053614978
-0.04650144
-0.045986578
-0.0498222
-0.03079123
-0.014553806
-0.025818877
-0.047030237
-0.04737844
-0.031090269
-0.023424627
-0.017058967
-0.009154227
-0.01002721
-0.019314697
-0.029109715
-0.029705394
-0.02454859
-5.9996283E-4
0.026409622
0.025242766
0.03688403
0.05705471
0.052374728
0.044204433
0.027909601
0.027514616
0.054487772
0.051103275
0.02403035
0.015690306
0.027296185
0.030529164
0.018785216
0.021806512
0.026899904
0.0067921705
-0.04182004
-0.0941171
-0.12013644
-0.13454993
-0.11607618
-0.07492951
-0.05914283
-0.0041836696
0.08337624
0.108582415
0.075288795
0.025976213
0.018034369
0.041483946
0.015203184
-0.017303156
0.016357966
0.065756015
0.06478013
0.028157806
5.0901924E-4
-0.030682229
-0.0813272
-0.10424789
-0.09129093
-0.081410214
-0.053154472
-0.011125484
-0.0033095027
-0.0059146183
-0.0039477036
-0.00898936
-0.03277055
-0.07065717
-0.03112209
0.053901277
0.080727674
0.10618119
0.105029665
0.045036387
0.05206241
0.107543305
0.07912253
-0.0047560325
-0.0060924105
0.042311836
0.016182575
0.0013305859
0.031783506
-0.0030870808
-0.064793766
-0.09877333
-0.12950274
-0.15547042
-0.15179893
-0.11876879
-0.09956512
-0.06288646
0.015413076
0.07590035
0.12848274
0.1498283
0.086545356
0.021883607
0.017378788
0.02455334
0.03322742
0.08291709
0.13170227
0.11319148
0.06569778
0.027677579
-0.0010395629
-0.011919825
-0.021277359
-0.030932698
-0.030701075
-0.035540417
-0.049920626
-0.057706833
-0.052131385
-0.050345782
-0.055765968
-0.06417639
-0.07449147
-0.06663922
-0.035937224
0.012284722
0.050052162
0.039429646
0.016751938
0.018783877
0.027993126
0.014102639
-0.026088795
-0.021251848
0.03614973
0.064015076
0.05056747
0.01094719
-0.034882724
-0.05717829
-0.067621686
-0.059411492
-0.023691084
0.019437913
0.052611515
0.052308843
0.035178997
0.038020812
0.04200041
0.02306624
6.523509E-4
0.0024781062
0.026743772
0.057678964
0.090233475
0.11451202
0.111949414
0.082061015
0.04849177
0.019716412
-0.017000463
-0.05790739
-0.06379956
-0.0027351107
0.05041936
0.014817573
-0.03711964
-0.04645657
-0.04928334
-0.05004503
-0.053557537
-0.07527362
-0.09794209
-0.08838073
-0.03202036
0.004437568
-0.024212915
-0.0583748
-0.08079775
-0.09514012
-0.07017516
-0.06628968
-0.1244805
-0.14972527
-0.10712194
-0.04374084
0.026167082
0.07100395
0.07878857
0.08481324
0.086967796
0.0841274
0.092944324
0.10835278
0.127207
0.13639665
0.1304616
0.13463071
0.15401784
0.16638957
0.14605877
0.09229553
0.042048343
0.007167031
-0.020529881
-0.021466276
-0.005829486
-0.01290259
-0.044450186
-0.08758102
-0.13027939
-0.16520539
-0.20718735
-0.23286417
-0.19845103
-0.14010048
-0.106287055
-0.074969776
-0.033315845
0.0035122344
0.03654135
0.052970137
0.050626118
0.059934545
0.085496224
0.10823665
0.118450515
0.12701428
0.12914376
0.08694088
0.01242466
-0.05692575
-0.10428667
-0.10132365
-0.065460116
-0.032372274
0.0036363606
0.040993236
0.072333716
0.090065084
0.09950134
0.10266685
0.072328754
0.025714004
-0.004680461
-0.012178026
0.0050622714
0.010730831
-0.006419175
-0.022968804
-0.04925283
-0.094771415
-0.14660552
-0.16902672
-0.14908281
-0.120805286
-0.09585635
-0.06563386
-0.027260227
0.0076971827
0.011676873
-0.021524351
-0.061814487
-0.06502262
-0.030174017
0.028695833
0.13874348
0.2794873
0.35343483
0.3239194
0.27633438
0.24567567
0.18167771
0.1309901
0.13726391
0.16948123
0.19218986
0.11153157
-0.057384335
-0.19860032
-0.30269715
-0.35484427
-0.35718364
-0.36080652
-0.3583778
-0.34403136
-0.3084395
-0.25567755
-0.20720287
-0.14140818
-0.0668711
-0.00660166
0.025448067
0.020841049
0.026509997
0.07380409
0.12951034
0.15971677
0.22446257
0.34628126
0.3712712
0.2773646
0.20012712
0.17084533
0.20716096
0.26790932
0.23758034
0.15160823
0.09964336
0.062631115
0.0010967569
-0.071526036
-0.13252424
-0.17029916
-0.17647533
-0.16148616
-0.13750823
-0.13161026
-0.13697386
-0.11154771
-0.102794826
-0.122861795
-0.13175403
-0.15214635
-0.1297713
-0.06120003
-0.04057992
-0.031592824
-0.017593194
-0.023289884
-0.009832341
0.0039379504
0.013640566
0.04025671
0.062040556
0.08395133
0.08700502
0.060355432
0.056266192
0.08183686
0.10232041
0.094570294
0.06647789
0.052677296
0.057602927
0.072193004
0.08834742
0.0848643
0.06357457
0.038616292
0.01291798
-0.013522846
-0.04424924
-0.07002867
-0.07155609
-0.055131044
-0.04691087
-0.0458741
-0.032878883
-0.016540172
-0.015391322
-0.03411245
-0.05591877
-0.048555963
-0.022627054
-0.008093428
0.0035916783
0.0155839985
0.016444078
0.014561308
0.015955739
0.0033502213
-0.02307242
-0.03036524
-0.009122598
0.027542435
0.060625345
0.05988142
0.040843133
0.03720941
0.032045517
0.0060589057
-0.02378476
-0.030526942
-0.015727606
-9.377708E-4
0.0017959309
-0.0066964617
-0.006268866
0.0010045135
-0.010124525
-0.033478253
-0.062105723
-0.07708404
-0.04610802
0.008073317
0.045200393
0.04753663
0.028478963
0.021746092
0.017247684
-0.0027306909
-0.029812524
-0.04478769
-0.018529152
0.023329288
0.05202875
0.08265633
0.08125549
0.04125572
0.027935779
0.05704756
0.0765206
0.044525273
0.0066453307
-0.0073991753
-0.024969807
-0.002294953
0.037931386
0.033223186
0.03046987
-0.0032609699
-0.06980864
-0.07185168
-0.06652184
-0.10106765
-0.11805076
-0.1142287
-0.10707079
-0.10411575
-0.08447835
-0.038476046
0.014681365
0.06692485
0.077293195
0.07610339
0.11106395
0.092187695
0.018138422
-6.6797854E-4
0.015995122
-0.0050167725
-0.02180822
0.009346177
0.020367023
0.007119533
0.020845098
0.021480968
0.009465116
0.011371269
0.0031950783
-0.007299142
-0.018247042
-0.03269688
-0.03985227
-0.046547398
-0.047012825
-0.04152955
-0.03377896
-0.019053627
-0.004044046
0.012794003
0.029106917
0.04128893
0.052029125
0.056475405
0.056795873
0.0526985
0.04344197
0.032860015
0.018801132
0.0044592
-0.009322382
-0.022571553
-0.032687206
-0.03974462
-0.040528014
-0.03898921
-0.03578822
-0.02824038
-0.021602854
-0.012194199
-5.58808E-4
0.0073752245
0.0140916025
0.018261213
0.019233746
0.01862346
0.01577304
0.011657036
0.0063510085
9.467768E-4
-0.0037349497
-0.0077354885
-0.010269709
-0.011545958
-0.010804222
-0.008720121
-0.0062556607
-0.003590939
-0.0019080109
-1.3146616E-4
0.0026583797
0.005749919
0.00791494
0.0083160475
0.008213234
0.008249811
0.0077056144
0.006925221
0.006267988
0.005533514
0.0047659343
0.004033289
0.0034758162
0.0030717307
0.0026078355
0.0022632082
0.0019735026
0.0014397999
9.4537245E-4
6.4315565E-4
3.6659156E-4
8.227856E-5
-2.1596122E-4
-4.7829552E-4
-7.562033E-4
-0.0010062156
-0.0011358407
-0.0013195814
-0.0014815519
-0.0015307524
-0.0015850756
-0.0015851174
-0.0015320261
-0.0015003828
-0.0015098942
-0.0014502474
-0.0013756749
-0.0014645554
-0.001550093
-0.0017340068
-0.0019343945
-0.0019221406
-0.002023373
-0.0020565165
-0.0019901977
-0.0020229605
-0.002035944
-0.0022216255
-0.0021084892
-0.0022118636
-0.003087913
-0.0028762403
-0.0019600692
-0.0017913943
-0.0016508173
-0.00187447
-0.0022041479
-0.0017072675
-0.0013979095
-0.0015399499
-0.0015199216
-0.0014945199
-0.0015167685
-0.0014538962
-0.0014007527
-0.0014801867
-0.0016749861
-0.0018188406
-0.0017320365
-0.0016786198
-0.0016924313
-0.0015722481
-0.0015809743
-0.0013700314
-0.0017134894
-0.0030630748
-0.002695989
-0.0013908016
-0.0016480617
-0.0017643974
-0.0021727353
-0.0033659535
-0.0026695216
-0.0013238126
-0.0013184588
-0.0012947633
-0.0011120084
-0.0012487042
-0.0012120572
-0.0011898638
-0.0012420176
-0.0011615615
-0.0012445445
-0.001244046
-0.0012133911
-0.0015743726
-0.0016262755
-0.0012871714
-0.001126515
-0.0011105932
-0.0010933847
-9.1522984E-4
-0.0012356541
-0.0017449647
-0.0013255125
-0.001075678
-0.0012577751
-0.001152232
-0.0012661332
-0.0013263961
-0.0012354391
-0.0012411096
-0.0012149569
-0.0013084082
-0.0012563551
-0.001169166
-0.0011449755
-0.001073067
-0.0011410847
-0.0010280353
-0.0010368491
-0.0010430926
-7.559396E-4
-7.939197E-4
-6.2600675E-4
-0.0010930607
-0.0024986027
-0.0021215875
-8.584592E-4
-7.8758923E-4
-8.6551317E-4
-9.287529E-4
-0.0010692852
-9.611097E-4
-9.598971E-4
-9.6063333E-4
-9.0900226E-4
-8.9227787E-4
-8.564574E-4
-9.224149E-4
-9.210294E-4
-7.83367E-4
-7.490803E-4
-7.669481E-4
-7.0787425E-4
-7.1018195E-4
-7.7183574E-4
-7.925973E-4
-8.970918E-4
-0.0010072298
-9.807312E-4
-9.5734344E-4
-9.448527E-4
-8.593948E-4
-8.185871E-4
-8.8045484E-4
-9.0242055E-4
-8.337888E-4
-7.807923E-4
-8.1651384E-4
-8.0668385E-4
-6.4826134E-4
-5.2900874E-4
-4.7950185E-4
-4.5238223E-4
-4.7088627E-4
-5.077262E-4
-5.8309577E-4
-5.286927E-4
-5.358596E-4
-5.69408E-4
-3.018678E-4
-3.2734114E-4
-4.016751E-4
-3.409249E-4
-4.4707145E-4
-1.6079158E-4
-9.391877E-4
-0.0020919226
-9.2836877E-4
-1.493785E-4
-5.879708E-4
-5.332915E-4
-0.0015401916
-0.0020114952
-5.959274E-4
-1.5530494E-4
-0.0011028522
-0.0017616388
-0.0011334072
-1.8289399E-4
-2.2413398E-4
-2.970934E-4
-1.5573442E-4
-1.9791616E-4
-1.4542004E-4
-1.4527074E-4
-2.9924343E-4
-5.940943E-4
-5.461697E-4
-2.3993115E-4
-2.7175996E-4
-2.4069178E-4
-2.1981186E-4
-2.4658395E-4
-1.6635818E-4
-3.6888916E-4
-4.655784E-4
-3.9624196E-4
-4.7980837E-4
-5.9048925E-4
-7.4335234E-4
-7.1380276E-4
-6.14739E-4
-6.2252086E-4
-5.711669E-4
-5.4421206E-4
-4.8676293E-4
-4.8425456E-4
-5.538777E-4
-5.270283E-4
-4.5248907E-4
-3.9730524E-4
-4.5033917E-4
-3.2284614E-4
-1.1077109E-4
-1.5483865E-4
-1.5913558E-4
-1.9187682E-4
-1.9914632E-4
-1.9709687E-4
-4.231144E-4
-4.8485288E-4
-4.7194344E-4
-3.7586334E-4
-2.2083349E-4
-3.2525492E-4
-2.2358912E-4
-3.102588E-4
-7.625225E-4
-6.842423E-4
-2.7337938E-4
-8.744776E-5
-2.8022152E-4
-4.0327097E-4
-2.886295E-4
-3.4234047E-4
-3.3168984E-4
-6.201288E-4
-7.501427E-4
-2.3030174E-4
-2.612803E-4
-1.9480792E-4
-4.981754E-4
-0.0019210778
-0.0015071202
-7.755536E-5
-1.337131E-4
-1.6848954E-4
-7.705343E-5
-2.0223076E-4
1.0399091E-5
-1.5221056E-5
-2.63385E-5
1.2496539E-4
1.3614721E-4
1.6804493E-4
7.993965E-5
9.7939956E-5
1.7648473E-4
6.8357265E-5
3.1146872E-5
1.4711824E-6
1.1500136E-4
1.5350318E-4
-1.9902522E-5
1.9246113E-4
1.953476E-4
1.1766258E-4
1.1883069E-4
-0.0011177915
-0.0015009886
-9.0280926E-5
7.010827E-5
-1.5859153E-4
-4.4341342E-4
-0.0021627177
-0.0022127237
-6.3495524E-4
-2.6802855E-4
-6.0528648E-5
9.183638E-5
-8.6547654E-5
1.429994E-4
-1.5492534E-4
-5.5439235E-4
-1.1323289E-4
1.4251462E-4
3.897308E-5
4.7441543E-5
-2.1901082E-4
-5.0041283E-4
-2.2486539E-4
6.5373104E-5
1.029653E-4
2.2421182E-4
2.4485818E-4
1.7353115E-4
9.3490286E-5
-7.449203E-5
-1.6237744E-4
-2.1469413E-4
-1.6582651E-4
-3.877038E-5
-8.8389716E-5
-1.5504529E-4
-1.9110381E-4
-2.2982046E-4
-2.4179446E-4
-2.743246E-4
-1.9923232E-4
-1.5202706E-4
-2.1830612E-4
-1.3012013E-4
2.6272859E-5
2.4319903E-5
-1.948407E-5
1.9417286E-5
-1.6423306E-5
-1.1696026E-4
-1.9226837E-4
-3.4991902E-4
-3.385794E-4
-1.0233904E-4
-7.607356E-5
-2.3811296E-4
-2.8415595E-4
-1.9070407E-4
-1.18460935E-4
-1.285865E-4
-2.3625842E-4
-2.579531E-4
-2.0558266E-5
1.9112349E-5
-4.3013097E-5
1.474895E-4
1.0373525E-4
-4.077358E-5
-8.610655E-5
-3.4903426E-4
-4.8915483E-4
-2.8040752E-4
-1.1211294E-4
-3.961625E-4
-6.634738E-4
-3.9271117E-4
-3.31457E-4
-4.6765327E-4
-2.7843652E-4
-1.5474265E-4
-4.696715E-5
-1.585271E-5
-2.0429063E-4
-1.3123029E-4
8.890954E-5
1.3043972E-4
1.8438924E-4
3.3020563E-4
3.4123278E-4
2.79562E-4
2.9312307E-4
1.7410028E-4
1.05166706E-4
2.0452248E-4
2.5574764E-4
3.0402615E-4
2.7863667E-4
3.2731643E-4
3.923656E-4
2.747719E-4
3.801312E-4
4.7473255E-5
-0.0013767814
-0.0019673966
-4.6087118E-4
7.5184694E-4
5.030519E-4
5.008865E-4
-3.0199497E-4
-0.0022224772
-0.002049068
-4.473006E-4
2.1139781E-4
4.0699396E-4
5.853427E-4
5.1336875E-4
-3.8300088E-4
-9.963867E-4
-1.6460364E-4
2.4401919E-4
9.806791E-5
3.8138917E-4
3.1650616E-4
5.765112E-6
-3.2170952E-4
-3.606269E-4
5.25474E-5
1.20440294E-4
1.8319709E-4
3.1536448E-4
6.144895E-5
-5.5608063E-5
1.7230164E-5
7.573503E-5
2.7877944E-5
-7.794901E-5
1.1808677E-5
-2.0380461E-5
-1.3998988E-4
-1.7936373E-4
-2.9069115E-4
-2.3964373E-4
-1.2445584E-4
-8.62147E-5
-4.962822E-5
-8.8355264E-5
-2.8732076E-5
7.8476776E-5
1.0861928E-4
6.740167E-5
-1.3631183E-5
1.3274337E-4
1.5200203E-4
-1.1012208E-4
-8.950205E-5
4.276118E-5
-3.0800318E-6
-1.4317296E-4
-2.2699177E-4
-1.3327465E-4
-8.938913E-5
3.0715153E-5
1.933237E-4
1.1575036E-4
1.2122697E-4
1.9975804E-4
2.2620187E-4
5.899189E-5
-3.5822988E-4
-3.4455667E-4
-1.7205824E-4
-2.3578474E-4
-1.85213E-4
-4.3509548E-4
-6.957944E-4
-4.5396067E-4
-2.803431E-4
-2.4372018E-4
-2.6589748E-4
-3.3457956E-4
-2.688348E-4
-2.5931976E-4
-2.1620517E-4
-3.2245374E-5
1.17366755E-4
2.3876436E-4
3.0906592E-4
3.6909588E-4
4.5580234E-4
4.0643953E-4
3.178554E-4
3.4259833E-4
2.9284417E-4
3.1136718E-4
4.529085E-4
3.3148634E-4
2.1685605E-4
1.6857783E-4
-2.0011703E-5
-3.467865E-5
-4.6818426E-5
-3.3951696E-5
2.2879494E-5
9.790823E-5
2.76143E-4
-6.346316E-4
-0.0013917467
-2.7801434E-4
1.4085464E-4
-2.559493E-4
-3.6305073E-4
-0.0013196922
-0.0011414336
3.2726588E-4
4.4793164E-4
2.3130247E-4
2.7755942E-4
4.2642303E-5
5.8877267E-5
6.173364E-5
5.4187305E-5
6.786507E-5
5.0997536E-5
2.3003711E-4
2.0635656E-4
3.4137038E-4
3.6451512E-4
-1.0181777E-4
2.7787944E-4
1.4395695E-4
-0.001364853
-0.0011228988
3.1116616E-4
4.68387E-4
3.618264E-4
3.6420932E-4
1.7371026E-4
1.6201856E-4
6.3476523E-6
-1.475918E-4
-1.772021E-4
-2.0404643E-4
-5.0255047E-5
-6.675712E-5
-1.13997776E-4
6.616196E-5
4.1348747E-5
1.15068794E-7
8.7985754E-5
2.1181455E-5
-4.0582145E-5
2.3444043E-5
8.4279134E-5
8.455377E-5
1.0909289E-4
1.7361801E-4
1.290371E-4
2.3162193E-5
-5.9094426E-5
-1.495189E-4
-1.957504E-4
-1.780506E-4
-1.1839834E-4
-4.185219E-5
1.8927543E-5
4.0723247E-5
6.9588445E-5
1.4495268E-4
1.669828E-4
1.0457974E-4
6.4887895E-6
-5.1002324E-5
-4.472492E-6
2.9503673E-5
-9.666558E-5
-2.391253E-4
-1.4699312E-4
-3.9593804E-5
-1.0523636E-4
-1.5497564E-4
-2.719359E-4
-3.1601146E-4
-1.2396694E-4
-8.502339E-5
-1.9218614E-4
-1.9993728E-4
-1.2958249E-4
-4.6768524E-5
1.9185461E-5
8.82211E-5
6.359668E-5
2.8413031E-5
2.7268115E-5
2.8103548E-5
1.1623056E-4
1.0150637E-4
1.7661613E-4
2.9665363E-4
1.3670961E-4
1.829594E-4
3.0037653E-4
3.0786396E-4
3.91932E-4
3.7218432E-4
4.826998E-4
4.8445302E-4
5.975663E-4
4.1376695E-4
-0.0010172428
-0.0010147536
3.5358052E-4
1.9275933E-4
1.406418E-4
-8.901257E-5
-0.0014132038
-0.001202456
-6.415709E-5
1.9226604E-4
-5.508952E-4
-0.0012730295
-4.1568154E-4
3.6455644E-4
2.2118092E-4
2.617858E-4
-6.519922E-5
-9.4927236E-5
3.026166E-4
7.3558665E-5
-1.3148578E-4
-1.4120578E-4
-2.6712909E-5
2.3041542E-4
2.2106321E-4
2.6549964E-4
2.875514E-4
2.7988138E-4
4.5741044E-4
3.014464E-4
-5.594031E-5
-2.1295312E-4
-2.1504027E-4
-1.8595543E-4
-2.675624E-4
-3.1687279E-4
-2.5250265E-4
1.1584452E-5
2.0890779E-4
7.032026E-5
2.0028063E-4
3.7777587E-4
2.5933856E-4
2.6109922E-4
2.0777064E-4
3.5884776E-4
5.0153513E-4
2.7238225E-4
5.0395017E-4
5.030626E-5
-0.0012769215
-8.519329E-4
4.14529E-4
3.3522258E-4
-7.769212E-5
-1.7809506E-4
-3.7674955E-4
-3.7114834E-4
-3.2455186E-4
-4.505608E-4
-7.579357E-5
-1.08265296E-4
-0.0010844643
-7.865983E-4
2.0459168E-4
1.7088783E-4
2.2869755E-4
8.0708895E-5
-2.3032464E-4
2.3584142E-4
3.348419E-4
1.8406285E-4
3.2174485E-4
1.7114716E-4
9.532418E-5
1.8214763E-4
1.5636923E-4
1.1938502E-5
-1.1308155E-4
-6.737374E-5
-8.20425E-5
-8.2664104E-5
-8.708635E-5
-1.3615722E-4
-1.264027E-4
-1.652199E-4
-4.4610235E-5
2.7608006E-5
2.3718263E-5
1.7116517E-4
1.264779E-4
1.0543302E-4
1.0831839E-4
1.05628445E-4
2.4625438E-4
1.6847627E-4
2.2697997E-4
3.522079E-4
4.129196E-4
5.161614E-4
3.6298035E-4
6.340869E-4
6.390545E-5
-0.0013150121
-4.0584375E-4
5.5302744E-4
2.1628137E-5
1.3002552E-4
-8.708186E-4
-0.0018718047
-4.911237E-4
2.442434E-4
6.338746E-5
3.7105908E-4
-4.191894E-4
-0.0014835736
-8.434986E-4
3.3456166E-4
6.574569E-4
4.750193E-4
2.2637595E-4
1.9748001E-4
2.399795E-4
-3.0406283E-5
7.6159827E-6
2.9977897E-4
2.2567996E-4
2.3835049E-4
2.7821425E-4
2.0944867E-4
2.3645989E-4
1.0089105E-4
9.181933E-5
1.926526E-4
7.4772026E-5
5.4761695E-5
3.987476E-5
-3.328038E-5
-1.9299096E-6
-8.537006E-6
-5.383686E-5
-1.4538692E-4
-2.1761241E-4
-2.6707037E-4
-3.3572046E-4
-2.376081E-4
-2.0873237E-4
-3.1703655E-4
-2.3068035E-4
-1.4616124E-4
-1.6057321E-4
-1.04281535E-4
-7.5813754E-5
-1.0377572E-4
-1.19594646E-4
-8.161083E-5
9.6162075E-5
2.8012577E-4
2.822614E-4
2.8089623E-4
3.515695E-4
3.3200192E-4
2.939935E-4
1.5794419E-4
-7.363136E-5
9.3576255E-6
1.9094785E-4
1.2887051E-4
1.639321E-4
2.717296E-4
2.537623E-4
1.8804937E-4
8.6127795E-5
1.19740354E-4
1.5930737E-4
1.099842E-4
3.3890788E-4
4.8526756E-5
-0.0015065359
-0.0025226371
-0.0014750337
-7.410177E-5
-9.158368E-5
-6.5754796E-4
-0.0011326376
-0.002010324
-0.0028973308
-0.003603422
-0.004151904
-0.0039748065
-0.0032545622
-0.0021314714
-7.3842506E-4
7.257643E-4
0.002576665
0.0042824354
0.0055859825
0.0063029416
0.005768995
0.00437055
0.002305603
-5.029341E-4
-0.004130337
-0.008405643
-0.012702737
-0.016769942
-0.019178908
-0.01994599
-0.01985314
-0.017393392
-0.013349823