6.8971183E-4
-0.0018445548
-0.0038318932
-0.003814809
-7.808642E-4
9.7412814E-4
0.0023233113
0.0032910455
0.0017586488
0.0028103623
0.0048596514
0.0020268632
-0.001369785
-0.0016543689
-0.001272887
-6.2946504E-4
9.6943416E-4
0.002262526
0.0020636788
1.6532524E-4
-7.90076E-4
0.0011208835
0.0011408671
-0.0021029734
-0.0037796209
-0.0030649418
-5.7446363E-4
0.0022363712
0.0025186965
8.549559E-4
-9.043455E-4
-0.001110455
-9.467825E-4
-0.002294155
-0.0020848378
-3.825707E-4
4.379738E-5
4.714687E-4
6.628266E-4
4.7772878E-4
0.001763698
0.0020659051
-7.131456E-4
-0.002902001
-0.002034192
-1.200682E-4
0.00107319
0.0014896024
0.0018713697
0.0022787761
0.0017834535
9.572416E-5
-0.0024162761
-0.0039804894
-0.00311065
-0.0012025257
2.769516E-5
8.2651724E-4
0.002152798
0.0021279932
1.5376326E-4
-2.9808749E-5
2.9558336E-4
-0.0011776177
-0.0019293313
-0.001069838
0.0010967122
0.0020642015
0.001575541
0.0027104453
0.0025322947
0.0014252852
0.0013502118
-7.6505775E-4
-0.0019439636
-0.0010696197
-5.1872316E-4
9.264709E-4
0.0020381568
0.0027202528
-3.7672205E-4
-0.00615796
-0.0041465424
-8.9027226E-4
-0.0018559495
6.453068E-4
0.0014043783
-1.4832814E-4
0.0017408843
0.0024103655
0.0012569537
-8.9983085E-5
-0.0016302542
-0.0022932496
-0.002297589
-7.032354E-4
5.132423E-4
2.1373792E-4
-2.908226E-4
-9.874769E-4
-3.1105813E-4
5.2412906E-5
-6.8310415E-4
-4.255127E-4
-6.401543E-4
-9.01586E-4
4.961835E-4
0.0021691262
0.0021178077
0.0028497276
0.0045337575
0.0021056612
1.5567307E-4
1.316754E-4
-0.0012840587
3.3184953E-4
3.0876446E-4
-0.0012420457
0.0012901272
0.0022397127
0.0024662258
0.0010969194
-0.0020426486
-0.0016682687
-0.0015573325
-1.6340645E-4
0.001472578
0.0024550303
0.0017871222
-0.011117816
-0.014622526
6.1546295E-4
0.0031052108
-0.001800225
-3.989502E-4
-5.636863E-4
-4.4324635E-5
1.733539E-4
0.001519055
0.003591153
0.0013365832
0.0013842443
0.0017908213
-0.0010736104
-0.0021096044
-8.302751E-4
0.002433665
0.00409707
0.0031757464
0.0026685286
0.0016370603
0.0018850319
0.0018045786
-0.0012799236
-0.0023438805
-6.2832097E-4
-1.5991897E-4
-5.60765E-4
1.2287893E-4
5.29211E-4
-3.5124648E-4
-0.0010952943
-0.0013770193
-0.0016257297
-0.0021296383
-0.0016107747
3.8610783E-4
0.0013112231
0.001052573
5.709808E-4
7.3041755E-4
0.0014876646
2.2811395E-4
-0.002036343
-0.0031347806
-0.0027978632
-0.0010588334
4.97848E-4
0.0013014472
6.443031E-4
-4.5617635E-4
4.8522296E-4
0.0010571047
-9.288497E-4
-0.003934281
-0.0033904293
0.0010530696
0.0030512752
0.0037744332
0.003966052
0.0012789737
8.26353E-4
3.9428953E-4
-0.0025105341
-0.0023596832
-9.5742743E-4
1.0099372E-4
0.0010373641
5.340828E-4
8.8323816E-4
9.675409E-4
0.0010375264
9.893625E-4
-0.0020183187
-0.002045419
3.8977902E-4
2.0674233E-4
0.0019774556
0.0032660041
0.0015211805
0.0010337115
3.760044E-4
-4.956525E-4
-7.552259E-4
-0.0012193924
-7.1713177E-4
-6.1406306E-4
-3.0179886E-4
6.436041E-4
-6.6528104E-5
1.21612786E-4
0.0013637155
5.0973904E-4
-0.0017561436
-0.004327265
-0.0041817636
-5.276218E-4
3.0347522E-4
-0.0011677169
1.2201512E-4
-3.0275813E-4
-0.0022482397
-3.8680065E-4
5.9611426E-5
-0.0010517036
1.6952018E-4
-3.226159E-4
-4.788086E-5
0.0015777894
5.9896446E-4
0.0012834107
0.0021764615
0.0010069276
6.5511354E-4
-0.0014641425
-0.0021238138
0.0014288344
0.0028704714
0.0024242166
0.0023974865
0.0021758284
0.0020633293
2.792812E-4
-0.0018767846
-0.0017830799
-0.0011250874
-2.4881941E-4
7.9871254E-4
7.2549656E-4
0.0013198316
0.0021496518
1.1089004E-4
-0.0021334216
-0.0024544608
-0.0025687956
-0.0015184855
3.8071652E-4
0.0019153999
0.002669707
0.0014438196
1.6208814E-4
-0.0010108871
-0.0021535072
-0.0012647302
-0.0017673617
-0.0026920214
-4.9200584E-4
5.93116E-4
1.3677462E-4
4.3272873E-4
5.964307E-4
4.2478958E-5
-0.001385192
-0.0028750326
-0.0036172117
-0.002235831
3.900247E-4
0.0015100163
0.0022840134
0.0025729411
0.0017918259
0.0012804877
8.5134053E-4
6.4241496E-4
-3.4275962E-4
-7.462819E-4
7.404604E-4
6.733833E-4
2.6422017E-4
3.3503355E-4
6.768367E-5
0.0016226232
2.3770193E-4
-0.0045462186
-0.0046690973
-0.0011855671
0.0010175956
6.9503865E-4
-8.1499375E-4
3.2755718E-4
0.0027299775
0.0033018168
0.002973336
4.542116E-4
-0.0020991033
-4.1225526E-4
0.0014933585
0.001532392
0.0010323946
5.9423427E-4
0.00253245
0.0031566878
0.0012405942
-9.021837E-4
-0.0038810086
-0.0022934475
7.9360086E-4
1.443321E-4
0.0010230658
0.0012280801
0.0012222448
8.1689475E-4
-0.0016002012
-0.0016733949
-0.010788084
-0.019222
-0.0061609843
0.0040534395
0.002597039
0.0048418255
0.0040195957
0.0015010877
0.0017797598
2.281514E-5
-6.288954E-4
6.9700234E-4
0.0010772502
0.0010562573
0.001910628
0.0022949947
0.0019808016
0.0022974717
9.177802E-4
4.016647E-5
0.0010692213
3.784725E-4
1.9318377E-5
-4.5198634E-5
-6.0687435E-4
2.7572652E-4
0.0012218729
0.0013738084
-3.5507666E-4
-0.0024160016
-0.002686536
-0.0022846807
-6.7337684E-4
3.639972E-4
0.0015837178
0.0035750233
0.0020768389
1.7612263E-5
-2.5240157E-4
-3.6405175E-4
-7.3762506E-4
-0.0015762976
-8.643582E-4
-0.0011449431
-0.0010715849
0.0018534608
8.2802854E-4
-9.5158146E-4
-0.0010663813
-0.003545416
-0.0034907418
-0.0022488923
-0.0015671994
6.063738E-4
7.9113053E-4
0.0015927643
0.0030451673
0.0016014018
3.4211983E-4
-6.873411E-4
-0.0018531051
-0.001886135
-0.0013943961
-2.7759382E-4
0.0015137461
0.003489383
0.0033194008
8.3665556E-4
-0.0010914883
-0.0022101447
-0.002077823
-0.0010159616
-2.0345104E-4
1.4006604E-4
3.128306E-4
0.0015277526
9.831083E-4
-4.4671207E-4
9.221739E-4
5.9340475E-4
-0.0011033184
-8.328879E-4
9.7771226E-5
0.0015048278
7.923047E-4
-1.4323615E-4
0.001239022
7.8726624E-4
3.8785257E-4
8.40109E-4
-7.224168E-4
-0.001185081
1.7673383E-4
0.0010074067
0.001325234
0.0018852061
0.0011140904
-0.0015672063
-0.0017110902
-2.6277508E-4
-0.0011403089
-0.0029913008
-0.004425052
-0.0024344574
6.769334E-4
-5.203128E-4
-4.9456226E-4
0.0021001573
0.0015478818
-4.7082253E-4
-0.0011788245
-2.7882683E-4
8.392862E-4
7.9602026E-4
0.001413873
0.0015963784
5.375803E-4
3.7742523E-4
-3.6052946E-4
-0.0019948427
-0.0026240253
-0.0021371834
-9.474949E-4
-2.737885E-4
4.234858E-4
0.0014143416
0.0020432489
0.0036233591
0.0027307677
-0.0012563732
-0.002220971
-0.0022403337
-0.0029034682
-4.4999906E-4
0.0017085825
0.0015670725
0.002595638
0.0042942287
0.0032509568
-4.1907243E-4
-0.0017468551
7.657214E-4
0.0030053174
0.0021426266
-9.820446E-4
-0.002548219
-0.0021795442
-0.0022936694
-0.0020844454
-0.0027057347
-0.0043316726
-0.0038838668
-0.001599081
0.0015603559
0.0031892208
0.0027723247
0.0033440795
0.0013025802
-0.002669576
-0.0026920296
-0.0024965224
-0.0019058812
0.0013330422
0.0017772245
9.812264E-4
0.0014257719
7.288966E-4
0.0011876344
0.0022435468
4.3199208E-4
-0.002607695
-0.0033590882
-5.8031245E-4
0.0019138694
0.0014110508
0.0013731994
0.0016002993
-2.153429E-4
-0.0012116593
-0.001599184
-0.0029675658
-0.0029175964
-0.0015285616
1.496182E-4
8.789806E-4
5.1843806E-4
0.001929703
0.0024606753
5.9705914E-4
-3.6133063E-4
-6.358299E-4
8.057403E-5
4.1226664E-5
-2.9120527E-4
0.0027048069
0.0034290561
0.0016567274
0.0012125139
-0.0013918299
-0.0026140823
-0.0014507112
-0.001975687
-7.6968636E-4
3.6980084E-4
-9.7651285E-4
0.0010298471
0.0049140947
0.0036113341
-5.997977E-4
-0.0025805386
-0.003420364
-0.003481258
-0.0025005636
-0.0010312533
0.0015106115
0.0028840848
0.003298568
0.0026423829
-0.0010761365
-0.0035426856
-0.005059349
-0.0062692664
-0.0027069515
0.0011624987
0.0027532496
0.0044289073
0.004528082
0.0028353662
-0.0015692418
-0.0068262853
-0.008114821
-0.00561975
-0.0016110244
8.883322E-4
0.002695047
0.005550712
0.0064957696
0.0062714475
0.0045987233
2.3623549E-4
-0.0021390708
-0.0022882435
-0.0012607942
0.0021319608
0.0029984273
1.296761E-4
-9.3993003E-4
-9.7313874E-5
-6.89581E-5
-8.179134E-4
-0.0013542336
-4.6750478E-4
9.661119E-4
9.842458E-4
2.6153337E-4
8.985336E-4
0.0031221753
0.0026219047
-0.002357373
-0.0058346754
-0.006149187
-0.0060745548
-0.004260336
-0.0014592437
3.3764073E-4
0.0019998448
0.002357588
0.0014377111
0.0014496384
3.9736714E-4
-0.0026313968
-0.0037616547
-0.00170505
0.0010740843
0.0024334886
0.0029836034
0.0034907027
0.00187286
-1.210845E-4
-1.1317626E-4
-6.3820224E-4
-6.053667E-4
1.9451123E-4
-4.4251914E-4
-1.8140508E-4
2.3617517E-4
8.7997835E-4
0.0032963967
0.0022291578
-0.0010372726
-0.0015006042
-0.0018910081
-0.0013457198
7.5164466E-4
-1.013506E-4
-0.0010596382
0.0018604407
0.0038550564
0.0023847816
0.001140852
-7.785478E-4
-0.004571238
-0.0038707603
0.0011982933
0.003026316
0.0016276932
-3.6432603E-4
-0.002082249
-0.0020348406
-0.0023298182
-0.0036073406
-0.002569896
3.6040792E-4
0.0011230276
1.8028617E-4
0.0018968855
0.0030632652
6.8507274E-4
-3.11424E-4
-0.0011223761
-0.003102064
-0.0032491097
-0.0027959873
-7.1926933E-4
0.0018443421
0.002316094
0.0029390047
0.002355143
0.0014351034
9.3553617E-4
-0.0014950343
-0.0018763106
-5.9906894E-4
2.0785823E-4
0.0020276261
0.0016531303
4.3706552E-4
0.0012097817
0.0018484226
4.0897392E-4
-0.003302836
-0.0034764924
2.096482E-4
0.0018823763
0.0024776086
0.0021100792
0.0014758729
0.0015946804
-3.5182084E-4
-0.0022835857
-0.0031356635
-0.0038624734
-0.0030053975
-0.0016927146
-2.0693333E-4
0.0017993833
0.002193657
1.08049244E-4
-0.0013989211
-0.001721076
-0.003349008
-0.0019333339
0.0017223759
0.0013532431
7.2334864E-4
4.6727774E-4
4.696325E-5
0.0020867602
0.0024581223
8.847598E-4
-9.796417E-4
-0.0023447901
-5.751455E-4
0.001185333
0.0023299467
0.0037031355
0.0035721492
0.0031209053
0.0016221633
-3.2984874E-5
-0.0015056785
-0.0038389754
-0.0038555965
-0.0033960955
-0.0023827227
0.001291607
0.0014144316
-0.0015823842
-0.003101167
-0.0043699723
-0.004075975
-0.0015754531
2.719444E-4
0.0017292065
0.003840816
0.0029500884
-4.4123104E-4
3.0376104E-4
0.0033877585
0.0026903735
-0.0013941486
-0.0034916413
-4.8398928E-4
0.0025182294
0.0034717876
0.004078956
0.0025910728
0.001330976
-7.3602167E-4
-0.0053445026
-0.0055668815
-0.00252166
-9.854969E-4
0.0011684824
0.0013681788
-0.0011907931
-1.0174312E-4
0.0029114475
0.0021096028
7.286341E-4
-2.1679045E-4
-0.0023233166
7.729136E-5
0.0037748322
0.0010562673
-7.858503E-4
0.0019909637
0.0022542665
-6.312666E-4
-0.0029442997
-0.0036547645
-0.0037938491
-0.0035908818
-0.0011342594
0.0022493752
0.002702632
8.115016E-4
-3.7936593E-4
2.090419E-4
0.0010438954
2.9554698E-5
-0.001908565
-0.0017115613
3.1310378E-4
0.0016721453
0.003095188
0.004766739
0.0048543913
0.0045231893
0.004051502
-1.79707E-4
-0.007604764
-0.009942766
-0.005091685
-0.0024264012
-0.0029219983
-0.0017136364
-0.002698265
-0.0048754076
-0.0055364524
-0.007275624
-0.0055443826
-0.0010280728
-9.5552E-4
-7.1472756E-4
0.0044754324
0.0096098045
0.011594242
0.012737601
0.012599818
0.01087412
0.012777724
0.014209061
0.0078947265
0.0038588059
0.007013741
0.0045012017
-0.0057496326
-0.012468388
-0.012271956
-0.009761775
-0.008014429
-0.0077619874
-0.010177607
-0.013528855
-0.013176777
-0.009292327
-0.00451323
-0.0076969774
-0.020114848
-0.015504764
-2.591461E-4
-0.008404531
-0.011809155
0.010158194
0.019497572
0.012928182
0.009648587
0.009379995
0.012693169
0.01451454
0.014200432
0.015155301
0.015124365
0.016064508
0.010662683
-9.2207466E-4
-0.0026652755
6.2018743E-4
-4.559872E-4
-2.2797698E-4
3.1259723E-4
-0.0030785357
-0.006832995
-0.0075457343
-0.008596412
-0.013137873
-0.017137233
-0.01816191
-0.017475393
-0.014763851
-0.012027814
-0.0101308385
-0.006673835
-0.0024039508
0.0018773426
0.006076727
0.009776096
0.013246584
0.014456144
0.01462434
0.015560726
0.016639438
0.020096714
0.02027076
0.0137075
0.008072346
0.0031070088
-0.002528297
-0.011459474
-0.024728255
-0.028920373
-0.025936684
-0.025467183
-0.021477422
-0.015458015
-0.011248536
-0.00625964
0.0010306964
0.008659451
0.008564778
0.0050475444
0.0070827915
0.009840321
0.010517303
0.009859527
0.0107567785
0.01520435
0.017909369
0.020391107
0.024795467
0.024639415
0.021836357
0.026472908
0.034347188
0.027801123
0.0078000235
-0.011852031
-0.031279545
-0.04725694
-0.049551997
-0.042868067
-0.039089452
-0.03813797
-0.035596784
-0.036764834
-0.039746027
-0.032442912
-0.015976721
1.1877736E-5
0.013246125
0.027593056
0.040001404
0.04313926
0.040018052
0.03610271
0.03238349
0.022418981
0.006140244
0.00183626
0.005250472
-7.679209E-4
-0.00829749
-0.01425022
-0.014352721
3.355556E-4
0.013106422
0.01813376
0.024319487
0.017683364
-0.007311668
-0.034581117
-0.054882232
-0.058381822
-0.039443802
-0.015748331
2.8770135E-4
0.013799465
0.02212322
0.021947915
0.016481588
0.00901361
0.010963988
0.026269136
0.043768566
0.059567984
0.06995516
0.06822719
0.0534228
0.024034875
-0.008153106
-0.035775807
-0.06848774
-0.085287005
-0.07066414
-0.0536596
-0.05100234
-0.058672935
-0.058327474
-0.036242634
-0.017180366
-0.012861694
-0.004514865
0.020447679
0.050868157
0.059905197
0.056561287
0.061141852
0.061841384
0.04490994
0.012970374
-0.0073936875
-0.020811034
-0.057190713
-0.07740519
-0.06303705
-0.06337401
-0.07816153
-0.07352243
-0.04296278
-5.705001E-4
0.04678671
0.105870456
0.15441237
0.15705149
0.103050806
0.0212082
-0.04464714
-0.10698781
-0.16303402
-0.14838581
-0.060584173
0.056534957
0.18460043
0.292108
0.33685118
0.29637024
0.1806955
0.047476355
-0.054238982
-0.14644548
-0.22663273
-0.25417385
-0.2704009
-0.28418127
-0.25368965
-0.21889506
-0.16518413
-0.07525684
-0.034800123
-0.049952876
-0.07560553
-0.07290173
-0.015440996
0.053696543
0.11945072
0.16009878
0.14862892
0.11652372
0.07827745
0.091467015
0.14214584
0.12568629
0.08145279
0.045008738
0.023356356
0.06332821
0.12105108
0.15732794
0.14036849
0.08774989
0.054760814
-0.06014906
-0.20899585
-0.22191243
-0.18579273
-0.16353975
-0.12654608
-0.11032827
-0.07879106
-0.02580855
-0.021925038
-0.049149502
-0.033817995
0.01673017
0.045486666
0.07460024
0.12034198
0.13975698
0.13154455
0.10007761
0.06606653
0.05089131
0.0081596915
-0.04922252
-0.06721335
-0.0566982
-0.019388923
0.0323959
0.04718458
0.0018052472
-0.085622825
-0.1469638
-0.12668316
-0.06839488
-0.036374986
-0.0348577
-0.03493891
-0.02066055
-0.023054633
-0.047693983
-0.03491641
-0.0031182098
-0.005376867
-5.99598E-4
0.014286205
0.03393649
0.10101941
0.13777596
0.10991562
0.12478719
0.1546217
0.11566598
0.052726686
0.020875746
-0.00706065
-0.08951979
-0.17450038
-0.17206779
-0.13480522
-0.11341689
-0.0806292
-0.049180966
-0.03793507
-0.03184968
-0.013390383
0.01395817
0.03552029
0.059967045
0.084077425
0.08852252
0.085304216
0.086688235
0.086188704
0.0838541
0.08485075
0.095607094
0.111673
0.12702976
0.14808783
0.16609162
0.17342915
0.13938631
-0.0059126965
-0.20665656
-0.3206401
-0.33809537
-0.30624214
-0.24160196
-0.1714986
-0.10555382
-0.055256817
-0.042055868
-0.06551499
-0.100069284
-0.09713954
-0.057115562
-0.028134605
-0.011707296
0.018842865
0.05912301
0.087184116
0.11259078
0.14914441
0.16516127
0.15025336
0.135882
0.12896487
0.1168702
0.09559874
0.06843394
0.043273848
0.025981812
0.013133984
0.0011145736
-0.006819056
-0.0135366535
-0.02166013
-0.0273523
-0.030463116
-0.030179314
-0.02916942
-0.029590033
-0.02726087
-0.022693465
-0.016276374
-0.011627369
-0.012829236
-0.014214267
-0.016134426
-0.018807085
-0.019208997
-0.02328779
-0.029575797
-0.032638818
-0.034227483
-0.033487976
-0.031566907
-0.030584536
-0.028191796
-0.024509909
-0.020810794
-0.017096872
-0.011509522
-0.0015180189
0.00969356
0.018195627
0.02573202
0.032632876
0.03614493
0.037372053
0.03765039
0.035434864
0.033723276
0.034425203
0.033616193
0.031109266
0.027867205
0.022140808
0.015211177
0.011103476
0.01006221
0.00859203
0.007321714
0.0065665822
0.0046328157
9.5428526E-4
-0.0047148615
-0.0060024764
-0.007927847
-0.01709082
-0.021183724
-0.030024877
-0.04546705
-0.041381508
-0.031740468
-0.03283532
-0.033574264
-0.034347057
-0.033643153
-0.034252148
-0.03615292
-0.030591285
-0.023733223
-0.015134139
-0.0049343603
0.0031131294
0.016676044
0.032120287
0.046142783
0.059432834
0.069679
0.07712623
0.07991574
0.082983516
0.070589826
0.036700517
0.023386715
0.028283436
0.024392566
0.02565634
0.03152944
0.032722544
0.020113029
-0.015997784
-0.0509327
-0.06871091
-0.07777246
-0.078239046
-0.07077269
-0.058366247
-0.048150595
-0.045801267
-0.045444734
-0.043802734
-0.039933566
-0.03402095
-0.0281724
-0.018193956
-0.006012746
0.0019283227
0.012810761
0.028698549
0.0396365
0.047467027
0.048765786
0.032028683
0.012921824
0.0073443656
0.0067286035
0.007580532
0.0078241145
0.0028855351
0.0012333753
0.0063313767
0.0099918805
0.01022633
0.009423584
0.009481323
0.01058733
0.009840679
0.008807196
0.009339514
0.009808704
0.011333973
0.01117441
0.0085897455
0.009207072
0.009754204
0.0074446243
0.005265709
0.0013348359
-0.00311669
-0.0052847387
-0.0061915815
-0.006350748
-0.006895941
-0.007782171
-0.009718461
-0.0137319155
-0.01759506
-0.020818321
-0.022694321
-0.0216901
-0.018922787
-0.014793201
-0.010786586
-0.008581129
-0.0061526275
-0.0026812102
2.038171E-4
0.0022414927
0.004755693
0.008099919
0.010130694
0.01017203
0.010606588
0.011143642
0.009681808
0.0075292513
0.006437865
0.005932356
0.0057845376
0.0071054995
0.010202893
0.0135964975
0.016164294
0.017009867
0.015553956
0.012613935
0.010009757
0.0073470874
-6.613686E-4
-0.0107862735
-0.012172438
-0.008723913
-0.0074726283
-0.006870699
-0.0070962557
-0.0050761956
-0.001257196
-9.10502E-4
-6.9511496E-4
6.166064E-4
0.0018823663
0.0057304623
0.009394977
0.00960636
0.008105888
0.0077665704
0.00826451
0.007956054
0.009331494
0.011572603
0.013007589
0.016063426
0.017580755
0.015703602
0.013344985
0.010815264
0.009102804
0.006625256
0.002506875
6.014283E-4
-1.4933906E-4
-0.0011075565
-0.0015334085
-0.002171686
-8.650154E-5
0.003171202
0.0015944743
-0.001668716
-0.0019394933
-8.432558E-4
3.3698964E-4
0.0015342575
0.0022897609
0.0034480237
0.0043193744
0.002437434
-4.7099493E-5
-0.0013383464
-0.0038935302
-0.005118589
-0.002708692
-8.9946203E-4
-5.170845E-4
2.5100607E-4
4.3693642E-4
-4.711906E-4
-0.0013873791
-0.001643829
-0.0019752984
-0.0016844883
2.4171836E-4
0.0012810342
0.0013200998
0.0022718909
0.0016087051
1.3870702E-4
9.036388E-4
-1.5116911E-4
-0.0033516537
-0.0033549643
-0.0010638352
-3.7806065E-5
-8.0879475E-4
3.7830553E-4
0.003962543
0.0033792772
8.8239677E-4
4.851031E-4
-8.6166715E-4
-7.7015633E-4
8.5793744E-4
0.0024240997
0.0044326964
0.002105286
-6.1879336E-4
0.0010732781
0.0014240451
4.2221762E-4
-8.0734823E-4
-0.001897735
-1.036377E-4
0.0020004197
0.0029696268
0.0026411032
6.2432606E-4
-3.5906065E-4
-8.1786537E-4
-0.0030423498
-0.0056106457
-0.005053083
-0.0021503037
1.1880789E-4
0.0019323085
0.0012112403
-5.427748E-4
3.618646E-4
-2.1261685E-4
-0.0023721736
-0.0027295586
-0.0019601635
-0.001260338
-9.5380715E-4
0.0010313754
0.0013277454
-0.00131335
-1.5878018E-4
0.0013234222
-4.6757134E-4
-0.0022866905
-0.0029478283
-1.1426701E-4
0.0018595922
0.0014120498
0.0033856712
0.0031922471
9.723551E-4
5.3241616E-4
-0.0011947767
-0.003146303
-0.0024252017
4.7378847E-4
7.0235017E-4
-0.001536471
-5.00662E-4
-0.0012543696
-0.0033556009
-0.0012357499
-0.0010492249
-0.0014800403
-4.371548E-4
-0.0020285635
-9.59234E-4
0.0029664955
0.0034300894
0.0013572442
-6.734022E-4
-0.0021358153
-0.0033664396
-0.0036537177
-0.0031500596
-0.0024659422
-3.5296602E-4
0.0012542342
0.001287555
0.0013736098
7.4562593E-4
-6.4204173E-4
-0.0024198857
-0.0044892146
-0.005157161
-0.0033408913
-9.3869516E-4
3.009783E-4
0.0013398268
8.009618E-4
-4.4588774E-4
-6.135634E-5
-0.0017745836
-0.00410393
-0.0038936182
-0.0027748102
-1.0277479E-4
0.0017648593
0.002380565
0.0030248375
0.0022821103
0.0017012344
-5.373154E-4
-0.0024367275
-0.0010278885
-7.299707E-4
0.001377084
0.0035771497
0.0025715844
0.0034484891
0.0014362537
-0.0018291792
-6.206449E-4
-0.0012055597
-0.002151221
-0.0017895367
-0.0025101914
-0.0018170754
-7.907109E-4
1.8118093E-4
1.9044215E-4
-0.0025762068
-0.004151168
-0.003949447
-0.004228374
-0.0039963047
-0.0026479717
-5.113779E-4
0.0012117948
4.68054E-4
-0.0019069562
-0.00281023
-0.0030232808
-0.0045684585
-0.005342111
-0.0035150354
-2.3528193E-4
0.0019910866
0.0018194765
0.0015851078
0.0026207464
0.0013003777
-0.0013634026
-4.1257736E-4
7.598597E-4
0.001067308
0.003026556
0.0039528855
0.004859782
0.004403989
0.003127736
0.0031005314
-0.0013548979
-0.0027514158
-0.0014295857
-0.00501666
-0.0011251576
0.003369378
0.0016266525
0.0029324286
0.0017197988
0.0018878325
-0.0043982863
-0.020949993
-0.01629788
-7.210237E-4
0.0014927222
0.003066613
0.0044548707
0.002253117
5.603603E-4
-9.001937E-5
-4.774199E-5
-0.0027598045
-0.0040111695
-0.0027320618
-0.0014676424
0.0017264772
0.002284446
0.0016224546
0.0021910924
-1.0944048E-4
-0.0020581284
-0.0013469436
-0.0011179091
-0.001879919
1.2267187E-4
0.0031059352
0.0024407115
0.001936688
0.001184229
-2.2146659E-4
-8.923054E-4
-0.004349031
-0.003929307
3.9989356E-4
2.1105098E-4
5.3146887E-5
0.0016239355
0.0021680691
0.0014610736
9.446902E-4
0.0012555458
-0.0018048671
-0.0030263586
-3.349697E-6
1.6806541E-4
-1.8230396E-4
-1.5529044E-4
4.8391082E-4
0.0020642066
3.9135767E-4
-0.001087629
-0.0026845816
-0.004359562
-0.0020767336
-0.0027142472
-0.0039870734
3.4456982E-4
0.0029008177
0.002459686
0.0011432469
-0.0017635718
-0.0026162916
-0.0019004039
-0.0020991461
-7.003779E-4
0.0015683846
0.0016656234
0.0015770716
0.0020967657
0.0012396687
-5.152786E-4
-0.0031227437
-0.0045447275
-0.0015591946
0.0013127711
6.9921196E-4
7.645194E-4
0.0018931857
0.0011468135
-2.3246146E-4
-4.614614E-4
-8.961111E-4
-0.0021270325
-0.0012390816
0.002097734
0.0032587028
0.0023150155
0.0027765904
0.002624274
1.0940689E-4
-0.0024794438
-0.0038269644
-0.0040883957
-0.002730038
9.3126006E-4
0.0030812079
0.0018686833
0.0019495896
0.0016504499
-0.0013541502
-0.0037626908
-0.006201901
-0.0070944726
-0.006098545
-0.005339714
-4.88817E-4
0.004221462
0.0028508638
0.0013670082
0.0011789962
9.95482E-4
6.9829175E-4
-7.017423E-4
8.472487E-5
0.0015938794
0.0016393999
0.0020123832
0.0012190826
0.0012048671
0.0021759432
9.357098E-4
-4.0755456E-4
-0.0019460118
-0.0024921582
4.9587945E-4
0.0022780485
0.0019298199
0.002384161
0.0020695233
-1.2622708E-4
-0.003053984
-0.0043230355
-0.003618884
-0.0029082028
-0.0019252838
-7.8269705E-4
5.60546E-4
0.0022607343
0.001967087
5.0646334E-4
-3.8594898E-4
-9.892776E-4
-1.2674856E-4
9.492193E-4
0.0017378919
0.0033782623
0.0035102519
0.0025286484
0.0018697787
8.180506E-4
-9.899855E-4
-0.004696483
-0.0056845215
-0.002191185
-0.0023016967
-0.004062676
-0.0012219731
0.0024477986
0.002979295
8.88898E-4
-0.0010964145
-0.004041383
-0.0066719726
-0.003316734
3.9596845E-5
4.5924733E-4
0.0026144746
0.0022848805
0.0010451485
0.0013851082
-0.0011587832
-0.0029527573
-0.0026691759
-0.0017024477
0.0015646869
0.0030865876
0.0025899815
0.002929065
0.0028503838
0.0023930555
4.9239566E-4
-0.0018580551
-4.1766252E-4
0.0021886348
0.0017867986
0.0013901338
0.0026185983
0.0026633134
0.0024675233
0.0023036487
-9.1563095E-4
-0.004802552
-0.0049461857
-0.002060503
1.8610246E-4
2.4860186E-4
-2.3564011E-4
-2.3938157E-4
-6.796316E-4
-0.0027736067
-0.0038442104
-0.0031912567
-0.004736378
-0.0038095997
-3.6671566E-4
-0.002110807
-0.0020036083
0.0021070743
0.0023874075
0.0019906273
0.0013495237
-8.31998E-4
-0.0011589982
-0.0011570868
-2.6668122E-4
0.001649765
0.0024552783
0.0038425624
0.0038061044
8.1797666E-4
-9.181553E-4
-4.8195347E-4
-6.7976187E-4
-0.001021572
3.5347158E-4
0.0014526644
0.0018146213
0.0020031
0.0014698276
0.001215076
-0.0015551805
-0.004859581
-0.003604145
-0.0016080511
-2.8538675E-4
1.2457604E-4
-5.2167126E-4
0.0010531503
0.0021911785
0.0019481151
7.137956E-4
-0.001919795
-0.0017633284
-4.5760948E-4
-1.7937098E-4
8.1507483E-4
0.002496037
0.0033857722
7.90335E-4
-6.417697E-4
1.8141932E-4
-0.0020089003
-0.0033972189
-0.0035259172
-0.0031441147
-0.0012369639
-0.0016613039
-8.2912215E-4
0.0011973492
3.5515748E-4
7.1593066E-5
-0.0012787066
-0.003170463
-0.0010753126
0.0021176478
0.0035493427
0.0037066417
0.0030309919
0.0021291787
0.0017458497
0.0012203691
4.0202856E-4
-0.0013596917
-0.0027248166
7.721318E-4
0.002855541
0.0011236798
0.0020476447
0.0011672269
-3.4635916E-4
-0.0013724607
-0.0029824134
-0.0024546806
-0.011357709
-0.014598117
0.0024443613
0.008147631
0.0040175426
0.005710109
0.0021124678
2.574231E-4
6.970201E-4
-0.0018229586
-0.0013162191
-6.872135E-4
0.001101429
0.0022584165
4.496963E-4
0.0010213539
0.0012967255
6.4436405E-4
-9.480103E-5
-0.0010122644
-4.792038E-4
-4.9511837E-5
0.001158098
6.2079274E-4
-5.5647054E-4
7.268196E-4
-2.4703745E-4
-5.8159936E-4
-0.001350719
-0.004471608
-0.0027060113
-1.3056793E-4
0.0011753824
0.00266176
0.0013725471
0.001458897
0.0021471947
0.0012657766
-2.142987E-4
-0.0031902168
-0.0026172209
1.7054939E-4
5.5915455E-4
0.0010030898
9.0504956E-4
0.0011210891
0.0017227771
8.060955E-5
-0.0016926607
-0.0039498894
-0.005423361
-0.0019841606
0.0012364233
8.6590904E-4
0.0012584339
0.0016966282
8.656967E-4
2.6584588E-4
-0.0015727647
-0.003021427
-0.0010960761
0.0018214848
0.0029642016
0.0026908661
0.0027320487
0.002703001
0.0015909921
-4.4992144E-4
-0.0029218798
-0.0036383073
-0.0021289212
1.3531405E-4
0.0012875991
2.5556484E-4
3.7982437E-4
0.0013621701
9.4247196E-4
-8.08796E-4
-0.004589219
-0.004337489
-7.2915613E-4
4.1876257E-5
0.002635441
0.004284955
0.0029136394
0.0026610016
5.093682E-4
7.874525E-5
1.9758218E-5
-0.0036514937
-0.003536813
-0.0023484807
-0.0025050351
-5.0759045E-5
0.0018837554
0.0019177868
0.0012717113
0.0016866176
8.021812E-4
-0.002162044
-0.0018854048
-0.00187866
-0.0016174231
0.0022779845
0.002803085
8.9371874E-4
7.00277E-4
3.41225E-4
-0.0012274521
-0.002939832
-0.0018558454
-4.2215188E-4
5.9336313E-4
0.0028460585
0.002450549
0.0012764428
5.5009726E-4
-0.0019057835
-0.0029703765
-0.00265772
-0.0020280746
-0.0011380437
2.448057E-6
0.0026824088
0.0034212596
0.0016754603
6.753307E-4
-9.234148E-4
-0.0024489118
-0.0019276072
-7.678289E-4
-2.631187E-5
7.690158E-4
0.0018069942
0.0025508094
0.002593869
0.0015412087
-4.878479E-4
-0.0029375441
-0.004160703
-0.0023367107
1.2579422E-5
1.02998456E-4
1.2670559E-4
0.0020293214
0.003030519
0.001581445
3.3133858E-4
-0.0015000268
-0.003555697
-0.002455308
-9.1719464E-4