-0.16688463
-0.16198204
-0.16276714
-0.16335832
-0.15741725
-0.14496799
-0.1250863
-0.12532224
-0.13454872
-0.13254698
-0.13367786
-0.13891514
-0.14291462
-0.13303135
-0.118300185
-0.12176846
-0.13455172
-0.14661096
-0.15268503
-0.15535732
-0.15423559
-0.15688942
-0.17404395
-0.16672099
-0.1469136
-0.15373126
-0.15662624
-0.15715457
-0.16050111
-0.15881732
-0.16325146
-0.15207483
-0.14425135
-0.1615239
-0.16635327
-0.15474123
-0.14378843
-0.13832644
-0.12973039
-0.12566344
-0.1473909
-0.15351464
-0.13095155
-0.1234457
-0.122857854
-0.12074893
-0.12653026
-0.13068269
-0.14152256
-0.15417555
-0.14588158
-0.14040835
-0.1525874
-0.15021458
-0.14359048
-0.152188
-0.1572745
-0.15810438
-0.1513701
-0.15115295
-0.17041433
-0.163956
-0.1441978
-0.14400324
-0.13638829
-0.13981822
-0.16227835
-0.16466059
-0.15596072
-0.15203178
-0.14537877
-0.13836893
-0.13861483
-0.14287119
-0.1398251
-0.13414581
-0.13197075
-0.13493994
-0.14076705
-0.13344653
-0.123721294
-0.12857826
-0.13527997
-0.13621746
-0.13291632
-0.1370269
-0.14495674
-0.13734142
-0.13928746
-0.1551082
-0.14943486
-0.14341079
-0.15370521
-0.15040275
-0.13269733
-0.12255522
-0.13518532
-0.15278411
-0.14463001
-0.14438254
-0.16912445
-0.16742077
-0.15089624
-0.15295516
-0.14266352
-0.12851489
-0.13505624
-0.13895856
-0.13963372
-0.13912362
-0.13334966
-0.13711345
-0.13973331
-0.14266217
-0.15030201
-0.13931662
-0.12593132
-0.12595788
-0.13146245
-0.13930483
-0.13774984
-0.14163713
-0.1483816
-0.14475125
-0.1567704
-0.16592415
-0.15723783
-0.14903
-0.13657072
-0.13631558
-0.1338904
-0.12071544
-0.13893533
-0.15320201
-0.13684128
-0.1254714
-0.12298862
-0.1331975
-0.13802683
-0.12680578
-0.13027677
-0.13804232
-0.13556282
-0.1257217
-0.1155075
-0.12289316
-0.1260431
-0.11333065
-0.112343825
-0.13038906
-0.15550594
-0.1685503
-0.16634217
-0.15800379
-0.15137394
-0.15612172
-0.15603438
-0.15121563
-0.15537299
-0.14975365
-0.14581977
-0.155248
-0.15383694
-0.15097271
-0.14907458
-0.13346684
-0.12655105
-0.12784076
-0.11418919
-0.10832548
-0.12824331
-0.14181575
-0.13084488
-0.11784107
-0.11277471
-0.108975574
-0.11099197
-0.11597117
-0.12194942
-0.13227375
-0.14073132
-0.15174156
-0.15234391
-0.13513416
-0.13623501
-0.14579087
-0.13996945
-0.13924323
-0.14217687
-0.14721109
-0.15708162
-0.15549937
-0.14522713
-0.14388068
-0.1507629
-0.13658287
-0.121151485
-0.13994192
-0.13702379
-0.11190527
-0.12103525
-0.13313018
-0.1275391
-0.12018594
-0.12093239
-0.13415113
-0.13027912
-0.11261328
-0.111273274
-0.12359392
-0.13918619
-0.14152054
-0.13023472
-0.1315226
-0.15120418
-0.16176966
-0.15030241
-0.13998671
-0.13848586
-0.14194539
-0.14788216
-0.14538957
-0.1420151
-0.1384567
-0.13658199
-0.1378711
-0.1194263
-0.11386293
-0.14240228
-0.14568885
-0.11956552
-0.10767509
-0.11784612
-0.13444582
-0.13631971
-0.1246833
-0.11202297
-0.10485702
-0.108087175
-0.11362973
-0.11682088
-0.12272726
-0.12900311
-0.13195325
-0.13457538
-0.14046013
-0.15138386
-0.15821914
-0.14678
-0.13538069
-0.13874733
-0.1435738
-0.15258741
-0.15079427
-0.13423046
-0.13424538
-0.136018
-0.13156484
-0.13282803
-0.13291754
-0.14667803
-0.15035617
-0.12522902
-0.11559098
-0.11359507
-0.10672919
-0.11464791
-0.11667595
-0.11144893
-0.11629354
-0.12596183
-0.1353783
-0.13010064
-0.115690775
-0.11268735
-0.11227635
-0.11282748
-0.1208637
-0.12979458
-0.14172624
-0.15223245
-0.14973927
-0.14244957
-0.1377357
-0.13217083
-0.1305846
-0.13524835
-0.13837783
-0.13632251
-0.13500415
-0.14280814
-0.14501207
-0.12859343
-0.12026101
-0.11977204
-0.112060376
-0.119451635
-0.12472665
-0.11826298
-0.12806715
-0.12517858
-0.10902463
-0.110935174
-0.11363222
-0.12027238
-0.12271435
-0.1141305
-0.13141
-0.14604016
-0.13144162
-0.12486659
-0.12760648
-0.1335779
-0.14127521
-0.13406707
-0.13029052
-0.14052008
-0.13789564
-0.12698588
-0.13163093
-0.13871825
-0.1364718
-0.13368748
-0.1302251
-0.13172291
-0.1289541
-0.112289816
-0.10823832
-0.10687443
-0.09982174
-0.115753554
-0.127471
-0.12076137
-0.11651311
-0.1027481
-0.10468979
-0.1263099
-0.122610144
-0.11831895
-0.12918018
-0.13119024
-0.13379759
-0.13348395
-0.13165295
-0.13641435
-0.13266857
-0.12958711
-0.12768647
-0.12414368
-0.13777912
-0.1424718
-0.12799394
-0.12952587
-0.13756843
-0.139184
-0.14217849
-0.13647331
-0.12674193
-0.12286139
-0.12100727
-0.11949105
-0.10952135
-0.09955727
-0.10429578
-0.10339648
-0.0968231
-0.09980772
-0.09798014
-0.10353697
-0.121932425
-0.121997915
-0.11312081
-0.111788794
-0.11455235
-0.12706055
-0.13466711
-0.13272262
-0.13599025
-0.1394609
-0.14189169
-0.1402086
-0.1333303
-0.1354008
-0.1399362
-0.14089428
-0.14438
-0.13907453
-0.12913367
-0.13670272
-0.1434693
-0.12525506
-0.1158154
-0.12356794
-0.11136292
-0.10089606
-0.10336145
-0.0910765
-0.09045411
-0.100609526
-0.09700668
-0.099185035
-0.09629473
-0.09683508
-0.12286652
-0.1295321
-0.116788656
-0.12394945
-0.13716583
-0.13840865
-0.13369146
-0.13455643
-0.13405426
-0.12676261
-0.12565984
-0.12652977
-0.12933011
-0.128089
-0.11357912
-0.11289383
-0.1262543
-0.13536543
-0.13847475
-0.12537476
-0.110098116
-0.109902985
-0.11861135
-0.1209769
-0.10823273
-0.10946402
-0.12279544
-0.114743516
-0.10751339
-0.11327545
-0.112143524
-0.11660779
-0.13005252
-0.12240194
-0.10692016
-0.11966714
-0.12964584
-0.12331761
-0.13107388
-0.13135698
-0.120459974
-0.121676125
-0.11881441
-0.110090084
-0.1097035
-0.119024985
-0.12276344
-0.11371243
-0.117758065
-0.12666748
-0.116133764
-0.10271722
-0.0986467
-0.107505254
-0.12579869
-0.13285805
-0.12673914
-0.12638547
-0.12755379
-0.11175574
-0.10586206
-0.121729024
-0.11651781
-0.10095099
-0.10561009
-0.10931215
-0.104028076
-0.10448809
-0.11638611
-0.12639332
-0.12799986
-0.13366869
-0.13243762
-0.12502727
-0.124246664
-0.11898903
-0.11781956
-0.1185841
-0.11133709
-0.11584712
-0.12352364
-0.1239955
-0.122471794
-0.11340947
-0.11235413
-0.114209585
-0.10950888
-0.11845573
-0.12175793
-0.11703148
-0.12181415
-0.109686345
-0.095627755
-0.097354196
-0.095787644
-0.103173085
-0.10411957
-0.093708955
-0.11244012
-0.1360813
-0.13331039
-0.120730095
-0.11092425
-0.11499626
-0.12821677
-0.13519748
-0.13036981
-0.12171393
-0.12155069
-0.12133112
-0.124678075
-0.13178182
-0.12571298
-0.1196045
-0.11595314
-0.10984378
-0.1047758
-0.094140165
-0.09742609
-0.108451925
-0.1048529
-0.10335594
-0.099880055
-0.096417
-0.10154522
-0.09721412
-0.092574015
-0.10140934
-0.114372306
-0.118307576
-0.12325304
-0.13621074
-0.12658674
-0.11423632
-0.12428051
-0.13307948
-0.14477131
-0.14231731
-0.12903798
-0.13092265
-0.11512867
-0.1073445
-0.12318327
-0.1167387
-0.12044665
-0.13773346
-0.12643461
-0.11066462
-0.11016444
-0.1108244
-0.1029818
-0.09602024
-0.095132925
-0.0981863
-0.11215926
-0.11628036
-0.11283669
-0.11973652
-0.11467783
-0.114997014
-0.11969416
-0.100514114
-0.100675985
-0.11842138
-0.12017654
-0.12508005
-0.12504005
-0.11612065
-0.113762036
-0.11976699
-0.13017736
-0.11823806
-0.106023684
-0.121915706
-0.12255891
-0.11615538
-0.12540172
-0.12549622
-0.12259816
-0.115612656
-0.11009199
-0.11588694
-0.10780711
-0.10845859
-0.11726935
-0.099383205
-0.09466933
-0.10468435
-0.10154731
-0.10572592
-0.10998726
-0.112185985
-0.115337804
-0.10916648
-0.11290878
-0.1262846
-0.13504404
-0.13294089
-0.12587182
-0.13853918
-0.14680749
-0.13537668
-0.13148002
-0.12549898
-0.12518471
-0.14294809
-0.1445316
-0.1334009
-0.13784793
-0.13590525
-0.11170234
-0.09947983
-0.100228116
-0.09488071
-0.09923915
-0.09748742
-0.08429145
-0.08241624
-0.08269984
-0.092301615
-0.10243534
-0.09125852
-0.080595754
-0.08563358
-0.10553135
-0.11818116
-0.12243097
-0.13691576
-0.13771902
-0.14110893
-0.14553896
-0.12201863
-0.120961584
-0.13234176
-0.13002074
-0.13889937
-0.12930381
-0.12241813
-0.13851027
-0.1337191
-0.13104747
-0.13594413
-0.11884554
-0.10614694
-0.10887568
-0.10181968
-0.095454425
-0.109596975
-0.10931688
-0.09396094
-0.09813614
-0.09490488
-0.09040348
-0.108072475
-0.11793514
-0.12122127
-0.12477302
-0.12270946
-0.12707092
-0.12863307
-0.11671696
-0.11178688
-0.12107769
-0.12217833
-0.12863772
-0.1420398
-0.12130597
-0.10406559
-0.1205509
-0.1342485
-0.1443315
-0.13802914
-0.11960518
-0.116722405
-0.10876291
-0.09829243
-0.09641578
-0.09655973
-0.10050407
-0.0987301
-0.099147804
-0.107163675
-0.110185914
-0.10714025
-0.10408512
-0.104412705
-0.09688955
-0.09604815
-0.11170869
-0.11286121
-0.114033915
-0.12579362
-0.1240964
-0.12535018
-0.13233937
-0.13030827
-0.13133699
-0.13459048
-0.12986222
-0.12729792
-0.13251382
-0.1347899
-0.13258113
-0.12840442
-0.13012847
-0.13759011
-0.12688139
-0.1124612
-0.114388086
-0.108887084
-0.09812194
-0.0961196
-0.1022931
-0.11421212
-0.113693945
-0.109435365
-0.12221489
-0.12476004
-0.10320901
-0.09483055
-0.10508853
-0.10754853
-0.10907183
-0.113060705
-0.118102476
-0.12997906
-0.12603763
-0.11353301
-0.11857548
-0.12827848
-0.13369921
-0.13114883
-0.12759927
-0.13737653
-0.14166808
-0.12839904
-0.11541073
-0.11663369
-0.120533176
-0.11307019
-0.10741682
-0.11182888
-0.117211565
-0.117204815
-0.11273008
-0.10768546
-0.10452041
-0.10861439
-0.11435819
-0.11714524
-0.114027396
-0.10015361
-0.09881215
-0.10640952
-0.11106559
-0.12741625
-0.13023634
-0.12832624
-0.14115402
-0.1383835
-0.13991189
-0.14206818
-0.123621695
-0.12433236
-0.131637
-0.12573673
-0.13220668
-0.14322954
-0.14137553
-0.13088647
-0.12631276
-0.118276246
-0.097288966
-0.091364294
-0.09829742
-0.101507984
-0.10857371
-0.10786103
-0.097657636
-0.10006318
-0.11178775
-0.113207445
-0.106159255
-0.10077819
-0.0981017
-0.101174325
-0.109048866
-0.123228244
-0.13820513
-0.14000969
-0.14274722
-0.1424301
-0.13018474
-0.13406181
-0.1337977
-0.11842015
-0.13341255
-0.15463226
-0.14343789
-0.13121554
-0.1367705
-0.13470295
-0.110219635
-0.0954881
-0.1079389
-0.111155756
-0.10105591
-0.10877834
-0.12020199
-0.11724019
-0.117611356
-0.1101432
-0.09122057
-0.0983393
-0.11280474
-0.108313456
-0.11183604
-0.11622058
-0.11204441
-0.122224465
-0.13612539
-0.1356685
-0.13136886
-0.13101837
-0.13672
-0.14608578
-0.13905378
-0.12575324
-0.12919123
-0.1212305
-0.10930587
-0.1232094
-0.13310295
-0.13427545
-0.13036387
-0.11405703
-0.110496946
-0.10905727
-0.101592265
-0.10923032
-0.12089068
-0.1250769
-0.117336385
-0.10498993
-0.10225768
-0.10277263
-0.106164575
-0.11026884
-0.11625346
-0.1294549
-0.13974707
-0.14369945
-0.13746494
-0.13329634
-0.137147
-0.12717205
-0.12582086
-0.14117578
-0.143861
-0.14466037
-0.14057863
-0.12974998
-0.13122116
-0.12458195
-0.1149582
-0.12504093
-0.12672071
-0.11494124
-0.11310063
-0.11654032
-0.11745189
-0.111513294
-0.10462015
-0.11600461
-0.1321731
-0.12656543
-0.112157196
-0.11594684
-0.12603626
-0.120089054
-0.116600566
-0.12086207
-0.12659033
-0.14522451
-0.15206376
-0.14504431
-0.14808284
-0.14439994
-0.14828272
-0.16640192
-0.16340397
-0.15032275
-0.14243615
-0.13371022
-0.13287781
-0.14435293
-0.15717815
-0.15648448
-0.15380953
-0.15935382
-0.15346126
-0.13611068
-0.12869671
-0.13362275
-0.13197882
-0.1297143
-0.14211586
-0.13855137
-0.117510915
-0.117082715
-0.12652434
-0.121554546
-0.10871447
-0.10426574
-0.113310635
-0.12931931
-0.13713494
-0.1271003
-0.1286101
-0.14538082
-0.14338315
-0.13943708
-0.14559077
-0.1515802
-0.16284025
-0.16243309
-0.15939353
-0.17215803
-0.17972454
-0.1938992
-0.2124039
-0.2054545
-0.20560956
-0.21639971
-0.20354392
-0.19529395
-0.1946169
-0.18083684
-0.17771067
-0.17388238
-0.1577894
-0.1488768
-0.1309852
-0.10905432
-0.101045854
-0.08645304
-0.06568555
-0.054297477
-0.051603768
-0.05591192
-0.065037526
-0.06845588
-0.058655355
-0.053641472
-0.060382765
-0.063310884
-0.057428673
-0.044818502
-0.036931977
-0.032278217
-0.036365032
-0.05475487
-0.038820893
-0.011883578
-0.030389678
-0.039228424
-0.031815935
-0.050512947
-0.08128036
-0.120356835
-0.14518672
-0.1543829
-0.18482967
-0.21227516
-0.23654516
-0.28361422
-0.31219476
-0.31172153
-0.32403672
-0.34807652
-0.35607517
-0.3422425
-0.32181925
-0.30889562
-0.29137403
-0.25314927
-0.20696343
-0.1722199
-0.14290375
-0.104437634
-0.06835367
-0.032243185
0.01805269
0.06415246
0.15528116
0.31760857
0.398411
0.3392124
0.2544241
0.18356493
0.119458005
0.06858802
0.024205903
-0.010462484
-0.041415565
-0.07235056
-0.10309454
-0.1353692
-0.15917635
-0.18294506
-0.21296647
-0.24158205
-0.2646507
-0.27392355
-0.28109646
-0.2919704
-0.2900949
-0.27964562
-0.26515165
-0.24160028
-0.21216573
-0.17850837
-0.14702177
-0.12827595
-0.12081168
-0.109586425
-0.090449125
-0.07808582
-0.07079533
-0.06166551
-0.06233332
-0.06865938
-0.06841285
-0.067148656
-0.06744254
-0.07045101
-0.07315095
-0.06632915
-0.060822982
-0.058056477
-0.0460606
-0.03973168
-0.040749528
-0.03158604
-0.02250868
-0.024374062
-0.028147614
-0.0325518
-0.04147594
-0.04894975
-0.055598482
-0.06907852
-0.08461542
-0.09526998
-0.10331366
-0.11669727
-0.12993108
-0.12905186
-0.12761393
-0.13041729
-0.1260676
-0.1270157
-0.12765215
-0.12102548
-0.121903375
-0.12018716
-0.11611187
-0.12089609
-0.121647626
-0.117692545
-0.12047859
-0.12638572
-0.12137594
-0.11043905
-0.10923961
-0.10993696
-0.108978756
-0.10850791
-0.10404214
-0.104046546
-0.10829491
-0.10918936
-0.1089438
-0.10943311
-0.10876324
-0.102272406
-0.09728699
-0.09858569
-0.09775655
-0.094034135
-0.090123825
-0.09259729
-0.09644085
-0.09283968
-0.09326476
-0.091760516
-0.084540464
-0.0858097
-0.08801007
-0.08703069
-0.08543827
-0.08472459
-0.089668244
-0.08864403
-0.08299571
-0.08314063
-0.08287758
-0.07997278
-0.07291108
-0.06894121
-0.075101316
-0.0791776
-0.08006802
-0.08079447
-0.07788947
-0.0761327
-0.074619904
-0.07250519
-0.07571146
-0.07675512
-0.07006714
-0.06771549
-0.070006564
-0.07115493
-0.07412563
-0.069619566
-0.061481312
-0.061461262
-0.061323572
-0.065022275
-0.06758803
-0.06148375
-0.06426565
-0.06653494
-0.05985456
-0.056565143
-0.0542951
-0.05687148
-0.059213605
-0.055387244
-0.05459245
-0.05155783
-0.049621653
-0.053532295
-0.05651719
-0.058502372
-0.05689668
-0.057650648
-0.059945926
-0.056755554
-0.056644235
-0.054109074
-0.05036536
-0.05408313
-0.05087907
-0.046742488
-0.053363893
-0.053125024
-0.045525737
-0.047474213
-0.051037144
-0.046468
-0.04431777
-0.04524479
-0.04477245
-0.045685027
-0.045368228
-0.04357787
-0.03949569
-0.03606579
-0.038567804
-0.040426996
-0.04215798
-0.040517587
-0.033636697
-0.03706721
-0.0420327
-0.036817368
-0.035745338
-0.040846247
-0.041808728
-0.041290123
-0.046042938
-0.044826545
-0.03616729
-0.03566953
-0.03478096
-0.029682864
-0.031331632
-0.035973627
-0.04044346
-0.042778138
-0.043569885
-0.04109901
-0.033735577
-0.032564323
-0.034689363
-0.03685761
-0.037868865
-0.0300246
-0.026540596
-0.026903858
-0.023830755
-0.02666779
-0.027657924
-0.027516669
-0.030636212
-0.027676813
-0.024979314
-0.025997296
-0.02624056
-0.026741652
-0.028327912
-0.029220546
-0.02624008
-0.0248244
-0.025004048
-0.023175456
-0.02361308
-0.02520197
-0.02942707
-0.030000817
-0.024565596
-0.029256046
-0.031047957
-0.022516955
-0.026121065
-0.02920023
-0.02129886
-0.023675807
-0.0282141
-0.021318037
-0.018991074
-0.02227567
-0.020688483
-0.021698408
-0.026159216
-0.025762202
-0.023775196
-0.025041772
-0.02411721
-0.018920058
-0.018357255
-0.02224101
-0.025331954
-0.025344774
-0.01837901
-0.014786042
-0.016329225
-0.015446642
-0.018500665
-0.018302213
-0.016704721
-0.020168032
-0.015738804
-0.015102475
-0.01775345
-0.01173208
-0.014976324
-0.017921684
-0.012292238
-0.015055237
-0.01744947
-0.013946191
-0.012595951
-0.016322117
-0.021155901
-0.019354405
-0.0180451
-0.020343225
-0.021385046
-0.020878272
-0.015200245
-0.009928536
-0.01100028
-0.013353542
-0.013748063
-0.014594138
-0.01718858
-0.016994985
-0.017486425
-0.018565005
-0.014081829
-0.012502548
-0.012573974
-0.010881058
-0.0125413565
-0.012849564
-0.016707681
-0.019490851
-0.010092171
-0.0076992284
-0.015303509
-0.014407631
-0.009983594
-0.011120284
-0.013414153
-0.012529623
-0.010383933
-0.010542343
-0.011187399
-0.008889572
-0.009242515
-0.013147481
-0.010246657
-0.007659189
-0.009229312
-0.0051065944
-0.0062029487
-0.010232455
-0.0088758115
-0.013790532
-0.014422533
-0.010580193
-0.014636455
-0.011188521
-0.0059273615
-0.0108393775
-0.012749362
-0.011964326
-0.012189518
-0.010571219
-0.008223157
-0.0061355825
-0.0078092627
-0.010649603
-0.010109783
-0.008586362
-0.0075574466
-0.007560258
-0.00937519
-0.012282197
-0.0109287985
-0.006766391
-0.009340391
-0.011656488
-0.007843793
-0.0049873097
-0.0026913118
-0.00343422
-0.007539937
-0.0098669175
-0.011222269
-0.0060539795
0.0010392619
-0.00349525
-0.011456589
-0.010432591
-0.003841542
-0.0033033
-0.0069008484
-0.0066229845
-0.009967788
-0.009257859
-0.0017403829
-0.006234525
-0.0102296285
-0.007303146
-0.009164683
-0.0074342894
-0.008468819
-0.010715937
-0.005248101
-0.0076037003
-0.010530405
-0.009211254
-0.010925403
-0.0043308586
-8.421672E-4
-0.0055234404
-0.002928089
-2.3176256E-4
0.0010517412
0.0011611349
-0.0066976408
-0.01085786
-0.0054239584
-5.6975876E-4
-0.0019477358
-0.005937622
-0.0072128037
-0.0037661013
-6.49589E-4
-0.0065414337
-0.012008222
-0.0083789285
-0.0055543804
-0.0027515735
1.1169704E-4
-0.0037530416
-0.008231545
-0.007282559
-0.0030761184
-0.0017920133
-0.0026740818
-0.0040825973
-0.010569405
-0.010380051
-0.0027974024
-0.0039393
-0.0034396534
-0.0011730384
-0.007567473
-0.0040309946
0.0049524205
-2.5158178E-4
-0.0043376074
-0.0026089759
-0.005812403
-0.008044957
-0.008928105
-0.009136231
-0.0068676113
-0.0066703763
-0.002690348
0.001678639
-0.0029529356
-0.0058693956
-0.0030822437
-1.08421875E-4
-9.4796286E-4
-0.0046935375
-0.0033261355
-0.0018571892
-0.0016851926
-3.913257E-4
-0.0030702709
-0.0022598745
-8.3522184E-4
-0.003671835
-0.003254269
-0.00262849
-1.3982615E-4
4.100343E-4
-0.0043502343
-0.0049886317
-0.0055034906
-0.0024201588
0.0034026592
0.001968315
5.7391444E-4
-0.0041244016
-0.0075282785
-0.0046573384
-0.009095583
-0.008717993
-0.0039999355
-0.007801841
-0.007917352
-0.0068794163
-0.0050407182
5.876126E-4
-9.3191676E-4
-0.0018366764
2.5418503E-4
-3.499752E-4
0.0021662773
6.592656E-4
-0.0053147376
-0.005935834
-0.0067647994
-0.0057405564
1.3544637E-4
-1.4969097E-4
-9.2855E-4
0.002480585
2.6095993E-4
0.0017984707
0.007317059
0.0015865889
-0.0040257177
-9.4291545E-4
0.0016684816
-3.7472878E-4
-0.0056211906
-0.0039381306
-3.7131314E-5
-0.0056439857
-0.0064227306
-4.339606E-4
-0.0014398865
-0.0028930623
9.471951E-4
0.0030631337
-0.0013098345
-0.0048185186
-0.0030528423
-0.00658584
-0.008570725
-0.0027353
-0.0041961703
-0.0063132634
-0.0031136067
-0.0048010363
-0.0051081367
-0.0030520905
-0.0021845212
0.0012974818
0.0029109656
-1.8946019E-5
-0.0038909495
-0.0025060144
8.556007E-4
1.5256122E-4
0.0020186987
5.038474E-4
-0.0039517805
-8.3377835E-4
0.0010723867
0.0039192596
0.004556008
-0.0026884994
-7.760842E-4
2.2001105E-4
-0.004416472
8.386854E-4
0.0035687555
0.0020890648
-4.3846059E-4
-0.0083357
-0.008444219
-0.0041583595
-0.0029995623
1.4692254E-5
3.622406E-4
5.580223E-4
0.002313269
-1.3720647E-4
-0.0017842014
-2.587867E-4
-9.781752E-4
-0.002688466
-4.3499537E-4
9.4323774E-4
-0.0017752486
-1.8224298E-4
9.925655E-4
-0.0049963943
-0.005569241
-0.0029611362
-0.0073159104
-0.006043683
-6.368228E-4
-0.0037051984
-0.0029153577
0.0030366287
0.0015548902
-0.0028824313
-0.0063987365
-0.0050097215
0.0017451284
0.0030944753
0.0022606333
0.002808934
5.4519915E-4
-2.899621E-4
3.8621866E-4
0.0035635764
0.0075775357
0.003009353
-4.1978946E-4
0.0030413487
0.0011281535
-5.213652E-5
0.0017050072
-0.0046284623
-0.0071664075
-0.0012824126
-0.003186267
-0.008200628
-0.0054863244
-0.001860434
-9.103386E-4
8.461739E-4
9.709287E-5
-0.0043364135
-0.0045713433
-0.0017211663
-8.9621823E-4
6.4237183E-4
0.0022934764
0.0028335059
5.4751855E-4
-0.0027658849
7.321286E-4
0.005700412
0.0062989313
0.004426951
0.0012490094
-6.3060885E-5
-0.0038835718
-0.006362136
-0.0026453456
-0.0036169477
-0.0035062523
-0.0014680721
-0.0059916093
-0.005698083
-0.0031212869
-0.00443805
-0.002012251
0.0029616128
0.006050237
0.0015160784
-0.0024771017
0.002126945
0.0017149741
-3.1262904E-4
6.2789646E-4
-0.002212893
-0.0012084561
4.0761757E-4
-6.083574E-4
0.0029210665
0.005914421
0.0065660225
0.003979208
-0.001642565
-0.0030092902
-0.0024805022
-0.0016183866
-0.0023517217
-0.0067076967
-0.005132309
-0.0024854033
-0.0056622117
-0.002872224
0.0033957642
0.0034027048
0.002350785
0.0020289712
3.7671888E-4
-3.5810648E-4
-0.0020659864
-0.0043333746
-0.0030402988
-6.978791E-4
0.004684822
0.010709335
0.0051281857
-0.0033655383
-0.0047475016
-0.0050667627
-0.0041045374
-0.0031550352
-9.385652E-4
4.6164865E-4
-0.0040887673
-0.0017945421
3.34913E-4
-0.005263742
-8.443349E-4
0.0022070648
-0.001930859
0.00217547
0.0048971316
0.0026790106
0.0011571682
-0.0021476278
-0.00362879
1.3396177E-4
0.005843338
0.0045634373
1.4017266E-4
0.002725318
0.0051076016
0.0029779717
-1.0341094E-4
0.0015391442
0.004800475
-0.0048105004
-0.0119321905
-0.003180749
-6.5723975E-4
-0.0063638943
-0.007687232
-0.006196379
-0.002342029
0.0018742706
0.0015343423
-0.0023725934
-0.0023182058
0.0010422803
-0.0011836718
-0.0035822769
3.3386028E-4
0.005257561
0.0073474273
0.0034410811
-0.0020362942
6.539237E-4
0.0051451237
0.003129865
7.46415E-4
9.751498E-4
0.0019333899
0.0041501843
0.0033912996
-7.98686E-4
-0.00210586
-0.0026605644
-0.005841342
-0.0055011716
-6.413646E-4
-0.0013522026
-0.005592859
-0.0030691396
-0.0024275442
-0.0064083654
-0.004222138
-3.0298677E-4
0.0028250536
0.005122911
0.0017491241
0.0014809322
0.0040176893
6.2471716E-4
1.1694026E-4
0.004505805
0.0031901742
-4.2070943E-4
7.695438E-4
2.1079862E-4
-0.0019106712
0.0010152094
0.0026814067
0.0025487312
0.0020769686
-0.0015957927
-0.0018587061
-0.003239218
-0.0049889176
3.9989292E-4
-6.954524E-4
-0.0031643175
-4.8983423E-4
-0.0057615824
-0.007275112
-0.003300329
-0.0048417435
-0.0022587231
0.0012755023
0.0013962513
0.0026308203
0.0014286462
0.0022104816
0.005218984
0.0032225044
-0.0011244675
-0.0026015562
7.596724E-4
0.0027395166
0.0016563107
0.0038816344
0.0046925484
0.0023043554
-3.9076465E-4
-0.0034467871
5.421653E-5
0.004138668
0.0010725135
0.0011034544
0.001215211
-0.0029925806
-0.0032444259
-9.3246973E-4
0.003424187
0.005538263
-0.0016515057
-0.0061011673
-0.0030478614
-0.0022978713
-0.0027440481
-4.7586588E-4
-2.6162984E-4
-0.0035610737
-0.0026679132
0.0020896634
0.0026361137
-0.00109823
-0.0034657135
-7.718218E-4
-2.0244483E-4
-0.0032603939
-7.456718E-4
-2.391102E-4
-0.004176451
-0.0024738444
0.0018559619
0.003893627
-4.6848884E-4
-0.005727712
-0.0021374556
0.0021446557
0.005428255
0.008028217
0.0026730876
-0.0010320987
0.0046123127
0.0088626025
0.004516579
-7.703761E-4
-0.0026892659
-0.0041632336
-0.0011092076
0.0014557893
-0.0020983773
-8.4842154E-4
0.004160985
9.5123885E-4
-0.005330113
-0.002520782
6.7693944E-4
-0.0034541104
-0.0025735293
2.0946324E-4
-4.37869E-4
0.0022506248
0.004466667
0.004051166
3.0216628E-5
-0.0028148643
-0.003131165
-0.00990727
-0.0082018785
-4.7921843E-4
-0.002663744
0.0010286028
0.005407764
0.0060794046
0.010677088
0.0017466508
-0.0069149756
2.1383844E-4
4.4542455E-4
-0.004744244
-0.0038664888
-0.0031059582
-0.0037694064
-0.0013866682
0.0028331578
0.0021507354
6.191096E-4
0.0037721829
0.005439542
0.0038052758
0.0024105292
2.5316517E-4
-0.0030223436
-2.1527472E-4
0.003374617
-0.0031534033
-0.002625892
0.0041537574
-0.0034389927
-0.006024315
3.5415223E-4
-0.0036472436
-0.0027722465
0.0046888217
0.0045494274
0.002647719
-0.001003156
-0.002971484
0.0020097601
0.0051902034
0.0038031004
-6.3403364E-4
-0.0038656516
-0.002542671
-0.0015390093
-1.0229027E-4
7.744991E-5
-0.0028267857
-0.002038661
-0.0013277901
-0.004121791
-0.002533567
0.0030573357
0.0028081909
-0.0031777923
-0.0012846689
0.005762391
0.0027604345
-0.002689614
-0.0018006974
-6.9763255E-4
0.0015885179
0.0054040137
0.004337824
-0.0012882757
-0.0038797834
-0.0013239341
-1.5198294E-4
6.111506E-4
0.002073063
-0.0021411758
-0.0050983164
-0.002343784
-9.3584537E-4
8.777369E-4
0.0021197656
0.0021330274
0.0018428882
-0.0039619654
-0.0034734309
0.0065143886
0.0042663314
-0.005882918
-0.0036993579
0.003068178
7.84967E-4
-6.6509045E-4
0.0032481106
0.0031055543
0.005234549
0.0071624257
0.002204599
0.002292779
-0.0015421542
-0.009145088
-0.003306673
-9.4559224E-4
-0.00549452
-0.003866327
-0.0017162268
0.0016805148
0.0011993714
-0.004544785
-0.004161503
-0.0027668728
-0.0010511199
0.0032413765
0.0013534272
-6.79581E-4
0.0038239635
0.004024988
-4.246641E-4
0.001483687
0.0035385685
6.1981596E-6
1.7065197E-4
0.0013531331
-0.0020966928
-0.004183015
-0.0020654188
6.303344E-4
2.6882775E-4
-3.7884532E-4
0.0012494448
0.002177787
0.001973924
0.004030473
0.008108881
0.004324413
-0.0036117928
-0.0012624824
-6.0701603E-4
-0.0062844213
-0.0029726024
0.0010218514
-1.5309863E-4
0.0019558256
6.102034E-4
-0.0045424835
-0.0036527289
3.4859497E-4
0.0019752034
9.783119E-4
-6.693758E-4
3.6645023E-4
0.0016363272
-0.0014705966
-0.0058980393
-0.005702333
-0.0038155175
-0.0024106822
0.004859813
0.00847893
-5.026723E-4
-0.0054352623
-0.0028304695
2.3771288E-4
0.0046757297
0.0031343822
-3.2701687E-4
0.002840571
0.0064945575
0.0063648224
0.002254823
0.001971234
0.0041206144
-0.0032187705
-0.009248355
-0.0061028153
-0.0035519893
-0.002526888