-0.016208762
-0.020530019
-0.011931085
0.0035998719
0.0096972855
0.008703614
0.010335711
0.011073857
0.005231165
-0.0048780134
-0.014920473
-0.017866863
-0.0066286884
0.008033767
0.012100595
0.011608678
0.0117687695
0.00847119
0.0017986409
-0.0068998537
-0.013308251
-0.012278691
-0.0065888893
0.0011556812
0.0076260557
0.0071768276
0.0057905824
0.007976809
0.004763577
-0.0052893125
-0.013752443
-0.015038109
-0.008499183
0.0015934814
0.010618134
0.014596281
0.011462472
0.005309025
2.1239405E-4
-0.005384397
-0.012342772
-0.013937304
-0.0069884825
0.001293113
0.006942774
0.00863756
0.0067524854
0.00669177
0.005046586
-0.0042165415
-0.013843981
-0.014125874
-0.0059403954
0.0033774371
0.01011295
0.013281462
0.011391154
0.0061513777
6.7513494E-4
-0.0056408863
-0.013158932
-0.015271589
-0.009657032
-0.0023726895
0.0051133283
0.00869808
0.0065339915
0.0061536073
0.00395074
-0.004748022
-0.013296027
-0.015511126
-0.00809793
0.002774805
0.01017383
0.014856598
0.013997825
0.008405314
0.0031292813
-0.0032398666
-0.011431371
-0.01367788
-0.0054166764
0.0032724636
0.0073346407
0.009894453
0.00847104
0.006613669
0.0036039834
-0.006225359
-0.014418096
-0.016406294
-0.010825875
0.0033039139
0.013207564
0.014006737
0.009418224
0.0032181432
0.0021138587
-0.0015026719
-0.010250455
-0.013241132
-0.010878603
-0.00227567
0.005982673
0.002020976
0.0010311702
0.007220978
0.004439393
-0.0036367301
-0.011682756
-0.01527346
-0.006518366
0.004112074
0.010335995
0.014859178
0.012328574
0.006143063
9.911276E-4
-0.005746124
-0.010712277
-0.012039605
-0.00894277
5.5885216E-4
0.0091477875
0.011168832
0.010556401
0.008402641
0.0033406604
-0.0031181641
-0.010717831
-0.015137177
-0.009735321
5.153091E-4
0.008020872
0.011697572
0.010597037
0.0066217375
0.0015489833
-0.0061132913
-0.01388941
-0.016350314
-0.009376496
0.0027049575
0.008322698
0.007157425
0.008200733
0.010388549
0.006518619
-0.00257288
-0.010635978
-0.013336253
-0.009964386
-0.002349112
0.007851578
0.014695924
0.012058373
0.0062862597
0.0016927337
-0.0063735982
-0.013599911
-0.014765887
-0.011234092
-0.0023221124
0.006367894
0.007969366
0.007069163
0.006947214
0.0046232548
-0.0018612794
-0.010626444
-0.01346825
-0.0062548835
0.0040651453
0.011128614
0.0143322
0.013634694
0.008322481
0.0013535254
-0.004564666
-0.011153773
-0.014941918
-0.01132826
-0.002939149
0.0053642713
0.007824167
0.006292224
0.006593347
0.0041004433
-0.0036216637
-0.011910255
-0.016373947
-0.011563147
1.7675679E-4
0.009561682
0.014009432
0.015244027
0.012093404
0.0046259295
-0.0034963808
-0.010157161
-0.013552216
-0.010526658
-0.0010922538
0.006699601
0.0059740017
0.0053731585
0.0081267925
0.0047663376
-0.0030923607
-0.011774145
-0.01693695
-0.011431334
-0.0015597504
0.0073581887
0.012884918
0.011129338
0.0075282115
0.0024908024
-0.005455115
-0.011460283
-0.013707955
-0.009672828
-8.135714E-4
0.0073222998
0.010584394
0.008266764
0.0077616656
0.007766094
7.2249246E-4
-0.008971198
-0.014943512
-0.012236275
-8.569522E-4
0.009238683
0.013085714
0.013201694
0.010139652
0.004474496
-9.962326E-4
-0.007984939
-0.01575671
-0.014389993
-0.004796218
0.0029998855
0.0069496115
0.006961196
0.0046697636
0.0022359223
-0.002712164
-0.009988847
-0.014905736
-0.012242139
-0.0016970553
0.00911904
0.012688368
0.011307993
0.0092913015
0.0034551963
-0.004785189
-0.010558543
-0.013701637
-0.010557807
-0.0015693706
0.0055995295
0.007860793
0.0077073253
0.009308449
0.009873369
0.003025255
-0.008288347
-0.014518488
-0.01000155
2.2497351E-4
0.008490549
0.012627448
0.0118705975
0.0076762303
0.0039122985
-8.608408E-5
-0.0099106
-0.019482063
-0.015452476
-0.003138979
0.0057601966
0.0082792295
0.006700891
0.0069404403
0.0058487724
-6.91213E-4
-0.010016842
-0.017959159
-0.014616451
-0.0029570714
0.00561905
0.011742095
0.013606202
0.00963664
0.0040357145
-7.283937E-4
-0.005385926
-0.012649092
-0.01456733
-0.00446622
0.0075293956
0.011841088
0.010199843
0.010166578
0.00829992
-0.001942318
-0.011581981
-0.015678996
-0.01398846
-0.003503626
0.008695044
0.015271926
0.0149431005
0.009547609
0.0045793243
-8.839785E-4
-0.010120372
-0.01666491
-0.014268929
-0.0064502885
0.0022343735
0.007688211
0.00774858
0.007422767
0.0059138583
7.766909E-6
-0.0070498725
-0.013482715
-0.012748901
-0.0023536526
0.008337763
0.014149883
0.0140319085
0.010340777
0.005499785
-0.001830842
-0.009763572
-0.016054431
-0.01582417
-0.0068779304
0.003394858
0.008347593
0.00711788
0.0069048163
0.007889766
0.0021864173
-0.0064769685
-0.014649122
-0.015916428
-0.0042179627
0.006029058
0.008336782
0.0104339775
0.011815828
0.008589693
0.001670193
-0.004910713
-0.01132439
-0.012699202
-0.0041801045
0.004196022
0.008103104
0.008401803
0.0060880347
0.006343223
0.0029483067
-0.007234722
-0.015920602
-0.015979486
-0.0055394075
0.005369341
0.011569639
0.013116838
0.007375849
0.0023022706
-0.0011974571
-0.0075513697
-0.011624452
-0.012764836
-0.00791121
0.0035839153
0.010858334
0.010908882
0.00827665
0.005387531
0.0013670961
-0.006143389
-0.013664905
-0.014260665
-0.0063146455
0.0048202863
0.012723478
0.014329048
0.010244101
0.003908975
-0.0020731722
-0.007499503
-0.012995332
-0.014591205
-0.007245089
0.0021228297
0.0053666555
0.006261565
0.0077750604
0.006128532
0.001109103
-0.0051636593
-0.012785444
-0.013629955
-0.002804852
0.0073929094
0.012333419
0.015005384
0.011846951
0.006192204
0.0015788574
-0.0058498774
-0.013720503
-0.014562446
-0.0074656014
0.0020510291
0.0085881045
0.008096368
0.0048006736
0.004958599
0.0017850684
-0.0079009775
-0.01552886
-0.014766168
-0.0064680814
0.0032117951
0.011266367
0.014630455
0.010739306
0.0056157494
0.0018717584
-0.003489325
-0.011739918
-0.016187232
-0.008311012
0.0023922094
0.0075725755
0.010333012
0.008525379
0.005475766
0.0032468361
-0.00400512
-0.012414528
-0.013933833
-0.0066452874
0.003648372
0.010452285
0.01315277
0.010663919
0.005113833
2.4052382E-4
-0.0054865554
-0.012065776
-0.014215292
-0.0073096463
0.0021852273
0.0055907685
0.0066205477
0.008356269
0.007998557
0.0044468734
-0.0034139955
-0.012722442
-0.015373579
-0.008191607
0.0021936938
0.007759836
0.009621328
0.010147435
0.0064346804
7.712539E-4
-0.004975171
-0.012295153
-0.015216589
-0.010297039
-3.6613783E-4
0.008677527
0.009424163
0.0076510212
0.0070064683
0.0017322145
-0.004391881
-0.010191121
-0.012996679
-0.0054265577
0.005568253
0.012682256
0.014046658
0.011852701
0.011444708
0.006166802
-0.005577567
-0.014131746
-0.015833132
-0.009963516
-3.559585E-4
0.0054496126
0.0053829923
0.004966315
0.0065577156
0.0045849695
-0.0013603704
-0.0099342335
-0.014776563
-0.007832462
0.0014009106
0.007722266
0.010910631
0.005339139
5.589337E-4
8.1047544E-4
-0.0028624362
-0.010228082
-0.01564641
-0.011225265
0.0020997303
0.011106079
0.010055486
0.0062968587
0.005780223
0.0029661546
-0.003878987
-0.010566764
-0.014403089
-0.008123818
0.0046106377
0.012160701
0.013150346
0.01017823
0.007797506
0.0047472557
-0.0022488665
-0.008432818
-0.013442404
-0.013357804
-0.0024975142
0.00721345
0.0065116594
0.003997427
0.0048319427
0.0029105917
-0.004600457
-0.014543302
-0.02003449
-0.013278922
-2.8504114E-4
0.0074689495
0.009647111
0.008670711
0.004936898
-8.896373E-4
-0.006708474
-0.01197672
-0.016581485
-0.013320728
-0.0018010577
0.006920854
0.009386672
0.00926988
0.008247508
0.0065948386
0.002427117
-0.006161748
-0.013155764
-0.01108227
-0.0022570335
0.008034187
0.013545323
0.010899014
0.0061438656
0.0018752489
-0.0037085423
-0.009498276
-0.012853168
-0.010286891
-0.002012824
0.007257833
0.010858275
0.009980772
0.011334551
0.010793669
0.0049975263
-0.0041297297
-0.012409305
-0.009707561
9.72141E-4
0.008970749
0.011874097
0.010065656
0.0069197402
0.0021341639
-0.005188084
-0.012516635
-0.017266402
-0.014748794
-0.00809827
-0.0027986774
-0.0027505322
-0.0067293616
-0.006142987
-0.010931225
-0.019886406
-0.015286386
-0.009609833
-0.005853651
0.00501866
0.013206323
0.019756198
0.022939857
0.018008206
0.013057852
0.005020431
-0.0076184417
-0.014991529
-0.011716163
-3.377007E-5
0.010434415
0.012771548
0.010885289
0.010243273
0.005694767
-0.006396261
-0.019233324
-0.02594915
-0.020108359
-0.008119324
-4.1254543E-4
0.004403681
0.001784159
-0.0050196415
-0.00971928
-0.016046593
-0.014050992
-0.00450402
9.30258E-4
0.0077875545
0.014677218
0.014828875
0.010958987
0.007976539
0.0053931572
-0.0035809383
-0.016826196
-0.026635222
-0.028352542
-0.021868408
-0.013970762
-0.008035255
-0.006958059
-0.008611174
-0.006569756
-0.005725225
-0.008690192
-0.0119134635
-0.009152674
3.270769E-4
0.00429171
0.0040451456
0.00823984
0.015469518
0.02087358
0.018011903
0.010017091
0.0017289136
-0.0028179411
0.0018254045
0.009308477
0.016085083
0.02108441
0.02312916
0.025863484
0.025763167
0.023113549
0.018388992
0.014626854
0.020923477
0.027996192
0.032567173
0.04010812
0.042203702
0.033018425
0.0116232755
-0.01258508
-0.02971142
-0.038685292
-0.03873928
-0.040591724
-0.04881967
-0.061281282
-0.07377851
-0.07527103
-0.07514335
-0.07056626
-0.05426444
-0.04771489
-0.046143416
-0.04033511
-0.041781943
-0.05237824
-0.063120596
-0.058760546
-0.05571645
-0.035476763
0.06120868
0.16450204
0.1885007
0.17665143
0.16042463
0.13685106
0.11162853
0.08077314
0.05652173
0.039512858
0.017682232
0.0036806648
0.003150125
0.005410336
0.0018278238
-0.008696486
-0.018499523
-0.02758606
-0.04332426
-0.06447098
-0.08155794
-0.086274855
-0.07877531
-0.0661177
-0.057150044
-0.055393267
-0.054076027
-0.047819022
-0.040521026
-0.034059398
-0.024778517
-0.011006983
0.005657994
0.019088151
0.024692027
0.027358117
0.029419864
0.02882399
0.026454916
0.018992295
0.008227677
0.0046245693
0.00851027
0.014163735
0.01678538
0.01316895
0.010102356
0.012295815
0.013074388
0.008454663
0.0033710913
0.005071835
0.014799244
0.026304727
0.03236017
0.032407995
0.02998477
0.022587176
0.008367653
-0.006851154
-0.017925095
-0.02165236
-0.016050333
-0.004840797
0.004191982
0.0079179965
0.006860615
-9.4930147E-4
-0.010141986
-0.01469433
-0.019658487
-0.024691524
-0.02250858
-0.011620444
-0.0033414238
-0.0068905884
-0.0112296175
-0.012913321
-0.016312785
-0.017322963
-0.022266624
-0.025634447
-0.0131983375
0.0024818745
0.009665979
0.009399074
0.004910133
0.0025119758
-2.1360113E-4
-0.005445926
-0.009087315
-0.007887073
0.0013483241
0.013230152
0.020714696
0.022888342
0.019318298
0.0138217285
0.008373413
0.0017636807
-0.004417337
-0.010485835
-0.0140384855
-0.00987494
2.5488145E-4
0.006586583
0.0037583434
7.576761E-4
-4.682573E-4
-0.006642852
-0.012297534
-0.015831394
-0.014871302
-5.179919E-4
0.013636152
0.014067855
0.009132548
0.0038893982
-0.0040153665
-0.01448252
-0.018811222
-0.010988252
0.0027348585
0.01589472
0.018419707
0.00902593
0.0011996021
-0.0038968665
-0.009851998
-0.015254427
-0.019545201
-0.019889664
-0.013827043
-3.6314942E-4
0.010013954
0.007163056
0.0012598478
0.0019407102
0.0067845965
0.0054777623
-0.0029653192
-0.00425435
0.0015193825
0.009352384
0.020544112
0.028722428
0.029812107
0.024738904
0.017739814
0.008836689
-0.0033797962
-0.009903375
-0.01275767
-0.015236558
-0.012780282
-0.012272734
-0.013733906
-0.01369351
-0.013188429
-0.009244122
-0.009874264
-0.01722366
-0.020468563
-0.012465811
0.011960285
0.03830295
0.04672409
0.042979274
0.032488897
0.015837055
0.007147751
0.008563721
0.005386231
-0.005340244
-0.01619781
-0.014123207
0.0031546862
0.008994952
-0.006776833
-0.031121941
-0.056401398
-0.060323507
-0.04481376
-0.04029443
-0.031793896
-0.0068715108
0.0112806745
0.02432516
0.041578878
0.056095198
0.04374313
-0.010413857
-0.051535957
-0.04364937
-0.021494592
0.0048945807
0.02704023
0.053931516
0.114592984
0.13803469
0.08470345
0.022861475
-0.02610087
-0.049348116
-0.03751727
-0.036524102
-0.042162538
-0.024062052
-0.02035735
-0.057760786
-0.07935522
-0.06275421
-0.053940985
-0.036649298
0.0029796395
0.03093537
0.0544911
0.07365723
0.0775266
0.044696182
-0.03901905
-0.08298672
-0.0402722
0.0024183395
-0.004813201
-0.017683927
0.009510571
0.035443217
0.021282345
0.016587147
0.057371773
0.10989605
0.09887866
0.03188118
-0.0036438901
-0.021435877
-0.03863606
-0.0259496
-0.028756022
-0.046905085
-0.043018367
-0.042499404
-0.037699632
0.006699951
0.094400555
0.16374373
0.12484599
0.016424373
-0.07756723
-0.1538508
-0.16724186
-0.079634175
0.027595876
0.08453244
0.087061405
0.0528155
0.04888463
0.102250434
0.10931773
0.017010212
-0.09031429
-0.16470219
-0.17319974
-0.0663095
0.052984692
0.060776245
0.004829719
-0.053518996
-0.10823335
-0.12548637
-0.08555581
-0.02922388
-0.017604228
-0.054230317
-0.05646152
0.0024197774
0.023380892
0.0013093951
0.03249161
0.09097309
0.12096598
0.12069498
0.097727284
0.11078361
0.14524397
0.1504668
0.18025547
0.2147559
0.20725217
0.20027758
0.15316276
0.024904624
-0.07640582
-0.08847318
-0.102195516
-0.14408278
-0.13613017
-0.1059034
-0.10664484
-0.1058002
-0.098950244
-0.09934048
-0.109958656
-0.123095475
-0.11098929
-0.08808411
-0.074980535
-0.067362
-0.06382406
-0.057642493
-0.059061166
-0.06784185
-0.0655141
-0.06059663
-0.05596961
-0.03897601
-0.012455897
0.011230328
0.030696245
0.047668852
0.056187447
0.06264462
0.07471838
0.09017379
0.10488514
0.11624148
0.12888578
0.13744068
0.14468184
0.15219347
0.14185299
0.12753811
0.12276208
0.12624727
0.13439822
0.13090973
0.13328229
0.13939959
0.15676457
0.1771302
0.059274368
-0.1515364
-0.24801004
-0.26630378
-0.27040565
-0.24904233
-0.24583912
-0.23652023
-0.21123219
-0.19554627
-0.17376365
-0.1576785
-0.13880703
-0.10983197
-0.08442743
-0.046925567
-0.013332733
0.007386841
0.031143732
0.05129357
0.07163026
0.08778442
0.09911689
0.12271913
0.14514978
0.15492244
0.16199599
0.16092812
0.14102718
0.11277696
0.0892775
0.06624672
0.048073728
0.042130634
0.030096164
5.0178065E-4
-0.024713246
-0.03299739
-0.040116984
-0.04638963
-0.04400497
-0.03899555
-0.030509286
-0.020176955
-0.010174629
-0.004396385
-0.010118472
-0.021319818
-0.050170917
-0.08310208
-0.068716705
-0.026273014
0.003788011
0.02464677
0.036070045
0.034700524
0.009661302
-0.028686892
-0.045389015
-0.047596905
-0.050604545
-0.04620763
-0.03124625
-0.01204031
8.611061E-4
0.0089619355
0.011687143
0.013071706
0.024781244
0.02088215
0.0019915437
0.0061473036
0.016209573
0.016852736
0.021068407
0.014676476
-2.565507E-5
6.466633E-4
0.012160211
0.015296834
0.008147915
0.0043246
0.009460966
0.019508708
0.027642759
0.026990518
0.023234742
0.019813092
0.010634061
8.867821E-5
-0.009422434
-0.01737556
-0.010312749
0.006541436
0.012023953
0.008079407
0.0057238596
0.007603036
0.011436454
0.011420735
0.005276037
-0.0055407574
-0.012408701
-0.009112175
-0.002579668
0.0036622533
0.006976748
0.004441253
4.321334E-4
-0.003314207
-0.005677362
-0.0073677385
-0.007837457
-0.0017349503
0.0057279915
0.008302474
0.008690869
0.0096003115
0.008001666
-0.0017688946
-0.015105407
-0.024493892
-0.025579218
-0.014708237
0.0025763263
0.014277277
0.011750348
0.0049693887
0.005778997
0.0051984685
-0.0012217922
-0.010661054
-0.01789296
-0.020847414
-0.027580122
-0.030837942
-0.030762373
-0.03500107
-0.035955414
-0.035760116
-0.029030176
-0.022706976
-0.02036255
0.020955753
0.08493327
0.11751287
0.11591862
0.08352444
0.05180026
0.04279063
0.02494294
0.0047415504
0.001039041
0.00913166
0.033738516
0.052181486
0.04644933
0.03924879
0.02772039
-0.006694993
-0.045612205
-0.07310003
-0.09622142
-0.10657284
-0.09952376
-0.09004476
-0.07704843
-0.058479346
-0.044768613
-0.035470806
-0.023425778
-0.005341613
0.0054281363
0.0010985718
0.00676504
0.03321559
0.05530462
0.038499355
0.006954854
0.042571947
0.10776541
0.11317097
0.101114444
0.08222414
0.021832254
-0.027218305
-0.044321924
-0.055110388
-0.059790663
-0.0643126
-0.07067333
-0.06457927
-0.045981977
-0.040594377
-0.03711559
-0.02401276
-0.03519789
-0.024366569
0.03310475
0.058525655
0.06241577
0.0853574
0.08912864
0.051383533
0.024605013
0.052518185
0.078981444
0.08944091
0.09686644
0.04189901
-0.032447413
-0.06320223
-0.07932087
-0.07933015
-0.06963401
-0.05229499
-0.024058415
-0.02160001
-0.03697734
-0.04764864
-0.057133645
-0.06724065
-0.073948644
-0.06514703
-0.047316574
-0.026447244
-0.006658178
0.021853149
0.075774126
0.09673335
0.06295439
0.037575174
0.029877705
0.026974935
0.028601682
0.025462251
0.019647501
0.009698295
-0.0016918642
-0.010768125
-0.022680966
-0.034084357
-0.037488967
-0.02883213
-0.014465187
-0.0033541853
0.0035493614
0.009385146
0.011027908
0.007208131
0.0051438
-0.0065750605
-0.0017795439
0.05185684
0.07488014
0.038213465
0.016415417
0.009144661
-0.0024637175
-0.008264005
-0.01861985
-0.029390663
-0.034156743
-0.02832228
-0.006649817
0.012033852
0.014695895
0.0086120935
5.3226436E-4
-0.010497428
-0.020400042
-0.021964626
-0.019518254
-0.014841212
-0.0102759525
-0.008366588
-0.0011359039
0.0062176366
0.008279813
0.009680894
0.0039222552
-0.0077889413
-0.014873223
-0.012402579
-1.4600324E-4
0.00795403
0.0032960174
-0.0032174147
-0.00866288
-0.016920472
-0.024236111
-0.027629003
-0.024382047
-0.013107151
0.0020525574
0.018159283
0.02959163
0.031017816
0.02843371
0.024786368
0.015568761
0.005287909
0.0018698823
0.0070038647
0.018200474
0.028295636
0.03463034
0.038227707
0.030253028
0.010067472
-0.006502168
-0.015367645
-0.02107595
-0.020388642
-0.01265236
-0.0047789146
-0.003417625
-0.0035807998
-8.1748236E-4
-0.0034693882
-0.0097175315
-0.015832001
-0.021036256
-0.00847465
0.014096144
0.019097988
0.012804948
0.007388442
0.0028685008
-3.11706E-4
-0.00752594
-0.016904263
-0.023686979
-0.026112044
-0.020045688
-0.013280685
-0.013522523
-0.015204238
-0.014953361
-0.015594239
-0.018992115
-0.024386277
-0.02771482
-0.019724566
-0.004282132
0.0059710685
0.014749295
0.020801747
0.020261804
0.019313455
0.015442077
0.011575959
0.011878867
0.013965044
0.021115625
0.029770892
0.034636296
0.03659439
0.042512584
0.049849425
0.04958102
0.05350414
0.0402081
-0.008313415
-0.03640779
-0.0340473
-0.03552094
-0.033438105
-0.026950877
-0.020606367
-0.015437581
-0.015166948
-0.01385236
-0.0073679504
0.0094142975
0.0062678345
-0.032315865
-0.051841177
-0.04677894
-0.042781863
-0.033163253
-0.03511683
-0.043321874
-0.032215737
-0.011116106
0.0096878
0.02154274
0.025253564
0.02703778
0.022953112
0.022488004
0.023376225
0.019297933
0.016288027
0.007390263
0.0021575445
0.0069067115
0.008542899
0.012759695
0.01647077
0.016347047
0.016166138
0.0118347695
0.018936759
0.030748831
0.035651777
0.045871574
0.029327063
-0.014386765
-0.035565365
-0.04335279
-0.05282963
-0.057771802
-0.058227584
-0.032767553
0.020748826
0.063858114
0.06168446
0.023827339
-0.007266337
-0.02354885
-0.035635088
-0.038641818
-0.034084573
-0.020091275
0.0018436448
0.01820415
0.023751931
0.020027274
0.012796056
0.00522339
-0.0044643967
-0.011823871
-0.013723401
-0.013187781
-0.01323309
-0.014088844
-0.013842442
-0.012390298
-0.011385292
-0.010747959
-0.009915176
-0.009794917
-0.004541876
0.009009293
0.02106262
0.028260197
0.029921934
0.0242208
0.016516913
0.0052059335
-0.0062186844
-0.009830461
-0.014372574
-0.017891003
-0.0027690737
0.025525907
0.03626463
0.019840213
8.7089697E-4
-0.00952009
-0.015111844
-0.012453287
-0.0028172943
0.012300626
0.02679496
0.033976253
0.03631453
0.030349197
0.021440614
0.009116155
-0.0139985345
-0.018448621
-0.005280564
-0.015669292
-0.03233016
-0.032517105
-0.03300449
-0.033197984
-0.032071628
-0.032739732
-0.028841056
-0.025775164
-0.018785777
-9.819326E-4
0.0128367245
0.017676467
0.016650913
0.011533275
0.0055538095
-0.008625187
-0.024851307
-0.037763566
-0.04862406
-0.010526202
0.07461684
0.10841434
0.07977877
0.056443855
0.03850329
0.00972688
-0.01722987
-0.032914463
-0.029104307
-0.0130647225
-0.0024888795
-6.484362E-4
-0.004991114
-0.015372564
-0.027028337
-0.035239395
-0.049196046
-0.056909952
-0.02038056
0.0421614
0.082368836
0.09562029
0.0783485
0.032556638
-0.007302268
-0.028587366
-0.04044773
-0.041850023
-0.031353436
-0.012693728
0.0042797145
0.011393328
0.010364131
0.0032974589
-0.009586229
-0.019823931
-0.014427889
2.2299391E-4
0.0021698792
-0.012939102
-0.02866686
-0.032825097
-0.030520149
-0.025080461
-0.009354518
0.01084809
0.017776188
0.002963021
-0.018268967
-0.028188447
-0.032628294
-0.024342103
0.0030015667
0.026040535
0.042287756
0.044189513
0.01397337
-0.0090703
0.0028694815
0.021685187
0.03191249
0.033472944
0.0283136
0.024932375
0.022712339
0.017405707
0.009771368
0.0019840382
2.1346357E-4
0.008157422
0.01750531
0.020042052
0.016928192
0.009181739
-0.0018759007
-0.014083336
-0.02796243
-0.04041419
-0.048473757
-0.050747942
-0.045517217
-0.037831552
-0.031367272
-0.023781797
-0.01481328
-0.007537983
-0.0069351927
-0.010164322
-0.0075900457
0.0031600057
0.017124614
0.025504502
0.026137445
0.02476641
0.020203667
0.012771163
0.006444222
-0.0010227867
-0.0063303765
-0.003109504
0.005075831
0.010314381
0.0097958185
0.008417571
0.009176643
0.007992142
0.001471773
-0.007214074
-0.009542459
-0.0029802884
0.0074729915
0.015709773
0.016333941
0.012075713
0.0070568672
6.163085E-4
-0.0064240727
-0.015496722
-0.02079511
-0.013860861
-0.0029031532
0.0041096928
0.004792152
9.809466E-4
0.0015838417
4.1483814E-4
-0.0092348475
-0.01721929
-0.018691286
-0.0122121535
5.159078E-4
0.009238906
0.011567978
0.011073102
0.008363249
0.0027319256
-0.0058225887
-0.012671418
-0.013309221
-0.007106766
0.002257454
0.007760757
0.00882697
0.0076442203
0.0046909056
0.0029658175
-0.0014534435
-0.011062434
-0.015422968
-0.010386433
-5.171859E-4
0.009552755
0.013433616
0.011199129
0.007432995
0.0022146567
-0.0049582706
-0.012243616
-0.016541053
-0.013313843
-0.0017194434
0.0075092376
0.00712303
0.0057507446
0.006454298
0.0038498486
-0.0029157477
-0.011742077
-0.015175014
-0.009286311
0.0011687753
0.0102942055
0.012749544
0.01144733
0.008993179
0.003345123
-0.0016928953
-0.007945453
-0.0141705265
-0.009991245
7.2337437E-4
0.008087965
0.009432573
0.007766965
0.008911183
0.007826077
-0.0014358355
-0.012127427
-0.01805254
-0.015247607
-0.0028347874
0.0077224006
0.009279411
0.008490312
0.0069039925
0.0023769336
-0.0049821264
-0.01456358
-0.017900316
-0.012557416
-0.0038096423
0.005366147
0.0068986956
0.0062134936
0.010505907
0.00810522
7.896761E-4
-0.006575239
-0.01308338
-0.007662785
0.0030394397
0.010448237
0.017386902
0.017990462
0.013718556
0.008536881
5.7804876E-4
-0.008524968
-0.01533554
-0.011908345
-0.0018739721
0.0036056754
0.0057243337
0.005588521
0.0050225826
0.004020939
-0.002450798
-0.010745429
-0.015991718
-0.013511423
-0.0036567803
0.0029287373
0.0072407555
0.011358921
0.0070045404
-0.0014251161
-0.0071437918
-0.013604442
-0.017382124
-0.01348687
-0.004998916
0.0049721017
0.010807893
0.010548663
0.010952906
0.009697513
0.0014870594
-0.00863606
-0.014046007
-0.010125635
4.3135593E-4
0.009416471
0.01295528
0.012116223
0.011171805
0.008284568
6.7255105E-4
-0.0070824614
-0.012099999
-0.010541393
-0.0024500038
0.0050848057
0.008488125
0.008599924
0.010172075
0.008595788
-0.0017212705
-0.011156834
-0.015948102
-0.013266297
-0.0024913265
0.005803131
0.012152917
0.013325644
0.0071426053
0.0038339093
-0.00343367
-0.013878036
-0.016416622
-0.015321819
-0.00823536
9.615867E-4
0.0021774475
0.0030358958
0.005611347
0.0038907456
-0.0018964835
-0.008236203
-0.010842497
-0.008895926
-0.0013205479
0.010103719
0.017566893
0.017599778
0.012979058
0.007926632
0.002845175
-0.0031113618
-0.007248812
-0.006587134
-0.0020431457
-7.3103554E-4
-0.0019599763
0.0021039874
0.0067462767
0.0069794473
0.0032423462
-0.0065430473
-0.015273021
-0.0136264535
-0.0045444192
0.0037273688
0.007263481
0.0077291476
0.0058669285
0.0014457768
-0.0039351396
-0.009160947
-0.0132453665
-0.012917439
-0.0036691446
0.008184775
0.011234051
0.010179495
0.011266571
0.009758804
0.0038235094
-0.005138019
-0.0127504
-0.012323391
-0.0037999197
0.006578873
0.011371795
0.010429244
0.008732187
0.004668803
-0.003149733
-0.01064021
-0.014552364
-0.012203086
-0.004030219
0.0042187376
0.0076612043
0.006803634
0.0056383563
0.004990751
0.0010904594
-0.007980055
-0.016732363
-0.015681665
-0.005051926
0.005157962
0.010688688
0.012345948
0.010349805
0.007466589
0.00309209
-0.005339367
-0.012204855
-0.011616786
-0.004890862
0.0034967803
0.00791188
0.0074522546
0.0069873715
0.0065437476
6.4521824E-4
-0.00992052
-0.016179284
-0.012979474
-0.0037049537
0.006128246
0.012055866
0.012205871
0.008300318
0.0030578568
-0.001827751
-0.0068806387
-0.012680314
-0.014367835
-0.006654813
0.0039339447
0.007807413
0.00750549
0.006931857
0.005219261
0.003083231
-0.0027054676
-0.011938872
-0.013442148
-0.004342517
0.0061844625
0.012871621
0.014250332
0.010177638
0.004989456
-5.909374E-4
-0.009158479
-0.015113045
-0.012904822
-0.00477174
0.0037792707
0.005875675
0.003789284
0.005066163
0.0063934964
0.0021329268
-0.0065192073
-0.0140873855
-0.0139074875
-0.00560682
0.0037748262
0.008916859
0.011900462
0.012905552
0.007901782
-4.5527125E-4
-0.008048273
-0.012424232
-0.010740968
-0.004655793
0.0030989219
0.0070055462
0.005466701
0.005982097
0.0063774977
0.0014561613
-0.005869559
-0.012656948
-0.0126332715
-0.004182907
0.005230187
0.0111699505
0.012506428
0.010046847
0.0058575263
7.673737E-4
-0.0061543295
-0.013517518
-0.014711592
-0.0081952885
0.0010934654
0.006283714
0.0052001504
0.006031776
0.007871852
0.00407481
-0.002658812
-0.011649477
-0.015322041
-0.006923375
0.0038848885
0.011666434