0.045712367
0.025348058
0.008863085
-0.002769724
-0.0011880334
0.019159278
0.04008142
0.042099565
0.027209066
0.002104275
-0.025740907
-0.04519633
-0.065899596
-0.08479537
-0.080501005
-0.07063989
-0.070161335
-0.06254989
-0.044489477
-0.023112686
-0.011427148
-0.022823818
-0.04267875
-0.043127697
-0.017636884
0.026441311
0.07177718
0.08855587
0.079268634
0.06780571
0.051296778
0.025182694
0.004288361
0.010005041
0.026407994
0.016624574
0.0042067
0.019013079
0.04402938
0.05087101
0.020991921
-0.015226891
-0.033081234
-0.04956253
-0.051734556
-0.025369111
0.023370557
0.07405491
0.09062241
0.08479545
0.0758546
0.037854522
-0.031671215
-0.08209693
-0.080447786
-0.07483363
-0.09205252
-0.08612382
-0.059673067
-0.039021097
-0.025162399
-0.027395384
-0.027065583
-0.014854249
-0.010482336
-0.0034935153
0.006206649
0.0031962926
-0.0044428064
-0.011096399
-0.015068107
-0.016756086
-0.01202615
0.016801182
0.0493933
0.055035494
0.056285292
0.060743153
0.046747353
0.025875347
0.013302136
0.008599864
0.008709888
0.007078465
0.011758866
0.025320997
0.03580518
0.035903636
0.022072202
0.01133024
0.008294883
-0.0044657616
-0.011052464
-0.010721482
-0.02784162
-0.041096482
-0.029102774
-0.009844612
-0.0020407273
-0.0053848634
-0.0054090605
0.001169661
0.0057395822
-9.123142E-4
-0.023648838
-0.044616282
-0.0489228
-0.044358104
-0.039477944
-0.041705713
-0.04386386
-0.03383547
-0.022455757
-0.009369275
0.014216876
0.03505816
0.047455058
0.05245283
0.044790216
0.030285098
0.016072197
0.0065457337
0.007496573
0.015829546
0.02121903
0.020163398
0.023258787
0.028507609
0.020485217
0.005363627
-0.0053935964
-0.006978432
0.0020086467
0.0059019295
-0.0013267798
-0.0036567552
0.004854609
0.007462651
-0.0039158724
-0.011877822
-0.014807075
-0.019477919
-0.019105779
-0.020204188
-0.023014605
-0.017043402
-0.0015539167
0.01420835
0.00906711
-0.009269502
-0.017315153
-0.014615289
-1.948072E-4
0.010244836
0.0058128573
0.007802996
0.015127104
0.013550215
0.0031058947
-0.010897995
-0.018701548
-0.017972989
-0.012018622
-0.0059562987
-0.0043016514
-0.0054742997
8.9306844E-4
0.018228747
0.019154457
-0.0024942486
-0.018486084
-0.021231536
-0.012151579
-8.146168E-5
0.0082511455
0.024975892
0.047179054
0.060685355
0.04716979
0.012662373
-0.0018801343
0.0023294701
-0.0059685134
-0.02888974
-0.042206302
-0.028929159
-0.007635693
0.010559201
0.019407926
0.0041637896
-0.0151711665
-0.030210251
-0.04523776
-0.04444135
-0.037413605
-0.02277654
0.011251102
0.032206014
0.030716127
0.030086325
0.020873314
-1.2682765E-4
-0.0063758246
-8.0635055E-4
-0.0017281405
0.0052452222
0.029566705
0.049238253
0.046302013
0.028545981
0.009671168
-0.010875099
-0.032301117
-0.045176398
-0.041319646
-0.021648528
-3.1031985E-4
0.013162064
0.013852424
0.001995611
-0.0061517954
-0.009195617
-0.015943121
-0.020147098
-0.018225294
-0.008144634
0.008538328
0.02078972
0.022753762
0.010302093
-0.010686577
-0.018725427
-0.009451777
9.2237786E-4
0.0058837277
0.0075982474
0.0082775215
0.01650282
0.027145397
0.019121036
-0.0025743018
-0.013902044
-0.014175051
-0.014874228
-0.013744254
-0.0061474945
0.006049921
0.015345015
0.011111855
-0.002648175
-0.015849303
-0.022301374
-0.0146207735
-0.003214167
0.004371501
0.01813233
0.034935556
0.04374349
0.029974021
-0.0024294457
-0.021581648
-0.02239849
-0.01795334
-0.014651891
-0.016377674
-0.01163645
0.0010039591
0.011404744
0.01464546
0.004594755
-0.011311297
-0.01968807
-0.016798964
-0.011310286
-0.010497
-0.004525409
0.002748915
0.0027470808
0.002088719
-0.0010451367
-0.0038509707
1.744276E-4
0.008254688
0.020154092
0.03266409
0.040810805
0.043967243
0.046551242
0.044308618
0.021579897
-0.017273784
-0.05264494
-0.06780726
-0.05846543
-0.041450296
-0.026587611
-0.008833961
0.010878805
0.019102188
0.007846266
-0.00633378
-0.012494512
-0.014877007
-0.015197151
-0.013634313
-0.00333189
0.013812471
0.029810674
0.036089774
0.015187661
-0.012571569
-0.013390215
-0.0019667412
0.0044351257
0.009870698
0.018759225
0.034540616
0.04582184
0.034695994
0.010162343
-0.0019042908
-0.0045128744
-0.014969934
-0.023280406
-0.024262665
-0.025222728
-0.012236532
0.008740857
0.0040641776
-0.019265197
-0.03237615
-0.035373703
-0.033896163
-0.02311049
-0.0025709472
0.016660528
0.02793376
0.036197625
0.0347434
0.018856954
0.0014640931
-0.01123997
-0.020075483
-0.024095086
-0.020592235
-0.01108286
0.0037231247
0.029705832
0.04527106
0.03222654
0.017067607
0.008658617
-0.0060385508
-0.015657134
-0.010497879
-0.004446274
-0.0036306384
0.0014805302
1.7793539E-4
-0.0150883915
-0.022542166
-0.015343661
-0.0053098635
-0.002527702
-0.0055167507
-0.0025243643
0.008204473
0.025976678
0.03461824
0.020218067
0.0064494186
-2.8951044E-4
-0.010279109
-0.019219382
-0.02635803
-0.023017174
-0.009815721
0.0013152659
0.0057352916
-0.0064179213
-0.021586614
-0.019643506
-0.0094561195
4.725704E-4
6.935862E-4
-0.0040430836
0.010214389
0.029988956
0.030292824
0.01841404
0.0011034851
-0.013184896
-0.010698901
-0.0023331535
-1.01757E-4
0.0039789854
0.021354552
0.05088207
0.06257037
0.036450993
0.0013313957
-0.014690879
-0.019293841
-0.02556381
-0.0299807
-0.02856766
-0.021317173
-0.0077796527
-0.0041537485
-0.016988652
-0.027035428
-0.027996553
-0.022854012
-0.01177978
0.0025879128
0.016616998
0.028173614
0.03918415
0.037351947
0.016217351
-0.008494338
-0.026827954
-0.025975415
-0.012058661
-0.008643123
-0.0060572443
0.0077089393
0.025224833
0.028325018
0.007461636
-0.011012277
-0.01773206
-0.024717703
-0.022845013
-0.012216407
-0.002201284
0.009466592
0.021838842
0.022909597
0.0077518686
-0.006644272
-0.008346042
-0.0015538442
0.008483347
0.017305154
0.02490688
0.03414029
0.044541877
0.042568035
0.019857693
-0.0064150766
-0.02811342
-0.049839523
-0.06095408
-0.0465848
-0.016964579
0.0030962438
0.015532298
0.021267675
0.012688448
0.004685752
-0.0021749856
-0.008498771
-0.0111030415
-0.021503348
-0.025741944
-0.021605035
-0.013133038
0.010888863
0.019215658
0.0050108135
-0.0026632415
-0.0060900045
-0.003921797
-0.0015116959
-3.5025566E-4
0.013717501
0.024285337
0.023642149
0.017966839
0.0055308496
-0.0032519165
-0.0070992815
-0.007763232
-0.0028011212
0.004353264
0.017146373
0.03122714
0.032716602
0.015922615
-0.005626368
-0.016551962
-0.03154837
-0.045635622
-0.028361505
0.0010357565
0.015452453
0.025246335
0.030712092
0.02363538
0.005777279
-0.013367732
-0.020585245
-0.022944318
-0.02860652
-0.026052443
-0.0097016655
0.014114382
0.02420249
0.010582193
-0.005123984
-0.013195848
-0.013039882
-0.0064260904
-0.0053049834
-0.004021231
-0.0017654995
-6.792456E-4
0.008326072
0.011162335
0.0011986282
-0.009797707
-0.01732251
-0.01448405
-0.005936073
0.0021394053
0.013491782
0.026513943
0.035966452
0.033816315
0.027278947
0.019843416
-0.0031640453
-0.026211761
-0.026411034
-0.010816045
0.0043804157
0.010130204
0.015481921
0.017150851
0.0027992858
-0.006583408
-0.0032493898
-0.004623733
-0.007596935
-0.0087581165
-0.006812106
0.002764376
0.0034392478
-0.011271445
-0.02512889
-0.03240164
-0.030208822
-0.016840136
-0.0032840685
0.0028763665
0.007724617
0.016742582
0.020373143
0.012138036
-0.003323985
-0.017408913
-0.015639743
-0.0068925875
-0.0049549923
0.0027000643
0.01585643
0.03178635
0.045853864
0.036175285
0.008913956
-0.017629635
-0.03255503
-0.02679698
-0.012812738
-2.643811E-4
0.010917576
0.021488234
0.03012093
0.02462762
0.009863734
1.4817147E-4
-0.0021222641
-0.006204078
-0.018236587
-0.017404435
-0.006356606
-0.0020904317
0.0030033307
-0.005034376
-0.023104804
-0.026830252
-0.019696098
-0.0037405235
0.0075496286
0.0073229303
0.010208468
0.012511114
0.014235426
0.0070074787
-0.015544417
-0.026498435
-0.021319035
-0.015288037
-0.012144353
-0.006132171
0.01317873
0.03530039
0.04436784
0.033773575
0.0053191516
-0.016988093
-0.019239612
-0.012724885
-0.008586654
-0.00725466
1.06636704E-4
0.013223603
0.021354383
0.015489153
-0.005799388
-0.020862712
-0.01266497
-0.0016738625
-8.433576E-4
0.0028789723
0.012296139
0.025568431
0.034744754
0.026468867
0.01342266
0.0035252608
-0.011186848
-0.020810828
-0.022376783
-0.018599866
-0.0040239072
0.007360233
0.0044841655
-0.004440383
-0.017710363
-0.029690564
-0.03207138
-0.03156173
-0.030577315
-0.02468535
-0.012507503
0.010987593
0.032986864
0.03151421
0.013114887
-0.005977004
-0.013202037
-0.005556179
0.0012858376
0.004646003
0.013861239
0.025334902
0.029512884
0.02785601
0.029162766
0.026912333
0.021292822
0.020915823
0.015260102
0.00325622
-0.009622789
-0.014377573
-0.0031670125
-0.008022685
-0.033692367
-0.04431777
-0.041227177
-0.03302359
-0.02054657
-0.009976695
0.0029948584
0.017295558
0.026276883
0.02245894
0.006510127
-0.005745589
-0.006196672
-0.0017535338
-0.009635308
-0.023773184
-0.01648672
0.0050043534
0.01887407
0.018264513
0.007419168
-1.4312952E-4
-0.0034327568
-7.046033E-4
0.004958163
-0.0025195961
-0.0031650942
0.019158188
0.03305816
0.026703695
0.013376848
-0.007979346
-0.028392268
-0.030831287
-0.0225266
-0.013783955
5.3043466E-5
0.018859653
0.0327832
0.03010162
0.011781309
-0.0053680153
-0.011844259
-0.0126333665
-0.013409071
-0.01179674
-0.003756099
0.005637029
0.0071610445
-0.0012645269
-0.013635038
-0.022658123
-0.024308
-0.022075089
-0.017166035
-0.0032737604
0.010662261
0.02183968
0.041300382
0.044422284
0.012861791
-0.02081189
-0.03171118
-0.02820611
-0.023057763
-0.013442723
0.0028361133
0.017889638
0.03270679
0.04322614
0.03951064
0.027144516
0.020896055
0.023979988
0.015346441
-0.009524333
-0.02411201
-0.018815042
-0.007378123
-0.009198134
-0.023615282
-0.03182946
-0.03356121
-0.031829275
-0.024397843
-0.01632089
-0.008042997
0.005448455
0.021574244
0.019975184
2.1096678E-4
-0.009843447
-0.010486449
-0.009164887
-0.0033612018
-0.0033584102
-0.00218054
0.014772654
0.03516925
0.036592185
0.01796726
-3.621037E-4
-0.00849152
-0.007927244
-0.0032185852
-0.001153399
0.004949204
0.018638523
0.028993139
0.027718669
0.013372286
-0.0041778977
-0.012832678
-0.012860142
-0.009212675
-0.004795976
-4.3374556E-4
0.0077025145
0.019054618
0.017482296
-0.0042662653
-0.029113816
-0.042457644
-0.041523755
-0.031081237
-0.020298878
-0.009294652
0.004208571
0.013154241
0.013091476
0.0049626343
-0.009278882
-0.016821414
-0.012192997
-0.0086485185
-0.0055258144
0.003295575
0.015809644
0.031489603
0.03731961
0.027644407
0.015164773
0.010594056
0.014881105
0.01795331
0.02601597
0.03589485
0.026196958
0.015218068
0.0058161695
-0.022240076
-0.045288835
-0.047896486
-0.038289398
-0.027258758
-0.026626566
-0.02303693
-0.0078686625
0.008270524
0.011018413
-0.0045856303
-0.016170891
-0.018414516
-0.021910038
-0.017253341
-0.004287087
0.007494179
0.015312713
0.02267528
0.026706502
0.01456658
-0.0012463464
-0.0037355288
3.4009467E-4
0.007336983
0.01622329
0.027207432
0.040796693
0.04795101
0.04144267
0.019964084
-0.008738052
-0.03107606
-0.040067237
-0.03767012
-0.03150683
-0.022816356
-0.010412112
1.2548635E-4
0.0053891744
0.0054487665
0.0024509234
-1.6105257E-4
-5.283611E-4
-0.001017845
-0.003413176
0.0025233345
0.019319033
0.029280016
0.020938605
0.0013099127
-0.015300346
-0.022986019
-0.022505876
-0.017759306
-0.016263122
-0.009277302
0.0052666254
0.009394571
0.009174539
0.008740971
-0.0025061006
-0.00959316
-0.010207817
-0.015908899
-0.012256703
0.0032244364
0.017008217
0.028118767
0.034825888
0.028990876
0.006735594
-0.015361645
-0.01807284
-0.011316859
-0.00854734
-0.008563928
-0.004476103
0.010111227
0.022762625
0.018828843
0.003813891
-0.010419593
-0.0143987965
-0.013680502
-0.017219746
-0.015822273
-0.009670768
-0.0067876284
-0.0051933057
-0.011350872
-0.021624679
-0.0174546
-0.0025393174
0.011933014
0.02629404
0.043089285
0.062119994
0.07130809
0.06544262
0.046616822
0.010073502
-0.026703678
-0.04873415
-0.06366697
-0.0622388
-0.041527938
-0.016414499
0.0034800754
0.008071972
0.0010410573
-0.008496975
-0.017717978
-0.02108148
-0.021927759
-0.020112773
-0.011499312
7.712416E-4
0.014501247
0.019155636
0.009056727
-0.004022681
-0.008481053
-0.0042340155
5.809367E-4
0.009685825
0.024687747
0.036436845
0.045628704
0.044885367
0.026491042
0.00260679
-0.011135463
-0.01403778
-0.017438538
-0.016014941
-0.010443606
-0.008430387
0.003594556
0.01275355
0.003580461
-0.009205583
-0.018747017
-0.015743788
-0.004810729
0.0013393319
0.008644122
0.017559115
0.029905247
0.03322455
0.014881923
-0.009515338
-0.032460686
-0.041064046
-0.032339875
-0.026215782
-0.021687636
-0.014876866
-0.0016488899
0.0114755975
0.003879766
-0.008534006
-0.0073542977
-1.0180406E-4
0.005991448
0.0074623325
0.008337856
0.014287196
0.026550505
0.03110513
0.015967987
-0.005875649
-0.022982635
-0.02824467
-0.02434253
-0.016089197
0.0049831723
0.028377986
0.044852432
0.05582941
0.05428457
0.036009744
1.6061033E-4
-0.026628383
-0.031925656
-0.038861465
-0.038650837
-0.025748027
-0.009500594
0.0049875705
0.0020474966
-0.0058407765
-0.009344729
-0.014909104
-0.013812082
-0.0091352435
0.0012864611
0.013052506
0.015859766
0.019996857
0.01442922
-0.0024497753
-0.010000832
-0.0108552445
-0.011036054
-0.011842401
-0.0060954317
0.009938244
0.022601819
0.02788374
0.021938222
0.0055044373
-0.008156626
-0.015090021
-0.012436672
-0.0043718703
4.341514E-4
0.0046254294
0.008636962
0.011548572
0.008193542
-0.0073702442
-0.020393733
-0.01953504
-0.0159722
-0.012677586
-0.0043666656
0.006379494
0.021316232
0.031630337
0.022216955
0.004435489
-0.007918397
-0.013190394
-0.012469236
-0.011778228
-0.009624362
-0.004472443
0.002398877
0.01228993
0.0139489835
0.0011537523
-0.009970616
-0.007798483
-0.0037449577
-0.0034448353
0.004875739
0.01714444
0.024455966
0.02216471
0.0017629204
-0.019487208
-0.024545567
-0.024212841
-0.0228479
-0.018047249
-0.010247615
-3.4101986E-4
0.010612231
0.021285307
0.021520065
0.011192647
0.0035910464
8.0418895E-4
1.08381275E-4
-0.0014485273
-0.0021677867
0.009138304
0.024109319
0.018732173
-0.0023965756
-0.016488098
-0.021544276
-0.022747023
-0.01793074
-0.012280156
-0.006897316
0.005453736
0.018367032
0.022176012
0.017619675
0.0044048303
-0.010980094
-0.016949477
-0.01695208
-0.013147277
-0.0025747556
0.008828921
0.020905029
0.028608669
0.019422786
7.5938785E-4
-0.014027133
-0.01852062
-0.0126084965
-0.0052205203
0.0032127555
0.015275208
0.025242066
0.028060924
0.015609615
-0.010820872
-0.028672157
-0.02913995
-0.027730342
-0.026890934
-0.019248797
-0.006096416
0.011643345
0.02421234
0.020860378
0.0098399585
0.0015987863
-0.0041032485
-0.008974472
-0.0058257044
0.002744616
0.0059866477
0.012934887
0.020610105
0.015842244
0.0066311583
-0.0021176208
-0.0065111993
-0.006699082
-0.008721404
-0.006111096
8.5715053E-4
0.012819972
0.024454515
0.014962489
-0.008808015
-0.027366001
-0.03508141
-0.033132244
-0.025439411
-0.01400875
-0.004911857
0.0076141073
0.023233697
0.022005653
0.009965756
-4.7029395E-4
-0.0059847427
-0.0015274347
0.0017137758
0.0037034836
0.012792337
0.022541491
0.026265215
0.016604722
6.9650623E-4
-0.009612621
-0.017570015
-0.017999347
-0.008133061
4.344604E-4
0.0032462478
0.007554027
0.015620769
0.013677422
-0.0035453117
-0.021097478
-0.026159842
-0.018600142
-0.011294878
-0.012153247
-0.009141039
0.005844657
0.02079954
0.021248989
0.009349403
-0.0015304938
-0.0078035425
-0.011976876
-0.009096499
-0.0013262008
0.005261499
0.0152445
0.027170766
0.03140449
0.021290632
0.0039810045
-0.006205995
-0.012366386
-0.01311532
-0.0073742187
-0.003986379
0.009385416
0.017973294
-0.0026250493
-0.024399724
-0.0343844
-0.035991605
-0.02536559
-0.017897135
-0.012763203
-0.0018725212
0.010798669
0.02050251
0.016645003
0.0038148994
-0.007758338
-0.011382067
-0.0056660012
-0.0038967705
7.8580296E-4
0.014819039
0.028637433
0.0425521
0.04334614
0.027376365
0.011149352
-0.0026232442
-0.011454488
-0.014865178
-0.014271728
-0.0059239306
0.0072246934
0.017410537
0.014080462
-9.97741E-4
-0.01483631
-0.02152808
-0.024130668
-0.029098883
-0.025516083
-0.009611029
0.0024385096
0.01145182
0.011374007
-0.0040624402
-0.017470177
-0.024056297
-0.021723377
-0.01118593
-0.003768135
0.006729701
0.02111878
0.029138468
0.027152887
0.012307012
-0.0028453688
-0.0060402583
-0.004077255
-6.17052E-4
0.003185766
0.008106308
0.02071864
0.03115069
0.022748196
0.003164148
-0.01293748
-0.022717636
-0.024250006
-0.01826577
-0.009688925
-0.0016939226
0.0065200157
0.015753929
0.016500523
0.005549238
-0.005450251
-0.012816419
-0.017308889
-0.015157331
-0.0049616876
0.007200731
0.017839728
0.029913088
0.027903654
0.0071137045
-0.008152502
-0.016375061
-0.022569483
-0.019862512
-0.012299071
-0.0017275799
0.009499657
0.017264102
0.017610088
0.0019132209
-0.020700349
-0.030249879
-0.024096794
-0.016951798
-0.014098129
-0.0062009417
0.0057455357
0.017426904
0.0190985
0.0037643649
-0.01083482
-0.015454352
-0.010486532
8.9425856E-4
0.007765283
0.017016906
0.03145568
0.043846674
0.04717621
0.03202743
0.014899443
0.008460078
0.0033227599
-0.008968716
-0.028785199
-0.02992204
-0.009519036
0.0051202937
0.00931065
-3.0998889E-4
-0.0145228
-0.023099635
-0.028446024
-0.020853668
-0.022220567
-0.030401714
-0.006281566
0.016839301
0.011591733
-9.2232187E-4
-0.017920014
-0.024097102
-0.015146388
-0.009327891
-0.001894918
0.010644116
0.025841342
0.040643603
0.04227564
0.026795622
0.0034202288
-0.011082062
-0.009946418
-0.0042306823
5.4436673E-6
0.0028598486
0.0071868333
0.01747931
0.0221858
0.008092471
-0.009857733
-0.011969799
-0.007997502
-0.011901909
-0.0148679735
-0.006731961
0.007086896
0.017264254
0.02134539
0.012212254
-0.013564853
-0.031634476
-0.029532034
-0.023127796
-0.013606279
0.0013010374
0.016958218
0.030022463
0.031271294
0.022292186
0.0073609897
-0.008725219
-0.01468832
-0.018772788
-0.022806795
-0.01534481
9.769758E-4
0.019397581
0.020479333
0.0023875858
-0.010062062
-0.018183613
-0.025594082
-0.026809547
-0.022890225
-0.008788132
0.007147504
0.015523506
0.020816583
0.019643754
0.010234849
0.0014510102
-0.001941107
-0.007122556
-0.011113353
-0.004565189
0.0079005705
0.024371235
0.032529693
0.024393314
0.011492118
-0.009308328
-0.022396581
-0.012401065
-0.0012120353
0.006018295
0.011008508
0.015025424
0.020855227
0.011706797
-0.0069727045
-0.019931588
-0.02610987
-0.02203744
-0.0148473345
-0.005117261
0.0108722495
0.02498439
0.027210398
0.009656252
-0.01161702
-0.01986333
-0.02322848
-0.02634505
-0.026049016
-0.017795289
-0.0051787845
0.007712239
0.02110877
0.018889235
0.0022073113
-0.006733605
-0.0075519895
-0.008936799
-0.01130044
-0.0076249405
0.006382442
0.023801226
0.03111689
0.01906958
0.0031923647
-0.0040640845
-0.011124259
-0.010556375
0.0022730958
0.009754091
0.008409307
0.013323385
0.022094605
0.016188115
3.1799465E-4
-0.009617779
-0.012398553
-0.011915159
-0.01188316
-0.0083345035
0.0014219495
0.013420403
0.020153081
0.0073727686
-0.014132581
-0.024699962
-0.029079469
-0.025551384
-0.014438638
-0.0047694845
0.0071189404
0.020094462
0.02541362
0.017702835
0.002127404
-0.0077879853
-0.009757399
-0.008145644
-0.005501906
-0.0022079712
0.006229752
0.0193838
0.026523504
0.015748825
-0.0076263435
-0.022427838
-0.020707348
-0.013814549
-0.008527692
-4.1901038E-4
0.008663667
0.015002773
0.018325163
0.010576134
-0.0042843986
-0.012350747
-0.014369524
-0.013413197
-0.011778137
-0.008074969
0.002791058
0.014072252
0.020079013
0.016875803
0.0019916687
-0.011886211
-0.01657078
-0.014373105
-0.0077233464
0.0021617545
0.015680047
0.02657571
0.030535266
0.02231263
-7.3321234E-4
-0.014227886
-0.010441124
-0.011128481
-0.015572482
-0.013378295
-5.6112575E-4
0.017059082
0.019556165
0.007839145
-0.0057307263
-0.017940208
-0.022868566
-0.020572359
-0.014098209
-0.00836544
-0.002917761
0.012649917
0.024336984
0.016139198
5.4503017E-4
-0.009147126
-0.009375477
-0.007863858
-0.007746902
-0.0036706538
0.0037914815
0.021685455
0.03704172
0.025321456
0.003119014
-0.010853701
-0.018088738
-0.018592393
-0.014767236
-0.0069178883
0.0027234454
0.01115924
0.015674504
0.009761869
-0.0025049048
-0.0118689425
-0.012248174
-0.0082351
-0.009420452
-0.007025847
0.003647991
0.015173796
0.02128969
0.012898995
-0.0030161196
-0.01462497
-0.020340566
-0.016915813
-0.0102641005
-0.004351449
0.005081997
0.01733219
0.028059889
0.022659464
0.0016165015
-0.009942224
-0.00981461
-0.01121047
-0.010364537
-0.0049374863
0.0035878008
0.018042067
0.024915347
0.011426341
-0.008419453
-0.021821165
-0.025109971
-0.018209448
-0.011469677
-0.0057346886
0.0061391285
0.021534907
0.03077624
0.022591397
9.217438E-4
-0.013255697
-0.010880022
-0.008390664
-0.015023766
-0.014217595
-1.846145E-4
0.015807908
0.022919305
0.014670675
0.0019064836
-0.007348207
-0.016821072
-0.020796977
-0.01661313
-0.009346575
-3.855002E-4
0.013440158
0.026299775
0.020791963
0.0021549636
-0.009894739
-0.012026631
-0.009729665
-0.009220921
-0.006508485
0.004633779
0.019233689
0.027110046
0.017887745
0.0016434476
-0.008673506
-0.01681165
-0.016977003
-0.009905613
-0.004584667
0.0027769154
0.0123646725
0.020059213
0.016599093
-7.7441713E-4
-0.014579047
-0.018013729
-0.01629401
-0.012415461
-0.009039726
-0.0010634924
0.012640151
0.021153145
0.014815163
-0.0017192994
-0.013990718
-0.017357038
-0.013691127
-0.0073656887
-0.0031505253
0.0046877973
0.016553568
0.02389771
0.020278547
0.003827315
-0.010291256
-0.01057442
-0.007773548
-0.0073883226
-0.005048992
0.002826343
0.015746789
0.02243322
0.014264639
-0.002935134
-0.015166395
-0.015336185
-0.012752918
-0.010398754
-0.0025680652
0.0056547024
0.01298844
0.018671397
0.013524515
-1.7611712E-4
-0.0123683885
-0.015812961
-0.012123114
-0.009747632
-0.0063327365
0.0025402287
0.015682219
0.024865301
0.015833978
-0.0029972454
-0.0153066125
-0.021885391
-0.021953328
-0.015813472
-0.0075830435
0.0013096993
0.011272273
0.021768652
0.021149365
0.008322768
-0.002315419
-0.0069130054
-0.0052621514
-0.0035593447
-0.006826649
-0.002996398
0.010034255
0.02116661
0.019835679
0.003555295
-0.012377138
-0.01827796
-0.01863644
-0.015305184
-0.0075986274
0.004759553
0.016982928
0.022067368
0.017495537
0.0049850796
-0.0073291264
-0.013396535
-0.013915564
-0.010840327
-0.007255571
-0.0012634053
0.010850225
0.021325251
0.018716343
0.0044387663
-0.01044583
-0.018087255
-0.01773874
-0.013177485
-0.0069003203
7.693244E-4
0.009327296
0.017720262
0.017969634
0.00546038
-0.008205093
-0.012586961
-0.009330529
-0.0068748486
-0.007753343
-0.0018479797
0.011714583
0.02129132
0.018434929
0.0020567672
-0.01300458
-0.015422631
-0.013862162
-0.010680584
-0.004564028
0.0012406978
0.011581633
0.021283517
0.0185926
0.008261987
-0.0035126633
-0.012830951
-0.013252334
-0.008280357
-0.005198829
-0.0025215216
0.007452594
0.021028
0.019679006
0.0025063406
-0.012745951
-0.018954726
-0.01808468
-0.014012226
-0.008627609
5.008108E-4
0.01138224
0.020094048
0.021826595
0.009957056
-0.006722308
-0.0110291885
-0.007575557
-0.008623022
-0.008493542
-0.0012689374
0.010967585
0.02237343
0.020015456
0.004177888
-0.011168294
-0.020106072
-0.02132471
-0.0156133175
-0.0074946233
4.56787E-4
0.010442642
0.0215398
0.021474304
0.0063098944
-0.009228514
-0.014378587
-0.0121769905
-0.009375672
-0.0067422846
-8.623925E-4
0.010370312
0.022643201
0.022754053
0.006849706
-0.011491164
-0.019495947
-0.017545942
-0.012699807
-0.0059438483
0.0034720798
0.013165325
0.02027567
0.019197797
0.0078381095
-0.0064361794
-0.012495456
-0.011231635
-0.010551025
-0.007964042
-0.0032687902
0.006899076
0.021612477
0.01979876
0.0038549723
-0.009663456
-0.017546125
-0.0153573835
-0.009597745
-0.0028295459
0.004741278
0.010168871
0.021160787
0.016187754
-0.008993054
-0.015225631
-0.00815418
-0.006261514
-0.0038572857
-0.0050497693
-0.0043445574
0.0068642134
0.020240175
0.021428065
0.0071382276
-0.00951166
-0.019002846
-0.018650858
-0.01272661
-0.008103396
-0.0016909131
0.008461348
0.020449292
0.024531484
0.011755127
-0.0042699086
-0.010484723
-0.01080911
-0.010182171
-0.0075054313
-0.0016586165
0.008112729
0.021698274
0.0238352
0.007157713
-0.011532576
-0.021961402
-0.021824773
-0.015053143
-0.009069999
-0.0011847301
0.009193755
0.019915745
0.023302881
0.011703996
-0.0033701034
-0.011448935
-0.012111271
-0.008949266
-0.007561726
-0.0033751708
0.008427114
0.02183068
0.023058122
0.0077790064
-0.008069085
-0.015213978
-0.017869713
-0.01700009
-0.01132778
-0.0035044823
0.0039153574
0.013332306
0.017553167
0.0087254755
-0.0033139111
-0.010774532
-0.012024607
-0.009457739
-0.008179448
-0.0022810334
0.010648049
0.021759901
0.022503657
0.01098991
-0.0036175686
-0.01289813
-0.016704729
-0.01513366
-0.0076686046
0.0019559416
0.011267175
0.021048902
0.023349702
0.013511735
7.301352E-4
-0.007742176
-0.01241778
-0.018271461
-0.01989577
-0.010619845
0.0016010543
0.014192152
0.018620914
0.0064881365
-0.007349449
-0.015545418
-0.017633209
-0.013319993
-0.009625489
-0.0026887956
0.008844254
0.018700477
0.022492489
0.01432297
6.012575E-4
-0.0068266024
-0.0074337684
-0.008972893
-0.011564478
-0.005015601
0.008735738
0.02161038
0.023832418
0.008826686
-0.007585843
-0.016552543
-0.019760858
-0.014358692
-0.009499865
-0.005010743
0.006906074
0.018582083
0.022142967
0.013341463
-0.0014043017
-0.009343734
-0.012733809
-0.015814021
-0.014230223
-0.0057433466
0.0067341
0.01983522
0.025329728
0.014154744
-0.0043832157
-0.015673034
-0.01872514
-0.016559593
-0.010962588
-0.002679637
0.0064322334
0.015057638
0.019871963
0.012453618
-0.0017505536
-0.008973551
-0.009656972
-0.01068328
-0.012260458
-0.006255796
0.008393442
0.021441028
0.02436003
0.012457987
-0.0048328475
-0.0149246
-0.01945125
-0.017090622
-0.010061582
-0.0054072943
0.003014728