6.734117E-5
9.732336E-4
-0.001131884
-0.0032233943
-0.0040345644
-0.0016111403
0.0015902831
0.0026129659
0.0032447851
0.0020235192
0.002354742
0.0042373585
0.0016022546
-0.0012113677
1.1974387E-4
0.002210253
0.002928574
0.0027321575
0.0017849407
4.7389694E-4
-1.7826183E-4
-6.7391E-4
-8.5804856E-4
-9.1812346E-4
-0.001519359
-4.6699838E-4
0.0014063388
9.0257335E-4
-0.0011312175
-0.0014714994
-7.5096684E-4
-0.0016707928
-4.039929E-4
0.002084396
6.4893486E-4
9.4198E-4
0.0032239696
0.0026193222
0.0011798545
-0.0010614746
-0.0017835659
-4.0361847E-4
-0.0011168078
-0.0013338503
-7.9600746E-4
-0.0014550361
-7.745509E-4
3.1967758E-4
-9.839516E-5
-0.0016543571
-0.0023329246
-0.0010919844
-6.940898E-4
-7.1303284E-4
-2.4366309E-4
-4.3141446E-4
0.0010437621
0.002824715
0.0018290295
4.757699E-4
-6.4447545E-4
-0.0015039068
-4.804418E-4
1.9522257E-4
1.2060253E-4
9.216458E-4
0.0020046425
0.0042025587
0.00451399
6.19844E-4
-0.0013637474
-0.0014843898
-0.0022611928
-0.0011970309
-2.3777319E-4
0.0010937905
0.0025139996
5.0322275E-4
-3.1894716E-4
-1.1428777E-4
-0.0018707726
-0.0014331334
-0.0010728313
-0.0017791219
7.6377694E-4
0.002754054
0.0016976512
9.830092E-4
-0.0012294502
-0.006160534
-0.006472701
-0.0012547721
0.0016036747
0.0025088529
0.003011853
0.0027152172
0.0044361055
0.0026181452
-0.0031661612
-0.0043165293
-0.0037175512
-0.0023964578
0.0011787866
0.0016159923
0.0027189832
0.0059059714
0.0044893264
0.0021425185
5.027716E-4
-0.0038115666
-0.005637545
-0.0028802513
-5.984698E-4
-8.2534004E-4
-0.0014226185
5.3299323E-4
0.0034273202
0.005017797
0.006639375
0.004540973
-0.0013820227
-0.0024261642
-0.0010468744
-0.0030445715
-0.0044745654
-0.0040458557
-0.0011183164
0.0028096822
0.0020568438
-3.5982206E-4
-0.0013246589
-0.0015605991
-6.459795E-4
-0.00143291
-0.0010636569
0.0014052379
2.3168919E-4
-1.9491244E-4
0.0011383328
5.4103165E-4
9.0625737E-4
-3.11681E-4
-0.0017223178
7.029791E-4
0.0013453703
4.4572304E-4
3.570816E-4
-6.457091E-4
-7.058182E-4
-2.970486E-4
-8.2719943E-4
-0.0016592494
-0.0013333849
0.0011599173
0.0016542475
4.9684616E-4
0.0018322429
0.0025343092
0.0016109045
0.0017602218
0.0023541015
0.0011142842
-0.0018409807
-0.002101144
-0.0015551059
-0.0024963028
9.233741E-4
0.0030764916
-3.5904063E-4
-6.8613066E-4
-8.8996976E-4
-0.0024634062
-5.187316E-5
0.0013161063
0.0012270181
0.0018447157
0.0014824391
0.0018007507
9.387368E-4
-4.8094997E-4
4.5780585E-6
-3.437912E-5
-0.0010270614
-0.0016912498
5.1715755E-4
0.001446778
-0.0014692566
-9.401219E-5
0.0015788174
3.6457155E-4
5.9159624E-4
-0.0018385658
-0.0029920572
-0.004904754
-0.01002461
-0.0044550914
9.3274825E-4
-0.0034803203
-0.0011584992
0.0030514933
0.0015360902
0.0015141343
0.0011018683
1.2826672E-4
2.506353E-4
0.0018372649
0.006858973
0.008818764
0.0072275577
0.0073899133
0.0034206582
-0.002569712
-8.750551E-4
0.0053700455
0.009701315
0.0067552063
-0.0040665055
-0.010985041
-0.009031258
-0.005976957
-0.0047104983
-0.003042455
-0.002577368
-0.0036874877
-0.0019636592
1.8548117E-4
-8.424476E-4
-4.7003373E-4
-2.0008563E-4
-0.002089599
-0.0018099613
-5.6192046E-4
8.4334385E-4
0.0026342708
0.0029110997
0.0030764933
0.002378859
0.0013059457
0.002852768
0.0044180085
0.004474081
0.0031435566
-1.4263499E-4
-0.0016790939
-0.0010937562
-0.0015586275
-4.884479E-4
0.0012941521
-5.938611E-4
-0.0028198864
-0.0036688359
-0.0038415424
-0.0026978191
-0.0037656669
-0.003711203
8.820258E-4
0.0034059298
0.003938682
0.0043192245
0.0025025276
5.292577E-4
-3.718081E-4
-5.830033E-4
-9.730796E-4
-8.7601924E-4
1.07735395E-4
-2.4185695E-4
5.324906E-4
0.0018620456
2.9047902E-4
-6.485116E-4
-2.7177157E-4
-8.1501115E-4
-0.0011715556
-2.584654E-4
0.0015589145
0.002650429
0.002690449
0.0023201695
0.001553109
1.06539526E-4
-8.7460666E-4
-2.6369747E-4
-7.789832E-5
2.1259597E-4
6.32506E-4
6.5655157E-4
0.0017788399
-9.485376E-4
-0.0040039932
-0.0015164679
-5.568537E-4
9.70838E-4
0.0015654457
-0.0016483734
0.001319056
9.0072E-5
-0.007582753
-0.0040591857
6.119751E-4
-5.178451E-4
6.218422E-4
-6.15484E-4
-0.0017101202
2.3297251E-4
-8.754532E-4
-9.5526077E-4
0.0027319987
0.004041905
0.0019484
1.3347222E-4
6.7967594E-5
4.7799005E-4
-4.5987198E-4
-0.0014218256
6.196435E-4
0.0031079794
0.003050012
0.0035066279
0.0031109848
-0.0010219151
-0.003176967
-0.0016568941
-7.743596E-4
8.920493E-4
0.003809653
0.003818524
0.001713328
0.0017176563
6.9367816E-4
-0.0051905685
-0.0075928504
-0.0036435882
-0.0022245664
-0.0014992707
0.002545494
0.004481345
0.0030935844
0.0023413503
0.0033759428
0.0019803783
-0.0034429168
-0.007213158
-0.006191272
-0.002118468
0.0016227685
0.0035899873
0.0041913693
0.00244793
4.055406E-4
-7.768022E-4
-0.0021034202
-0.002612137
-0.0032905533
-0.0027100546
-2.1460162E-4
0.0011844008
0.0025265585
0.0028507793
6.696721E-4
-0.001076374
-6.6936965E-4
8.7483606E-4
5.773102E-4
-3.6898363E-4
8.9312764E-4
0.002870506
0.0035875249
0.0016143537
-5.23406E-4
-6.4296194E-4
-9.093551E-4
-0.0015037776
-0.0013866649
8.9687953E-4
0.0025039064
7.391906E-4
6.441841E-4
0.0021367315
0.0011402378
-0.0027531742
-0.0060753725
-0.003969328
-7.051713E-4
-1.7453912E-4
3.6448086E-4
0.0014468454
0.0026258691
0.0023920704
0.0016700987
2.8546428E-4
-0.0024141192
-0.0012671339
0.0011924476
0.0021068642
0.0033145167
0.0015866215
-2.4106598E-4
-7.8474535E-5
-3.2908245E-4
-7.032276E-4
-0.0022725062
-0.0020896387
-0.0014522418
-0.002769414
-0.0010613577
8.326753E-4
0.0016830054
0.0025303485
1.4298949E-4
-4.525308E-4
7.790454E-4
1.6219522E-6
8.4412127E-4
0.0013379368
-8.696658E-6
5.524239E-4
0.0013665888
2.1279667E-4
-9.126938E-4
-0.001198882
-0.0010865867
-0.0010710169
-0.0021376887
-0.0023865483
-0.001746694
-0.0010890431
0.00143998
0.0014456944
-6.1595894E-4
1.3948683E-4
-0.0010178401
-0.0021526983
-2.0790026E-4
-1.8838442E-5
-3.7546293E-4
4.6204586E-4
0.0018652183
0.0019513759
9.77783E-4
0.0022127025
0.0031033664
0.005068803
0.008488017
0.008537376
0.006767233
0.0019588906
-0.0030384462
-0.004553637
-0.0075706122
-0.008037876
-0.005474149
-0.0055423467
-0.0044793026
-0.0020637524
-4.745287E-4
1.846202E-4
7.7166414E-4
0.0039613354
0.0051349024
0.0014139742
-0.0011754213
1.5734593E-5
0.0011232403
-8.4771414E-4
-0.0028798734
-0.0018755106
9.768598E-4
0.0030620857
0.003144469
0.001839437
4.2476673E-5
5.7226885E-4
0.0010146977
-0.0019954133
-0.0017775311
7.6364883E-4
6.0778874E-4
0.0010789197
7.965114E-5
-0.0022836463
-0.0017285483
-0.0019179478
-0.0036856972
-0.0037330156
-0.002297672
-3.296674E-4
0.0014039234
0.0020835327
0.0012338896
-5.9492665E-4
-0.0012976588
-1.310576E-4
9.986153E-4
0.0025196206
0.004916041
0.0052196225
0.00485575
0.004131977
2.510994E-4
-0.0018972079
-0.0017659105
-0.0059713977
-0.0113400305
-0.009657651
-0.002665846
0.0031789008
0.010323123
0.017156756
0.014495948
0.006494619
-1.8724047E-4
-0.004583719
-0.003237331
5.0043303E-4
3.2464697E-4
-0.004032878
-0.006882602
-0.0036879804
-0.0011753127
-0.0014819355
1.8124923E-4
7.9001917E-4
-5.8834703E-4
-0.0031621617
-0.0069371946
-0.0062295482
-0.0024013126
-0.0021940027
-0.0044832807
-0.006193194
-0.0051076845
-0.0019050976
-0.0013747527
-0.001622336
8.4026734E-4
0.0032720524
0.0044879625
0.004725563
0.005557023
0.0069332295
0.0059937993
0.0067372094
0.007974821
0.0045521213
0.0026136916
0.0029851755
0.0030811832
0.0042079203
0.002575912
3.3093855E-4
-4.1584705E-4
-0.0028011242
-0.0037159624
-0.0035895235
-0.004550923
-0.0040312456
-0.00298562
-0.002753997
-0.002168507
-0.0022025807
-0.0038869604
-0.002895004
4.3644864E-4
-2.0981499E-4
-0.0014513694
-6.967458E-4
6.78019E-4
0.0039020274
0.0027469294
-0.0015950077
-0.0017182684
-0.0017968467
-0.0016523708
-5.0467835E-4
-0.0012723228
-1.2478474E-4
6.88009E-4
-9.131923E-4
-8.4876525E-4
-9.660481E-4
-0.0011501429
-9.1959257E-4
-0.0024472915
-0.0024140177
-8.533526E-4
2.5292882E-4
0.0031075263
0.0047742315
0.0036216567
0.0032104694
0.0014676369
-0.0014494144
1.1178043E-4
0.0041781277
0.005312596
0.003956337
0.0028383378
0.00386092
0.007202128
0.009149793
0.0065221624
0.0014572783
-0.0036003122
-0.007279419
-0.008399647
-0.008472481
-0.007650485
-0.0059775175
-0.004925918
-0.0037915544
-0.004078284
-0.0054819034
-0.003926759
-6.622107E-4
0.0022882584
0.0039291605
0.0026352522
0.0020825348
0.0028646819
-2.3266485E-4
-0.0031811586
-0.0016045131
-0.0022758748
-0.0028831724
0.0025105844
0.0053678765
0.005238189
0.007405814
0.0060307262
0.002487171
0.0018184362
0.0010658987
-9.869243E-4
-0.0020251728
-0.0011176354
-0.0010005668
-8.828639E-4
0.0010979883
0.0012479443
-2.0061345E-4
-0.0022718748
-0.0048271744
-0.0060705068
-0.007358485
-0.0064864364
-0.002414671
0.0029871718
0.008500335
0.008104174
0.0063350303
0.009474352
0.009640075
0.0058828634
8.068409E-4
-0.0030911574
-0.0012101522
-6.977289E-4
-0.0032113662
-0.0027227087
-0.001392167
7.944741E-5
-8.1504707E-4
-0.0052260146
-0.0070808185
-0.0077992976
-0.008975396
-0.0077885534
-0.0065221647
-0.0057149627
-0.0042847698
-0.0036591655
-0.0032056225
-8.1315613E-4
0.0039740475
0.0069295475
0.004817066
0.002871247
0.0042331214
0.005922526
0.007003717
0.006093147
0.0050396086
0.007077212
0.0047350237
2.9910242E-4
0.0054143416
0.010463168
0.00927085
0.009000203
0.003544464
-0.0066023157
-0.013515907
-0.018134566
-0.015683621
-0.00822268
-0.0055234693
-0.0030830828
0.0010513109
8.920121E-4
6.344135E-4
0.005423504
0.010135958
0.011607878
0.01161446
0.008649627
0.0041841217
2.1493297E-4
-0.006507245
-0.013298591
-0.015769372
-0.013771573
-0.0074772686
-0.0016891496
-1.4739313E-4
-0.0011697704
-0.0014762614
0.0013531772
0.0030403612
6.0630025E-4
-0.0025442087
-0.0038171401
-8.571788E-4
0.0030522842
0.002016224
0.0013914085
0.0048056347
0.0063586487
0.0064222165
0.006757298
0.004178147
9.492722E-4
-9.066987E-4
-0.0016290431
8.9375256E-4
0.002726822
0.0020438698
0.002968443
0.0024576278
-9.4837137E-4
-0.0032369106
-0.0036670815
-0.0033652778
-0.0052069956
-0.007049306
-0.004475212
-0.0021798536
-0.0010378631
0.0025487558
0.0066740075
0.011004639
0.013399296
0.0123011265
0.009383168
0.0028627054
-1.4502261E-4
0.0043685725
0.0049619116
7.128122E-4
-0.0034407722
-0.00872918
-0.014202034
-0.017783955
-0.016460774
-0.013284893
-0.009961864
-0.006356594
-0.010041054
-0.00995057
-0.0021598965
-0.0055398783
-0.010392789
-0.0061174915
1.829558E-4
0.006273505
0.0037939418
0.0013377152
0.007404067
0.010354538
0.014412126
0.0168853
0.011101083
0.0091266865
0.009852573
0.008444526
0.0078596715
0.007760628
0.008022109
0.007182462
0.0089784125
0.013130319
0.010772048
0.003359433
-0.0033369588
-0.007328378
-0.009135788
-0.011724334
-0.016131593
-0.019725136
-0.01799616
-0.0139977215
-0.01187389
-0.008482768
-0.004095241
-4.8297603E-4
-0.0017167362
-0.009493934
-0.013434259
-0.010673652
-0.007622149
-0.00598678
-0.0061105685
-0.0041820616
0.0033702427
0.0109988535
0.013091171
0.012318791
0.0134258205
0.014042805
0.012208516
0.012710601
0.014143689
0.011879157
0.009568715
0.008715032
0.009495574
0.013017064
0.01120708
0.0056328336
0.0055815117
0.003323038
-0.005782023
-0.015793674
-0.023117779
-0.025507908
-0.026193533
-0.024886558
-0.019062128
-0.011516552
-0.0029971711
3.8030214E-4
-0.0024679601
-0.0014193035
0.003106221
0.0043337354
0.0012257273
-7.778721E-4
0.0024013529
0.0069702044
0.00969485
0.008315265
0.0052885856
0.0052121566
0.0053303144
0.0059778094
0.008160322
0.01054047
0.012079625
0.008227198
0.002597689
-0.0018468914
-0.009042244
-0.012884803
-0.011613519
-0.012307464
-0.013078698
-0.0105318595
-0.007212725
-0.0051290337
-0.003877513
-0.0026338568
1.9201083E-4
0.00480926
0.009288784
0.0130976215
0.0153139895
0.01477307
0.013358555
0.013860978
0.014682831
0.012808248
0.010331133
0.0060770484
-0.0027165504
-0.012996385
-0.024004798
-0.036230993
-0.051946476
-0.06936206
-0.07784481
-0.076808356
-0.066570275
-0.04382381
-0.018301997
0.0062448676
0.035182994
0.06699841
0.0963256
0.11722778
0.12865892
0.12848875
0.11387631
0.094261386
0.07877217
0.06492431
0.042854346
0.0042383363
-0.03884349
-0.06653362
-0.08380501
-0.10445073
-0.1256739
-0.13496141
-0.122084014
-0.09790645
-0.07963111
-0.059801918
-0.034632087
-0.011199038
0.01564494
0.048214458
0.077272795
0.09085189
0.0902294
0.08242115
0.06571572
0.05543685
0.057961784
0.05003617
0.028678002
0.0065111285
-0.0111142155
-0.02595463
-0.042232737
-0.05883224
-0.07859572
-0.0811734
-0.05667807
-0.05144975
-0.06832705
-0.075796455
-0.07871053
-0.059134245
-0.01480245
0.022276498
0.07216282
0.15070239
0.21749546
0.23461366
0.19329888
0.12406625
0.068993
0.013282507
-0.069099255
-0.12549788
-0.12414386
-0.13104369
-0.16603188
-0.17896843
-0.1685475
-0.17173757
-0.18871494
-0.17950274
-0.11618761
9.126081E-4
0.12012666
0.18314886
0.22905235
0.24966238
0.18479939
0.13942605
0.18874921
0.25446558
0.30586416
0.3303494
0.2981887
0.20902063
0.07372187
-0.061044447
-0.17532386
-0.27921233
-0.32417578
-0.30639124
-0.31277698
-0.36862862
-0.41845903
-0.42699292
-0.38553274
-0.29976156
-0.19996037
-0.11229064
-0.039256334
0.038726415
0.123209625
0.17859069
0.21044983
0.26710668
0.3461814
0.39439034
0.39488235
0.36952645
0.3077174
0.21993306
0.13787328
0.030278206
-0.077780575
-0.103943385
-0.07102744
-0.027085291
0.02308122
0.05721932
0.04485922
-0.05273118
-0.21714416
-0.31998143
-0.31126124
-0.2822351
-0.2515933
-0.16221051
-0.034142137
0.07033955
0.12311522
0.14123683
0.14727776
0.1216287
0.06502283
0.021947004
0.0051752543
2.5914732E-4
0.0025778175
0.0015661295
-0.012937585
-0.021699645
-0.016994534
-0.025928317
-0.03815586
-0.025274858
-0.016178984
-0.033156887
-0.041274045
-0.024474096
-0.003195657
0.020935778
0.041321877
0.03670461
0.017843058
0.0051137377
0.00543641
0.017080352
0.026440918
0.027990293
0.022416051
0.016057972
0.017125169
0.014459204
0.0077965916
0.0070932433
0.0028980505
-0.007498875
-0.013747343
-0.008991743
0.0041030417
0.0144376755
0.020659091
0.022923905
0.0148796365
0.00637729
0.0051131807
-6.7573175E-4
-0.00615458
-0.004173571
-0.009674873
-0.018712923
-0.017299637
-0.01169116
-0.0052315528
0.0030575353
0.0053813457
-0.002743511
-0.012744962
-0.01755713
-0.015300357
-0.007592665
-0.0036366598
0.0066415863
0.027107231
0.028908938
0.011664727
-0.0107779475
-0.039190605
-0.051491123
-0.038687825
-0.022875316
-0.013550129
-0.0063227145
0.0070046443
0.022047209
0.023226483
0.017749127
0.013794698
0.004513623
0.0028724673
0.0122291
0.013156354
0.013481523
0.017979972
0.014659534
0.013630278
0.014435942
0.0044986866
-0.008958512
-0.012752722
0.0016204618
0.022974446
0.030325951
0.021744769
0.0013822605
-0.026286194
-0.04057651
-0.028580625
-0.012741058
-0.0033331062
0.0065528816
0.0053894813
0.003731066
-0.0032418459
-0.030893747
-0.023603592
0.013836323
0.01172403
-0.0042764395
-0.0035252683
-0.00580875
-0.011540328
-0.016241577
-0.012325743
6.412457E-4
0.012035079
0.02220058
0.02519601
0.01495871
-3.8891225E-4
-0.010509968
-0.014304814
-0.015272103
-0.009060403
0.0016581371
0.008632146
0.014988877
0.02498669
0.031866442
0.021956181
0.0010873445
-0.012347894
-0.014451595
-0.0067072483
0.0010691468
0.0026532577
0.006991533
0.012256041
0.01500223
0.016462637
0.011507891
0.0029913688
-0.001062784
-0.0015399453
-0.009491602
-0.027328148
-0.04068605
-0.04592091
-0.045588665
-0.036425762
-0.02504483
-0.018408177
-0.014669314
-0.010974807
-0.0056655104
0.0020649584
0.012288142
0.017140917
0.015499341
0.018673943
0.020849664
0.017266538
0.016672458
0.012076239
0.004121812
0.007634259
0.017217848
0.020971935
0.01742146
0.010957301
0.006628768
0.0038409256
0.0013726929
-0.0011827701
-0.0026160066
-0.0016199809
-0.001780539
-0.0031818033
-0.003945965
-0.0062488406
-0.011027928
-0.013715855
-0.012276881
-0.012732202
-0.01044335
-0.002272235
-6.8635104E-4
-0.0010363028
0.004799111
0.010337228
0.016950935
0.021666631
0.018371182
0.009934267
-0.0028945068
-0.01293026
-0.012842173
-0.007497071
-0.0036045103
-0.0066485372
-0.01327391
-0.014688029
-0.012159484
-0.0070626633
0.0022817312
0.00946645
0.012198116
0.013212847
0.0060603246
-0.0038543078
-0.003269154
-0.0022602887
-0.0061020167
-0.0059150136
-0.0051990086
-0.0044466527
-0.0014715388
-5.0382037E-4
1.9676759E-4
0.0012533937
4.4380096E-4
-0.0022854225
-0.00509078
-0.0053572776
-0.0060712304
-0.005373774
-1.873637E-4
0.0012074263
-0.0021568595
-0.0032837621
-0.0015467062
-3.1401982E-4
5.0853955E-4
0.0060572755
0.009417654
0.0060452297
0.009652999
0.01506987
0.011807146
0.010827261
0.013899839
0.016434057
0.015658941
0.009382816
0.0064301994
0.0025214888
-0.008905353
-0.015948823
-0.019701593
-0.023249146
-0.0199795
-0.01579771
-0.014186574
-0.012739359
-0.012651738
-0.009601282
-0.0035185379
-0.0011060098
-0.0010818769
-5.312244E-4
-0.002263921
-0.003410735
1.805246E-4
0.0037926538
0.005950355
0.0067625577
0.0054440154
0.008828191
0.014447079
0.015960151
0.017442646
0.012751783
0.0020090924
-2.8269683E-4
-0.0012939338
-0.0075703394
-0.0078023435
-0.006433907
-0.00846237
-0.006048708
-0.002837723
-0.0024857302
-9.140375E-4
-8.605195E-4
-0.002033696
-7.0981693E-4
-4.162572E-4
-0.0018652092
-0.0028317734
-0.0037865168
-0.0012301175
0.0041081477
0.006588389
0.008900034
0.008450078
0.0023150553
3.5816853E-4
0.001748795
0.00365646
0.0047080256
-0.004205748
-0.0078036874
-0.0013139994
-0.0075548985
-0.013833052
-0.007894512
-0.005706863
-0.0037265285
0.0053774845
0.012494245
0.009028405
0.004994412
0.009156984
0.0013038433
-0.016869565
-0.019320317
-0.0100678485
-0.00195329
0.0021433244
0.0037341295
0.0047632447
0.0038203478
0.005485857
0.0064698486
0.0033308854
0.002684052
0.001980375
5.743154E-4
-9.852631E-4
-0.0029247077
-0.0017558057
-9.150449E-4
0.001969945
0.004305356
8.303663E-4
0.0014516814
0.0039876667
0.004818532
0.0063182767
0.0031195018
-0.0017473918
-0.0051855347
-0.005190798
-0.003196216
-0.0056212535
-0.0041765166
7.713724E-4
0.0026066927
0.0038096562
-1.3622883E-4
-0.004058397
-0.0032946721
-0.004008822
-0.005235689
-0.007915455
-0.0060707033
0.002196599
0.0030734553
4.6866544E-4
0.00230202
0.0027582704
0.0016373614
0.0016188028
0.00249388
0.0029777423
0.0019046844
0.0014861845
9.829525E-4
-0.0035645291
-0.0057630823
-3.0187322E-4
0.0039851693
0.0062869084
0.0071828393
0.002072232
0.0017819575
0.005324986
0.0026207909
0.0018458616
0.0013288399
-0.0022499994
-0.0026778139
-0.005062672
-0.008163656
-0.0049961484
-5.4211076E-4
0.0021080156
0.0053295633
0.004708874
-0.0045156274
-0.013538556
-0.0136288125
-0.0076461867
-0.0016110194
5.2002165E-4
0.0020544562
0.0043245493
0.004490724
0.004228585
0.0016613775
-0.001190545
-2.1048922E-4
6.581406E-4
0.0018399537
0.0019558778
3.7373792E-4
0.003793302
0.008529897
0.00940024
0.009058873
0.007967063
0.0046668253
-0.0010490398
-0.0055187633
-0.008107846
-0.0097851325
-0.006897393
-0.0027787525
-0.0012865354
4.4478023E-5
4.7811796E-4
4.275826E-4
0.0013205829
0.002142849
0.0011966373
-0.001821054
-0.0026339458
-0.0018766467
-0.0029436604
-0.0032548888
-0.0030591602
-0.0020374807
7.662757E-4
0.001143602
0.0016875155
0.005351373
0.0073613185
0.0074838144
0.005212815
-0.001306759
-0.005295488
-0.003682623
-0.0022948803
-0.0019317172
-4.8674757E-4
-1.5922825E-4
-3.3500153E-4
0.0015136669
0.0017749858
-0.0016841675
-0.0035516433
-0.0018125664
-7.711485E-4
-9.801786E-4
-1.4599701E-4
-8.198297E-4
-0.003292057
-0.002714468
1.9163039E-5
0.0010699101
6.9717405E-4
-4.2262973E-4
-0.0012317143
3.4341725E-4
0.00265585
0.0024910176
0.002516124
0.0040350333
0.0023668413
-7.7267195E-4
-0.0016291754
-0.0012033968
8.7084546E-4
0.0018780011
7.709903E-4
0.0023357607
0.0054704053
0.005038584
-1.4870723E-4
-0.004862482
-0.00499521
-0.0038505895
-0.0018590995
9.908067E-4
0.0014883485
9.612418E-4
0.0013454846
0.0028706659
0.004146638
0.0022612847
-0.0022048764
-0.0047795675
-0.0025820395
-4.1984906E-4
3.0696734E-5
0.0032142173
0.0050794934
0.002718489
-0.0010778595
-0.00355613
-0.0010699556
-4.7476628E-4
-0.0058796
-0.009546194
-0.0104188565
-0.008241207
-0.002822845
0.002028286
0.0049743615
0.0023711463
-0.0033942426
-0.004165837
-7.5325294E-4
0.0020268555
0.003186921
0.006031869
0.009312956
0.0086680185
0.00661107
0.0034308431
3.0517668E-4
0.001219291
0.0019289544
0.0015146044
0.0027280052
0.0030741887
0.0017375642
-0.0021154508
-0.0057187197
-0.003761532
-0.0014659214
-0.0017514465
-7.2874327E-4
-1.7982817E-4
-1.2569103E-4
-0.0013709737
-0.004531323
-0.0015126375
0.0030757738
8.289976E-4
-7.21794E-4
-0.0013035088
-0.0026043202
-0.001174412
-9.676128E-4
-3.894989E-4
0.0018661772
0.0032543782
0.0043537947
0.0019435163
8.453287E-4
0.0010688043
-0.00435885
-0.0053176293
-0.0036751782
-0.006416058
-0.00272356
0.0024067927
0.0017859872
0.0013329834
-2.930749E-4
-0.002027133
-0.0017376635
-8.982492E-4
0.0011867691
0.0023753277
0.004513712
0.010342911
0.012401441
0.0046995524
-0.005158713
-0.007414359
-0.0055923862
-0.0041796444
-0.0017154311
-0.0016312262
-0.0027938164
-0.0010758933
1.2478515E-4
0.0016286559
0.0051533775
0.005651141
0.001934439
-0.0020680581
-0.0044905734
-0.0049362825
-0.002211412
4.1293658E-4
6.922095E-4
0.0031149164
0.005412332
0.005743411
0.0058666565
3.3274872E-4
-0.0031764014
0.0024073932
0.0042497288
0.0029199556
0.0012205453
-0.0061141686
-0.0071697673
-1.6219875E-4
0.0027910871
0.002118724
-0.0028722072
-0.008246347
-0.0057106777
-0.0023486768
-0.001613808
3.7823338E-5
-0.0015815011
-0.0049375906
-0.003280424
7.1206136E-4
8.82354E-4
-6.959424E-4
0.0017856903
0.0045631714
0.003111221
0.0021213163
0.0016757532
0.001355992
0.0041411
0.003729108
5.8204203E-4
0.0016076632
0.0018137869
6.2444404E-4
8.622405E-4
-5.8751635E-4
-0.0022960252
-0.003189583
-0.0031294262
-0.0020991976
-0.0024159104
-0.0015699167
7.041331E-4
0.0012583117
-7.543729E-5
-0.0019512621
-0.001439701
-2.079182E-4
-4.5581482E-4
-5.5522556E-5
0.0014205114
0.0026773755
7.799309E-4
-5.7878625E-4
0.0019147361
0.0018064753
0.001390187
0.0025078717
0.0011127267
3.684562E-4
-0.0015408257
-0.003538351
-0.0013993212
5.286211E-6
8.3883293E-4
-9.8015036E-5
-0.0035406197
-0.0029277038
-0.0016980603
-0.002385849
-0.0021070554
-0.0019832961
5.636398E-4
0.00501521
0.0070418054
0.0071251113
0.004738089
-0.0011907888
-0.005299878
-0.0032763192
-6.4435834E-4
0.0022685574
0.008201377
0.009149051
0.006905565
0.0058890386
-0.0012088818
-0.010173306
-0.013240661
-0.012301108
-0.010091134
-0.008581383
-0.0047441754
0.0010270397
0.0023959868
-2.8393458E-4
-0.002545608
-0.0013662756
1.8747571E-4
-1.3967516E-4
0.0022432883
0.0046675433
0.0032110657
0.0030429575
0.005641857
0.0060971747
0.0039160796
0.0023022091
1.4059445E-4
5.914917E-4
0.0067230253
0.009180658
0.009104765
0.0116893
0.0071129138
-0.0015759504
-0.0062069483
-0.010546342
-0.010351021
-0.006462317
-0.0052383407
-0.0011747951
-4.1073497E-4
-0.0077682603
-0.0075792777
-0.0017255342
-0.0014064497
-9.704219E-4
5.9522316E-4
6.718237E-5
-9.58347E-4
3.129734E-4
0.005255376
0.00637695
0.0015727729
-0.0035544406
-0.007738137
-0.0056396634
0.0016410243
0.0044203936
0.0023682164
2.4438257E-4
0.0012187053
0.0020676898
4.0402604E-4
0.0014901608
0.0036316926
0.0038991086
0.0039590504
0.0031297787
0.0029446846
0.003189621
0.0022955465
0.0018340498
0.001496325
7.126399E-4
-4.2173034E-4
-0.0016437185
-0.002768325
-0.0038098895
-0.0040526194
-0.0054509444
-0.0067958636
-0.005058877
-0.0040859627
-0.0042246687
-0.0041498784
-0.0055324845
-0.0040545687
-7.6078E-4
-1.9383719E-4
0.0014062227
0.0019488762
6.2599307E-4
0.0025802937
0.0027398982
0.0012284195
0.0030740977
0.0035287968
0.0024863796
0.0034755964
0.008998818
0.017412648
0.020611327
0.02172284
0.01786473
-4.3957494E-4
-0.016589882
-0.020052968
-0.019401066
-0.014698736
-0.0088853035
-0.0041786116
5.6417694E-4
-0.0011589774
-0.006103546
-0.006785722
-0.005127185
-0.0027200726
-0.0014604438
-0.0019095211
-0.0012764994
7.896282E-4
0.002777568
0.0018185646
-8.530612E-4
-1.3036477E-4
0.0021793386
0.0034065414
0.0045388723
0.0036757076
0.002203666
0.004165748
0.0072087045
0.008255678
0.006933132
0.0034692537
-2.7919735E-4
-0.003782848
-0.00616166
-0.0056376075
-0.0044126837
-0.0023410136
0.0019879113
0.0037713896
0.0026516514
0.0019479367
5.2227254E-4
7.7989104E-4
0.0035269153
0.0047685113
0.0043362514
0.0013171013
-0.0030626184
-0.003936481
-0.0042626336
-0.007716467
-0.009384616
-0.006546916
-0.0044708773
-0.005164372
-0.0049186745
-0.0033752064
-0.0013725697
1.3488869E-4
6.855762E-4
0.0020284576
0.001578096
-2.4498792E-4
-1.3757689E-4
-4.7524658E-4
-2.646791E-4
0.0019969002
0.005288826
0.008877202
0.009441318
0.0084022535
0.0076256283
0.0061556627
0.0045892727
0.001426328
1.10133755E-4
0.0012835849
4.1936815E-4
0.0023563134
0.004593986
-2.6721926E-4
-0.006127604
-0.008880951
-0.010157163
-0.009650645
-0.0077663725
-0.006331028
-0.0056399903
-0.0037156534
-0.0029895538
-0.004230326
-0.0034804652
-0.002724761
-0.0024812934
-5.269165E-4
0.0016421796
0.0039924853
0.005347416
0.005014771
0.004514036
0.0032417448
0.0025369632
0.002390166
0.0019022878
0.0034334883
0.0050628786
0.0058566895
0.007039837
0.006178292
0.006340232
0.007618828
0.0048000994
0.0027835676
6.8383024E-4
-0.007660946
-0.013975329
-0.012178864
-0.0065454524
-0.0026003278
-0.0023905355
-0.0022870966
-0.002738514
-0.002776864
-2.5958143E-4
-0.0011954027
-0.0027086395
-0.001135632
-7.802785E-4
9.2494785E-4
0.0014560567
-2.4441283E-4
0.0012783555
-6.014256E-5
-0.0026544428
7.2329456E-4
0.0037315225
0.0043325294
0.0034990022
7.008629E-4
4.740137E-4
6.576765E-4
-0.0012577652
-0.0010261554
-6.3268567E-4
-0.0020782955
-0.0013176865
0.0010142467
0.0024947105
0.0035338798
0.0025330007
5.6645556E-5
-0.0012252129
-0.0029122122
-0.005142116
-0.004041699
-4.1673568E-4
0.0013791897
0.0030596014
0.005482736
0.0041277367
0.0031404768
0.004969076
0.0027142009
6.900997E-4
0.002452177
7.5926713E-4
-0.0016415728
8.337971E-4
0.004457072
0.0033750774
-0.002979056
-0.0064395354
-0.0050831344
-0.006441433
-0.008531866
-0.007084726
-0.0060607567
-0.005454501
-0.0034813723
-0.002591155
-0.0016368822
2.5831754E-4
4.863665E-4
-1.6522469E-4
-6.2198116E-4
-6.9372974E-5
0.0024294804
0.002756142
0.0011414432
0.0027362914
0.0038376283
9.991106E-4
-6.8967184E-4
7.362165E-4
0.0039112135
0.008702947
0.012366779
0.014461887