-6.93767E-4
2.0513547E-4
-1.3373094E-5
-3.163931E-4
0.0014944604
0.0027778656
0.0022183496
0.0012504469
2.5970623E-5
-0.0011726184
-3.8183268E-4
0.0015129248
5.22422E-4
-0.0018175407
-0.0012918803
6.211064E-4
0.0011241456
9.4562914E-4
-5.685855E-4
-0.0031980723
-0.002015895
-3.8504272E-4
-0.0024464987
-0.0012149143
0.0011549185
1.9368701E-4
0.0010768644
0.0017593459
-5.284716E-5
-5.340605E-4
9.026983E-4
0.0012648897
-8.320133E-4
-3.699139E-4
0.001931263
0.001256795
5.614626E-4
-4.905681E-4
-0.0015754122
-6.201918E-4
-4.3227067E-4
5.1371363E-4
7.4756274E-4
-9.6106E-4
1.6980704E-4
0.0010165559
6.8573136E-4
0.0013228313
-5.5707246E-4
-0.0020065003
-0.0012154566
-0.0018151919
-0.0015246369
3.1194705E-4
0.0015567249
0.0028646102
0.0026854768
9.2053943E-4
-2.5056586E-5
-0.0012361823
-0.0019841157
-5.7732564E-4
5.570957E-4
5.6718715E-4
4.1371142E-4
6.614157E-4
5.775018E-4
-0.001473777
-0.0022916256
-7.193635E-4
-6.1746646E-4
-8.853557E-4
-0.0012387872
-0.0025340861
-6.312477E-4
0.0018559638
8.791461E-4
9.7028003E-4
8.4786286E-4
-0.0011595028
-1.4710281E-4
6.6723244E-4
-7.9519035E-5
0.0013307547
0.0016561011
0.0015273811
0.0021027115
0.0011191363
7.6990534E-4
4.3328077E-4
5.2646955E-4
0.0015382606
6.9658825E-4
6.702887E-4
2.3965313E-4
-0.0022198553
-0.0016432405
3.4363676E-4
-4.1807324E-4
-0.0027263458
-0.0035249589
-0.0017099908
0.0014886889
0.002726577
-0.001174446
-0.0032329063
-2.9338227E-4
5.748996E-5
-3.0097493E-4
-1.7976154E-4
-0.0011351423
2.7981792E-5
5.0669047E-4
8.2514615E-4
0.0015429069
5.037085E-4
0.0014531849
0.0014531333
-1.6181046E-5
3.1274837E-4
-9.7501575E-4
-9.805E-4
4.7314278E-4
1.5156262E-4
3.6226277E-4
7.829334E-5
0.0015876448
0.0031990372
-9.7125134E-4
-0.0031076348
-4.3905802E-5
0.0016091304
9.584448E-4
-4.6295923E-4
5.0860526E-5
0.0015333589
1.6730229E-4
-0.0014081756
-0.0013017586
-0.0010636109
-5.002922E-4
4.1414506E-4
6.762354E-4
-1.9189414E-4
-2.1697234E-4
9.684918E-4
6.2656036E-4
2.6043275E-4
5.703484E-4
-0.0011777513
-0.0033539205
-0.0030705251
-1.2527092E-4
0.0016480179
6.1007583E-4
0.002346796
0.0030653018
-0.0013768419
-0.0016110966
2.6216535E-4
-9.360299E-4
9.175298E-4
0.0018155087
-7.472754E-4
3.5748264E-4
0.0018593703
-2.3231827E-4
-9.5345126E-4
-7.397483E-6
-0.0010768443
-0.00185479
-0.0015390583
-0.002483119
-0.001283133
0.0013719411
0.0011481429
2.0361244E-4
-4.994518E-4
-4.7329167E-4
6.1613193E-4
4.723478E-4
5.411615E-4
0.001799636
0.0026598654
0.0021076777
0.0016739862
0.0029335069
0.0018479879
1.513567E-4
6.520531E-4
-0.0014020381
-0.001988631
6.063131E-4
0.0010261439
0.0013299888
2.0961137E-4
-0.0016075183
-8.329626E-4
-0.0028860206
-0.004966519
-0.0027991615
-0.0030208689
-0.004401873
-4.5841103E-4
0.0033806623
-5.272483E-4
-0.0040267427
4.113519E-4
0.0031087627
0.0016514913
0.0020350486
7.938438E-4
-8.5367484E-4
9.789324E-4
0.0020004474
0.0018735063
0.0020738267
9.5207914E-4
2.7626872E-4
4.9376E-4
-2.8792428E-4
-4.0165713E-4
5.476489E-4
1.1860845E-4
-7.255212E-4
2.5249712E-4
0.0015959482
0.0013144596
-2.9478534E-4
-0.0016998658
-6.8208674E-4
8.1331976E-4
-0.0014937841
-0.0030453296
1.4469097E-4
0.0016985836
9.6137257E-4
0.0020839835
0.0019220115
-3.677462E-4
-0.0020478496
-0.002858747
-0.0014829811
6.775327E-4
3.7352374E-4
-2.0725674E-4
1.2565733E-4
-2.8226202E-4
-5.343684E-4
-8.430322E-4
-0.0012881209
-8.195412E-4
-9.270852E-4
-0.0010404085
-4.4501005E-4
-3.00566E-4
6.105709E-4
0.0011433216
2.2666917E-4
3.7597888E-4
0.0012270283
0.0013669992
7.586347E-4
1.1636781E-4
1.6127981E-4
4.3138757E-4
0.0020783914
0.0034629405
9.053297E-4
-0.00167302
-9.38388E-4
2.1428475E-4
7.4702495E-4
5.369611E-4
-7.612081E-4
-7.6623337E-4
0.0013488607
0.0026998194
0.0011104957
-0.0020123913
-0.0025613469
-8.8012195E-4
-0.0018383731
-0.002991814
-5.544701E-4
0.0011589371
7.8317913E-4
0.0011064452
0.0015162437
1.2929429E-4
-0.0023455413
-0.0024479225
-0.0012106063
-0.0014623245
-2.0250976E-4
0.002125266
0.002227557
6.4157037E-4
-0.0018635406
-0.00195749
1.0759579E-4
-0.0014299295
-0.0030560214
2.160313E-4
0.0037368855
0.004303006
0.00281988
0.0013856448
0.0020337177
0.002071435
-2.2619979E-4
-0.0022465477
-0.00282123
-0.001751004
1.6078357E-4
0.001323537
0.0019078886
0.001414451
-5.637642E-6
-7.6783495E-4
-9.830135E-4
-4.208414E-4
8.7808736E-4
9.5753634E-4
-1.5701172E-4
-7.171199E-4
-0.0025218069
-0.005570705
-0.004157485
1.0268459E-5
0.001690405
0.0019206924
7.640929E-4
3.3037103E-4
0.0013636929
0.0010850517
0.0012991998
5.7951413E-4
-8.625689E-4
-5.9354294E-4
-8.0988405E-4
4.3278091E-4
3.0613586E-4
-0.0022909557
-4.6470435E-4
0.0011677524
1.1974581E-4
5.68981E-4
3.9675224E-4
-4.10893E-4
-3.4073548E-4
4.721974E-4
1.7309168E-4
-5.1385054E-4
5.7301833E-4
7.1684853E-4
0.0013035369
0.0013394762
-5.5539067E-4
-8.461888E-5
-4.6514184E-4
-6.6185876E-4
-2.3545105E-4
-0.0022277425
-3.1927813E-4
0.0018149001
0.0018778163
0.002583774
5.0883036E-4
0.0012326841
0.0013783599
-0.0014916257
-2.6166768E-4
-4.924798E-4
-4.529027E-4
-0.0014478683
-0.0047234436
3.2494558E-4
0.0020884483
-0.0016376907
-4.88299E-4
-0.0016701596
-9.4222615E-4
0.0013268904
-5.172455E-4
7.9665263E-4
0.001093138
3.7866426E-5
0.0013937161
1.7456591E-4
-9.1324834E-4
-0.0010161196
-0.0015096648
-8.192152E-4
-8.695903E-4
-6.629558E-4
0.0011427895
0.0025077634
0.0017417517
8.1679266E-4
3.29164E-4
-0.0021637075
-0.0018366233
9.554748E-4
2.8920235E-4
7.5330836E-4
0.0025739681
0.001672973
5.566545E-4
-3.7024516E-4
-0.0017544999
-0.0016347141
2.3554519E-4
6.0055015E-4
1.947073E-4
0.0022587832
0.0029425074
0.00131562
3.6380698E-5
-0.0018201735
-0.0028797216
-0.0024764286
-7.62839E-4
8.3279767E-4
-2.1626177E-4
2.3623143E-5
0.0014817609
5.625045E-4
-0.0014679777
-0.0038132616
-0.002969727
5.3805416E-4
0.001199137
3.6210511E-4
-4.879292E-4
-1.953022E-4
0.002073763
0.0018225892
-2.071131E-4
-1.2329753E-4
-1.4397207E-4
-0.0010814476
-5.9766177E-4
-2.3338438E-5
-1.5936994E-4
0.001294404
0.0025017543
0.0019767685
0.001325785
2.2769174E-4
1.5944157E-4
1.1179054E-4
-0.002455878
-0.0040375963
-0.003419338
-0.0014045838
0.002068543
0.003581835
0.0022213585
9.2208263E-4
2.94796E-4
-4.6617273E-4
-3.8131073E-4
-7.216034E-4
-0.0023842182
-0.0013400328
0.0014229476
0.0026393558
0.0018470808
-0.0010753163
-0.0015559079
-1.9884203E-4
-3.3049515E-4
3.6746773E-4
4.722474E-4
3.572861E-4
1.5479802E-4
1.911138E-5
0.0014162454
-0.0037882295
-0.008098136
-7.160069E-4
0.0025659532
2.1241738E-4
0.0019872058
0.002314766
0.0015636808
0.0016691117
3.4493426E-4
-7.262559E-4
-0.0011789146
-0.0016947086
-0.0012262994
0.0018881744
0.003404117
0.001073376
0.0011446347
0.002244814
0.0015254146
8.879779E-4
-8.597832E-4
-0.0026352764
-0.0040776697
-0.0037429817
-3.0850287E-4
8.318941E-4
5.6133035E-4
0.0010741653
-3.5421303E-4
-0.0018851416
-0.0018279597
2.8885025E-4
0.0015871979
-0.0011650171
-0.0027705561
-0.0019491486
-7.897861E-4
0.0018073535
0.0024250313
-3.177782E-5
-0.0015576815
-3.1706845E-4
0.0016936201
0.0012735378
0.0011917439
0.0031016893
0.0031103708
0.0023520305
0.0023272366
0.0010570353
-7.1988144E-4
-0.0017619665
-0.0017951104
-9.769083E-4
-2.6677124E-4
2.5626332E-5
6.197542E-4
0.0013649781
5.6320906E-4
-7.8385964E-4
-7.749724E-4
-0.0010285116
-0.0021464888
-0.002729786
-0.0018108351
-3.0709762E-4
-6.98814E-4
-7.692127E-4
4.913011E-4
-0.0010026646
-0.0026398855
-0.0013475163
-9.913904E-4
-0.0010508957
0.001424637
0.0035840913
0.0030039605
0.0013963085
2.6774142E-4
5.678603E-4
0.001099444
1.4862636E-4
0.001226745
0.0028021424
7.008063E-4
5.26376E-4
0.0019007672
9.6242654E-4
8.3513616E-4
-9.864841E-4
-0.002745892
-8.210155E-4
-0.0012365817
-0.0015304048
1.3112754E-4
-3.1320157E-4
0.0013392137
0.0018800936
-0.0020967673
-0.003520641
-0.003963694
-0.0042606825
-0.0012799533
-2.23759E-4
-1.4235798E-4
0.00248423
0.002732435
0.0012452297
0.001484455
0.0013238728
3.155589E-4
-3.4198185E-4
2.1120647E-6
0.001112164
9.83094E-4
4.0161813E-5
3.745266E-4
0.0014250453
0.0011582484
-4.293591E-4
-0.0014680513
-0.0014425945
-6.813342E-4
-4.7899468E-4
-5.927072E-4
0.0011230236
0.0012423247
-5.339677E-4
4.993328E-4
8.6661795E-4
-8.7370805E-4
-0.0010581868
-4.4115316E-4
-1.708942E-4
-7.5508765E-4
-2.1318601E-4
0.0016939766
6.000905E-4
-7.819304E-4
7.882899E-4
0.0012129409
-4.076908E-4
-0.0011008105
-0.0015814443
-0.0022988645
-3.4082556E-4
0.0012382613
7.0277747E-4
0.0017096972
6.407414E-4
-0.0012860647
-2.91428E-4
-8.458527E-4
-0.0010795305
-3.1718164E-4
4.4664466E-5
0.0021052693
0.0018834329
8.800213E-4
7.053358E-5
-0.0033838872
-0.0027693713
-7.652105E-4
-0.0018853041
2.1145174E-4
0.0011396925
-6.7258E-4
0.0024313086
0.004112913
8.5387996E-4
0.0016127393
0.0019116993
-0.002323747
-0.001660639
5.236292E-4
4.919313E-4
0.00221879
9.778161E-4
3.3092545E-4
0.0016071572
-0.0012581705
-0.0015233225
-6.99044E-4
-0.0022862484
-9.080455E-4
5.127651E-4
0.0016218576
0.0014632039
-0.001687451
-0.002382172
-9.0394105E-4
6.092888E-4
-7.2463816E-5
-0.0018428615
-0.001563459
-0.002743158
-0.0015887257
0.0013772121
0.0014210553
0.0031606893
0.0018825905
-0.0011752665
3.721383E-4
5.590908E-4
5.436965E-4
1.4499218E-4
-0.0011073389
0.0010842213
0.0020243183
0.0019732458
2.7185323E-4
-0.0049099657
-0.0053893
-0.002238258
-0.0018935191
-0.0034199369
-0.0016857899
0.0016858729
3.940298E-4
0.0012516148
0.0049549527
0.00604331
0.007643175
0.0051099528
0.0014810913
0.0018971161
5.2981137E-4
0.0024628632
0.0048762513
0.001884395
0.002909051
0.005651619
0.005235623
0.004581138
6.69258E-4
-0.0045172093
-0.006191206
-0.009624336
-0.016043808
-0.015746389
-0.011174377
-0.010983388
-0.008668684
-0.0041563455
-0.0036313669
-0.0022912975
8.847645E-5
0.0010850372
0.002114208
0.0017889439
-1.9985682E-4
-0.002307258
-0.0023555353
4.0864435E-4
0.0053984653
0.011359401
0.016043693
0.021996368
0.027350623
0.024951985
0.017955888
0.010591048
2.7368846E-4
-0.012533706
-0.019271404
-0.015797086
-0.010455525
-0.0049801036
9.0550294E-4
0.0019107116
0.0018020232
-0.0017623858
-0.009495836
-0.009765139
-0.00837162
-0.01034979
-0.009986945
-0.011709741
-0.0111158695
-0.004829818
-0.0010271654
0.0015523534
0.003443467
0.0041866405
0.006169731
0.006973246
0.00729721
0.0039141825
-0.0041834773
-0.0068352562
-0.0054693883
-0.0048230886
-0.0020816047
-0.0013437184
-0.0035899398
-0.0046102786
-0.004294059
-0.0026164767
-0.002660526
-0.001474259
0.0072612637
0.011795453
0.0076947166
0.007902272
0.009740448
0.008086976
0.007942197
0.007241004
0.004508725
0.0021520404
4.5614514E-5
-0.002025572
-0.0037774518
-0.0043936935
-0.0056338324
-0.0083548175
-0.009181142
-0.005999021
6.2001415E-4
0.0065566986
0.009679803
0.011578624
0.010613313
0.0067109135
0.003343535
0.0019179024
0.0026286298
0.006444859
0.009833614
0.008979109
0.008753712
0.005547694
-0.0035532748
-0.0032423483
0.0033932235
0.004401863
0.0062746587
0.007153859
0.002952618
-0.007609298
-0.027469661
-0.04394038
-0.04996478
-0.049898878
-0.046155345
-0.045911275
-0.041094482
-0.018318102
0.009410789
0.026690817
0.035633817
0.043142702
0.052902445
0.06440945
0.07208017
0.07269358
0.06965109
0.06136509
0.051222447
0.045139626
0.0297512
0.0063900407
-0.010540347
-0.03427852
-0.075860016
-0.124209486
-0.15753248
-0.16178194
-0.14867581
-0.1304789
-0.11110371
-0.07934076
-0.023002727
0.025535606
0.046061497
0.058851182
0.07069391
0.07789299
0.07389731
0.075423345
0.107174836
0.14211556
0.1627715
0.18061489
0.183881
0.16525884
0.13166654
0.08878307
0.036103535
-0.025348054
-0.073104635
-0.09501226
-0.105253614
-0.116131276
-0.1310628
-0.1482699
-0.16960119
-0.19607604
-0.21794055
-0.23073147
-0.22264427
-0.15519066
-0.03400838
0.06866118
0.126079
0.16379206
0.18671261
0.19073671
0.17357893
0.14263374
0.10165213
0.04888858
0.013873607
-0.0021526979
-0.026146889
-0.050259843
-0.075530834
-0.09911769
-0.09509138
-0.06373298
-0.02793692
-0.008027924
-0.004539159
-0.012418646
-0.02972669
-0.042849194
-0.038273457
-0.011011827
0.017704519
0.038635854
0.077882744
0.1208366
0.14532381
0.15729626
0.14438164
0.12053183
0.12777805
0.151178
0.1271089
0.046625413
-0.045910917
-0.12971076
-0.17006142
-0.15797904
-0.15365738
-0.15977871
-0.15370011
-0.15938163
-0.16406845
-0.13724749
-0.087210216
-0.03485164
0.00658255
0.031544488
0.041875966
0.04423246
0.036492225
0.024166226
0.023849938
0.029664617
0.034859568
0.046016134
0.05597917
0.057803836
0.059603494
0.06410146
0.06806375
0.0737899
0.07453111
0.0614679
0.041662473
0.019675681
-0.0062275236
-0.027852798
-0.032640815
-0.026952084
-0.027277386
-0.03520372
-0.046939813
-0.046846546
-0.026692348
-0.013130526
-0.011566343
-0.0040024165
0.005687601
0.010659256
0.016065704
0.025640573
0.032039665
0.034665175
0.03401145
0.019708794
0.00390457
-0.0042340667
-0.013498339
-0.02074204
-0.035316583
-0.05880181
-0.06211299
-0.038124584
-0.012177988
0.0025033623
0.0076028197
-0.0072932104
-0.029373735
-0.032246802
-0.025896532
-0.016988333
-0.0147969285
-0.03524054
-0.061398625
-0.07259272
-0.058111776
-0.032855425
-0.006324577
0.045574937
0.09976163
0.13564943
0.17378268
0.19431825
0.18433021
0.16276139
0.12947315
0.07852188
0.020518985
-0.049162596
-0.14676553
-0.20760576
-0.17983106
-0.12874296
-0.07933985
-0.029296624
-0.019241558
-0.03276964
-0.044490926
-0.059674066
-0.06348926
-0.04698789
-0.018839525
9.673123E-4
0.010796521
0.029928556
0.046534576
0.049096238
0.052983463
0.06190777
0.070733756
0.07451682
0.065832
0.050672207
0.03550237
0.012928543
-0.0075416653
-0.011004029
-0.010375315
-0.017090777
-0.027619801
-0.03712005
-0.042801447
-0.048559148
-0.05059267
-0.041119058
-0.026798101
-0.016281879
-0.007868041
0.0022052974
0.010706105
0.01928669
0.03135659
0.038961053
0.04080854
0.039700467
0.034123693
0.026454344
0.016179502
0.0044921325
-0.0066442667
-0.01789769
-0.026128197
-0.03066613
-0.030573674
-0.02838398
-0.02659504
-0.018984256
-0.010143133
-0.0039842227
0.005162738
0.0141689405
0.021055259
0.024366282
0.021208694
0.016007384
0.011633851
0.0070803766
-0.0013861557
-0.011417064
-0.014598243
-0.014344747
-0.014804222
-0.014017266
-0.012770646
-0.010494873
-0.008505238
-0.0080452375
-0.0076580322
-0.008671343
-0.0115312515
-0.012514309
-0.0058099506
0.0065849815
0.015360642
0.01833152
0.020829296
0.025949335
0.027270822
0.023862286
0.02390618
0.020735
0.011511093
0.006129691
0.0023486288
5.410507E-4
5.1447685E-4
-0.0090685235
-0.020827534
-0.019285398
-0.011136504
-0.0071013644
-0.0058463067
-0.0076622795
-0.010082741
-0.006466724
-0.007101552
-0.016256902
-0.016921625
-0.0075775534
-0.001031762
-1.972709E-4
0.0023722674
0.008013329
0.007362272
0.004329152
0.0024630355
2.8610768E-4
0.00940773
0.019260041
0.016780337
0.015041793
0.008943464
-0.001068376
0.0024382751
0.0073007
3.0488547E-4
-0.008437107
-0.01137987
-0.009518624
-0.0047267526
-1.3139092E-4
-0.005404178
-0.019942302
-0.023337912
-0.009870554
-9.629923E-4
-0.004851837
-0.0049218964
2.7171787E-4
8.495604E-4
0.0033152616
0.0074634147
0.005422927
0.00385363
0.006915094
0.007256371
0.005860958
0.010153937
0.011304104
0.0044689435
0.0033985157
0.003181583
-0.002981947
-0.0021637476
0.0027217362
0.0026821345
6.1033864E-4
-5.7172234E-4
-7.973565E-4
-0.0047544446
-0.009082729
-0.0071995226
-0.0040049045
-0.0024706298
-0.0027547108
-0.0037103745
-0.0034817941
-0.0038652648
-8.450169E-4
0.007554604
0.014553216
0.015921053
0.012883975
0.005441605
-0.008979679
-0.018015936
-0.010680948
-0.0024763378
-0.0025359897
-0.006287166
-0.008728951
-0.003715048
-0.001638353
-0.0056878636
-0.0034599106
-0.003470488
-0.008681515
-0.0071275444
-0.002931853
0.0018723625
0.009252338
0.011035214
0.006922945
0.006109138
0.009671433
0.010763854
0.009447772
0.0073415316
0.0023998134
0.001334573
0.004518267
0.0038323936
0.0021747046
-1.1040476E-4
-0.0042560007
-0.004926802
-0.0038774968
-0.0032437367
-0.001920442
-0.0012018197
-9.0175244E-4
-8.493534E-4
-0.002166389
-0.006453939
-0.008002538
-0.003168377
-0.0036659788
-0.006670672
-1.8720278E-4
0.00607267
0.0058232066
0.004546968
0.003918111
0.0029172646
-0.0018941914
-0.0061044507
-0.0055781202
-0.0065757493
-0.0072404533
-0.003905224
-6.034078E-4
0.0011208375
0.0018204123
0.0037410357
0.0045305877
5.1804003E-4
3.19528E-4
0.004873616
0.0040299096
0.0013417599
0.0015903926
0.0030636038
0.006486162
0.0069197076
0.0054134745
0.008132168
0.007735249
0.001480017
-0.005084396
-0.0076920944
-0.003321865
-0.0018054909
-0.0062917965
-0.0075396383
-0.008117456
-0.0076509397
-0.0052437237
-0.0073855915
-0.009642589
-0.009215216
-0.0049021393
0.0076674838
0.018419506
0.018177247
0.008988222
-0.0016932902
-0.00346255
-0.0014364128
-0.002581578
7.372216E-4
0.007469023
0.010626745
0.009750359
0.0062190616
0.0038553744
0.0017451028
-0.0023343905
-0.0045234202
-0.005414283
-0.0062881117
-0.0049442104
-0.0049036406
-0.0077111386
-0.0073585114
-0.0057854867
-0.008546634
-0.007462356
-0.0012192536
4.5528167E-4
0.0020697527
0.0052033267
0.0057103704
0.006567413
0.0030501166
-0.0016335768
5.169989E-5
-2.7601985E-4
-9.6454244E-4
0.0036076494
0.006894492
0.007942423
0.009335694
0.008324545
0.0020727916
-0.002549075
-0.0017830812
-0.005055271
-0.008762543
-0.0057857404
-0.0033588023
-8.3958596E-4
0.0038007614
0.0027886967
-0.0018685652
-0.0016122123
-0.0011284231
-0.0034117177
-0.0018504893
-4.686279E-4
0.0010949104
0.0035552424
-0.003897405
-0.007814825
-0.0014899868
-0.001686907
-0.0013110288
0.001071734
-0.001225915
6.417022E-4
0.0011648595
-3.9035472E-4
0.002782026
0.0032386607
0.0011947516
-1.79428E-4
-6.0647615E-4
4.28106E-4
2.1180438E-4
0.0016472779
0.002928848
0.0031333012
0.0060915174
0.0031525814
-0.0033613432
-9.1278594E-4
0.0037227557
0.0022407125
-0.0013672406
-0.0029431058
-0.0024605128
-5.355472E-4
0.002320767
0.0021757316
-0.0020568238
-0.0048243417
-0.00335721
-0.001124744
-3.307102E-4
6.3129765E-4
0.0011032242
0.001057689
0.0011474756
-4.8542137E-5
8.055975E-4
0.0018351855
-0.001782069
-0.0045484877
-0.00665883
-0.008838304
-0.00618265
-0.00234951
0.0017413393
0.002968558
-0.001703841
-7.5840566E-4
0.0031642066
0.0021127358
0.0012244327
-0.0035246077
-0.008077656
-0.0028180869
0.0020400244
0.002224074
0.0031486778
0.005291776
0.009979824
0.013162523
0.0105003305
0.005411991
3.0734675E-4
-0.001717518
8.786112E-4
0.0030907756
0.0027627107
7.778183E-4
-0.0028188643
-0.0060081556
-0.006351509
-0.004422724
-0.0057619535
-0.009003536
-0.00578332
-0.0012708612
-0.0010685804
-0.0021134086
-0.0042258473
-0.0026748176
2.82932E-4
-0.001013349
0.0019500563
0.0062674726
0.0031857248
-0.0011970785
-0.0020646206
-8.271481E-4
-0.0012257273
-0.0014162709
0.0015615217
0.002955628
0.0037063772
0.0044998582
0.005739939
0.009301309
0.0053990744
-0.0024896194
-0.0029645616
-0.003233964
-0.004191909
-0.0012678263
0.0010897956
0.0021438734
0.0029624437
0.0028217677
9.824919E-4
-0.002489797
-0.0046067974
-0.0042613866
-0.0042331195
-0.005258522
-0.0043479325
-0.0021044025
-7.467035E-4
-4.5951565E-5
-6.054066E-4
-4.4456415E-4
-3.274911E-4
-0.0021206604
-0.0020228548
-0.0014644174
-3.2776664E-4
0.0031391946
0.003652123
0.003405882
0.0048855683
0.004679514
0.0041494216
0.0046512214
0.0060907993
0.0057684598
0.005187567
0.008723942
0.0076923287
5.54467E-4
-0.0035633007
-0.006187668
-0.007249396
-0.0054831696
-0.005153386
-0.0054621845
-0.0044723055
-0.0026949958
-0.0018989427
-0.0035813665
-0.006116729
-0.00810112
-0.006950081
-0.0032061934
-0.002677809
-0.0032626376
-8.5429486E-4
5.091465E-4
0.0011987449
0.0047399327
0.0061705285
0.0039271577
0.00379485
0.0044574738
0.0036821216
0.003721101
0.0033256197
0.002960283
0.0026352508
4.778544E-5
-0.001588393
-0.001454487
1.7332823E-5
0.0055654617
0.011019767
0.010420565
0.004466839
-0.0021986226
-0.006877938
-0.00893029
-0.006472587
-0.0042537614
-0.0039010344
0.0012064596
0.0044285827
-1.2348249E-4
-0.0039044963
-0.0031579684
8.318906E-5
0.0025958426
0.0020694314
6.146897E-4
-4.2691355E-4
-0.0016578397
-0.0026435985
-0.0023549194
-0.0035537246
-0.004364782
-8.209364E-5
7.5876556E-4
-0.0024794445
-0.0033800008
-0.0062680314
-0.0038642725
0.0042260145
0.0038360483
0.0015856317
0.0032951052
0.004312623
0.004920002
6.9583376E-4
-0.004635584
-0.0033526658
-0.0014846389
-2.2037896E-4
0.0038789925
0.0062844497
0.0069630863
0.00941394
0.008663046
0.002446671
-0.002067914
-0.0015283314
7.29007E-4
1.1256474E-4
-0.0023135168
-0.0016301317
-0.0014161245
-0.0026189066
-9.2985283E-4
-9.321719E-4
-0.003298631
-0.0042478475
-0.004533557
-0.0027742763
-8.8908523E-4
-7.9895346E-4
1.898681E-4
0.0016777045
0.003100174
0.0019041644
-0.0023415813
-0.0035547737
-0.0025807095
-0.0024554944
-0.001847892
-0.001282669
-6.282244E-4
1.5583745E-4
0.0010979349
0.0018074524
4.97674E-4
-0.0012721858
-0.0032359282
-0.0045659244
-0.0031497844
-0.0024231446
-0.0018807114
1.5289015E-4
0.0014242901
0.0040308204
0.0074790847
0.009243174
0.00836662
0.005163448
0.0057916674
0.008488975
0.006735388
0.0023874124
-0.0029093053
-0.0032973653
0.00218738
0.0031382185
0.0015967175
1.907604E-4
-0.0047381273
-0.006077958
-0.0039508175
-0.0026576503
-5.006909E-4
-0.0065719634
-0.015901355
-0.011175156
-0.003342098
-0.0025354903
-0.0016440076
-0.001494931
-4.329825E-4
0.0020389208
0.0010303529
6.746801E-4
0.0022659628
0.0029173864
0.0028040013
0.0020754032
0.0027990472
0.0036077937
0.0024001424
0.0011192091
1.0892031E-4
5.854814E-4
0.0021714692
0.0012432981
4.541521E-4
0.0029265007
0.0018841402
-0.0027012606
-0.001248633
0.0011249029
-6.588762E-4
-6.697632E-4
-0.0015656912
-0.0027023486
-0.0017094326
-0.001346614
0.0021249333
0.004646192
0.00377445
0.004505498
0.0029081819
0.0026293974
0.004819182
0.0026564414
2.2169008E-4
-0.0036656598
-0.006964466
-0.0027971854
-0.0012110214
-0.003971007
-0.0026849685
-9.2430087E-4
-0.0018524333
-0.002334695
-8.4056315E-4
-3.8177193E-5
-8.015856E-5
0.0017539691
0.0028548117
0.002012312
0.0016328093
0.002003444
0.0014789499
-5.463503E-4
-4.052738E-4
-7.8985136E-4
-0.0051259827
-0.0053585735
-0.0023927107
-0.0021239005
-9.002923E-4
2.0389592E-4
-9.608116E-4
-0.0024226657
-0.0037272046
-0.0037401943
-0.0029109914
-0.0016152407
3.3435572E-4
0.0016302732
0.002597658
0.0026404494
0.0019031778
9.829726E-4
3.033831E-4
0.0035331708
0.0073675155
0.00886789
0.012401417
0.013411414
0.010217441
0.008735072
0.005484649
-4.9162237E-4
-0.0026750187
-0.0022995113
-0.0051749265
-0.007886253
-0.0047333455
-0.0019425851
-0.0057675657
-0.0113200545
-0.011299124
-0.0068093673
-0.0048401016
-0.0048675365
-0.004640818
-0.0039033238
-0.00168368
-0.0025675492
-0.0035329207
-9.3522E-4
-3.6444975E-4
0.00143939
0.0033346317
0.0016688452
0.002353075
0.0036534744
0.0055427803
0.008056354
0.006472831
0.005594529
0.0048780893
8.352764E-4
-0.0010653835
0.0019663752
0.0048979395
0.0010989105
-0.0029000351
-0.0013061332
2.8904597E-4
0.0011856022
-0.0023663233
-0.0071584573
-0.0032014376
6.220064E-4
-2.6941157E-4
-9.022795E-4
-0.0028514836
-0.003176722
8.982702E-4
0.006426092
0.008207396
0.004783093
-5.6998717E-4
-0.006414532
-0.00649587
-0.001859766
-0.0015831887
-0.0013965179
2.2875934E-4
2.2454585E-4
0.0015020561
0.0018417606
4.8695496E-4
-0.0010343842
-0.0014811257
9.5338555E-4
0.0012152586
1.0225718E-4
4.9543707E-4
-0.0022624943
-0.0033006817
-2.4198137E-4
-4.426602E-4
-9.117375E-4
9.74224E-4
4.597635E-4
-6.938044E-4
3.6078357E-4
0.0017799266
0.002375057
0.001064184
-0.0015741371
-0.0017790659
-1.5763596E-4
-3.6695864E-4
-0.0011826806
-0.0010133877
-3.507777E-5
0.002467283
0.0027704265
-5.8852875E-4
-0.0017792262
-0.001407387
-0.001825158
2.53069E-4
0.0020437648
7.7285944E-4
7.7093777E-4
0.0024371764
0.0030166972
0.002629512
0.0018257067
3.3837286E-4
-0.0011044935
-6.47652E-4
0.0011355509
0.0014734834
9.6325733E-4
9.7019284E-4
-0.002121385
-0.005672725
-0.002753937
2.7423832E-4
2.8678283E-4
0.0017850325
0.0011378279
2.652104E-4
4.3216534E-4
-0.003460698
-0.0061359974
-0.0053007877
-0.0036247363
-9.390676E-4
1.7526065E-4
0.0013932838
0.0027300587
0.0027625093
0.0037455293
0.0023425426
9.3605084E-4
0.0019665682
-4.0176205E-4
-0.0016308279
4.494595E-5
-3.224082E-4
0.0011089011
0.0012629296
-0.0023376641
7.277907E-4
0.0063208905
0.004114128
0.001729332
-3.4781176E-4
-0.007192167
-0.007841929
-0.001504747
0.0012225979
3.6953142E-4
-0.0016418367
-0.002028767
-5.049994E-4
4.909247E-4
0.0018312427
0.001930839
0.0026999267
0.004076306
0.0011819223
-5.941661E-4
1.9783663E-4
-0.0016858375
-0.003614388
-0.0024607163
2.8927615E-4
3.891004E-4
-9.85783E-4
1.9019874E-4
1.0106301E-4
-6.5194827E-4
0.0028105725
0.005321255
0.0020684206
-0.0010011521
-0.0012424256
-0.002698317
-0.0036412722
-0.0038322015
-0.003715081
2.3522614E-4
0.0026197992
0.0017974538
0.0023183979
0.0012587253
-1.4072515E-4
-1.2952684E-4
4.1572606E-5
3.5864933E-4
-0.0011418309
-4.6835343E-5
0.002791272
0.0015553506
0.0011946171
0.0010264671
-0.0010947965
-0.0015618474
-0.0015375892
-5.7153153E-5
0.0013438362
9.1245153E-4
0.0022199126
0.001744697
-6.983484E-4
-3.4754266E-4
-7.875006E-4
-0.0031597652
-0.0035742042
-0.0020862964
-0.0010234567
-9.5715956E-4
-6.929057E-4
-0.0011107392
-0.003118156
-0.0043025413
-0.0031078411
2.0805359E-4
0.0037495138
0.004150319
0.0025228108
0.0013278314
0.0010198251
0.004134983
0.006088193
0.0020819951
3.1146625E-4
0.0020371727
0.0020630646
9.6702937E-4
-0.0021077222
-0.003532138
-0.0017172848
-4.936188E-4
7.417313E-4
-0.001353941
-0.0038532258
-0.0012041118
-4.3827287E-4
-7.8386517E-4
5.1391317E-4
1.288115E-4
4.728925E-4
-1.4667326E-4
-0.0031540834
-0.00680509
-0.009216884
-0.0038813134
0.0045785117
0.0072500566
0.006883665
0.005731493
0.004143404
0.003197855
0.00234791
0.001190509
4.2165135E-4
8.885911E-4
-6.8723765E-4
-0.00536855
-0.007912241
-0.0061069927
-0.0030267756
-0.0015244624
-3.849301E-4
0.0011491087
0.0024082917
0.0037469682
0.001856047
-0.0031960495
-0.004678131
-0.0015126948
0.0011068903
0.0015345104
0.0024392481
0.0028193647
0.0026779321
0.00278749
2.804857E-4
2.2373018E-4
0.0025991902
0.001056652
3.1369587E-4
-7.1562186E-4
-0.0017982619
9.50206E-4
-1.434722E-4
-0.0012376908
0.0014701089
9.1119524E-4
-6.09856E-4
-0.0033137996
-0.0047101662
-5.094206E-4
0.0013815743
-4.6436593E-4
-0.0025825016
-0.0032139684
-8.071727E-4
9.860072E-4
0.0015649685
0.001573394
0.0013550032