-0.16269426
-0.26868206
-0.36996448
-0.3937656
-0.30166158
-0.1142459
0.05081856
0.13656239
0.17814732
0.17786336
0.15600699
0.09483226
-0.026844589
-0.123588935
-0.14720242
-0.09047862
0.03522298
0.14558227
0.19337511
0.16347747
0.054408856
-0.06582351
-0.13766915
-0.14221287
-0.09271458
-0.037155386
-0.004117463
0.0048629823
-0.0036030423
-0.023086786
-0.050311346
-0.068452306
-0.06551071
-0.054173656
-0.043001864
-0.02517969
-0.0018480645
0.023260731
0.0518043
0.07628629
0.08727328
0.08927931
0.09437175
0.09236911
0.07581426
0.06460189
0.046822004
0.018915003
0.006004887
-0.006240423
-0.011331083
0.0035701988
0.01297501
0.006826856
-0.025349347
-0.05392628
-0.044362586
-0.03643837
-0.030052615
-0.009406158
1.8135086E-4
0.012822692
0.039012007
0.053359427
0.03838072
0.0072672023
-0.020068882
-0.052478
-0.08168081
-0.09513181
-0.09413648
-0.077523455
-0.070007406
-0.05946933
-0.026389169
-0.0034821262
0.012417277
0.0235786
0.019775761
0.019925427
0.017866103
0.021273509
0.03501835
0.038469277
0.050972726
0.06586642
0.057562366
0.0410437
0.020351132
0.0026600517
-0.004342908
-0.0051921755
0.010581258
0.024409719
0.016125798
0.012493906
0.021676324
0.023989944
0.014226034
-0.0023452195
-0.019395266
-0.03260926
-0.035362557
-0.028469125
-0.0253789
-0.021969264
-0.011328793
-0.005694557
-0.0024138323
8.965532E-4
-0.008957141
-0.018811021
-0.012746201
-0.003218521
0.0011054627
-1.0401519E-4
-0.0066615306
-0.020971812
-0.039625395
-0.03862472
-0.021036187
-0.0072539593
0.015405592
0.03667132
0.040712453
0.043239847
0.03258549
0.018746559
0.03342655
0.047122642
0.04236466
0.03555405
0.017959578
-0.0074850484
-0.02254823
-0.030654611
-0.039620608
-0.038827527
-0.024511416
-0.013006483
-0.00580425
0.0051311306
0.014393
0.0051076445
-0.02539494
-0.035313472
-0.01050743
3.211215E-4
-0.015899688
-0.02543446
-0.017217008
-0.004935308
0.011560518
0.031903822
0.034814637
0.025089873
0.019041505
0.011800324
0.0046890806
-0.0058951667
-0.017114654
-0.018696802
-0.011445109
0.009430045
0.015291047
-0.013083297
-0.029833874
-0.019703116
-0.0061395355
-0.0018786581
-0.0052509913
0.0040443223
0.020894941
0.024849687
0.013306821
-0.0014103245
0.008605945
0.02943907
0.030830929
0.028711498
0.027377268
0.02691795
0.037965436
0.03199164
-0.0075989175
-0.0424172
-0.04369051
-0.0330357
-0.034447454
-0.036851883
-0.030081898
-0.021442441
-0.015634278
-0.013451776
-0.0149085345
-0.017630503
-0.01813084
-0.020047707
-0.03398991
-0.054304887
-0.056746993
-0.03651566
-0.011677367
0.01000258
0.024090499
0.0263193
0.02212001
0.018334467
0.027794853
0.042747833
0.04250584
0.039822046
0.042691782
0.04787302
0.057859965
0.062453598
0.0671067
0.072289795
0.06095133
0.03932889
0.019050576
0.004797341
-0.011222034
-0.023716018
-0.0138704255
-0.004201311
0.010644658
0.033042766
0.011236586
-0.020191332
-0.04251669
-0.100921564
-0.12574145
-0.1013667
-0.115795575
-0.14459357
-0.14317504
-0.11428129
-0.050413866
0.011763048
0.029202744
0.018026773
0.016569573
0.025617145
0.017654441
0.008238093
0.024929592
0.05496633
0.07724875
0.08014942
0.072470844
0.06698712
0.059896387
0.056299426
0.058171928
0.059275873
0.06375168
0.06556862
0.061220597
0.06085483
0.046017617
0.0026795682
-0.032101158
-0.044155568
-0.05353904
-0.052304443
-0.045478716
-0.046091482
-0.04071018
-0.03800394
-0.041941572
-0.038337458
-0.026483538
0.0023089782
0.025096854
0.008747536
-0.018519642
-0.0290931
-0.028100459
-0.029327078
-0.039612077
-0.04619128
-0.046336543
-0.042499047
-0.03817525
-0.030248363
0.0057000727
0.04081536
0.036081735
0.026030915
0.024335923
0.017333103
0.017837288
0.021738144
0.01734219
0.010866442
0.008978492
0.013556988
0.022722522
0.029281413
0.02542127
0.021599494
0.030270772
0.036187552
0.025889592
0.010355966
0.002730081
0.0013684273
-0.0039445413
-0.015821833
-0.019363862
-0.0026129466
0.01645084
0.020358216
0.014133414
0.004165789
-0.0010102332
-0.00332819
-0.007856399
-0.0053205458
-0.009092849
-0.017511148
0.0033146911
0.020827422
-0.006799005
-0.034612697
-0.032181103
-0.026189199
-0.02582985
-0.021363894
-0.02077887
-0.040372342
-0.0640009
-0.061659727
-0.045312338
-0.035662465
-0.024830712
-0.014625917
-0.015406478
-0.014132278
-0.0026179731
0.005756885
0.011356229
0.024067095
0.039375845
0.047468033
0.048898745
0.057549797
0.0690719
0.065775126
0.058538456
0.05881934
0.060322784
0.057157595
0.048729196
0.043640714
0.03880432
0.03122626
0.026505142
0.016110776
-1.8238375E-4
-0.015716845
-0.027520211
-0.042511087
-0.06329145
-0.06703111
-0.07863207
-0.10567925
-0.09625808
-0.08592669
-0.093819335
-0.08330582
-0.06804301
-0.02596666
0.0052166423
-0.02762914
-0.03914111
-0.029914895
-0.03494656
-0.015575202
-0.0109112095
-0.013948593
0.018271577
0.052090313
0.0832005
0.10836622
0.12043973
0.1325617
0.13161698
0.11887147
0.09722114
0.06432475
0.031478148
0.006283783
0.005297843
0.014084002
0.003293337
-0.024643311
-0.051484086
-0.042649955
-0.017763076
-0.01887389
-0.02042367
-0.020968614
-0.03592671
-0.049542584
-0.057470847
-0.051173598
-0.047113936
-0.058145165
-0.055868186
-0.050857827
-0.04904111
-0.03170808
-0.013090119
0.0047706966
0.01288029
-0.004630526
-0.01312221
0.0027875414
0.017018499
0.024961473
0.02529279
0.019569466
0.038213626
0.061050598
0.032366578
-0.010468691
-0.034263667
-0.061876483
-0.05345294
-0.0059284433
0.034338947
0.066478916
0.060865276
0.040145718
0.06613232
0.100415535
0.12268309
0.123010226
0.07081583
0.012518585
-0.025239302
-0.0709672
-0.124524675
-0.13211237
-0.06476637
0.002046257
0.028368624
0.01610458
-0.038568947
-0.052117713
-0.018998688
-0.01942469
-0.044690873
-0.06645014
-0.048538674
-0.010757696
-0.016221706
-0.027936973
-0.030211486
-0.027831517
-0.0032023445
0.012239145
0.033542905
0.070138335
0.08515634
0.07450092
0.04034821
0.024600528
0.032122772
0.014702716
0.0056929993
0.014124761
0.006409205
0.003536705
0.008809356
0.0038834468
-0.008049159
-0.021744076
-0.034923635
-0.033140533
-0.018589739
-0.019555843
-0.015106121
0.00661108
0.008268015
0.006999654
0.0111133875
-0.010151247
-0.041477762
-0.050788
-0.02201251
0.010725355
0.008377103
0.009348843
0.023958651
0.019919068
0.0051185843
-0.01681076
-0.036484793
-0.030010875
-0.0074370685
0.015281786
0.02968637
0.02811597
0.021333812
0.027686998
0.039264534
0.030521858
0.013257033
0.008285922
0.015072795
0.035015255
0.035977665
0.010639162
0.0013699415
-0.0062776753
-0.017983431
-0.012244986
-0.010223864
-0.0074130837
-0.0074599907
-0.029678278
-0.04648889
-0.05248835
-0.05641558
-0.063437685
-0.079335935
-0.07447088
-0.058974173
-0.059938714
-0.05125718
-0.024400003
0.005659566
0.027373644
0.037608247
0.040339332
0.027640227
0.013609328
0.018417884
0.035611466
0.058392566
0.07656103
0.08518839
0.09153411
0.09648149
0.1006991
0.09880799
0.07585144
0.033498175
-0.008940924
-0.034593884
-0.042716045
-0.05529623
-0.05985857
-0.027085694
-0.006315102
-0.011214739
-0.0066034715
-0.03287125
-0.06807924
-0.059140407
-0.050187528
-0.044176746
-0.03267605
-0.039543364
-0.040594622
-0.029905777
-0.023718057
-0.025937105
-0.027697554
-0.009805269
0.0052387873
0.009979576
0.02049196
0.019562596
0.01676531
0.018111866
0.0062331045
-0.003284205
-0.0063830847
-0.010463402
-0.01750699
-0.025102137
-0.002509819
0.0401623
0.06621542
0.081440955
0.08637036
0.08707691
0.08118124
0.05031452
0.0254802
0.0079655945
-0.016419664
-0.013319607
-0.006093553
-0.022114612
-0.028095828
-0.020912267
-0.018790161
-0.02128717
-0.017275874
-0.015662232
-0.023299856
-0.021275211
-0.0212541
-0.024631241
-0.020691046
-0.021025125
-0.019698193
-0.038447138
-0.059427775
-0.023602014
0.026515923
0.045543373
0.035855204
0.015029003
0.011421278
7.2729273E-4
-0.007914647
0.00612205
0.012482152
0.01592163
0.0016768415
-0.028749023
-0.04173233
-0.056148976
-0.0559938
-0.03576821
-0.021981386
0.0015562016
0.02398559
0.040228948
0.05245104
0.04972485
0.05268847
0.047354463
0.03477718
0.036645878
0.03149064
0.036492903
0.03784125
0.0027635563
-0.01016859
0.007080255
0.008064255
0.0019140334
1.4956956E-4
-0.008214513
-0.026389597
-0.029161897
-0.013100209
-0.0083183
0.0019840163
0.017468058
-0.0044927313
-0.042320255
-0.05860045
-0.06522171
-0.07513253
-0.08251879
-0.07361655
-0.036105894
0.015794203
0.045943063
0.059634622
0.07479476
0.063492514
0.034190144
0.014504082
-0.01793601
-0.055804424
-0.065923594
-0.046360865
-0.0136344675
0.012804925
0.03326741
0.0481432
0.055110432
0.05445747
0.033808105
0.014771489
0.015473264
0.01410326
0.013311759
0.011856753
0.00206248
-0.0013360622
-0.0042095585
-0.011412875
-0.013503336
-0.0073037706
0.0062428014
0.0071662287
-0.012014747
-0.028945146
-0.032504544
-0.022426154
-0.007976755
-0.008226657
-0.016178448
-0.017969698
-0.021810556
-0.020863779
-0.008004043
-1.1743485E-4
-0.0016453388
-0.01175434
-0.019950382
-0.01003248
-0.00225892
-8.974127E-4
0.013496342
0.025099618
0.02531732
0.021321597
-0.0035658395
-0.041494396
-0.037875373
0.010234398
0.039158497
0.041693155
0.04431319
0.039141312
0.034712795
0.02820062
0.0053606126
-0.011240871
-0.014267751
-0.008579759
0.012807181
0.040931832
0.054184616
0.04385488
0.031278253
0.02675976
0.023629272
0.016369095
-0.02556214
-0.08008535
-0.08982832
-0.08867261
-0.10512196
-0.10318557
-0.07964478
-0.057979446
-0.04728287
-0.03655784
-0.018774439
-0.009664804
-0.010482774
-0.00966677
-0.001859102
0.016235854
0.036210332
0.05215201
0.06574955
0.07603532
0.083078265
0.083930336
0.081544384
0.08098628
0.085642576
0.09817862
0.092688344
0.057691216
0.028857177
0.015751267
3.6305202E-5
-0.018355804
-0.03371567
-0.042645738
-0.052895818
-0.07164995
-0.075329825
-0.05350991
-0.041891593
-0.058269966
-0.07383466
-0.067349136
-0.048227716
-0.030090285
-0.015476275
-0.0078664245
-0.012841465
-0.02059312
-0.024450388
-0.025673762
-0.0175333
-0.010085346
-0.007993569
0.0036778175
0.012413125
0.011199787
0.014718633
0.018881274
0.022271046
0.031305693
0.04185294
0.046075355
0.042324983
0.042474687
0.047098286
0.04201838
0.033417057
0.029942676
0.031235771
0.047582287
0.06071773
0.04748921
0.035876766
0.020940153
-0.01371564
-0.021079797
-0.0035129976
0.0021687134
0.0020565384
-0.005578285
-0.02431496
-0.06448421
-0.10613927
-0.09658996
-0.06595606
-0.05781128
-0.0677127
-0.08913898
-0.097833395
-0.09802431
-0.1085617
-0.11002517
-0.08242581
-0.026235955
0.04819123
0.13462536
0.1900328
0.18519008
0.15725277
0.103976004
0.045963198
0.02363515
4.0976802E-4
-0.012116407
0.0050603375
0.04336126
0.11379162
0.14067316
0.10313475
0.077775344
0.044992987
-0.004409706
-0.029740311
-0.052994177
-0.09359921
-0.13383193
-0.15494221
-0.150163
-0.14057632
-0.14888631
-0.15765934
-0.138295
-0.09780689
-0.055598605
-0.015542834
0.02691024
0.06845807
0.09322985
0.09685262
0.089790136
0.08141678
0.07718786
0.08001355
0.082313366
0.06877978
0.047299944
0.03256729
0.02356699
0.01973226
0.012390162
0.004613685
7.7131175E-4
-0.015308833
-0.023881944
-0.012551107
-0.010411606
-0.0131781725
-0.01578748
-0.025010066
-0.027571326
-0.035208803
-0.04438005
-0.026207441
2.984753E-4
0.017080026
0.029933976
0.030148664
0.023985805
0.019236198
0.0050900257
-0.014260841
-0.020491008
-0.011338569
-0.009799768
-0.010505347
0.009212947
0.012258077
-0.019762358
-0.0446315
-0.043074254
-0.025492525
-0.021504732
-0.029477544
-0.014326194
-5.9162907E-4
-0.0071886377
-0.0066698217
0.0026260004
0.008162947
2.0709906E-4
-0.0020033335
0.018919284
0.029642891
0.030476322
0.03667151
0.023389798
2.054613E-4
-0.0054977024
6.8912347E-4
0.00939719
0.010923876
-0.0062826755
-0.025438536
-0.028321747
-0.031441882
-0.030809123
-0.010186367
0.016788086
0.046793055
0.073753856
0.08986806
0.09779091
0.090256564
0.081948064
0.07135786
0.05398472
0.044562846
-0.012460085
-0.107396245
-0.14283329
-0.13452554
-0.10431652
-0.042251665
0.0034218163
0.025336318
0.020310553
-0.02570361
-0.054942135
-0.052367378
-0.06853793
-0.09032328
-0.074674726
-0.040977687
-0.022233116
-0.007963457
0.017858075
0.058468457
0.10087946
0.12296278
0.12889409
0.12130968
0.09381056
0.06341029
0.04938705
0.048482634
0.037007123
0.005244797
-0.037640166
-0.074889936
-0.087176524
-0.10170382
-0.12249189
-0.104679205
-0.071487255
-0.043814857
-0.022290112
-0.036545042
-0.045110837
-0.030001909
-0.042282715
-0.056924447
-0.038952276
-8.764648E-4
0.039981525
0.06888941
0.09142106
0.10319579
0.120725214
0.1645504
0.18127555
0.1669647
0.15769656
0.11565601
0.05133229
0.002451487
-0.054223534
-0.099732935
-0.11911415
-0.15210696
-0.180781
-0.15943363
-0.10833205
-0.072116286
-0.053894747
-0.04624292
-0.05329468
-0.055009115
-0.042141955
-0.0248478
-0.012562262
-0.023209477
-0.024561046
0.002483316
0.016082155
0.03266074
0.06542992
0.090673774
0.1128468
0.110224135
0.09250717
0.08558774
0.061109453
0.039373975
0.03937553
0.028083477
0.007063479
-0.0036372459
-4.687587E-4
-0.005751906
-0.024105368
-0.031380873
-0.03044789
-0.024348553
-0.02942708
-0.047939934
-0.03738079
-0.018635368
-0.014440643
-7.304224E-4
-0.0012657176
-0.018615613
-0.016269762
6.7366945E-4
0.008156276
-0.005925995
-0.023825949
-0.019002212
-0.0074457563
-0.011423949
-0.019982954
-0.026968226
-0.035367247
-0.03194256
-0.011911858
0.011071855
0.027901778
0.04237217
0.048190635
0.033805106
0.026675321
0.029776676
0.013921561
0.009224381
0.01770065
0.011413935
0.020996101
0.032698385
0.0062212925
-0.02683704
-0.031135803
-0.025109265
-0.025329446
-0.008093498
8.510516E-4
-0.030923294
-0.037900094
-7.6538476E-4
0.020870786
0.0076095355
-0.013557539
-0.011983526
-0.005743348
-0.0065678307
-0.0046003326
-0.006504306
0.01910201
0.044575706
0.021411877
0.011801469
0.010872382
-0.00799959
0.0028195519
0.010573516
0.014684285
0.046187628
0.03457135
-0.002061929
-0.0030601027
0.003799494
0.024664558
0.022958504
-0.036241606
-0.06763449
-0.06267006
-0.05355204
-0.035049874
-0.037750296
-0.008892639
0.06277881
0.075413994
0.03972891
-0.0018400004
-0.030816281
-0.035703294
-0.04707824
-0.018334646
0.042034615
0.03960747
-8.933927E-4
-0.03652382
-0.037626695
0.004411738
0.014769463
-0.0039487765
-0.0032517863
0.0016272735
2.6136503E-4
-0.0029731991
-0.006146816
-0.010288739
-0.007440687
-0.002070146
-0.005936472
-0.0038167685
-0.006299386
-0.003882198
0.025152067
0.04279282
0.04374096
0.031608105
0.0053871335
9.023469E-4
0.010549688
0.01967006
0.030078618
0.04433752
0.060165923
0.045309786
0.026246743
0.015613448
-0.011622461
-0.010530123
-0.0010482738
-0.0136933895
-0.016673222
-0.020210728
-0.00360626
0.008787068
-0.027272096
-0.050702456
-0.06387342
-0.08322178
-0.077975474
-0.06083613
-0.03605893
-0.03619078
-0.05384509
-0.03508012
-0.027327074
-0.044871725
-0.053371724
-0.046198327
0.0053713326
0.05841767
0.066716634
0.057897143
0.03104729
0.019006623
0.048906792
0.07194071
0.08632633
0.093689576
0.07045719
0.06469589
0.08689074
0.072558664
0.037081674
0.019874733
-0.0016932746
-0.021890962
-0.029373897
-0.039257795
-0.043003775
-0.049085297
-0.06527566
-0.06532318
-0.046258606
-0.027143804
-0.021362571
-0.022266822
-0.019561024
-0.018324554
-0.014344265
-0.01308091
-0.010698143
0.008023341
0.014545434
0.0060145836
0.008369611
0.01295311
0.016352685
0.014060973
0.007121016
0.008999491
0.007251196
0.0026048897
0.009428826
0.020945799
0.021962184
0.005808703
-0.010904264
-0.009754299
0.013000129
0.028716877
0.0064653694
-0.015748354
-0.015859485
-0.02091329
-0.028766993
-0.0405828
-0.04873998
-0.03908181
-0.036297355
-0.033522546
-0.006812898
0.028430445
0.04531254
0.03169061
0.019153947
0.0171412
-0.0038025794
-0.027854314
-0.04998132
-0.06417785
-0.023982434
0.04524728
0.07711466
0.062360726
0.045702893
0.056190744
0.05854166
0.058698162
0.07519587
0.06597686
0.04103318
0.018981732
-0.005375723
-0.013637048
-0.02085019
-0.026896434
-0.032066166
-0.055802666
-0.0622989
-0.05848009
-0.06598073
-0.0550887
-0.045391135
-0.045613594
-0.034300156
-0.023369474
-0.013844064
-0.0070839594
-0.010324987
-0.013973155
-0.012520543
-0.010191134
-0.008997536
-0.0045176474
4.308716E-4
0.007685273
0.019151503
0.022627287
0.020636883
0.02945404
0.058946505
0.08214136
0.07731125
0.069559775
0.044602886
0.004648583
-0.0045683663
-0.010984509
-0.029770829
-0.032244045
-0.028468003
-0.026352668
-0.022137072
-0.014862952
-0.006700301
-7.005671E-4
2.2722856E-4
-0.008910444
-0.014836152
-0.025379693
-0.032657884
0.00696773
0.047340207
0.034047835
-7.899991E-4
-0.036980513
-0.05640241
-0.034488864
-0.012226941
-0.019841982
0.002206753
0.039070643
0.01668557
0.008178634
0.034107383
0.016269553
0.006606304
0.01277906
0.0036019133
0.034187943
0.05635725
0.032301303
0.025144916
0.023023041
0.012157794
0.005789697
-0.017231401
-0.040108245
-0.038075224
-0.031567425
-0.042612303
-0.060983855
-0.06361435
-0.0689166
-0.074146815
-0.020076845
0.048817713
0.044969518
0.018480051
0.014794779
0.021046855
0.05810271
0.086059585
0.05868598
0.03407504
0.031357754
0.012040293
0.0073286025
0.03709867
0.048231684
0.047584336
0.054249134
0.01206774
-0.056612283
-0.095883444
-0.12951638
-0.14167339
-0.12112667
-0.099447325
-0.05205061
0.021265997
0.063569255
0.054311857
0.016146641
-0.036490705
-0.09530529
-0.10480008
-0.050166607
0.0041735554
0.04907075
0.08949551
0.108189866
0.13335717
0.16119313
0.15843426
0.14137383
0.13280413
0.12540123
0.08691456
2.558969E-4
-0.09225993
-0.1455512
-0.17699061
-0.20157148
-0.1849608
-0.12351515
-0.043987848
0.024514066
0.03836222
0.028776512
0.04452034
0.05609692
0.07509799
0.09785253
0.056691438
-0.012857913
-0.058054566
-0.11337112
-0.16562033
-0.1547294
-0.07859987
0.017709648
0.0932461
0.11718756
0.09529548
0.08039876
0.073248014
0.025170194
-0.040458124
-0.06279178
-0.04838634
-0.05250132
-0.085020185
-0.0984932
-0.07298658
-0.028915633
0.017020945
0.05763957
0.09206578
0.111856565
0.112612985
0.11281747
0.10966189
0.08709025
0.05356385
0.012509361
-0.01694596
-0.015916398
-0.023826672
-0.04931991
-0.064259976
-0.07498275
-0.073663235
-0.06459352
-0.054952
-0.016382838
0.024773035
0.041555952
0.043647747
0.007878583
-0.034211297
-0.022941843
0.0025603268
-0.012970943
-0.03717361
-0.027818037
-0.011389389
0.0015634777
0.014461402
-0.0032839975
-0.012596384
0.02694282
0.051176053
0.023013424
-0.014615742
-0.024506131
-0.023417238
-0.03359733
-0.048186127
-0.061000947
-0.03916087
0.015723636
0.03527148
0.017569968
0.0065152985
0.029974122
0.080194145
0.08521126
0.05529101
0.06284611
0.06662167
0.040129565
0.0346618
0.035431974
0.01463499
-0.008803517
-0.037536588
-0.06594505
-0.072099864
-0.063346095
-0.043805487
-0.020222561
-0.016870935
-0.041401487
-0.07111667
-0.06893693
-0.045380753
-0.02541204
0.0026136131
0.013325638
7.5394084E-4
0.012134602
0.03440853
0.03901137
0.036724906
0.035425108
0.038702015
0.03388865
0.014959312
0.009118553
0.016726684
0.010200968
0.0051348847
0.019527694
0.023960214
0.01408836
0.0093440935
0.0065234434
0.0063465014
0.0022269315
-0.0048454194
8.803445E-4
0.0045175673
0.0043160794
0.013569763
0.0151114045
0.0024824978
-0.011529084
-0.020794125
-0.025700163
-0.029920176
-0.034125216
-0.035912756
-0.03073
-0.02292598
-0.01953986
-0.017401522
-0.019958725
-0.025769012
-0.027960323
-0.02947226
-0.025383383
-0.020843422
-0.026198143
-0.025038172
-0.0052342853
0.026004834
0.052340277
0.06990801
0.09828672
0.123260595
0.10707919
0.057199646
0.008446459
-0.023173722
-0.034636162
-0.009155764
0.023355216
0.00229383
-0.031390987
-0.036540307
-0.043303296
-0.051200766
-0.06656495
-0.06609443
-0.012028849
0.030327337
0.028274449
0.015083242
-0.0030579146
-0.014941469
-0.02161601
-0.022046221
-0.014497864
-0.013139991
-0.0077299345
-0.0051539415
-0.006396628
0.0014843949
0.005144104
0.01566106
0.029512929
0.033026934
0.038789343
0.03073666
0.0046731317
-0.020226661
-0.013907074
0.031367842
0.044680733
0.017567968
0.006090427
-0.0031778135
-0.011772818
0.00491069
0.029753871
0.029535342
0.0024942202
-0.010534814
-0.009704066
-0.02743222
-0.049868606
-0.06682704
-0.061657693
-0.0056034345
0.04219852
0.018984037
-0.031778224
-0.07039636
-0.08705731
-0.05276165
-8.320134E-4
0.0044303164
-0.009981995
0.009886218
0.039762348
0.0421832
0.05236528
0.0843795
0.08529882
0.054771896
0.02104025
-0.014373377
-0.022155803
0.009137775
0.043071046
0.053519577
0.040191956
0.018599996
-0.0012154909
-0.009644167
-0.0022098746
-0.005918452
-0.024938403
-0.03323611
-0.036582284
-0.04469478
-0.047835987
-0.042060703
-0.029054208
-0.014891306
-0.001974751
0.0108649125
0.017908234
0.02052346
0.027347561
0.03504434
0.026808621
-1.5658031E-4
-0.020322315
-0.020743912
-0.013599962
-0.0029706564
0.008161114
0.012439127
0.015560646
0.023661744
0.022168698
-0.0052031046
-0.041275676
-0.05863668
-0.060657375
-0.06691052
-0.07130112
-0.046018314
-0.002962057
0.023671055
0.02764091
0.004029807
-0.019524526
-0.0019814395
0.028022328
0.047649384
0.06221568
0.05966131
0.055741347
0.060384408
0.063696876
0.06533203
0.048624232
0.030286469
0.033198725
0.027928555
0.016655091
0.014322829
0.008801628
-0.0059666582
-0.033767633
-0.04162024
-0.025241654
-0.029334998
-0.03535382
-0.043283485
-0.07174721
-0.08365081
-0.086415835
-0.08420719
-0.05399278
-0.022898294
-0.013952683
-0.030470187
-0.04588431
-0.03912744
-0.02648073
0.0066436185
0.04225848
0.058524985
0.06358524
0.018016348
-0.024611486
0.0051118447
0.044175167
0.06938862
0.07802701
0.06660968
0.06889874
0.062101338
0.04803645
0.039686352
0.01694694
0.012946377
0.008267745
-0.026588388
-0.024625523
0.008305183
0.0044944556
-0.024719868
-0.047882065
-0.066297255
-0.07428456
-0.06105485
-0.03969207
-0.024330694
-0.011916967
0.005206444
0.022231285
0.018804822
-0.0020449024
-0.021731507
-0.031688727
-0.020146763
1.9022769E-4
0.008226141
0.012035125
0.016272593
0.012723112
-0.003529381
-0.014629624
-0.0056786463
0.0040897583
0.019405186
0.041379012
0.03266073
0.004273316
-0.011679088
-0.016908435
-0.01251672
-0.0034873416
0.0042793024
0.0048094047
-0.0049684877
4.9925887E-4
0.020830613
0.026757315
0.032176696
0.045436442
0.047480498
0.04647637
0.03229233
-0.007344495
-0.03627662
-0.05009772
-0.05501563
-0.040109266
-0.042301603
-0.06073943
-0.052830026
-0.040131103
-0.04107941
-0.031049997
0.0012845353
0.032416258
0.039033074
0.039965373
0.038154952
0.020282933
0.008842203
0.010095605
0.013635895
0.022176133
0.035240944
0.04778672
0.04870351
0.044793468
0.0470262
0.042706933
0.03287926
0.023997448
0.005207673
-0.025552155
-0.051085327
-0.06474045
-0.07866841
-0.085160464
-0.07935057
-0.06748414
-0.040445954
-0.016046317
-0.010361278
-0.007741788
-0.003468559
2.2816464E-4
-0.003467015
-0.0017156291
0.018242167
0.027486067
0.023594424
0.018951278
0.0087780105
0.008941249
0.02454138
0.044425227
0.059018496
0.055442587
0.024065478
-0.02245821
-0.034007516
-0.008380742
0.0013104887
-0.00524303
-0.004253837
0.010140234
0.030788613
0.03490136
0.02623939
0.022948416
0.023356052
0.024078803
0.02885903
0.029662827
0.013697694
-0.0020374295
-0.0054441607
-0.006444564
-0.014145376
-0.04541689
-0.07554699
-0.06375447
-0.024958877
0.009149241
0.0049968213
-0.03537253
-0.067471184
-0.07777821
-0.07061277
-0.060869835
-0.052879274
-0.028477482
-0.01100805
-0.015101823
-0.013926449
0.0076453043
0.043312233
0.06793464
0.08261155
0.08781425
0.06287823
0.046113465
0.049690805
0.032763723
0.022017064
0.032656875
0.028239645
0.009796345
-0.011478593
-0.031925455
-0.040532254
-0.03907578
-0.033387408
-0.027877448
-0.025023114
-0.018018384
-0.0039813225
0.009711749
0.016477898
0.014834706
0.0031215919
-0.010116398
-0.005981249
0.01120534
0.01834061
0.006784607
-0.01386062
-0.024663243
-0.014964482
0.010459096
0.039336566
0.052271932
0.040924188
0.024853347
0.018414173
0.008671676
-0.0036057811
-0.006715333
-0.014437601
-0.028493783
-0.035848502
-0.043042984
-0.050992645
-0.049402233
-0.03377455
-0.01654501
-0.016686665
-0.02455095
-0.027120013
-0.028126962
-0.021807158
-0.0053769588
0.0019513676
-0.0076657217
-0.008119187
-0.0043390864
-0.014828645
-0.005255543
0.011694955
1.0135749E-4
5.102638E-4
0.020450678
0.03222328
0.04904822
0.07339033
0.09564887
0.116389915
0.11655587
0.076349996
0.040773064
0.049844775
0.05117773
0.015614462
-0.028590463
-0.059429545
-0.06077785
-0.061485056
-0.07552558
-0.06931809
-0.057804596
-0.057173193
-0.050740104
-0.04213747
-0.03637649
-0.035120923
-0.038358334
-0.033222623
-0.023879936
-0.021319032
-0.0019162826
0.029317977
0.027052121
0.01083398
0.0073177316
0.0046494496
0.017398972
0.03290093
0.040317096
0.05788533
0.05465347
0.029137434
0.01872689
0.012760007
-0.003419268
-0.02612532
-0.046231184
-0.050773855
-0.038705915
-0.020782499
-0.0017943084
0.022459332
0.031809002
0.015357004
-0.006095043
-0.023880132
-0.016084205
0.013252696
0.021282308
0.028792888
0.053146638
0.062334325
0.05284074
0.023360861
-0.009536321
-0.010220354
-0.0043671275
-0.021460053
-0.051523868
-0.07382859
-0.055667024