0.17493513
0.14671445
0.15568568
0.14139935
0.08309567
0.06107835
0.048460748
0.0049170996
-0.030130692
-0.018352062
0.025726799
0.022980547
-0.023716263
-0.03777
-0.032175805
-0.04575759
-0.07923605
-0.11447649
-0.13597712
-0.1518429
-0.1523468
-0.12878734
-0.09016034
-0.06334483
-0.07494389
-0.06063247
0.0016736846
0.013460914
-0.020850874
-0.0052932804
0.06523638
0.10144307
0.06006311
0.024831282
0.038558412
0.04858449
0.04213278
0.026546806
0.017794184
0.03041998
0.031863526
0.020904439
0.014445049
0.0036476084
-5.10422E-4
0.0073983083
0.027442465
0.039647203
0.0047256043
-0.019897776
0.022627972
0.053983297
0.024236936
-0.013785273
-0.027188959
-0.03497582
-0.035195407
-0.009703968
7.1486627E-4
-0.015110954
-0.0016309286
0.023429962
0.021797676
0.014398448
0.024543233
0.052889418
0.05344428
0.01613331
-0.004153725
-0.008899473
-0.017614331
-0.028344994
-0.047229704
-0.061844848
-0.06433504
-0.053427715
-0.030863907
-0.0047013974
0.017819487
0.010080674
-0.011906072
-0.01674983
-0.034254458
-0.054881446
-0.03853217
-0.021334661
-0.04292091
-0.04924631
-0.013902509
-0.005976515
-6.115118E-4
0.03595492
0.029958775
0.035498314
0.10409575
0.11870859
0.06252371
0.029633613
0.033247784
0.021773081
0.007221955
0.030399442
0.037838597
0.010083641
-0.015404905
-0.033966266
-0.007855523
0.031685438
0.010644846
-0.008525627
0.022070771
0.035554424
-0.008518279
-0.06594915
-0.09296156
-0.09849668
-0.08727351
-0.07385029
-0.081889465
-0.077693075
-0.036279842
0.0032106943
0.010156354
0.0048944154
-0.0011518084
-0.0015343688
0.033128027
0.05699968
0.02818613
0.0070993537
0.0058167833
0.0049161706
0.019287186
0.045112077
0.07209646
0.07360389
0.06001264
0.060007676
0.052431405
0.061905988
0.08482009
0.06713443
0.031719066
-0.0046381555
-0.029046131
-0.028295986
-0.035969954
-0.035001405
-0.024566635
-0.04467678
-0.07735659
-0.08463061
-0.05754817
-0.05912475
-0.092228174
-0.059868414
-0.008553011
-0.013318205
-0.015081492
0.009457776
0.010677679
-0.024524007
-0.021476978
0.031032037
0.03450043
0.0024712412
5.89862E-6
0.02201135
0.05136567
0.055264577
0.045964528
0.044578455
0.0296205
0.02308495
0.025558911
0.01764037
0.02057576
0.015812483
-0.012688112
-0.030347066
-0.028242629
-0.019357022
0.003259912
0.039028108
0.057362225
0.041147195
0.010040879
-0.012222292
-0.021596903
-0.029424658
-0.037975095
-0.03704079
-0.028903812
-0.025618967
-0.017927594
0.0010569484
0.009727071
0.008897089
-0.0023019195
-0.03871181
-0.059993125
-0.060355548
-0.079117216
-0.06533148
-0.0011510112
0.015614605
-0.0249406
-0.02567951
0.020636233
0.037845794
0.0275854
0.042139996
0.06513057
0.05738522
0.03729429
0.04096042
0.044665486
0.016078105
0.0018179177
0.018483654
0.020913126
0.022352377
0.035357337
0.04612313
0.05901572
0.054524995
0.04087053
0.029306386
0.002508928
-0.0037652072
0.0050210017
-0.0036066289
-0.0029135281
-0.016902067
-0.064178556
-0.10511608
-0.117525004
-0.09794197
-0.07710344
-0.05901742
-0.034039926
-0.024452398
-0.009354728
-0.012114454
-0.06774871
-0.10969177
-0.11394943
-0.09919327
-0.060570713
-0.009956094
0.04449189
0.07551896
0.08159116
0.107403375
0.11535126
0.05921553
-0.0058522867
-0.034545504
-0.009616434
0.056962136
0.07334023
0.047841053
0.068411194
0.08940137
0.08852889
0.09805188
0.08735149
0.07113978
0.055615127
0.026176568
0.0136075225
0.008607922
0.0029557517
-0.018425196
-0.06949338
-0.082236424
-0.04801042
-0.024928924
-0.0349629
-0.078757636
-0.09200787
-0.04326409
-0.03351022
-0.092119485
-0.11298879
-0.086813696
-0.0838985
-0.07386468
-0.046115223
-0.052984968
-0.07593813
-0.076447874
-0.034407377
0.027478294
0.05524442
0.0817606
0.11657089
0.11589633
0.13672619
0.18304265
0.15155168
0.07485508
0.042793117
0.018062558
-0.024145005
-0.057268307
-0.09353655
-0.11372553
-0.09028397
-0.033834662
0.03100708
0.04399701
0.02745765
0.03932
0.021246674
-0.0069993283
0.017637717
0.020599663
-0.012268711
-0.015277963
0.006593028
0.01355821
-0.009226376
-0.0045703906
0.034900546
0.019541543
-0.0145756835
0.0110708
0.033306096
0.0062012402
-0.01627833
-0.010865339
-0.026497746
-0.057612088
-0.05783362
-0.061534807
-0.061669685
-0.014342747
0.0069914525
-0.034372795
-0.05065729
0.0030928946
0.063487925
0.069066204
0.057576317
0.06514985
0.05123947
0.012930641
0.0010172233
5.143287E-4
-0.030396752
-0.04495469
-0.0240227
-0.015754722
-8.238992E-5
0.015496301
-0.025416218
-0.07866445
-0.06848421
-0.00845599
0.02577457
0.018178917
-0.0025758361
-0.023733282
-3.1881477E-4
0.026630795
0.006618595
0.02586891
0.05540494
0.03224713
0.024791706
0.021672398
0.0022546211
0.0051455963
0.02346986
0.055273388
0.054929443
-0.027322788
-0.09023566
-0.054805543
-0.01237031
-0.012060264
-0.00378739
0.023932783
0.063767366
0.06653451
0.020298954
0.015323994
0.0070126625
-0.031347416
0.00509043
0.05225515
0.06213116
0.06601223
0.016270166
-0.011703354
-0.009346761
-0.08453068
-0.1439556
-0.14456062
-0.16454105
-0.16142575
-0.11906068
-0.07779464
-0.0073497533
0.068299405
0.026051732
-0.071820624
-0.041033108
0.039804544
0.07219027
0.09033073
0.044481378
0.011003637
0.05814533
0.06574068
0.057695035
0.07667949
0.0811013
0.09646015
0.10721276
0.10044076
0.0864883
0.07403836
0.08192021
0.058564223
0.014007305
-0.016182194
-0.06300245
-0.0758831
-0.050498497
-0.05736193
-0.09070804
-0.1218257
-0.0999552
-0.01530335
0.041512743
0.024473855
-9.6306927E-4
0.008589109
-0.020656494
-0.09738794
-0.1242867
-0.123562954
-0.13951789
-0.1056253
-0.04292375
-0.014302668
0.032600716
0.050826848
-0.017163461
-0.026844542
0.023690213
0.03376904
0.04955002
0.057041265
0.048459273
0.057532057
0.05405359
0.059361693
0.06274911
0.04012516
0.034954082
0.042141233
0.02895327
-0.012921695
-0.009775784
0.06601347
0.092709675
0.087404326
0.111707315
0.055712905
-0.05934283
-0.07784498
-0.037077893
-0.028963394
-0.0043707676
0.025248379
0.03471697
0.054001916
0.007627782
-0.036770362
0.0027980616
-0.03634379
-0.08270402
-0.032109093
-0.050008185
-0.08303414
-0.050196692
-0.06743618
-0.10868508
-0.11154754
-0.11672048
-0.13593057
-0.11419162
-0.060936317
-0.08187343
-0.10839142
-0.025014404
0.07128514
0.13486443
0.15315334
0.08505696
0.06810656
0.13851029
0.17451797
0.17852208
0.14796486
0.11865825
0.15587485
0.13627818
0.024197526
-0.03968773
-0.034016848
-0.018294875
-0.007775992
-0.0062416447
-0.02075535
-0.034392405
-0.06057026
-0.13446318
-0.166592
-0.099702194
-0.06095201
-0.104521185
-0.12817718
-0.069170006
-8.7309803E-4
-0.025574235
-0.08208693
-0.046388544
0.027988723
0.051337257
0.072317705
0.08052499
0.01060573
-0.025923155
0.041031893
0.08291636
0.07275382
0.082049
0.08996523
0.060477607
-0.021601625
-0.113081165
-0.09738491
-0.011921852
0.018769728
0.041650474
0.06997938
0.041366085
0.032867208
0.054664455
0.03433472
0.025256332
0.047761023
0.06374536
0.047879703
-0.040824037
-0.12107768
-0.09961991
-0.049240056
-0.013806127
0.013032009
-0.008787313
-0.046079513
-0.06833434
-0.11825324
-0.13556378
-0.08044073
-0.043254394
-0.02378861
-9.5356145E-4
-0.007161441
-0.004788313
-0.0030156209
-0.010540714
0.029010296
0.046578757
0.014722351
0.0256694
0.05376998
0.06583375
0.07459163
0.06357024
0.07415341
0.09228085
0.06852286
0.05294435
0.04901552
0.045323744
0.045862667
0.009508703
-0.005012148
0.02023093
5.081658E-4
-0.009301178
0.018010722
0.010254877
-0.0074886438
-0.014532018
-0.032226734
-0.045357496
-0.043400057
-0.049360882
-0.08978603
-0.11757667
-0.09799764
-0.08259371
-0.06598892
-0.028767902
-0.011109142
-0.0120453695
-0.02288584
-0.044775914
-0.035032462
4.386114E-7
-0.011588594
-0.056394625
-0.046210304
0.020387063
0.067073435
0.06801678
0.06558357
0.08057533
0.08016055
0.061708502
0.062027104
0.07736597
0.07879457
0.069973275
0.06314081
0.047871612
0.03370424
0.033110015
0.021922471
0.003755232
-0.005518615
-0.016400287
-0.032252427
-0.056744106
-0.062607765
-0.035358723
-0.027482066
-0.04466485
-0.052534718
-0.05090358
-0.047050156
-0.0491623
-0.050751224
-0.03814667
-0.020274637
-0.021167602
-0.03542283
-0.028554471
-0.016392505
-0.009925745
0.0043006716
-0.008573489
-0.022704767
0.009027532
0.032081116
0.025902048
0.029945934
0.0431196
0.052347507
0.048624165
0.029122615
0.030992562
0.040791366
0.010615273
0.010515662
0.04690203
0.03088812
0.01828948
0.014956156
-0.039927837
-0.062327083
-0.027688194
-0.0010317791
0.0067508235
0.007099842
0.009529846
-0.0021403108
-0.017204193
-0.02095622
-0.03299606
-0.02809883
-0.009155282
-0.0026350766
0.0054257386
0.011470521
0.022424756
0.03404207
0.016804956
-0.01705346
-0.03407788
-0.022377508
-0.01064595
-0.0013013841
0.023629757
0.03345235
0.029551234
0.018518696
-0.010699001
-0.01715437
-0.005587544
-0.014917277
-0.030936757
-0.039881
-0.03702441
-0.028734775
-0.03252951
-0.031332847
3.8738357E-4
0.038479764
0.042604785
0.026922466
0.021654049
0.02322453
0.019321287
0.0054269917
-0.0039796233
-0.007114337
-0.01952255
-0.021954838
-0.007561585
-0.0025426461
-0.01147239
-0.018612603
-0.0022809904
0.02944805
0.040898405
0.031478148
0.028588811
0.037904117
0.02645424
-0.008320534
-0.020457802
-0.017138122
-0.014839692
0.0047962577
0.023313198
0.027710369
0.018169947
0.0018995092
0.0061811977
0.003901668
-0.007934349
0.0058495323
0.0133255245
0.005534419
-0.010282497
-0.037023198
-0.048288777
-0.05654484
-0.05395254
-0.04146686
-0.057288483
-0.053186577
-0.02433729
-0.007381963
0.017786803
0.02357356
0.014866042
0.016870545
0.009114025
0.011845853
0.015021104
0.008571206
0.017726842
0.02010129
0.01618637
0.019882347
0.026785279
0.04115394
0.050153762
0.058365066
0.06440655
0.04657356
0.018537931
0.0070155216
0.016190512
0.014583053
2.4440355E-4
0.0023825706
-0.006852894
-0.032455746
-0.046661876
-0.059831806
-0.058781363
-0.03895951
-0.030034812
-0.02510419
-0.01213122
-0.0031683391
0.0014797901
0.009808366
0.011033552
-2.3679006E-4
-0.0029797365
4.5674076E-4
-0.0042863786
-0.004662917
-0.0013791621
-0.0032609992
-0.0010236615
0.005776527
0.0040839566
-0.0057852156
-1.0405906E-4
0.024065973
0.03693202
0.04200522
0.049752917
0.037020363
0.012597689
-0.00530623
-0.023874357
-0.03529629
-0.041657276
-0.039046973
-0.019989107
-0.01647912
-0.023489073
-0.020286018
-0.020351639
-0.010897834
-0.003005803
-0.017385095
-0.026725383
-0.029654514
-0.028745791
-0.013821302
-0.001227428
0.0062781572
0.011159537
0.015696973
0.026024198
0.03294092
0.045305535
0.062475137
0.0750864
0.104024306
0.12323146
0.08966777
0.04226873
0.029951414
0.036393587
0.02812991
0.0260961
0.06716199
0.09660998
0.03445803
-0.060079146
-0.08025034
-0.06334346
-0.0929529
-0.14951974
-0.18295762
-0.18626064
-0.16629232
-0.122706465
-0.07710882
-0.060715754
-0.056502182
-0.052659918
-0.06869144
-0.07699855
-0.047296435
0.010000987
0.078684926
0.1241005
0.14536954
0.15970443
0.11795546
0.054007627
0.07091417
0.099733
0.06455942
0.050806124
0.09092275
0.13453466
0.16781664
0.1745657
0.1134276
0.016831229
-0.011902027
-0.0063895667
-0.06031988
-0.10089833
-0.092594475
-0.095993675
-0.082030706
-0.05063649
-0.0583706
-0.08772413
-0.090161376
-0.06951195
-0.07480349
-0.09281643
-0.07446622
-0.047190167
-0.03667658
-0.030802766
-0.030136717
-0.030920573
-0.024310691
-0.00837498
0.016113263
0.03415459
0.016391627
0.00973364
0.06646765
0.0769743
0.03877264
0.080872655
0.09593222
0.031777084
0.03684605
0.06879954
0.06740193
0.08085181
0.050330434
-0.0015687275
0.019462755
0.040733486
0.028835136
0.04238446
0.034843452
-0.020918053
-0.066054866
-0.07575952
-0.06018648
-0.040881943
-0.02158192
-0.025035257
-0.0709133
-0.075090446
-0.04266229
-0.052777607
-0.042615138
-0.012800945
-0.011521436
0.0014212783
-0.007757703
-0.034351088
-0.01552517
0.0027356064
-0.016984418
-0.048919074
-0.046362206
-0.029066488
-0.052113634
-0.010240673
0.087809324
0.063308895
0.006915531
0.020493269
-0.0058766087
-0.03774679
0.0043263314
0.06245502
0.082191736
0.06310751
0.044864874
0.032145612
0.015889682
0.026001696
0.045069885
0.08427105
0.14845048
0.13057593
0.043034084
-0.005995205
-0.03344393
-0.07138452
-0.08608504
-0.059234675
-0.048720255
-0.06942697
-0.028193261
0.019714082
-0.014560573
-0.02755597
-0.02493187
-0.0686432
-0.0838324
-0.09123194
-0.12238486
-0.115586035
-0.086223245
-0.051795557
-0.021320224
-0.026941104
0.017829822
0.13916625
0.20058978
0.21648306
0.23148173
0.13574083
-0.008523852
-0.075150885
-0.08865256
-0.04792568
-0.045299165
-0.12420269
-0.110982955
-0.025039876
0.014911625
0.042859383
0.07824205
0.090727165
0.03655985
-0.01490173
-0.017599735
-0.08713962
-0.14520319
-0.08253211
-0.010715919
0.03249178
0.07374884
0.101131156
0.09183772
0.04443914
0.022142023
0.034561325
0.05666378
0.073111765
0.06288575
0.0602566
0.058955953
0.03165488
0.025107594
0.035307568
-0.02554474
-0.12909235
-0.1265906
-0.061991636
-0.04289798
-0.03677146
-0.084648035
-0.13693552
-0.08463603
-0.016870605
0.02613337
0.048432685
0.043327812
0.04607254
0.008704563
-0.036909055
-0.023303682
-0.020958528
-0.037951723
-0.013950026
0.016757974
0.0073318263
0.019743413
0.029162839
-0.033119608
-0.031744376
0.029493243
0.037551913
0.049361296
0.024274083
-0.02110062
0.011186169
0.033330157
0.033780605
0.057457227
0.045370106
-0.0052826456
0.0022441423
0.08351151
0.07090156
-0.031613536
-0.04216735
0.022766698
0.07605225
0.059194934
-6.394839E-4
0.0063893013
0.0051819086
-0.062174782
-0.0835497
-0.03329739
0.0067847427
-0.017587055
-0.042298175
-0.03155356
-0.048866425
-0.063483864
-0.053790975
-0.06255101
-0.050105255
-0.012984855
-0.022525901
-0.061062917
-0.06285554
-0.039355185
-0.018868431
-0.0048581315
-0.014638742
-0.041940194
-0.047141664
-0.017071987
0.004857752
0.011231575
0.030399151
0.005749931
-0.03880917
0.008310036
0.09284092
0.12840547
0.14488308
0.17433631
0.1850075
0.17038848
0.15956336
0.08889507
-0.006101684
-0.013990965
-0.015859153
-0.02862638
-0.020448681
-0.04297138
-0.035258427
-0.0053354856
-0.02562648
-0.07112206
-0.119006336
-0.12590298
-0.11734841
-0.14499843
-0.18368927
-0.22662906
-0.20694892
-0.12131875
-0.070202455
-0.04754114
-0.022829503
0.032181848
0.092627876
0.09404975
0.09808908
0.112040766
0.092088714
0.07719574
0.07445972
0.08342954
0.092130415
0.090778105
0.09408611
0.07166588
0.05149599
0.058965653
0.041339807
0.010228959
-0.013332404
-0.032651994
-0.029305732
-0.017067729
-0.0191156
-0.030064467
-0.029331613
-0.019473843
-0.017744197
-0.024100224
-0.04041976
-0.04375841
-0.025373468
-0.017388001
-0.013475923
-0.003962288
0.007485506
0.024167685
0.03378784
0.04230341
0.04788386
0.035779014
0.0097500235
-0.021076094
-0.02448776
-0.017435212
-0.039099377
-0.04609492
-0.031787697
-0.028257327
-0.027821992
-0.034961022
-0.030341322
-0.0070084417
-0.0068503614
-0.011176565
0.008567853
0.018458458
0.01356081
0.014757805
-0.0010534897
-0.030003825
-0.029948773
-0.019772036
-0.010377046
0.015054407
0.023107618
0.025812382
0.05387649
0.063816495
0.041473765
0.023285115
0.02416662
0.031251103
0.032901473
0.03341537
0.033404347
0.02370731
0.0040620854
0.003819665
0.016771344
0.0018910057
-0.0056583006
0.0069595105
0.004170911
3.5621322E-4
-0.013967346
-0.026888056
-0.010334067
-0.00471719
-0.01255281
-0.01936714
-0.02414266
-0.023716325
-0.041828886
-0.049836572
-0.036620423
-0.03613612
-0.029095301
-0.0157612
-6.218699E-4
0.015863923
0.011422735
0.02326614
0.0623869
0.087734394
0.09046621
0.0561915
0.0054750033
-0.008962396
-0.004588742
-0.021762302
-0.0728878
-0.15562928
-0.18221873
-0.100361794
-0.054470804
-0.06834467
-0.025839938
-0.0029874297
-0.0134030925
0.0044606808
-0.018528601
-0.018383339
0.037244502
0.044378106
0.049955674
0.075961985
0.086304456
0.10211613
0.10284656
0.10218722
0.120984055
0.14169215
0.13729829
0.07055353
0.026653776
0.055631664
0.045807574
-0.01011907
-0.03676663
-0.035872877
-0.047717385
-0.0852763
-0.11363519
-0.13263565
-0.15777226
-0.1687521
-0.16591677
-0.15804602
-0.15560381
-0.13107607
-0.057657618
-0.0028048616
0.035891976
0.08495282
0.06673802
0.04526267
0.10815349
0.12231825
0.061704725
0.06837786
0.116919816
0.11443495
0.09943771
0.085011885
0.017109416
-0.055717435
-0.049524833
-0.0115279835
-0.017968992
-0.026699003
0.032101788
0.09331592
0.07696713
0.05720232
0.049971994
-0.014921805
-0.07311754
-0.088081345
-0.11172799
-0.13704908
-0.14615148
-0.12952363
-0.10012489
-0.038984098
0.057401188
0.0800809
0.075564556
0.11778115
0.0890283
0.014756911
0.0056517953
0.050543196
0.06778062
0.019986518
0.012141469
0.017737998
-0.029562766
-0.035331544
-0.026086058
-0.022736209
0.0011335983
0.009663921
0.031829022
0.03568791
0.01965059
0.008489611
-0.046653032
-0.06646448
-0.04544664
-0.04466278
-0.031312607
-0.054361187
-0.085942164
-0.059455723
-0.031191573
-0.020607265
-0.0058037615
0.028077671
0.056027133
0.06980692
0.06837345
0.02556342
0.03695738
0.079074495
0.02279452
-0.014045197
0.03445445
0.06416013
0.045165602
-0.01524064
-0.07497275
-0.09077255
-0.091749676
-0.09528718
-0.06545933
-0.021145953
-0.039608635
-0.049711265
0.04753569
0.11541046
0.08156796
0.08080504
0.09538057
0.06384142
0.04883443
0.013759904
-0.021174408
0.0036558218
-0.001125814
0.02067099
0.09382497
0.092208765
0.059033725
6.325162E-4
-0.05867225
-0.020332964
-0.008724826
-0.076598234
-0.1357224
-0.17001393
-0.16053084
-0.14658271
-0.14214295
-0.09872417
-0.04380042
-0.012355747
-0.0015778376
0.008712577
-0.0019079301
-0.02190411
0.042077977
0.12635823
0.11128479
0.051015023
0.02287315
0.047982223
0.11267591
0.14387047
0.08773348
0.0020231018
-0.033077765
-0.0014697188
0.0786686
0.10219141
0.032991692
0.027185192
0.06837811
0.021917306
-0.024993287
-0.03564936
-0.082916535
-0.08711297
-0.022784298
-0.0033643413
-0.029276578
-0.032154724
-0.020293452
-0.024272773
-0.025129393
-0.011589718
-0.039869484
-0.09090746
-0.072415195
-0.030234579
-0.0434181
-0.051791836
-0.007845128
5.5781455E-4
-0.06361293
-0.07687526
-0.016530016
0.01281597
0.018032698
0.039127957
0.061287202
0.06801339
0.060275573
0.062728524
0.06911685
0.06897471
0.07206435
0.07573087
0.081394784
0.06432974
0.021499034
-0.023928812
-0.06724161
-0.064376816
-0.035293337
-0.04198201
-0.051116753
-0.041921377
-0.020669058
-0.0065194257
-0.030105965
-0.054012783
-0.050538763
-0.030385055
-0.0050563235
0.01964565
0.05218007
0.06936243
0.07653282
0.08767814
0.08168667
0.077460386
0.044684075
-0.022702836
-0.037823245
-0.018725581
-0.0050626923
0.0126623465
0.017745439
0.018539935
0.0124049075
0.0046083783
0.0056097806
-0.025410097
-0.08575634
-0.14059761
-0.15312336
-0.10244705
-0.044893887
-0.011066399
0.010028177
0.016278958
0.021662602
0.02041374
0.00988693
0.0063484143
7.205551E-4
-0.0024719506
0.009387688
0.023697922
0.035822805
0.053427786
0.06852012
0.07750358
0.09804438
0.10839666
0.05445734
-0.03902238
-0.07548578
-0.041627895
-0.013727192
5.195501E-4
0.013213273
-0.0034401119
-0.014073577
-0.004041816
0.0016007369
0.016154764
-0.0023029218
-0.06189709
-0.07335426
-0.025143683
0.0077313003
-0.037314925
-0.112202406
-0.101181485
-0.048859935
-0.06588111
-0.09153007
-0.0424219
0.025007585
0.05087681
0.06531479
0.09208012
0.09801062
0.071234226
0.053859275
0.045296993
-0.0032140522
-0.052003425
-0.02267929
0.03345489
0.032668903
0.0133612035
0.010758532
0.011200331
0.04529354
0.06766595
0.016663332
-0.042885315
-0.087271124
-0.103695616
-0.05722526
0.004171412
0.044198673
0.018773133
-0.034329455
-0.0018222602
0.032371275
0.018720968
0.018340586
-3.5056582E-4
0.0064711794
0.049762875
0.024628868
-0.06180199
-0.12258383
-0.104203686
-0.060461335
-0.05300111
-0.03974373
-5.1636866E-4
0.05061131
0.05031757
-0.025090873
-0.053743776
-0.03128156
-0.026679581
-3.804342E-5
0.029623263
0.035762668
0.051039033
0.0658019
0.07659609
0.07975079
0.063026905
0.05748778
0.060088433
0.044444375
0.034855448
0.027701963
0.0059589474
0.0047919704
0.019675435
0.0018984982
-0.046559874
-0.067882374
-0.046030495
-0.04581311
-0.06616021
-0.067843296
-0.079413
-0.072767965
-0.030421989
-0.01120216
4.379358E-4
0.025732322
0.041266754
0.050458338
0.044217214
0.020912085
-0.0017114257
-0.028794153
-0.05946206
-0.06712399
-0.033321016
0.009906018
0.02129675
0.01340816
0.010440021
0.022686064
0.044495054
0.03704907
-0.00223808
-0.023817495
-0.020037038
-0.011802189
0.0031397261
0.01921376
0.02643945
0.03237093
0.039068345
0.046742685
0.06283901
0.054517467
-0.006379841
-0.04780901
-0.02724515
-0.0074570305
-0.0062231603
0.0019163484
0.012174467
0.012715853
0.005250816
0.006996858
0.00855581
0.001860395
0.006469969
0.0106253205
0.013665038
0.028933978
0.031169401
0.0055891657
-0.027613059
-0.03773462
-0.030568704
-0.032843575
-0.038066078
-0.043419473
-0.041131176
-0.02411667
-0.015344794
-0.013399834
-0.022068705
-0.049497295
-0.06266186
-0.055997167
-0.041427344
-0.017140668
0.0042497464
0.025052713
0.042744197
0.04369679
0.043591548
0.045132406
0.040988453
0.042847726
0.04534277
0.045013662
0.054206893
0.06379454
0.054180082
0.022602785
-0.009072864
-0.019317098
-0.015490157
-0.0077747214
-0.003591957
-0.009724461
-0.009748758
-0.0040939976
-0.014202558
-0.022234326
-0.013636843
-0.011898936
-0.014958391
-0.007535245
0.0032185307
0.01654758
0.021547962
0.0072217495
-7.9488417E-4
-1.2883163E-4
-0.009464612
-0.015984533
-0.023025922
-0.043027174
-0.062458392
-0.07581454
-0.072009675
-0.042192843
-0.009525317
0.0037368948
-0.012328627
-0.038965646
-0.04292131
-0.034383263
-0.025550324
-0.006522184
0.016148975
0.036232408
0.052199956
0.061241034
0.067470044
0.07446788
0.08248867
0.08518977
0.087047875
0.09306464
0.08137967
0.05085118
0.020807015
-0.0059543815
-0.01877027
-0.018294467
-0.022452645
-0.0279141
-0.028906513
-0.029466173
-0.03223391
-0.037718393
-0.040687837
-0.043397333
-0.054684047
-0.068911895
-0.073087454
-0.06912294
-0.06464022
-0.0521644
-0.034903124
-0.023979906
0.002563963
0.040771864
0.043607123
0.028754104
0.03814147
0.045822777
0.03665445
0.027325839
0.014204185
0.007153623
0.018157912
0.031105876
0.03679217
0.036474984
0.0324705
0.029365264
0.025948511
0.020229315
0.011525916
6.3148176E-4
-0.0042809267
0.002381895
0.007789512
-8.219432E-5
-0.010541987
-0.013303748
-0.006370122
0.0071177115
0.013822896
0.0076978276
-0.010663902
-0.027438011
-0.028287983
-0.03836309
-0.06216247
-0.0634749
-0.04435809
-0.027126687
-0.012193988
0.00366811
0.017852385
0.02446743
0.024338407
0.018583912
0.0069421194
-0.0019989486
-0.0034657856
-0.0011747953
-0.0071399487
-0.017158668
-0.005905552
0.013521438
0.014525743
0.009532664
0.012347109
0.016202928
0.010933743
0.011605852
0.027257005
0.03638897
0.046153266
0.043201365
5.6991255E-4
-0.022990169
-0.004769896
0.007712441
0.018808808
0.030940214
0.030083463
0.035749525
0.048502065
0.055744953
0.053715497
0.005422461
-0.07374459
-0.08253585
-0.046906915
-0.05326292
-0.040977605
-0.006823269
-0.026090944
-0.049168326
-0.03728035
-0.041067254
-0.07286683
-0.098468944
-0.11652997
-0.1125621
-0.0345822
0.045324165
0.05744315
0.063716315
0.06736312
0.07524808
0.07987204
0.04397947
0.055148408
0.0746057
0.03510338
0.049922895
0.07679459
0.048950627
0.04323112
0.06960872
0.10191662
0.074865624
-0.030201972
-0.086381756
-0.033312168
0.019292476
-0.04597994
-0.14185926
-0.14281453
-0.087587886
-0.008122291
0.048147168
0.037630185
0.010473481
-0.032115184
-0.07971265
-0.10234983
-0.1042607
-0.07433403
-0.035550896
0.017789062
0.059858046
0.018782496
-0.034555316
-0.030788602
0.005073563
0.021200726
-0.0031031477
0.023376254
0.074355595
0.037975542
-0.013457843
-0.019865286
-0.0294781
-0.03842439
0.016430536
0.10507678
0.10181761
0.061528966
0.07683039
0.057877198
0.028823845
0.06865349
0.102036566
0.082764305
0.03978908
0.030082894
0.056571405
0.0323043
-0.022373162
-0.032657303
-0.020744806
-0.018098827
-0.036196977
-0.061353993
-0.07993679
-0.103513196
-0.11196089
-0.11577376
-0.14009276
-0.16113193
-0.17503178
-0.16833131
-0.12765189
-0.07261339
-0.015451706
-0.001809004
-0.03719175
-0.050858743
-0.017162072
0.048831895
0.09715121
0.0786622
0.061913528
0.12959714
0.1972178
0.17046389
0.14399278
0.17556521
0.18847924
0.15909207
0.100569054
0.06763937
0.09878747
0.14020625
0.16729286
0.14077145
0.06187926
-0.017430458
-0.122981414
-0.186677
-0.20407039
-0.26767462
-0.23586969
-0.10737657
-0.0745756
-0.096793495
-0.11479356
-0.11216763
-0.057264615
-0.06057428
-0.14573856
-0.1806989
-0.1342417
-0.05667006
0.0145066315
0.06042371
0.09195143
0.11598338
0.12894502
0.13183248
0.11700392
0.09445128
0.07963319
0.059318803
0.03816242
0.044134494
0.08438226
0.11419145
0.09188731
0.05972145
0.03872677
0.0074691717
-0.0122933285
-0.01874532
-0.017079158
-0.019616494
-0.06180395
-0.09319388
-0.06851433
-0.037446935