2.0642969E-4
-1.7644116E-4
0.0036323597
0.0017835768
6.966853E-4
2.7686715E-4
-0.00259049
-0.0038674904
-0.002644412
4.8149974E-4
0.002221831
0.0022325793
1.6509146E-4
-0.0040819263
-0.00623374
-0.00834338
-0.010047323
-0.008910166
-0.008235657
-0.0065591885
-0.0023378173
0.0029566647
0.005943374
0.0045352965
0.0032838692
0.0034145156
0.0051947148
0.0069059515
0.0062241443
0.01006708
0.011901897
0.003763882
-6.861161E-4
4.0979276E-4
-8.7845474E-5
5.245907E-4
0.002010784
0.0040194667
0.0024820592
-0.005507996
-0.008704177
-0.005302808
-0.0035414172
-8.713227E-4
0.0012715189
-0.002584871
-0.0057185465
-0.005381336
-0.005658659
-0.0044151302
-0.0050357813
-0.007978794
-0.003903754
0.0025791633
0.0055555287
0.007415445
0.005864464
0.0053927368
0.0066607604
0.0032851289
0.0012612934
0.0023604783
0.0024618853
0.0026111868
0.0013374204
-5.690361E-4
1.10484216E-4
0.0033904095
0.0039408277
-0.0010782536
-0.005578492
-0.008459417
-0.0072244867
-3.756278E-4
0.0020929151
0.002045327
0.00417867
0.0048204316
0.004571858
2.6033804E-4
-0.005168191
-0.0054785986
-0.004440855
-0.0022880314
-0.0011434661
-0.0029553075
-0.0037994469
-0.0036134133
-0.0011284379
0.0012413623
-5.479202E-4
-0.0026454148
-0.003880932
-0.004584651
-0.0024249472
0.002200443
0.0052072504
0.0041028634
0.0018209548
2.804634E-4
5.220779E-4
0.0023658427
0.004635782
0.010210438
0.013094469
0.006526769
-9.296371E-4
-0.0035753655
-0.0025315392
5.9163634E-5
6.832141E-4
8.732954E-4
9.5851114E-4
3.779732E-4
0.0016642496
0.0013973698
-0.0025424815
-0.0037934002
-0.0024481572
-0.0047106403
-0.0063195336
-0.003114547
-0.0029807463
-0.0062356815
-0.0055576
-0.0043369364
-0.0043017818
-6.6717283E-4
0.0028161546
0.0042551546
0.006254241
0.0039979205
-0.0011239779
-0.0028571296
-0.0016529211
0.0013470694
0.0014597678
-4.2838595E-4
4.082125E-4
-1.0785166E-4
4.7002992E-4
0.0016878096
-4.8086842E-4
0.0020123953
0.0057118405
0.0042948923
0.0022546519
-1.4757492E-4
2.2260474E-4
0.0017875712
8.558845E-4
0.0021787223
0.003147527
0.0026307742
0.002626472
-6.8077055E-4
-0.0050393925
-0.005100875
-0.0015892913
2.3217533E-4
6.6741643E-4
0.0014517335
5.5950054E-4
0.0018416946
0.0014001353
-0.0019210137
-0.0011039112
-0.0057199923
-0.010763135
-0.0071075344
-0.008234839
-0.005617068
0.006135326
0.008353716
0.0026714455
-0.0026979912
-0.0063065803
-0.004756756
-6.6399825E-4
0.002243786
0.004789846
0.00825629
0.008591361
0.005996372
0.006471567
0.007472075
0.006738992
0.0032696067
-0.003403368
-0.0072241537
-0.007884192
-0.0050915913
7.059444E-4
0.004744168
0.009223326
0.008214401
5.818214E-4
-4.377226E-4
-4.8365412E-4
-0.006571393
-0.01073463
-0.010853813
-0.007852614
-0.0052363737
-0.0049663563
-0.0034020124
-0.0014611849
0.0015857959
0.0050570667
0.0047880393
0.003789096
0.003933191
0.004393295
0.0045790095
0.0032334651
0.0030484793
0.0025534262
-4.877564E-4
-0.0019194026
-8.0913975E-4
0.0015483885
0.0025495563
0.0016723524
0.002816054
0.0035799493
0.0016956695
-0.0016871494
-0.0050240103
-0.0038209665
-0.0016494301
-0.001986053
-0.0013394997
-0.0020463495
-0.003496959
-0.0032817654
-0.004080654
-0.0045144805
-0.002222721
7.825246E-4
6.63642E-4
-1.7010406E-4
0.002495762
0.003266839
0.0011926026
0.0013632132
0.0021173859
0.002507044
0.0035232892
0.0037478483
0.0023523476
5.9617136E-4
0.001563008
0.005210613
0.007311902
0.0050378423
-4.7851188E-4
-0.006019722
-0.009833541
-0.012302147
-0.013060628
-0.009388806
-0.002311201
0.0018371231
0.0012534681
-3.3162624E-4
2.9391216E-4
0.0023951957
0.002122705
4.8882654E-4
0.0014627441
0.0035159069
0.0034275865
0.0017975037
9.6969487E-4
9.442956E-4
0.0010302104
0.003782241
0.00949621
0.013374352
0.013777447
0.012371673
0.0103671765
0.0073866323
-0.0014979602
-0.013148222
-0.016803095
-0.015531994
-0.0134394085
-0.0081565725
-0.0054123844
-0.0056553218
-0.004295067
-0.004309092
-0.0040093935
-5.347345E-5
0.0013896574
-0.0020454729
-0.0026058422
5.327869E-4
0.0018575197
0.0023286443
0.0029250635
0.0046237074
0.007345547
0.0063632727
0.0038918518
0.0028166133
0.0020382344
0.002021432
8.562311E-4
3.1390868E-4
0.0014526778
0.0014145544
0.0010476401
-5.1192957E-4
-0.0023013079
-0.0038956169
-0.006169117
-0.0039370097
-3.3686688E-4
3.6779264E-4
0.0017021057
0.0017764617
0.0018244477
0.0034691528
0.0022889432
1.7391646E-4
-2.1511041E-4
-7.7501644E-4
-0.0010735005
5.80376E-4
0.0028193742
0.004177994
0.004442323
0.0027893397
0.0027616073
0.0032444606
-0.0019134046
-0.0061157555
-0.006098397
-0.00698041
-0.0050722035
-0.002187067
-0.0040213936
-0.005464246
-0.0037189396
-0.0017926109
-2.5803424E-4
0.0011583715
0.00209736
0.0034163306
0.0050633866
0.0052966303
0.004132348
0.0022844404
2.7117218E-4
-0.0018158718
-0.0038519243
-0.004067392
-0.002907056
-0.0015145635
1.9819141E-4
0.0010722692
0.0018016146
0.0037311723
0.004956322
0.0028024944
4.143857E-4
0.0023262068
0.0038358844
0.002770488
0.0024358614
0.0010322351
-7.232251E-4
-0.0019589416
-0.0034119848
-0.0025985052
-0.0018245932
-0.0019283383
-0.0013848266
-0.0011586016
0.00258577
0.0064852466
0.0029681458
-0.0015108102
-0.0025684515
-0.004480396
-0.0063330256
-0.0056096553
-0.003109445
-8.2020275E-4
-4.8556537E-4
-0.0015338907
-0.0023239455
-0.0017916991
-6.282505E-4
-7.92122E-4
-0.0010824488
-1.7368347E-4
0.0015874862
0.0054519125
0.008746341
0.009130209
0.009022421
0.0072585647
0.0034612964
-0.002060229
-0.00838265
-0.007922024
-0.0020549076
8.79726E-4
0.0017259635
0.0030244398
0.005004158
0.0042400514
-9.905066E-4
-0.0034028185
-0.002258819
-0.003076271
-0.004393388
-0.003556048
-0.0014216412
-0.0020216638
-0.0054328768
-0.00475717
-0.001790484
-0.0026294026
-0.0026656832
-6.70143E-4
-4.4360632E-4
0.0012195746
0.0026566472
0.0019889981
0.004276468
0.005593708
0.004634821
0.0055567194
0.0032548462
4.129324E-5
6.116659E-4
-0.001034263
-0.0031536545
-0.0014171499
-2.586473E-4
-0.0014879153
-0.002472021
-0.0018237461
3.8800907E-4
0.0028100482
0.0034663742
0.0033618456
0.0034163147
0.0013985176
-4.876845E-4
9.865071E-5
-5.495759E-4
-0.0023479725
-0.0019312795
-2.9369217E-4
3.058231E-4
-2.5023695E-4
-4.6353467E-4
8.202667E-4
0.0016828631
3.1751997E-4
-0.0015234716
-0.0031864645
-0.0045230403
-0.003919916
-0.0020936776
2.197956E-4
-3.1278544E-4
-0.00538978
-0.006453992
-0.0030347768
-0.0019644422
-0.0014923337
-0.002058112
-0.0012122288
0.004640259
0.0073323906
0.007928316
0.01044378
0.007813088
0.004636996
0.0049841795
0.003211765
0.0024133876
5.642348E-4
-0.003710779
-0.0014404657
4.1053968E-4
-0.0042379396
-0.0050716465
-0.0027003319
-0.0017856421
-0.0013944161
-0.0032987904
-0.0037874815
-7.59648E-4
-1.11167006E-4
-0.0020896236
-0.0025834234
-0.0018810048
-0.002367779
-0.0029024514
-0.0024080272
-0.0026179121
-0.0010753388
0.0021517717
0.0024453686
0.0020831663
0.0029874532
0.0036923701
0.0050175507
0.006539734
0.0076271454
0.007078566
0.0045097535
0.0017021421
-0.0011891854
-0.0033018833
-0.0042878943
-0.0033056773
0.0010810476
0.0041202893
0.0033284097
5.437399E-4
-0.003852146
-0.006002715
-0.004339164
-0.0017881604
-0.0013890632
-0.0044496492
-0.004335632
-7.598518E-4
-0.0030766663
-0.0067593073
-0.0045380876
-0.0026182758
-0.0030959805
-9.509238E-4
0.0022116017
0.002464335
0.0011577772
-4.149481E-4
-0.0013472969
9.406943E-4
0.0044643153
0.0058319382
0.0056436015
0.0037939535
0.0019467192
0.003858643
0.0069924803
0.007561015
0.006128444
0.0020579593
-0.0036357376
-0.005459873
-0.002540887
5.0096907E-5
7.7232317E-4
3.5876382E-4
-6.00777E-4
8.216951E-4
0.0022791284
9.680699E-4
-3.7041696E-4
-0.0019676203
-0.0025726021
-0.0018598788
-4.00884E-4
0.0017200885
-0.0057524396
-0.015176928
-0.008955619
-0.0011042771
-8.5649436E-4
2.268947E-4
0.0011525408
0.0016501176
0.0023744318
0.0020881565
3.8834347E-4
-4.6112915E-4
0.0012162613
-6.1476807E-4
-0.0016585627
0.0017041775
0.0017216789
0.002422457
0.0044836793
0.004563066
0.0059112473
0.0047454447
0.0020058567
0.0010786011
-0.0014316796
-0.004916994
-0.0060510174
-0.004178506
-0.0028438375
-0.0025740273
-0.0020520366
-0.0020035799
-9.847976E-4
-6.251378E-4
3.2361125E-4
0.0025210108
0.0027807837
0.0025164657
-6.2205363E-4
-0.0022446208
0.0010907947
0.0032332477
0.007929877
0.008632837
0.003579579
0.0063132234
0.007428359
0.002654274
-9.0639276E-4
-0.004839383
-0.0037841387
-0.0014793285
-0.0043585305
-0.0061071995
-0.0044596177
-0.0026209462
-0.0036712624
-0.004838852
-0.0060794614
-0.0079395585
-0.003753242
0.0018718328
0.0032609075
0.0011050758
-0.002956692
-0.0020110211
2.2731741E-5
-4.981003E-4
5.7301106E-4
0.0011293037
0.003897031
0.0067934147
0.0057740714
0.0068334006
0.006041934
0.001486214
6.052835E-4
0.0010038457
-0.0014525718
-0.004986735
-0.0071413126
-0.005879036
-0.0025404438
-9.1222476E-4
0.0014245098
0.0035310448
-0.002484772
-0.006393107
-3.436339E-4
0.0025052459
0.0030269576
0.0053594788
0.0027753452
-8.6399465E-4
-9.046546E-4
6.6678063E-4
0.0013376718
7.797451E-4
6.708977E-4
-3.7800104E-4
6.67549E-4
0.0036001776
0.0024616243
0.002570989
0.0046835304
0.0033931804
0.002722136
0.0019708169
-8.682712E-4
-0.0020278273
-0.0027535313
-0.0038250738
-0.0024484252
-3.8934604E-4
-0.0014602846
-0.003106657
-0.0025376359
-0.0027522445
-0.0039884937
-0.005027962
-0.0052816216
-0.0040540216
-0.0035237228
-0.0023294732
-6.812844E-4
-0.0015816344
-0.0014525284
9.279902E-4
0.003033659
0.0017899834
-0.0023361377
-0.0019573064
5.948697E-4
0.0010034363
0.0030095337
0.004925606
0.0065983227
0.009589163
0.011988307
0.011712291
0.0048637823
-0.0019531643
-1.3778581E-4
0.0030575453
0.0021697455
3.2423457E-4
-0.0012508156
-0.0032955601
-0.005412179
-0.0062784865
-0.0065841367
-0.005676858
-0.0026597087
-6.6855643E-4
-5.7076814E-4
-0.0017585164
-0.0042050537
-0.004759546
-0.004189876
-0.005322401
-0.0037654839
-3.5091877E-4
4.029702E-4
0.002469924
0.0030032229
-0.001628891
-0.002572581
0.0028525947
0.008886542
0.010530198
0.008097486
0.005197226
6.6775363E-4
-0.0026564302
-0.002603332
-3.8917674E-4
0.00462016
0.004397486
0.0013059117
0.0022987218
-2.5544007E-4
-3.656845E-4
0.0027574596
-0.002218694
-0.0053788708
-0.0039286786
-0.0052554156
-0.004591798
-0.0021013778
-3.073849E-4
0.0012873478
0.0012407517
1.0027537E-4
-0.0011345154
-0.001868184
-0.0030852018
-0.0045345104
-0.0033386431
-0.0015825151
-0.0015595924
-9.330638E-4
3.8663635E-4
0.0022576086
0.0041254717
0.001868943
-1.6967363E-4
0.0015995395
4.4870924E-4
0.0010732994
0.0043869894
0.0021381974
0.0014762518
3.1014284E-4
-0.005372764
-0.003836714
3.6187013E-4
0.0022187247
0.0066338284
0.008827299
0.0077012763
0.004696282
2.2992051E-4
-0.0028610278
-0.0055720066
-0.0071055572
-0.0053336844
-0.0010611237
0.0023404507
0.0017722663
-8.5807557E-4
-0.0032176278
-0.004321168
-0.0039136764
-0.001682314
0.001356069
0.0018574736
0.0011126013
-4.4692606E-5
-2.2546746E-4
0.003058139
0.004583946
0.003947524
0.0018536466
-0.0032707679
-0.006094622
-0.0066557373
-0.0033554097
0.0026682077
0.0013300648
-9.433232E-4
0.0018233599
0.0020002162
-6.216243E-4
-0.0020522024
-0.00200609
-0.0019758039
-3.845331E-4
0.0014884073
7.384011E-4
0.0017628869
0.0024806755
0.0032660186
0.008640571
0.010699859
0.007988736
0.003217817
-0.0036581918
-0.009022357
-0.010979601
-0.0049007596
0.0019028698
0.001966192
0.0015520719
-0.00491153
-0.009859978
-0.00340747
-0.0015629056
-0.0040369574
-0.0045924117
-0.005976603
-0.0051097493
-0.004970495
-0.0069288905
-0.011266254
-0.013206746
-0.005038161
0.0036278735
0.008499249
0.012541532
0.016969824
0.022535743
0.019501334
0.013153626
0.01233729
0.0077073528
-0.00431462
-0.021541322
-0.03105311
-0.026147801
-0.020487985
-0.015533556
-0.012025616
-0.014972583
-0.01973042
-0.02118862
-0.017945455
-0.019714465
-0.019983437
-0.006085838
0.001808042
0.0032570988
0.014023803
0.02165143
0.024821552
0.03032026
0.033641636
0.04018663
0.052554987
0.062898755
0.06960907
0.07322582
0.068316944
0.053457364
0.0333602
0.008688095
-0.016498672
-0.0345449
-0.049025483
-0.06479867
-0.07558558
-0.074479245
-0.06490586
-0.055202343
-0.04657935
-0.034247518
-0.018592333
-0.006140993
0.0036783575
0.017246263
0.029750932
0.035785995
0.038883947
0.0348893
0.024431929
0.01854347
0.011918681
-0.0046799076
-0.027046757
-0.051441424
-0.07718243
-0.09663172
-0.094430454
-0.07035404
-0.041220732
-0.01714557
3.1753417E-4
0.021509837
0.054444447
0.08309781
0.09163418
0.09367274
0.1102791
0.11901255
0.10234809
0.095013574
0.109748445
0.13296708
0.14129758
0.11860768
0.10105212
0.083210856
0.0386589
0.0052005826
-0.028512986
-0.10752094
-0.2219437
-0.32269943
-0.35433164
-0.340103
-0.3418952
-0.34675464
-0.28745073
-0.15452872
-0.046270203
-0.0027850848
0.02670729
0.036184404
0.035738695
0.087057896
0.19007365
0.2823516
0.330056
0.3666449
0.40950543
0.44129956
0.44443208
0.39248767
0.3085408
0.22824368
0.11527026
-0.045224328
-0.1777625
-0.24596903
-0.3133264
-0.39909905
-0.4831789
-0.5447792
-0.49925804
-0.35184002
-0.20035188
-0.087425865
-0.058143582
-0.072909676
-0.027468793
0.016704744
-0.025816234
-0.057707243
-0.001251033
0.053408086
0.08934868
0.18149145
0.28487945
0.35418996
0.39594328
0.41998574
0.45662588
0.43592912
0.3217396
0.18697399
0.017342608
-0.15928803
-0.25761196
-0.32725936
-0.40913594
-0.43399686
-0.3752715
-0.28471592
-0.19076975
-0.10829248
-0.049320422
0.015132162
0.078109235
0.10431246
0.091994435
0.074802965
0.0938189
0.09360329
0.050854288
0.044832353
0.061858963
0.08478553
0.108723834
0.06987596
0.023276774
0.0274564
0.02783893
0.014757969
0.007327795
0.011046644
0.008476222
-0.039408095
-0.1086476
-0.15185228
-0.1620744
-0.14313892
-0.104195185
-0.05791144
-0.014784164
0.010855429
0.017236944
0.026759146
0.050221916
0.07288216
0.08767008
0.094774954
0.09381561
0.08943973
0.08761934
0.08109745
0.048579305
0.0066305716
-0.016715672
-0.04385902
-0.0721412
-0.07006769
-0.0547997
-0.045566313
-0.032367717
-0.015189114
-0.014213603
-0.031779397
-0.02526
0.01302457
0.032086384
0.021646418
0.007845852
0.0057448153
0.015541898
0.023171736
0.039692823
0.060640924
0.039677028
-0.018433051
-0.07186177
-0.092042066
-0.06634025
-0.018830007
0.01723643
0.02348971
0.02327954
0.029011577
-0.017490773
-0.08042711
-0.06602152
-0.0064898157
0.04789905
0.070556335
0.050933525
0.041276965
0.04803018
0.041089043
0.03053586
0.027987586
0.035863925
0.037031334
0.019620022
-0.008510992
-0.042951506
-0.056736138
-0.040265065
-0.021153625
-0.011323321
-0.013630599
-0.016349232
-0.0042765043
-8.647909E-4
-0.02126538
-0.034692273
-0.023281498
-0.008305969
-0.002290825
-1.7214092E-5
8.421755E-4
-5.160238E-4
-0.007752969
-0.012914415
-0.0071380064
0.0028117304
0.016116565
0.031937465
0.036452193
0.019604534
-0.0032903338
-0.012352086
-0.017051002
-0.019143527
-0.015378814
-0.017577756
-0.015145408
-0.0072591384
-0.009981524
-0.019169465
-0.025485482
-0.014721832
0.0070284125
0.023963492
0.045651242
0.06669568
0.083169624
0.09594019
0.083727345
0.05240289
0.020497177
-0.0081147365
-0.03132049
-0.062558174
-0.090454265
-0.07818443
-0.035264548
0.0043951366
0.031578336
0.036432274
0.009291019
-0.02760501
-0.054048717
-0.06368862
-0.048852015
-0.035408057
-0.039508086
-0.03495529
-0.02133315
-0.0031303258
0.031096535
0.058260474
0.05335202
0.036540285
0.034169693
0.035939287
0.031196214
0.030577121
0.024600076
0.008941076
0.004785926
0.0046362127
-0.007883227
-0.014444793
-0.0077907336
-0.013519283
-0.037058212
-0.05201043
-0.042832047
-0.025164915
-0.022155615
-0.02145715
-0.0040531387
0.008653013
0.007888604
0.011004555
0.015716495
0.016568897
0.014369211
0.010910635
0.012142919
0.013109632
0.01099056
0.011670795
0.011763333
0.012667366
0.023867087
0.03776374
0.037397727
0.025001515
0.011146526
-0.005733091
-0.021546155
-0.027030561
-0.02785163
-0.027939484
-0.024760414
-0.024440564
-0.025468696
-0.017361188
-0.006018092
-0.0016641851
0.002627345
0.0115866
0.017216548
0.016184483
0.008367711
-0.004664453
-0.012923992
-0.012914243
-0.008327784
-0.0029351448
-0.0012744726
0.0028117076
0.008064973
0.0016885212
-0.007750991
-0.009891916
-0.009915304
-0.008378058
-0.0054934695
-0.004798046
-0.005467068
-0.0026691442
0.0028747534
0.004382972
3.5520273E-4
-0.0073179086
-0.010671595
-0.0054778294
-6.9959264E-4
0.0042629163
0.012004274
0.015937032
0.014777968
0.014199346
0.018584093
0.019358179
0.017167231
0.021338917
0.016920516
0.003895722
0.0012950439
0.0051211477
0.009482736
0.009627087
9.618761E-4
-0.0063472213
-0.012617542
-0.024337683
-0.030205892
-0.022751197
-0.012196917
-0.0057874615
-0.0053733326
-0.009934098
-0.008367191
-0.00492342
-0.011330317
-0.015556567
-0.011893454
-0.0079507865
-0.0058875605
-0.005308951
-0.0016287982
0.0029478478
0.0041164816
0.004549742
0.007332522
0.015519305
0.020687548
0.018833946
0.018767016
0.0183256
0.013141894
0.0029792138
-0.0035728286
-0.0014055489
-0.004007041
-0.0051222527
0.0018693955
0.0027362744
0.0013610481
-3.6627025E-5
-0.004846077
-0.008583716
-0.012832761
-0.010005758
-7.0867955E-4
0.0031521055
0.0035585694
-0.003347239
-0.013529712
-0.009803328
0.0043005426
0.013888595
0.01053002
0.0035550122
0.007004921
0.0104483105
0.0055716396
1.490247E-4
-0.0045331055
-0.007894195
-0.009799731
-0.013683176
-0.016285382
-0.014490338
-0.006356938
0.0069388077
0.012161759
0.007942358
0.005690623
0.0034183876
0.0030944897
0.008962989
0.008295155
0.0013640827
0.0018569552
0.004791992
0.0039389306
0.0044715214
0.005030487
0.0062085236
0.0113266995
0.01017134
-3.4759165E-4
-0.008287034
-0.010380258
-0.0122081665
-0.018103082
-0.023369705
-0.02055865
-0.014885478
-0.010832849
-0.006783244
-0.003632868
-5.967247E-4
7.0919417E-4
2.7131286E-4
0.0026392837
0.0046029673
0.0037595194
0.006153059
0.011802105
0.014106036
0.014909032
0.01981798
0.022876587
0.018795485
0.01450647
0.011805474
0.005775262
0.0015708657
0.0033816139
0.002496805
-0.004429504
-0.011113753
-0.015215124
-0.017839128
-0.017369455
-0.01197472
-0.008997589
-0.0122290235
-0.011471066
-0.007475861
-0.0058307396
-0.0018206887
0.0014543112
0.002220588
0.003156851
5.936455E-4
-0.0017372858
-0.0013457566
-0.001629175
-4.503183E-4
-3.296067E-5
-0.0017416441
-6.914723E-4
0.0024718076
0.0042466843
0.0042368663
0.005625243
0.007755962
0.005801405
0.0030430292
0.0024686826
0.0027536189
0.0050970432
0.0050776475
4.549836E-4
-0.0026207385
-2.0634203E-4
0.005279766
0.0034805334
-0.0023416835
0.0025613995
0.009804653
0.009613121
0.006129492
0.0019257595
0.0031549484
0.0042276443
-0.0037860756
-0.012516933
-0.017906029
-0.01948812
-0.01710479
-0.013841991
-0.0078045907
-0.0030993572
-0.0024336833
-0.001846569
-0.0017813359
-0.0010133074
3.3961897E-4
0.0021335983
0.0035920043
0.0012913065
0.0010589573
0.00395269
0.004929097
0.006816607
0.0089340685
0.0087330835
0.0059412457
4.3981223E-4
-0.0027767958
1.1853535E-4
0.0046770237
0.006506991
0.00978603
0.010886596
0.0034224633
-0.001786817
-0.0031265677
-0.006269366
-0.0059593
-0.004025777
-0.0027803362
-0.002937057
-0.004527719
-0.0015362165
3.281899E-4
-1.5123672E-4
0.0037059165
0.0059694936
0.0059483266
0.0053725163
0.0016044161
-0.004351187
-0.011391685
-0.012085045
-0.0068847034
-0.0056225057
-0.00593885
-0.0061195665
-0.0059804106
-0.0026925781
-0.0011814982
-0.0016276989
8.3612314E-5
0.0018178831
0.0025211163
0.0025205268
8.633433E-4
0.0014796881
0.0058507486
0.005116062
0.0025706708
0.008032486
0.012369219
0.012191553
0.011393803
0.0070964317
0.006892091
0.008450771
0.0019045584
-0.0021534173
-5.6276505E-4
7.5151864E-4
0.0023609628
-3.442607E-4
-0.005199251
-0.0071548563
-0.009792019
-0.010266778
-0.0065681143
-0.0029656219
-3.2505923E-4
-0.0020310294
-0.0074032973
-0.008081296
-0.008097274
-0.013463598
-0.012788853
-0.0035976353
6.0218445E-4
-6.870455E-5
2.0929438E-4
-0.0014626624
-0.002818822
-0.0021352947
-0.0036468653
-0.003979049
-9.250093E-5
0.0029851808
0.0043129083
0.0065707867
0.010176927
0.012081162
0.008410589
0.0064804587
0.0118258195
0.013719402
0.009935714
0.007098091
0.0045609763
0.0043203714
0.007505402
0.011301908
0.013078637
0.010398254
0.0073498148
0.004439316
-0.0033004049
-0.014499506
-0.022297554
-0.019588433
-0.013358307
-0.012182736
-0.011123261
-0.011519006
-0.013085226
-0.0106983
-0.00814923
-0.006931582
-0.0054800184
-0.0016515563
9.0587046E-4
-0.0029268034
-0.0037926785
-0.0012042943
7.6375065E-5
0.0063291895
0.012173641
0.011568636
0.008388667
0.0053706584
0.005833903
0.007315908
0.0061595556
0.0048736474
0.0062506734
0.00705904
0.00457871
0.004406555
0.0020088777
-0.0037048042
-0.0011860545
0.0015415247
9.712729E-6
0.0010203044
-8.5270684E-4
-0.0025718776
-0.0017284256
-0.0027247644
-0.0028816902
-0.0040832115
-0.003749455
7.116206E-4
0.0026309066
0.003735067
0.0038830827
-0.0010799028
-0.0055313613
-0.006029926
-0.0046389224
-0.0033482485
-0.004234585
-0.0041090352
-9.630433E-4
-4.969773E-4
-0.0029463486
-0.0038165995
-0.0034196796
-0.0016562106
-2.2283526E-5
-3.5550632E-4
-2.642981E-4
2.8941635E-4
7.921562E-5
-9.4732177E-4
-9.890647E-4
-4.6421406E-5
-3.0779597E-4
8.493226E-4
0.0021969283
0.0037633334
0.008456672
0.009372849
0.0065875077
0.004015929
0.002022065
0.0047563217
0.0078047034
0.008597835
0.006621853
-9.209913E-4
-0.006079631
-0.007566569
-0.005862135
-9.846207E-4
-7.360032E-4
-4.2301497E-5
0.0019147325
8.848069E-4
2.2265606E-4
-0.0040098797
-0.008168299
-0.010381775
-0.011526481
-0.0037560111
0.0018235813
-2.6062105E-4
-2.7048265E-4
-2.8478017E-4
9.567368E-4
0.0023638927
0.002173638
0.0037749694
0.0013687748
-0.0023711713
-0.0013577545
-3.3404012E-4
-5.8093865E-4
-6.5378356E-4
-6.554151E-4
-0.0013420222
-0.0012635508
-6.1417214E-4
-0.002176887
-0.0022641525
-6.6576764E-4
1.9599036E-5
7.9178787E-4
4.7721717E-4
2.2789363E-4
0.0012582762
0.005638166
0.011391454
0.010877143
0.0076184766
0.0047869137
0.0034691936
0.005765951
0.004881245
0.0049831113
0.007387344
0.0017327028
-0.004292106
-0.0057968763
-0.008229127
-0.008584507
-0.0058504893
-0.0021560392
-8.789482E-4
-0.0032766021
-0.00491944
-0.0046328204
-0.004778947
-0.0075576706
-0.009622481
-0.0069305263
-0.003499151
-0.001583707
3.854835E-4
0.0023826521
0.0032481155
0.0045674304
0.0075590704
0.006006337
0.002349901
0.0027446505
8.6656265E-4
-0.0022889923
-0.0022611865
-0.0011196033
4.947975E-4
-5.309163E-4
-4.481233E-4
0.0019301069
-0.0013010481
-0.0033913848
-0.0011212827
-0.0022828819
-0.002701962
-1.531222E-4
0.0012738599
0.0033147696
0.006049499
0.0062687597
0.005000014
0.004580546
0.0042148815
0.004838693
0.0054360717
0.0034437615
0.0026793634
0.0020644825
-2.9161072E-4
0.0016220417
0.005614016
0.0049571125
-0.0017523142
-0.010320774
-0.012128849
-0.00859892
-0.0061858827
-0.0039879964
-0.0020325575
-0.0025503102
-0.0050536385
-0.005589441
-0.0035815313
-0.0018162498
8.1803073E-4
0.0014232299
-0.0010796402
-0.0011677194
-5.692849E-4
-0.0010976971
-0.0010420933
2.2406103E-4
0.0034930978
0.0044744005
0.0033699265
0.004395195
0.004504556
0.003989564
0.0047024465
0.0043350887
0.0036810178
0.0026624438
8.581017E-4
-1.9847404E-4
-0.0024665054
-0.004995524
-0.0036615643
-0.0012246666
5.132714E-4
0.0018604423
-0.0011640945
-0.0034873802
-6.8560825E-5
0.0025813463
0.0041091205
0.0032041166
-0.0021993453
-0.004396984
-0.0042294003
-0.0033790611
3.1709514E-4
0.0013088837
6.1395037E-4
5.956406E-4
-7.418854E-4
-0.0016132216
-0.0016238819
2.2741275E-4
0.001286661
-5.201717E-4
-0.0011371756
-0.0026711547
-0.003204982
2.5889662E-4
0.0024928155
0.002982043
8.627103E-4
-0.001183112
4.9238686E-5
-0.0011676805
-8.3281734E-4
0.0015791174
-7.236124E-4
-0.0012665049
0.001687108
0.0040645795
0.004888632
0.003890132
0.0046061594
0.003896837
0.003565776
0.005068789
-0.004989589
-0.015821513
-0.0090963375
0.0027263798
0.0073942663
0.0030885674
-0.0047868337
-0.0060902075
-0.00361465
-0.001316325
-1.708748E-4
-0.0023389112
-0.0029742348
-0.0010050943
3.823913E-4
0.0010293684
6.4015394E-4
7.169192E-5
-6.72108E-4
-3.536858E-4
0.0013677682
9.3199476E-4
8.224008E-4
0.003405517
0.0047733933
0.004629356
0.004207116
0.003410634
0.0040854514
0.005315138
0.004442439
0.0034464605
0.0028692
9.426519E-4
-3.3363976E-4
-0.00128685
-0.002869842
-0.0024281356
-0.0017868917
-0.0045500766
-0.008807921
-0.008553018
-0.0038360409
-0.0016585767
-5.7429697E-5
0.002274058
-2.3694876E-5
-0.0015830909
-2.2639861E-4
-0.0021208946
-0.004650331
-0.0041996096
-0.0024325973
-0.0016622132
-0.0017723867
-5.756368E-4
0.0012883012
0.0029969893
0.004224156
0.0031616136
3.2390555E-4
-7.235194E-4
8.7892957E-4
0.0015756477
0.0016902332
0.0031549293
0.004764659
0.0043141018
-0.0010808131
-0.005649511
-0.0044311383
-0.0031003435
-0.0011286295
0.0016296098
0.003219137
0.0059979446
0.005600164
0.003914901
0.0063879183
0.0077884826
0.0064545386
0.0034202018
2.7824243E-4
2.384027E-4
7.606212E-4
-6.0804165E-4
-0.0022515648
-0.0015296201
-6.9342885E-4
-0.002123396
-0.0020223362
-0.002171797
-0.0051981527
-0.008022132
-0.009062724
-0.007488427
-0.0042702244
-9.5014815E-4
-1.3056042E-4
-0.0021447444
-0.0039816103
-0.0072133825
-0.0070646824
-0.0027201767
-0.0035158515
-0.0031787907
-1.3678006E-4
-0.0020713666
-6.907527E-4
0.00551457
0.008451808
0.00912848
0.009365326
0.008355963
0.0065366984
0.005685747
0.004987385
0.003044099
0.0017914907
0.0014782067
0.0020536054
0.003361861
0.0038043607
0.0036006519
0.0033476588
0.0032062922
0.0019056466
1.5315517E-4
-1.8593112E-4
-0.0020684018
-0.0040131793
-0.002506804
-0.0016018206
-0.003066588
-0.0051902817
-0.006902662
-0.006246134
-0.005641578
-0.0081095565
-0.008758546
-0.004600157
-0.0011881563
-0.0010931247
-0.0018574278
-0.0014418309
9.962834E-4
0.0019114771
6.268664E-4
0.0017777137
0.003934175
0.004189003
0.0031137136
0.0016889593
0.0024194897
0.0043719695
0.0042970525
0.0020990162
-3.7191162E-4
-5.2529125E-4
0.002079905
0.0065296446
0.010086413
0.006536521
-0.0022683246
-0.0060679656
-0.004790911
-0.00522472
-0.0046925275
-0.0022361525
-0.0032242585
-0.0035760265
-0.0014136997
-0.0011034275
0.0011138967
0.0022139575
-0.0015143496
-0.001965286
-8.5933885E-4
-3.8770895E-4
0.0020253544
0.0013145722
6.6678633E-4
0.0025571685
0.0019279692
5.972865E-4
-6.123712E-4
4.5781586E-4
0.0039721103
0.0041097663
0.0018196823