-0.0015198179
-0.002228306
-5.4586254E-4
8.1566814E-4
0.0036552965
0.005041107
0.0037288899
0.0021225743
0.0012152727
5.0733062E-5
-0.0020931256
-0.0021412678
-0.0013842656
-8.4523886E-4
6.5618614E-4
-1.7473019E-4
-2.406059E-4
0.0021708598
0.0022079817
4.8258685E-4
-9.3844807E-4
-9.950539E-4
-0.0023014692
-0.004134626
-4.125609E-4
0.0021157209
-4.006705E-4
-6.9871027E-4
-1.0401556E-4
-1.5313685E-4
1.1838215E-4
-8.8965514E-4
-9.1241044E-4
0.0010454273
0.0025654214
0.0019796416
4.4852952E-4
0.0011806951
0.0025602446
-6.794489E-5
-0.005092479
-0.006376398
-0.0036433705
-0.0010565486
9.1065606E-4
0.0027333223
0.0033497456
0.002683017
0.0015621817
5.394905E-4
2.8981734E-4
3.1772157E-4
-0.001665448
-0.0037466493
-0.002651203
-1.1705596E-4
0.0016785297
0.0021342337
0.0030724718
0.0039197933
0.0012243984
-0.0017229996
-0.0028938993
-0.0025368377
-1.9491118E-4
-3.365975E-5
3.6255774E-4
0.0018660018
1.6988188E-4
-2.8103893E-4
-0.001356152
-0.0033626705
-2.0044744E-4
5.1012833E-4
-0.0014925237
5.067671E-4
0.0027237474
0.004722413
0.004154773
3.8623172E-4
-4.8526778E-4
-0.001362634
-0.0028083695
-0.0016421223
-7.2971673E-4
6.635952E-4
0.0014825792
-2.9084156E-4
4.591301E-5
7.0292153E-4
-0.0022795736
-0.0035178403
-0.0016331577
-0.0016288676
-0.0022966072
-6.064327E-4
0.0013096017
0.0014197704
9.389332E-4
5.8438024E-4
-9.361071E-4
-0.0014431512
8.7368017E-4
0.0021676628
0.0031221542
0.0047502164
0.0037826498
0.003154879
0.0026088723
-5.2757916E-4
-0.0016137352
-0.0023348695
-0.004583557
-0.004130582
-0.0031361352
-0.0018481817
5.2945025E-4
-2.9491232E-4
-0.0015017054
-4.0793756E-4
-0.0012405675
-0.0025123423
-0.0012569585
-2.7308913E-4
7.6018553E-4
0.0027630336
0.0027500964
0.0027735264
0.003658222
0.0019556626
8.728835E-4
0.0011316156
4.1670026E-4
8.345257E-4
3.2033183E-4
-0.0012028017
-4.998146E-4
1.6565705E-4
-1.345517E-4
-6.2064227E-4
-0.0011096913
-8.267099E-4
-2.9043586E-4
-2.1789414E-4
-0.0015664815
-0.0023037002
-7.639975E-4
-6.635851E-4
-0.0017391325
-0.0013101731
-9.008938E-4
-0.0012626491
-0.0010627209
6.113801E-4
0.0028202662
0.0040473556
0.003041974
1.5609505E-4
-0.0010449942
7.395261E-4
0.003103171
0.003330737
0.0016266704
9.908497E-4
9.054247E-4
2.3356755E-4
-0.0011371908
-0.003333142
-0.0031316506
-0.0018400017
-0.0022263993
-0.0014118109
3.9222307E-4
9.596648E-4
5.6441827E-4
0.0013171564
0.0024942318
5.491943E-4
-0.0013642628
-0.0019152694
-0.0033693062
-0.003396381
-0.0025287152
-4.1273856E-4
0.0017018288
3.5211866E-4
0.0011384999
0.0041920743
0.005198957
0.0054839933
0.001894635
-0.0042429822
-0.005533154
-0.002580144
-8.536711E-5
0.0010120235
1.8552857E-4
-0.003586213
-0.004629032
-0.0037254796
-0.007140714
-0.00653863
-8.7432045E-4
0.0026809047
0.0067844777
0.010136155
0.01301448
0.013267361
0.0068500275
0.0029844954
-3.396355E-4
-0.007102494
-0.007349922
-0.0022475265
0.0030052578
0.005345034
0.002288646
-0.0011456169
-0.0031260056
-0.0047098803
-0.0067035267
-0.008183882
-0.005829576
-0.0018788164
-0.0010451716
-0.0050026006
-0.00567736
-0.003135763
-0.010425449
-0.012920295
-8.784715E-4
0.0047944337
0.007229235
0.013706717
0.012024713
0.0065454324
0.0044556907
0.002812086
0.0044877534
0.008347823
0.0067610526
0.002818087
0.0014982404
-0.003016044
-0.007838714
-0.005352153
-6.6271867E-4
0.0015006758
1.75134E-4
-0.002614008
-0.0031692386
-0.0041388506
-0.0042720283
-0.0014632315
-5.935296E-4
-0.0021768813
-0.0024426803
4.7082005E-5
0.0012814063
-9.1498875E-4
-0.0012866508
-7.8375376E-4
-0.0017603511
3.7146183E-6
0.0029746892
0.00433064
0.0049077584
0.004026919
0.00291747
0.0010304751
-0.0019942245
-0.0015301276
1.5315802E-4
-4.2450518E-4
8.117891E-4
0.001978859
-1.3726243E-5
-0.0016353667
-0.0022527208
-0.0015847353
3.1433336E-4
-8.225326E-4
-0.0026104006
-2.0784671E-4
6.967921E-4
-0.0018779413
-7.4432354E-4
0.0024343557
0.003444592
0.001420763
-0.0070985407
-0.013272187
-0.009762533
-0.0053901463
-4.887082E-4
0.003994801
0.0043657757
0.008217564
0.009768537
0.0026535434
-0.0017251965
-0.0016819001
-0.0011774531
0.0022745251
0.007083442
0.00830251
0.0067975773
0.007937128
0.007647326
0.003234006
9.161279E-4
-0.003193077
-0.0075873225
-0.0055506784
-0.0057412544
-0.0054755425
6.8388326E-4
7.1880606E-4
-0.0024755378
-0.0018139405
-0.0038028474
-0.00649404
-0.007603518
-0.008861661
-0.0075601093
-0.0037416038
0.0027926897
0.008365131
0.007703575
0.0049045905
0.0014894655
-0.0011343121
4.470514E-4
0.0019087895
0.0030950767
0.0044512185
0.0027947703
0.0022122217
0.0024480415
-2.0498892E-4
-0.0019312103
-8.291975E-4
9.566787E-5
-3.6439716E-4
1.8505043E-4
8.8042906E-4
-6.4368744E-4
-9.1180985E-4
-7.728216E-4
-0.0028617273
-0.0029022766
-0.0013055674
-0.0012055975
-0.0014720723
-0.0026343314
-0.0034431075
-9.954764E-4
0.0013093499
0.0018207991
0.0041186106
0.005858348
0.004741791
0.0034425529
0.0011284743
-7.5219426E-4
9.695598E-4
0.0027423727
0.0014687168
-4.582806E-4
2.3465931E-5
2.669886E-4
-0.0029382221
-0.0054340255
-0.0046621696
-0.00281267
-1.578031E-4
0.0032730107
0.0046463534
0.0024313158
2.2077879E-4
-8.1308157E-4
-0.0030731189
-0.005712646
-0.006920559
-0.0050043412
-0.0018170001
-0.0015369297
-0.0030515343
-0.0034220726
1.5629517E-5
0.004090878
0.0031381948
0.0014365367
0.0014618584
0.0021022935
0.0028724156
0.0011353364
0.0014859124
0.0032492932
0.0015669441
0.0025373385
0.0032187325
-3.8175922E-4
4.4629633E-6
0.0037862652
0.0050890897
0.0030851888
2.9504136E-4
-7.930364E-4
-0.0033302144
-0.0056095105
-0.0020972223
0.0018990866
4.536468E-4
-0.0029481293
-0.004638668
-0.0048868163
-0.0048665395
-0.0043958533
-0.0016750619
0.0012965592
0.0013766913
0.0016785123
0.0036435826
0.0045389724
0.00469968
0.004720624
0.0033375914
5.723532E-4
-0.0014238822
-0.002455198
-0.0034921884
-0.0020318923
8.285267E-4
0.001507776
6.5422873E-4
-7.546685E-4
-0.0013427053
-0.001966812
-0.0032191589
-0.0035120866
-0.0049348325
-0.0043412815
-0.001372972
-0.002198926
-2.8537883E-4
0.005112402
0.005097859
0.002722612
0.0011760878
0.0018119216
0.004084736
0.0024310022
9.934171E-4
0.0026363533
0.003505813
0.004788694
0.00531421
0.0040303404
0.0029151125
0.0012298747
-0.0019571534
-0.006608757
-0.007132604
-0.0019858694
-8.2382245E-4
-0.0025913338
-0.0013058941
-0.0021789714
-0.005483341
-0.006999729
-0.0072000907
-0.005636596
-0.0035187595
-0.002667858
-0.0022573872
-0.0020670607
-7.4430014E-4
9.2827354E-4
8.079738E-4
0.0013569917
0.0021297403
0.0010607643
0.0024636134
0.0075087743
0.01018686
0.0086383335
0.007887059
0.009388942
0.008350146
0.0041183867
0.0023650222
0.00461726
0.0038190137
-0.0015690582
-0.003762336
-0.00397962
-0.0061097257
-0.006147432
-0.004980165
-0.0045389924
-0.0040072105
-0.004037406
-0.004284042
-0.0059566386
-0.007532331
-0.00880687
-0.009790366
-0.0033835783
0.0031805243
0.0017965963
0.001375234
0.00226646
0.0044724615
0.007903483
0.006609976
0.00760339
0.0080646835
0.0025983467
0.0030756108
0.005435096
0.0026112993
-2.6580645E-4
-0.0034439918
-0.0033148748
-7.796086E-4
-0.0021485838
-0.002571025
-7.5551856E-4
-0.0013273614
-0.004408563
-0.007486723
-0.0068752524
-0.003840629
-0.0020497707
-2.8770478E-4
0.0015478848
0.0013960762
0.0017293266
0.0038918045
0.0033075223
5.6923885E-4
1.4708137E-4
5.8988895E-4
0.0011936241
0.00250254
0.0025495794
0.0033370948
0.006126285
0.0064444416
0.004733287
0.003899971
8.107676E-5
-0.005063854
-0.005092168
-0.0041686124
-0.0052979444
-0.005749276
-0.006088782
-0.0041027353
-5.393095E-4
6.090623E-4
0.0013923454
6.8036513E-4
-6.78034E-4
0.002005098
0.0038680357
0.0026241
0.0015967725
1.6308112E-4
-0.0010508259
-0.0016086416
-1.4935128E-5
0.0030000682
9.473152E-4
-0.0019708534
-6.954673E-4
-6.8909005E-4
-4.760305E-5
0.003792465
0.0050878804
0.002097235
-8.5984607E-4
-0.001892066
-0.0050704707
-0.007960811
-0.0062844567
-0.005304861
-0.003253395
0.001574749
0.0028089802
0.0018038639
2.9100102E-4
-1.5471068E-4
0.0018615987
0.0021667292
0.0023499273
0.0019688914
1.6105689E-4
0.0010490156
6.4973417E-4
-5.529518E-5
0.0027485262
0.0042595277
0.00476813
0.005492431
0.005068841
0.0030315593
5.0932466E-4
2.2358687E-4
-0.0016307837
-0.004122389
-0.0032154962
-0.0040752124
-0.0046825767
-0.0021100359
-0.0012751181
-0.0024916686
-0.0039141644
-0.0028739616
-4.0861295E-4
-0.0010030743
-0.0023476286
-0.0018907894
-5.9458E-4
-2.0372694E-4
-0.0010054512
-0.001252836
-0.0012251782
-7.6012954E-4
-6.2016735E-4
-1.8026629E-4
0.002660229
0.0043060523
0.006313243
0.009833932
0.0086101685
0.005493681
0.0035532452
0.0020957505
0.003549112
0.002462309
-0.0035223425
-0.0064240177
-0.00491022
-0.0021194227
7.879928E-4
0.001898748
0.0019874426
8.5657043E-4
-0.0036453123
-0.00648889
-0.005674266
-0.0061070593
-0.00683124
-0.0072211563
-0.0065107686
-0.0023503762
6.6419016E-4
7.9206686E-4
-7.4437447E-4
-0.0031040553
-0.002794329
-0.0014617346
5.5291574E-4
0.005392502
0.009484962
0.010815624
0.011585278
0.012027718
0.008234747
0.002850155
1.14466995E-4
-0.005864797
-0.010104028
-0.0041811233
0.002800465
0.0036393667
1.563338E-5
-0.0027544321
-0.001503016
-9.266719E-4
-0.0031154067
-0.004727779
-0.0023720008
2.2639753E-4
-5.678833E-4
3.4418245E-4
0.0010292388
7.5854897E-4
0.0028202173
-7.3999556E-4
-0.007185394
-0.0057505644
-0.002153219
-0.0014739167
0.0026993835
0.008710021
0.0078310985
0.005423897
0.0054255533
0.0015671002
-0.0019381376
-0.0032747765
-0.004399841
-0.0024767243
-0.0016313029
-0.0015798106
-0.0010381709
-0.0025600346
-0.0028383452
-0.004199977
-0.006363865
-0.0051600547
-0.0036192895
-6.3330604E-4
0.0030668657
0.004155247
0.0032923857
0.0012301375
0.0012846943
6.1938504E-4
-0.0026015523
-0.002241869
-4.959723E-4
0.0011332767
0.0038125715
0.004213898
0.0055460036
0.007668578
0.004858661
0.001050357
0.0012888248
0.0024525034
1.8976555E-4
-0.002055157
0.0014603533
0.006430282
0.0075333687
0.0044274214
-0.0032467938
-0.008859176
-0.008750882
-0.009453922
-0.008412817
-0.003647127
-0.0020201497
-1.7010697E-4
0.004624665
0.0069335713
0.005228691
-6.1623193E-4
-0.0057474175
-0.0056931954
-0.005363105
-0.0051556947
-0.0017197508
0.0020443273
0.0019268702
-0.0018414761
-0.0043726326
-0.00528667
-0.007232319
-0.0058632446
6.505677E-6
0.0048503354
0.007966231
0.010903117
0.012014131
0.010570856
0.006683574
8.615879E-4
-0.0035474782
-0.005312902
-0.0033937849
0.0028305086
0.004930449
0.003408225
0.00715829
0.009605876
0.0067046857
0.0016471187
-0.005724706
-0.007722549
-0.003584767
-0.0032295866
-0.0074152765
-0.010883409
-0.011195111
-0.011109438
-0.009234568
-0.004325301
-0.004624867
-0.0068262187
-0.0023656578
0.00442781
0.007858393
0.0055982135
0.003627902
0.0076013445
0.009568368
0.0062795216
0.0036153614
0.0034985375
0.0060105803
0.009353193
0.008124271
0.004152029
0.0026309502
5.0683296E-4
-3.1268E-4
4.5353654E-4
-0.0021096168
-8.248587E-4
-0.002748891
-0.012632701
-0.007936138
0.0022964415
-0.0014281075
-0.0052571823
-0.0051758406
-0.0053754696
-0.0056183417
-0.006731214
-0.0032756245
5.86966E-4
0.0022519084
0.0052577355
0.0016166068
-0.005385611
-0.006652985
-0.006657315
-0.0063914205
-0.0032582642
0.0018060347
0.005457702
0.0066150795
0.009392498
0.009904713
0.0034586852
-0.0024409764
-0.0035391247
-0.0024060253
-4.312066E-4
0.001046924
0.0039505237
0.009407408
0.011505188
0.010822479
0.0136800865
0.014492998
0.008163189
0.0012331246
-0.0015121953
1.6693729E-4
7.488875E-4
-0.0061747977
-0.013983416
-0.014701539
-0.011544856
-0.008423726
-0.0063717887
-0.008138827
-0.011685857
-0.011721225
-0.011314361
-0.010073489
-0.004179918
-9.4973535E-4
-0.0012025011
-0.0014839013
-0.004579893
-0.0058482205
-0.0047412603
-0.0018339185
0.0072080707
0.013840458
0.015554406
0.019120598
0.021170085
0.017713992
0.005878883
-0.009090407
-0.013539373
-0.008369601
-0.003083366
-0.0013155248
-7.403375E-4
0.0011338999
0.0018193758
0.0032445914
0.008111305
0.009628202
0.0021628218
-0.009637145
-0.014900279
-0.010910045
-0.0068169357
-0.0059904526
-0.0046513556
-0.007152787
-0.013898403
-0.015358589
-0.016063828
-0.020320337
-0.019915653
-0.017504904
-0.014297748
-0.010387878
-0.01017835
-0.002907328
0.009357743
0.014660804
0.01898765
0.022624433
0.026669784
0.029854696
0.022858137
0.017263489
0.018685907
0.02094942
0.025067395
0.026018785
0.025556795
0.025413698
0.022416888
0.025705434
0.036107354
0.03582853
0.019833764
0.012512787
0.020786839
0.024757415
0.022756891
0.009230342
-0.019788686
-0.046999127
-0.073575415
-0.0996343
-0.113421634
-0.11890518
-0.11947683
-0.10874801
-0.08672048
-0.06757087
-0.05132606
-0.029234823
-0.013808846
-0.008594992
-0.007718259
-0.0068082986
0.0010470424
0.0019240649
-0.017562184
-0.061381407
-0.10913314
-0.11145945
-0.077926315
-0.033787813
0.031125452
0.07623035
0.090193324
0.13000141
0.18571423
0.21533678
0.20045087
0.1337562
0.055075157
-0.025555275
-0.08230103
-0.002560084
0.14141473
0.19270708
0.21801688
0.23524086
0.18371189
0.10296918
-0.03668992
-0.17635944
-0.15254065
-0.040807188
0.02582428
0.043343816
6.9411227E-4
-0.10923629
-0.22057351
-0.23529556
-0.18904771
-0.16916691
-0.14128762
-0.15144025
-0.26224753
-0.3251935
-0.26748794
-0.21928066
-0.18257098
-0.029067118
0.18344833
0.31611657
0.36840904
0.34346268
0.23540013
0.08720668
-0.022226157
-0.0055965907
0.070820436
0.15406646
0.26963216
0.27930543
0.1759826
0.092127256
-0.006118916
-0.07285024
-0.07065588
-0.095343865
-0.08958835
-0.02846573
-0.036434103
-0.092568025
-0.095844455
-0.10117247
-0.15809138
-0.16209741
-0.1228636
-0.13528799
-0.16079351
-0.18502542
-0.13443904
0.07470945
0.2489658
0.2962155
0.32323056
0.27549627
0.13817897
0.025151668
0.001847682
0.06448794
0.097338684
0.053231977
0.007725424
-0.050843466
-0.104130186
-0.08487981
-0.034324307
0.002922596
-0.006735006
-0.085106
-0.12052322
-0.06788762
-0.086888246
-0.17786299
-0.15926875
-0.097103804
-0.10060866
-0.05553877
0.013900436
0.014602407
0.029184883
0.078944296
0.09586139
0.05510812
0.013277709
0.03364839
0.0432035
0.028001333
0.06699243
0.09761876
0.055981055
-0.0016884999
-0.013172317
0.0048189326
-0.003558416
-0.013306933
2.0936182E-4
0.009960305
0.018128108
0.016301794
0.001089303
-0.0068027866
-8.568358E-4
0.013519797
0.012211881
0.0026717808
0.010751706
0.020805748
0.025514444
0.029855859
0.029758066
0.025243819
0.01673776
0.0065196934
-0.0071382616
-0.018995522
-0.023864198
-0.029957384
-0.034969702
-0.038305145
-0.043565262
-0.045756996
-0.045613926
-0.043982092
-0.039425757
-0.033801973
-0.028527778
-0.023656588
-0.017323809
-0.011059417
-0.0051160483
0.0010613514
0.004185053
0.0056438963
0.0062052244
0.0060784034
0.0054430864
0.00156889
-0.0011686751
-0.0018342821
-0.0029445735
-0.0024063548
-0.0044649667
-0.006894934
-0.0039751832
-0.0010824016
-2.6113965E-4
8.745494E-4
0.002344155
0.0033281667
0.004680782
0.008003247
0.008469688
0.0057294923
0.0054196063
0.005078551
0.0037000552
0.0040864167
0.004592423
0.003765912
0.0040061
0.00675274
0.0077482173
0.0070361085
0.0066201794
0.004024872
0.002471844
0.0017318479
0.0017645372
0.007092384
0.0097872
0.008071012
0.0075239595
0.0051870015
0.0041957884
0.0056900918
0.005144448
0.0034714697
0.0024751665
0.0033693514
0.0029331283
0.0020000022
0.005879711
0.010556736
0.013223797
0.012873145
0.009476036
0.0073761055
0.005020181
0.0028537626
0.0013239678
-0.0015557266
-0.0012833352
-5.6587195E-4
-0.0032681946
-0.006575528
-0.00988181
-0.008250492
-0.0024697273
-3.4708023E-4
-2.3418773E-4
2.7376172E-4
2.2318235E-4
3.551763E-4
7.724302E-4
3.2619282E-4
-0.0012898399
-0.0016183112
-2.2280155E-5
0.0023651936
0.004490339
0.0043977248
0.0043408303
0.0057334537
0.0057271016
0.004326452
0.0033778066
0.002764247
9.3462074E-4
0.001261385
0.005221858
0.0052074324
0.002567225
0.00237752
6.2102353E-4
-0.0020960562
-0.003520512
-0.003168181
4.8818075E-4
0.0030232803
0.0029474625
0.004596716
0.0078107906
0.0091056265
0.0074571143
0.0062221056
0.005426686
0.0031698965
0.003316955
0.004221204
0.0021740233
0.0016067621
0.0019477796
2.1753892E-4
-0.0010575396
-0.0033381642
-0.006279214
-0.00530488
-0.0056611476
-0.011153341
-0.012766467
-0.008832936
-0.006271443
-0.0044620587
-0.002231754
-0.0019246273
-0.0029634663
-0.0029044172
-3.358727E-4
0.0019355065
0.0026421302
0.0059200195
0.010543885
0.012163282
0.012419816
0.012910087
0.0109636765
0.007378367
0.00768507
0.0095313955
0.0075435764
0.0061701653
0.0067982343
0.005193562
0.001801829
-0.0030961041
-0.0079515055
-0.008785429
-0.0056919726
-0.0033286558
-0.0066000214
-0.011336394
-0.010978299
-0.008221819
-0.0060411133
-0.0057508983
-0.007702511
-0.007910934
-0.0055568093
-0.0024176538
0.0011776588
0.003957073
0.004731945
0.0040810164
0.0040361327
0.004663968
0.005441257
0.005233792
0.0019810062
5.349462E-4
0.0030982469
0.0037866947
0.0031000446
0.0036652796
0.00409459
0.004141137
0.003606551
0.0021504534
3.9048996E-4
-3.090013E-4
5.131601E-4
0.0020174037
0.0014920967
-0.0027779376
-0.0038803967
-3.4792558E-4
-0.001363067
-0.0036143113
-0.0015191906
-0.0013436951
-0.0034231774
-0.0048260516
-0.0054457774
-0.0042326543
-0.0053997394
-0.007641428
-0.0051465803
-0.0036657222
-0.0042459224
-0.002315821
-3.7133502E-4
0.0023782495
0.005302022
0.00599931
0.006124705
0.0044393996
0.0015552187
-3.7460978E-4
1.5880362E-4
9.918095E-4
8.848076E-5
0.0033632312
0.004604996
0.002636919
0.00562645
0.002475797
-0.0012346325
-1.06761785E-4
-0.0037883616
-0.0015819954
-0.004467488
-0.011682857
-0.0022684962
-0.0031669694
-0.009079959
0.002078058
0.0027773408
-0.0022934093
-4.629279E-4
-0.001817034
4.646171E-4
0.002802857
0.0012347974
0.001696619
0.0024404845
0.0025319115
6.5498153E-4
1.3663924E-4
0.001310872
9.531731E-4
0.003226265
0.005007731
0.0038128258
0.0029649616
0.0026888435
0.0017331307
-0.0029644477
-0.005836228
-0.0038728784
-0.0030921607
-0.0015780841
-3.578471E-4
-5.3724117E-4
0.001986467
0.0025266574
3.929474E-5
-8.434425E-4
-0.0016119779
-0.0014925672
0.0011394363
0.0021716696
0.0012870756
0.00132833
0.0010829122
7.291423E-4
-4.5948813E-4
-0.0032219938
-0.0038411666
-0.0033061388
-0.002623307
-7.969307E-4
3.9900615E-4
0.0015036092
0.0010272312
7.2937674E-4
0.003057291
0.0021646654
-4.9391633E-4
-0.002139985
-0.004511708
-0.0036702259
9.364772E-6
0.0022860395
0.0018879757
0.0012061455
0.002257081
0.001204702
3.541748E-4
0.0023743638
0.0022786395
0.0012315012
6.852548E-4
-1.7288367E-5
8.5673813E-4
0.0010001042
4.235292E-4
0.0010275935
7.45219E-4
-1.540132E-4
-3.08733E-5
8.401096E-4
0.0021691027
0.0031772319
0.002837408
0.0021822138
0.0015057325
-0.0016087204
-0.0050912295
-0.0058691506
-0.0050946358
-0.0035797905
-0.0024322963
-0.001737544
-5.325749E-4
1.0175092E-4
-0.0010896751
-0.00293414
-0.0027158677
-0.0021791223
-0.0015560169
0.0015520884
0.0019190335
-2.9587427E-5
0.0021432133
0.0044139735
0.0030548917
0.0019209225
0.0023773795
0.0020498366
0.0019994976
0.0030979055
0.002919404
0.0029669714
0.002708881
5.524433E-4
-0.0016334372
-0.004335168
-0.0049647866
-0.0041060415
-0.003539409
3.9625762E-4
0.0024113583
0.0014344915
0.0026403745
0.002335756
1.8443116E-4
-0.0016253431
-0.002130861
-0.0020403743
-0.0020764165
5.59361E-4
0.0016432602
9.859549E-4
0.0013117801
0.0012565437
0.0032634514
0.0012985428
-1.6988619E-4
0.0029166548
-0.0049720495
-0.010368669
-0.003759102
-0.0043504075
-0.00839332
-0.0072007664
-1.7900785E-4
0.0068976465
0.0037603448
0.0010827086
0.0026238651
0.0017703464
0.0021293107
0.001874183
0.0018463546
0.0018524714
-6.340084E-4
-3.6030444E-5
6.125605E-4
1.3025623E-4
0.0031824824
0.004489334
0.003749763
0.0055764257
0.0057988786
0.0022912605
-3.04585E-4
-0.0014648081
-0.0028488964
-0.0045027975
-0.006202401
-0.0046476815
-0.0023098914
-0.0031400507
-0.002589474
-0.0019717992
-0.0036697697
-0.0035137888
-0.0015824146
-1.6509436E-4
-4.0300706E-4
-5.016939E-4
0.0019377912
0.00450212
0.0041487725
0.0020215977
0.0025919988
0.0026023143
-0.0012462419
-0.0016186337
6.047595E-4
0.0016496385
0.0024564615
3.0006605E-4
-4.5352988E-4
0.0015569205
0.0010151552
6.111605E-4
2.8098878E-4
4.2267208E-4
0.002106863
2.4598558E-4
0.0016951112
0.0064935284
-0.0015007007
-0.011441296
-0.0083519155
-0.007956999
-0.010695916
-0.0035745755
0.0035672577
0.0042913314
0.0037701393
0.0028376337
0.0026615788
0.0025673332
0.00161077
8.4388466E-4
1.464462E-4
6.5300665E-5
-4.915357E-4
-1.8627805E-4
0.002689993
0.0035583666
0.0025494942
0.003208245
0.003508622
0.0017199562
-5.7837897E-4
-0.001389033
-0.0013227129
-8.393309E-4
0.0011199571
0.0016681288
-1.9867416E-4
-5.095401E-4
-5.034403E-4
-0.0035052213
-0.006595293
-0.0065161325
-0.004442322
-0.001998254
4.2960318E-4
0.0022535154
0.0029715179
0.0029040542
0.0022052962
8.580323E-4
-2.206754E-4
-0.0011711883
-0.002060736
-0.0013385244
6.573771E-4
0.0022479333
0.0018859942
8.131829E-4
0.0015622687
9.453557E-4
-0.0015942723
-0.0025285555
-0.002246506
-3.2783166E-4
0.0015643652
0.0016465407
0.0019644373
5.3692644E-4
-0.0012300286
-5.661173E-4
-0.0011366389
-0.0020116635
-0.0016325333
-0.0014243291
-6.2722356E-6
0.001191233
0.0013846285
0.0024416242
0.0020682733
4.078653E-5
-3.8944217E-4
-4.2223974E-4
-9.414703E-4
-2.9859936E-4
3.4880426E-4
0.0012861737
0.002571226
0.0013634795
-2.4046065E-4
-4.750623E-4
-0.001701885
-0.0032148233
-0.003373934
-0.0018646886
4.939558E-4
0.0018085408
0.0014633985
4.925634E-4
3.0348357E-4
-1.6902464E-4
-6.54778E-4
0.0012853545
0.0017635804
-8.148431E-4
-8.40794E-5
0.003481644
0.0038053805
0.002059464
2.3849097E-4
-0.0041683763
-0.006729289
-0.0035156703
-7.6945085E-4
4.7806802E-4
0.0013547466
-5.8367016E-4
-0.0019845641
-0.0013656082
-2.8609036E-4
4.485227E-4
-0.001351313
-0.0029515703
-0.0015982427
4.5366233E-4
5.80433E-4
-7.304513E-4
3.4338416E-4
0.0019189442
0.0010911592
-6.7463476E-4
-0.0035992432
-0.003392963
-2.741023E-4
-1.0416798E-4
0.0011254634
0.0028947622
0.0024282138
0.0036916223
0.004063203
0.0032597624
0.0022821492
-5.2828004E-4
4.0193443E-4
0.0034688925
0.0030533995
0.0015670621
0.0013341462
0.0025055194
0.0011104724
-1.6349493E-4
-9.626532E-4
-0.010717792
-0.011671434
0.0036963022
0.007041331
0.0034849693
0.0052299183
-9.272083E-4
-0.008180154
-0.00976454
-0.009802289
-0.0083801905
-0.010663043
-0.009526445
-2.8335047E-4
0.005344799
0.0071467217
0.007688505
0.006343793
0.005531152
0.0031527178
0.0014210822
0.0023571774
0.0024340264
0.003120878
0.004438684
0.0038528906
0.002587979
0.0011897977
-0.001020948
-0.002924929
-0.0027714588
-0.0013697142
-9.4970874E-4
-0.0011025405
-1.6181647E-4
0.0013708728
0.0018059798
6.9542625E-4
-0.0012111564
-0.0018342065
-0.0012863568
-0.00347512
-0.0065388046
-0.0051760143
-0.0015060772
4.9429684E-4
8.774953E-4
9.813027E-4
8.486336E-4
-3.6498945E-4
-8.6273E-4
0.0015373549
0.0043682223
0.004475734
0.0040387698
0.0048836707
0.0044036075
0.0029427127
9.085604E-4
-0.0030547432
-0.006291252
-0.0076889796
-0.0058821808
-4.7876104E-4
0.0021496995
0.0021336726
0.0030696196
0.0023350671
0.0014534615
0.0016954379
-6.3911226E-4
-0.003445766
-0.0027074507
-0.0014374935
-0.0017012618
-0.0011007085
-3.7472954E-4
-3.2590513E-4
-5.641071E-4
-0.002184262
-0.0032812867
-0.0023612445
-3.5142543E-4
0.0013211862
0.0013305162
0.0021082324
0.0029216756
8.5411343E-4
-5.667039E-4
-2.8231592E-4
-7.6234416E-4
-0.0011610932
4.4468412E-5
0.0025344733
0.0040235985
0.0044794264
0.005621033
0.004649955
3.751457E-4
-0.0013209393
8.8491615E-5
-8.064436E-4
-0.0011832812
8.525272E-4
0.0011924299
0.0015925532
0.0023054045
6.83864E-4
-0.0013686235
-0.00226252
-0.0026898568
-0.004384255
-0.0072814333
-0.011057191
-0.010372302
-4.5713788E-4
0.0015574591
-0.0076788887
-0.005211945
0.0034979433
0.004665601
0.0052658105
0.004947973
0.0033518549
0.0040909443
0.003200113
9.812092E-4
6.4223027E-4
8.492331E-4
6.66073E-4
8.1591227E-4
9.087604E-4
0.0017713923
0.0039926716
0.0044017034
0.0040355907
0.0041134446
6.6900393E-4
-0.0049190465
-0.008581965
-0.007262159
-0.0025137917
-0.0018403836
-0.0030064979
-0.0020284236
-0.0021021904
-0.0011288504
6.4310146E-4
-3.1804625E-4
-0.0014628683
-7.2128244E-4
0.0014283117
0.0025920067
0.0021710363
0.0029644554
0.0038482596
0.003747512
0.0024427094
-3.5315176E-4
-0.0013885825
-0.0018410417
-0.0026311597
-0.0015610489
-0.001620313
-0.0010298633
0.001914371
0.0019841006
0.0010533592
4.2696076E-4
-0.0020076362
-0.002365879
-9.277283E-4
-8.999714E-4
-7.5715827E-4
0.0011067218
0.0043661217
0.0054521617
0.0034778824
0.0016897023
-0.0016569889
-0.0053504407
-0.0041493373
-0.0015330444
-3.6271958E-4
8.6933863E-4
-7.4979864E-5
-6.809823E-4
4.7810012E-4
-0.0016219891
-0.0035605193
-0.003220794
-0.003831201
-0.0018282046
0.0014056842
0.001863996
0.0023395836
0.0031723643
0.0037898163
0.0027393855
-0.0010314796
-0.0020991145
-2.4251759E-4
1.304375E-4
8.0325746E-4
0.0020501078
0.0017293105
0.0014448409
0.0013413451
4.4359676E-5
-5.6141533E-4
6.572818E-4
0.0014490328
0.001258123
0.0019050648
0.0031144165
0.0035886674
0.0019823047
-0.0024744596
-0.006452917
-0.0077132937
-0.0070356135
-0.004628012
-0.0037004629
-0.0037521154
-2.9556587E-4
0.004031905
0.0058775423
0.004567918
0.0012300981
-0.0018533954
-0.0048945523
-0.004519471
-0.0013801774
-4.3389012E-4
-1.15923205E-4
-9.3806017E-4
-3.0676063E-4
0.0031049354
0.002674567
0.0018331073
0.0018369693
1.0343156E-4
0.0018731479
0.0045797294
0.005548966
0.0062548136
0.005851325
0.0046820426
-4.603648E-4
-0.0048702336
-0.0030802325
-0.0022414662
-0.0019034465
2.8614094E-4
8.596663E-4
7.9894555E-4
2.0398686E-4
-2.8936975E-4
1.916348E-4
-0.0017111498
-0.0046508377
-0.0033509547
-3.5496257E-4
5.61992E-4
0.0018667142
0.0023070232
0.0013114975
-0.002904202
-0.011399342
-0.008971796
-0.0021877454
-0.009972839
-0.012450373
-0.002817742
0.002261408
0.005538577
0.0063541853
0.005194162
0.0075329365
0.0073917885
0.0043396186
4.838103E-4
-0.0011958132
0.00269064
0.005096262
0.0038809048
3.7787683E-4
-0.0029469517
1.9197227E-4
0.0024553493
3.3408726E-4
0.0023448924
0.004505154
0.003955836
0.0068181264
0.0093645565
0.0053075366
-8.985524E-4
-0.004496634
-0.009270012
-0.013703537
-0.011076814
-0.005957173
-0.0028598811
-4.972331E-4
-0.001455504
-0.0029726042
-0.0014755545
-3.8429044E-4
1.3965956E-4
8.103173E-5
-0.0016802814
-0.0028919377
-0.002282287
-5.980912E-4
3.5461632E-4
7.8426354E-4
0.0014153797
0.0017229393
0.0029697658
0.0036743411
0.0032104107
0.0022818642
1.8192506E-4
0.0019353504