-0.0067981505
-0.010306111
-0.010485535
-0.008425111
-0.004336522
0.0016706929
0.008223514
0.011735087
0.008384967
6.439975E-4
-0.00590701
-0.0076990975
-0.007742301
-0.009634317
-0.0077793216
-0.002498522
0.0045334315
0.013123766
0.011730897
0.0026268736
-0.004150067
-0.009714519
-0.010232598
-0.007134895
-0.0041711256
0.0019694606
0.0081900945
0.011482991
0.009902152
0.0025339392
-0.004289261
-0.0053245854
-0.0032417953
-0.0039876103
-0.0032379322
0.003636724
0.011239824
0.01614913
0.013600078
0.004909635
-0.0019296732
-0.0077574775
-0.011282156
-0.010226353
-0.0069038905
-0.0020737555
0.003535335
0.009600832
0.009704408
0.0017806907
-0.004559425
-0.008161676
-0.0106103225
-0.010102748
-0.008528268
-0.0040613585
0.004470121
0.01090178
0.009716465
0.0025929632
-0.0050317664
-0.00895734
-0.008203736
-0.006555609
-0.004340119
0.0010460647
0.0076030297
0.012849252
0.011521578
0.0034829387
-9.1859774E-4
-0.001460087
-0.004915589
-0.0076958956
-0.005143731
7.6427014E-4
0.007101287
0.011070142
0.00920295
0.0018378546
-0.0057057072
-0.00889755
-0.008144563
-0.0064290664
-0.0041290713
3.8096786E-4
0.00614036
0.010112189
0.009850917
0.004745262
-0.0010534143
-0.0031410416
-0.0041757063
-0.0060139033
-0.005320909
-4.860068E-4
0.0065125725
0.010599585
0.008720387
0.0016143352
-0.0071311323
-0.010456606
-0.0096981805
-0.009412473
-0.0065539535
-0.0016257857
0.003995326
0.009620719
0.010412351
0.0055653485
-6.5991544E-4
-0.0040232386
-0.005802057
-0.0074579623
-0.006212059
-0.0016902374
0.006623652
0.013037315
0.010180939
0.0022564617
-0.0048430357
-0.0073498683
-0.0075244503
-0.0065497775
-0.0025968063
-0.0024420228
-5.2721527E-5
0.0070259892
0.0059338016
0.004081513
0.0042398274
5.117084E-4
-0.0013264751
-0.004365168
-0.0065756505
-0.0023468758
0.003836279
0.009771981
0.009999749
0.004436128
-0.0018866059
-0.007890348
-0.00882567
-0.006188143
-0.0032924274
0.0016606763
0.006850571
0.009971059
0.009191441
0.004899701
-0.0012913711
-0.006241283
-0.006490541
-0.0073588267
-0.009580982
-0.007354118
-8.840405E-4
0.0073471665
0.010035575
0.0048171994
-0.0017373748
-0.0076761968
-0.0097752735
-0.0075210007
-0.0052735615
-0.0011907298
0.004598683
0.010424831
0.013648949
0.007981931
2.1987673E-4
-0.0013994056
-0.0017287409
-0.0015164491
-9.748505E-4
0.0011025831
0.008442007
0.009508684
0.003426023
0.0018387637
-0.0026774872
-0.009565964
-0.011221411
-0.012894673
-0.01057915
-0.003674866
0.001888643
0.008099843
0.009172534
0.0031212047
-0.001907372
-0.00389212
-0.0043197125
-0.005913719
-0.0076202573
-0.0043143304
0.0035376174
0.010762465
0.011353069
0.00610325
5.928979E-4
-0.0044686375
-0.008193235
-0.008111696
-0.004111356
0.001619173
0.0065498017
0.010924638
0.012914805
0.008682782
0.001362451
-0.0026862363
-0.0039901966
-0.005529132
-0.005316049
-0.0019149559
0.003965095
0.009414975
0.009037006
0.003957327
-0.0036295797
-0.010895519
-0.010692458
-0.007962779
-0.0077751796
-0.00472072
2.359177E-4
0.0053420397
0.0072808033
0.001722817
-0.004579133
-0.0072422433
-0.0073635504
-0.0064968485
-0.005722367
-5.260857E-4
0.007361903
0.013185734
0.015659902
0.009844338
-2.1943785E-4
-0.00586697
-0.006973181
-0.0051755314
-0.002849581
3.0613618E-4
0.0046968684
0.008195415
0.01060964
0.0077111875
9.93571E-5
-0.0042051626
-0.0048569455
-0.0059093665
-0.00847294
-0.008008463
-0.0017341524
0.004830768
0.0078079244
0.0047157207
-0.0028889163
-0.00786478
-0.00960642
-0.008352713
-0.0040952177
-7.0416956E-4
0.004110274
0.011431637
0.013499672
0.0073806755
6.2695506E-4
-0.0011355232
-0.0011773742
-0.0018218872
-0.0016075991
-2.5232675E-4
0.0035819914
0.00944032
0.01009466
0.0016484999
-0.006849694
-0.009544653
-0.012119799
-0.0130842915
-0.008648709
-0.0033972042
0.0021715297
0.008005289
0.009831975
0.0068093855
0.0012370982
-0.0030347996
-0.004595543
-0.005208952
-0.0059565064
-0.004188372
0.00405741
0.012428546
0.013630316
0.009546465
8.847695E-4
-0.007627461
-0.010581943
-0.009811521
-0.006248615
-0.0026879397
0.0012383122
0.007769652
0.010686341
0.0064987503
-0.0021520716
-0.007862038
-0.0071062595
-0.0060614357
-0.0038560468
-4.071756E-4
0.002942639
0.010117431
0.012570591
0.0066407323
-1.6354282E-4
-0.005455555
-0.005649835
-0.004701843
-0.0053195287
-0.0010761619
0.0057946816
0.012098805
0.014007622
0.008966605
0.0021009643
-0.0064099203
-0.0126320105
-0.012468627
-0.011388737
-0.00855592
-0.0013986676
0.006581384
0.00950629
0.0048380313
-0.0019414359
-0.0065228306
-0.008621114
-0.0095099835
-0.008340834
-0.0036536874
7.362536E-4
0.005815751
0.010436654
0.009216015
0.0053263092
-0.0011435531
-0.0058708903
-0.0039190077
-0.0042855036
-0.0033743116
0.0044058766
0.011788119
0.016273262
0.011600937
1.9434238E-4
-0.005535867
-0.008646741
-0.009725944
-0.005741934
-0.0021799258
0.0025498718
0.008899901
0.011056736
0.009602384
0.0058563435
-2.7525835E-4
-0.0060484465
-0.009549753
-0.010631275
-0.008381677
-0.0012502361
0.007416448
0.010448294
0.006296994
-0.0027124563
-0.011461332
-0.013638139
-0.011818528
-0.009431499
-0.005568922
-8.8949496E-4
0.006411485
0.012411026
0.00961587
0.0015578485
-0.0055565503
-0.0074694427
-0.005239117
-0.0038364797
-4.7192653E-4
0.0059577283
0.0131157115
0.017125016
0.011214378
0.0024971517
-9.488709E-4
-0.0039726105
-0.0060712975
-0.0049181073
-0.002829417
3.5240056E-4
0.005135504
0.008367776
0.0059585436
-8.6209344E-5
-0.0053393627
-0.00713763
-0.0060054474
-0.006762103
-0.007027134
-0.0015355453
0.0074957497
0.013594274
0.009563925
1.1060932E-4
-0.006291879
-0.010150932
-0.0095211025
-0.0064800796
-0.0044571045
3.9848196E-4
0.0060183904
0.00961664
0.00848435
-1.606202E-4
-0.0061682486
-0.0055975337
-0.006662051
-0.0078831175
-0.0057716817
-6.113408E-4
0.00914114
0.015639417
0.0116497995
0.004168497
-0.0032383597
-0.008553826
-0.007142166
-0.0045179958
-0.0019315488
0.0038231881
0.009305997
0.013774918
0.012756902
0.005405665
-6.3478603E-4
-0.0070270756
-0.011373499
-0.008442221
-0.004484016
-0.001154427
0.0030890605
0.005328437
0.002500696
-0.0059583774
-0.012471748
-0.011617179
-0.007957518
-0.005521003
-0.0038856948
-2.6146029E-4
0.006071592
0.011898809
0.012150874
0.00486702
-6.1097625E-4
0.001905842
0.0032559696
4.991306E-4
2.6226015E-4
0.003805076
0.010473236
0.015315613
0.011116353
0.0017177976
-0.0069246404
-0.012454761
-0.011922214
-0.00886106
-0.006277892
-0.0011825262
0.0044376706
0.00734396
0.00594808
-0.0019105575
-0.009863494
-0.011045354
-0.009671466
-0.008178434
-0.005234221
-0.0015145614
0.005829366
0.012495601
0.0082925055
-1.1608127E-4
-0.003839939
-0.006801627
-0.007906367
-0.0051117116
-0.0021230704
0.0025077832
0.008763054
0.012103571
0.01097509
0.0056671114
2.2694122E-4
-0.0010334724
-0.0011248641
-0.0029233345
-0.0029117551
0.0016869662
0.0077085975
0.010850775
0.00867762
0.0011191891
-0.005735788
-0.0076663992
-0.007985654
-0.0069631813
-0.0038736595
4.0792348E-4
0.0073133344
0.012165993
0.009571508
0.0033189151
-0.002541404
-0.007593338
-0.011898202
-0.013600844
-0.0107183475
-0.0046165534
0.0023828316
0.0067548463
0.0058366517
7.094719E-4
-0.0058497065
-0.00938986
-0.008494339
-0.006404396
-0.004032125
3.037041E-4
0.0053879865
0.009697021
0.012742927
0.009171837
0.0014420181
-4.951879E-4
2.5392785E-5
-1.3692061E-4
9.834392E-4
0.0020521556
0.006044895
0.009321764
0.0070480607
0.0021019718
-0.0043715993
-0.006994896
-0.0070198523
-0.009817604
-0.0106482785
-0.0078014773
1.8654852E-4
0.006940508
0.0027140807
-0.0023266969
-0.002769498
-0.0025097788
-7.8145956E-4
0.0011971231
0.0046125627
0.0059594424
0.004984344
0.008973502
0.012039761
0.008377499
1.6370641E-4
-0.007613672
-0.007686806
-0.0048576635
-0.0051324647
-0.0041748397
4.2135883E-4
0.006324101
0.008117935
0.0028963224
-0.004306652
-0.0069879405
-0.0070361784
-0.008803999
-0.008612126
-0.0050730575
3.6676574E-4
0.0071084467
0.0085543785
0.0037888614
-0.0022082296
-0.0074364627
-0.008985101
-0.0075080316
-0.0046938295
4.932172E-4
0.007391362
0.013132422
0.014036745
0.010574094
0.0038399966
-0.0034069314
-0.0054714475
-0.005313291
-0.004349133
3.0722521E-4
0.0059265327
0.011805922
0.012706873
0.005023538
-0.0018050853
-0.0058066105
-0.009897074
-0.010139651
-0.0063643144
-7.215852E-4
0.005704815
0.010423589
0.011666346
0.0072465115
-0.0028908222
-0.011240349
-0.012888146
-0.012684669
-0.011359532
-0.0062134815
-1.3357344E-4
0.0052086213
0.0069777174
0.0023336662
-0.0035997478
-0.0048331753
-0.0025548749
-0.002889325
-0.002839606
0.0042934385
0.010586484
0.010231862
0.0075374357
0.0041605276
0.0018059445
6.868209E-4
-0.0014479234
-0.005556861
-0.008258714
-0.0029077418
0.0057650716
0.009432615
0.009870679
0.006384485
-0.0014049351
-0.0068390947
-0.008583049
-0.009995513
-0.008838565
-0.002858296
0.004060956
0.009806443
0.012441336
0.007179863
-0.0023499257
-0.007870716
-0.009551914
-0.010758856
-0.00787835
0.0010087678
0.009159465
0.013451878
0.012029001
0.0029319497
-0.006267844
-0.0114977965
-0.013562148
-0.010680725
-0.007476454
-0.0053379624
0.0020319226
0.012137485
0.0162462
0.011825003
0.0042657834
-1.9002182E-4
-0.0015960466
-0.002303374
-0.0029257413
-0.003630673
-5.7041744E-4
0.008189736
0.01437252
0.012075244
0.0045319865
-0.0034553264
-0.009294819
-0.013548568
-0.014591642
-0.010104885
-0.0021230937
0.0070960564
0.012787539
0.010174063
0.0018713935
-0.004521574
-0.0053916946
-0.0067016575
-0.009818936
-0.009519364
-0.0041467147
0.0063823727
0.012309411
0.0074283862
7.7435176E-4
-0.0057743266
-0.010192839
-0.006987842
-0.0026363067
-0.0015490573
5.7663315E-4
0.006562283
0.013091181
0.013790334
0.0080968365
0.0043089665
0.0067668296
0.004599136
-0.0036630316
-0.004541436
0.0021584241
0.011291736
0.016706219
0.008982733
-0.006650041
-0.018405352
-0.022879437
-0.024591856
-0.025384117
-0.02009243
-0.0077391947
0.007344758
0.01348495
0.007182225
0.0010207448
-0.0040502404
-0.009106098
-0.010091132
-0.007844736
2.3721873E-4
0.009769707
0.016511103
0.01976274
0.015203361
0.008674411
0.0017063208
-0.0025166143
0.003555178
0.009489277
0.013238637
0.016463198
0.014333182
0.011542181
9.771014E-4
-0.015871575
-0.021299982
-0.018992512
-0.015518409
-0.011909829
-0.010996473
-0.0060245846
0.0037072313
0.009754039
0.010469819
0.0066397027
-0.0013979509
-0.007433287
-0.0073882076
-0.004914432
5.7582474E-5
0.0060109217
0.0061291764
0.0027358015
-8.0356945E-4
-0.006673356
-0.009780047
-0.0060935486
-0.0035101902
-0.0051500304
-0.004032986
0.0021458252
0.008991422
0.009829479
0.0051524495
-2.157172E-4
-0.009093644
-0.014041433
-0.009027237
-0.0073085492
-0.006486633
0.0034909549
0.016916912
0.025267998
0.022110509
0.015341784
0.012658726
0.009259127
0.008492026
0.006685857
-6.699953E-4
-0.001440338
0.0055930186
0.00823167
5.017747E-5
-0.01076903
-0.015938284
-0.021623442
-0.026625456
-0.024231678
-0.01568168
-0.003696419
0.0072952597
0.015628897
0.015703345
0.0039183507
-0.005752879
-0.005858636
-0.003980358
-0.0059120376
-0.011589556
-0.013927521
-0.0055915783
0.0077608717
0.009990819
6.6173007E-4
-0.006050888
-0.0052672103
0.002481074
0.008533157
0.0076724277
0.010433747
0.014705627
0.0147426
0.011140381
0.0027329691
-0.0017691178
-0.0058974335
-0.016858319
-0.020473847
-0.008614176
0.013921092
0.029132603
0.024270605
0.012070693
-0.0033688955
-0.015183232
-0.011343398
-0.009558459
-0.014315315
-0.0058613494
0.013226029
0.023700178
0.014370942
-0.004833461
-0.0156958
-0.01797823
-0.019708881
-0.018599825
-0.012109218
-0.0050642686
0.0039029187
0.013520658
0.014447845
0.011324569
0.0076800874
0.0023896645
0.006772234
0.010487338
-0.0043708542
-0.018075466
-0.016173523
-0.008857145
3.633814E-4
0.0020641352
-0.01104042
-0.022566741
-0.021985652
-0.014286637
-0.0054708547
0.0021547566
0.013681043
0.02650864
0.03219099
0.027274488
0.008510677
-0.013111752
-0.025632985
-0.029631326
-0.021128159
-0.0073036826
9.921805E-4
0.005670904
0.007625841
0.011823121
0.012917664
0.0059325816
0.006679971
0.0083365785
-2.9486188E-4
-0.0016781638
0.0084943725
0.016699735
0.010630126
-0.009660694
-0.02760231
-0.036696877
-0.040327154
-0.039239902
-0.03286938
-0.020846706
-0.009099626
0.004486454
0.0207958
0.023666747
0.012245018
-0.0020430454
-0.014160415
-0.018396879
-0.016312514
-0.010911969
-0.0053380034
-4.7395186E-4
0.014166355
0.028473029
0.024973728
0.015196054
0.010642053
0.012738996
0.018735712
0.019865073
0.02236805
0.03532779
0.0502287
0.056548413
0.05034388
0.033053786
0.011540284
-0.008220043
-0.024120765
-0.036366343
-0.04503057
-0.053056717
-0.05877909
-0.050764203
-0.031115055
-0.012375334
0.0065010684
0.026812064
0.037032466
0.033338465
0.034472432
0.047739908
0.046721958
0.016446227
-0.03179099
-0.07802626
-0.089482106
-0.06593714
-0.053861845
-0.06570882
-0.071232066
-0.05235401
-0.011785321
0.012175369
-0.022082716
-0.078308046
-0.11102923
-0.13384542
-0.13229626
-0.09206012
-0.042691514
0.024357557
0.09803468
0.12247935
0.104003705
0.09169155
0.14893301
0.2676418
0.30512363
0.24753661
0.23211543
0.2738339
0.31568977
0.26221773
0.060102407
-0.11285846
-0.1625988
-0.18340547
-0.18657273
-0.20480321
-0.23226844
-0.19468494
-0.16523357
-0.16766848
-0.15108337
-0.120527595
-0.07653669
-0.11248019
-0.20140372
-0.17776062
-0.11816578
-0.07583318
0.03231732
0.14320663
0.21215548
0.24123573
0.20608227
0.16538563
0.15064354
0.14554623
0.18174659
0.23360953
0.19620964
0.04150061
-0.11668844
-0.16399564
-0.15089132
-0.19768941
-0.28200215
-0.29349437
-0.20369773
-0.07820273
-0.022018924
-0.056588102
-0.09236441
-0.081302136
-0.035048194
0.01971209
0.07428827
0.15591621
0.21060927
0.19157566
0.18472478
0.20331208
0.17235611
0.11604526
0.108805865
0.13973176
0.107990794
-0.0140248705
-0.10384193
-0.0704916
0.025930598
0.06512789
0.02813759
-0.0027046236
-0.017278554
-0.054079223
-0.10889553
-0.17932776
-0.217091
-0.18872195
-0.16038087
-0.13623856
-0.08992318
-0.06183896
-0.037622508
0.010503763
0.06397014
0.11312025
0.117441535
0.045856107
-0.039072018
-0.07280166
-0.08641432
-0.10563721
-0.086430244
-0.043178048
-0.016545493
0.019024177
0.05708852
0.07647628
0.088755645
0.08749648
0.07632677
0.054474726
0.021942813
0.017762428
0.036746517
0.04052934
0.03821772
0.04850642
0.06401815
0.065663725
0.050902538
0.035523932
0.023924692
0.0140203545
0.004036019
-0.008395928
-0.016985089
-0.018744282
-0.01711477
-0.015944045
-0.02233527
-0.03424194
-0.040596705
-0.040590134
-0.040315595
-0.038948786
-0.032823194
-0.022558749
-0.012377311
-0.01023093
-0.017172722
-0.024136772
-0.026871001
-0.02532057
-0.020197093
-0.015719738
-0.010465989
-0.0017992953
0.005804963
0.009365522
0.007825124
0.0021775851
-0.0013111236
-5.552861E-4
9.901852E-4
0.0025603147
0.0059235096
0.013050402
0.022729283
0.02735112
0.021994233
0.011730854
0.004728479
0.0014180109
-6.0511316E-4
0.001688481
0.007513226
0.012498232
0.01846961
0.022312764
0.018144215
0.011086422
0.0056974366
0.0023150137
0.0014033681
-8.932342E-4
-0.0032269363
0.0013343237
0.007627355
0.006194266
-2.0901156E-4
-0.006709659
-0.011689923
-0.012480115
-0.010642207
-0.007985304
-0.003987448
5.659328E-4
0.007110957
0.012734647
0.012055543
0.008109343
0.0046102917
0.003188202
0.0038066106
0.0028227014
0.0026928745
0.0076086894
0.013444986
0.014435244
0.009814889
0.003453605
-0.0015770016
-0.00445677
-0.0044353795
-0.0032886576
-0.0016417645
0.0016392514
0.0041447817
0.0032973718
-9.0283836E-4
-0.0048906156
-0.00555253
-0.0068444214
-0.009441993
-0.009432854
-0.008972604
-0.006666376
2.4582355E-4
0.0040118555
7.615358E-4
-0.0045219297
-0.008096117
-0.009007202
-0.008757979
-0.0066662496
-0.0022804814
0.0017567462
0.0068118502
0.01143971
0.0103471875
0.005795273
0.0028128293
0.0023648383
0.0018491494
3.5530195E-4
7.655145E-4
0.0036892984
0.0074589406
0.008253905
0.004791064
3.3346863E-4
-0.0051631792
-0.008305434
-0.0063957823
-0.0045037093
-0.0031225702
-7.939955E-4
0.0037859087
0.0092684915
0.008781475
0.004388656
1.8085614E-4
-0.0026967449
-0.0023161133
-0.00306279
-0.0033119086
8.96304E-4
0.0055751298
0.0067159953
5.092244E-4
-0.0065454147
-0.007977746
-0.009956863
-0.010400658
-0.006791229
-0.004249495
-0.0010633207
0.004401754
0.007078175
0.0049721203
0.002472728
-4.4966585E-4
-0.0031257395
-0.001987079
-0.0028082642
-0.003513047
0.0022588717
0.0085262405
0.011768364
0.009230448
0.0028610285
-0.0013499414
-0.005330896
-0.004573743
0.0016317054
0.00552808
0.0068742367
0.006007903
0.005908864
0.005672691
1.3536867E-4
-0.005538433
-0.008199673
-0.007948547
-0.005868743
-0.003539124
0.0020077857
0.005940404
0.0065070656
0.0066014794
0.001762575
-0.0039528
-0.005934886
-0.0049319714
-0.0015343057
-0.001588503
-0.002062063
3.0011628E-4
0.0014483851
0.0046494016
0.00683945
0.0034114516
-7.3415297E-4
-0.003949145
-0.0060659274
-0.0080424985
-0.006957842
0.0035382267
0.013658595
0.011345081
0.0028060772
-0.0021142762
-0.005282342
-0.010175831
-0.00886809
-4.9353566E-4
0.003623523
0.004741755
0.007579951
0.0073016253
0.0034564065
7.507756E-5
-9.2777476E-4
-9.120217E-4
-0.0015828366
-0.0010157808
0.0011751332
0.004986524
0.009362478
0.0071129813
-7.5225416E-4
-0.0044530486
-0.0047540637
-0.00587621
-0.0054550427
-0.0042341556
-0.003276496
5.8452843E-4
0.0050354255
0.0040234253
-0.0014409432
-0.004873231
-0.004473373
-0.0039387224
-0.0039927904
-0.0030802642
1.1181662E-4
0.0058839605
0.008716825
0.0062271855
0.001812477
-0.003925985
-0.0067491736
-0.0044667274
-0.0018687462
0.0014225756
0.004951381
0.005829775
0.0062890598
0.0058372766
0.0016138819
-0.0034979864
-0.004560108
-0.0030132667
-0.0028204834
-0.0030174246
-0.0018555856
0.002303751
0.0066975197
0.0046032304
-8.989272E-4
-0.004540794
-0.006294019
-0.005964021
-0.00534282
-0.003594878
6.183164E-4
0.004854082
0.00802663
0.007525125
0.0032310954
-2.2268758E-4
-0.0017485055
-0.0030096548
-0.0049400404
-0.005729933
-0.003344202
0.0015031293
0.0060073403
0.0057090996
0.0019855453
-7.90222E-4
-0.0029544309
-0.0040515335
-0.003162022
-5.234973E-4
0.0023145801
0.0041074594
0.006771307
0.0060650734
-2.5904787E-4
-0.003325829
-0.0028121737
-0.004018354
-0.0045719575
-0.0029803615
6.5499434E-4
0.0055066333
0.007823254
0.006198169
0.0018397724
-0.0023352504
-0.0034372802
-0.0036749735
-0.0040498343
-0.0016878415
9.406077E-4
0.0020948448
0.0046912064
0.0054642702
0.0019582526
-0.0017233412
-0.0040774406
-0.0046280096
-0.0038306112
-0.003441892
-0.0013668434
0.0026195785
0.005148584
0.0044225
1.2265089E-4
-0.004498569
-0.005754132
-0.0057371045
-0.0056896936
-0.0023931859
0.0024730035
0.0042063897
0.00473264
0.005636033
0.0038841236
6.308622E-4
-0.0010401233
-0.001956244
-0.0031856454
-0.003755125
-0.002339863
0.0011190674
0.004771957
0.0048977975
7.290553E-4
-0.0028143402
-0.003717563
-0.0039557023
-0.004512308
-0.0054660975
-0.0024025314
0.003479842
0.004291055
0.004339883
0.005207092
0.0015117344
-2.8389352E-4
3.5102948E-4
-0.0012281642
-0.0014271662
-3.151183E-4
0.0035679936
0.007555649
0.0040245634
-8.660429E-4
-0.003406584
-0.005673919
-0.0058517177
-0.006680043
-0.005645754
-7.785124E-4
0.0016912845
0.0031757131
0.004815568
0.0032464878
-3.8814556E-4
-0.002952078
-0.0024165874
-0.0020021943
-0.002553212
-1.7178527E-4
0.0031020723
0.0049234573
0.003858883
-8.088747E-4
-0.0040613934
-0.005091355
-0.006435286
-0.0065570422
-0.0043042004
-4.2356426E-4
0.0021158515
0.003308643
0.00569851
0.0051026135
9.24336E-4
-8.3713577E-4
-0.0012025894
-0.0022711924
-0.0020510755
-2.59689E-4
0.0034157215
0.0070261983
0.0060348674
0.0016622036
-0.0015601414
-0.0030757673
-0.0035928837
-0.002298067
-3.5122063E-4
1.0553375E-4
0.0011030401
0.0041990476
0.0051098554
0.0023812465
-2.548334E-4
-0.0023861448
-0.00382322
-0.0039784694
-0.0048312033
-0.003905643
-3.9894442E-4
0.0012413673
0.0020001002
0.0014624257
-0.002758048
-0.0053827767
-0.00390743
-0.0029931257
-0.0040354454
-0.0027731538
0.0016486855
0.004166477
0.0041149696
0.0031783262
5.7084806E-4
-0.0017709568
-0.0018912398
-3.4008952E-4
5.8789266E-4
4.787186E-4
0.0031723143
0.006592418
0.006045707
0.003389848
-2.912083E-4
-0.0043449854
-0.0057512596
-0.0039350092
-0.0014765196
-4.4222307E-4
0.0017390973
0.005436639
0.005767905
0.0029123595
-4.7101383E-4
-0.003626974
-0.004599923
-0.0041802465
-0.0038281158
-0.0016822236
0.0024155616
0.0060641114
0.0063546887
0.0025445004
-0.0016140539
-0.0041232295
-0.005730884
-0.00477979
-0.0023561034
-9.874742E-4
0.0011408827
0.0026212153
0.001745771
0.0015822041
7.8146084E-5
-0.0039258953
-0.004511329
-0.0020826778
-0.0012946093
-5.5603264E-4
0.0028235132
0.0067660054
0.0072932024
0.004025685
-1.7553546E-4
-0.0027296587
-0.0023525443
-2.1227059E-4
0.0011054323
0.0014483155
0.0036577322
0.0065943156
0.005741592
0.0027488156
-3.000035E-4
-0.0039432775
-0.006104624
-0.006982743
-0.0062141954
-0.003036005
4.4122827E-4
0.0042419694
0.0052251928
0.0025502406
1.769305E-5
-0.0037925213
-0.0057074027
-0.004401661
-0.0045119566
-0.0024925559
0.0012667499
0.003938139
0.006528497
0.0040023117
-0.001666416
-0.0036210557
-0.0026482376
-9.066143E-4
-0.0014283934
-0.002418387
3.7910187E-4
0.0036469249
0.0042881076
0.0019782844
-0.0016017435
-0.0026272202
-0.0031138293
-0.0056345505
-0.005255992
-6.692105E-4
0.0028617294
0.004937404
0.006340163
0.004967408
0.0016346499
-0.0016405778
-0.0035700144
-0.0044551846
-0.0033732166
8.812683E-4
0.004003657
0.0057490305
0.007543272
0.0061449795
0.0019957395
-0.0036102894
-0.006086061
-0.0042097475
-0.004625557
-0.0037498313
-1.9065346E-4
0.0020629426
0.0039919647
0.0016518424
-9.726491E-4
3.8059347E-4
4.6425357E-5
2.1058576E-4
-2.6899022E-5
-0.0020786882
-0.0030171024
-0.003624756
-4.6625186E-4
6.002946E-4
-0.0033765337
-0.0029513831
-0.0050789043
-0.009098169
-0.0035891812
0.0023166672
0.0037679798
0.006484432
0.007663391
0.0043257945
1.3863052E-4
-5.4587744E-4
-4.168468E-4
-0.0025566113
-0.0032837216
-2.4315617E-4
0.0035605067
0.0058131735
0.0076906863
0.005732628
-8.568373E-4
-0.0040965606
-0.004768456
-0.0052169445
-0.0030993759
-0.0018344301
-3.8858922E-4
0.0027255248
0.0045334
0.0047882153
0.0010606442
-0.0034018257
-0.0037455957
-0.0039492887
-0.0038593935
-0.0025007983
1.1919359E-4
0.005159011
0.0059085293
0.0028059238
0.0016678526
-0.0016859064
-0.0057235355
-0.0053106877
-0.0026322855
-2.3447344E-4
6.3489453E-4
0.002389626
0.0045660944
0.00252717
-0.001104455
-0.0035192035
-0.0037863555
-0.0026541378
-0.0044999844
-0.003930714
0.0020080735
0.0052300133
0.005653658
0.0040389434
-8.9090725E-5
-0.0014336128
-0.0023996073
-0.0053329985
-0.0048064645
-0.0015389618
0.0010257412
0.0028129495
0.0040341276
0.0047772797
0.0033419884
3.31042E-4
-8.8633405E-4
-0.0011583585
-3.552583E-4
0.0023535641
0.0030185068
0.0035224254
0.0056246836
0.0025872807
-0.00267013
-0.0042665135
-0.0059881653
-0.0071055437
-0.0057794168
-0.003954241
-8.510492E-4
0.003447047
0.00668939
0.0051377346
1.8706406E-4
-0.0023605933
-0.0038175848
-0.0047062295
-0.003744367
-0.0028253375
-4.517008E-4
0.0027404418
0.0049092057
0.005240271
0.0019580843
-9.559408E-4
-0.0024685212
-0.0035210736
-0.001051089
8.8505645E-4
0.0014763355
0.0044997074
0.005914635
0.005020572
0.0038050206
4.8723537E-4
-0.0037656203
-0.0062735784
-0.006455644
-0.0051748175
-0.002070762
0.0026602997
0.005135752
0.004095571
0.0015637695
-0.0018152102
-0.0041638776
-0.0031523118
-0.0012554472
-7.1215426E-4
9.839353E-4
0.0029122734
0.0044034133
0.0057908054
-2.896003E-5
-0.007729465
-0.0041932245
0.0012925309
-0.0016427861
-0.005261524
-0.0024543405
0.0037028538
0.006438949
0.0049640513
7.2416535E-4
-0.0044204234
-0.0055823904
-0.0041231764
-0.0033129186
-0.0024416652
3.5036117E-4
0.0055086124
0.006752964
0.003921855
0.0017478282
-0.0015213989
-0.0027430523
-0.002510828
-0.003313936
4.0382336E-5
0.0032313135
0.004930444
0.007857048
0.005947053
0.002601508
-6.973155E-4
-0.0070545576
-0.008213432
-0.004768153
-0.003959487
-0.0036372119
-2.1802844E-4
0.0043554693
0.004013993
-2.6708393E-4
-0.0034282126
-0.0041912226
-0.0022260842
-0.0013262222
-0.0017432565
3.6468077E-4
0.0039376696
0.0070112823
0.0054487404
9.606686E-4
-7.001727E-4
-0.0024194731
-0.0020657624
7.6049607E-4
-4.7937618E-4
-0.001020032
0.0014615877
0.0032726438
0.005039892
0.0033877485
-0.0010243651
-0.002761412
-0.003770948
-0.0057628816
-0.0051219948
-8.2687195E-4
0.0028262194
0.0042655217
0.003920089
2.6402756E-4
-0.0034335882
-0.0049856487
-0.0056354194
-0.0035266802
-0.0012864511
-3.438248E-4
0.0029845193
0.00552562
0.0050629773
0.0031312492
-4.116819E-4
-0.0018678952
-0.0011069716
-0.0012946784
-7.789419E-4
1.2331158E-4
0.0018718501
0.0049249264
0.0040883655
-5.502051E-4
-0.0037869131
-0.0048056873
-0.005205294
-0.0040857308
-7.273746E-4
0.0011456683
0.0026597294
0.007093559
0.00823098
0.00464504
0.002160379
-2.8256702E-4
-0.004430096
-0.0070280605
-0.0054539144
-0.0019873308
4.3645027E-4
0.003184451
0.0048390897
0.0020239898
-0.002509378
-0.005037283
-0.005453022
-0.0040631155
-0.0018534759
-7.4668945E-4
4.1354835E-4
0.003348147
0.004835975
0.0025565324
-2.5808328E-4
-0.0013082972
-0.0019754122
-0.002487099
-0.0025395127
-0.0024643433
0.0011404163
0.0071522775
0.0076466063
0.0039554103
6.6889956E-4
-0.0029405279
-0.0040795854
-0.0026045435
-0.0022536681
-0.0016381877
9.383025E-4
0.00392827
0.0048185596
0.002760958
-1.8911215E-4
-0.0013459708
-0.0012289288
-0.00390848
-0.006374508
-0.0023868806
0.0037087083
0.0062713814
0.0043384493
-1.7339778E-5
-0.00205433
-0.0028643056
-0.004267546
-0.0048877657
-0.0051739137
-0.0030929884
0.0015159113
0.004701498
0.0049868883
0.0024458524
-8.166104E-4
-0.0019005437
-0.0013131805
-0.0012922947
-0.0011974912
6.793036E-4
0.0028795337
0.005394825
0.0064979913
0.0034971677
5.697094E-4
-0.002338546
-0.005381539
-0.0035829414
-0.0013329239
-0.0011031145
0.0012467661
0.0047755176
0.0067289923
0.0033700296
-0.0021007755
-0.003046461
-0.0032651746
-0.004743805
-0.0051044184
-0.0043029147
-0.0010030693
0.0029733481
0.0036742205
0.0010318736
-0.0028067252
-0.005500829
-0.005503628
-0.004168633
-0.003496334
-0.0010179108
0.0031909414
0.005192229
0.005708367
0.00449199
0.0017481982
8.4881997E-4
5.774755E-4
4.9272174E-4
7.377688E-4
7.4223564E-5