1.3021172E-4
0.007643621
0.0106042
0.011271693
0.007392802
0.0011693923
-0.004436219
-0.012290348
-0.018342802
-0.014645349
-0.0042210794
0.004367013
0.008013407
0.008947153
0.009269459
0.007418929
0.0010386722
-0.008476446
-0.013704415
-0.008646051
9.501943E-4
0.008973416
0.015173999
0.014669238
0.008142345
0.0028960244
-0.0021653099
-0.007879896
-0.012643132
-0.014263701
-0.006504549
0.0044612344
0.007832384
0.0068390877
0.005240529
0.0033944899
-0.0011397236
-0.010803476
-0.015673194
-0.009999355
-1.8479585E-4
0.0089114085
0.013361714
0.013298891
0.00999893
0.0034035055
-0.0021955722
-0.008037695
-0.014516636
-0.013687161
-0.0051089674
0.0050104954
0.010765411
0.010283834
0.008649152
0.006962894
5.587779E-4
-0.010247489
-0.016954899
-0.013368125
-0.00410433
0.005363646
0.011922659
0.011788622
0.0078637535
0.004319231
-0.0013517671
-0.008896383
-0.012423142
-0.008748498
-5.8988685E-4
0.005454317
0.0060792686
0.005112445
0.005245913
0.004516327
-0.0012373738
-0.011963731
-0.016893726
-0.01062875
-0.001086984
0.0071567046
0.013149
0.012927581
0.007744266
0.0047501856
0.0016089826
-0.0071082776
-0.012740653
-0.011036224
-0.0056697405
0.0043297987
0.01062666
0.008463668
0.0072078747
0.006780958
9.1503037E-4
-0.008999617
-0.015824711
-0.01408472
-0.0050720186
0.0057419925
0.011494476
0.011315141
0.008434679
0.003797481
-0.0018156312
-0.009566922
-0.015853504
-0.014871158
-0.00709564
0.003848519
0.008895145
0.008781749
0.010737682
0.0086658215
0.0023407897
-0.004663515
-0.012407515
-0.011477219
-3.9479398E-4
0.010021227
0.013801778
0.012526215
0.009263648
0.004081835
-0.0016665809
-0.009753046
-0.018034253
-0.015537466
-0.0061260355
7.054002E-4
0.005226821
0.007218435
0.007925043
0.0063301334
-2.85266E-4
-0.009729365
-0.01729834
-0.014653762
-0.0022684806
0.00864717
0.01381608
0.014723673
0.011590864
0.0057386835
-3.143785E-4
-0.0075659477
-0.013604195
-0.010126596
-1.6594952E-4
0.0075109187
0.010784323
0.009715092
0.0077398494
0.0057319175
2.60157E-5
-0.009175629
-0.01648372
-0.01460073
-0.0040603494
0.0070084743
0.011600506
0.009034098
0.0059838668
0.0047551244
8.4863923E-4
-0.0075322003
-0.015285321
-0.015124241
-0.0072997604
0.0027248338
0.007288113
0.0056167315
0.0056864866
0.0051198443
0.0014834965
-0.0039037259
-0.012468288
-0.0125341425
-0.0019747557
0.0065163807
0.01175388
0.012339652
0.008750856
0.004809736
-0.0018296217
-0.008931255
-0.014762876
-0.01576059
-0.0053352076
0.0076195463
0.010929301
0.008584672
0.008842016
0.009132182
0.0047019054
-0.0041611344
-0.013790524
-0.013619293
-0.0035273011
0.0055834525
0.0126028005
0.015029385
0.010493623
0.0035911645
-0.0049501923
-0.011955941
-0.014371723
-0.01361437
-0.007579583
0.002378965
0.00699658
0.0040677274
0.0030069614
0.0042400085
0.0011827826
-0.004944311
-0.012195236
-0.013222504
-0.0036727681
0.0067609986
0.013231312
0.015367906
0.01311811
0.007677873
6.396941E-5
-0.00532481
-0.010807136
-0.013905628
-0.006615906
0.0023812058
0.0066586537
0.007302512
0.0042091687
0.002736689
8.4826146E-4
-0.007020878
-0.016634826
-0.01848573
-0.008449852
0.003161157
0.009075029
0.012383727
0.012323838
0.009458567
0.0063089393
-5.9912866E-4
-0.011032938
-0.013813396
-0.005825569
0.0032968505
0.010414745
0.012903357
0.009746141
0.0077951313
0.00408827
-0.005352428
-0.015832165
-0.02059329
-0.013185408
-3.3085744E-4
0.008664307
0.013273363
0.010887312
0.0038479308
-0.0024502384
-0.0077702724
-0.012354896
-0.014655464
-0.008845655
0.0028439458
0.009005811
0.009154851
0.008645136
0.00837337
0.0059056086
-0.0021130515
-0.011431503
-0.013772893
-0.0062776227
0.0062520215
0.014137583
0.0153950965
0.013681252
0.008465744
7.961677E-4
-0.007906241
-0.016709061
-0.019880045
-0.013577972
-0.0018396223
0.005648043
0.0062492657
0.007283384
0.008151256
0.0049955654
-0.0014844044
-0.012393903
-0.017865166
-0.008473711
0.0040460774
0.010209589
0.012564818
0.012445638
0.008874745
0.0020946602
-0.0049873386
-0.011889108
-0.015045663
-0.008923241
-4.0911557E-4
0.005430551
0.009631518
0.009010462
0.0070382077
0.004816461
-0.0033329397
-0.012387009
-0.015128765
-0.009705261
0.002251068
0.011929817
0.014668578
0.013167464
0.009098927
0.004359527
-0.0021356253
-0.010656824
-0.014584812
-0.009833253
0.0013676878
0.009068155
0.007368181
0.0065099816
0.006535405
3.5123018E-4
-0.0055231974
-0.012104703
-0.017208125
-0.009700374
0.0021721837
0.009788751
0.0135499425
0.011956297
0.008717951
0.0030692215
-0.005967694
-0.014792132
-0.021700392
-0.01720497
-0.0019964047
0.0071504735
0.008088494
0.008542754
0.008250436
0.0046522943
-0.0016532547
-0.009339154
-0.013799493
-0.008446103
0.0025874202
0.010671559
0.013670464
0.0128184315
0.010602498
0.0053835367
-0.0030016573
-0.010542369
-0.014994886
-0.010611967
0.0012866601
0.010280946
0.012584974
0.010606212
0.008497387
0.0040212893
-0.0050075594
-0.013927162
-0.019605417
-0.014092485
-2.1285693E-4
0.0077960105
0.011081708
0.008892711
0.0027398076
0.0017887612
-0.0032496708
-0.013240023
-0.01507231
-0.009759281
9.3540555E-5
0.008444672
0.008230478
0.007342659
0.008186945
0.0043486753
-0.0023598878
-0.007861411
-0.009786156
-0.007054146
-8.2624075E-4
0.007859184
0.013350201
0.012258778
0.009818172
0.005451449
-0.0020943636
-0.008106798
-0.012770578
-0.012614433
-0.0039481013
0.0034244144
0.0042744027
0.005440502
0.0075337477
0.004296065
-0.0027872499
-0.00904201
-0.01390156
-0.012555388
-0.0023911698
0.0088939555
0.013218567
0.010448765
0.0075872163
0.0051661357
-0.002113264
-0.0109016625
-0.015892709
-0.013394637
-0.0027089592
0.006176455
0.0077477554
0.008315403
0.009127692
0.005935026
-7.239693E-4
-0.008046398
-0.012541451
-0.00929841
7.022394E-4
0.0100795925
0.01366632
0.012499664
0.009085397
0.0026530458
-0.004816701
-0.010141866
-0.0142010925
-0.013339767
-0.0042176675
0.005694873
0.009016063
0.008584244
0.0082890075
0.005100694
-0.0019382786
-0.010909019
-0.017991578
-0.013637197
-0.0010234092
0.0074405624
0.011528785
0.011905208
0.008946069
0.0057035903
-6.219769E-4
-0.008341607
-0.01306577
-0.013409493
-0.0056831576
0.0048130304
0.008507316
0.0068263267
0.0039065746
0.0018287364
-3.8881545E-4
-0.006813099
-0.013589176
-0.012085225
-0.0021198702
0.008506229
0.013805477
0.014866155
0.013033851
0.00790071
4.2788516E-4
-0.008474896
-0.013669159
-0.011321216
-0.0044320244
0.004926695
0.010599852
0.0090248
0.007979042
0.007366834
0.0016554213
-0.008022143
-0.017308675
-0.016898505
-0.006129809
0.003620809
0.008445922
0.009486324
0.0065856986
0.0011061337
-0.005722787
-0.011552885
-0.014373678
-0.013768028
-0.007249484
0.0038767566
0.010549375
0.010812593
0.010922521
0.009968898
0.0036184161
-0.0074181817
-0.015614607
-0.01247163
-0.0013905695
0.008632162
0.014164129
0.016337477
0.01461462
0.0070938733
3.1393868E-4
-0.0046504703
-0.012611296
-0.013377982
-0.004659582
0.0015561128
0.0038042392
0.00441076
0.004592385
0.0050308513
0.0011283889
-0.008970526
-0.01864087
-0.017201286
-0.004659629
0.005980025
0.010417339
0.013670991
0.0127097545
0.006272419
5.8822526E-4
-0.0070206355
-0.014986138
-0.013321119
-0.005938915
0.0025781603
0.009740042
0.008486262
0.0050309515
0.005670081
0.0037682422
-0.00495135
-0.013850493
-0.013887764
-0.005688441
0.006758016
0.013546853
0.012324905
0.013683812
0.0052996487
-0.009898308
-0.009303211
-0.010034604
-0.014394503
-0.0038130002
0.006001208
0.0059351893
0.004797678
0.006288202
0.0072570913
8.917678E-4
-0.007662815
-0.0133187
-0.013223022
-0.00342145
0.0073354044
0.012967809
0.013803098
0.010962346
0.0068070563
4.21035E-4
-0.0054914583
-0.011868646
-0.016377144
-0.008905565
0.002760956
0.007870085
0.008598295
0.008312873
0.008874289
0.005731206
-0.0037207147
-0.012729775
-0.013178191
-0.0047701867
0.003663871
0.007977848
0.0069830148
0.0013957755
-9.733275E-4
-0.0012832839
-0.0061628358
-0.012836522
-0.014129449
-0.007590066
0.0020412637
0.009814397
0.011773646
0.009335634
0.00800644
0.004068707
-0.0037932184
-0.010167619
-0.012722573
-0.008099517
0.0024533467
0.012088125
0.015503701
0.012121199
0.007304587
0.0020129816
-0.0057160305
-0.012572605
-0.014341575
-0.009061141
-2.5254642E-4
0.005320763
0.0055421814
0.0046054525
0.0056094243
0.0026136022
-0.0073358063
-0.016298587
-0.017290618
-0.009254104
0.0029839189
0.012153985
0.015596077
0.014276326
0.009708167
0.0041023223
-0.002194704
-0.009830817
-0.013243211
-0.0078369705
0.0016100165
0.007813344
0.0071666744
0.0067580356
0.009909472
0.0059465338
-0.0040747053
-0.012828876
-0.01621285
-0.0076438296
0.0037805068
0.008691966
0.0106008975
0.008504634
0.004484376
5.577077E-4
-0.005570053
-0.0122662885
-0.01685743
-0.012540166
-8.7393227E-4
0.0060962043
0.007888857
0.0077891564
0.0047869096
0.0012437836
-0.0027295782
-0.009275468
-0.013030672
-0.0073291236
0.0036511987
0.011582954
0.014037765
0.013238095
0.010142823
0.0035638844
-0.004023759
-0.010405539
-0.0139702195
-0.009312171
0.0010981425
0.007824746
0.008843692
0.008052118
0.0067818663
0.0037144623
-0.0027683866
-0.013244762
-0.018381817
-0.010703597
7.480398E-4
0.00868164
0.010432569
0.006177159
0.002652629
-7.676482E-4
-0.0060388283
-0.010974715
-0.0133924335
-0.008177292
0.0024539493
0.010267255
0.010450227
0.0072234813
0.008187673
0.006611205
-0.0024917638
-0.011453546
-0.014041274
-0.007006172
0.0044154213
0.012255703
0.016047914
0.0156689
0.010674305
0.004986199
3.3677722E-4
-0.010617561
-0.022668205
-0.02010418
-0.008922015
0.0013808458
0.008798358
0.009201696
0.007248402
0.004593195
-0.0027257774
-0.01299368
-0.018422697
-0.010959821
9.104883E-4
0.008563424
0.013277616
0.012695321
0.009300915
0.0039081885
-0.003329959
-0.0084593855
-0.013593552
-0.0136806965
-0.0048763193
0.0044048517
0.008817104
0.009239476
0.010332792
0.009308074
8.195341E-4
-0.0093814125
-0.014870084
-0.011425948
-3.127089E-4
0.010509705
0.014708393
0.011156819
0.00669011
0.0029552272
-0.0034474388
-0.010037805
-0.0141901495
-0.009959906
7.5383E-4
0.006162002
0.006997205
0.007070891
0.006746848
0.005562027
-0.0027483378
-0.014353104
-0.017414806
-0.0114458585
-0.0020816582
0.0057837353
0.0097195525
0.012174841
0.012463429
0.008452478
0.003105771
-0.0047283918
-0.011849753
-0.008465301
-0.0022959036
-0.0020300404
-0.0018170965
-3.8687495E-4
0.0022836695
0.0037633236
-0.0016844147
-0.010154112
-0.014860347
-0.01085621
-2.1467531E-4
0.00973285
0.016678648
0.015498488
0.00781902
0.002329404
-0.0038234151
-0.011461391
-0.01618653
-0.013918123
-9.545841E-4
0.012315579
0.01803493
0.02094083
0.020510117
0.01925626
0.015519709
-0.0010787018
-0.017574029
-0.016349666
-0.0059129437
7.8644865E-4
-1.9364091E-4
-0.003380994
-0.0037037279
-0.007058338
-0.01280954
-0.016860045
-0.020305272
-0.018092688
-0.009518782
-0.0011089841
0.0034652674
0.0040719192
0.005520869
0.006890548
0.0020340306
-0.0077944794
-0.013729208
-0.0054278825
0.009896927
0.018658645
0.026133377
0.03202703
0.027664522
0.018501379
0.008393342
-0.0035574408
-0.012768645
-0.016746666
-0.012691268
-0.0027421121
0.0016792086
0.0037685048
0.0092903385
0.0043568346
-0.012919859
-0.028500464
-0.032935914
-0.020897988
-0.006037776
-0.0012462169
0.003863226
0.008864637
0.006174917
7.507294E-4
-0.004857412
-0.008245148
-0.0020741308
0.014370382
0.025851578
0.01768155
-0.0033257152
-0.019415585
-0.017626945
-0.0073169083
-0.0047638686
-0.003882892
-0.0035765169
-0.003571002
0.003227755
0.0019253928
-0.0056233187
-0.0030219047
-0.0026885597
-0.009742376
-0.018513676
-0.028404362
-0.029405149
-0.019593652
-0.0052115717
0.010299498
0.020878132
0.025359554
0.02769503
0.028107112
0.02046357
0.0065922737
0.0013867152
0.008519828
0.018449951
0.023240097
0.021988675
0.019977486
0.016267965
0.006540509
-0.006801003
-0.017114494
-0.019883044
-0.018087707
-0.012147452
-0.001856615
-8.292172E-5
-0.012980423
-0.026209932
-0.028609589
-0.026275411
-0.034529947
-0.0510999
-0.045592166
-0.015024904
0.007930573
0.016435176
0.01965546
0.018271973
0.014651221
0.009390669
0.0030386099
-0.009494848
-0.01808342
3.9299094E-4
0.02839014
0.041637823
0.040385824
0.02919623
0.024265494
0.022100931
0.0064565875
-0.010285647
-0.013553981
-1.8022827E-5
0.026486047
0.04796289
0.04459719
0.02641852
0.017361257
0.012712723
0.0037797145
-0.013226022
-0.031162577
-0.03112126
-0.025479373
-0.022117246
-0.019910453
-0.024057712
-0.025216144
-0.03666754
-0.042398583
-0.015108339
0.0075430893
0.0135667
0.006330388
-0.012872612
-0.017370928
-0.020129265
-0.03616017
-0.060168024
-0.065373816
-0.02081139
0.02799664
0.05406455
0.07262595
0.07968408
0.09506019
0.101999186
0.062332135
-0.013641492
-0.10136054
-0.149305
-0.11438771
-0.028597407
0.03251252
0.05817434
0.091470495
0.10948106
0.1036859
0.08614302
0.017308012
-0.05986676
-0.087211825
-0.084429376
-0.046856876
-0.0035251137
0.0056491466
0.009726381
0.017778147
0.048394203
0.11173105
0.104568295
8.267617E-4
-0.06159614
-0.04744331
-0.036972143
-0.037538875
-0.036838077
-0.056686953
-0.08429307
-0.087893546
-0.07779457
-0.069253094
-0.039879892
0.0042426754
0.041052174
0.07169281
0.06754279
0.030048313
0.003611931
-0.0248468
-0.066137075
-0.063231565
0.010842004
0.07883767
0.07695603
0.05473388
0.052335445
0.054121275
0.057856604
0.050300676
0.020677978
-0.0062363865
-0.013627167
-0.011324431
-0.0120841
-0.01692195
-0.018451974
-0.0127244685
-0.009663844
-0.01731486
-0.026598752
-0.030216122
-0.026391158
-0.015616203
-0.0052885893
2.6381857E-4
6.3692016E-4
-9.385138E-4
-0.0018807169
-0.0054028854
-0.009021257
-0.008518478
-0.0046443758
0.0019411215
0.007283713
0.0032696605
-0.0077977907
-0.012150682
-0.010739095
-0.014314022
-0.021496538
-0.02356915
-0.012644355
0.0057932655
0.019846873
0.024487015
0.019444656
0.01438007
0.011748363
0.0054317615
3.681405E-4
-0.0015685164
-6.3533225E-5
0.008286164
0.015270125
0.014738146
0.014020683
0.017010769
0.01629746
0.009982334
0.0037803988
-0.0012179473
-1.2327266E-4
0.0088802185
0.016094035
0.016750092
0.010168618
-0.0024179704
-0.013496895
-0.018802915
-0.021215321
-0.023306096
-0.02197531
-0.014940316
-0.008249832
-0.007415728
-0.0069651473
-0.0039503435
-0.005352315
-0.011586315
-0.021191621
-0.030863933
-0.029938037
-0.020596193
-0.0073085553
0.0063227043
0.008220338
0.0054899477
0.009606092
0.015241278
0.01869231
0.017862886
0.013304559
0.007738712
0.0036805456
0.005387942
0.013215979
0.025178628
0.03567587
0.043432955
0.046706036
0.04126563
0.03600042
0.02369265
0.0035077643
0.0014442427
0.0043278914
-0.0049757496
-0.013143296
-0.021841628
-0.03055726
-0.032358292
-0.020332264
0.001845446
0.002398365
-0.017655639
-0.026352195
-0.02416981
-0.025230087
-0.030624108
-0.035007097
-0.039712314
-0.043717995
-0.03469154
-0.017846296
-0.004889535
0.006672043
0.0123994835
0.010318238
0.0072545325
0.0018235696
-0.0017426509
0.0049283523
0.01625188
0.026107667
0.031305727
0.031455036
0.033964
0.03447395
0.026463391
0.015016772
0.0069128573
0.01443214
0.028882802
0.031196276
0.03185379
0.028426964
0.008985126
-0.009471404
-0.017749099
-0.021630833
-0.023254786
-0.02126488
-0.0114246905
-0.0018245082
-0.0033173624
-0.010205814
-0.013869676
-0.016151182
-0.022264525
-0.030638201
-0.036382157
-0.033472855
-0.020262225
-0.006850371
2.2762352E-4
0.003913994
0.0075685475
0.009525208
0.004171967
-0.00442322
-0.006953477
-0.0019255165
0.0067479494
0.013765224
0.017202655
0.017776944
0.019726401
0.02086587
0.009486249
-0.006203335
-0.0133286845
-0.014274149
-0.0058574523
0.0056054466
0.010537004
0.014153669
0.013708209
0.008832206
0.0053173816
0.0021012544
-8.9845635E-5
-1.8366823E-4
0.0082836365
0.019828942
0.015576234
0.0049452246
6.285318E-4
-0.0045187883
-0.01450178
-0.02604566
-0.026579622
-0.016317604
-0.002672426
0.015731417
0.022469932
0.021753848
0.031810917
0.024585975
-0.009044372
-0.037693884
-0.049124584
-0.04255754
-0.024459934
-0.009160577
0.0013022568
0.0111114625
0.017116152
0.015668387
0.014122571
0.01321797
0.008292299
0.008598129
0.0159866
0.024427544
0.029486772
0.02339393
0.013618668
0.007163572
-0.004950392
-0.019436354
-0.026443565
-0.027784755
-0.023982346
-0.012276772
-0.004552934
-0.009522531
-0.0103679
-0.005392971
-0.0110748
-0.016896881
-0.007342017
0.009493599
0.017315412
0.011111527
0.0042007114
0.0043858015
0.0053356267
0.005419728
0.005597027
0.006674055
0.0072774235
0.0047339518
0.00824003
0.018303636
0.018340794
0.010334532
0.0063319597
0.0034360883
-0.0016726055
-0.008928488
-0.015661743
-0.016065558
-0.014290816
-0.015036383
-0.014935563
-0.013570437
-0.012456158
-0.011945885
-0.01045366
-0.0076171285
-0.0070485002
-0.0042126193
0.007970338
0.021183979
0.02344573
0.020095222
0.019748282
0.013595425
-4.8312242E-4
-0.012572865
-0.022621943
-0.023498142
-0.00973897
0.0058503537
0.017882572
0.021347068
0.013214013
0.006677353
0.0025611278
-0.005337223
-0.012363538
-0.015088138
-0.009618161
-1.3484732E-4
0.001910314
6.895697E-4
0.0034534684
0.004200305
-0.001793502
-0.010105751
-0.014727576
-0.0121573135
-0.0018371326
0.010553455
0.01631152
0.014570133
0.010559325
0.005420488
-0.0016719591
-0.009200182
-0.015996834
-0.018235404
-0.008546586
0.008307616
0.016363882
0.01670379
0.018314587
0.013834343
0.0036860898
-0.0038222696
-0.011409866
-0.01294174
-0.0057884348
-7.0711895E-4
0.0024050535
0.0037078047
0.0010069745
-0.0039150775
-0.010880098
-0.012578055
-0.007949942
-0.0051954673
-0.0033350068
8.0331013E-4
0.0063580167
0.008820057
0.007519263
0.006402459
0.0016493023
-0.0075059757
-0.015515795
-0.016415294
-0.006867994
0.0035498312
0.012493698
0.02511464
0.028957192
0.017811053
0.0024873274
-0.011192667
-0.02107213
-0.023420075
-0.01706062
-0.0069725723
-3.8403738E-5
0.0029427316
0.0038196235
0.0041237357
0.0031630064
-0.0033520088
-0.011581511
-0.01244265
-0.0060312822
0.0069792005
0.022936264
0.029575313
0.027474215
0.022087721
0.013283664
0.007075605
-0.0038515297
-0.023040367
-0.02736283
-0.017212857
-0.010138777
-0.0025768986
0.0045715817
0.005631712
0.003040624
-0.003317663
-0.010564463
-0.0114769405
-0.0038294941
0.0041033714
0.005138951
0.0052889194
0.006711196
0.0056803217
0.002348425
-0.0037427535
-0.008343307
-0.007802443
-0.0011549126
0.013437414
0.02251986
0.017021295
0.009807582
0.0057853702
-2.82911E-4
-0.011174167
-0.024367211
-0.028071094
-0.018228393
-0.0041979463
0.004414883
0.0054330565
0.0055767274
0.0063385614
0.0030493233
-0.0036992338
-0.010635233
-0.012206079
-0.005374625
0.0052409284
0.012889131
0.014551714
0.013907266
0.013288095
0.010922148
0.0046604974
-0.0060848887
-0.011629167
-0.0047646677
0.007136674
0.015457479
0.015748352
0.0108628385
0.005366761
-0.0011867344
-0.0077542756
-0.015013468
-0.019973584
-0.015096819
-0.0036051
0.0051955986
0.005947126
0.002814769
0.0033448027
0.0029121137
-0.0030656692
-0.010203913
-0.015062867
-0.012809797
-0.0026666021
0.007154242
0.013502764
0.016101908
0.0124644665
0.0064581092
-7.917745E-4
-0.009866138
-0.011013844
-0.0029677167
0.0045576617
0.008604927
0.008118552
0.0038650513
-6.18715E-4
-0.005368295
-0.011256882
-0.01882407
-0.022612788
-0.016554385
-0.008820526
-0.0050844117
-0.001294339
-3.8044585E-4
-0.0021668486
-0.0012888478
-0.001956339
-0.005964803
-0.0069753975
-7.0796855E-4
0.011201498
0.02030868
0.023448067
0.023655137
0.021976825
0.022620458
0.021058256
0.0071976087
-0.006305491
9.9884106E-5
0.018527115
0.02655647
0.021958051
0.01604091
0.013281593
0.0105153145
-0.008605667
-0.040296454
-0.0519634
-0.04384091
-0.031567305
-0.016818345
-0.011901785
-0.012775459
-0.008755416
-0.009807108
-0.014184019
-0.01716804
-0.018054683
-0.009436869
0.0030473573
0.011271348
0.01541814
0.01684535
0.017515514
0.013447427
0.005939248
0.0013279358
-9.1132126E-4
0.0021390626
0.010785018
0.01810407
0.020708706
0.01845115
0.015352101
0.011620725
0.0016734469
-0.010951458
-0.018397287
-0.016596273
-0.005936663
0.0060899355
0.012559147
0.012058113
0.007485283
0.0017137298
-0.006655779
-0.015231226
-0.01839761
-0.0139872935
-0.0035795167
0.004213511
0.004994329
0.0045513366
0.0047977883
0.003474553
-0.0026505233
-0.013805395
-0.020141793
-0.015208911
-0.0045630015
0.0045157676
0.009934248
0.012440892
0.010096608
0.0044029914
-3.822852E-4
-0.005914029
-0.010600068
-0.009447036
-0.0029998946
0.0049869595
0.008803504
0.008281884
0.008511372
0.007159001
8.841788E-4
-0.00831938
-0.014959082
-0.0110096345
8.3212304E-4
0.009297119
0.011641424
0.0108826
0.008269125
0.004298129
-4.9612654E-4
-0.0075762053
-0.01579045
-0.016436609
-0.00561833
0.008109718
0.012988647
0.009138083
0.008013722
0.0077561657
7.255092E-4
-0.007135213
-0.013331973
-0.014604708
-0.003853263
0.008289177
0.011453824
0.0111561045
0.009445903
0.0037669628
-0.0028958567
-0.007630715
-0.012229643
-0.013408405
-0.004466909
0.007706142
0.011605168
0.010682407
0.011116259
0.00946152
0.0021484278
-0.010961833
-0.021690289
-0.017434966
-0.0039223814
0.0053111184
0.010407354
0.012707953
0.009834584
0.0038613095
-0.0018579076
-0.007510391
-0.013122767
-0.014023579
-0.0073896307
0.0022268498
0.0072913948
0.0071526896
0.007297937
0.006571602
0.0016112471
-0.006878672
-0.013299663
-0.008990421
3.964177E-4
0.0070765177
0.013613074
0.014887891
0.009991281
0.004598576
-0.0028219935
-0.00991564
-0.014741168
-0.016141936
-0.008640866
0.002118365
0.0054346593
0.003983094
0.0055314554
0.006362208
4.1836605E-4
-0.008558798
-0.015315264
-0.0141527485
-0.0042330446
0.005293234
0.010090107
0.011167078
0.009075512
0.0062722964
0.003232014
-0.0018625248
-0.007899959
-0.009487156
-0.0031798393
0.006471298
0.01056315
0.008244424
0.0068503506
0.0056108483
0.0011977598
-0.0052870195
-0.013678748
-0.015266776
-0.005107475
0.005959474
0.012181132
0.015071686
0.013003755
0.0056151785
-0.002383255
-0.009595445
-0.017317116
-0.018836446
-0.011773415
-0.0027535849
0.0024153704
0.002344028
0.003872321
0.005770674
0.002201838
-0.004041147
-0.013051283
-0.014748837
-0.0039080293
0.0034431042
0.007970486
0.013336814
0.010882282
0.00555857
0.0015421412
-0.0041134753
-0.0091472175
-0.010338218
-0.0043305
0.0065249335
0.012351375
0.011030107
0.0107012065
0.011719609
0.0072281086
-0.002660695
-0.012331003
-0.012663859
-0.0028016001
0.005817013
0.008669193
0.0076569095
0.005231648
0.0021413697
-0.0040037637
-0.010378525
-0.015369772
-0.017181793
-0.01058028
-1.1789521E-4
0.0059949327
0.004644719
0.0021309934
0.0058625164
0.005386783
-0.005632233
-0.014838363
-0.014139677
-0.0063271783
0.0026826512
0.010363304
0.013766235
0.011083608
0.00887957
0.005627887
-0.0032356374
-0.010200414
-0.01213987
-0.007871156
0.0025848413
0.008564012
0.008176593
0.0057440833
0.0017250547
3.3214327E-4
-0.0039935247
-0.014780533
-0.016661296
-0.0063593956
0.0050166557
0.012974974
0.015978467
0.015338628
0.012309456
0.0054968074
-0.00419797
-0.014455333
-0.019209825
-0.013336327
-0.0013951124
0.007040828
0.009300215
0.010049246
0.008595508
0.0031779634
-0.004488178
-0.01338817
-0.015153397
-0.006769061
0.0018976441
0.0076869647
0.010940483
0.010095871
0.006611124
8.805521E-4
-0.0061894604
-0.011954154
-0.013944707
-0.008975121
0.0023321237
0.010999276
0.010118728
0.0054780343
0.003727755
0.0032148804
-0.0015452105
-0.011643231
-0.016497348
-0.009937621
9.641167E-4
0.010231697
0.013168417
0.008865692
0.0035764554
-0.0010467758
-0.0073355297
-0.012832036
-0.012827125
-0.0060444735
0.003943818
0.009585434
0.009215716
0.009040455
0.007851432
0.0036805617
-0.0016176593
-0.010735914
-0.01517531
-0.0059091165
0.0060955593
0.012288208
0.014058166
0.01165891
0.0060507585
6.3501764E-4
-0.003896391
-0.011299726
-0.016082535
-0.009916892
4.9342307E-5
0.0049634506
0.00538305
0.0050692637
0.0052371616
0.0030676376
-0.0043628337
-0.015367326
-0.019585224
-0.012210854
-5.8678316E-4
0.010091803
0.01447021
0.011663671
0.007868443
0.003854516
-0.0015599724
-0.009603497
-0.015043171
-0.009859217
-6.2556914E-4
0.0056188824
0.008358435
0.009377269
0.011036609
0.007768519
-2.5355466E-5
-0.0077944174
-0.013460329
-0.0082575865
0.0033716126
0.010160784
0.012820881
0.010315883
0.005180674
9.575402E-4
-0.0058876057
-0.012600238
-0.014718327
-0.011425691
-0.0033603287
0.0042483327
0.007147119
0.007091455
0.0071449867
0.004570921
-0.0039734943
-0.014117648
-0.017955387
-0.011423123
6.6704693E-4
0.010981612
0.016176134
0.014208726
0.008803585
0.004500022
-0.0013042043
-0.008570028
-0.012705261
-0.0107280025
-0.0028481153
0.005640031
0.008740561
0.007972098
0.008739572
0.00786743
-0.001007061
-0.012413433
-0.016593948
-0.011291368
-1.8742801E-4
0.009069154
0.011668436
0.010628886
0.00824501
0.00315589
-0.003471928
-0.0094173355
-0.013982607
-0.013701719
-0.0052688452
0.0049854754
0.008518097
0.008004274
0.007071019
0.0033542877
-0.0019880228
-0.008559431
-0.014501361
-0.010848162
4.6819422E-4
0.008475353
0.0110763805
0.009969366
0.0065466957
0.002396906
-0.0033472762
-0.009614731
-0.013566547
-0.011620051
-0.0011254449
0.009201173
0.009941735
0.0076157935
0.0076029915
0.0056710504
-6.0858735E-4
-0.010493913
-0.015365683
-0.008369718
0.0022617786
0.010139215
0.014874416
0.014134977
0.009107567
0.0025029858
-0.005383138
-0.0135436505
-0.016006643
-0.010044255
-0.0015603438
0.0061590844
0.008893416
0.0064664874
0.006616758
0.0043036584
-0.004092845
-0.011742241
-0.017332217
-0.015005767
-0.0035229893
0.006202675
0.011228789
0.012754045
0.009877694
0.004303624
-0.0014208914
-0.007181317
-0.013081815
-0.0130169615
-0.004144227
0.005964123
0.010430155
0.009466162
0.00797262
0.0065910066
0.0019105303
-0.0055943965
-0.011883372
-0.009897438
5.311676E-4
0.009955606
0.014092882
0.013360157
0.008833954
0.0034417934
-0.0037466832
-0.0132902395
-0.01818512
-0.014797283
-0.007394707
0.001807031
0.007758135
0.006396492
0.0053949156