-0.0076313405
-0.0038375661
-6.103841E-4
8.9595007E-4
0.0014043626
0.0038350513
0.004864899
-3.9345768E-4
-0.004799251
-0.00451113
-0.004423897
-0.004132591
-0.002182301
0.001064847
0.0073148715
0.011769173
0.008252188
0.0020177846
-0.0026803894
-0.0070254942
-0.0076459358
-0.004636292
-0.001270905
0.0037745878
0.008409758
0.009168327
0.0058405497
-0.0018586755
-0.0069362163
-0.003921324
-0.001686461
-0.0033290184
-0.002911559
-3.7612452E-4
0.005174382
0.009823839
0.0049867923
-0.0035107676
-0.008047522
-0.009222653
-0.007179142
-0.0040371493
-8.05493E-4
0.0024211651
0.0051671593
0.008568619
0.008012108
0.0020753734
-0.0030492286
-0.005208948
-0.003029479
1.8619873E-4
-0.001377502
-0.0011648836
0.005518302
0.010562251
0.007223139
-0.0015194835
-0.007139157
-0.0075227073
-0.006990756
-0.0058546253
-0.0034004985
4.145036E-4
0.0063095666
0.009697022
0.006857583
0.0019644937
-0.0016387814
-0.004227037
-0.005525869
-0.005684559
-0.0055684173
-0.0035682053
0.0028456305
0.009225962
0.009186285
0.0046010865
-0.0011642175
-0.0058924286
-0.0067589036
-0.005688405
-0.0035594378
0.001302492
0.005664906
0.007986142
0.008921245
0.0047141914
-0.0022994028
-0.004190451
-0.0036678454
-0.0051638833
-0.0046669594
-0.0016346619
0.002417868
0.0068322667
0.005955567
-1.568051E-4
-0.0046620946
-0.0060902894
-0.004942158
-0.0018148122
-0.0011316367
-0.002474271
0.0016678509
0.009057542
0.009128428
0.0027016336
-0.0032770317
-0.006437291
-0.005656613
-0.0030547306
-0.002513848
-0.0019879353
0.003707295
0.0100770295
0.00797589
5.954355E-4
-0.0052344617
-0.0073952703
-0.0055742064
-0.0038835616
-0.0027513078
9.099012E-4
0.006094572
0.009647877
0.0076216594
0.0020620546
-0.003621749
-0.0072900094
-0.004034003
7.9392456E-5
3.7318742E-4
0.003155494
0.0076300893
0.010987953
0.00774781
-0.0037193466
-0.009837299
-0.009363416
-0.009738652
-0.0073858923
-0.0029414177
2.783202E-4
0.0033701728
0.0062402156
0.0073546725
0.0037854288
-0.00277388
-0.0060104257
-0.0055918614
-0.0048966026
-0.0028698537
0.0016249628
0.006914792
0.011304058
0.00924108
2.2760252E-4
-0.0053353156
-0.0057146866
-0.0060939207
-0.0047012125
-0.0014734502
0.0018635534
0.00591265
0.008250103
0.0064063217
0.0010698929
-0.0041889925
-0.005049212
-0.003516892
-0.0039201435
-0.003624826
1.5932892E-4
0.0052183475
0.008272473
0.005394819
-8.4007665E-4
-0.0040758704
-0.005891201
-0.0067483257
-0.004212817
-0.0016095793
-2.2981083E-4
0.0032377895
0.008514826
0.009661947
0.0026856405
-0.0052887616
-0.0055819713
-0.002731476
-0.0032889254
-0.0034403987
-4.519048E-5
0.004582018
0.0081262905
0.0076041576
0.0023981114
-0.003851705
-0.0069395266
-0.0070558963
-0.0073045013
-0.0049534566
4.0276747E-4
0.004638827
0.008720827
0.009377133
0.0039648106
-0.00126053
-0.0026966813
-0.0019309109
-0.0043555787
-0.008572329
-0.005220497
0.0036785312
0.0092275515
0.0078410935
0.0027106777
-0.0021473586
-0.0077987947
-0.010342182
-0.0067291693
-0.0018198411
0.002684224
0.006302122
0.0092188595
0.009776464
0.0033261895
-0.004020753
-0.00474188
-0.0035126512
-0.0045212037
-0.0046627633
-8.3536876E-4
0.006456792
0.011879374
0.008373084
-1.8293782E-4
-0.004540848
-0.0062176464
-0.00807323
-0.0067092716
-0.0021200427
8.951015E-4
0.0024582332
0.006122943
0.0075278445
0.0034835313
-0.0020563048
-0.0063331886
-0.0063305553
-0.004457327
-0.004253603
-0.001585918
0.0039055313
0.009525028
0.010460334
0.0028146724
-0.005176135
-0.0074079647
-0.006591462
-0.004735335
-0.0020209858
0.0026792185
0.0069141686
0.008498619
0.008022371
0.0033971542
-0.0025351318
-0.0046432544
-0.0047953334
-0.0053719147
-0.004944295
-0.0021499328
0.0024236368
0.007737478
0.009502083
0.004396992
-0.0026964054
-0.007785529
-0.00936959
-0.0059414115
-0.0023341756
-3.4153913E-4
0.0042582406
0.008383199
0.0072954176
0.002906766
-0.0023435836
-0.005298763
-0.004079043
-0.0030756907
-0.0032691858
-0.0017109241
0.002855711
0.010469797
0.011884486
0.0034166453
-0.0036007657
-0.007790193
-0.011235541
-0.0089296745
-0.0037873655
-5.043786E-4
0.0024123427
0.0066299182
0.009123395
0.0050118985
-0.001987666
-0.0043942127
-0.0028119413
-0.0015501311
-5.923821E-4
7.6403737E-4
0.0024311196
0.007151047
0.01037629
0.0046611694
-0.0049489196
-0.010491227
-0.009084818
-0.0044243797
-0.0022856041
1.4769085E-4
0.0050938334
0.0090075135
0.008703863
0.0038116958
-0.0019099104
-0.005821838
-0.00670526
-0.0058852048
-0.005582177
-0.0034513657
1.8284998E-4
0.005673523
0.0097598545
0.0040560397
-0.0031561
-0.0051098512
-0.007029702
-0.0043715253
9.771596E-4
0.0020491953
0.0038849572
0.0074142395
0.009054176
0.005847713
-0.0011653795
-0.003541746
-0.0044361292
-0.0076878644
-0.0056560687
-0.002353191
8.272404E-4
0.008901771
0.011074512
0.004579545
-0.0027492433
-0.008526581
-0.008515156
-0.0065893875
-0.0056680692
-7.690444E-4
0.005133231
0.009801298
0.008874635
5.3302216E-4
-0.0041284007
-0.004299389
-0.0045076218
-0.0032349122
-0.00164157
-4.771612E-4
0.001419316
0.008000585
0.012481639
0.0053011877
-0.001927695
-0.0047753067
-0.008663634
-0.008941777
-0.006641935
-0.0033251748
0.0021530334
0.0074479408
0.010840355
0.008095566
0.0016526504
-0.0031640274
-0.006113083
-0.0046472247
-0.002664785
-0.0034419354
2.7108728E-4
0.008504681
0.010484023
0.0021515568
-0.0060817483
-0.007999541
-0.008022294
-0.0060163625
-0.0027239455
-6.0552586E-4
0.0026359067
0.0060465913
0.0075324737
0.0062250807
8.736581E-4
-0.0038264147
-0.0025008053
-9.250034E-4
-0.0041135717
-0.0028044265
0.005285609
0.00978773
0.009096582
0.0047233324
-0.002535298
-0.007540467
-0.009304256
-0.0080058705
-0.004244914
-0.0016108892
7.515729E-4
0.0053124507
0.008552572
0.004892325
-0.0015979182
-0.0045060203
-0.0067342017
-0.0069133705
-0.0028517952
4.922009E-4
0.0037179238
0.007702684
0.009010191
0.004986964
-0.002923642
-0.006777967
-0.0063044257
-0.0053604734
-0.0027157164
3.3464885E-4
0.0055400617
0.009921871
0.008402998
0.0061312323
5.6158256E-4
-0.006757786
-0.0064127143
-0.00414871
-0.0033549105
-0.002170405
3.033937E-4
0.0072511067
0.008987669
0.002039767
-0.0039328123
-0.007703414
-0.007162559
-0.004260546
-0.0025019348
0.0024857258
0.0047572874
0.0034217252
0.005224418
0.003365766
-0.0029090946
-0.006375492
-0.005397036
-0.0021894698
-0.002531173
-0.0036602758
0.0010017317
0.008183316
0.011188175
0.0061627747
-0.002268504
-0.007433896
-0.0076959548
-0.0040790453
-0.0022426893
-9.0593944E-4
0.0050148154
0.010631403
0.012397295
0.008487484
-0.0010256621
-0.008235534
-0.0095525775
-0.0072035333
-0.0036092203
-1.21007826E-4
0.0040915376
0.008218512
0.009488212
0.004199556
-0.005340284
-0.010127211
-0.009769705
-0.008179625
-0.0040212623
5.247824E-4
0.0031188647
0.006416661
0.008069382
0.004432364
-2.0958149E-4
-0.003043034
-0.005139494
-0.0051572924
-0.002954826
-4.0831362E-4
0.002761055
0.009357249
0.013939806
0.008331227
4.5872453E-5
-0.0072308844
-0.014094976
-0.010058149
-0.0019901837
-6.192166E-4
0.0025907266
0.0074184234
0.009124383
0.007008021
-4.2323564E-4
-0.0053648404
-0.005357529
-0.0055978624
-0.0039993403
-6.860558E-4
0.0026505236
0.0062777316
0.0068743005
0.0048667016
0.0010680521
-0.0068698
-0.012320174
-0.009910804
-0.0056119366
-0.0022259117
0.0026528814
0.0094630895
0.01305102
0.00815824
9.60719E-5
-0.004719223
-0.005515118
-0.004890616
-0.007023146
-0.0057452177
0.0033241818
0.009481287
0.008699234
0.006263686
0.002442937
-0.0027709077
-0.005992795
-0.005499
-0.0039168107
-0.004818931
-0.004773602
0.00229797
0.0102549065
0.010347185
0.0050737103
-7.555671E-4
-0.0035203309
-0.003960807
-0.0042754556
-0.0029730857
-0.0016509454
0.0040168623
0.010033077
0.0020948222
-0.0075460393
-0.007849144
-0.005574572
-7.6253E-4
0.0010917658
6.255904E-5
0.0012606103
0.0011046649
0.0029311443
0.0036422787
-5.313492E-4
-0.0029487368
-0.005006609
-0.0056241895
-0.0030002932
-1.2097954E-4
0.004301055
0.007872979
0.0092414245
0.0067042313
-0.0012299288
-0.0055822036
-0.005268955
-0.0063328906
-0.0060547558
-0.002226898
0.0030477718
0.006871063
0.008655327
0.009093753
0.0037295355
-0.0053120838
-0.006661646
-0.003698656
-0.0049990816
-0.003336517
0.0025441402
0.0061149113
0.008258725
0.006061377
3.2868676E-4
-0.0024686174
-0.0054888884
-0.008469902
-0.005737902
-8.39852E-4
0.0016482276
0.0044543417
0.006962916
0.0029704915
-0.0047851666
-0.008902372
-0.008995363
-0.0065869223
-0.0028480508
0.0020873516
0.0073737414
0.010707687
0.010966537
0.004860404
-0.0049789706
-0.009757571
-0.008572924
-0.0056947344
-0.003618544
-7.4106106E-4
0.0042670346
0.009136411
0.013323215
0.012568026
0.004964411
-3.138178E-4
-0.0014287566
-0.0032275876
-0.0034213825
-0.003143759
-0.0052884095
-0.00387757
5.0298724E-4
4.5948883E-4
-0.0018904501
-0.004506316
-0.004803762
-0.0011723493
-0.0035030537
-0.006723559
-0.0011060967
0.004028234
0.008104695
0.008636324
-0.001740452
-0.007370166
-0.0012086763
0.002130815
-0.0019073649
-0.004831048
-7.4306654E-4
0.0050065927
0.007756589
0.009118071
0.006722214
0.0010809032
-0.0018091234
-0.0025060948
-0.0035382882
-0.0014823488
0.001266358
5.7045463E-4
0.0016453397
0.0020223765
-0.0028545456
-0.0066509424
-0.0074986927
-0.0065427627
-0.004360699
-0.0019451785
0.0032859806
0.010030208
0.014319843
0.013398768
0.0064227707
-0.003877164
-0.012436085
-0.01314444
-0.009609657
-0.0077991583
-0.0043495554
0.0017312234
0.007802789
0.009756102
0.007372175
0.0051174066
0.0030832463
0.0028833821
0.0015451752
-0.004083002
-0.008481754
-0.00974233
-0.0053857015
-0.004297806
-0.010917695
-0.0055329856
0.0026367034
-0.0023460009
-0.0031970805
0.002999864
0.007914899
0.012218291
0.015019344
0.012654398
0.0011603776
-0.00904957
-0.009786817
-0.006939231
-0.0023640005
-6.79448E-4
4.8631887E-4
0.008136215
0.0116214
0.006620829
0.0014805545
-0.0024729564
-0.0047738077
-0.0033907066
-0.0011120401
1.8511865E-4
0.0024570788
0.0029703309
0.0012146311
0.0018460451
-1.2242502E-4
-0.007029842
-0.009753032
-0.0065636416
-0.004399612
-0.004557801
-0.0014474835
0.0047434065
0.010147006
0.0119435
0.00580298
4.8586546E-5
0.0013110988
-0.0011888923
-0.0051643527
-9.4047043E-4
0.005080393
0.005828832
0.0035869018
0.0012608361
-0.0056752246
-0.015422458
-0.01753604
-0.015742708
-0.0148262335
-0.011892366
-0.009211161
-0.0030783769
0.005337646
0.00530779
2.7421684E-4
-0.0038014993
-0.004969658
-0.0013356403
0.0016735948
0.0059474064
0.014030412
0.021464476
0.030620662
0.035337616
0.030922964
0.026856482
0.019224597
0.005381632
-0.0042418195
-0.011297103
-0.01730068
-0.01157001
0.003456648
0.0064570303
-0.0101796845
-0.029508965
-0.03913511
-0.039730106
-0.033729058
-0.023576714
-0.0093503175
0.0042929715
0.010354557
0.014149458
0.01655275
0.012861913
0.014138649
0.020091116
0.017358864
0.011260343
0.0034708376
-0.0064994833
-0.006851767
-0.0017093314
-5.227491E-4
-0.0064056707
-0.018369839
-0.022779694
-0.022265391
-0.023623675
-0.016364813
-0.0072255237
-0.0021474634
0.0041718786
0.0058338833
0.004920782
0.0020325372
-0.0027693447
0.005337571
0.021645138
0.0324408
0.03965965
0.042859375
0.041083824
0.03648847
0.030669851
0.026437072
0.025505882
0.023735285
0.008071544
-0.019731062
-0.037262604
-0.03958463
-0.041139554
-0.04708639
-0.05095301
-0.047883373
-0.037780363
-0.025506418
-0.020936746
-0.018826498
-0.010295758
-0.0072018295
-0.0102662975
-0.00827211
8.753399E-4
0.014508616
0.020669041
0.025597967
0.037261862
0.035492044
0.030099964
0.036715917
0.03146142
0.008624306
-0.009465845
-0.0058188783
0.008843311
0.010990419
0.007645597
0.00835229
0.008276581
0.018559195
0.042390168
0.048246365
0.014221879
-0.03303546
-0.063865796
-0.0688407
-0.054621626
-0.056186944
-0.06259398
-0.03173158
0.0053071906
0.011671693
6.62652E-4
-0.009800574
-0.00995818
-0.0052461163
-8.106355E-4
0.008184637
0.018113494
0.019334903
0.018900383
0.03342475
0.045748588
0.04739912
0.061523553
0.076311186
0.076432765
0.06281194
0.031077642
8.193024E-4
-0.018184585
-0.037545208
-0.065871954
-0.10291235
-0.107502066
-0.068078846
-0.036913924
-0.015081846
0.020756513
0.03806505
0.023797601
0.008438224
-0.005412899
-0.031065095
-0.04768229
-0.03217676
-0.0052802786
0.008338936
0.01666333
0.018343588
0.008517159
0.009874547
0.023499383
0.030635795
0.039270643
0.05180211
0.047043182
0.018480554
-0.018343935
-0.05029692
-0.07411698
-0.092567295
-0.10537064
-0.09681407
-0.05994534
-0.013112179
0.02874444
0.067736976
0.10712189
0.13354665
0.13358594
0.116525725
0.10023842
0.09235734
0.074543566
0.034187637
-9.965457E-4
-0.019403504
-0.03811055
-0.055468563
-0.06968578
-0.09248628
-0.11675875
-0.12513308
-0.12034607
-0.09965051
-0.05514721
-0.0075407797
0.022041617
0.028820582
0.030388508
0.040854152
0.035462607
0.027364822
0.029645463
0.002105015
-0.027384961
-0.021100316
-0.007855868
0.0042773266
0.011716312
0.009679789
0.008449973
0.011833046
0.025288465
0.034032743
0.034782227
0.036902744
0.024505291
0.01139839
0.0021650884
-0.028594827
-0.062022667
-0.07890279
-0.07671814
-0.050455846
-0.016737133
0.019667514
0.06635632
0.1139213
0.15105708
0.17998919
0.18873784
0.13010196
0.030298544
-0.020896923
-0.04466492
-0.08879039
-0.1279182
-0.15612273
-0.14916365
-0.09260726
-0.06062183
-0.0699521
-0.06780683
-0.059111334
-0.048473872
-0.016138563
0.013182387
0.016783215
0.0061048334
-0.013933145
-0.024204034
-0.004007492
0.020613922
0.020481864
1.0552433E-4
-0.015083855
-0.0063605127
0.023046112
0.07532037
0.13244651
0.16149886
0.16125627
0.123584814
0.06765803
0.042769197
0.0397744
0.04008963
0.033799514
0.0019068888
-0.035747234
-0.054759063
-0.053071342
-0.05470475
-0.080513895
-0.09139205
-0.07371729
-0.06462931
-0.068828784
-0.07234075
-0.06885245
-0.064934164
-0.06407442
-0.054468356
-0.040869627
-0.03156292
-0.02423462
-0.018224971
-0.013582567
-0.0060810214
0.018110108
0.050173774
0.065241225
0.0741707
0.09887397
0.12639338
0.13570394
0.13766824
0.12715384
0.07756263
0.014700478
-0.034003716
-0.075074255
-0.095337585
-0.08439493
-0.058574554
-0.037198212
-0.006107761
0.03836769
0.044615574
0.017820565
9.0543047E-4
-0.0168705
-0.02781357
-0.02791674
-0.04472222
-0.06451405
-0.05959342
-0.03299777
-0.004759547
0.012448641
0.01602601
0.01137142
0.0149754565
0.013113402
-0.0076277982
-0.016530048
-0.007651107
0.0031010523
0.011473118
0.0087660635
0.0029549296
-0.0011538619
-0.017708333
-0.037173275
-0.038071018
-0.020635832
0.0050090533
0.031205324
0.047278196
0.048555158
0.04410608
0.039846245
0.035589572
0.032870308
0.03073805
0.025713941
0.019506767
0.018246137
0.016942672
0.005098442
-0.0140299555
-0.03289627
-0.04791021
-0.054566637
-0.052040093
-0.04623418
-0.039445043
-0.02848662
-0.017347066
-0.008043948
-0.0018331191
-0.0070053227
-0.012391775
-0.012209381
-0.021113714
-0.024205243
-0.010022421
0.0027671822
0.012142228
0.0201038
0.023634465
0.028628126
0.034112044
0.04270805
0.060156897
0.072673224
0.07007285
0.06017221
0.03953982
0.0047031064
-0.01855517
-0.016128702
-0.010337165
-0.017575573
-0.03449509
-0.048708417
-0.04811437
-0.035859466
-0.023593584
-0.02044274
-0.027221128
-0.033420652
-0.031811338
-0.025547547
-0.01840011
-0.010154065
-0.002604487
0.0036787312
0.011683821
0.015621883
0.0122836055
0.010253357
0.01222391
0.014334255
0.014749714
0.015188206
0.017402118
0.021297244
0.023956792
0.016457884
0.0037932238
-0.0013231259
-0.0035234692
-0.003338086
1.9139562E-4
0.0010446772
0.0031116067
0.0023362949
-0.0019957325
0.002954467
0.0074838395
2.870443E-4
-0.006508908
-0.0066292654
-0.0058860662
-0.0070680096
-0.007013087
-0.0034164316
3.2282196E-4
0.0016313784
6.2858465E-4
-0.0034160253
-0.0069751246
-0.0050819293
2.2523224E-4
0.0031248883
-0.0022705428
-0.0075914995
0.001527891
0.008421876
3.7010654E-4
-0.004769075
-0.006101084
-0.0077069197
-0.0032691082
3.2051216E-4
0.00279316
0.009662037
0.01362862
0.010564605
0.0078032147
0.009437282
0.0062310314
-0.0023463867
-0.0077988734
-0.013099114
-0.015176357
-0.010030827
-0.0029626084
0.0013287967
-0.0076862574
-0.019233482
-0.011112599
-8.157194E-4
-0.0038115503
-0.0040956945
0.0033297872
0.011131167
0.01600346
0.014075237
0.0045303856
-0.0057403604
-0.010046587
-0.008715552
-0.0043672603
0.0015252525
0.008216789
0.01587581
0.020317271
0.016417813
0.012334798
0.0147549175
0.013114002
0.008626276
0.00884944
0.0036093586
-0.0013744466
0.004231015
0.0044791177
-0.0060044173
-0.018192317
-0.02717454
-0.029109752
-0.027938012
-0.022981742
-0.011193752
-6.3768093E-4
0.0045351363
0.006565351
0.0077659767
0.0044182925
-0.0034643651
-0.0030038645
0.0010054894
-0.001971745
-0.0032704216
-6.7563035E-4
0.004805596
0.01249868
0.012484776
0.0036916288
-0.005506508
-0.008242788
-0.0044734743
0.0028490406
0.012300924
0.016226424
0.016870327
0.019946605
0.013520785
-0.0024905887
-0.01262033
-0.011389216
-0.0057919
-0.0048151654
-0.006142868
-0.0073593687
-0.0066234744
0.0011664772
0.004799778
-0.0027841337
-0.010115271
-0.011663943
-0.008482739
-0.0040316875
-4.940866E-5
0.005523062
0.008220003
0.0048637064
-0.0010224088
-0.0055558416
-0.0059295455
-0.004035301
-0.003398728
-0.003132893
1.0854496E-4
0.0076354356
0.016920025
0.024003886
0.025681963
0.02060632
0.0109870145
0.0031269502
-0.0010118015
-0.008742413
-0.02045403
-0.024549825
-0.016930766
-0.005659686
0.0017371858
0.0023185024
-0.0020756838
-0.0062290286
-0.008616967
-0.009046443
-0.0076602455
-0.0057277135
5.3422275E-4
0.00696848
0.0037245636
-0.002315836
-0.0047043036
-0.006196983
-0.0033876211
0.001612863
0.0039319517
0.009571806
0.016680289
0.018516578
0.019631665
0.015694614
0.0063919844
0.0043985136
-0.004170493
-0.019164952
-0.012275389
8.542416E-4
0.0028998076
0.0061969417
0.0032819316
-0.0058301077
-0.010883045
-0.014530704
-0.012501274
-0.0065516015
-0.003680891
4.6601574E-4
0.008379053
0.0138683515
0.010395193
0.0027899167
-0.003373727
-0.007874167
-0.0074008093
-0.006489512
-0.007989782
-0.0044399947
0.003688214
0.009843386
0.00993842
0.007114574
0.0047800886
-0.0023287477
-0.008637215
-0.004587225
0.0012318015
0.003239633
0.006380952
0.008379174
0.0047390596
-0.0031713536
-0.009236056
-0.008426826
-0.0052835727
-0.002762892
0.0024479285
0.008403719
0.014510072
0.020068849
0.017304063
0.0044998075
-0.010101922
-0.01833742
-0.02188989
-0.023370234
-0.017439058
-0.006088127
0.0041175825
0.009027135
0.007192971
0.0046389634
0.001849493
6.615363E-4
0.0033443084
-6.4737635E-4
-0.0060524293
-0.0033172795
0.0018890101
0.009788696
0.01271022
0.00561635
7.5106545E-5
-0.0037379928
-0.0027522533
0.006547106
0.008765549
0.0041487305
0.005923778
0.008512744
0.0050487835
-5.868604E-4
-0.0071238605
-0.010849339
-0.00803341
-0.006668033
-0.007815405
-0.005394388
-0.0012918528
0.003615926
0.0045606727
-0.0014486116
-0.0068567847
-0.009213903
-0.008765841
-0.0068030665
-0.0037993293
0.0028746806
0.007896552
0.010087381
0.011717791
0.008502287
0.002303542
-0.0017958139
-0.0020226648
-0.001919507
-0.00412659
-0.0028788433
0.0021624756
0.006731062
0.0072133313
5.8329094E-4
-0.007878218
-0.010183669
-0.0057501253
-0.003833384
-0.0041237674
0.003103834
0.009422016
0.00916628
0.009131736
0.007614853
0.0035163003
4.9967703E-4
0.0012474813
0.0012828126
-0.0015399756
-0.0011220184
-7.310941E-4
4.7898563E-4
0.0025945597
-0.0014835387
-0.0050208746
-0.0074996767
-0.007818117
-0.0033530185
-0.0052971025
-0.005992911
-0.0031178822
-0.0025704606
0.0073369667
0.010702121
-0.0047479714
-0.016736215
-0.01892073
-0.014666993
-0.0058121374
0.001759747
0.0093994215
0.017607875
0.020550484
0.015378358
0.008847777
0.0046932017
4.9316568E-5
-0.0019130758
-0.0025379192
-0.0038639964
7.4709504E-4
0.008164794
0.008714366
0.0019441473
-0.0057534236
-0.007913323
-0.003993308
-2.7799155E-4
-3.616887E-5
0.0014430269
0.0054745707
0.008682261
0.007377168
-0.001634876
-0.011907744
-0.017116431
-0.018004624
-0.012325801
-0.004642041
-0.0014574783
0.0023788568
0.0074102464
0.008060349
0.006090232
0.0031365193
-0.0012716562
-0.0029516395
-0.0023388618
-0.0031460905
-0.0020692314
0.0028870893
0.0094268145
0.011247541
0.0033324026
-0.004779853
-0.0066343616
-0.0074501066
-0.005914358
-2.002819E-4
0.0054917852
0.007930654
0.00920156
0.01221356
0.0092847105
-0.0010675247
-0.0059614107
-0.004890263
-0.004537307
-0.0038922457
-0.0034738933
-1.2808174E-7
0.008665277
0.011407735
0.003908817
-0.0049918415
-0.009310909
-0.009590699
-0.009025812
-0.0069017606
-0.0026869776
9.071802E-4
0.0050604525
0.007762387
0.0037018296
-0.0052810716
-0.011493107
-0.009837889
-0.0072550615
-0.007748726
-0.0034344639
0.0048134215
0.011591447
0.014033486
0.008566919
0.0011827543
-0.0026438073
-0.0051953923
-0.0058073583
-0.004071173
3.1481404E-4
0.0074564586
0.0130602885
0.0138392
0.009657506
0.005655838
0.0067591527
0.005921728
-0.003155455
-0.012555431
-0.012114179
-0.0026205552
0.004796543
0.0029977546
-0.0042709718
-0.011449119
-0.011643487
-0.0046369745
-0.0024526701
-0.0041523715
-6.5634085E-4
0.0038589064
0.0073241955
0.00905142
0.0037878866
-0.003713566
-0.00675616
-0.0063677467
-0.005814664
-0.0055362084
-0.0015855116
0.004986027
0.010381035
0.01305834
0.007451373
-0.0029755533
-0.0066532018
-0.0054387865
-0.0046166023
-0.0032090957
-9.4589085E-4
0.0026227366
0.0051385425
0.004248914
9.2004635E-4
-0.003981625
-0.00676991
-0.0056612017
-8.539762E-4
0.0045715584
0.0039236154
0.004919263
0.011287959
0.010071411
0.0035928567
-0.0025025862
-0.009167505
-0.009095671
-0.0037960247
-3.2145667E-4
0.0012313286
0.0031354176
0.006281894
0.0063941935
0.004898895
0.0022181375
-0.0027596194
-0.0024348875
-0.0019600736
-0.0030027558
-6.181898E-4
-0.004608598
-0.004982207
0.0056123296
0.006670982
-0.0013162479
-0.0076328134
-0.012057606
-0.012029205
-0.008997389
-0.0041944836
0.0028485218
0.00888881
0.009734276
0.0038046325
-0.004764581
-0.008931484
-0.005181051
-0.0024256785
-0.004787401
-0.001786428
0.006170398
0.014337235
0.017430725
0.009688879
0.0021871119
-0.001959568
-0.0062914924
-0.0053708516
-0.004047712
-0.0016026694
0.0063001993
0.009404544
0.0053346725
0.0021966384
0.0029995248
0.0036528567
0.0024325817
0.0020869249
-2.4853924E-5
-0.00525499
-0.008243323
-0.003865981
0.0022799869
5.6148076E-4
-0.0039383387
-0.007162642
-0.009938055
-0.0071841613
-0.0023107138
1.8260884E-4
0.002639222
0.0062635476
0.008503616
0.0037074396
-0.0038482463
-0.007201115
-0.006956545
-0.004683291
-0.005239599
-0.0069025415
-0.0021683597
0.008006513
0.013868918
0.0072136456
-0.0016181611
-0.004281057
-0.0066495445
-0.005207
1.4532653E-4
0.001571316
0.0015447502
0.005691618
0.011033499
0.00802927
-6.512924E-4
-0.0042104665
-0.0035381075
-0.0018407741
9.427449E-4
0.0044613215
0.008145452
0.011581249
0.012144038
0.004561387
-0.0038869397
-0.006276046
-0.00943016
-0.0101833735
-0.00610188
-0.0050501907
-0.003516683
0.0037313364
0.009828292
0.008139047
4.9754715E-4
-0.00877217
-0.012857883
-0.008733701
-0.006700955
-0.0071060294
-8.15637E-4
0.0066496544
0.009675542
0.008505448
0.0029044785
-0.003444233
-0.0065080826
-0.004836211
-0.0030630585
-0.0032067394
5.8887945E-4
0.005400552
0.0056733796
0.0041026524
0.0014223446
-0.0027059386
-0.0045868657
-0.0036282581
-0.002884764
-7.6440925E-4
0.005084998
0.011835489
0.0136544015
0.0071508824
-8.515635E-4
-0.0043670116
-0.0061582564
-0.0058379946
-0.0035025429
-0.0014559261
0.0014664466
0.004983943
0.008557579
0.011016958
0.009252207
0.003779547
-0.0015807318
-0.003434
-0.0022154686
-0.0012664656
-0.0020199986
-0.002119043
-0.0012313252
-0.0051576896
-0.011637934
-0.011586707
-0.009089775
-0.009803594
-0.009546091
-0.008714369
-0.006899644
1.09941866E-4
0.005327175
0.004380327
0.0017717172
-0.0022935919
-0.0023626783
0.0019038306
0.0011854438
0.0011976128
0.006888387
0.013208729
0.016863361
0.011025231
1.2697936E-4
-0.0037900542
-8.093723E-4
0.0041840803
0.006875047
0.009628596
0.013864046
0.01499993
0.015394305
0.011359042
-0.0014427828
-0.012328927
-0.016426317
-0.018114444
-0.01972062
-0.01918579
-0.012102722
-9.6527033E-4
0.0061402363
0.0034179883
-0.0043553608
-0.007420496
-0.00833941
-0.010432412
-0.008131071
-0.0022213014
0.00250307
0.0060635926
0.007952867
0.0075035547
0.0057595316
0.0026193173
7.2160905E-4
0.0018607599
0.0016938839
2.3753745E-4
0.0029013527
0.010281814
0.013896884
0.007558838
1.7378255E-4
-0.0032275259
-0.0057719774
-0.0047609936
-0.0041378383
-0.0058565075
-0.0029850798
0.0030593777
0.009587837
0.011867601
0.0050033843
-0.00204089
-0.0034583693
-0.002905097
-0.0030064073
-0.0042510647
-0.0019642515
0.0049799536
0.009211977
0.0052564326
-0.00394395
-0.009430536
-0.010175001
-0.010976214
-0.009453059
-0.0066448306
-0.00509531
8.0799696E-4
0.007800608
0.0067174733
0.0010189159
-0.0020826715
-0.0012115979
2.1035247E-4
-4.7456566E-4
-8.838845E-4
-2.0532837E-4
0.0027527893
0.007403114
0.00659952
5.400059E-4
-0.0051586744
-0.0074581653
-0.0045175147
0.0010845225
0.007197101
0.010901801
0.01041197
0.0090953875
0.004078582
-0.0047237473
-0.011547431
-0.015008538
-0.011726976
-0.0044264235
8.029968E-4
0.005330119
0.010158085
0.0168154
0.01870024
0.00945039
0.0013615431
-0.0021326456
-0.008531712
-0.012600943
-0.010807703
-0.006959373
-0.0020161662
0.0016064482
0.0022106178
9.770214E-4
-0.004268295
-0.00970417
-0.0078803785
-0.0056596114
-0.0059308405
-7.1230164E-4
0.0060790023
0.009191444
0.008292864
9.3011005E-4
-0.006272643
-0.0060333703
-0.0038286238
-0.003292296
2.1797736E-4
0.0051533016
0.008255596
0.012036386
0.011949787
0.006429966
0.001442582
-0.003019644
-0.004261902
-0.0031895635
-0.003539751
6.698321E-5
0.0055776634
0.009272622
0.009655421
0.0012399732
-0.008638865
-0.012680918
-0.013528929
-0.010795764
-0.0051688394
0.0017655636
0.006272157
0.0065077045
0.0066334372
0.0030500558
-0.004210205
-0.005287859
-0.0017851706
-0.001050903
-0.002782869
-0.0037110613
-3.651685E-4
0.006052534
0.006783814
9.683643E-5
-0.005045385
-0.006042575
-0.005943511
-0.0044353106
-0.0012375452
0.0033097952
0.0094353175
0.0152716385
0.014991458
0.0074315104
-1.0560474E-4
-0.0044454676
-0.0057496284
-0.005309311
-0.005742524
-0.003035648
0.0033288652
0.007730232
0.006595887