-0.04156584
-0.03853329
-0.023755416
0.0010309314
0.018040672
0.04251746
0.045355853
0.024740748
0.029517949
0.04649224
0.052690685
0.044438653
0.034748062
0.0383182
0.04062011
0.046997998
0.05502185
0.055675205
0.050985925
0.032824177
0.022882767
0.013660512
-0.008885017
-0.013284912
-0.020903634
-0.04208367
-0.04448157
-0.034773983
-0.026536375
-0.023509176
-0.015905283
-0.008175581
-0.01209531
-0.008463665
-0.010163311
-0.02518501
-0.03856827
-0.059750564
-0.06731289
-0.05204261
-0.038420465
-0.024626864
-0.013560108
-0.011631323
-0.01393265
-0.012069207
-0.0052460055
-0.004556464
0.005954943
0.034035366
0.049858242
0.049572874
0.055006664
0.057936076
0.042053413
0.02926454
0.029563095
0.031495817
0.03709873
0.033532105
0.031612795
0.045190852
0.03663614
0.007895387
-0.0117442915
-0.024150282
-0.032742802
-0.045064613
-0.05334577
-0.042980213
-0.032667812
-0.05320631
-0.08585277
-0.07045972
-0.027212763
-0.014378937
-0.0161165
-0.012584457
-0.0026685814
-6.227696E-4
-0.016529236
-0.0068812747
0.02265461
0.033881504
0.037708607
0.030053047
0.027233304
0.037615642
0.019216718
-0.0012887772
0.0049535395
0.005072195
2.1073662E-4
-0.010666032
-0.03983789
-0.067176595
-0.07772109
-0.064332694
-0.03539488
-0.0098195225
0.01453824
0.029828755
0.026667602
0.022960238
0.029972969
0.03493444
0.027392205
0.022405235
0.031791557
0.04593989
0.056631546
0.05941932
0.06222958
0.06166764
0.038652528
0.014400822
0.006914609
0.0035153453
0.006130802
0.0063125063
-0.0071828584
-0.02673912
-0.05130786
-0.08114562
-0.10426437
-0.1008391
-0.08267678
-0.07441558
-0.058454163
-0.03163449
-0.0099627115
0.010028945
0.021199554
0.027390348
0.034473445
0.030170774
0.02221705
0.018142276
0.02002705
0.03215846
0.03793772
0.033040103
0.031079123
0.030177085
0.02568081
0.022947464
0.023080973
0.015159236
2.1151682E-4
-0.0069983248
-0.004765131
-2.7870573E-4
-4.6992538E-4
-0.002420332
-0.0028911727
-0.012208175
-0.022299668
-0.02068392
-0.016669909
-0.010589493
3.0723002E-4
0.008095
0.010585731
0.009597089
0.0023819746
-0.011174667
-0.018673658
-0.01110475
0.0034211366
0.01376175
0.018938743
0.020837756
0.013402074
6.473286E-4
-0.0047517093
-0.0076473267
-0.015994791
-0.023633886
-0.020189524
-0.010800945
-0.0031604597
0.008557453
0.010662002
0.0028318337
0.011630644
0.022887174
0.021145279
0.015092975
0.004013911
-7.7428436E-4
0.0017707868
-8.6877984E-4
-0.0023197583
-0.0016566042
-0.004665443
-0.0036383707
0.004710214
0.002294639
-0.010009629
-0.011625907
-0.013785325
-0.018190471
-0.012184267
-0.0056317723
-5.246912E-4
-0.0015592264
-0.00317754
0.005562382
0.007970337
0.011810121
0.018909963
0.012826206
0.014626445
0.024055324
0.019256555
0.0073850667
0.0015677136
0.005663903
0.009338764
0.006262508
0.009130477
0.02396126
0.033054754
0.030950334
0.031941548
0.01591732
-0.019420035
-0.040147536
-0.052013226
-0.0557286
-0.045648072
-0.035308912
-0.020900592
-0.013171547
-0.016948206
-0.018376535
-0.01686591
-0.006473542
0.006349902
0.015345059
0.022207228
0.024073174
0.030356213
0.029201062
0.01849813
0.01719484
0.020314623
0.0285012
0.030085852
0.025732394
0.0343435
0.023642039
-0.0043260003
-0.0077883205
0.0034056338
0.007643205
9.6551917E-4
-0.0052240933
-0.0091946665
-0.020181697
-0.027005589
-0.027659284
-0.024409195
-0.022958428
-0.028256716
-0.022022877
-0.015043292
-0.016933315
-0.011121475
-0.0045762337
0.007009804
0.025707273
0.03415629
0.03259677
0.02200153
0.011658076
0.007794062
4.5470297E-5
-0.0064767306
-0.0038524163
0.009264229
0.017271223
0.0062960624
4.9118175E-5
0.0058054314
0.01236031
0.021121858
0.017620603
-0.006118481
-0.030382063
-0.030805256
-0.011344983
3.6882435E-4
0.0070860055
0.0137789445
0.0055385535
-0.0040515373
-0.0035855735
-0.0057257502
-0.009796732
-0.0029529103
0.013398145
0.017198557
0.0068357247
0.0036308668
0.0064862473
0.007419628
0.008187287
0.011113884
0.016169703
0.01162335
-3.6913152E-5
8.0975296E-4
0.007494678
0.0042870156
-0.004176333
-0.0092451805
-0.0066574
-0.003123722
-0.004535099
-4.210395E-4
0.0018682983
-0.008914531
-0.014978487
-0.017458038
-0.026167016
-0.029124852
-0.03371256
-0.040290862
-0.031092685
-0.017439783
-0.009445087
-0.0013099776
0.0064264047
0.013361789
0.018382916
0.025253735
0.032862894
0.033745572
0.036434267
0.0429644
0.04393869
0.041231133
0.03970206
0.04064664
0.03946717
0.0326934
0.022278551
0.010970925
0.009123795
0.011820776
0.00580053
0.0012310335
-0.012428835
-0.047864422
-0.07034981
-0.07395123
-0.08018036
-0.074199125
-0.05462803
-0.03772698
-0.025362896
-0.021923983
-0.020615859
-0.014969981
-0.007731486
0.0053562648
0.010298146
0.008172907
0.026399761
0.048173115
0.0535664
0.061506648
0.06772567
0.056731753
0.0421124
0.034534566
0.024809346
0.012946237
0.014060203
0.01564503
-0.0067628575
-0.029886167
-0.03255173
-0.029707525
-0.023218298
-0.019151326
-0.020593734
-0.014817623
-0.014135178
-0.012363151
0.002217741
0.0029429526
-0.0049569923
-0.006123311
-0.008836902
-0.007332137
-0.0042243977
1.84822E-4
0.008213719
0.00610276
9.1207906E-4
0.001288276
0.0047904346
0.014264604
0.018370077
0.012092687
0.007954456
0.00657271
9.351517E-4
-0.006272456
-0.013412701
-0.021537714
-0.021856481
-0.01722939
-0.014293646
-0.0076589254
-0.0026258104
0.009568964
0.032922804
0.03965816
0.030062063
0.015724733
-8.564905E-4
-0.0056968452
-0.004527688
-0.003266755
0.0034379673
0.012194226
0.02487349
0.027183704
0.0119029265
0.008255768
0.011226413
-0.010166037
-0.037452877
-0.039638646
-0.023842648
-0.008944261
-0.008362209
-0.021072913
-0.028493067
-0.02644234
-0.023900846
-0.025806185
-0.032466512
-0.036387052
-0.037177447
-0.028025666
-0.004983511
0.004984194
0.0044152965
0.019306904
0.038995717
0.048470493
0.04465271
0.036510494
0.03402749
0.02611959
0.019632803
0.021682981
0.012634108
0.0011035271
0.008350089
0.026232842
0.04076669
0.04614518
0.042027652
0.030171579
0.012306637
-0.0074054115
-0.028078333
-0.052695535
-0.06921539
-0.05522658
-0.025161128
-0.015140512
-0.020493237
-0.022224322
-0.020001939
-0.012875401
-0.005977688
-5.867767E-4
0.008766969
0.010871179
0.007361353
0.008859761
0.0028874693
-0.011162733
-0.01837926
-0.017534263
-0.015848348
-0.014310002
-0.0039046088
0.0085053565
0.0109951245
0.014383125
0.020721927
0.022940114
0.018709064
0.0044310126
-0.01194905
-0.0222877
-0.023880916
-0.023003474
-0.029366843
-0.024260856
-0.004455529
0.0062711164
0.014856887
0.029541284
0.038787838
0.04155405
0.04321641
0.039955094
0.02585303
0.015953679
0.019824402
0.025460921
0.03295896
0.03730924
0.031626746
0.027853647
0.027404454
0.022300519
0.0065431995
-0.014455429
-0.028484454
-0.043150287
-0.058034297
-0.063049026
-0.061727617
-0.0536685
-0.045221947
-0.03962157
-0.03163574
-0.03306225
-0.03727236
-0.026238317
-0.008133562
0.010282447
0.02469892
0.03464611
0.043757
0.040144555
0.036273424
0.047265597
0.048904646
0.03966597
0.030100306
0.01770238
0.016553365
0.013921336
-0.004983648
-0.0125378575
-0.007723286
-0.006542726
-0.0048983498
-0.015000313
-0.040855832
-0.057604507
-0.063109234
-0.06816947
-0.057144854
-0.027660178
-6.643878E-4
0.018496599
0.029709963
0.037966073
0.05051841
0.05610871
0.05046841
0.03900975
0.024816548
0.016369263
0.012059215
0.004013614
-0.0012904141
0.009115879
0.028500218
0.03429908
0.022097092
0.0037146735
-0.007897166
-0.0088011855
-0.007291064
-0.008909956
-0.019541346
-0.033778116
-0.040721945
-0.044721268
-0.038588606
-0.02177524
-0.012061952
-0.009846876
-0.0067352867
-8.8755434E-5
0.0027090916
0.0014195825
0.0032440703
-0.0013640885
-0.0130909225
-0.028099412
-0.03920081
-0.037076913
-0.04206504
-0.04614154
-0.02854251
-0.010885245
0.0029184702
0.016490394
0.030943211
0.0471067
0.041433666
0.029822094
0.026603332
0.008858959
0.0024498564
0.01707853
0.022462163
0.030308899
0.03970119
0.031610116
0.022597136
0.016552296
0.004030954
-0.007561471
-0.015671369
-0.013560266
-0.009420413
-0.015374003
0.0014124463
0.02763295
0.016431464
0.0012314711
1.9922233E-4
-0.009452448
-0.016881775
-0.017567402
-0.00590006
0.0145882815
0.0123250075
-0.0023557073
-0.0027901772
0.006877559
0.020185295
0.028791115
0.017638355
-0.013033281
-0.03629706
-0.04727272
-0.069960944
-0.08590226
-0.076602094
-0.06364781
-0.04467572
-0.024251018
-0.024134345
-0.025125373
-0.016757233
-0.00923517
0.001960376
0.0037280773
-0.004699248
0.005103679
0.028823907
0.043634567
0.051916037
0.06645837
0.07966404
0.07633426
0.068102635
0.06753472
0.067471385
0.0618468
0.050065335
0.033249654
0.009248903
-0.008862339
-0.007390981
-0.007959883
-0.018103562
-0.030232439
-0.049515802
-0.05552696
-0.042119045
-0.034815185
-0.035802674
-0.03779754
-0.030430455
-0.010878846
-0.002214637
-0.0048547285
-0.007398959
-0.016649751
-0.020180093
-0.015513951
-0.019182155
-0.010167205
0.012014111
0.008249899
-0.010864442
-0.01713093
-0.015904497
-0.016528172
-0.016766345
5.3945147E-5
0.02757353
0.038417507
0.032627005
0.018032165
0.008979898
0.019415703
0.030230777
0.022959126
-5.7483136E-5
-0.022060746
-0.022930933
-0.0019797997
0.021877032
0.027747916
0.0258774
0.027290754
0.026745662
0.03771034
0.030407108
-0.01918495
-0.046548106
-0.03559657
-0.02780402
-0.025885426
-0.027841711
-0.029075708
-0.015752597
0.009237308
0.02330717
0.019406525
0.025903936
0.036189325
0.023547396
0.0058824318
-0.0032286819
-0.007544211
-0.0052385624
0.0033157223
0.012195104
0.010752878
0.0026401428
-0.005275747
-0.013374298
-0.017497016
-0.016815107
-0.008371783
-0.0049753045
-0.018676164
-0.0261347
-0.029057238
-0.039162386
-0.02876524
-8.989832E-5
0.014857703
0.014542101
0.00612253
-0.0055125
-0.0050805826
5.1388127E-4
-0.008148031
-0.018788898
-0.0188603
-0.01058417
0.0051715286
0.015450952
0.015682323
0.016227268
0.026717288
0.041291792
0.03505189
0.021775512
0.022416122
0.016815174
0.01069021
0.013967545
0.018853279
0.0350475
0.055474594
0.06867594
0.068167
0.03951582
-9.5060514E-4
-0.027102772
-0.033775896
-0.028462218
-0.02596045
-0.029567594
-0.03444337
-0.039795384
-0.052214906
-0.06979342
-0.07334129
-0.0655931
-0.056668047
-0.04266484
-0.033089664
-0.027313333
-0.01661193
-0.0072104232
-4.6351015E-5
0.00445094
0.010728017
0.025363723
0.034553606
0.03634333
0.04697162
0.05446558
0.03698117
0.014259412
0.0073380386
0.0014960781
0.0021300074
0.020196484
0.031067057
0.030715346
0.032144982
0.023373667
0.0019153043
-0.015783312
-0.02041731
-0.01338801
-7.757835E-4
0.018844789
0.0434262
0.048937958
0.02986313
0.015044617
0.005131027
-0.009592477
-0.0052275616
0.0050592585
-0.006718552
-0.009301751
0.0052144094
0.0054062377
-0.012096565
-0.035578933
-0.045038063
-0.04355878
-0.056062255
-0.06893292
-0.068302244
-0.056574784
-0.032455876
-0.005125549
0.022646988
0.027816214
0.0015477684
-0.0018431237
0.023104431
0.03500506
0.0380534
0.044844627
0.05085526
0.049274974
0.042174697
0.034550436
0.022903336
0.0101315
-0.0054462547
-0.018263087
-0.020518174
-0.026968518
-0.028924763
-0.019169698
-0.018778741
-0.028693797
-0.03890688
-0.033386137
-0.014095767
-0.010637112
-0.018662391
-0.020785572
-0.013743876
0.0016813445
0.01102499
0.012810474
0.018900892
0.036866177
0.058876626
0.06238384
0.057826255
0.059293676
0.04881054
0.033832982
0.031572174
0.030552648
0.01959987
-0.0011851366
-0.02069623
-0.03174094
-0.041798823
-0.04657697
-0.043395042
-0.04344878
-0.045156013
-0.05026087
-0.05905248
-0.055428486
-0.047166154
-0.041312546
-0.022277996
-0.0015853641
0.0043256665
0.0018292441
-5.940154E-4
0.006909517
0.018997079
0.024001433
0.026168259
0.024250362
0.020939546
0.029276876
0.0417426
0.040707625
0.027491866
0.018212564
0.018627249
0.015951557
0.005706884
-0.0016189547
-0.0024369955
0.0010880883
7.1541104E-4
-0.01152535
-0.020618135
-0.022240564
-0.03394737
-0.042479437
-0.03508019
-0.030039836
-0.029446892
-0.024201289
-0.006300595
0.017406382
0.012864082
-0.0027009519
0.011226041
0.021975467
0.006699976
-0.006611736
-0.008081463
-0.0014830945
0.004827202
0.010644006
0.025311157
0.031169314
0.028016526
0.0366482
0.040111553
0.034034528
0.03439297
0.029385615
0.021213584
0.024282068
0.03596431
0.048891895
0.03999016
0.008680714
-0.0087270755
-0.00824729
-0.0105673205
-0.017103355
-0.016684312
-0.016612103
-0.037780114
-0.05934075
-0.061351594
-0.06361581
-0.07272685
-0.095204346
-0.11037962
-0.09218022
-0.09349231
-0.116426446
-0.10827394
-0.09012094
-0.05982065
-0.008813826
0.016870636
0.027765576
0.037436604
0.020998674
0.009288106
0.02276613
0.03696892
0.05382783
0.06847118
0.07621418
0.10860302
0.16245435
0.19601116
0.19820003
0.18777533
0.172927
0.14684464
0.11670282
0.083496325
0.0401955
0.004237829
-0.019813348
-0.034193538
-0.030010479
-0.02651264
-0.045986716
-0.08275343
-0.109996125
-0.11924361
-0.1255887
-0.120610185
-0.12144463
-0.14414582
-0.15403634
-0.1526261
-0.14335477
-0.12474532
-0.12680122
-0.12915167
-0.10854031
-0.0758214
-0.03527028
0.002021147
0.044725474
0.08601146
0.09860588
0.09945092
0.10523535
0.10718272
0.10303927
0.10115418
0.09475517
0.077746704
0.07667495
0.08953925
0.09830369
0.10099895
0.07954759
0.05274409
0.0427866
0.035867848
0.033251874
0.023291256
0.01113537
0.011577966
0.0020457297
-0.004432844
0.0021241377
-0.004903361
-0.014304176
-0.020676477
-0.049544875
-0.09075408
-0.107472315
-0.0976776
-0.08100629
-0.062765636
-0.04926972
-0.03809626
-0.024508959
-0.018054042
-0.01902154
-0.0327161
-0.054770533
-0.06525878
-0.07475562
-0.08675017
-0.08190216
-0.05792467
-0.021945128
0.007982206
0.019135723
0.027513314
0.0451841
0.066853724
0.0819098
0.07965513
0.06707956
0.059995353
0.053735755
0.043024324
0.039941255
0.046203826
0.053492334
0.059651416
0.05536738
0.034115534
0.017736841
0.013909865
-0.0033300784
-0.02282636
-0.02198092
-0.023945983
-0.033788305
-0.03701726
-0.04380037
-0.05733934
-0.06388005
-0.057575278
-0.046779197
-0.033931836
-0.020248378
-0.018684233
-0.022231257
-0.017311763
-0.0055828057
0.010638898
0.020410337
0.021383118
0.018146673
0.0047733416
-0.0013773433
0.01955606
0.041116547
0.03316469
0.013444757
0.005210401
-0.004181081
-0.018998707
-0.019582346
-0.0052074767
0.0036980575
-0.002913539
-0.018596265
-0.031541277
-0.026958995
-0.012773346
-0.0044261953
0.013119411
0.02662034
0.00683399
-0.020181574
-0.022958443
-0.0035981545
0.013280441
0.01200753
0.012486358
0.018459378
0.015040074
0.011937893
0.014296462
0.005567773
-0.010250118
-0.008774494
-4.6641476E-4
5.1458366E-4
0.010455125
0.019372515
0.01295748
0.0021983562
-0.006405914
-0.0055185007
-0.0086646695
-0.03302928
-0.050028462
-0.041018855
-0.029612545
-0.026021209
-0.015473688
7.42842E-4
0.010575113
0.018992292
0.027310535
0.030769043
0.028437495
0.010894411
-0.012739421
-0.01773213
-0.009276115
0.0012246736
0.015845433
0.023876298
0.024934057
0.031799305
0.029146645
0.008131335
-0.010241398
-0.01594558
-0.010941803
-0.0052426956
-0.014027474
-0.033342294
-0.043260965
-0.032410152
-0.016370362
-0.007393752
0.0020998653
0.004827265
0.0019992057
0.00854914
0.010904096
0.002639713
0.003616671
0.00890465
6.4108224E-4
-0.0029977965
0.014474861
0.033179738
0.044038087
0.049907066
0.04416256
0.032731324
0.024793098
0.010514333
-0.022811897
-0.053258527
-0.059544392
-0.06725611
-0.07237906
-0.053044137
-0.037971705
-0.029549584
-0.008659996
0.011934613
0.029332142
0.04031574
0.035810422
0.019828325
0.0020443588
-2.1206573E-4
0.0056673065
0.0030785438
0.0052764495
0.01200816
0.016218448
0.030369319
0.046164837
0.043048218
0.02649814
0.007831341
-0.0111023765
-0.015956433
-0.0017082428
0.010079289
0.011743982
0.0060828803
-0.010052937
-0.035285857
-0.062755235
-0.07116433
-0.05395354
-0.031582475
-0.012015156
0.0027726348
0.0138223125
0.023978595
0.022945339
0.014812151
0.0013047877
-0.027605783
-0.047652416
-0.03769235
-0.014735527
0.006451833
0.020053076
0.02489787
0.026781866
0.025221983
0.021863695
0.020141479
0.018224211
0.021461148
0.026644379
0.026449889
0.0291395
0.032206554
0.03508634
0.042611133
0.042338274
0.03874873
0.03464989
0.016351381
-0.0064126584
-0.031190902
-0.06709287
-0.09842723
-0.103408925
-0.08026652
-0.04785056
-0.021209542
-0.013666745
-0.03044873
-0.043783434
-0.04323821
-0.038226664
-0.020844629
-2.8508174E-4
0.011041507
0.01977344
0.027659548
0.032285932
0.028472902
0.022179384
0.029920267
0.04395701
0.049835328
0.05232955
0.052860573
0.050552305
0.0472798
0.033265952
0.011780739
-0.004071923
-0.012737071
-0.0054675336
8.6014817E-4
-0.017145326
-0.024043355
-0.005577392
8.0077455E-4
-0.010719703
-0.01902015
-0.012711002
-0.004405915
-0.016909642
-0.027840441
-0.0059104725
0.0066875736
-0.017918544
-0.020124936
0.007632786
0.014272616
0.006394105
-0.012859765
-0.03477475
-0.011191737
0.023493452
0.011168327
-0.015068428
-0.03165925
-0.04626855
-0.034643233
-0.0026465643
0.015605325
0.02334173
0.022149578
0.016317843
0.018456602
0.015171601
0.014851156
0.018314814
0.0112533
0.014692579
0.01069971
-0.008392726
-0.0064955354
-0.00907386
-0.021772638
-0.01277621
7.490641E-4
0.012103468
0.025990674
0.02324877
-0.0016575244
-0.024225898
-0.018502256
0.0039194613
0.017307132
0.017764254
0.018097233
0.023068132
0.01829317
0.005887476
-0.0048143314
-0.013101653
-0.010272239
-0.004019817
-5.874367E-4
0.005538619
0.004266068
-0.007566318
-0.01712374
-0.0060207006
0.005126481
-0.01993613
-0.034477025
-0.017165713
-0.021331355
-0.027390113
-0.013784661
-0.01792514
-0.026690353
-0.019637689
-0.009003489
0.0075153275
0.0222246
0.027184492
0.033373967
0.041767348
0.045703564
0.03626592
0.015143094
-1.7777721E-4
-0.0044414755
7.095151E-4
0.010620092
0.01190364
0.009108561
0.016189968
0.022806708
0.016566176
0.010445427
0.0033427002
-0.017820416
-0.028486094
-0.019410366
-0.014245561
-0.011895076
-0.011827271
-0.013540131
-0.012518594
-0.02308614
-0.03351115
-0.029794117
-0.021798586
-0.0073296535
0.0037591357
0.005981196
0.009580012
0.00972226
0.011271926
0.015328214
0.014923287
0.017614665
0.019061543
0.017253645
0.017604621
0.019750614
0.026883682
0.024991868
0.014370189
0.012519801
0.006244494
-0.001267367
-0.001520687
-0.011205711
-0.020962426
-0.026674295
-0.034406044
-0.030025166
-0.020315818
-0.014168485
-0.01270902
-0.021805184
-0.022910146
-0.009961003
0.0013304605
0.007432041
0.0075264135
0.009612099
0.014767657
0.014093094
0.01296348
0.013722013
0.017805275
0.01871026
0.007992199
0.0050745346
0.0103553925
0.0079980455
0.006766051
0.0053451248
4.8940396E-4
-1.09861585E-5
-4.7394898E-4
-7.648916E-4
0.0037473864
0.008741654
0.007989242
0.0028006209
2.800907E-4
-0.0041877734
-0.008422403
0.0010569697
0.012621501
0.013404978
0.00996308
0.0059994203
0.0038987482
5.891454E-4
-0.0058398475
-0.0077726464
-0.0068584336
-0.008778146
-0.016775858
-0.026140293
-0.022620833
-0.012948305
-0.011685035
-0.01232111
-0.010934851
-0.014758099
-0.021054074
-0.020902425
-0.015059694
-0.0041913684
0.009571761
0.017516017
0.021582304
0.024669843
0.029916637
0.038595535
0.033709947
0.020768665
0.019829346
0.019974116
0.011879913
0.001270736
-0.0059167957
-0.00920561
-0.011498184
-0.006236793
3.6483115E-4
-0.0024383846
-0.005793623
-0.005651965
-0.002067955
0.0033094455
0.001701618
-0.009239893
-0.022902336
-0.02983638
-0.032201022
-0.029045274
-0.014936978
-0.004064789
0.005347056
0.022636967
0.030029234
0.019460442
0.001345849
-0.010946714
-0.013784084
-0.0133639565
-0.007724218
-0.003371584
-0.0033071523
-6.5211783E-4
0.0014916512
0.010379583
0.013179569
-0.004919174
-0.009946357
0.004224375
0.020847537
0.033802617
0.02394718
0.014864354
0.023255007
0.027939651
0.03463618
0.022694025
-0.0038062548
-0.0065660393
-0.011801619
-0.009544935
0.012967481
0.0037310761
-0.026817683
-0.04495563
-0.04474029
-0.036418438
-0.041715004
-0.035284135
-0.028660169
-0.047808345
-0.037889805
2.0925266E-4
0.021822542
0.033224523
0.03351256
0.018143503
0.004153331
0.00882009
0.019840715
0.01889944
0.0187384
0.024158288
0.034694
0.046344582
0.04922726
0.04796331
0.022233363
-0.017916063
-0.023583027
-0.013644255
-0.010117223
-0.001887843
-0.0014393448
-0.0066785696
-0.009599769
-0.023439277
-0.04185454
-0.043819726
-0.032363012
-0.017603585
7.2446186E-4
0.008902637
0.005618877
0.007985931
0.005420027
-0.0028568252
0.0034607286
0.012352737
0.0026375693
-0.014934099
-0.017345728
-0.0077132643
-5.582771E-4
0.0054556285
0.0042416225
-0.007173757
-0.014153393
-0.011352649
0.0013865595
0.013161441
0.0133889625
0.024482422
0.044059698
0.039618593
0.026633887
0.029334353
0.034116328
0.032894477
0.026061274
0.012261442
0.002011367
-0.0014662966
-0.00863703
-0.02182826
-0.03540915
-0.03754121
-0.025224669
-0.018013513
-0.013903914
-0.0066778637
-0.02062783
-0.03973669
-0.038238958
-0.03678451
-0.03400098
-0.03165764
-0.046731148
-0.051225394
-0.03356605
-0.013578734
0.0077866158
0.02301403
0.025586786
0.02467196
0.020722575
0.020067401
0.03545819
0.053501848
0.057549622
0.053465188
0.046620056
0.04258093
0.04088639
0.03324175
0.028140334
0.024308214
0.017596336
0.015688993
0.008427406
0.0035835179
0.008166509
4.7131669E-4
-0.0017182346
0.0129381055
0.007434171
-0.02386381
-0.061674383
-0.093356736
-0.093614556
-0.06147971
-0.042384308
-0.051822923
-0.050923657
-0.03105739
-0.020076219
-0.018279873
-0.014903484
-0.013816321
-0.0101932
0.0018714779
0.01205864
0.016776985
0.020902852
0.0246115
0.033539437
0.04335663
0.04117918
0.034031995
0.02997461
0.027219065
0.026263595
0.024476506
0.019130131
0.011935566
0.0062142457
0.0011105158
-0.008516678
-0.017911093
-0.015631733
-0.0048695323
2.9983674E-4
-0.0017643649
-0.0050626183
-0.008202763
-0.007650993
-0.005164072
-0.006807615
-0.012116268
-0.019328367
-0.022820527
-0.01798573
-0.008456162
0.0012764398
0.007641474
0.010339911
0.010675993
0.010985874
0.018787058
0.032947045
0.03401839
0.016219078
0.005504902
0.001010766
-0.0211309
-0.036497686
-0.027619833
-0.019773891
-0.015339634
-0.0056106187
0.0060958457
0.01136308
0.0027099967
-0.0058987346
-0.008763132
-0.013068566
-0.010740485
-0.004217945
-0.0015000488
0.0018159271
0.0036647029
-9.798784E-4
-0.004826538
-0.0011899791
-0.004032578
-0.014806759
-0.009152929
0.009062541
0.019774297
0.022531
0.019614767
0.013183198
0.004009821
-0.0032769318
-0.0027180433
-0.004532659
-0.0062380526
0.0010357056
0.0052368655
0.007304961
0.013434164
0.0134614175
0.009965756
0.01083496
0.009968273
0.004957021
0.0029958864
0.004973196
0.006720018
0.011181507
0.017173976
0.017523857
0.014443477
0.010582913
5.645295E-4
-0.015629934
-0.02397964
-0.01841123
-0.016332299
-0.022309704
-0.02229932
-0.0174215
-0.009931143
0.0027433392
0.0047443085
-0.014379301
-0.03365512
-0.037048806
-0.03295668
-0.022915998
-0.0073887114
0.0045483415
0.011923639
0.007993517
-0.0028089532
-0.002019623
1.51578E-4
0.0024749762
0.015077797
0.020695092
0.0223864
0.030045435
0.033099327
0.035488717
0.0323785
0.019814339
0.01704777
0.021078235
0.016275728
0.010112168
0.013147871
0.010144382
-0.00897655
-0.021506745
-0.026329746
-0.036363706
-0.03734789
-0.024774304
-0.0062200883
0.0030341293
-0.008919068
-0.018319776
-0.01830042
-0.020839667
-0.014789728
-0.0052098753
-0.0017971274
-0.003389626
-0.016263593
-0.020564007
-6.9646613E-4
0.021759715
0.036597278
0.03951559
0.025227213
0.012042092
0.011437233
0.014697036
0.01612794
0.01404777
0.005066573
-0.009432984
-0.013315148
-0.0017858103
9.802931E-4
-0.010330799
-0.016922873
-0.010985651
0.0057781087
0.016198527
0.015504672
0.016717931
0.005335268
-0.011599149
-0.013647092
-0.023180088
-0.036651574
-0.04013606
-0.04177679
-0.031626027
-0.028286526
-0.039055437
-0.025878938
0.0032137113
0.027213411
0.03982789
0.034108523
0.032446373
0.031854466
0.020342309
0.017315146
0.013078984
0.0070166956
0.015322457
0.019063456
0.020186776
0.03172354
0.03555722
0.030060321
0.020668464
-4.5370852E-4
-0.017637627
-0.015655233
-0.012075847
-0.017676134
-0.02788119
-0.038712833
-0.03460682
-0.019100059
-0.020042043
-0.037299994
-0.050682954
-0.0481065
-0.038882125
-0.033973236
-0.014515284
0.010123389
0.020170446
0.039624073
0.054726407
0.049533144
0.055143777
0.055556398
0.03283503
0.013461069
0.0025306637
-0.005096843
-0.010514702
-0.012246144
-0.008614633
-0.0061861672
-0.0011348336
-0.0019549846
-0.011740157
-0.0071320087
-0.0021262206
-0.012729478
-0.01462411
-0.0038635514
0.0010276939
-0.005403271
-0.009112554
-0.005108167
-0.0025488092
0.002747419
-0.0011148757
-0.019432522
-0.023813654
-0.0168115
-0.011044212
-0.0013827954
0.009980153
0.025505355
0.032726407
0.024507515
0.018105831
0.011677803
0.013332467
0.027481847
0.023131717
0.00287188
-0.011696953
-0.021549225
-0.020452831
-0.010660147
-0.0056366334
-0.0017454409
0.006082465
0.014023384
0.02211647
0.03306742
0.033988234
0.008550978
-0.017426904
-0.014739205
-0.012870643
-0.031849172
-0.04313353
-0.036867313
-0.022462692
-0.0065657096
-0.0042926385
-0.0131506
-0.018448848
-0.015955979
0.0011345237
0.015668778
0.0042917747
-0.006117999
0.0033577324
0.014770654
0.018081827
0.005590785
-0.010419341
-0.0070582507
0.0021849764
-5.679276E-4
-0.013253245
-0.018361052
-0.0046941447
0.0054582036
0.012644077
0.033208504
0.035053484
0.011802782
0.0072838604
0.02483211
0.040092148
0.043361116