2.70691E-4
-0.0027160768
-0.001311176
0.0010487942
0.0011121312
7.551827E-4
-0.0016497097
-0.002586356
-0.0020157935
-0.0040378952
-0.0035737702
1.1223507E-5
0.0021576062
0.0029379744
0.0014924053
-0.0014015846
-0.0019344812
-8.8540325E-4
-0.0014692574
-0.001713133
3.0739314E-4
0.0014677168
0.0013357673
0.0015677551
0.002253718
0.0036023317
0.0040943506
0.0027432742
0.0010394744
3.2678174E-4
-1.2051659E-5
-5.785294E-4
4.8057002E-4
0.0013904977
-3.1108546E-4
-0.001357704
-0.0012257623
-0.0020070423
-0.002591038
-0.0015510347
3.873593E-4
4.5537823E-4
-0.0014582804
-0.0018604407
-1.9900616E-4
-8.791995E-5
-0.0020991568
-0.0023579402
-0.0014431062
-0.00106714
1.342202E-4
-2.5337064E-4
-0.0017053289
-5.659938E-4
0.0016134123
0.0027666183
0.0013785833
-1.856972E-4
0.0013801475
0.0022015052
0.0019767764
0.0015955395
-0.0012726587
-0.0015680798
0.0013404094
0.0013709579
4.744799E-4
7.185352E-4
6.2866625E-4
-3.4866724E-4
-0.0016254176
-6.0862967E-5
0.001921944
9.6131366E-4
0.0010201917
0.0016918306
6.600267E-4
-0.001271951
-0.0023441368
8.7602227E-4
0.0026220046
-4.7093557E-4
-2.840536E-4
-1.1402276E-4
-0.0033691435
-0.0030185007
-8.6082396E-4
-6.929661E-4
-9.735295E-4
-9.3205256E-4
-7.82339E-4
-7.000033E-4
-1.4237125E-4
-7.1830716E-4
-0.0013289591
7.817499E-6
-2.2039229E-4
-0.0010104837
-5.6169566E-4
-1.2149786E-4
0.001506612
0.002166009
0.0012558979
0.001125485
0.0018274668
0.003091514
0.002511701
0.0018880956
0.003057954
0.0011794328
-0.001472782
-9.669758E-4
2.3720441E-4
0.0018092009
0.0023084704
2.018348E-4
-0.0016953738
-0.0024290057
-0.0033149226
-0.004421452
-0.0044737244
-0.0022435635
1.7780448E-4
2.5374655E-4
4.389489E-4
0.0013505125
2.6640162E-4
-0.0010974986
-0.001085004
-2.6517504E-4
8.99445E-4
0.0013965383
0.001648968
6.6473684E-4
-9.966138E-4
-9.205953E-4
-8.0192566E-4
8.976524E-4
0.00310181
8.918806E-4
1.7886318E-4
0.0024078896
8.6336164E-4
-0.0017423076
-0.001020545
0.001495856
0.0017681789
4.3383706E-4
0.0010592315
-1.7428125E-4
-0.003197594
-0.0036416797
-0.0025739798
7.6685706E-4
0.003564687
0.0021234679
7.573538E-4
5.685067E-4
-1.12810616E-4
-6.4061943E-4
3.4540723E-4
0.002063879
0.0014103609
0.0015729257
0.002223684
-0.0017010645
-0.004879813
-0.0044631534
-0.0036280705
-0.0031230531
-0.0026235585
-1.0081804E-4
4.4216227E-4
-0.0014015071
2.212307E-4
4.1298207E-4
-0.0012157864
-2.3388368E-4
-1.7442611E-4
-1.3870401E-4
0.0011414897
0.0019380128
0.0023796882
0.0042142253
0.0066137696
0.0010595839
-0.0047793025
4.969323E-4
0.0016788509
-0.0014871705
0.003002137
0.005701773
0.005429697
0.004313787
-0.0013316225
-0.0030179822
-0.0015316639
-0.0028403779
-0.002953749
-0.002978826
-0.0032136033
-0.0033678224
-0.0041771717
-0.001593242
5.280903E-4
-2.5371855E-4
-4.671961E-4
-0.0016710263
-0.001170307
4.486491E-4
5.159611E-4
0.0026263706
0.0023443436
2.6596026E-4
0.0013583469
7.5823884E-4
2.7704675E-4
5.7731895E-4
8.4983796E-5
0.0023674641
0.0013182223
-0.0016416494
1.7554405E-4
-8.271298E-5
-0.0013566749
-2.9558188E-4
-6.0348294E-4
-9.6879216E-5
3.2216156E-4
-0.001498547
-0.0027983582
-0.0024542797
-5.412626E-4
6.353472E-4
0.0012425807
0.0026384674
0.001682614
4.6798767E-4
0.0011171242
-5.9968664E-4
-0.0029528942
-0.0015322934
0.0022582435
0.0046238336
0.004247787
0.003479628
0.0026866947
7.700395E-4
-1.9925139E-4
3.1902033E-5
-0.0013775674
-0.0037510837
-0.0035671457
-0.001364347
-0.0010044478
-0.0030087654
-0.004209907
-0.0025597275
-5.5645953E-4
-4.6990998E-4
3.0208952E-4
0.001466214
4.8911496E-4
8.443E-5
0.0019948408
0.0040848544
0.0038960944
0.0010377032
-8.360105E-4
-2.7186883E-4
-3.8741835E-4
-4.0056993E-4
0.0015282037
0.0017616465
7.144843E-4
0.0011863378
2.7011312E-4
-0.0012892587
-0.0022492227
-0.003970644
-0.0036394054
-0.0021177407
-0.0011187395
-3.18356E-4
-6.43813E-4
2.2439537E-5
-8.356094E-4
-0.0027900334
-0.0010544618
-4.1701633E-4
5.656904E-4
0.0031367736
0.0018871499
0.00311557
0.0067147845
0.005725764
0.002108435
-0.0018632942
-0.0018211419
0.0010694662
0.0012723214
0.0012444729
0.001918465
0.0031518447
0.0024995
-0.0028124517
-0.0057914765
-0.004210749
-0.0027599868
-0.0022356538
-0.0016481049
-7.972952E-4
-7.766988E-4
6.941586E-4
0.00236524
-5.3702074E-4
-0.0027005242
-0.0018778833
-0.0016981892
-1.1049854E-4
0.0011955025
-8.345528E-4
-0.0023272939
-6.617448E-5
0.002901865
0.0023795366
-1.4233241E-5
-9.783722E-4
-6.0954253E-4
-6.4353494E-4
-0.0011575444
1.8788868E-4
0.0024512643
0.002774723
0.0015998869
7.749824E-5
-0.0010990491
-0.0011916587
-4.077805E-5
8.551157E-4
0.0014149606
0.0033822227
0.003059604
1.9523497E-5
3.266723E-4
0.0011624726
-6.524363E-4
-4.2347575E-4
0.0011226942
8.204708E-4
3.1343198E-4
-0.0011390203
-0.004907905
-0.006264922
-0.0032997564
-8.6075126E-4
1.7172284E-4
0.0011910676
6.184607E-4
-5.729757E-4
-2.2102232E-4
-2.1672975E-4
-0.001118336
2.0486943E-4
0.0014870126
9.07201E-5
4.3313153E-4
0.00126589
1.5177335E-4
0.0010951144
0.002016998
0.0016058241
0.0027445243
0.0025596784
0.0011088586
4.1561123E-4
-0.0011800253
-0.0016764475
-1.0185663E-4
3.7525658E-4
-8.3740894E-4
-0.0022525727
-0.0023522738
-0.0010678183
1.7902887E-4
0.0012730969
9.7366446E-4
-0.0017245128
-0.0027674807
-8.942435E-4
-4.4557123E-4
-0.0011600787
-5.740148E-4
1.1715507E-4
5.6337484E-4
4.1872368E-4
-0.0010313821
-0.0022651781
-0.0025186776
-7.916454E-4
0.0014327547
-4.0059912E-4
-0.0015333359
0.0017903715
0.0025001639
0.0018113231
0.0029010503
0.0020899493
0.0016248887
0.0012970989
6.7978384E-5
0.0017261511
0.0025878344
0.0015910761
0.002188655
0.0016903765
6.193521E-4
1.6705945E-4
-0.0018933258
-0.0025467232
6.750464E-4
0.0029366117
0.0022371127
0.0013732634
-0.0020973962
-0.0067232708
-0.00580076
-0.003169815
-0.002498844
-0.0017757623
-0.0019433857
-0.0018977957
-0.0011394024
-9.853918E-4
-1.7089913E-4
0.0017393162
0.0018005306
-7.7945134E-4
-4.559492E-4
9.873025E-4
-1.8480816E-4
0.0013315503
0.0021824248
4.3149453E-4
0.0017055536
0.0025444608
0.0015681757
2.6760867E-4
-2.3498987E-4
0.0016684923
0.0011958752
-4.7021892E-4
-6.785463E-4
-0.0018656786
-0.0018100088
-0.0010677942
-7.28412E-4
-7.6942233E-4
-0.0014733379
4.8416166E-4
0.0022037406
0.002481607
0.003823613
0.0026097049
3.4080472E-4
-2.498037E-4
-5.9721235E-4
-8.042414E-4
-8.188817E-4
9.3963376E-4
0.003034023
0.0033724965
0.0018512149
-0.0019389078
-0.002138939
0.0016321223
0.0015270751
-0.0015979201
-0.004501619
-0.0060385303
-0.0044006403
-0.0026529464
-0.0025450112
-0.0012273439
5.205967E-4
9.305405E-4
8.397747E-4
-1.7347209E-4
-5.4760434E-4
6.34931E-5
-1.0167531E-4
0.0018431365
6.766861E-4
-0.005639983
-0.0033922957
0.003614218
0.004793182
0.0052721864
0.003964374
9.5153676E-4
9.2470756E-4
6.4085564E-4
-3.1342247E-4
-2.424727E-4
0.0016813467
0.003523343
8.622433E-4
-0.0014094599
-5.760612E-4
-0.0010196163
-0.0020568362
-0.0026914836
-0.0018261638
3.1635616E-4
5.105011E-4
3.5310545E-4
-3.012491E-4
-0.0023321866
-0.0021218357
-8.571164E-4
1.542018E-4
6.9684314E-4
-0.0018032019
-0.002234028
8.353665E-4
5.344407E-4
-2.6273648E-5
9.4585295E-4
-6.6604756E-4
-4.1458762E-4
0.0022262528
0.0027424076
0.0030131917
0.0031121154
0.0036448597
0.005479
0.0025078591
-0.0029667004
-0.003476216
-0.0026541648
-0.0016418609
-4.0016812E-4
-0.0031671112
-0.0034302862
1.4795669E-4
-1.0790454E-4
-2.1309669E-4
7.606371E-5
-0.0020120656
-0.001201211
-7.0564705E-4
-0.0031273654
-0.0034838421
-0.0027338683
-0.0010890024
0.0024855454
0.0034616052
0.0012171713
1.6239176E-4
-8.6171785E-5
-1.12432324E-4
0.002197156
0.0038505574
0.0035101094
0.0039250446
0.0042706006
0.004075766
0.0027034204
-6.861443E-4
-0.0038418383
-0.004774836
-0.003193566
-0.001659884
-1.7647666E-4
0.0023415438
0.0011159234
-0.0028680067
-0.0044059707
-0.00405561
-0.003354219
-0.0032333885
-0.0018425933
8.3007896E-4
0.0014213704
0.0016042897
0.0018242658
0.0012612521
4.130272E-4
-0.0010573919
6.3534477E-4
0.0031010685
0.002382577
0.0038597067
0.0045103305
0.0017127476
0.0016368525
0.0021553794
0.0017911245
7.284457E-4
-0.00258891
-0.0021847181
6.573874E-4
-4.2760884E-4
-0.0022283597
-0.0024900425
-0.0021938023
-0.0021998417
-0.0023758085
-0.0017645062
-0.0021526965
-0.0022570563
-9.355371E-4
-5.1720108E-5
0.001245562
0.0011618994
-6.2898523E-4
-8.6116727E-4
-3.344903E-4
-3.1677913E-4
-6.5038365E-4
3.5694116E-4
0.0015808591
6.6897855E-4
7.0249155E-4
8.8404154E-4
0.0015241351
0.0030355577
4.2642612E-4
-2.827178E-4
0.0018041244
7.746386E-5
6.28142E-5
0.0011005844
0.0013369056
0.0024021144
-8.698069E-6
-0.0012613523
-4.3988868E-4
-0.002498593
-0.0034149159
-0.001933144
6.935593E-4
0.00163659
0.001602597
0.0048460956
0.0040412783
-0.0013234002
-0.0031616555
-0.0029242204
-0.0022211538
-0.001412579
-7.91782E-4
-2.2112449E-4
9.2598486E-5
0.0011092246
1.859359E-4
-0.0011997422
-0.0010904347
-0.0012874285
0.001636929
0.0029716806
-2.0821506E-4
6.929257E-4
0.002073724
5.37606E-4
9.906255E-4
6.004442E-4
-0.0017555982
-0.0030477752
-0.0022238377
-1.5952508E-4
-8.431978E-4
-0.0032874597
-0.002296378
8.6989236E-4
0.0025367716
0.0029219913
0.0022684976
0.0012445528
0.0011935793
3.454291E-4
-3.2796297E-4
2.7788605E-4
-0.0010148021
-0.0011128079
0.0016603242
0.001603693
-6.2852126E-4
-0.0014210456
-0.001154353
-0.0011668174
-0.001360681
-1.7712025E-4
7.0032215E-4
2.8639875E-4
3.762894E-4
-2.9969495E-4
-6.894285E-4
0.0012533574
3.3136574E-4
-0.004691532
-0.00440591
0.0016437448
0.0030829487
0.0010859269
0.0010075764
6.8851083E-4
0.001732164
0.0041871015
0.0031999156
-9.365293E-5
-9.853808E-4
8.7160344E-4
0.0012149038
5.222143E-4
0.0014444409
0.0013277467
0.0013183384
7.529526E-4
-0.0038529288
-0.0060728225
-0.0039589265
-0.0032861205
-0.002693832
2.4239431E-4
0.0029799214
0.002501221
-4.9946987E-4
-0.0023818887
-0.0017969321
-3.1034157E-4
5.24186E-4
5.2700925E-4
-1.6101362E-4
-4.7553013E-4
-1.6791101E-4
-0.0011039914
-0.0013953916
-3.8279983E-4
-2.620378E-4
0.0011508527
0.002168908
9.0636354E-4
0.0012642699
0.0020756507
0.0024232492
0.0025977343
2.938697E-4
1.3221006E-4
0.0028243393
0.0010478345
-0.0018105444
-1.07568754E-4
0.0013731333
7.3425187E-4
6.8824657E-4
6.332134E-4
-1.2955176E-4
-0.001999887
-0.0033106243
-0.0015035848
-4.2276224E-4
-5.8666785E-4
5.148079E-4
-7.3857815E-4
-0.0023452342
-0.0012612182
-9.3390164E-4
-0.0016420254
-0.0019903488
5.796053E-5
0.002143411
2.655947E-4
1.8117168E-4
0.0015394391
1.0143034E-4
0.0015783198
0.0043121735
0.0022752718
3.9666667E-4
0.0017804117
5.356551E-4
-0.0042172754
-0.0060189697
-0.0037247203
1.6091177E-5
0.002113477
-2.009358E-4
-0.002568102
-0.0018005277
-3.8433504E-5
0.0016615259
0.0014249589
1.830447E-4
8.046321E-4
0.0019218286
0.0012573646
3.0382135E-4
0.0018192027
0.003235501
0.0028477279
0.0015081761
-6.5005134E-4
3.9910342E-4
0.0021116624
0.0012618796
0.0023604569
0.0032569373
0.0030261166
5.597742E-4
-0.004502314
-0.0051286235
-0.008375654
-0.012031968
-0.0042092456
6.026161E-5
-0.0020021193
8.6080097E-4
0.0019310539
4.7896773E-4
-5.9543236E-5
2.7814342E-4
0.0014297344
0.0012072604
0.0029537838
0.0037496989
0.0022472064
0.0035589207
0.0012709354
-0.0017486161
3.037495E-4
2.3654266E-4
0.001203367
0.0038652017
0.0018197965
9.809169E-5
0.0010302493
9.0061023E-4
-0.0010682485
-0.0032106193
-0.0032133528
-0.0020035089
-0.0015050661
-0.0023693454
-0.0020007093
5.635324E-4
-6.031184E-4
-0.0024398188
9.2201884E-4
0.0018742258
-5.7054573E-4
-3.0686645E-4
9.538311E-4
0.0025093146
0.0027683123
0.0012952185
0.0026512805
0.0029395788
3.4996716E-4
-5.2992505E-4
-0.0023461224
-0.002874957
4.6972584E-4
3.3254662E-4
-0.002368089
-0.0018988826
6.002554E-4
0.0028021922
0.0022121328
-8.277981E-4
-0.0026342678
-0.0031472167
-0.0045524584
-0.004951964
-0.0019641132
6.213748E-4
9.0896974E-5
-0.0014543514
-0.0022185924
-0.0010406096
5.960296E-4
0.0022143247
0.004988123
0.004683704
0.0020297528
0.0035817747
0.0058737216
0.0036996247
1.498176E-4
-0.0016653728
-0.0012760964
2.3270472E-6
0.0010162082
0.003208391
0.0040376224
0.0015829481
1.8744578E-4
-0.0011616654
-0.0032446543
-0.0021860863
-7.5438083E-4
-5.8286637E-4
-7.5157604E-4
-0.0023580585
-0.0038929759
-0.005709883
-0.007814556
-0.009825614
-0.011072128
-0.008849242
-0.008225877
-0.008919957
-0.005018785
-0.0019692061
-8.407375E-4
2.6035678E-4
1.6106755E-5
0.0017756813
0.0031473748
0.0025349143
0.0035701517
0.0049950774
0.006280763
0.0066993837
0.004580746
0.0017411533
3.5077025E-4
-6.381995E-6
-5.847236E-4
4.8505992E-4
0.0028574893
0.0032186164
0.001153723
-8.1591966E-4
-5.0377875E-4
-0.0013176958
-0.0030863609
-0.002676691
-0.002226928
-5.7198417E-6
0.0021033157
0.0012464981
5.934566E-4
-0.001455129
-0.0011479895
-1.8647219E-4
-0.0031406574
0.0019326376
0.008062966
0.006008232
0.008416655
0.00982066
0.010307582
0.019164467
0.020259136
0.012439267
0.007542114
0.001603427
-0.0024155579
-0.0047935513
-0.011832305
-0.020799825
-0.027938217
-0.022665361
-0.006761846
0.0019258875
0.0059444206
0.012939616
0.022885311
0.033894982
0.04083249
0.048581757
0.051118605
0.042588428
0.042227384
0.04508837
0.028363168
0.001924298
-0.010005066
-0.017037285
-0.046923835
-0.087425716
-0.11701706
-0.13544793
-0.14233576
-0.14131212
-0.124261916
-0.09462796
-0.076044135
-0.06265127
-0.044786267
-0.024084905
-0.0057514207
0.016559757
0.07200796
0.13290314
0.16027026
0.18407412
0.21139577
0.21480206
0.18814743
0.14471161
0.09745485
0.050000962
0.026533134
0.039775982
0.06645569
0.08405514
0.07183101
0.02739379
-0.040088207
-0.10943041
-0.14475213
-0.16448882
-0.19590326
-0.20736887
-0.17756815
-0.14335167
-0.15262577
-0.18137796
-0.17665826
-0.13952015
-0.092215806
-0.047051724
0.014499979
0.09089736
0.14093506
0.18109474
0.2103306
0.19086348
0.15032633
0.09707792
0.035527498
-1.27041E-4
-0.037540156
-0.06836737
-0.03521295
0.029670145
0.073893875
0.100417934
0.11281583
0.104239464
0.067579135
0.01048503
-0.02821325
-0.037568152
-0.042646997
-0.045829363
-0.06746287
-0.1225405
-0.15306135
-0.12572664
-0.07127961
-0.019126708
0.013497087
0.014615903
-0.02695778
-0.07828192
-0.07660743
-0.02984825
0.015691677
0.047494512
0.07370255
0.0969963
0.1038593
0.09565212
0.09503301
0.10005633
0.07778189
0.025478275
-0.0152651705
-0.036474258
-0.047139104
-0.035627324
-0.01902241
-0.00861452
-0.0014853033
-0.009942504
-0.019817581
-0.025839642
-0.03870138
-0.04073746
-0.036091004
-0.04876136
-0.072024666
-0.0840384
-0.072885334
-0.044275545
-0.020104645
-0.016448237
-0.012724872
0.014072788
0.042260054
0.055045526
0.06612254
0.076643705
0.07616666
0.06547446
0.049889456
0.028352965
0.0012378859
-0.023316916
-0.032558292
-0.02488352
-0.01985232
-0.022825627
-0.02187328
-0.017085677
-0.0066433204
0.008551312
0.017861005
0.023169454
0.030195456
0.035642512
0.035926476
0.031162255
0.02314389
0.014838283
0.0082339225
0.0013344475
-0.0061700735
-0.011841284
-0.013868111
-0.014065782
-0.017039591
-0.020677287
-0.023824396
-0.026471674
-0.023177022
-0.017972829
-0.014982087
-0.011465547
-0.0094476845
-0.008675087
-0.008428378
-0.006724065
7.368377E-4
0.008665386
0.010333658
0.0072643906
0.0032499852
-0.0020978402
-0.0071312846
-0.005689698
-0.0017364095
4.066268E-4
0.00495798
0.011545726
0.017765325
0.01628263
0.0043173404
-9.801982E-4
0.007424501
0.015466315
0.014753568
0.011469913
0.012612925
0.00926832
-0.0028798368
-0.008018135
-0.0043194382
-0.0025369735
-6.857803E-4
0.0019179501
0.0023446844
0.005493454
0.01270955
0.015241244
0.008060286
-0.0023834256
-0.009073058
-0.011188696
-0.009247953
-0.0031752856
0.0022927064
0.0012260118
-0.0016177122
-0.004739025
-0.011288362
-0.012927883
-0.012022173
-0.013785227
-0.009045223
-0.004371274
-0.0067708646
-0.009802302
-0.0122522
-0.008137411
4.912643E-4
0.0034402525
0.0037189603
0.003617812
0.0042661363
0.007406262
0.011247276
0.013502603
0.008666959
0.0014628809
-3.4363446E-4
-4.899187E-4
-2.6715136E-4
9.349055E-4
0.0033590072
0.0073831994
0.011382116
0.014209089
0.013747098
0.012573206
0.0098104775
0.0030130015
-0.0022922538
-0.0095675895
-0.016371274
-0.01532878
-0.014359043
-0.011114846
-0.0052824146
-0.005639279
-0.005327543
-0.0038918515
-0.004547783
-0.003469292
-0.0031291833
-5.1519705E-4
0.0053632115
0.008026624
0.007317565
0.0053472477
0.0054554213
0.0056553003
7.867424E-4
-0.0048309355
-0.007303119
-0.005084897
3.5028555E-4
0.0019011494
6.058622E-4
7.072585E-4
0.0016044001
0.0024668125
0.0027194163
0.0032871377
6.667693E-4
-0.0049095196
-0.004367167
-0.0022333676
-0.004332276
-0.004181411
-0.0027231614
-0.0021924523
-0.0015319132
-5.652489E-4
0.0032914954
0.004898233
0.0016992269
0.0014514702
0.004099191
0.005056273
0.0029773866
-9.216165E-4
-0.0023311602
-5.334282E-4
0.0013616728
0.0015093737
-7.708647E-6
-0.0028908988
-0.0058624465
-0.0053063696
-0.0014619738
0.0011610737
8.4484863E-4
-0.0015547699
-0.0035613568
-0.001049738
0.003478576
0.0026675996
3.1551023E-4
9.349258E-4
3.330646E-5
1.7014185E-4
6.50094E-4
-0.0023031363
-0.0013433652
0.0017509134
0.003040802
0.007015928
0.008357218
0.0032716838
-0.0025727395
-0.0038329887
-0.001720371
-0.001679295
6.208847E-4
0.004377979
0.0011287174
-0.0032708466
-0.0048371893
-0.0054559307
-0.0024015785
0.0010739005
6.185669E-4
-0.0020772775
-0.0032503488
-0.0030457785
-0.0035777125
-0.0020836666
5.267548E-4
0.0035247046
0.006844212
0.00270693
-0.0038583865
-0.0029117903
-1.0845564E-4
0.0012996313
0.0018638163
0.0018233628
0.003599685
0.0047587603
0.004401653
0.0032334328
0.0015339163
-7.2978006E-4
-0.006468487
-0.008148712
-0.002268457
-1.539336E-4
-6.0295593E-4
6.351292E-4
6.368219E-4
0.0010900768
1.8867057E-4
-0.0025064028
-0.0033306384
-0.0011078697
0.0032498736
0.0043412596
0.0036519447
0.0034432425
1.586733E-4
-2.6771062E-4
6.278137E-4
-0.0033949227
-0.0034739426
-2.4851234E-4
-0.0018375105
-0.0029406548
-6.952481E-4
-5.2742114E-5
-1.742167E-4
7.573699E-4
-2.422913E-4
-2.479968E-4
0.0024827
0.002952208
0.0033134897
0.0042197523
0.003134237
0.003811455
0.005416499
0.002780636
-0.004278347
-0.006744736
-4.1886215E-4
0.0024292816
4.2988773E-5
-1.7109705E-4
-9.643706E-4
-0.0021986589
-0.003323078
-0.006056277
-0.0079647815
-0.008274013
-0.0070649297
-0.0045526703
-0.0017474785
-3.9046852E-5
0.0017405273
0.0051143426
0.0048184087
0.0024326337
0.0018843121
-0.0015600385
-0.0029594142
0.0013760985
0.0028964498
0.0023362278
0.0056453054
0.008673632
0.007982225
0.008290391
0.007825165
0.0032374414
-0.001977424
-0.008144946
-0.008111319
-8.343396E-5
8.483142E-4
-0.0017492629
-0.0017972533
-0.0045796866
-0.0048288708
-0.004066486
-0.004794321
-0.0026762916
-1.1741118E-4
0.0037702436
0.0061026537
0.004258111
0.0040259897
0.0026642352
-0.001426474
-0.004636704
-0.004397488
1.0458496E-4
1.6791328E-4
-0.0030403447
-4.3988976E-4
0.00173011
3.435075E-4
-3.8547022E-4
-0.0013570854
-0.0019163883
-0.0014469745
-0.0011426439
-7.6199434E-4
3.901696E-4
0.0027111361
0.0031692416
-2.4812995E-4
-0.0023505436
-9.1788586E-4
2.119298E-4
0.0012039547
0.002015444
0.0011602818
0.001044707
5.7144865E-4
2.8454687E-4
0.002906063
0.0021575214
-0.0011725496
-2.663567E-4
1.2853107E-4
-0.0012310152
1.674191E-5
0.0013469973
8.3109055E-4
-5.023078E-4
-0.0024976637
-0.0021228378
0.0023130304
0.0038098851
2.7802208E-4
-7.8739884E-4
-0.00121857
-0.0042301887
-0.002742033
0.0029469756
0.004635031
0.0016999603
-4.0049327E-4
-0.0014228609
-0.0042939894
-0.005417707
-0.003471507
-0.002231879
-0.0016397608
-0.0011647843
3.893781E-4
0.0024960411
0.0016688317
-2.7436463E-4
-0.0019002239
-0.0026047179
-0.0017245606
-0.0025798115
-0.00146223
0.0018867768
0.0011460611
0.0032895606
0.008623511
0.008786596
0.007983896
0.0063567413
0.0024643603
6.490359E-5
-0.0032421865
-0.004783121
-0.001447559
7.719707E-4
-3.8711325E-5
-8.6384785E-4
4.4939815E-4
0.0020032378
-5.2617135E-5
-0.0044282903
-0.0056753163
-0.0023274603
-0.0020382768
-0.004015849
-7.3981483E-4
-5.144335E-4
-0.0039485567
-0.0029448594
-0.004092552
-0.004707246
7.95165E-5
0.0017474015
0.0018660703
0.0028264557
0.0015008372
0.0010793301
0.0022779785
0.0035521812
0.0030268512
0.0010055135
0.0022084755
0.0033064836
4.5622507E-4
-0.0017398377
-4.666405E-4
0.0026326666
0.002301793
-8.250533E-4
-7.103074E-4
-0.0011808486
-0.0030368597
-0.0017027854
-0.001620554
-0.0022453975
-8.618629E-4
-8.9248345E-4
8.071398E-4
0.003244024
0.0014045704
0.0010402831
0.0029057066
0.0017501416
5.558553E-4
-1.0035664E-5
-0.0025615345
-0.003415694
-0.0023888093
-0.0022720923
1.327263E-4
0.0027006522
0.0013390386
4.9444096E-4
7.312687E-4
-2.0358231E-4
-0.0012403525
-0.0020149646
-0.0018371037
-0.0022318088
-0.0032515023
-0.0030775545
-0.0020400893
7.601719E-4
0.00255142
0.0025402252
0.001438119
-0.003301707
-0.0033195936
0.0020632504
0.003000609
0.004605983
0.0065618916
0.0030404557
-2.590446E-4
-4.4738632E-4
1.2038808E-4
-0.002055681
-0.0046117976
-0.0028365687
8.847822E-5
0.0025383283
0.0011828465
-0.00276516
-7.422411E-4
0.0020946462
0.002014532
0.0016240575
-0.0010981874
-0.0022257112
-0.0021618933
-0.0016198866
0.0031160112
0.0053104083
0.0045341537
0.0030338871
-0.0025031501
-0.0037491475
-2.7801702E-4
-7.715044E-4
-0.0016845881
-0.0017237848
-0.0018320174
-9.735443E-6
3.355863E-4
-0.00107384
-0.0017463884
-0.0026494793
-0.0035518105
-0.0033151507
-0.002239884
-0.00261613
-0.0018661087
0.0032329434
0.003333729
-9.802793E-4
0.0016252325
0.0022619732
-0.0010783339
0.003888899
0.0072601917
0.0028249398
9.955891E-4
9.672551E-4
2.2905674E-4
-0.0013320523
-0.0028562115
-2.3622782E-4
7.835791E-4
-0.0015447383
-3.4097565E-4
0.0021470012
0.0030539858
0.0031964853
0.003687651
0.004628165
8.04046E-4
-0.006570634
-0.008655629
-0.005510253
-0.004558803
-0.004753759
-1.077418E-5
0.0042639305
0.0028949445
5.533371E-4
-0.001829495
-0.003516352
-0.001937965
-4.8505044E-6
1.1093865E-4
1.3906027E-4
0.00191647
0.003923653
0.0031232692
9.097794E-4
3.5429536E-4
1.5275605E-4
-0.0012097702
-1.62433E-4
0.002205303
0.002087785
0.0033021413
0.0048005227
0.0048576305
0.005622665
0.001751945
-0.0032173751
-0.0031019922
-0.0036102096
-0.0032407395
-7.9468545E-4
-7.218342E-4
-0.0015569804
-0.0033563492
-0.0055446643
-0.006036738
-0.004947655
-0.0024309743
-9.7594317E-4
-1.7569237E-4
1.5128487E-4
-0.0013941703
-3.7132905E-4
0.0013085973
-4.299626E-4
-4.3849452E-4
0.0012833687
0.0018999615
0.0025907075
0.0016566814
8.6252805E-4
0.002966159
0.0032952195
0.0019477612
0.002499797
0.0020751054
0.0028971909
0.0068663633
0.0060302033
0.002921479
0.004059432
0.0027426793
-6.9403194E-4
-2.9082832E-4
-2.807686E-4
-0.0016661959
-0.0017338005
-0.0020078875
-0.0032476413
-0.005818598
-0.0071911397
-0.0042872024
-9.898323E-4
4.3009705E-4
3.1243046E-4
-0.0035197313
-0.0068500745
-0.004392653
-0.0011139098
-5.855935E-4
-1.5552805E-4
-2.1895207E-4
-2.8743153E-4
0.0012341893
9.733919E-4
-0.0010478945
-0.0014499665
-1.6082173E-4
0.0021188427
0.0025474392
0.0019221918
0.0030355135
0.0019578259
7.6346693E-4
0.001378659
-8.01891E-4
-8.8678295E-4
3.4584387E-4
-0.003298543
-0.0039609005
9.0557593E-4
0.004724285
0.005514499
0.0037806046
0.0015068403
-3.8440165E-4
3.2492177E-4
0.0023334902
-9.173372E-5
-0.0015179977
9.435177E-4
0.0013261073
0.0029696818
0.007388925
0.009050491
0.0066951327
9.871952E-4
-0.004663206
-0.007024855
-0.008084918
-0.009404136
-0.008934174
-0.0039768126
3.1280937E-4
-0.002447871
-0.0041346475
4.192084E-5
3.8829874E-4
-0.002773
-0.0020560713
-5.9226435E-4
-1.6894024E-4
0.0012510567
0.0014568155
-2.202308E-4
-0.0017299153
-0.0012715474
4.0137477E-4
9.0308615E-4
0.0019337382
0.004868352
0.007129682
0.006626652
0.004116734
0.0016360433
-0.0012610963
-0.003809219
-0.0041855965
-0.00294696
3.2604777E-4
0.0017557489
-7.8987784E-4
-0.0010041776
2.2468292E-4
6.822959E-4
0.0025211486
0.002252676
8.300387E-4
6.4270553E-4
-4.7965065E-4
2.1175732E-4
0.0020872077
0.0014277187
1.9690822E-4
-4.341579E-4
-0.0018856338
-0.004121654
-0.0030967838
6.393367E-4
5.4469856E-4
-7.869814E-4
8.7333715E-4
0.0022894787
0.0015623706
3.7306664E-4
8.5745915E-4
-2.6149015E-4
-0.0035487267
-0.00389455
-0.0034093414
-0.002229033
6.7909376E-4
6.8934396E-4
-7.5572607E-4
-0.0017828896
-0.0017160842
3.29576E-4
0.0010001953
0.0014499048
0.0026860298
0.0030353714
0.0029738734
0.0015760359
-3.6034794E-4
-0.0019356943
-0.0015714882
-3.16302E-4
-0.0018152362
-0.001220029
-1.5697027E-4
-6.6757837E-4
0.0023301425
0.0014960829
8.3677855E-4
0.005878792
0.0038571719
0.0021224034
0.004573275
-9.263578E-4
-0.005816887
-0.006366882
-0.006408149
-0.0015440691
9.509979E-4
-9.6252747E-4
7.352169E-4
0.0023446039
9.525981E-4
-7.271158E-4
-9.7062084E-4
0.0014053017
0.0018210382
-9.492689E-5
4.2792768E-4
-7.801853E-5
-0.0013214638
3.4926398E-4
0.0010506583
7.5443176E-4
5.517877E-4
-8.277547E-4
-8.28463E-5
0.002242252
0.0019422728
-1.12500195E-4
-6.784868E-4
-5.285195E-4
-0.0019063129
-0.0027662988
-0.0020921752
-9.7077416E-4
-2.706465E-4
-3.317543E-5
0.0018224438
0.001972377
-0.0013176752
-0.0026364182
-0.0028045767
-0.0031231542
-0.0017637529
3.6505444E-4
0.0031972174
0.0041361526
0.0022098122
0.0011202593
0.0010051085
7.756353E-4
9.464716E-5
-5.5162277E-4
-2.0032622E-4
0.001119324
0.0037703216
0.0037737775
-9.646718E-5
-5.792344E-4
7.629326E-4
-0.0014578098
-0.0011348611
0.0028846674
0.0031401897
0.0011166857
-7.002093E-4
-0.0044724615
-0.0055108787
-0.002736642
-0.0022032305
-0.0026592847
-0.0023767566
-0.0030498696
-0.0026199922
-0.0018525976
-0.002361531
-0.0011828896
-2.3473079E-4
-0.0013861732
-1.3055564E-4
0.0018703919
0.0016383704
0.0027579207
0.0046335035
0.0041723517
0.002946588
0.0027426654
0.0015847887
-4.4262045E-4
-1.6671633E-5
9.2733826E-4
0.0022256493
0.0050306697
0.006356877
0.008337857
0.006879727
-4.6242258E-4
-0.0044021765
-0.008868474
-0.0130140595
-0.008108453
-0.0034390078
-0.0022480008
-1.13535345E-4
0.0011198828
5.197742E-4
-0.0024005952
-0.0018266838
0.0012974762
-6.9297515E-5
-8.283795E-4
-3.0022557E-4
7.1609225E-5
0.0012996334
5.436768E-4
0.0016671738
0.002869122
0.0012727637
0.002078727
0.001576588
-2.7443466E-4
-0.0013934405
-0.0041708327
-4.211488E-4
0.006819149
0.0062489593
0.0030581045
7.7113225E-5
-0.0026057006
-0.0021552455
-0.00209902
-0.0014780231
-9.93375E-4
-0.0030955898
-3.5379105E-4
0.0033017886
1.7235665E-4
-0.0024200156
-0.0030288687
-0.00349852
-0.0021339506
-0.0010341409
0.0012314739
0.0022621057
-8.211361E-4
-0.0022841422
-0.002318005
-0.0023773068
-6.437487E-4
0.0011603954
0.0015099661
2.533737E-4
5.6570955E-4
0.0018769915
0.0015419824
0.0035326206
0.0055521196
0.0053322995
0.0050573093