-9.883468E-4
0.003208521
0.0042598126
0.005326393
0.004377706
0.0019671274
9.0366614E-4
-0.0032040065
-0.007710829
-0.0058320505
-0.0015065813
0.0012963336
0.004981265
0.0070033823
0.004560357
0.0018867309
-0.0011398307
-0.0062491437
-0.0098702805
-0.011063692
-0.008548438
-0.002904663
-2.2059724E-4
0.0011352085
0.004249946
0.004815048
0.002799349
-9.977526E-4
-0.005964045
-0.005440138
-8.6142635E-4
0.0018199754
0.0041901427
0.0050120316
0.0041341204
0.003999018
0.0022842854
1.1003844E-4
-0.002220231
-0.0032851964
0.002586915
0.0075137927
0.005926925
0.006066086
0.006159958
0.0026035747
-5.029504E-4
-0.0043528844
-0.008773521
-0.007836573
-0.0015902524
0.0038685512
0.006317935
0.0067529487
0.004162185
8.997761E-4
-1.9275876E-4
-0.0030716998
-0.0077244095
-0.010179246
-0.0099985255
-0.00478131
0.0011236803
5.648984E-4
-2.6157754E-4
3.978125E-4
-0.0022692704
-0.0061265533
-0.0090208445
-0.0067091966
7.8007195E-4
0.0064464244
0.008898357
0.0084567815
0.0067230384
0.002411816
-0.0044856775
-0.0062860036
-0.007808736
-0.008255882
0.0029708329
0.012993292
0.012497858
0.008860039
0.006453886
0.007676998
0.005449934
-0.0023196146
-0.00634199
-0.0066323723
-0.006047124
-0.0045831674
-0.0017927537
0.0015294037
0.002683554
0.00245289
-6.7375915E-4
-0.004961202
-0.0043616258
-0.0023473424
-0.0011164593
0.0025363918
0.0068068365
0.008253975
0.0063731344
0.002926006
-8.169201E-4
-0.005085073
-0.009884332
-0.009666774
-0.0019084507
0.0023806207
7.096227E-4
4.9715553E-4
6.03745E-4
-2.4505498E-4
-0.0025795319
-0.006774398
-0.008782553
-0.006790717
-0.0025050826
5.8308634E-4
0.0025496616
0.004552067
0.00473256
0.0045972764
0.0033024366
-3.2174346E-4
-0.002101308
-6.1040977E-4
0.0025387972
0.0040553636
0.0046452843
0.0071928767
0.008050327
0.0062426203
0.0026877455
-0.0019576752
-0.004377854
-0.00588494
-0.0046195886
9.2080346E-4
0.0029490553
0.0015878176
6.382463E-4
-0.0014278131
-7.0227706E-4
2.4684815E-4
-0.0050286804
-0.006407033
-2.1261167E-4
0.0044412413
0.007919278
0.0076509644
0.0027344418
5.868149E-4
-0.0031110381
-0.00941429
-0.0118964845
-0.011372168
-0.008086194
-0.003791483
-5.723954E-4
2.6302389E-5
-0.0010066922
0.0017968502
-5.032435E-4
-0.0075681456
-0.0039531467
0.0017421345
0.0048495927
0.010887556
0.011339153
0.010035931
0.010668394
0.0065569147
0.0023841746
-0.0017585075
-0.00630756
-0.00460672
-2.819909E-4
0.002702593
0.0061130146
0.010084277
0.012052167
0.008570788
0.002974578
-0.0020083021
-0.00785905
-0.010712445
-0.0076782526
-0.0018069767
3.8247724E-4
-0.0030884633
-0.0064060455
-0.009251222
-0.011619046
-0.011354697
-0.012458759
-0.012510957
-0.00851422
-0.0040495708
-2.5625134E-4
-3.579928E-4
-0.0018878687
1.4269256E-4
0.001971434
0.0014717267
-0.0029934682
-0.005307041
0.0024495397
0.010361754
0.015203572
0.020418698
0.021276372
0.02089221
0.020297613
0.017300362
0.014955145
0.012334082
0.011476587
0.011752218
0.006955487
-0.0013149993
-0.010902705
-0.018981164
-0.019949948
-0.016811153
-0.017521046
-0.02219207
-0.021598833
-0.012108076
-0.003231632
-0.0021090566
-0.003683284
-0.0045877323
-0.0070296754
-0.00866714
-0.010267705
-0.011821877
-0.007465829
-3.744767E-5
0.007024522
0.011458379
0.011372858
0.012810993
0.01272456
0.009168288
0.007242976
0.0037324312
0.0032090028
0.007506289
0.009709388
0.010093739
0.0065095616
0.0026564656
0.0018239488
-0.0017471479
-0.0061627524
-0.010714259
-0.011851908
-0.005409368
2.4071822E-4
0.0024356982
0.0037792204
0.006137974
0.007864965
0.00392375
-0.0027352376
-0.011828612
-0.015516331
-0.004655087
0.0044865767
0.0054006786
0.004248675
5.5260756E-5
-3.1257578E-4
0.0018863906
8.168676E-4
-7.2504326E-7
-0.0014200348
-0.002538924
-0.002172101
-7.124141E-4
0.0026115514
0.0029282158
0.0010820198
-5.849318E-4
-0.0055846847
-0.009644175
-0.008075779
-0.0034939859
0.0013483247
0.0053145117
0.0074858754
0.005628174
9.5469545E-4
-0.0032674065
-0.0068818154
-0.007850967
-0.005397499
-0.0012795044
0.003865549
0.0062176012
0.0057523744
0.0069516497
0.0074720415
0.004847044
1.7192542E-4
-0.004863467
-0.005479539
-0.0010578731
0.003477115
0.004733833
0.0031238403
0.0017516484
2.9051254E-4
-0.0021843754
-0.0047995076
-0.007832367
-0.007897672
-0.0034289032
0.0015602794
0.0033188432
0.0016680306
0.0028854064
0.0058293175
0.0027126134
-0.002664059
-0.005542631
-0.004416044
0.0018112337
0.006673442
0.0074529555
0.007031757
0.0050968984
0.0020734675
-0.0011787105
-0.0049914815
-0.008347033
-0.008950471
-0.0054167854
8.5416425E-4
0.0044494364
0.0024231921
5.698247E-4
4.277465E-4
-0.002214201
-0.005292721
-0.007031364
-0.006847798
-0.0026761205
0.0034195504
0.0076382235
0.008257915
0.006896405
0.0042851246
4.433055E-4
-0.0027720586
-0.00641266
-0.0069294376
-0.0011128495
0.003550967
0.0046011764
0.0047996086
0.0053690295
0.0062469817
0.0021315056
-0.005380423
-0.00925575
-0.008376165
-0.002496117
0.0034015286
0.0042220764
0.0033785694
0.0019775827
-2.3847172E-4
-0.0019539641
-0.003119853
-0.0037127642
-0.004909926
-0.0025297084
0.002996847
0.0011652565
-0.0011814116
0.0036090105
0.0042935926
5.736748E-4
-0.003192896
-0.007360135
-0.0063272035
-0.0023613244
0.0011165694
0.0043651024
0.004409744
0.004823836
0.0055848607
0.0028026733
-4.239728E-4
-0.002868383
-0.0036627841
-7.468231E-4
0.004167865
0.006941725
0.0065373806
0.005078061
0.0028182336
0.0016326642
-0.0012268301
-0.0071712467
-0.007663462
-0.0034765536
0.0017096689
0.004820339
0.002788734
0.0033236975
0.0027870412
-0.0015799685
-0.0048025716
-0.013346224
-0.018519176
-0.013195705
-0.005617975
0.0032991017
0.006783834
0.0054494943
0.0046755187
0.0018450652
2.5177473E-4
-0.0035914453
-0.0051435335
0.0012174648
0.003952386
0.0060958983
0.0084601855
0.006125
0.004875396
0.0019689212
-0.0012023891
-0.0028301002
-0.0046450626
-5.412694E-4
0.0040892665
0.00483334
0.005420977
0.004304848
0.0029555021
8.625969E-4
-0.0033725032
-0.00800125
-0.010595984
-0.006923938
-4.1420877E-4
0.0036001818
0.0043319245
0.0028168187
0.002291761
6.2177907E-4
-0.0027726162
-0.004901346
-0.0061013508
-0.003939415
2.7730825E-4
0.0022286214
0.0027003787
0.0029676326
0.0038788377
0.003090498
-4.3806763E-4
-0.0038128057
-0.0062457174
-0.0038461322
0.0021896514
0.004426867
0.005693769
0.007258852
0.0049028667
0.0017029297
-0.001612808
-0.0066065723
-0.008441328
-0.0048292847
-1.8933765E-4
8.7498245E-4
-6.743501E-4
-9.011143E-4
9.570682E-5
6.358985E-4
-7.620901E-4
-0.004274803
-0.0050289715
-8.60588E-4
0.0037375754
0.005781536
0.005590892
0.0041856705
0.0029629653
0.0026426713
0.001539224
-0.001670125
-0.0041895076
-0.0030266603
0.0011042291
0.0048197336
0.0057242657
0.005044497
0.0033212937
3.4837733E-4
-0.0029343267
-0.007422203
-0.009857501
-0.005429039
7.024778E-4
0.0038008157
0.0055809566
0.005232844
0.0031803867
5.423603E-4
-0.0041176607
-0.0072356723
-0.0070279124
-0.006304449
-0.0034683028
6.822643E-4
0.0027516226
0.0033771691
0.003165243
0.0026978902
6.9906487E-4
-0.0040291166
-0.006022706
-0.0020629547
0.003367715
0.005919366
0.0067898496
0.0072017843
0.0037256647
-0.001171368
-0.0028857256
-0.004363447
-0.0046439674
-0.0015610794
0.0012932345
0.0022925148
0.002306771
0.003403197
0.0042988816
0.0024293053
-0.0011260067
-0.0064069843
-0.0075451853
-0.002245423
0.0018294218
0.00609139
0.008041093
0.0040987576
0.0019087226
-0.0011837495
-0.005571522
-0.00689911
-0.008041198
-0.004290295
0.0019593998
0.0040892656
0.005068076
0.003902402
0.0026288726
6.9194793E-4
-0.0038502812
-0.0064513
-0.009272491
-0.0068192785
0.0011115078
0.0028911768
0.0031461476
-9.92374E-4
-0.008406713
-0.002829636
0.0026570247
-0.0019650261
-0.0021844408
0.0019342334
0.0048515457
0.006813296
0.006686251
0.004791278
0.0032583324
0.0036122156
0.0012139013
-0.0045027407
-0.005276222
-9.1706886E-4
0.004082126
0.008816336
0.010141488
0.0069988784
0.0025418368
-0.0021575843
-0.005592604
-0.0066027334
-0.0077145407
-0.0073792837
-0.002927733
9.995144E-4
0.0010594847
-2.9397348E-4
-7.927277E-4
-0.0010964372
-0.003339972
-0.007472574
-0.009754455
-0.006188964
3.9244135E-4
0.004875821
0.008146264
0.009125882
0.0061104605
0.0031141785
1.6788475E-4
-0.0044621383
-0.0067917905
-0.0042773564
0.001597827
0.006513954
0.006250953
0.0041644336
0.0046105357
0.004534876
2.5818066E-4
-0.0070058727
-0.010379793
-0.006678977
-0.0019299256
0.0020625032
0.0046224473
0.0029667523
0.0014724983
9.7012304E-4
-0.001479336
-0.00458848
-0.007089372
-0.0057639736
-0.0012389647
0.002522006
0.005224272
0.005752051
0.005466308
0.004371491
-0.0011673602
-0.0064218873
-0.0058036544
-0.0024469025
5.422522E-4
0.0034292643
0.005114933
0.004849743
0.004460408
0.0046805684
0.0041810703
0.0015630707
-0.0011002432
-0.0013620767
-4.391639E-5
0.002486628
0.0026740811
9.907702E-4
0.0016483568
-0.0014519999
-0.0075281863
-0.011351041
-0.014900167
-0.011878491
-0.0027258827
0.0037357684
0.0063778046
0.0045115617
0.0013076143
-0.0012568992
-0.004752488
-0.00805216
-0.009693943
-0.00573874
-0.002986676
-0.0051457514
-6.3838746E-4
0.005707151
0.007754636
0.010011306
0.01031499
0.011250793
0.012572464
0.012558574
0.01471831
0.01317905
0.0076408903
0.0026889087
-0.0031935438
-0.0073311236
-0.01109963
-0.015997132
-0.016157534
-0.011677703
-0.0056959414
-3.0542542E-5
0.0021402661
0.0016043382
0.0020294418
0.003678636
0.003793499
4.0888338E-4
-0.004427648
-0.005512463
-0.0024179074
4.404426E-4
0.0020822827
0.0026762867
0.0012229556
-8.811451E-4
-0.0022875427
-0.0037169042
-0.005087529
-0.004176277
6.8894864E-5
0.0036693646
0.002139098
-9.150146E-4
-6.509764E-5
6.6200737E-4
-0.003086002
-0.007857304
-0.009494781
-0.005627203
0.0020355966
0.0090614855
0.014751676
0.017625304
0.016661705
0.015206828
0.011843247
0.005979157
0.0035547127
0.0025922498
-4.4256556E-4
-0.0018186467
-0.0027195283
-0.004971534
-0.007818235
-0.011797245
-0.01485419
-0.017784756
-0.019089574
-0.015952045
-0.012241916
-0.0072725923
-0.0032054104
-0.002519084
1.9925316E-4
0.0013105512
1.00440644E-4
6.840478E-4
0.0013947473
0.004707061
0.008045159
0.010821572
0.015618315
0.01597568
0.015565668
0.01684459
0.011645929
7.3240686E-4
-0.010169191
-0.013449086
-0.009737759
-0.005870753
4.0261724E-4
0.005545507
0.005769443
0.004428615
7.755417E-5
-0.0042138854
-0.005048925
-0.005113997
-0.004100154
-0.0025079686
-0.0021466473
-0.0023161226
-8.2045747E-4
0.0031267768
0.0061508957
0.005362422
0.0031454738
0.0036864716
0.004308846
1.7522831E-4
-0.004827339
-0.0055182134
-0.0034199865
-0.0022535496
-0.0020812654
-0.002732089
-0.0067477818
-0.009904086
-0.006902479
-0.0027500265
-8.6118927E-4
9.880342E-4
0.0014275245
7.964049E-4
0.0028073005
0.0042240177
0.0030493806
0.004798954
0.008103733
0.009071037
0.008452833
0.005255697
3.8469874E-4
-0.0044425135
-0.008538011
-0.0117178615
-0.015433108
-0.015896017
-0.01122164
-0.0062930617
-0.0031423003
-0.0024262546
-0.0019140756
0.0015131948
0.0053542955
0.006673686
0.0047714394
0.005087438
0.010595923
0.013391124
0.013865434
0.014466859
0.008958148
0.0024836615
0.0011432924
0.0014214106
0.004065533
0.007098519
0.008492711
0.010887602
0.008540031
4.006935E-5
-0.004048483
-0.0025576567
-0.0040033287
-0.010905137
-0.018567055
-0.02050045
-0.016277397
-0.011487684
-0.007382035
-0.004103942
-0.0034194242
-0.0030918813
-0.0037661518
-0.0072869575
-0.010305254
-0.010437997
-0.006684048
1.6262488E-4
0.006231741
0.008819512
0.009341404
0.009959881
0.009560661
0.009530055
0.009681671
0.008548321
0.010043216
0.010865258
0.008872877
0.006688863
0.0019236596
-0.0010269844
-0.00440843
-0.011919238
-0.01596361
-0.0190077
-0.01777521
-0.010115967
-0.0066809435
-0.0036991474
-6.429524E-5
0.0015690597
-4.202301E-4
-0.011303391
-0.01782332
-0.01700651
-0.013859985
5.0772E-5
0.012627995
0.018757729
0.028633375
0.036323547
0.04347961
0.050152976
0.04686696
0.03914866
0.032149382
0.01973232
5.35344E-5
-0.020249818
-0.03683604
-0.04734338
-0.04746064
-0.038224235
-0.024274768
-0.015573224
-0.01918628
-0.025335662
-0.027142925
-0.025728615
-0.021304928
-0.021072896
-0.02502643
-0.019929694
-0.0053320616
0.008077425
0.020836085
0.03660789
0.051989675
0.065120704
0.07313146
0.07466227
0.07209605
0.060218316
0.038629092
0.017144116
-0.00601396
-0.033218745
-0.051728304
-0.06028856
-0.07006441
-0.077935286
-0.07982548
-0.07837455
-0.06936498
-0.053008243
-0.03787957
-0.028346743
-0.024053998
-0.024758052
-0.02575304
-0.018464398
-0.007141273
0.0023831902
0.017489798
0.03990863
0.06716211
0.095712215
0.11295999
0.11151442
0.09936471
0.093264
0.09331524
0.08017044
0.051985223
0.025216654
0.011034062
0.00809478
0.0054750834
0.0013641362
0.004075215
0.009010731
0.0032304178
-0.011460924
-0.0261922
-0.036670823
-0.03906612
-0.042609457
-0.060036577
-0.08122513
-0.09300814
-0.09788909
-0.09810101
-0.0922226
-0.08577282
-0.08120566
-0.075927265
-0.07651891
-0.08312367
-0.086396694
-0.08214359
-0.06792063
-0.05089523
-0.039694
-0.032563344
-0.015990011
0.029385166
0.08404761
0.11416319
0.13016607
0.15582234
0.19831319
0.23625483
0.24344076
0.22987486
0.20267427
0.15974018
0.11218964
0.06353661
0.023765769
0.0041581215
-0.010076695
-0.04123957
-0.09485769
-0.14558856
-0.15737218
-0.1319809
-0.10754756
-0.10767231
-0.12995054
-0.16007628
-0.1604327
-0.11384441
-0.053178634
-0.00449599
0.013850477
-0.006339625
-0.024540523
-0.0030903232
0.042053957
0.07131988
0.06807005
0.047951583
0.023137068
-0.0046227276
-0.028454527
-0.04416655
-0.049953956
-0.045785584
-0.035249587
-0.02519057
-0.024228098
-0.023385918
-0.00804286
0.013605675
0.033653468
0.05151023
0.058206037
0.055099484
0.05050476
0.054307524
0.08564613
0.13198654
0.162533
0.17825994
0.1749789
0.15084973
0.13074358
0.11015778
0.07520672
0.024839148
-0.05825251
-0.16014329
-0.24754791
-0.30490336
-0.30914667
-0.26763037
-0.20193683
-0.11839651
-0.048260856
-0.0065923682
0.018780114
0.045681372
0.08100019
0.08839739
0.07129753
0.05293352
0.024049591
0.026127843
0.061012052
0.07582019
0.07173567
0.05387857
0.049359135
0.054687336
0.019849235
0.009128325
0.049211737
0.052530248
0.018505938
-0.03490163
-0.11375083
-0.15953806
-0.14960136
-0.1305012
-0.109214045
-0.052072998
0.032455854
0.10210526
0.13860802
0.12788792
0.06401439
-0.0034379016
-0.012266865
0.033082068
0.07452085
0.085649915
0.082359776
0.057805274
0.019205468
0.01949144
0.046041436
0.035804816
0.0033685246
-0.015259531
-0.040220063
-0.085642554
-0.12270645
-0.12671842
-0.10907606
-0.07737574
-0.027777877
0.022893263
0.052058145
0.047351692
0.017651137
-0.032169487
-0.10278671
-0.13882773
-0.116047725
-0.09365034
-0.08610999
-0.06690446
-0.036278166
-0.008014528
0.01774193
0.07195459
0.14385986
0.17377926
0.16013898
0.13077272
0.09677753
0.0855724
0.09681841
0.09692318
0.077343054
0.03954867
0.011992232
0.0329085
0.057852734
0.053588744
0.06656302
0.08794775
0.05566119
-0.03470433
-0.12677385
-0.18031564
-0.20611516
-0.2096571
-0.19734825
-0.18748157
-0.16489637
-0.12776688
-0.09592771
-0.06372778
-0.026789207
0.008878227
0.037828736
0.057307564
0.06921395
0.07297905
0.073770896
0.07667591
0.07798842
0.075809
0.07333831
0.07204778
0.06944191
0.068132535
0.06628506
0.05966267
0.051169492
0.03439524
0.015134425
0.0072685312
-0.0010711052
-0.013395448
-0.019279916
-0.021978715
-0.026648572
-0.03168287
-0.033685353
-0.035044536
-0.036894094
-0.036313813
-0.034608454
-0.028225351
-0.016687194
-0.0068013594
2.5818357E-5
0.0029057246
0.0033447463
0.0032853794
2.4120285E-5
-0.0063731084
-0.013150833
-0.0159201
-0.012632766
-0.006675984
-0.004847292
-0.009048238
-0.00933745
-0.00526837
-0.0040432783
-0.0028810792
-0.0024113476
0.0014737302
0.0143837165
0.025878835
0.030604495
0.030321509
0.025669541
0.019968728
0.012893476
0.006237158
0.0019540116
-0.0013635771
1.2854305E-4
0.004679779
0.0051594344
0.0027020804
5.917885E-4
-0.0010547475
-0.0041939444
-0.011052289
-0.01782227
-0.017092032
-0.008900544
1.4573189E-5
0.0051769554
0.0057493346
0.004017422
0.0018586906
-0.0018675958
-0.0058440226
-0.008639067
-0.009242923
-0.0042517935
0.0031960194
0.0066417945
0.0071501103
0.0076964204
0.007759998
0.0044452273
-0.0028590797
-0.009400217
-0.010496054
-0.0035070558
0.008000943
0.01453324
0.01558704
0.0145217115
0.009142359
0.0016806693
-0.0059559103
-0.01399545
-0.017032698
-0.013425975
-0.0073258597
-0.003783941
-0.0043768645
-0.0032447546
-4.2506133E-4
-8.523218E-4
-0.003554094
-0.0071236626
-0.0065913233
9.6933567E-4
0.0066486374
0.0064147357
0.0061917845
0.005217817
-2.0322995E-4
-0.0032436296
-0.0030600391
-0.00708339
-0.009336596
-0.0058532455
1.1148015E-4
0.008720103
0.013760756
0.014880418
0.015691811
0.014377719
0.011051823
4.89665E-4
-0.009092821
-0.004540984
0.0033226763
0.006867146
0.0046727513
-0.0011227428
-0.0023239208
-0.0040371264
-0.0074606403
-0.010280402
-0.0122974105
-0.0066227103
7.9906225E-4
0.0035155842
0.0022497538
-6.1648147E-4
-0.0011957026
-0.009924877
-0.019520348
-0.01697623
-0.018913291
-0.018877076
-0.003895484
0.007980452
0.0102064805
0.0093198465
0.009196335
0.010144522
0.0072129862
0.0017901262
-0.002289696
-0.0013180737
0.007171167
0.016506815
0.021087404
0.022017198
0.018996619
0.011438482
0.00286437
-0.0050441697
-0.011079772
-0.010439409
-0.0054543517
-0.003659918
-0.0047908383
-0.0030028145
-3.9361585E-5
-0.0017256096
-0.004637414
-0.008485567
-0.012503114
-0.008124283
-0.0013166602
2.178816E-4
-8.2979375E-4
-0.0027387063
-0.0023369056
-0.0034446914
-0.009016222
-0.015556988
-0.019686528
-0.0105360625
0.0056888796
0.011471387
0.012635682
0.014193505
0.011436902
0.0067205704
0.0018892534
-0.0040951357
-0.007937585
-0.0044845166
0.0034452188
0.010467379
0.014083834
0.013185468
0.012480274
0.011567209
0.0048762597
-0.004947008
-0.010483373
-0.0068421206
8.811454E-4
0.004866967
0.0027703838
-0.0032363252
-0.0050949063
-0.003799903
-0.00657211
-0.012041898
-0.0150653245
-0.009703251
7.804797E-4
0.0075640855
0.008630836
0.0063496395
0.005193528
0.00375475
0.0011699095
-0.0031447094
-0.009146923
-0.0047987327
0.0043062787
0.007579759
0.010666962
0.006512474
-7.502115E-4
-0.0043659844
-0.013178183
-0.017669598
-0.01961493
-0.021487756
-0.0057775206
0.010912102
0.011721832
0.010199022
0.008466149
0.0049885004
3.4198354E-4
-0.007807983
-0.010447758
-0.0013839845
0.009586276
0.014989647
0.01775598
0.018485572
0.016492685
0.014640451
0.011957159
0.0054334663
-0.0029971735
-0.007465563
-0.006825078
-0.0067526107
-0.009366777
-0.011787761
-0.011756563
-0.0088790795
-0.007681553
-0.013423924
-0.017625589
-0.010465932
-5.1639625E-4
0.006781826
0.0123691
0.012554897
0.011206034
0.005508978
-0.005730435
-0.008962874
-0.0075779995
-0.006593129
-1.9658644E-4
0.0061811493
0.008648277
0.007379482
0.0048946
0.005434381
0.0028436554
-0.005281011
-0.011480824
-0.008166365
0.0019517206
0.0068039503
0.0067281392
0.006117095
0.0038817455
0.0023780004
2.9278375E-4
-0.0026613974
-0.005104344
-0.0065936637
-0.0022059933
0.0039354535
0.0058238334
0.0070676957
0.0074137906
0.0052857804
3.7220377E-4
-0.007348633
-0.012200722
-0.010747692
-0.0044188667
0.0034381049
0.006604215
0.004541457
0.0025300132
0.001263409
-0.0017173986
-0.005944704
-0.008533921
-0.006913887
2.808715E-4
0.00866288
0.010234414
0.0075967493
0.0066993553
0.004301011
-7.2183285E-4
-0.0072956993
-0.013805009
-0.01306491
-0.0052455454
0.0013744095
0.002103752
3.6099425E-4
0.0021305096
0.0021800238
-0.003095408
-0.0075071394
-0.009655244
-0.0075230617
-8.6851174E-4
0.004509292
0.006553828
0.004820915
0.0033064338
0.006096671
0.008189372
0.0046034413
-0.001512293
7.9515955E-4
0.011180663
0.015871143
0.015091318
0.014111394
0.009329306
0.0011854444
-0.009300917
-0.02172794
-0.027711032
-0.023127338
-0.015876522
-0.009309335
-0.0020849502
0.001138964
0.0016407205
0.0035290532
0.0018561799
-0.0040665898
-0.00774088
-0.0055325096
2.5106824E-4
0.004856556
0.0076549957
0.008873727
0.008854036
0.008524992
0.0044676955
-0.0024433564
-0.005669686
-0.0038412183
0.0011048046
0.0055913865
0.0064842505
0.006297404
0.0073824637
0.008803915
0.006868816
-0.0015412682
-0.008244243
-0.0053537562
0.0023195557
0.009934059
0.013934972
0.013502339
0.012428904
0.0092462655
0.0040604887
-0.0016901816
-0.008239237
-0.010548962
-0.009512532
-0.009139352
-0.009540568
-0.013018214
-0.01555429
-0.015100847
-0.01686532
-0.019687682
-0.021855855
-0.020082973
-0.012488803
-0.006606233
-0.004527732
-0.005528212
-0.009557246
-0.013933647
-0.01924275
-0.009638806
0.025883315
0.05430965
0.055960026
0.051117606
0.04636574
0.03616383
0.023301167
0.012423532
0.0057714875
-0.001813984
-0.009537145
-0.011066007
-0.008083505
-0.002102704
0.0017564242
0.0010009055
-0.0021168494
-0.011387269
-0.020188624
-0.026670584
-0.0356875
-0.035120916
-0.028533027
-0.026870169
-0.021737998
-0.0115765855
-5.457854E-4
0.0058846497
0.0052505042
0.004662954
0.0036873673
0.004822689
0.011600408
0.0172144
0.020674061
0.021069847
0.017193066
0.0116919
0.0058783726
0.0036042726
0.0015331571
-0.0022448958
-1.2765132E-4
0.0041164747
0.00321629
9.5757845E-5
-7.5167336E-4
8.223282E-5
-0.0016935958
-0.0065843835
-0.012231438
-0.014077359
-0.007890525
0.0011680443
0.0069413176
0.00945681
0.009336914
0.007070126
0.0031125033
-0.0022781608
-0.0075896652
-0.009038076
-0.004936841
-4.1695696E-4
-3.0844818E-5
-0.0010786919
-1.0649044E-4
0.0010467282
0.0010059213
-5.1116996E-5
-0.0036663322
-0.005288496
-0.0015159689
0.0026370448
0.0068902485
0.0087802885
0.0047579976
0.0018440582
-6.2919734E-4
-0.00597807
-0.008854909
-0.010030651
-0.007963522
-0.0013969927
0.0016992303
0.0019808547
0.001877105
2.711612E-4
-4.946652E-4
-0.0042417594
-0.009988359
-0.010214308
-0.006739143
-0.0023278357
0.0027580971
0.0071330457
0.008743986
0.007819425
0.008327274
0.0065385685
0.0014840082
0.0013568074
0.0052657765
0.009507699
0.010781873
0.007275254
0.004608987
0.0010931359
-0.0038076772
-0.005624473
-0.00819088
-0.008923841
-0.0040102038
0.001644357
0.006334332
0.008195311
0.007096842
0.006220243
0.005029213
0.0020533497
-0.001992322
-0.0038688052
-0.00452315
-0.0061309827
-0.0069167456
-0.0087970225
-0.011268331
-0.013185138
-0.016394833
-0.018278569
-0.020186571
-0.020360904
-0.013147683
-0.005243033
-0.001181136
0.0011703689
0.0025590132
0.004345327
0.0035581687
3.841734E-4
-0.0017082486
-0.0034481348
-5.407606E-4
0.009435529
0.020104276
0.027539756
0.032355405
0.036153108
0.039197084
0.040225904
0.03826535
0.034287505
0.02945612
0.018799396
-5.074404E-4
-0.02040893
-0.03263789
-0.034734007
-0.032387
-0.03463041
-0.036613647
-0.031135885
-0.023791505
-0.017524801
-0.013744844
-0.01544441
-0.016022023
-0.0130953
-0.011547282
-0.010084665
-0.008806105
-0.0076892264
-0.0020683222
0.0066622617
0.012132307
0.014049447
0.017401736
0.019923175
0.018714936
0.018414918
0.017232522
0.013807067
0.013626524
0.014749899
0.013089307
0.008829012
0.0038724302
2.8535462E-4
-0.0029457705
-0.006440361
-0.0111031225
-0.014012758
-0.008735935
-8.589463E-4
0.002954476
0.0048339074
0.004500622
0.0029758865
0.0013726834
-0.0012723396
-0.0035068688
-0.005972748
-0.006642836
-0.004421495
-0.0042472603
-0.004177282
-0.0035670374
-0.005637808
-0.0051322957
-0.0033971604
-0.006478707
-0.008260329
-0.004628195
-1.3354879E-4
0.0037953102
0.0073378724
0.0067435815
0.003719135
0.003955913
0.002800746
-0.001011307
-0.001817518
-0.0014662889
7.5034215E-4
0.004270136
0.0046505686
0.0045744646
0.004711812
0.0044611464
0.0023591802
-0.0012596961
-0.0013022373
-0.0037760157
-0.005473122
0.0018487147
0.004333373
0.0024133953
0.0033318494
-0.0011353305
-0.005036174
-0.004699874
-0.0062517985
-0.005307901
-3.7152309E-4
0.0035528305
0.0031784452
0.0013190481
0.0010783114
-5.810885E-4
-0.0027093226
-0.004736172
-0.0072495528
-0.0057940725
-3.5141112E-4
0.0044914144
0.005493353
0.004095302
0.002729854
0.0017613702
0.0019832929
-7.548267E-4
-0.0050483355
-0.0036154394
1.214968E-4
0.002883798
0.0039003957
0.0025566416
0.002225093
0.0015581431
0.0010740903
0.0012343609
-9.923191E-4
-9.168137E-4
0.002245538
0.0043392344
0.0051558
0.003512884
5.031765E-4
-0.0016276982
-0.0030992152
-0.0054412
-0.0070021404
-0.004175644
-9.172634E-4
9.773318E-4
0.0017585309
-9.409414E-4
-0.0018248189
-0.0019595237
-0.005174375
-0.006414963
-0.00735573
-0.007291199
-0.00218621
0.0037379593
0.0072182016
0.0067215343
0.0043071136
0.0025109483
1.0159322E-4
-0.0010174956
-0.0020329533
-0.0025939872
5.258322E-4
0.003509257
0.004543971
0.00406367
0.003091949
0.0036580332
0.002602398
-5.3632207E-4
-0.0028166173
-0.0019864656
0.0015493338
0.003037864
0.0035830599
0.0043509244
0.0023388
-0.0013243099
-0.0058971234
-0.008369183
-0.0071236724
-0.0059165033
-0.0029042687
5.851806E-4
-5.694597E-4
-0.0016979964
9.4800227E-4
0.0030549604
0.0018259576
-0.0015342977
-0.0048516593
-0.0047411704
-4.672325E-4
0.003064612
0.004098842
0.0047252835
0.004059393
0.0020043638
2.8908395E-4
-0.001074604
-0.0019511733
-0.0010104909
0.001361029
0.0034760623
0.0044612945
0.0034592082
0.0019473828
0.0011121104
-0.0016747456
-0.004863082
-0.005250976
-0.004617228
-0.0027057333
0.0014207034
0.00388772
0.0036232264
0.003512356
0.0029772872
0.0012227498
-0.0014526463
-0.0046012723
-0.004508972
-0.0021248613
-7.2425127E-4
0.0010068112
0.001539105
0.0014161706
7.862775E-4
-0.0028789863
-0.0047961343
-0.006061138
-0.00814913
-0.0044685747
2.087799E-4
0.0016852278
0.0031820645
0.0036424089
0.0031735392
0.0011987785
-9.771119E-4
-0.0021488727
-0.0034809804
-4.2962292E-4
0.0045425002
0.0062162867
0.0065535945
0.0050710374
0.0042304457
0.004069507
7.0003216E-4
-0.0024221165
-0.0024857186
9.6954446E-4
0.004906461
0.0046762396
0.0029651634
0.0013081688
-3.7557815E-4
-0.0020030246
-0.005316832
-0.007843844
-0.008610961
-0.0068611396
-0.0013891902
9.0210774E-4
-0.0010988556
-0.0011066432
-6.1429595E-4
-0.0013041325
-0.002422137
-0.005097455
-0.0044548092
5.985944E-4
0.0019796526
0.0020601738
0.005156087
0.0053478563