-0.008818026
-0.013672337
-0.009846581
-0.0021797793
0.0030738413
0.009099085
0.017301558
0.024584437
0.019632848
0.00554869
-0.001872938
-0.0070983963
-0.012589454
-0.0109436335
-0.008326266
-0.0052991705
0.0049272333
0.015912255
0.016854163
0.0027318131
-0.015487882
-0.02307086
-0.02914352
-0.034917407
-0.02349475
-0.0012917462
0.015737377
0.021544613
0.016015457
0.0077453274
8.935602E-4
-0.002341349
-0.0014820512
-0.0012510284
8.8874204E-4
0.0054130657
0.01421323
0.024065705
0.018780584
0.0049407664
-0.0036123986
-0.0079544075
-0.008193517
-0.010925443
-0.013287185
-0.0030082
0.014338012
0.026632087
0.023835644
0.0055633215
-0.014715756
-0.024867585
-0.022808496
-0.018228902
-0.012846176
0.0012700331
0.017487496
0.025293006
0.020791015
0.0050775227
-0.012091819
-0.022287792
-0.020486131
-0.010460535
-0.008233805
-0.010218048
0.0025768352
0.021403447
0.022066314
0.0021296025
-0.018379327
-0.023243506
-0.018819645
-0.014713506
-0.00869543
0.0029772986
0.019709393
0.031031013
0.02658795
0.008651909
-0.010920287
-0.015665768
-0.006557214
0.0010280623
0.003923512
0.009766979
0.025984569
0.039015286
0.030245045
0.01185015
-0.0016857506
-0.01147894
-0.020523136
-0.027832385
-0.023541527
-0.0057311915
0.01565685
0.0266587
0.017280063
-0.0035945498
-0.02441971
-0.03534394
-0.030582603
-0.022594951
-0.014692805
-2.4062426E-4
0.016011842
0.025714088
0.019804744
-2.3037585E-4
-0.019386021
-0.02741078
-0.025563398
-0.017669199
-0.0039018816
0.0126461005
0.032991324
0.049907453
0.04147012
0.016095044
-0.0041549425
-0.016160091
-0.016054606
-0.009806099
-0.00414769
0.0071077053
0.019482266
0.024445271
0.015556536
-0.0067502577
-0.023263762
-0.023509791
-0.020360412
-0.02089368
-0.015953874
-0.0027264042
0.014316214
0.02924275
0.0271797
0.008791924
-0.007678806
-0.015650583
-0.015580683
-0.011158421
-0.005071464
0.004714575
0.014108466
0.019242251
0.015184471
-0.0014048131
-0.017769214
-0.021550504
-0.017495286
-0.014991919
-0.011659999
-0.0018483219
0.012293284
0.024986327
0.024390617
0.009802589
-0.0035281854
-0.011992825
-0.01420861
-0.006921924
0.0012037273
0.007089472
0.015181695
0.02405923
0.023974143
0.006008731
-0.015903084
-0.021779027
-0.016429668
-0.0126316445
-0.0123173995
-0.007336317
0.007931324
0.020094106
0.017434673
0.0028784166
-0.014043597
-0.013942426
-0.007397641
-0.018571252
-0.022940611
-0.0112157045
0.0029577394
0.027085358
0.03328817
0.010969192
0.0026511843
0.0069397073
0.0033263
-0.0034907928
-0.006553246
6.477423E-4
0.009690613
0.011969423
0.008374434
-0.0026650748
-0.01572712
-0.025996758
-0.026988061
-0.01610358
-0.004836937
0.0049834033
0.015624781
0.020949898
0.017037677
0.0048840367
-0.007771899
-0.011903457
-0.008109409
-0.0054638856
-0.0028271442
0.0060683163
0.014424242
0.019542925
0.018885387
0.006708124
-0.007217038
-0.014419184
-0.01688581
-0.01937361
-0.017831977
-0.003936307
0.011255835
0.020071978
0.019849004
0.0073003643
-0.0012280085
-0.0082554445
-0.018928714
-0.014325497
-0.0048078285
-9.1434404E-4
0.008312453
0.015372606
0.013402564
0.0042744945
-0.007740198
-0.015275576
-0.018273005
-0.014666337
-0.006795001
-1.18938944E-4
0.009730752
0.019606806
0.02199803
0.015169046
0.0036687902
-0.0019237314
-0.004223499
-0.008630992
-0.009897397
-0.007544424
0.0014905473
0.014682187
0.015188267
0.00443887
-0.0027512184
-0.005832424
-0.009935413
-0.01363736
-0.012201459
-0.0036335443
0.00653513
0.005632709
-0.00305109
-0.0032600863
5.0638155E-6
0.0018556342
0.0044474276
3.2656672E-4
-0.002165288
2.1508215E-4
0.0017155453
0.009270769
0.010898972
0.0047731074
0.0026111512
-0.007345543
-0.015124999
-0.00974441
-0.006501236
-0.0017923616
0.007966482
0.015739879
0.019186715
0.015521213
0.010241718
0.0041858666
-0.0071954345
-0.0155195
-0.014043188
-0.008732278
-0.0048895758
-0.0015299494
-0.0037382992
-0.011448073
-0.011267775
-0.0033345642
0.0036090566
0.008269517
0.00835331
0.003084016
-0.0014740146
3.6678743E-4
0.0035544173
0.0014275281
-0.004087074
-0.0074794674
-0.0036044547
-9.945615E-4
-0.0069234828
-0.006945919
0.0050935885
0.017253939
0.018899063
0.010029127
3.4353402E-4
-0.0048075095
-0.0069273305
-0.007846802
-0.0074268463
-0.0047419225
8.184404E-4
0.0067411247
0.007165033
0.0075511066
0.008586402
0.002166748
-5.1618984E-4
-2.951495E-4
-0.0059659467
-0.0035632693
0.004727473
0.0053503807
-1.3369006E-4
-9.0657413E-4
0.005585742
0.0011705518
-0.010571726
-0.013228415
-0.012199869
-0.0061667273
0.0045655603
0.014951632
0.01669573
-0.0015624103
-0.014555723
-0.0069280253
-4.563913E-4
0.0031620043
0.0073780636
0.007681758
0.007974273
0.010574028
0.010499727
-0.0018976282
-0.020646501
-0.034709297
-0.044053927
-0.034715015
-0.0045033805
0.016962752
0.021684496
0.025144923
0.022997813
0.010957114
0.0015560621
-0.0038738516
-0.0040120534
0.004068078
0.005823433
4.8608397E-4
0.0011432839
0.007311239
0.010697671
0.004902597
-0.0019848496
-0.0040817955
-0.0071741436
-0.0054608495
1.8288106E-4
0.0015658641
0.0053321635
0.01132597
0.009161687
-0.0013455793
-0.010363279
-0.012788693
-0.013044461
-0.01262613
-0.0099087
-0.0039575575
0.0055192164
0.014152297
0.017136708
0.0119851995
0.0019251708
-0.0058755567
-0.008583782
-0.0056147976
-0.0012490343
0.0015749444
0.006562422
0.011248438
0.011531581
0.003230013
-0.011658742
-0.016417881
-0.013727268
-0.018496169
-0.01929414
-0.007025811
0.005496407
0.010732442
0.011890016
0.008380798
1.6391718E-4
-0.0031072707
4.5226308E-4
0.0012634336
-0.0012411319
-0.0011621917
0.0042028534
0.013484692
0.018601807
0.011694642
-0.0016480486
-0.009045142
-0.01119371
-0.011706227
-0.006162021
0.0010568689
0.0069497623
0.016449327
0.019689847
0.009725173
-0.0022138762
-0.011128029
-0.016807709
-0.017277602
-0.015920421
-0.011967764
-0.0035418025
0.005359765
0.012516289
0.013130595
0.006790827
0.0037399915
0.004959243
0.0034560554
-0.0014167846
-0.0042463047
-2.623957E-4
0.0059067546
0.007235633
0.0018106187
-0.0069604195
-0.010870969
-0.009704373
-0.007446902
-0.0053795245
-0.0054150987
-0.0014394862
0.0066595455
0.008657429
0.006106883
7.5749785E-4
-0.009529986
-0.016619727
-0.012527413
-3.8724917E-4
0.008965553
0.011244552
0.012218241
0.014339364
0.013029367
0.0044182166
-0.0046794573
-0.0067439196
-0.0049790824
-0.0015803573
4.9351796E-4
3.234253E-4
0.0043570534
0.0076192087
0.003687994
-0.0018631677
-0.005269208
-0.0050311554
-0.0041195257
-0.005680867
-0.00582201
-0.003894969
6.9212477E-4
0.00466462
4.2596666E-4
-0.0059904386
-0.008188178
-0.0088870535
-0.008057921
-0.0047729732
0.0022357518
0.011041485
0.016232979
0.017168434
0.0142066395
0.00810443
0.0032464173
0.0024798524
4.1798322E-4
-0.0069900216
-0.00932783
-0.0028484666
0.0026874465
0.0052999905
0.0024877822
-0.0057963836
-0.008537839
-0.009751415
-0.016512733
-0.015396644
-0.006176425
-0.0019321366
0.0055924277
0.016268793
0.010987357
-0.0036690915
-0.011805777
-0.013441386
-0.0062515885
0.0049932357
0.0086265765
0.008731397
0.013721784
0.019094845
0.0150836455
0.0024427825
-0.006859156
-0.009335997
-0.013529675
-0.014447862
-0.004975622
-8.446902E-4
-0.001612942
0.0074905585
0.013514008
0.009982509
0.00545807
2.7726806E-4
-0.0016493716
-0.0031210117
-0.005885659
-0.0017918096
0.0057464303
0.010335744
0.007827921
-0.001490894
-0.008753618
-0.011868776
-0.011075886
-0.0068275193
-0.0030662185
4.8484295E-4
0.0045399256
0.00810757
0.007017244
0.0013196269
-0.0018209339
-0.003999678
-0.008539506
-0.013782665
-0.015680404
-0.006624933
0.009075431
0.01928416
0.017823832
0.004358595
-0.007314071
-0.004247782
0.0036382996
0.003846174
-1.8652227E-4
-0.0022745137
4.8491437E-4
0.008364451
0.011195056
0.0034282974
-0.0026125752
-0.0015085943
-0.0027051659
-0.0073572975
-0.007871159
-0.00475932
-9.965551E-4
0.0036720906
0.0028822436
-0.0039618164
-0.007130049
-0.0077089434
-0.009755664
-0.007939676
-9.947189E-4
0.0068760067
0.014217084
0.017860837
0.014145623
0.0064095543
-0.0016765681
-0.006834212
-0.005337976
-0.0030451813
-0.0032867643
7.387062E-4
0.010392755
0.018237408
0.013360172
-0.0026828079
-0.013333274
-0.014625671
-0.012867807
-0.007571231
-0.0021937708
-6.9732725E-4
0.0024725776
0.0056848433
0.001565021
-0.0053521264
-0.010001838
-0.012504092
-0.011618523
-0.007817065
-1.10797395E-4
0.008737822
0.013156488
0.014318897
0.009997068
-6.8525603E-4
-0.0100559415
-0.0133672375
-0.010428539
-0.0039134123
0.0027823271
0.0077477368
0.014800198
0.02437584
0.021067368
0.004818295
-0.0073822304
-0.012663484
-0.010628907
-0.0048478353
-0.0012134826
0.0070160227
0.017728237
0.021304915
0.014659955
-7.385164E-4
-0.015202993
-0.02255477
-0.02342929
-0.017512705
-0.004794773
0.010604809
0.015814427
0.009544204
0.0044062855
-2.6503112E-4
-0.007278019
-0.012531313
-0.014492933
-0.011497912
-0.008170874
-0.005143957
0.0071993796
0.019696333
0.015571792
0.0017781028
-0.0075273532
-0.008920863
-0.00662147
-0.005053526
-0.0013162378
0.0057219174
0.010579776
0.012651712
0.012323548
0.0041101654
-0.008930329
-0.013593506
-0.009176601
-0.0046115643
-1.7627067E-4
0.005900672
0.012536303
0.017305853
0.01389914
0.0017160514
-0.009066574
-0.011568558
-0.011517932
-0.0106280465
-0.0037156553
0.0025456701
0.007031011
0.015019472
0.012376277
-0.002939308
-0.010211293
-0.0067257113
-0.0038140242
-0.0048599443
-0.0065740347
-0.0030771878
0.00667679
0.01404921
0.010596147
0.0012447198
-0.005362398
-0.011048584
-0.015062586
-0.012601798
-0.008837617
-0.004519022
0.0056612543
0.014486479
0.015394299
0.009411101
-1.3953916E-4
-0.005085766
-0.0069965837
-0.009754518
-0.009097567
-0.0057308124
0.0042895
0.016793348
0.01504849
0.0046623447
-0.004723767
-0.012724776
-0.012022743
-0.0052924096
4.2873694E-4
0.007183344
0.0140214255
0.01730976
0.015484391
0.009665573
0.0020485693
-0.005146738
-0.0086060995
-0.008756641
-0.009085873
-0.006565851
0.0037032503
0.012619589
0.010878788
0.0033839394
-0.0069905524
-0.016122276
-0.017510423
-0.014329106
-0.008464418
6.980614E-4
0.0090922015
0.010819875
0.0069323946
0.0012843093
-0.01062595
-0.017549736
-0.009080266
-0.0043164873
-0.0031027992
0.008197507
0.022400077
0.03198543
0.026722293
0.0057425234
-0.014412628
-0.02425174
-0.02153484
-0.015723472
-0.012218644
7.4838044E-4
0.01778963
0.024300775
0.02140432
0.011629474
-0.0012913428
-0.008229457
-0.008995154
-0.009876853
-0.009835785
-0.005844905
0.0021948302
0.011037417
0.011150949
0.0015167261
-0.008242404
-0.014814143
-0.017663706
-0.0140837
-0.0065026777
9.255199E-4
0.010060999
0.018917073
0.01858969
0.009574285
-9.258802E-4
-0.0073736706
-0.0071303886
-0.006437189
-0.0077255554
-0.0035940493
0.0067648552
0.015125347
0.013039557
0.001377702
-0.0094242925
-0.011967744
-0.00864937
-0.004665363
-5.0341616E-5
0.005041457
0.010847522
0.017759383
0.017525746
0.007106493
-0.005184551
-0.012290689
-0.012631456
-0.01196925
-0.011023752
-0.0038995577
0.007028051
0.015912142
0.016078798
0.006812599
-0.0028771677
-0.011404951
-0.017188026
-0.015354
-0.015243269
-0.019795362
-0.016549153
-0.009390138
-0.0047775577
0.0079265665
0.023389224
0.024295397
0.013050536
0.002864682
0.0013524012
0.004881023
0.012165375
0.02372529
0.023423072
0.008484892
-0.004936766
-0.014192946
-0.01864685
-0.01525375
-0.007852882
-2.8549726E-4
0.0076186527
0.016415743
0.01795686
0.007598956
-0.0067720455
-0.015924232
-0.015367503
-0.012081925
-0.01146475
-0.010227071
-0.0039015699
0.009532634
0.011892218
-0.0022899383
-0.009298543
-0.0090876315
-0.011430004
-0.013023273
-0.010671099
1.630939E-4
0.011811288
0.017410561
0.016755432
0.006851592
-4.4060365E-4
-0.002282655
-0.0069375522
-0.008528878
-0.0069915084
-0.0028166918
0.008623073
0.02152834
0.024760049
0.013156142
-0.0024621591
-0.011647424
-0.015458645
-0.013910464
-0.008458167
0.0013115938
0.013816858
0.022214705
0.025285209
0.018063108
-2.0690629E-4
-0.016522322
-0.023552746
-0.02192112
-0.014724234
-0.0046006036
0.008267948
0.020529518
0.02611663
0.018124118
-0.002234667
-0.021811308
-0.032322045
-0.033285093
-0.024475208
-0.0071950136
0.013192107
0.024240034
0.02093942
0.011266985
-0.0043153735
-0.018552916
-0.016917761
-0.010443865
-0.0067916373
0.0025137842
0.014860587
0.028469985
0.033335008
0.017861467
-0.0037541604
-0.018310385
-0.023634199
-0.022475425
-0.01712982
-0.002001983
0.014930449
0.024013974
0.025435753
0.013771477
-0.0050317096
-0.015187179
-0.0140982745
-0.011579687
-0.00984092
-0.0024036616
0.0073811924
0.018758904
0.025697675
0.013889374
-0.0030524172
-0.009766457
-0.014927848
-0.022083985
-0.021049995
-0.0068391818
0.009791096
0.02407663
0.031855814
0.02000299
-6.1777304E-4
-0.011751244
-0.013471568
-0.012114737
-0.01168529
-0.006620386
0.006178443
0.02248396
0.026170347
0.004137512
-0.01993187
-0.034495458
-0.04815645
-0.043453805
-0.019373592
0.0052459566
0.024487654
0.03321743
0.032584272
0.022112269
0.0022559038
-0.009471924
-0.010045872
-0.014269635
-0.021638498
-0.018722644
0.0051576397
0.041042484
0.054890282
0.035607945
0.009401267
-0.009090797
-0.017175043
-0.015560471
-0.013035044
-0.0060865465
0.006199738
0.015899789
0.02120675
0.013404488
-0.0070140674
-0.02129999
-0.025454309
-0.029120058
-0.030172411
-0.02271963
-0.0068340986
0.018370952
0.036372926
0.027888546
0.006666555
-0.010149278
-0.018114245
-0.01693441
-0.010935804
8.08145E-4
0.013995593
0.024855608
0.031221788
0.019798858
-0.0028091716
-0.018236486
-0.025060767
-0.026179332
-0.024921732
-0.019190708
-0.0026304214
0.020998416
0.034439433
0.024148338
0.0025209943
-0.01407271
-0.021490658
-0.018615305
-0.011678124
-0.0031267824
0.009475619
0.02297689
0.030866524
0.023160746
0.0033104273
-0.011959586
-0.018015647
-0.019799182
-0.018723113
-0.012388101
0.0018302429
0.019999892
0.028480103
0.01967904
0.002390947
-0.011281759
-0.015739117
-0.013691051
-0.0077289385
0.0024750442
0.014061978
0.02682348
0.033597644
0.023120191
0.0022042866
-0.014849184
-0.021391813
-0.022173144
-0.022701586
-0.019525567
-0.009915042
0.007429376
0.020660218
0.015065869
1.3076414E-4
-0.011621664
-0.01695242
-0.018987242
-0.019589987
-0.0163135
-0.01723088
-0.013839765
0.0054788087
0.019525886
0.01789276
0.0068021123
-0.0049496517
-0.0031582157
0.00278156
0.0023223069
0.010628391
0.03133565
0.043127004
0.033916213
0.014832267
-0.0034384811
-0.014965648
-0.017365301
-0.016250474
-0.009767431
0.0033781119
0.012725985
0.011672489
0.0044372967
-0.0035311088
-0.011506873
-0.013997038
-0.012310292
-0.016573125
-0.019035136
-0.009551351
0.006967515
0.01715785
0.009963517
-0.004976819
-0.014899136
-0.019366907
-0.017879503
-0.012003702
-0.004001707
0.0071847592
0.020987736
0.030011263
0.025679383
0.012021079
-4.083193E-5
-0.005820431
-0.007734876
-0.008281106
-0.0065538837
4.8766632E-4
0.01119068
0.014324821
0.009609286
8.183778E-4
-0.012126726
-0.01603034
-0.018009802
-0.021962501
-0.0075637554
0.0054084095
0.007809427
0.019815378
0.022689
0.010112456
8.074051E-4
-0.0036792338
-0.0047289855
-0.0053428104
-0.005910204
-0.0023940988
0.0070453803
0.015002192
0.007996731
-0.0076687806
-0.020401385
-0.026057037
-0.023721801
-0.01816128
-0.0068980916
0.0057075266
0.016702361
0.027632331
0.024271369
0.016046673
0.016734628
0.015277558
0.010429397
5.532583E-4
-0.0061101713
-0.0017406015
-0.0019977146
-5.959147E-5
0.0072270837
0.0018707132
-0.008722466
-0.014893197
-0.018005146
-0.016439363
-0.012338541
-0.0073678
-0.003444621
-0.0017363647
-0.0053050704
-0.020250859
-0.035279255
-0.031843163
-0.012724818
0.0064420146
0.015559877
0.019028388
0.029254202
0.03862601
0.033389878
0.019579666
0.0015896494
-0.0109457215
-0.0072690775
-0.0013716458
0.0022443966
0.009202804
0.014350014
0.017889882
0.015080398
0.0028590842
-0.007984641
-0.011388892
-0.011934199
-0.01758456
-0.021591654
-0.016280644
-0.009825764
-0.005121875
-0.0060318024
-0.00982194
-0.0033880465
0.0021454291
-0.0034175133
-0.007888473
-0.005016133
0.003724156
0.011648554
0.013883753
0.014249952
0.010800622
0.0047184387
0.0021513915
-4.0045634E-4
-4.792821E-4
0.004464534
0.00726124
0.011659449
0.015363206
0.00815496
-0.0038181448
-0.014762955
-0.01939035
-0.017930878
-0.019624498
-0.013851921
6.570573E-5
0.009002947
0.018510494
0.02070285
0.007116112
-0.006756279
-0.012778135
-0.011726757
-0.008918248
-0.009595244
-0.0065312656
0.006361943
0.019452982
0.016787924
0.0034455617
-0.003924516
-0.0051599178
-0.0046087597
-0.004588759
-0.0046535814
5.436971E-4
0.0071526202
0.010746002
0.012514971
0.0077301785
-0.0018975748
-0.0061373087
-0.006442695
-0.0067372397
-0.0038902578
4.0720828E-5
0.0072205663
0.016153257
0.013322168
0.003651568
-0.005335813
-0.013920192
-0.013166666
-0.0102327475
-0.008228146
0.0030143422
0.010371376
0.0105877835
0.011589729
0.0042745867
-0.006943868
-0.011434643
-0.012241674
-0.011652231
-0.010784751
-0.008617969
-0.0019750441
0.005269576
0.0053717094
-0.0012009674
-0.006167454
-0.0057297996
-0.003758895
-0.0034677295
-2.9498414E-4
0.0077746343
0.014258439
0.018543322
0.019705608
0.01197236
0.0015543634
-0.003457927
-0.0049171336
-0.003598012
2.22837E-4
0.0043863654
0.010787797
0.016486224
0.012067779
0.0010217845
-0.008066602
-0.015161877
-0.017507922
-0.014769206
-0.0106303375
-0.0040597985
0.004965887
0.013757555
0.014613596
0.0048356387
-0.0043973317
-0.008660913
-0.011880437
-0.013393659
-0.010726796
-0.0043533687
0.0020744423
0.0077716517
0.00864647
-5.0040668E-5
-0.008995284
-0.012237595
-0.013471375
-0.010898765
-0.0056575914
-0.0011299399
0.0063618743
0.014820889
0.014921875
0.007285382
8.869979E-4
-2.9421956E-4
0.0027405845
0.0065964637
0.008223653
0.010738745
0.018217899
0.025493426
0.023089904
0.010273135
-0.00569822
-0.01694117
-0.019902412
-0.017702717
-0.013823195
-0.009128753
-0.0030374578
0.0047100526
0.009243991
0.0050555663
-0.005715548
-0.014407197
-0.01691329
-0.01343063
-0.0038660804
0.003565159
0.009070059
0.016497623
0.009781581
-0.005192852
-0.009304118
-0.014196568
-0.02044493
-0.016078886
-0.007419708
0.0023260647
0.014534365
0.024261646
0.024132803
0.01402997
0.002885519
-0.0051702294
-0.0084206695
-0.0071261288
-0.005807432
-0.003921088
0.001152771
0.008297318
0.009931154
0.0042009153
0.0011063421
0.0016455692
0.0018852247
0.0014772231
-1.0262523E-4
0.0023056706
0.00879724
0.013923548
0.013831004
0.0019044036
-0.01361665
-0.017120158
-0.0149056455
-0.015684078
-0.014529926
-0.008972602
8.670194E-4
0.011555427
0.012483355
0.0017684572
-0.009769467
-0.012000089
-0.0065502813
-0.0022315877
9.803706E-4
0.003279959
0.0039983885
0.009832094
0.013981551
0.007859126
5.799724E-4
-0.0031859535
-0.005031991
-0.0038133636
6.086278E-4
0.0058475244
0.0100161135
0.015003628
0.0143875275
0.004104197
-0.0049276813
-0.0113798
-0.017623538
-0.019012572
-0.016723018
-0.009323836
0.002383334
0.0094002215
0.010656009
0.0070901904
-4.1608105E-4
-0.0039908835
-0.0033892307
-0.0041770907
-0.0040983884
-1.0796961E-4
0.0063065453
0.0109878415
0.011145129
0.0072110477
-7.408804E-4
-0.0073562586
-0.007749158
-0.0060818745
-0.00390677
-0.0018652299
-1.7759785E-4
0.00530826
0.009376714
0.004253708
-0.0039211386
-0.004964365
-0.0016556854
-0.0011467446
7.2861795E-4
0.0042456975
0.007944722
0.016162265
0.017404826
0.005273679
-0.0074082357
-0.015378568
-0.017002683
-0.013520723
-0.010092831
-0.0040626377
0.0060546612
0.01634777
0.019648941
0.011239064
-0.0017064456
-0.008784357
-0.0096917255
-0.011298595
-0.011692118
-0.007848557
-0.0024082907
0.006067201
0.0062486664
-0.005255394
-0.00911339
-0.008197285
-0.0085309
-0.004425925
-0.0028156235
4.939183E-4
0.009985868
0.016645327
0.019338233
0.015356085
0.0066208043
0.0016880167
0.0014905528
0.0043218853
0.0030692748
1.5473718E-4
0.0050105397
0.0073544737
6.570891E-4
-0.0063039484
-0.008911717
-0.0103633255
-0.01665924
-0.017516313
-0.0049815397
0.0030186747
0.004347228
0.0084772
0.0053169834
-0.003952657
-0.008371978
-0.0103063155
-0.012985596
-0.014989442
-0.008477436
0.00503966
0.0124987075
0.02028382
0.027343145
0.017389815
0.0054353722
0.0042774472
-6.2864914E-4
-0.009190399
-0.012687139
-0.010014163
-8.1434357E-4
0.008968073
0.012931363
0.008991724
-7.619814E-4
-0.007148642
-0.008487445
-0.010123025
-0.010220019
-0.007060046
2.4130695E-4
0.010569119
0.01243102
0.0029480313
-0.0066009876
-0.012070707
-0.015630525
-0.015948968
-0.011127763
-0.0040081865
0.0032437427
0.012104743
0.016794378
0.011883933
0.0030880529
-0.0030135016
-0.004365595
-0.00423702
-0.0042300224
-0.0010785001
0.005590219
0.015082109
0.018852923
0.010293991
-2.0554572E-4
-0.0076325657
-0.012240934
-0.011103375
-0.0063377316
0.001184815
0.008332
0.0150724165
0.022445796
0.017694531
0.0017174226
-0.010460361
-0.016565423
-0.017631806
-0.015423566
-0.010833126
-0.0013095968
0.00843038
0.011317827
0.004126746
-0.010206068
-0.020686273
-0.020747878
-0.015104813
-0.008197809
-2.1430079E-4
0.0070432476
0.013252118
0.015960474
0.010451591
0.0019540766
-0.0020902122
-0.0014759449
-6.0792034E-4
-0.0017245577
0.0011779134
0.01058804
0.02051648
0.021618493
0.010514172
-0.0018123928
-0.009580824
-0.014665641
-0.013428026
-0.006818383
0.0012840737
0.00902153
0.013880075
0.013908615
0.006484097
-0.0075913034
-0.021373196
-0.025359096
-0.017761897
-0.004329621
0.010504548
0.018899165
0.017627167
0.010269797
-0.0021163777
-0.019294271
-0.03668429
-0.031108515
-0.0020690877
0.009974456
0.008553132
0.021151979
0.029046666
0.013966755
-0.010689913
-0.01799804
-0.0035980411
0.0027628657
-0.003635136
-0.0038819169
2.961358E-4
0.008250768
0.020698005
0.021818437
0.011166744
0.002481026
-0.0061784037
-0.014110885
-0.015882611
-0.01591691
-0.012204049
-0.0014445801
0.012315041
0.021349657
0.015380249
5.4479146E-4
-0.008891911
-0.012147035
-0.012393288
-0.011216956
-0.007943176
9.228749E-4
0.014754833
0.022304099
0.01282715
-0.004715589
-0.017389314
-0.023200111
-0.02142094
-0.014123733
-0.005215039
0.005342934
0.018314343
0.02661226
0.020819396
0.006638804
-0.0045137396
-0.009018978
-0.0101659335
-0.011118252
-0.006166734
0.006054045
0.020163499
0.028164158
0.018528333
-0.0019589055
-0.01749612
-0.023431811
-0.018956732
-0.011619295
-0.005663917
0.0056049367
0.018998217
0.025142455
0.019874321
0.0044080135
-0.010591565
-0.01598965
-0.01721422
-0.017425466
-0.011034249
0.0010685719
0.016273422
0.02508002
0.01532961
-0.0020364677
-0.01393073
-0.019733567
-0.019426737
-0.01560815
-0.008014059
0.0030135007
0.01568135
0.024348643
0.017265981
0.0010523492
-0.010113467
-0.013203279
-0.011223686
-0.013094487
-0.013023555
-2.5167837E-4
0.016992353
0.026552113
0.020633316
0.0036193337
-0.011900314
-0.018528007
-0.014574434
-0.006640049
0.0017446626
0.0102349715
0.019404948
0.02845286
0.023105025
0.0073242667
-0.001217294
-0.005569049
-0.007841846
-0.009370567
-0.011611974
-0.0059786
0.0069481507
0.018088374
0.017115304
0.0042359554
-0.009171609
-0.018049283
-0.019575205
-0.020936772
-0.026588174
-0.02500718
-0.01860592
-0.008592673
0.009555362
0.017981986
0.0054876115
-0.011787762
-0.015899139
-0.010610665
-0.0069827545
0.005371195
0.028865669
0.03864078
0.027986875
0.012507831
-0.0022031227
-0.011299336
-0.008958721
-0.0031185104
0.0021207894
0.011631283
0.023363132
0.029726977
0.022064427
0.0011657117
-0.017156586
-0.021826264
-0.02000743
-0.020957397
-0.018836714
-0.0066089225
0.012002774
0.02596623
0.021731235
0.0031549672
-0.013424757
-0.022676092
-0.024153873
-0.01834258
-0.009077961
0.0024873975
0.016512696
0.026552599
0.0216656
0.003140259
-0.0134569425
-0.017568244
-0.015809504
-0.016181372
-0.012544196
-3.8808878E-4
0.01702898
0.028610477
0.020595055
0.0014620789
-0.014199454
-0.022927498
-0.022626465
-0.017555108
-0.0086154705
0.004990576
0.018704193
0.029937692
0.027764244
0.010076886
-0.0054336544
-0.009591557
-0.008039512
-0.007362318
-0.0042112847
0.0055488856
0.01975287
0.030144699
0.021679392
-3.7072517E-4
-0.017429085
-0.025244348
-0.02373562
-0.016771274
-0.008379251
0.0027728658
0.01563395
0.025796881
0.022726968
0.0053136256
-0.010479436
-0.016108181
-0.019046968
-0.022675443
-0.02282195
-0.01985307
-0.0044191456
0.02067331
0.030354938
0.027586877
0.017446123
-8.5266575E-4
-0.008860642
-0.011021169
-0.011901514
-0.0023633696
0.010428975
0.017193347
0.006638463
-0.009050596
-0.010069996
-0.007843309
-0.006282219
-0.007193844
-0.011332844
-0.0072001177
0.0064342855
0.026243186
0.029566504
0.008482527
-0.010019108
-0.022277575
-0.026479846
-0.020468647
-0.014051837
0.0016788639
0.021409955
0.031606704
0.030714108
0.013638101
-0.0056495406
-0.010560568
-0.007870894
-0.008917531
-0.011074549
-0.0022245834
0.013142429
0.022034723
0.017629914
-4.40124E-4
-0.01761295
-0.024097808
-0.023629284
-0.019031953
-0.01056004
0.0012639199
0.012336356
0.020399744
0.02072342
0.00909448
-0.003673984
-0.009863292
-0.011453944
-0.010291089
-0.008788939
-0.0025747935
0.011007386
0.020932244
0.016909398
0.0032600116
-0.009383094
-0.01601914
-0.016091725
-0.011849055
-0.005965265
0.0014679277
0.012281723
0.023922894
0.02450691
0.011746925
-0.001417143
-0.006560396
-0.006678257
-0.009517164
-0.010846521
-0.0041892943
0.006015675
0.017224679
0.018427767
0.0032880364
-0.013089938
-0.021909954
-0.022539401
-0.017747853
-0.011268092
-8.7357516E-4
0.0098972805
0.018271478
0.020404104
0.010034275
-0.003320334
-0.009774426
-0.011699237
-0.011481349
-0.0078464225
2.1946503E-4
0.012226728
0.023437096
0.021675326
0.0062134587
-0.010498162
-0.02047202
-0.019926568
-0.015832467
-0.012082651
-0.0020932117
0.012206558
0.026931178
0.031210408
0.018381106
0.003642095
-0.0049596797
-0.008620388
-0.010346158
-0.011631356
-0.0052072997
0.005580052
0.014030083
0.014787682
0.0035713925
-0.0076516992
-0.014526502
-0.019541362
-0.021432508
-0.02376435
-0.014895714
0.006890874
0.01861844
0.016542146
0.004856338
-0.012005305
-0.010399506
0.008798808
0.013317301
0.002655808
-1.221025E-5
0.009931088