0.011477831
-0.006979856
-0.02128297
-0.013758645
-0.004802699
0.003980515
0.007923073
0.009337614
0.013050178
0.012194759
0.0072963685
-0.006411005
-0.0195062
-0.019756282
-0.014346564
-0.0043064724
0.0049898024
0.009270667
0.011204989
0.009360946
0.005229515
-0.005505505
-0.017580234
-0.01749297
-0.008877564
0.0013852915
0.008003289
0.012001702
0.020071557
0.02574657
0.019672463
0.003727012
-0.009754733
-0.011176254
-0.004299946
0.0041864333
0.010811673
0.01334548
0.009511291
-6.259372E-5
-0.010468506
-0.01800324
-0.023771236
-0.027070647
-0.01744933
-9.658776E-4
0.0034723035
0.0047644596
0.011420697
0.012282702
0.0039937454
-0.0074805543
-0.016022535
-0.023051012
-0.021474052
-0.003736881
0.015560613
0.030980956
0.04036212
0.037576847
0.028584829
0.010110591
-0.011024339
-0.02259751
-0.03017946
-0.026182465
-0.011949544
-0.0014869351
0.007835484
0.011871497
0.0077033546
-0.0010065847
-0.012040289
-0.012055184
-0.004308185
-0.0022935595
0.0022681763
0.010865251
0.015371775
0.016934454
0.010901746
-0.0033688005
-0.012915306
-0.014600002
-0.012811168
-0.006278777
0.0030570426
0.0087252455
0.010261538
0.009435465
-1.9124955E-4
-0.015549653
-0.022299932
-0.020787315
-0.017095542
-0.017868198
-0.015076409
0.012669165
0.037924577
0.033890616
0.024616858
0.012416621
-0.0043933806
-0.011329865
-0.01053047
-0.0010240283
0.010382048
0.016212577
0.020200804
0.017649645
0.012112147
6.529688E-4
-0.016989348
-0.02211642
-0.018766442
-0.0112012485
0.002595865
0.008601946
0.0078064394
0.0052961465
-0.0013664413
-0.01076808
-0.021641158
-0.025009565
-0.01839185
-0.009741702
-8.025424E-4
0.0075941253
0.013962119
0.0150633855
0.009459025
-3.342133E-4
-0.013088378
-0.019512529
-0.013177064
-0.0013988521
0.0114497375
0.019313645
0.016633926
0.01390533
0.012852349
0.0032362447
-0.007391052
-0.010566783
-0.007693232
0.0012755818
0.007773265
0.009382945
0.011623803
0.009569416
0.00368016
-0.005364565
-0.017538669
-0.020462262
-0.012960469
-0.0021296937
0.009266396
0.01477018
0.015895268
0.018229023
0.014742657
-0.0010778202
-0.017229186
-0.02136157
-0.018651651
-0.012677152
-0.00426918
0.0012140059
0.0053890636
0.009407135
0.007859077
-0.0018857812
-0.013052568
-0.017911576
-0.017174719
-0.007957242
0.0076983166
0.01798636
0.020691575
0.018293353
0.013494103
0.005255334
-0.007014494
-0.01236198
-0.009281529
-0.0017250143
0.0056561534
0.004707583
0.0075129257
0.013789612
0.0069799633
-0.005899254
-0.018726438
-0.023698455
-0.016176313
-0.009669556
0.001529953
0.015234233
0.01614127
0.013261845
0.008238134
-8.698903E-4
-0.009979418
-0.017885508
-0.013644044
-0.005651887
-0.004575944
0.002670237
0.013650804
0.021618092
0.023468778
0.011844439
-0.0021181128
-0.006361607
-0.00225314
0.0028603633
0.0027939253
0.004333371
0.00788126
0.0056028557
-2.1741155E-4
-0.0066269306
-0.016678207
-0.028429776
-0.030432506
-0.02476257
-0.014845225
0.0089289
0.028320504
0.030730102
0.02621884
0.0012189588
-0.027984984
-0.031621132
-0.031809792
-0.0274374
0.002660217
0.030776534
0.0328448
0.026995165
0.027930029
0.02157835
0.0021992323
-0.011723877
-0.0144899255
-0.012861879
-0.00566853
0.005011828
0.010812081
0.01041218
0.007817781
-6.479564E-4
-0.014719566
-0.021268055
-0.016850177
-0.008365263
0.0019887062
0.0115070045
0.016873248
0.017637422
0.01182894
0.0014281451
-0.0073459214
-0.014413838
-0.01647055
-0.008024288
0.0010673591
0.0032604851
0.004671712
0.006941356
0.0059726136
-4.561389E-4
-0.009110844
-0.016008554
-0.017013
-0.0067177387
0.004896092
0.010292355
0.016815096
0.017294195
0.009102394
0.0022281548
-0.008086986
-0.018859304
-0.017822206
-0.009043275
-7.4770255E-4
0.0032041715
0.0055025383
0.012245262
0.015538023
0.0040712953
-0.014200625
-0.020359587
-0.011362683
-0.0018454418
0.0052422294
0.017836442
0.02749413
0.023752447
0.013570182
0.0025244954
-0.010039725
-0.017841017
-0.015926644
-0.008044429
0.0011506416
0.0071117394
0.008721819
0.009875415
0.009232294
0.0038149676
-0.006502865
-0.018762358
-0.02099331
-0.010164459
0.0030676797
0.014777875
0.019705648
0.01505168
0.00887708
-1.0499418E-4
-0.012059537
-0.017807828
-0.016228465
-0.009856858
-0.0041836808
-9.822315E-4
0.006716686
0.012411688
0.009336054
0.00241427
-0.0114908265
-0.024378585
-0.019012127
-0.0046770535
0.0041557257
0.010330921
0.014692383
0.015052097
0.013078146
0.006011449
-0.007143443
-0.01598597
-0.013851763
-0.005097215
0.0048011844
0.010353595
0.01283793
0.017210653
0.018380713
0.011459571
-0.0043506655
-0.022083795
-0.025226118
-0.015517752
-0.0030349772
0.01330087
0.025291152
0.02545164
0.01709751
0.0031136605
-0.009412675
-0.0176697
-0.021322604
-0.014561404
-0.0030888324
0.0031872455
0.0061455616
0.0076836254
0.0048614605
-0.0027297463
-0.012140676
-0.019088402
-0.019317333
-0.012530293
-0.0018303876
0.008098134
0.01350452
0.018629322
0.022026047
0.012091202
-0.0066939625
-0.018922929
-0.018359508
-0.0082863085
0.0013883293
0.00627253
0.009600633
0.012388326
0.010989133
0.002497253
-0.005723696
-0.007631514
-0.007238407
-0.0053285253
9.2056644E-4
0.01084848
0.01679466
0.01514773
0.0123061575
0.0056924834
-0.0072924863
-0.016571153
-0.015853217
-0.009405866
-0.005352409
-3.1292427E-4
0.009398976
0.012253281
0.0076085893
-2.5548463E-4
-0.014663118
-0.025101421
-0.022366904
-0.011025567
0.0038424144
0.014075389
0.015816664
0.015660536
0.015321623
0.008783395
-0.0031783392
-0.011414663
-0.011567094
-0.007178179
-0.0013504397
0.005038145
0.0094841095
0.011885865
0.011169329
0.0015913915
-0.012652435
-0.021795874
-0.020941481
-0.009874825
0.0025097898
0.0133252805
0.020372042
0.016179161
0.011307047
0.0083348155
-0.002737939
-0.014264944
-0.018035034
-0.010127194
0.0029010745
0.007640836
0.010722329
0.013923272
0.010225941
6.7817926E-4
-0.012968755
-0.018377097
-0.012806771
-0.0087457355
-0.0044669635
0.002554537
0.008823422
0.011932124
0.008792003
0.0010621836
-0.008279694
-0.015083513
-0.017244065
-0.014858524
-0.0036259366
0.010072698
0.013566597
0.012138336
0.013758454
0.007974044
-0.007505762
-0.01627217
-0.015438593
-0.006026936
0.013819038
0.027125731
0.026675913
0.02178689
0.011402079
-0.0039057906
-0.01649815
-0.021333573
-0.019090738
-0.011045115
0.0012550687
0.0073433076
0.007695829
0.011442062
0.011531456
0.0034888429
-0.008991152
-0.022796454
-0.025888748
-0.012941565
0.0011033689
0.007918985
0.015875606
0.02048149
0.013107075
0.0022049737
-0.010153212
-0.02104418
-0.021186104
-0.015763422
-0.005788869
0.007036172
0.013472081
0.017194418
0.016005311
0.0050977874
-0.007921084
-0.017721044
-0.018047195
-0.008529381
0.0030491857
0.01416682
0.021218613
0.02235637
0.017491352
0.0066403253
-0.0025755425
-0.007824735
-0.009872158
-0.0051350165
5.783274E-4
0.0019507102
0.0033517687
0.0057555097
0.004879045
-0.003182187
-0.015379368
-0.023475984
-0.02344323
-0.014586667
-9.537331E-4
0.010131735
0.017301388
0.020940484
0.018735642
0.009856476
-0.0042204796
-0.017204344
-0.019785611
-0.011883577
-0.0024801872
0.0057823476
0.013530927
0.015344423
0.011592049
0.0050905887
-0.007066935
-0.018243326
-0.019125959
-0.010735079
0.002574592
0.013177644
0.017249286
0.016062066
0.0085767545
-0.0022589252
-0.012198413
-0.01810036
-0.016993167
-0.010492882
-0.002437792
0.003052973
0.008237279
0.0147447195
0.01678493
0.013355188
-5.6487496E-4
-0.018821191
-0.01724406
-0.0034942986
0.0027533523
0.008057895
0.01348783
0.013964008
0.0144141475
0.013412907
0.00139019
-0.016203808
-0.021124298
-0.012768775
-0.00236315
0.0036585128
0.004953397
0.008217397
0.008185587
-1.4476586E-5
-0.008323297
-0.01824652
-0.02322697
-0.015089892
-0.0035802876
0.0094235735
0.019031726
0.018649038
0.016154995
0.009943607
-0.0018256386
-0.012119509
-0.017383324
-0.014212155
-0.0057152994
0.0021598095
0.0062615518
0.007919729
0.011090535
0.0065547624
-0.0062488494
-0.013044693
-0.012275352
-0.0053473297
0.00386413
0.011395921
0.019696962
0.021426022
0.015016047
0.0024059946
-0.015939848
-0.022735689
-0.017700622
-0.01196168
6.94761E-4
0.010650925
0.009146956
0.008676445
0.007373503
-0.0020922488
-0.013177145
-0.021051677
-0.024021052
-0.016712436
-9.6316834E-4
0.013095466
0.020804623
0.022372847
0.019181153
0.012238985
0.0023251618
-0.006862054
-0.011224867
-0.0056236577
0.004779116
0.008363953
0.008547849
0.007923586
0.0056043454
0.0023803953
-0.007255641
-0.016201716
-0.018037718
-0.016350657
-0.0062030144
0.0072578695
0.015777413
0.020410616
0.017948683
0.008841154
-0.0049618487
-0.01821764
-0.020650476
-0.013822981
-0.005748083
3.453732E-7
0.005127076
0.0085533215
0.0072860033
0.0018257163
-0.012435739
-0.027226616
-0.027506042
-0.018092982
-0.00365143
0.010213997
0.017720843
0.023687217
0.022512907
0.011997567
-2.817956E-4
-0.012459691
-0.017869558
-0.013300142
-0.0023725533
0.011155964
0.020360243
0.026033627
0.029459292
0.02453605
0.014399919
0.0044607297
-0.0077186883
-0.015301244
-0.010821485
-0.005153883
-0.0032533272
3.4494844E-4
0.0026383381
0.001602481
-0.0058762548
-0.019322973
-0.023713188
-0.016832594
-0.010376155
-0.004134717
0.004453384
0.010566448
0.012688339
0.007245237
-0.010387806
-0.025436603
-0.026025515
-0.02020466
-0.0069783404
0.012095421
0.02467717
0.03033994
0.028802266
0.018408451
0.0051162275
-0.0066439095
-0.012621478
-0.010510781
-0.0046631736
2.759377E-4
0.004521994
0.008153384
0.009406368
0.007743305
-0.003077511
-0.018235223
-0.017221795
-0.006721094
-0.0045435987
-1.1997551E-5
0.012206496
0.018780718
0.0167425
0.010264208
-1.3188443E-4
-0.010998749
-0.016788471
-0.016278109
-0.010218583
-0.0010460238
0.0043212487
0.0048045088
0.007208623
0.008291065
1.5908874E-5
-0.013008306
-0.02115487
-0.017429069
-0.0025204837
0.0124183325
0.019040547
0.016942194
0.012022255
0.008302444
8.693593E-4
-0.009438379
-0.01668435
-0.018086314
-0.011262531
-0.0019423615
0.0041009663
0.009657224
0.013385269
0.011736143
0.005092865
-0.0067072855
-0.020334953
-0.02302928
-0.0097101405
0.0064339982
0.016561667
0.021300938
0.020992395
0.01597336
0.0032341448
-0.012598291
-0.019731695
-0.015860869
-0.005823023
0.0016716842
0.004576921
0.00912225
0.013736226
0.011515187
-0.0033728906
-0.021996442
-0.026563352
-0.020611752
-0.01030296
0.0042943917
0.013933235
0.020826219
0.027260596
0.022310888
0.007888607
-0.009630832
-0.025043804
-0.02530161
-0.011789369
0.0017272994
0.010340989
0.013048678
0.012715499
0.012313873
0.0060246047
-0.0060681407
-0.014944987
-0.016737213
-0.011870415
-0.0020024087
0.0070372685
0.010087653
0.010397382
0.0097427545
0.0031634315
-0.007685797
-0.016117258
-0.015556073
-0.006356942
-2.7497252E-4
0.0021525994
0.0070761205
0.010131145
0.010253245
0.0061906255
-0.004890395
-0.01528919
-0.016150657
-0.0073846085
0.003358277
0.0109721115
0.01662853
0.01894304
0.016640384
0.010527469
1.8471127E-4
-0.00983257
-0.010053663
-0.0012146698
0.005570014
0.007027191
0.008854332
0.014627104
0.019317811
0.014651
-7.274533E-5
-0.018090032
-0.026880888
-0.023166554
-0.016163839
-0.008866556
-0.003355637
0.0021207246
0.009298836
0.010204699
0.0060592215
-0.0039499556
-0.013057518
-0.007101807
-0.0042754575
-0.007816652
-0.0038876254
-0.004981321
-0.0058634444
-9.907064E-4
-0.008765946
-0.025962858
-0.031185487
-0.01426437
0.008917799
0.020235475
0.024946338
0.031727105
0.036392417
0.023099255
-0.0015955134
-0.01602549
-0.02276866
-0.015425946
0.004320997
0.012432518
0.018334564
0.027888717
0.02672989
0.020346634
0.008957554
-0.0076509723
-0.016280875
-0.015807087
-0.009281973
8.7394624E-4
0.004530852
0.0021304046
0.0033000272
0.0022397565
-0.008462027
-0.020236459
-0.025860116
-0.023963388
-0.017016308
-0.012142521
-0.008100336
-0.0018857543
0.0026788884
0.0041480013
0.0014960193
-0.0038662225
-0.005493801
7.238337E-4
0.014198406
0.024134867
0.023971545
0.0237339
0.021892115
0.012832427
0.0035036625
-0.009419261
-0.022519981
-0.022781517
-0.0141320005
4.3206883E-4
0.015503568
0.020283516
0.018165862
0.008908444
-0.011363667
-0.032816306
-0.04081101
-0.03402965
-0.024251783
-0.0091944495
0.012814709
0.02688604
0.029947722
0.018268012
-0.008127127
-0.025950633
-0.027722297
-0.020651408
-0.005748013
0.0090778135
0.018714152
0.023832366
0.025237102
0.024546146
0.017082436
0.0027947018
-0.00796718
-0.0056622303
0.006360813
0.014098488
0.018062118
0.019944664
0.011433145
0.0036116585
0.0025544465
-0.005754743
-0.01963543
-0.025342995
-0.01835373
-0.010566324
-0.0077152858
0.0023223301
0.016083246
0.022189012
0.015141882
-0.0049851392
-0.020189647
-0.024330443
-0.01926728
2.5079935E-4
0.014370599
0.010403586
0.004245664
-0.0016323522
-0.011298887
-0.022206813
-0.033241536
-0.03306434
-0.014382841
0.0066618947
0.018247433
0.018849012
0.009225811
0.0029001683
-0.0058248406
-0.033209715
-0.06020617
-0.052345257
0.0061724586
0.06556518
0.06558182
0.044736765
0.03942298
0.028244076
0.015579073
0.004008399
-0.0076404423
-0.0035797015
0.007908497
0.01273864
0.012895631
0.015399194
0.02057809
0.015856195
-0.0024299654
-0.021527622
-0.030204603
-0.02983579
-0.022655714
-0.010863491
-0.0032205477
0.0059501906
0.016169205
0.009313254
-0.009984191
-0.027591486
-0.037739877
-0.036238156
-0.02729301
-0.016326666
-0.0061473204
0.0025149276
0.0062640156
0.0017509563
-0.0029849003
-0.008179118
-0.015797175
-0.0104356455
0.008029186
0.020669432
0.026283488
0.032568425
0.033035986
0.026743442
0.01925458
0.008184024
-8.041468E-4
-0.0020081818
0.0026060715
0.009682356
0.011401607
0.012911493
0.016718587
0.0130626755
0.0055896062
-0.0057475953
-0.01791816
-0.018130086
-0.013331159
-0.008896457
-0.0020108072
0.0016694897
0.0010504186
-0.0014683179
-0.003430692
-0.00708674
-0.018653216
-0.02865275
-0.02769536
-0.022815347
-0.016787864
-0.009238856
-0.003221214
0.003439755
0.003924698
-0.011414915
-0.026067495
-0.021862568
-0.004240515
0.016875727
0.02765834
0.01787248
0.008925176
0.017415393
0.01883316
0.0055854856
0.0013176204
0.006486423
0.013009104
0.022445587
0.03001388
0.03425679
0.03331958
0.02384936
0.008871428
-0.008153443
-0.01988251
-0.021954056
-0.015185557
-0.0038157194
6.402438E-5
-0.002715617
-0.0017572844
6.4017763E-4
-0.002920909
-0.015079875
-0.02661417
-0.027177138
-0.020520097
-0.0114042815
-0.0027098316
0.0015985785
0.005942637
0.012292896
0.0059929467
-0.015989361
-0.026573254
-0.013655681
0.0056132157
0.020835651
0.025098845
0.015454347
0.006516629
1.5473808E-4
-0.010710249
-0.014575144
-0.014529339
-0.018616928
-0.011839857
-0.0059756855
-0.011852636
-5.4187136E-4
0.022266747
0.026730329
0.012049878
-0.0062884325
-0.0069247726
0.004549528
0.014016301
0.026836827
0.028380552
0.017441891
0.018582191
0.026266644
0.02107477
8.6688076E-4
-0.015404825
-0.015010531
-0.0097160395
-0.003520585
5.8633705E-5
-0.0012036804
0.0052617933
0.007783258
-0.008803913
-0.026087467
-0.029903302
-0.025456538
-0.01702897
-0.007793056
-0.0018475148
0.0026889856
0.0065274253
0.004942848
-0.0025193242
-0.013941924
-0.020530494
-0.012807824
0.0014651052
0.013288602
0.019542446
0.01968509
0.018714836
0.011594751
-0.005721629
-0.021700403
-0.028278006
-0.026364299
-0.016647223
-0.0021918141
0.004920157
0.0099962605
0.027611766
0.033970844
0.018713133
0.00454968
-0.0081803
-0.013738317
-0.006066817
0.0030605902
0.014509187
0.022405773
0.023055738
0.018518707
0.003035188
-0.008990114
-0.013086102
-0.016837394
-0.009277762
0.005770158
0.016347144
0.02297253
0.022338491
0.0043265475
-0.020605532
-0.022575261
-0.012710374
-0.015409032
-0.019815478
-0.019946503
-0.014112591
-0.009173535
-0.016505651
-0.01686751
-0.006500699
-0.0021561598
-6.7465816E-4
0.0028385636
0.008141361
0.013306127
0.017131165
0.019668724
0.018713722
0.012581205
-0.0030864028
-0.014313998
-0.0069505675
4.5408022E-5
0.0030828577
0.01260861
0.01641487
0.015185355
0.018034905
0.011793158
-0.004804121
-0.014377577
-0.019474726
-0.023139788
-0.014153904
-0.0019913937
0.0029309478
0.00833806
0.014555354
0.016270664
0.0070645227
-0.009485386
-0.018029464
-0.017348789
-0.0136826765
-0.009242025
-0.0024146854
0.00550865
0.006142872
0.005894934
0.006439206
-0.004151304
-0.015403118
-0.01509711
-0.003752828
0.013905959
0.024238706
0.025651606
0.0211801
0.010556837
4.5456053E-4
-0.011873298
-0.021486223
-0.016365476
-0.006248711
8.6934323E-4
0.0060768104
0.011073741
0.016645798
0.011475012
-0.004616457
-0.019474456
-0.02846546
-0.02417683
-0.009189579
0.0038657307
0.012271103
0.015620252
0.015463549
0.012160022
0.0017691548
-0.012771593
-0.021816066
-0.017059883
-0.004232753
0.005169795
0.011940681
0.018406503
0.021942109
0.019163068
0.0063936017
-0.013202086
-0.024562169
-0.019068848
-0.007183548
0.005308053
0.016232386
0.01785961
0.014766136
0.00978929
7.067598E-4
-0.008688611
-0.016467642
-0.015208471
-0.0055833287
6.168643E-4
0.004560293
0.009289893
0.011502481
0.006694962
-0.005243108
-0.018054271
-0.026523208
-0.021522379
-0.005667931
0.0068066935
0.016202208
0.022509143
0.025885332
0.026256388
0.012864019
-0.006323534
-0.016910847
-0.018259823
-0.014158479
-0.013042539
-0.008577218
-0.0014764337
-0.0036627138
-0.0010680968
-0.003441299
-0.022502623
-0.019537367
0.002586093
0.011161001
0.017439462
0.024416806
0.020793678
0.010897977
-1.1366778E-4
-0.01022404
-0.016638624
-0.012506989
-0.0015417524
0.0068955515
0.012710697
0.010932066
0.0086752875
0.01474297
0.015077788
0.0057020057
-0.008579638
-0.020812327
-0.020627728
-0.012961924
7.7534256E-5
0.012566016
0.010155427
0.0035972625
0.0046161576
0.0021710247
-0.01079737
-0.02535871
-0.030410456
-0.019272473
0.006146599
0.022596424
0.01889178
0.015288769
0.015546708
0.00676428
-0.010038238
-0.022344014
-0.020018263
-0.007840413
0.005389037
0.014480562
0.0184705
0.020422451
0.016777283
0.0066269445
-0.008742105
-0.024190003
-0.02446428
-0.013421776
-0.0036478904
0.00497366
0.0102780275
0.013062131
0.012565723
0.0032476047
-0.012387228
-0.025993422
-0.025470722
-0.010656295
0.0050016628
0.015642548
0.021535628
0.023968885
0.021234667
0.011511212
-7.810132E-4
-0.013514253
-0.019885637
-0.0133738015
-0.002918983
0.0066566747
0.015956238
0.019569598
0.017586552
0.00857144
-0.011113238
-0.029579567
-0.032551546
-0.019989843
-0.0016325399
0.010891241
0.014806624
0.015514437
0.0138330925
0.005628791
-0.007361657
-0.018201396
-0.020287951
-0.009828051
0.0018697196
0.0050309086
0.009063738
0.0126050515
0.009394028
0.0025394526
-0.011088527
-0.022505013
-0.019673215
-0.008126169
0.0071873493
0.019613711
0.024993703
0.026053926
0.021344647
0.010523752
-0.0063906214
-0.02195063
-0.02566144
-0.0204672
-0.010883653
-0.0016671073
0.0050385855
0.0119555425
0.014041031
0.007378551
-0.0063450774
-0.017062739
-0.014961438
-0.0074476185
0.001761541
0.012109257
0.017556146
0.019636728
0.016355814
0.0070109717
-0.003718303
-0.015436068
-0.018256417
-0.0074567683
0.0027320688
0.0071938396
0.010897814
0.011315798
0.006369692
-0.003116253
-0.017488759
-0.029473856
-0.030754251
-0.019691536
-6.3132646E-4
0.012892198
0.018738642
0.023602705
0.021121705
0.01000187
-0.004553519
-0.017560191
-0.018810635
-0.007476371
0.00789075
0.017025454
0.018027745
0.019319018
0.016167453
0.003659512
-0.009102514
-0.018221732
-0.019693194
-0.009469587
0.002235044
0.008346141
0.014537832
0.015635582
0.0051119626
-0.0047692927
-0.012464075
-0.02392135
-0.027110945
-0.017495442
-0.004024038
0.0067058965
0.011608486
0.014126274
0.015249935
0.009059039
-0.0057898946
-0.018086055
-0.01732716
-0.00874448
0.002153454
0.012977722
0.019402178
0.021741044
0.017277135
0.0061917705
-0.0062295273
-0.018776122
-0.024081627
-0.01666959
-0.0041601737
0.0047176727
0.00932524
0.013777379
0.015450888
0.010001908
-0.0016032367
-0.01569071
-0.02158066
-0.0124896
0.003977287
0.01678671
0.022721278
0.024366686
0.02036476
0.009646005
-0.0054939017
-0.02013379
-0.023588836
-0.01569198
-0.007584321
-0.002326065
0.0017192948
0.00454438
0.0068296976
0.0049937926
-0.008610196
-0.026150746
-0.028887374
-0.017753402
-0.0019258908
0.015100658
0.024431998
0.023922473
0.020571789
0.014259069
6.4137057E-6
-0.015912235
-0.020372503
-0.015910966
-0.009227818
-6.1724284E-5
0.008951651
0.017862353
0.02206916
0.013366162
-0.00499162
-0.022019714
-0.024662994
-0.0135447895
0.0016884811
0.016983382
0.023146553
0.019165866
0.0130568575
0.005290591
-0.0025599
-0.011198617
-0.017175548
-0.011064097
8.068481E-4
0.007947153
0.009488963
0.009673729
0.011402065
0.00626662
-0.011503542
-0.02986325
-0.033109322
-0.02099637
-0.004316864
0.010594186
0.018492585
0.017818145
0.014483961
0.007491979
-0.0051289788
-0.017167952
-0.021958355
-0.015574172
-0.0013848596
0.011597666
0.017393427
0.017904835
0.017000219
0.008385287
-0.00908477
-0.021468496
-0.021778928
-0.011275525
0.0049036895
0.01617187
0.02114117
0.021623604
0.0155075975
0.0069398866
-0.0036049373
-0.016596286
-0.021212187
-0.01381329
-0.0045730593
0.0010669577
0.0063291118
0.010738629
0.010775021
0.00688447
-0.004380515
-0.021036128
-0.027173284
-0.019259952
-0.008458605
0.0023692057
0.015607825
0.024366753
0.021618566
0.013177855
9.566056E-4
-0.014643144
-0.021084448
-0.015946485
-0.006024025
0.0044647255
0.0097649265
0.013353511
0.018273558
0.016379757
0.0032139218
-0.012700937
-0.015189772
-0.004534604
0.006010328
0.013947069
0.01888011
0.0190786
0.013690383
0.001162334
-0.0149754975
-0.030297007
-0.03504142
-0.023004007
-0.00904929
-0.0017427795
0.0067342324
0.01490129
0.016201332
0.008999197
-0.006677309
-0.023303347
-0.028146558
-0.01779167
-7.2072283E-4
0.014147228
0.023800356
0.027583718
0.02580057
0.017437628
0.0013276407
-0.0152360685
-0.021790687
-0.014256089
7.053638E-4
0.01128908
0.018003615
0.021593468
0.018372357
0.013972029
0.0031760084
-0.014708283
-0.02117531
-0.015263803
-0.0014405826
0.016536867
0.023314307
0.021500332
0.019304398
0.010712689
-0.0050657443
-0.02119455
-0.02807779
-0.020863138
-0.0068418295
6.415428E-4
-4.3680787E-4
0.0021416566
0.0063570435
3.5704247E-4
-0.0145065915
-0.030633973
-0.035565183
-0.024212088
-0.0081763845
0.0048726047
0.014650869
0.019702183
0.017898815
0.010036041
-6.747804E-4
-0.012321348
-0.018552335
-0.013462712
-0.0023945263
0.005562355
0.010198748
0.018279437
0.023891868
0.016039828
5.200973E-4
-0.014517571
-0.021226732
-0.011799365
0.0048313374
0.020162381
0.031396333
0.032336723
0.028995816
0.024123395
0.010362377
-0.004283502
-0.011045262
-0.009911057
-0.0016086557
0.0035935296
0.0030756232
0.005433285
0.0075083426
0.0022625497
-0.012937615
-0.031481177
-0.03759992
-0.029493466
-0.015721994
-0.0022791
0.0017506569
-0.0033628407
-0.0061797407
-0.0071181157
-0.01515716
-0.028590286
-0.03652466
-0.030689301
-0.01530622
3.6595349E-4
0.014964424
0.0249977
0.027875649
0.025821827
0.013396319
-0.0034546237
-0.009491516
-0.0038578166
0.011061499
0.0259419
0.032904647
0.03713411
0.033153705
0.020357938
0.009114304
-0.0022947663
-0.010643008
-0.008523689
-0.001597537
0.0010117146
-6.093847E-4
0.002521169
0.008039171
0.004515452
-0.008094434
-0.023960838
-0.033727977
-0.028818374
-0.013398979
0.0020514838
0.010178498
0.011908556
0.011999213
0.006869044
-0.0065027503
-0.020021977
-0.027170654
-0.025566861
-0.013322572
7.3056185E-6
0.0061253924
0.011146741
0.014176161
0.008507994
-0.004899125
-0.022449186
-0.031707652
-0.022062058
-0.002848861
0.01450155
0.026616873
0.031525917
0.032000285
0.027999617
0.012609306
-0.009157504
-0.019455772
-0.010501986
0.0063939476
0.01615351
0.01957708
0.023182783
0.023234734
0.016697671
0.0023648895
-0.017177308
-0.027897218
-0.024388295
-0.013503476
-0.001020052
0.007843648
0.012072796
0.010214926
0.0024397701
-0.0060063656
-0.01995523
-0.035616208
-0.032331098
-0.014376216
-0.00228338
0.0044489508
0.009665417
0.0115199825
0.012670653
0.0028006337
-0.018918186
-0.02239821
-0.0037897883
0.012071565
0.020605115
0.025422767
0.026814193
0.02488129
0.018072592
0.006365332
-0.010916786
-0.022516282
-0.018523531
-0.008122545
0.0026690636
0.010519132
0.014553988
0.017981496
0.013128542
-0.0038418807
-0.024283964
-0.032646064
-0.02250473
-0.0074207364
0.006929742
0.01845055
0.021038337
0.018998576
0.011369411
-0.0013803988
-0.01410895
-0.02517425
-0.024174295
-0.011911364
-3.0593734E-4
0.0088774
0.014229982
0.015747333
0.012602846
5.3222525E-6
-0.016801469
-0.024575422
-0.019990075
-0.010212492
0.004305588
0.018726533
0.022245666
0.021188257
0.017926471
0.005497335
-0.00978448
-0.020005492
-0.020681294
-0.011025893
-6.683153E-5
0.006385717
0.013043591
0.019617043
0.016708342
0.0045829914
-0.013168836
-0.031028055
-0.031097362
-0.015980233
-0.0017485769
0.012730929
0.02212449
0.02187169
0.019836705
0.012571811
-0.004592051
-0.020528052
-0.022663034
-0.01478163
-0.0057264557
0.0033946456
0.010275388
0.015639966
0.016923225
0.0047811377
-0.01377368
-0.025221122
-0.02455753
-0.011517575
0.003744324
0.013452437
0.019777803
0.021775931
0.017446307
0.006632887
-0.008829697
-0.021132004
-0.02120831
-0.009452034
0.0017766783
0.006442806
0.0112996055
0.016796716
0.016422914
0.006352473
-0.011188148
-0.02442416
-0.024569176
-0.013076247
0.003304186
0.015046889
0.019705247
0.018810805
0.012846754
0.004024908
-0.009330612
-0.022159912
-0.022002952
-0.010219379
1.2206762E-4
0.0024638786
0.003214437
0.005552634
0.007890026
0.009175846
-9.144762E-4
-0.014553689
-0.010609205
0.0036193053
0.01420561
0.017053833
0.014652751
0.013433056
0.008476773
-2.0848135E-4
-0.009331421
-0.020024495
-0.021664223
-0.011087565
9.0516993E-4
0.0071337903
0.009237111
0.01220496
0.01139375
0.0025761381
-0.012257312
-0.025603829
-0.025582818
-0.014148712
6.012441E-4