0.0015978722
2.1038573E-5
-0.0010676734
-7.858335E-4
4.262179E-4
0.0013343651
-3.3077E-4
-0.0015912968
-5.7086215E-4
-0.0018923809
-0.002385112
-1.873091E-4
-0.0012057326
-0.0018587306
-1.1267924E-4
4.890357E-4
0.001459185
0.0020201432
0.0020128489
0.0012442985
-7.608409E-4
-3.2446344E-4
1.5969119E-4
-3.943286E-4
0.0010241608
0.0017396258
0.0012176199
1.114026E-4
-8.451527E-4
0.0010441337
0.0028582113
0.0016304689
1.7595288E-5
3.8590017E-4
0.0011574777
5.9780746E-4
3.7396337E-6
-3.6377035E-4
-0.001217161
-0.0020431313
-0.0018005514
-7.032441E-4
-0.0016685498
-0.003951027
-0.0037112702
-0.002209288
-0.0015876949
-3.0402845E-4
0.0011358764
-2.1326044E-4
-0.0016221469
1.6261813E-4
9.320061E-4
-8.153401E-4
-0.0013711953
4.8112017E-4
0.0028635815
0.0028053885
0.0010672803
7.7497086E-4
0.0010543569
-2.4874636E-4
-0.0015122092
-1.7668921E-4
0.0017849372
0.0023090758
0.0024638625
0.0019270723
0.0012999988
0.0013541414
5.116013E-4
5.4077955E-4
0.0016254623
4.295568E-4
1.2437515E-4
0.0011149233
-4.415312E-4
4.35155E-4
0.0020948823
-4.441009E-4
-8.2554354E-4
-0.0015171784
-0.00511534
-0.0035797767
0.0019517007
0.003846002
0.0013975227
0.0041548274
0.0036644272
-0.011660139
-0.012285185
-0.0011257253
-0.009824693
-0.011323705
0.0031082807
0.00556594
0.0043264427
0.0056064995
0.003984866
0.003402056
0.0022868894
0.0011687777
0.0011083942
3.376377E-4
-3.905313E-4
7.1117067E-4
0.002981402
0.001949357
4.5137224E-4
0.0015237031
0.0013670527
5.197254E-4
3.5438064E-4
0.001072718
7.9921895E-4
-0.0012299989
-0.0012179795
-0.0013649616
-0.0027645738
-0.0028576213
-0.0024860194
-0.001338323
-0.0015283262
-0.0030367626
-0.0022631953
-4.0775494E-4
8.9413876E-4
4.932813E-4
2.649096E-4
0.001987676
0.0016613516
-1.2495522E-4
-0.0014928761
-0.0016015989
0.0012868565
0.0014955037
-4.0280676E-4
0.0015755534
0.0018613706
-3.0040992E-5
4.8524066E-4
2.5667616E-5
7.303337E-5
8.457396E-4
-0.0015274311
-0.0012268723
0.0019863967
0.0016923458
7.129053E-4
0.001282874
0.0017209401
9.986121E-4
-7.231282E-4
-0.0016353155
-0.0021760254
-0.001480528
-1.9688813E-4
-6.5458E-4
-2.0613467E-4
-1.5333178E-4
-8.576258E-4
4.0713197E-4
-4.91455E-4
-0.0025240877
-0.0020000632
-7.7394873E-4
2.7946342E-4
-8.9945947E-4
-0.0012949829
0.0021196364
0.0029331648
5.5046385E-4
-0.001017477
-0.0012282875
-4.146155E-4
2.7737062E-4
0.0018167098
0.0017077777
-0.0014804833
-0.0012385639
0.0014423823
0.0011600482
-8.6707383E-4
-0.0023807727
-0.0015232825
5.2550744E-4
6.035683E-4
-4.48495E-5
6.9095235E-4
0.0015318202
6.0345436E-4
-6.93189E-4
-2.528194E-4
0.0012209957
0.0017697352
0.0010885239
0.0013826671
0.0018169204
6.4968475E-4
5.0945603E-4
4.283809E-4
-0.0012979142
-0.0013136505
-4.6084708E-5
1.045789E-4
-2.5256872E-4
-0.0011550459
-0.002079316
-0.0023290138
-0.0019574754
-6.5608736E-4
-8.8782236E-4
-0.002928385
-0.002372318
-0.0011453085
-0.0016253045
-2.1956075E-5
0.0011965596
2.0299769E-4
0.0012303339
0.0017801641
3.237838E-4
4.92359E-4
0.0014912989
0.0015583129
0.001234215
0.0018395472
0.0021993136
0.0011284002
0.0017533547
0.0017652147
-0.0011517209
-0.0016800031
-0.00151607
-0.0031841635
-0.0019080077
6.069652E-4
0.0010052609
0.0014580837
8.812546E-4
-0.001323468
-0.0010811333
3.7101534E-4
-3.8911618E-4
-7.083163E-4
-3.9976888E-4
-9.722276E-4
-1.06770545E-4
9.099035E-4
7.111557E-4
9.565819E-4
7.283818E-4
1.4053293E-5
-8.0961945E-5
5.005564E-4
9.084548E-4
1.15115625E-4
6.3035E-4
0.0013105262
-0.001230437
-0.001703777
4.1416514E-4
-1.4397709E-4
-4.6500537E-4
-6.7745254E-4
-0.0025823896
-0.0012658458
0.0015250485
0.0020633293
0.001867997
1.1279612E-4
-0.0011678135
1.233503E-4
3.9850993E-4
-4.746412E-4
1.3031185E-4
0.001962964
0.0023970676
4.665127E-4
-5.542126E-4
-4.3254785E-4
-0.001347629
-0.0012876085
9.481836E-5
1.5755216E-4
-9.300825E-4
-0.0016569102
-0.0012691997
1.6132352E-4
4.5894063E-4
-9.999703E-5
5.9194426E-4
1.478537E-4
-0.001253647
-0.0017656414
-0.0022739298
1.0300645E-4
0.0025300581
0.0012828432
0.0013200458
3.0492907E-4
-0.0018480701
-7.52279E-4
-4.0392356E-4
8.016716E-4
0.0020499749
-4.958688E-4
1.1048909E-4
0.0020410535
7.073313E-4
0.0014098994
0.0024298541
1.2677615E-4
-0.0012480019
2.6539256E-4
6.751086E-4
2.3966355E-4
9.654523E-4
-1.6690408E-4
-4.321806E-4
0.0013911291
4.4773577E-4
-1.9323896E-4
-6.14189E-5
-0.0021525607
-0.0031019063
-0.001847497
-3.970224E-4
-3.845192E-4
-4.2815603E-4
5.5830777E-5
-0.0013719398
-0.0016162737
-9.7341876E-4
-0.0023256617
-0.0013445017
0.0011931887
0.0013737597
2.6870338E-4
6.849486E-5
0.0012531031
0.0010184939
1.703952E-4
7.36451E-4
0.0012521272
0.0013001685
0.0012524736
0.001980547
0.0014795386
-2.1184378E-4
1.3194249E-4
-2.8911768E-4
-0.0011035493
-9.4565895E-4
-0.001755349
-7.6922926E-4
7.6691556E-4
8.50991E-4
0.0010169345
-6.523741E-5
-0.0011889804
-0.0010558196
-5.7009707E-4
-5.467604E-4
-9.77917E-4
-0.0012142318
-0.0022094704
-0.001096558
9.961114E-4
-8.191525E-5
1.1598042E-4
7.518192E-4
-5.0391327E-4
-4.859375E-4
5.7765126E-4
0.0023647128
0.0030812903
0.0033661115
0.003548396
0.0011157825
3.2997422E-4
3.4568724E-4
-0.0014376538
-0.002586757
-0.0031393983
-0.0011984949
0.0010542589
0.0020598113
0.0018998276
-0.0010323602
-0.0010246683
7.261709E-4
0.0017414222
6.226603E-4
-0.0034477478
4.7388978E-4
-0.0018832614
-0.014030555
-0.006573032
0.0035089913
8.2646596E-4
0.0029123053
0.0024684411
4.508349E-4
0.0025317706
9.654745E-4
7.859271E-4
9.821814E-4
-6.6106964E-4
7.7431457E-4
0.0024225637
0.0013111193
-0.0012786499
-6.658123E-4
0.0011487724
2.9801604E-4
0.001106053
0.0013699591
8.8517816E-5
2.6855094E-4
1.06562075E-4
2.598274E-4
-9.897791E-4
-0.002354659
-2.88902E-4
3.7662972E-5
-2.734246E-4
0.0018260946
0.0015952652
-4.8880497E-6
-8.527271E-4
-0.0023611707
-0.0023764698
-1.2626193E-4
0.0015677271
0.001270986
5.9637154E-4
0.0016011647
0.0019759673
7.353156E-4
9.2966534E-4
0.0015156498
9.51653E-4
-0.0013386317
-0.0047506657
-0.003792761
-4.9941E-4
-1.1513286E-4
-3.5181295E-4
-7.888498E-4
-5.4902246E-4
2.094173E-5
-0.001255285
-9.436435E-4
-1.6497771E-4
4.1632372E-4
0.003062576
0.002974952
9.3810534E-4
5.1703013E-4
-1.7152609E-4
-7.02337E-4
-0.0013473945
-0.0016985066
-3.145599E-4
1.904828E-4
1.1523281E-4
7.740376E-4
5.1303726E-4
5.1336037E-4
0.0010898676
3.83635E-4
1.5981962E-4
0.0011246479
8.6181087E-4
5.7807414E-5
1.3550051E-4
2.9573357E-4
4.494048E-4
5.4735667E-4
7.051229E-4
5.8097555E-4
-5.824578E-4
-0.0011788498
-0.0012744925
-0.0013567113
-1.3458119E-4
1.8516337E-4
-5.4301333E-4
1.8644781E-4
9.993814E-4
5.5315887E-4
-0.0011812323
-0.0015636752
1.1789092E-4
-0.0014027432
-0.0034212538
-0.0014311258
2.303888E-4
0.0014327562
0.002303696
9.749993E-4
7.615913E-4
4.1373374E-4
-4.465055E-4
0.0016046363
0.0021754254
0.0010733905
0.0020622918
0.001176809
-0.0013581322
-0.002077169
-0.0016016519
-9.580596E-4
-0.0018682878
-0.001680127
6.554565E-4
6.400876E-4
6.871111E-4
0.0015895467
9.434201E-4
0.0010197823
2.766889E-4
-4.7542076E-4
5.0226174E-4
3.4790937E-4
5.9754064E-4
2.5995629E-5
-0.001436516
-2.1802088E-4
1.4501534E-4
-7.313533E-4
-0.001584661
-0.0027674166
-0.0014853447
5.421338E-4
0.00138863
5.719636E-4
-3.476485E-4
0.0011538048
-4.1322182E-5
-0.0024928956
-0.0025763893
-0.003545788
-0.0016195796
0.0013567305
3.315566E-4
1.1951277E-4
0.0010800717
0.0023606543
0.0035095692
0.0025542995
0.0029574363
0.0036755798
0.002805434
0.003150668
0.0019935286
-0.0014021479
-0.0021555552
-9.5866097E-4
-0.0018024801
-0.0029420217
-0.0018609752
-0.0019350554
-0.002747178
-4.8290598E-4
5.6309224E-4
-0.0011099802
-2.446523E-4
9.4547705E-4
3.576636E-4
5.7810894E-4
2.7399274E-4
-5.656726E-5
-6.452433E-4
-0.0020263435
-4.7542094E-4
6.030502E-4
7.409483E-5
0.0020337051
0.0023423964
5.0122157E-4
-3.378069E-4
-6.6532055E-4
-2.547035E-4
3.6408257E-4
0.0015987551
7.058285E-4
-0.002397953
-0.0022046713
-0.001924519
-0.0026424958
-0.0021128831
-0.0026835056
-6.450842E-4
0.0037119533
0.004280885
0.0023781976
0.0018920102
0.0025139295
0.0011917467
1.3735126E-4
8.9290243E-4
1.9988368E-4
1.904545E-5
2.7873172E-4
6.236149E-5
0.0011378453
1.3511832E-4
-0.0018471723
-0.0017086145
-0.0022274235
-0.0031526608
-0.002458146
-0.001046584
-4.400258E-4
2.35392E-4
0.0011271884
0.0011296825
0.0016367884
8.678548E-4
-9.0726797E-4
-4.99964E-4
-9.3993335E-4
-0.001197992
1.3376267E-4
6.3395785E-4
0.0027307007
0.0035349154
0.0019487042
0.0029843515
0.0019520142
-0.001163379
9.544405E-7
0.001041586
-6.701927E-5
-2.0038747E-4
-0.0015942182
-0.0030819
-0.0017260577
-0.0012996595
-0.002664178
-0.0022547715
-5.4517214E-4
7.170896E-4
2.7431935E-4
-0.001461389
-9.937758E-4
6.836207E-4
2.3887272E-4
-2.4765613E-4
2.230328E-4
-8.9114445E-4
-0.0021001196
-8.0744846E-4
2.0717179E-4
-5.704863E-4
4.653797E-4
0.0027203772
0.0021102398
0.0012080108
0.0022243878
0.0012414122
-1.4492605E-4
0.0015006312
0.002518358
0.0018934509
0.0026815769
0.0036759619
0.0020090572
-5.8386085E-4
-0.0016875814
-0.0029612915
-0.0034861949
-0.001955688
-8.365174E-4
0.0013312605
0.0031132193
1.9625144E-4
-0.0025223226
-0.0017420274
-0.0010812466
-0.001204846
-0.001084334
-0.0013934982
-0.002082391
-0.0015596027
-2.918493E-4
4.4713065E-4
8.7920483E-4
-1.4071547E-5
-0.0014065012
-0.0017031907
-0.0013690571
4.55771E-6
7.220712E-4
1.8618572E-4
0.0010599077
0.0016324249
6.786236E-4
7.048792E-5
-0.0016452707
-0.0032242269
-0.0011259068
7.551987E-4
2.4460975E-4
0.0010417727
0.0017355756
0.0019773399
0.0034429026
0.003572376
0.0038103492
0.0033674722
1.454516E-4
2.2190403E-4
7.459644E-4
-0.0028964954
-0.0028914504
-2.92636E-4
-5.923424E-4
-4.726018E-4
-5.2248823E-5
4.167578E-4
0.0018569877
-3.247735E-5
-0.0036305995
-0.00417397
-0.0036634544
-0.002342593
-2.032619E-4
-3.9026636E-4
-0.0011740981
-2.3205033E-4
0.0017760108
0.0042973757
0.005409957
0.004834303
0.0037758823
0.0034432404
0.0049826824
0.0050302604
7.746124E-4
-0.0058603315
-0.010535186
-0.0098237675
-0.0075038257
-0.0045351866
4.8224122E-4
7.517188E-4
-7.097379E-4
0.001880997
0.0020984535
0.001047442
0.0011642148
1.3222818E-4
1.3021572E-5
-0.0015980228
-0.0030320738
-3.7365122E-4
0.0022781682
0.004202671
0.0043983483
0.0040280935
0.0060837055
0.006205226
0.004744873
0.001742086
-0.0035779257
-0.005456009
-0.005659639
-0.0055732555
-0.0033044606
-0.0032188038
-0.004034291
-0.002155295
-8.169184E-4
-0.0015337374
-0.001600168
-0.0014639706
-0.002746969
-0.003092462
-0.0025215386
-7.7396794E-4
0.0037555385
0.008515258
0.011581307
0.011994999
0.012173861
0.010495477
0.001406257
-0.005766223
-0.00595674
-0.0055002584
-0.0038242515
-0.0016584642
2.3228467E-4
0.0027005493
0.0037303187
0.0011872555
-0.003001697
-0.0022029066
9.6222466E-5
0.0012111318
-0.0021239647
-0.014135105
-0.011386362
0.0020267952
-5.3261727E-4
-0.003033389
-0.006660228
-0.014175802
-0.0021891904
0.008835523
0.0048796614
0.0035061687
0.0015152346
-0.0010284635
4.212096E-4
0.0019138152
0.001899105
0.0012181916
0.0032544208
0.0038121599
0.0018306292
0.0023423627
0.0014636412
9.3268114E-5
0.001817439
0.0040488574
0.005138293
0.004045594
0.0011987156
-8.731442E-4
-1.00336176E-4
-7.065974E-4
-0.0040586423
-0.0024594963
9.877718E-4
3.9065717E-4
-2.2094902E-5
7.1818597E-4
2.0559745E-4
-8.0511154E-4
5.6571283E-5
-0.0013749517
-0.0041669784
5.7404628E-5
0.0020500226
-8.453957E-4
8.3680544E-4
0.0015313423
0.0021187565
0.0036248032
0.0020929358
3.1556594E-4
-0.0056100204
-0.0064554606
2.9077614E-4
-0.0015792855
-0.0053857584
-0.013123397
-0.024532484
-0.015918253
-0.001369002
6.7792257E-4
5.535691E-4
-3.995909E-4
1.4379513E-4
0.0027902524
0.004343732
0.0064583896
0.0058149705
0.0057144244
0.0071994774
0.00559426
0.0048323944
0.0034903286
0.0015770065
0.0035960323
0.005419277
0.0045347433
0.0015124226
-0.0025603375
-0.005024395
-0.0041013327
9.0514484E-5
0.0019919875
-5.479391E-4
-0.0031476931
-0.004161753
-0.004216637
-0.005013907
-0.007544064
-0.011278322
-0.014761683
-0.015182707
-0.012108771
-0.007537577
-0.004297985
-0.0027893481
-6.844346E-5
0.004168106
0.009477339
0.011286554
0.0055916687
0.001312689
-2.4040235E-4
-0.004005339
-0.002217731
0.00368658
0.0074734893
0.012130172
0.0130387265
0.012262757
0.019328533
0.026237024
0.027003657
0.028694455
0.032101702
0.03691002
0.044192325
0.045840576
0.039129164
0.03006113
0.013178491
-0.012269465
-0.034788202
-0.051527593
-0.054525115
-0.044829655
-0.03912559
-0.033677477
-0.026694003
-0.01936516
-0.006469379
8.553268E-5
4.8578824E-4
-0.005314178
-0.023454333
-0.041286927
-0.066606425
-0.09629355
-0.10319046
-0.09604329
-0.08921056
-0.077089556
-0.05443046
-0.01820975
0.041758906
0.120195575
0.17202197
0.17838529
0.15360887
0.108730964
0.07559767
0.05637982
0.035558727
0.0188979
-0.020386703
-0.06520825
-0.04827482
0.012972662
0.06733655
0.102465354
0.10692142
0.0856802
0.06540754
0.040572338
-0.0020643254
-0.040549666
-0.07577726
-0.12200101
-0.15981027
-0.17350426
-0.1490892
-0.09731101
-0.061538186
-0.037477273
-0.008137316
-0.0014622356
-0.037952576
-0.0798105
-0.06525936
-0.006629215
0.057845768
0.13939527
0.19213118
0.17220913
0.14208235
0.073673524
-0.09087727
-0.20832616
-0.21231888
-0.20672819
-0.1606361
-0.03905063
0.06910594
0.14254025
0.20441812
0.23438978
0.20218693
0.13179383
0.06373374
-0.02613439
-0.11294561
-0.14477783
-0.1433485
-0.11898588
-0.08349873
-0.032957055
0.037760105
0.092423886
0.15549827
0.2053736
0.20230412
0.19163238
0.14339949
0.0522453
-0.07672437
-0.24716172
-0.2692169
-0.13774794
-0.07680126
-0.07116972
-0.05714445
-0.056136366
-0.047954045
-0.05443723
-0.07566121
-0.06699499
-0.034754068
-0.010138561
0.0037300074
0.02348221
0.047820374
0.06563115
0.049686335
0.0035672227
-0.02470723
-0.04318177
-0.045553327
-0.0071499613
0.043479115
0.11575992
0.19092025
0.20922175
0.18298043
0.13610145
0.07408675
-0.016671492
-0.11347518
-0.12947209
-0.08611619
-0.07046963
-0.06986714
-0.04766108
-0.024646208
-0.020692606
-0.01252907
-0.008320508
-0.027517054
-0.037068557
-0.039137185
-0.042062238
-0.019834729
0.0037474076
0.004119918
-1.0648907E-4
0.004358924
0.01567207
0.023408439
0.022210166
0.019392574
0.022045877
0.023785796
0.025224796
0.030749727
0.021066511
0.004649455
0.005814151
0.007822925
0.0034935998
-0.0011162905
-0.008574841
-0.010430949
-0.009449457
-0.01153151
-0.009727205
-0.005111501
-0.0021543747
-0.0010324249
8.7819854E-4
0.0026257732
0.0025861012
0.004794007
0.007849433
0.010845859
0.011329414
0.00701838
0.0065338416
0.0070734834
0.0038682371
-2.3026238E-4
-0.008790192
-0.0143290665
-0.014165332
-0.016088814
-0.014146803
-0.007883738
6.589863E-4
0.012016656
0.017204277
0.014526161
0.0075605516
-2.1397493E-4
-0.0072227935
-0.018829707
-0.029664766
-0.029076464
-0.016103396
-7.5959915E-4
0.006076603
0.010128051
0.012541136
0.008539562
0.005758768
0.0032479037
-0.0013630202
-0.0026017067
-3.2834554E-4
0.0031643882
0.0034060013
0.0021490965
0.0012358264
-6.905814E-4
0.004081916
0.012469645
0.017827451
0.021991322
0.018683257
0.011208361
0.008542204
0.002499766
-0.013210227
-0.030325709
-0.03836832
-0.03398847
-0.019326074
-0.001935232
0.0112319505
0.020615373
0.024333619
0.022486905
0.019066785
0.011273509
-0.005535456
-0.029261408
-0.041100986
-0.028348899
-0.008083871
0.0068340423
0.013466756
0.00863292
0.0054999846
0.012107189
0.018986754
0.018769471
0.010383171
-9.301816E-5
-0.0074371994
-0.009678714
-0.0059398026
-0.0046137143
-0.0062889843
-0.0033738038
-0.0011794243
-1.28189E-4
0.003838915
0.004479917
0.0024765425
0.0011266525
-0.0010953451
-0.0018953485
-0.0018059846
-0.0022101405
-0.0019523824
-0.0011424668
-5.5295933E-4
-0.0024295808
-0.0038342248
-0.002251607
-0.002682798
-0.0044113295
-0.0035107338
-6.5598974E-4
0.001623036
0.0021284993
0.002735918
0.0025472986
0.0016960915
0.0026298235
0.0037861844
0.0036276376
0.0012127251
4.98347E-4
0.0038403566
0.004447866
0.0023794658
-1.2099516E-4
-0.0023997326
-0.0011027484
-7.5612153E-4
-0.0013533464
6.8698666E-4
8.646421E-4
6.636354E-4
0.0011047157
1.2097295E-4
9.791981E-4
0.0010252993
-0.001482957
-0.0018108883
-0.0018015123
-0.0040315147
-0.0050260536
-0.0036729465
-0.0023726649
-0.0014190732
-5.563908E-4
-1.6898695E-4
6.783022E-4
7.434135E-4
-5.569529E-4
-7.906761E-5
9.583373E-4
9.544805E-5
2.3125023E-4
0.0015610034
0.0015110663
0.0013499476
0.0017507992
0.001662083
6.6949165E-4
-0.0011923548
-7.3728466E-4
0.0010799215
-0.0011860504
-0.002695398
7.64936E-4
0.002590804
0.0028467576
0.0035966544
5.1814824E-4
-0.0025264432
-0.0016343965
-0.0012149493
-6.779142E-4
5.071344E-4
2.4427363E-4
6.674354E-4
9.392771E-4
-2.1837659E-4
-6.927756E-4
-7.1207207E-4
-2.3244145E-4
8.023742E-4
0.0010728283
-1.4411984E-4
-0.002309648
-0.002475739
-9.249969E-4
-2.616937E-4
-5.736444E-4
-0.0013962087
-6.857798E-4
-4.118089E-5
-8.3039666E-4
6.0684633E-5
-1.8579554E-4
-8.062982E-4
6.199376E-4
-3.529721E-5
1.2859592E-4
0.00118895
2.1506306E-4
9.020716E-4
0.0012860897
3.522765E-4
2.4266515E-4
8.9109264E-4
0.0024106053
0.0016706208
6.5497E-4
0.0011155945
-8.084847E-5
1.1572623E-4
0.0011641429
7.999597E-4
5.455791E-4
-0.0014244099
-0.0037783922
-0.004373539
-0.004598528
-0.0042226836
-0.0019432622
4.2574262E-4
-4.8119757E-5
1.421636E-4
0.0021466748
0.002441135
0.0024483707
0.0015022666
-0.001343592
-0.0019441836
0.0014675601
0.0033107584
0.0014112071
0.0022794416
0.0020865903
-5.846075E-4
8.3962746E-4
1.3614414E-4
-2.9157675E-4
0.0023672155
0.0017703603
0.0018732368
0.0019153884
0.00480402
0.0029342773
-0.011861094
-0.009213148
1.1326994E-4
-0.010467106
-0.00906723
0.0017304881
0.001728222
0.0039254157
0.0033226782
7.278234E-4
0.0027611817
0.002213228
0.0021840658
0.0017337608
-4.8768977E-4
7.3171407E-4
0.002769635
0.002408698
2.5011657E-4
-2.728907E-4
4.2852212E-4
3.5559005E-4
0.0012919244
6.116781E-4
-9.915853E-4
-4.8015977E-4
-3.1727718E-4
-0.0011097649
-0.0014064398
2.5314325E-4
0.0010606912
-5.496533E-4
-5.5627077E-4
-0.0010887862
-0.002300727
-0.001392003
-0.001506841
-0.0018544884
-0.001389646
-8.6765917E-4
9.4961084E-4
0.0017833934
0.001721615
0.0020380379
0.0010303361
-1.0045661E-4
-5.426938E-4
-0.0010831186
-8.5266615E-4
-2.1728732E-4
-8.1074296E-4
-0.0016608724
-0.0014210917
-0.0013697
-5.627216E-4
0.0012019869
9.97247E-4
8.5096894E-4
0.0016911045
9.880321E-4
6.705144E-4
0.0011023676
0.0014050542
0.0019046281
6.909175E-4
-2.8944953E-4
2.1032282E-7
-0.0011325219
-0.001385905
-3.2444856E-5
5.381836E-4
6.6996535E-4
4.899685E-4
4.5699524E-4
-4.8090465E-4
-0.002567397
-0.0019351002
2.974825E-5
-1.01643316E-4
-2.2179505E-4
7.8166294E-4
9.2291215E-4
-1.915256E-4
3.6139493E-6
2.7003346E-4
-0.0018298648
-0.0017160245
4.2567053E-4
1.5792876E-4
-5.1251985E-4
-6.464355E-4
-7.46311E-4
-9.490686E-4
-0.001180725
-9.492548E-4
-0.0022393102
-0.0024792745
-8.818319E-4
-6.9832505E-4
2.2644279E-4
3.1207255E-4
3.5812458E-4
0.003427844
0.004104274
0.0024118463
0.0012743595
8.449774E-4
7.313825E-4
-3.8219812E-5
0.0016006124
0.0028403588
0.0021768538
0.0020259495
6.1553794E-5
5.856484E-4
0.0015531117
5.540339E-4
0.0017707838
-6.281746E-4
-0.0022213697
-0.002072724
-0.002884667
0.0020963107
-0.004738115
-0.016381051
-0.0058215642
0.0035445367
0.0011803247
0.0015215648
8.585707E-4
0.0015391603
0.0024005393
4.0084275E-4
2.6974946E-4
-8.2472665E-4
-0.0014275071
-2.3340619E-4
-8.522627E-4
-3.7582882E-4
0.0015703877
8.49268E-4
-4.4518345E-4
0.0020240436
0.0036927054
0.00156025
6.1939674E-4
9.956489E-4
1.3003663E-4
-0.0010183854
3.540309E-4
0.0022357993
0.0011160014
7.867225E-4
2.3630365E-4
-9.886964E-4
2.7137162E-4
-1.9767521E-4
-3.55301E-5
0.001115312
-2.4515553E-4
5.0360005E-4
3.3303272E-4
-5.56831E-4
7.4446254E-4
1.8739149E-4
8.719327E-4
-4.8371567E-4
-0.0037352825
-6.1133277E-4
5.774392E-4
-0.0013055275
-4.8819144E-4
-0.0016332417
-0.0017868378
-4.545935E-4
-0.0018302168
-0.0019581674
8.775054E-5
0.0015219224
0.0013095151
5.360765E-4
-8.524385E-5
-0.0014252319
-5.1670574E-4
0.0014679263
-9.996729E-5
-0.001528543
-0.001041637
-0.0010749211
4.5487031E-4
0.0021686605
0.0012305279
0.0013299945
0.0026986357
0.0019541227
0.0012259485
9.188681E-4
-7.1480265E-4
-3.398706E-4
0.0018845884
0.0017922729
4.2446257E-4
4.8846385E-5
2.4243435E-4
-1.1199413E-4
-0.0010515832
-0.0012954193
-5.2449526E-4
9.810575E-4
0.0015752977
4.1234383E-4
6.2164604E-6
-4.3681645E-4
-0.0022545161
-0.003219523
-0.0031838675
-0.002310341
-0.0016070687
-0.0017409684
-5.115672E-4
9.68855E-5
-2.1273809E-5
0.0016462826
0.0012223432
-5.3139357E-4
5.0815183E-4
8.571532E-4
7.861346E-5
0.0017572554
0.0029702354
0.0011996411
1.5624732E-4
-2.960192E-4
-0.0021301652
-0.0014583962
0.0010499095
0.0011879402
9.831171E-4
0.0015984778
0.0012130102
2.1400995E-4
5.5551564E-4
9.627723E-4
-0.0013054078
-0.002296551
-0.0010787427
-0.0022389807
-0.0018910299
6.387019E-4
3.4630805E-4
5.084892E-4
0.0010057657
-8.388542E-4
-8.019066E-4
2.43414E-4
-1.5660697E-4
2.6417652E-4
3.2471737E-4
-6.0490606E-4
-4.1403002E-4
7.04581E-5
-1.0291633E-4
4.7263555E-4
0.001410503
1.9175248E-4
-0.0014809496
-2.4778832E-4
0.0011619397
4.7434962E-4
1.3736392E-4
5.2880263E-4
6.789991E-4
8.4225106E-4
3.9024765E-4
-9.097537E-4
-0.0019467471
-0.0013551592
3.48982E-4
9.354567E-5
-0.0010148783
1.9492354E-4
8.41335E-4
5.3838734E-4
9.362395E-4
-0.0014096319
-0.0030847385
-3.9891704E-4
5.8126886E-4
3.625474E-4
0.0014629796
4.5533123E-4
-3.8866332E-4
8.0801477E-4
0.0011721954
4.3686255E-4
-4.67236E-4
-1.0579674E-4
0.0011454308
0.0010248648
5.5343837E-5
-1.6782491E-4
5.9572724E-4
1.2679007E-4
-0.0012030905
-2.1590425E-4
-2.5249788E-4
-0.0020357533
-6.5738556E-4
9.0497395E-4
-1.5144163E-5
2.612437E-4
0.0017423413
0.001259935
-0.0012521846
-0.002011536
-0.0013590102
-0.0025523077
-0.0026273655
-0.0011303452
-5.4960925E-4
3.025111E-4
1.262586E-4
3.9635578E-4
0.0025148676
0.0012699304
-0.0013117251
-0.0011043767
-8.217271E-5
0.0019836135
0.0031948618
0.0020239966
0.0016039839
0.0017083333
0.0019561655
0.0017986558
-3.9732287E-4
-8.6378056E-4
7.4060593E-4
2.927231E-4
-6.819765E-5
4.552024E-4
-6.8450347E-4
-0.0012948237
-8.725929E-4
-0.0018715735
-0.0025562774
-0.001518525
-7.623771E-4
-0.0012895352
-0.0014630504
-5.6514276E-5
7.1965484E-4
9.623715E-5
-7.874314E-4
-0.0022725957
-0.0020721874
-6.4913556E-4
-9.0044993E-4
5.525567E-4
0.0022917509
9.899684E-4
0.0010584095
0.0016118631
0.0012072732
0.0022564994
0.0011151243
-0.0012871249
-5.836526E-4
2.5354035E-4
2.0581142E-4
9.755507E-4
0.0015633295
6.728721E-4
-0.0012427184
-0.0017322248
-5.6614465E-4
5.221981E-4
0.0013807336
0.0012283699
-2.0745417E-4
-4.5227114E-4
0.0012436436
0.0014424198
-7.794699E-4
-0.0017330782
-8.0003834E-4
-5.099293E-4
-0.0016980005
-0.001978849
7.6405396E-4
0.0021942668
4.1901696E-4
-3.6971054E-5
-2.8547534E-4
-0.0019413665
-0.002286493
-0.0017083714
-4.3256505E-4
0.0014237056
0.0013108844
1.2835344E-4
4.8978184E-4
0.0011250945
3.3153303E-4
-8.8845484E-4
-0.0018913841
-0.0018368118
3.057543E-4
0.0019115208
0.0015970926
0.0015395689
0.0012733304
2.862704E-4
-2.3349271E-4
-6.2533095E-4
-1.5814257E-4
2.5695693E-4
-0.0013698883
-9.43951E-4
8.905789E-4
-0.001301888
-0.0020345757
5.179582E-4
2.489983E-4
1.4064905E-4
1.5735705E-4
-0.0025985558
-0.0022294598
3.8573996E-4
4.3873116E-4
6.2880915E-4
0.0011729446
3.4356752E-4
8.2906554E-5
6.683322E-4
-6.5500784E-4
-0.0019952466
9.0011046E-4
0.0033546614
0.0021217575
0.0017822803
0.0018140406
9.7037386E-4
6.361877E-4
-3.0936525E-4
-0.0011200345
-0.0010116027
-5.1801535E-4
1.3581723E-4
7.1746524E-4
0.0015581122
9.781941E-4
6.928293E-5
2.5876088E-4
-0.0013412802
-0.0023182184
-0.0020509053
-0.0025182716
-0.0011503604
-9.637339E-4
-0.0012629749
5.1337894E-4
-0.0010027257
-0.0013612118
0.0015807364
4.6406192E-4
-0.0017971003
-0.0017402221
-4.837165E-4
8.120726E-4
9.036434E-4
0.0015519533
0.0011024144
-4.161392E-4
-3.7570062E-4
-8.167856E-4
-6.724975E-4
2.9743844E-4
-2.4766632E-4
-0.0010015998
5.385111E-5
0.0029669062
0.002948118
4.1148523E-4
5.5520504E-4
8.7990734E-4
0.0010587723
0.0015128001
5.157038E-4
1.01306425E-4
-1.07638625E-4
7.588845E-4
0.0016014943
-4.6226392E-5
2.3954641E-4
0.0011832912
-5.4242188E-5
-0.001036198
-9.5006987E-4
2.7068856E-4
5.303398E-4
3.6716048E-4
-3.6557805E-4
-0.0017129704
-6.6133485E-5
-0.0029828155
-0.007866086
-0.0030837953
8.5938914E-4
8.910852E-4
0.0022216325
3.4382835E-4
-2.3966869E-4
7.896185E-4
-1.888401E-4
-4.5899305E-4
-0.0015600735
-0.0013830027
2.5569127E-4
4.0081225E-4
2.9586512E-4
-0.0012462122
-6.755009E-4
0.0020965633
0.0010442213
-3.8983184E-4
-4.22699E-4
-9.634269E-4
-2.0088992E-4
0.0016129704
0.0026451014
0.0021031855
0.0014201389
0.0012102509
0.0011161889
0.0011764688
-1.9397514E-5
-1.14106326E-4
0.0018256507
0.0027851188
0.0027250668
0.0010176932
-3.005932E-4
-8.737419E-5
-0.0020901444
-0.003944821
-0.004313729
-0.00460539
-0.0023087016
2.4447538E-4
0.001463123
0.003203737
0.0024986812
3.003668E-4
2.809507E-4
1.7138653E-4
3.0302486E-4
0.00216248
0.001715883
-5.0597306E-4
-1.419992E-4
4.757088E-4
-9.6284365E-4
-0.0013277644
-7.743181E-4
-0.002572697
-0.0047274516
-0.004733755
-0.00381777
-0.001867745
-2.6256233E-4
-6.6895224E-4
-0.0020215677
-0.003947349
-0.002753769
0.0018173993
0.002232651
-9.293335E-4
-0.0015786148
-6.5145764E-4
-4.092727E-4
0.0020240133
0.00700888
0.009364196
0.009774403
0.011478807
0.011756032
0.008405979
0.0024044055
-0.002513765
-0.0030371815
-3.264087E-5
0.001361433
-0.0031841227
-0.006401778
-0.0048934594
-0.005910216
-0.0066804234
-0.0063840677
-0.007687727
-0.0049173175
-0.0016625576
-0.002022929
-0.0014274361
-0.0012030009
-0.0021018202
-0.002295236
-0.0017684678
-9.776468E-5
6.627418E-4
4.270919E-4
0.0016007568
0.0030529601
0.0037248675
0.003925504
0.0026912447
0.0012906732
0.002066115
0.0028326763
0.00223949
0.002500027
0.002644044
0.0011872145
1.8436078E-4
4.851289E-4
-2.4234333E-4
-0.0021120883
-0.0016099869
6.583392E-4
6.3213316E-4
-8.9022395E-4
-1.0698121E-4
0.002166347
0.0021369616
0.0010553265
8.744596E-4
5.8762776E-4
6.8256096E-4
5.5813583E-5
-8.783142E-4
-6.709074E-4
-0.0018824707
-0.002824608
-0.002368614
-0.002759081
-0.0025488157
-0.0032142936
-0.0039713173
-0.0015796237
-4.0895658E-4
-5.0432124E-4
9.71336E-4
8.804279E-4
1.3688377E-4
1.6882781E-4
-6.691979E-4
3.7248412E-4
0.0028438095
0.0016806285
-3.643681E-4
6.157511E-4
0.0010688053
4.1060598E-4
7.933059E-4
0.0013126833
0.0018014006
0.0017474967
0.0015700916
0.0017168449
4.1552656E-4
-3.2255467E-4