0.0074043153
0.0014682206
-0.002904722
-0.0028235854
-0.0029114292
-0.0010476274
-0.0026841357
-0.005240227
-5.0510623E-4
0.0037372566
0.0027847071
-0.0012299917
-0.0058350796
-0.0052578286
-0.0020371422
-0.003952615
-0.006315087
-0.0022915665
6.8290904E-4
-3.6161536E-4
6.43975E-4
0.0023352006
0.0045942403
0.0072409716
0.00902768
0.0125655765
0.011886491
0.0064408085
0.002054388
-0.0032389206
-0.0050165723
-0.004631365
-0.008027699
-0.007906036
-0.004599827
-0.0028464631
-2.4311677E-4
0.0028331373
0.0021231554
-0.0047054472
-0.007148122
-0.0025889867
-0.001954152
6.139607E-4
0.004424988
1.0357733E-4
-0.0028579063
-0.0013481616
3.26228E-4
0.001479189
8.8546076E-4
0.0029210616
0.004791015
0.0070446497
0.01366101
0.01108475
5.3738215E-4
-0.0047926437
-0.0070762336
-0.0064182226
-0.0049810302
-0.0054270397
-0.0025183386
7.777846E-4
0.0011037989
9.1184943E-4
6.3210196E-4
1.7749386E-5
-0.002234273
-0.0045638783
-0.0040841936
-0.0024580706
-0.0018151689
-0.0014581793
-5.8029115E-4
-4.2465352E-4
6.5214693E-4
0.003956951
0.005415134
0.0053379713
0.0051996056
0.0029646843
8.764959E-4
-7.678939E-4
-0.0036331888
-0.004687202
-0.0035884301
-0.0012084242
0.0028891999
0.0054302225
0.00674284
0.0084834285
0.005022436
-4.8916176E-4
0.0012832715
0.0021195842
-0.004345655
-0.00721574
-0.0042876927
-0.0012448621
0.0011042317
-2.881577E-4
-0.005079616
-0.007272093
-0.0048389384
-8.425897E-4
4.5158685E-4
6.616386E-4
0.0033297315
0.005978132
0.004764684
-0.001909638
-0.007894175
-0.0064534545
-0.0029959595
-9.242224E-4
0.0011407662
0.0015138933
0.0025223803
0.0048391037
0.0044487272
0.0021150175
0.002336717
0.0032510501
-1.9269339E-4
-0.0022086534
-2.8337975E-4
0.0012454574
0.0059327134
0.007809218
0.00257263
-4.31469E-4
-0.004487939
-0.009333813
-0.0073500625
-0.004016281
-0.0017601373
3.4815236E-4
0.0015687963
0.0027786628
0.0017727228
9.208773E-4
0.0020968388
0.0022102322
0.0013161608
-0.0012874496
-0.0032778755
-8.778794E-4
9.4334583E-4
-4.1663833E-4
3.8546743E-4
0.0024174314
9.954385E-4
-5.7762663E-4
-0.0010269877
-0.0022549862
2.524438E-4
0.0054914965
0.0058644293
0.0016916643
-6.045026E-4
-3.8583702E-4
-0.002456149
-0.0041795047
-0.002264579
3.4679865E-4
0.0025466473
5.4008793E-4
-0.0033452509
-0.0017670661
7.9421455E-4
0.002741125
0.0037246784
-6.5524614E-4
-0.0046782494
-0.0056353374
-0.0052722367
-0.0023865243
3.1210246E-4
0.0028825118
0.0043045357
0.0026788763
0.0020420367
0.0016215754
9.703918E-4
8.635556E-4
-0.0018392432
-0.0034532943
-0.0025660752
-0.0022753736
-1.5754023E-4
0.0015755158
0.0010519599
0.0024674155
0.0033658338
0.001370465
0.0025873303
0.00906964
0.012348595
0.0074187894
-2.1279167E-4
-0.006756098
-0.010746181
-0.009560679
-0.0047623916
3.7036667E-4
0.0018452829
-8.7775574E-5
1.4517606E-4
8.4885966E-4
0.0011344546
0.003283285
0.0017433013
-0.0022117896
-0.002396486
-0.0024244692
-0.004317662
-0.004688854
-0.0015603115
5.2705227E-4
-0.0030098823
-0.0044634747
1.9536608E-4
0.004251446
0.004918897
0.003779451
0.003964144
0.0032302167
-5.690442E-4
-3.620433E-4
0.0028809723
0.002475579
-0.0010095821
-0.00341318
-0.0014361335
2.9503828E-4
4.2431476E-4
0.0015240355
5.469675E-5
9.2671823E-4
0.0039609484
-3.9492318E-4
-0.005080626
-0.0033212914
-4.883604E-4
4.282234E-4
-2.0305939E-4
-0.00126757
-0.0028345017
-0.0021515535
0.0015338097
0.0032163989
0.004750927
0.00694713
0.0031948003
-0.0040152753
-0.0048581613
-8.904257E-4
-6.4062784E-5
-1.9782044E-4
0.0010215808
0.001411476
0.001480854
-7.683738E-5
-0.0014491028
-0.001115496
-8.5842714E-4
5.4370175E-4
-9.098797E-4
-0.003876909
-0.0014640067
7.8889454E-4
-5.015687E-4
-0.0013957353
-3.164408E-4
1.07737535E-4
-0.002021589
-2.7519817E-4
0.0039352938
0.0024832473
-6.536473E-4
6.9539284E-4
0.004523355
0.0038123215
0.0011863777
0.0031678788
0.0019882119
-0.00274185
-0.0028245375
-0.0012314096
-0.0013709508
-0.0027370166
-0.0030558745
-0.0020106095
-0.0019177448
-2.4612888E-4
0.0022781938
0.0033515377
0.0042064744
0.0015721748
-0.0031413487
-0.0020555852
0.0013424641
-1.9722256E-4
-0.001038259
0.0014534041
0.0016600915
2.4050877E-4
-0.0015415684
-0.0013844407
9.955673E-4
4.5545882E-4
5.613414E-4
0.0011965291
1.6742678E-4
0.0016112305
-3.0668607E-4
-0.0035751238
-6.5945764E-4
0.0013031136
-6.604585E-4
-0.0027106549
-0.0011353787
0.0018325316
0.0019260951
0.0049738907
0.006388889
8.751664E-4
-4.1098444E-4
0.0026308282
0.00301504
0.0012547149
-0.0018507635
-0.0045826044
-0.0045028236
-8.5301144E-4
0.0037326955
0.006208031
0.0033252982
-0.004295557
-0.006913198
-0.0056745983
-0.006609825
-0.0043900576
-0.0023841278
-0.0032314882
-7.643489E-4
5.5797875E-4
-5.6897383E-4
8.949616E-4
0.0016153055
3.521391E-4
6.458895E-4
0.0030331973
0.005081903
0.0042060516
0.0022986801
0.0012843679
6.0787116E-4
0.00129775
0.0014526792
2.428048E-4
7.911554E-4
0.0025089781
0.0050207744
0.0067696488
0.0055863564
0.002214826
-0.0056373863
-0.010523728
-0.004719824
0.0011964187
0.0033756855
0.005083829
0.004045073
-3.2281966E-4
-0.0076706754
-0.010112032
-0.0051605236
-0.0021680216
2.9565275E-5
0.0025784874
0.0014711408
-0.0010673902
-0.0017349765
0.0019829168
0.004129496
-1.5310546E-4
-0.001194196
0.0021609487
0.0012721067
-0.0019363343
-0.0023141825
-0.0014233628
-0.0012023511
-7.081366E-4
-2.8130302E-4
-1.5796248E-4
0.0015441137
0.0034649528
0.0026508854
0.0020844568
0.0032140194
0.0015325723
-6.164842E-4
-6.156265E-4
-0.0019490703
-0.0019696988
-5.903693E-4
-9.6158904E-4
-6.0329493E-4
-8.563452E-4
-0.001598279
-8.9872954E-4
-1.4594631E-4
0.0019917854
0.0028337457
0.0014235444
0.001231697
7.594166E-5
-6.4940326E-4
2.1572727E-4
-5.5542437E-4
-9.3489594E-4
5.2099113E-5
6.627059E-4
-8.960247E-4
-0.0026406925
8.113606E-4
0.0034112623
0.0010381805
0.0016908557
0.0034981347
0.0022977402
0.0026273422
0.0036293445
0.0018511937
-0.0022814483
-0.0058598923
-0.0053700125
-0.0021628877
5.345753E-4
0.0014272094
4.5195795E-4
-0.0018366332
-0.0046787537
-0.0047793733
-0.002071605
4.7801124E-4
0.0035217153
0.0045514684
0.001982013
-8.29886E-4
-0.0034262708
-0.0040337946
-0.0015857355
0.0010973891
0.0026997712
0.0021424033
7.8854844E-4
8.673252E-4
0.0019572054
0.0031211753
0.002913599
0.002632964
0.0023444619
3.5542194E-4
-6.195445E-4
-9.2929124E-4
-0.0017949519
-0.0013200234
7.343406E-4
0.0042983065
0.0033385698
-0.0044726194
-0.008143
-0.006014701
-0.0045221383
-0.0015813893
0.0019604482
0.001427436
-1.5151386E-4
5.754404E-4
0.0010099075
7.717283E-4
0.0015663881
0.0014893973
9.090072E-4
0.0016044655
9.466518E-4
-2.1809494E-4
2.1709054E-4
-1.8303659E-5
0.0012627086
0.0037330312
0.0026172667
0.002650144
0.004688818
0.003353465
0.0032000483
0.0052348566
0.0035631529
-0.00196892
-0.007897032
-0.009559533
-0.006410889
-0.0024696216
-5.158896E-4
-0.0015343417
-0.0027956143
-0.002664211
-0.0019569783
-0.0011524133
-0.002336169
-0.0030799557
-7.32442E-4
6.219625E-4
-0.0011268931
-0.0036752864
-0.002970564
0.0012707853
0.0041085496
0.0046519428
0.004030462
0.0013972507
-5.509731E-4
0.0011705125
0.0034606697
0.005133779
0.0076796217
0.0050529945
-6.3344924E-4
0.0010843418
0.0036836374
0.0028878425
0.005703395
0.007920539
0.0040511554
-0.0046535735
-0.011547978
-0.010117907
-0.006564072
-0.004337153
-0.0023508412
-0.0029720943
-0.0018871172
8.3870706E-5
-6.8806764E-4
-1.8542846E-4
-0.0010427312
-0.0037925334
-0.0023308056
4.299285E-4
3.0496423E-4
4.0391047E-4
0.0018751185
0.0016444926
0.0014400766
0.0032943485
0.0039411555
0.004083757
0.0039988607
0.0039664363
0.006562083
0.005122052
-2.1464699E-4
-7.8183186E-4
7.9944025E-4
0.0014192574
-0.0010581674
-0.0056124628
-0.004969289
-0.00372986
-0.0050436854
-0.0046901265
-0.0041547534
-0.0013322787
0.0017463724
0.0013504968
0.001966607
0.002185598
0.0014511228
8.757006E-4
-0.0010929656
-6.193069E-4
5.7716685E-4
-1.8370074E-4
-6.3281297E-4
-2.8723042E-4
0.0026039295
0.002552792
-0.0014030589
-7.8641163E-4
-1.8575255E-4
-0.0019925002
-0.0011520869
0.0018606151
0.0061120843
0.0060584485
7.882931E-4
-0.0036295974
-0.005800626
-0.004618779
-0.0021842832
7.935094E-4
0.0040838043
0.0032199323
0.001998278
0.0012552927
0.0013475497
0.006383494
0.005776568
-5.083934E-4
-0.001062765
-7.2746055E-4
-0.00283553
-0.0043777986
-0.0034759182
-1.652021E-4
7.916844E-4
-7.0865644E-4
-0.002602325
-0.002554289
4.0313642E-4
0.001522514
0.0019474467
0.0019772884
5.964763E-6
9.014504E-4
0.0021125188
-9.2378235E-5
-0.0024042628
-0.0027095503
-0.0015511437
-0.0024888176
-0.003862843
-0.0040414054
-0.0049442975
-0.0015842661
0.003559281
0.0046791118
0.0034954727
-9.342119E-4
-0.003957908
-0.002914969
-0.0016426286
0.001152949
0.0018976318
0.001204786
0.003410634
0.0046631284
0.0065030055
0.0064949454
0.0022453791
0.0021630172
0.0033699924
0.0019163697
0.0012199329
0.0016638392
0.005013315
0.004836409
-0.0013108184
-0.002064303
2.1315407E-4
-0.0032865533
-0.009420902
-0.013131844
-0.0130240545
-0.0078559285
6.213916E-4
0.0039892644
0.0029714708
0.0032429094
-7.610661E-4
-0.005509498
-0.004314572
-0.0027069342
-5.674351E-4
0.0023415124
0.0038426747
0.0057899705
0.0062264954
0.006812404
0.008492312
0.007116518
0.004438323
-4.2377907E-4
-0.0067927307
-0.0044595697
0.0036780413
0.004907467
0.0019652054
-1.8538821E-4
-0.0035831004
-0.0046611205
-0.005189874
-0.008369176
-0.007945135
-0.0046109753
-0.0011813979
-8.683214E-4
-0.0057612364
-0.0028294711
0.0051352703
0.0055449116
0.009889557
0.015573041
0.0077456245
-0.0017926941
-0.0028725595
-0.002543159
-0.0027309302
-9.40742E-4
0.0017643387
0.0040599145
0.005009354
0.004649803
0.0022972745
-0.004068373
-0.005723601
-4.8020185E-5
-0.0033148509
-0.012562399
-0.013356576
-0.007902065
2.2049574E-4
0.0056538493
0.00872371
0.012841587
0.007918597
-0.0014371925
-0.0041834484
-0.005355492
-0.0040319692
9.970716E-4
0.0048132627
0.0038814524
-0.0015476429
1.0704186E-4
0.009757728
0.01349897
0.009893523
0.0033548526
-0.0039123157
-0.009695626
-0.018396776
-0.029016405
-0.025037576
-0.00278347
0.01294419
0.009686956
0.0039359313
0.005387141
0.007800773
0.0058573177
0.0029563473
0.0037479436
0.0032854471
-0.0012194759
-0.0034420853
3.3677366E-4
0.0071914177
0.010513444
0.0073911664
0.0021999842
-5.643576E-4
-9.1913366E-4
-2.647735E-4
-6.557673E-4
-0.0045276713
-0.006160713
-0.002379147
-0.002915298
-0.0069220136
-0.006803738
-0.0059245336
-0.004588641
-0.0020168442
-9.118252E-5
0.0025186567
0.0037093891
0.0029085884
0.0010569522
-7.8489154E-4
0.0026033276
0.0075707682
0.007889908
0.0042633023
-0.0024660686
-0.005166603
-0.001647658
-1.18261414E-4
5.3477037E-4
0.0033803042
0.0045506796
0.0020552045
-0.0023160935
-0.00556733
-0.0077440683
-0.0077210683
-0.003889106
-6.425076E-4
9.786083E-4
0.003359723
0.0051629636
0.004636025
0.0020749148
3.9518118E-4
-2.5324225E-5
5.3792257E-5
0.0012766871
-0.0014132318
-0.005953719
-0.0025529296
0.00346659
0.0048586885
0.004387993
0.0012573457
-0.0016596281
3.440137E-4
0.0017066405
7.6510746E-4
-7.0795935E-4
-0.0043431474
-0.004027062
-4.710659E-4
-0.0015419563
2.508378E-4
0.0050356807
0.004199461
0.0043667075
0.0044320174
-0.0010578255
-0.003817614
-0.003231062
-0.002442623
3.990332E-4
0.0026878803
0.0038055775
0.0027106768
-0.0033912237
-0.009554442
-0.010121992
-0.005946162
-0.001499444
-6.4801355E-4
-0.0018686049
-0.0010090391
5.088982E-4
-8.1442157E-4
-0.0013639013
0.00166003
0.0050297864
0.0063267574
0.003879069
0.0016949269
0.0039309985
0.0037249234
9.3973526E-8
-4.973137E-4
7.239314E-4
0.001606113
0.0043154513
0.0056565776
8.7995187E-4
-0.0043345224
-0.002649181
0.0014899953
0.0033758588
0.0023728996
-0.0015659727
-0.0024232173
9.767251E-4
0.0024809127
0.001605492
-3.618771E-4
-0.0038461739
-0.007137071
-0.0068510408
-0.0040324517
-0.0038622783
-0.0032195162
6.427572E-4
0.0020417213
0.0015649387
-3.41054E-4
-0.00444128
-0.0036618267
-0.0014789052
-0.004725684
-0.0049074558
2.995215E-4
0.003248628
0.0038248282
0.0038670392
0.003859351
0.005394124
0.0050889887
0.0013178665
-0.0015470533
-0.0038764628
-0.007142414
-0.009136485
-0.00916933
-0.009894532
-0.014373007
-0.016257662
-0.010424209
-0.0025843878
0.0063769035
0.014487002
0.018176548
0.019636715
0.016661732
0.013253842
0.014966757
0.019484458
0.027044402
0.029099602
0.02252395
0.017258044
0.012506332
0.00836927
0.0030327023
-0.007868608
-0.016455185
-0.023302449
-0.031689458
-0.036729686
-0.038435668
-0.04121376
-0.05161121
-0.05960252
-0.053428747
-0.046023116
-0.040822454
-0.030194154
-0.014033383
0.0061378605
0.02533033
0.0461121
0.06814062
0.085882805
0.104046986
0.11627515
0.115807906
0.1082826
0.0967022
0.08396228
0.060085833
0.014668599
-0.042007834
-0.09276041
-0.12101086
-0.13002835
-0.13839507
-0.1466755
-0.1367188
-0.104578614
-0.07721675
-0.06181188
-0.04333605
-0.025467489
9.796687E-4
0.041866843
0.07489163
0.0920504
0.096634306
0.09431844
0.10386001
0.13739717
0.1694741
0.16500948
0.1396228
0.114711404
0.090574935
0.07846507
0.049882505
-0.032841016
-0.1315123
-0.1848872
-0.18053433
-0.1670313
-0.19451198
-0.23058444
-0.2251726
-0.21335204
-0.22857314
-0.21406917
-0.12935193
-0.025602985
0.047405653
0.10599007
0.15934831
0.18504383
0.20304085
0.23428859
0.2749999
0.3321236
0.34188575
0.2535234
0.14689538
0.08231874
0.043712806
-0.017865188
-0.14302202
-0.25747424
-0.24878277
-0.1372412
-0.05236436
-0.044192456
-0.023947733
0.03697734
0.057610244
-0.006488268
-0.11961636
-0.19456442
-0.20661941
-0.22161694
-0.22993378
-0.16329113
-0.04234002
0.070883155
0.1480459
0.17607696
0.16753876
0.14906147
0.13084897
0.12360831
0.108997285
0.045767665
-0.036918126
-0.08615787
-0.118064314
-0.13793756
-0.12123954
-0.09477859
-0.07513975
-0.056730665
-0.055955626
-0.045264754
0.001173704
0.07823639
0.15947619
0.1793919
0.19213538
0.24493961
0.2098433
0.087398104
-0.026437921
-0.14622314
-0.2431004
-0.24994385
-0.17210555
-0.07286352
0.0082613705
0.08017163
0.1075808
0.07699738
0.042099394
0.021608202
-0.006113689
-0.052611012
-0.077191435
-0.07195889
-0.08011841
-0.069777854
-0.027745593
0.0057910243
0.040971514
0.0787513
0.10309799
0.12940371
0.15695983
0.14633743
0.1063788
0.08856274
0.061650917
-0.0011614372
-0.049223766
-0.07095893
-0.093709044
-0.1293998
-0.14846933
-0.13199684
-0.12056263
-0.11488986
-0.09604538
-0.0764822
-0.060893275
-0.062272366
-0.070342846
-0.064945616
-0.03804608
0.009825559
0.0211395
0.004833826
0.033528272
0.07632572
0.113581665
0.16153987
0.1743307
0.1559908
0.14838561
0.13473664
0.109940104
0.094193205
0.08093967
0.06647204
0.056267012
0.041038472
0.022896338
0.006456351
-0.015799541
-0.035404216
-0.047891766
-0.057792246
-0.058396723
-0.060076885
-0.07795013
-0.096179724
-0.09333406
-0.0740414
-0.060652662
-0.061001036
-0.06228428
-0.058211256
-0.052842587
-0.04543482
-0.038721297
-0.039567105
-0.04341178
-0.046082318
-0.047997903
-0.046336714
-0.044181917
-0.039353494
-0.027242968
-0.01456699
-5.390393E-4
0.016406827
0.033669405
0.053927742
0.071472816
0.0850062
0.09870259
0.10721785
0.111410536
0.11361764
0.108985245
0.098898254
0.09406302
0.095902205
0.09766238
0.100724846
0.08984164
0.06924391
0.069878496
0.047811653
-0.028255858
-0.09386099
-0.122727625
-0.13630465
-0.1470394
-0.1569801
-0.14732008
-0.122537114
-0.099631704
-0.0800464
-0.07270465
-0.073413655
-0.07235165
-0.065557346
-0.04672821
-0.02351055
-0.002420765
0.016969427
0.03208919
0.040974338
0.046280887
0.05508328
0.058487557
0.051037412
0.04760124
0.049748056
0.050849676
0.051304933
0.054252792
0.057020698
0.04735381
0.021989936
-0.009316288
-0.02452628
-0.015292487
-0.0018900987
0.012983134
0.028721113
0.033535436
0.034881677
0.03081857
0.016209517
-0.0075267944
-0.04060914
-0.055797536
-0.045955393
-0.034517698
-0.017319422
-6.0321495E-4
-0.0011560647
-0.010011532
-0.02233558
-0.026823005
-0.012137051
-0.0034562775
-0.016784359
-0.03483134
-0.045906484
-0.05198595
-0.058373593
-0.059892297
-0.04491709
-0.023485897
-0.0046737264
0.017971342
0.032496396
0.029058615
0.02125083
0.024123142
0.034904674
0.02816806
0.015453244
0.028393338
0.034256205
0.02111812
0.024026776
0.029775305
0.020894082
0.0058158063
-0.010331645
-0.022435684
-0.027473409
-0.007897464
0.026018342
0.037539996
0.03646848
0.028984403
0.012076448
0.0036290807
-0.008027502
-0.026550902
-0.02979778
-0.01640876
-0.004951162
-0.01400021
-0.02434007
-0.019180167
-0.021117434
-0.023500934
-0.0055275136
0.019891996
0.03546931
0.03964082
0.03562202
0.021471266
0.008178259
0.004631169
-0.005318054
-0.023622874
-0.033914346
-0.026697904
-0.008244562
0.002835063
0.0052693635
0.007311944
0.010478213
0.01732478
0.019043146
0.0062185214
-0.009691299
-0.012012508
-0.0031492566
0.0012155538
-0.003311602
-0.008977637
-0.007894268
-0.0032434254
-0.0020983403
0.0011696446
0.0051083528
0.0038388693
0.0047353567
0.006796188
0.0060971254
0.008276492
0.011310431
0.006802619
-0.0036724666
-0.007971805
-0.0036576563
0.00138508
0.0049867593
0.00442261
3.8463162E-4
0.0019914054
0.006979373
-0.0013159495
-0.023545254
-0.03172835
-0.015274184
8.4187006E-5
0.0010999816
-0.0017688145
-0.0027628476
-0.00317224
-0.0031993825
-0.0027416237
-0.0028354577
-0.0031548124
-0.0020246604
1.5227991E-4
7.974213E-4
-1.7736759E-4
0.0010744166
0.0057286583
0.009125534
0.006980676
0.004390868
0.0071412898
0.009029255
0.007459731
0.0064997287
0.008092064
0.013879742
0.014239443
0.0077038906
0.007394938
0.0035403632
-0.008978363
-0.012949321
-0.009719672
-0.008826811
-0.010073162
-0.009805007
-0.0058546173
-0.0042105876
-0.0042204526
-0.001269137
7.126098E-4
2.2723313E-4
-0.00259461
-0.0057112863
-0.007314945
-0.009364203
-0.0074342145
-0.001869816
4.9988297E-4
4.5984407E-4
-6.301429E-4
-6.4025045E-4
0.0026804288
0.006107273
0.00938901
0.012224882
0.012026801
0.011367672
0.010784347
0.007172719
0.0022716022
-0.0027152945
-0.009360801
-0.012273639
-0.0053896187
0.003313828
0.003847994
0.0012669448
0.002791804
0.0048472034
0.0014404857
-0.0059434273
-0.008992105
-0.0050925273
-7.46076E-4
-1.7051735E-4
-0.0018389601
-0.0017443963
3.832203E-4
6.6242756E-5
-0.002689633
-0.003731415
-0.0022497314
-2.4639955E-4
0.0033305418
0.0052545704
-0.0014936711
-0.006741202
-0.0028308413
-5.3891476E-4
5.7206105E-4
0.0028400326
0.0016146951
5.2938313E-4
-9.429582E-4
-0.0025883631
4.849988E-4
0.003568777
0.0028432948
0.0020704742
0.0022662766
-9.846444E-4
-0.004326878
-0.0022020722
-0.0014379113
-7.77936E-4
0.0040200944
0.006917321
0.008618455
0.0059194993
-0.001645582
-0.0032378975
-0.004338243
-0.010392169
-0.012787719
-0.009943686
-0.0044910195
1.6770928E-4
0.0014522132
0.0016061402
4.2008562E-4
-9.489731E-4
5.350645E-4
0.0023231276
0.0029603078
0.002414423
5.5406685E-4
0.0018825614
0.0033663602
9.448529E-4
0.0018945226
0.004288777
0.0052961367
0.009206983
0.010132565
0.007693286
0.0040192907
-0.0030560768
-0.004986807
-0.0025670123
-0.0026455333
-0.0014463726
-0.0013745454
-0.0055923555
-0.009117115
-0.0072997715
-0.0026420685
-0.0018576592
-0.0036868888
-0.004732285
-0.004682171
-0.0045110453
-0.006441316
-0.0062016295
-0.0034777392
-0.0033115756
-0.003237522
-0.0017800675
6.014936E-4
0.003818513
0.005622316
0.004797746
0.0027910825
0.004341492
0.0074611935
0.0074197813
0.007557284
0.007845801
0.0060082334
0.0027366695
4.7791813E-4
9.806921E-4
-7.9448905E-4
-0.0024240003
5.389507E-4
-6.193561E-5
-0.0040404056
-0.005060083
-0.003642531
-0.0010816978
-1.3992042E-4
3.961069E-4
0.0021872092
0.0025223868
0.0030351742
0.0024410365
-0.0020317317
-0.005101009
-0.0044609224
-0.0038319563
-0.0035659007
-0.0023059538
-0.0026918617
-0.0033778623
7.3526584E-4
0.0039111846
0.004838958
0.011376642
0.012214782
-5.822818E-4
-0.008290417
-0.007202183
-0.010281323
-0.011660868
-0.005315384
-4.7259446E-4
4.62642E-4
0.0017205554
0.0034665721
0.0044144103
0.0031548152
0.002867208
0.005525781
0.004225695
7.149633E-4
0.0027316585
0.0043652696
0.0019299379
0.0014997183
0.0014083578
-6.9072E-4
5.906017E-4
0.0038765462
0.0020208776
-0.0028068481
-0.0032255377
5.370229E-4
0.0018838649
3.7780142E-4
0.0027691715
0.0051228683
-0.0011311561
-0.0070954063
-0.0056740283
-0.004338121
-0.0034848796
-0.0016624546
-0.0014506587
4.5869526E-4
0.0019390456
5.334613E-4
0.0017066397
0.0018865451
-0.0013201601
-0.0023228372
-0.0033450557
-0.003575513
-3.2359232E-5
0.0019485217
0.0018787568
0.0015191786
2.199799E-4
-6.9521135E-4
-4.917882E-4
0.0019984487
0.0030338832
7.558432E-4
0.0016217878
0.0031763343
0.0028074672
0.004790421
0.0048078713
4.5057453E-4
-0.0041256505
-0.0073348205
-0.0066032554
-0.0032377383
-0.0022287152
-0.0010233647
0.0027974471
0.004153822
0.0038584424
0.005272874
0.0026920512
-0.002266818
-0.0019731913
3.517967E-4
8.088615E-4
-4.4957455E-4
-0.0013729056
-9.83998E-4
-0.002838053
-0.0034648187
-0.0016637195
-0.0017357261
4.870162E-4
0.0029119088
0.0030768192
0.004552519
0.0016928858
-0.0031530259
-0.00288654
-5.8383856E-4
0.0016603697
1.4614033E-4
-0.0034448537
-0.0026813655
-0.0014362037
-0.0017341328
-0.0016292781
-9.507745E-4
0.0016634751
0.0047715213
0.007376461
0.0114911925
0.018314892
0.018896086
0.0022659078
-0.016640173
-0.018048333
-0.008906818
-0.002129399
-5.674411E-4
-0.0021516518
-0.0024630658
-2.1848516E-4
4.745761E-4
-0.0010172065
-5.5669365E-4
4.5735732E-4
9.185874E-5
-3.5559808E-4
-0.0018506099
-0.003089487
-0.0023756537
5.9055325E-5
0.002057744
8.1783044E-4
2.9925353E-4
0.0011854884
0.0011203517
0.0026643507
0.0031981764
0.0028744822
0.0044758106
0.004854037
0.0044415984
0.002105277
-0.0011070771
-0.0010795831
-0.002144219
-0.0024354314
-1.5944948E-5
1.7125957E-4
0.0010796373
0.0018684715
4.7330736E-4
-7.486362E-4
-0.0041052164
-0.0048320494
-0.0016666201
-0.00279635
-0.002875944
0.0021702976
0.0038185627
0.0018797432
8.676242E-4
-5.9242814E-4
-0.0023410232
-0.002207527
-0.0020072972
-0.0021823784
2.8009948E-4
0.002331782
0.0016423652
0.0022071218
0.0018459047
6.431722E-5
0.001341918
0.0019021478
0.0018411349
0.0043898076
0.004493298
0.0027774754
0.0020449304
8.111569E-5
-0.0023734607
-0.0042619575
-0.004890557
-0.0045239036
-0.0030447063
-5.8457088E-5
6.163758E-5
-5.240883E-4
0.0021133795
0.002678566
7.1240455E-4
-8.62531E-4
-0.0021681136
-0.002588716
-0.002324785
-0.0012132708
5.5517716E-4
0.00217998
0.0020354365
0.0010133685
0.004429913
0.0072075776
0.0035845109
0.0015641393
0.0019038025
-0.0014015158
-0.0048850393
-0.004483494
-0.0028133565
-0.0017438649
3.25665E-4
0.0014591167
3.2659768E-4
-1.2720963E-4
-0.001224327
-0.003156721
-0.0030098513
-0.0020843921
-6.467204E-4
0.0015199787
0.0015125701
-7.244255E-4
-0.0016011988
-1.3745647E-5
0.0023227222
0.0035324795
0.0023736057
0.002633294
0.004576859
0.0015947324
-0.003038812
-0.0041428152
-0.0037407044
-0.0020762302
5.4329174E-4
0.0052723056
0.00988236
0.008203572
0.0036164832
0.0013180458
4.24226E-4
-0.0025929254
-0.0059448103
-0.0040370263
-0.003193259
-0.005738712
-0.0054249796
-0.004159931
-8.807239E-4
0.0016934853
3.880531E-4
0.0016849707
5.5353006E-4
-0.0030195573
-0.0014631877
-0.0010350753
-0.0015785092
-3.7900536E-4
-6.320326E-4
-0.0010250635
-0.0024971645
-0.0028836275
1.16023664E-4
0.0016399337
9.5930666E-4
0.0022857522
0.0072199893
0.009685276
0.009903381
0.013877792
0.010333166
-0.003736926
-0.011437443
-0.009888003
-0.004790922
5.7404285E-4
0.0019955302
0.0019587334
0.0021899713
8.5547747E-4
-3.8106268E-4
-0.0013769645
-0.00262395
-0.0020330066
-1.3927036E-5
0.0011365213
-1.8920474E-4
-0.004399186
-0.0068283444
-0.0044495175
-0.0021510145
-0.0016376801
-0.0015091759
-0.0018824415
-5.1642745E-4
0.0014465326
0.0014057785
8.384803E-4
5.5269594E-4
0.0015005512
0.0034272282
0.003933878
0.0026283395
-2.078065E-4
-0.0032273144
-0.0036334037
-9.612272E-4
0.0015841973
0.003018203
0.0058959224
0.007841432
0.007062321
0.008172706
0.008694581
7.638813E-4
-0.009859881
-0.010410213
-0.004011528
-3.913925E-4
7.5657654E-4
-6.0924684E-4
-0.0039764224
-0.0040607317
-8.9912815E-4
0.0027380246
0.0038792759
0.0010249475
-0.0016088842
-0.0022533506
-0.002804985
-0.0037207077
-0.0036220932
-0.0011435465
4.5020727E-4
-2.5176656E-4
4.275885E-4
0.001238892
-2.072971E-4
-0.0015184351
-0.0016517752
-8.6010067E-4
1.8671309E-4
5.432227E-5
1.2095193E-4
0.0010979121
0.0017472021
0.0023744924
0.002745096
0.0022593332
-2.5199496E-4
-0.003538831
-0.0018873551
0.0018944931
0.001833248
0.0022129538
0.0027718826
-7.4092546E-5
7.039911E-4
0.0069473227
0.010337439
0.011684279
0.012276521
0.0034128826
-0.008678
-0.011427575
-0.01025386
-0.0073623857
-0.0032165803
-0.0039664153
-0.0044598775
-0.0043489924
-0.0064772954
-0.0032568194
0.0023586066
0.0034032795
0.0013075972
-0.002101282
-0.002653311
-6.0638547E-4
-1.7621169E-4
-1.735262E-4
-8.2204514E-7
2.3522317E-4
0.001202182
0.0020683617
0.002820849
0.00264088
0.0017431219
0.0021009815
0.002257233
0.0014697058
0.0018901549
0.002989832
0.0030975933
0.0013925668
-0.0013711493
-0.0022096732
-0.0023270152
-0.0033829845
-0.002583851
-0.0017073635
-0.0014166445
0.0016413857
0.003395397
0.00240488
0.002208049
4.163893E-4
-8.045299E-4
0.0014562635
0.0015831009
0.0021071418
0.0066183996
0.005873463
4.823942E-4
-0.0010941521
-0.0039429474
-0.008882625
-0.008261377
-0.0065059266
-0.0071042017
-0.004048137
4.1255535E-4
0.0022085982
0.004324433
0.004751988
0.0013075998
-0.0012653879
-0.0020390346
-0.0025740557
-0.0019333164
-0.0011172855
-1.5290646E-4
0.0017606955
0.0023368474
0.0021027336
0.0037648596
0.0048445463
0.0026728245
7.289231E-4
0.0018012559
0.0019340639
-4.3736264E-4
-4.2124718E-4
0.0015144817
9.831957E-4
-4.899566E-4
-3.7236267E-4
2.5233786E-4
-0.001241165
-0.0037291178
-0.0035295312
-0.0032137088
-0.0035161162
-0.0014205183
-6.645146E-5
1.5659907E-4
-1.6020547E-4
-0.002252445
-6.170593E-4
0.0029901792
0.001987846
-1.1684921E-4
-6.9835084E-4
2.076337E-4
0.0019399289
0.0013044925
3.634384E-4
0.0010349167
4.840198E-4
-5.248157E-4
-6.558982E-4
-0.0013878992
-2.3804355E-4
0.0035561116
0.0041719233
0.004160113
0.0085755065
0.009091571
0.0020967717
-0.0046617226
-0.008012909
-0.0081456015
-0.005666929
-0.0035192876
-0.002753409
-0.0017438747
-2.5374105E-4
6.0058944E-4
2.40849E-4
-0.0011148468
-7.79618E-4
7.457921E-4
-3.7898403E-4
-0.0014094516
-0.0010197413
-0.0015229324
-6.3001097E-4