-0.0012640156
-0.001204595
-0.003710636
-0.003214741
-5.7947164E-4
6.7799044E-4
0.0031742349
0.0037636997
0.0020534934
0.002795805
0.0023363302
-6.2831794E-4
-0.003551484
-0.004875683
-0.0022284153
9.956948E-4
0.0017217788
0.0020365042
0.0028252546
0.0032240106
0.00235023
3.5318665E-4
-0.0026590638
-0.0041033193
-0.0016281793
0.0014220603
0.0034759764
0.0040420936
0.0018978997
2.9207813E-4
5.9496565E-4
-1.1988704E-4
-0.0023941475
-0.002351118
6.6986145E-4
0.0017808275
0.0012378755
0.0011540318
8.6250243E-4
9.932226E-4
-4.5316567E-4
-0.003320799
-0.0043416107
-0.004352818
-0.0033172318
-7.7098486E-4
0.0016844998
0.0029299126
0.0020568888
4.3454644E-4
-7.995688E-4
-0.0026391807
-0.003934356
-0.0028875072
-8.2895305E-4
1.8893581E-4
0.001351012
0.002905156
0.002742276
0.0022282496
0.0019128495
1.7108188E-4
-9.7005564E-4
-3.4904486E-4
0.0011796907
0.0029820309
0.0021780436
-3.8628386E-5
8.1263384E-4
0.0016026428
-3.2161828E-4
-0.0013176411
-0.0020099375
-0.0034627144
-0.0028216727
-9.986777E-4
6.477882E-4
0.0030644108
0.004062314
0.0016925873
-7.928412E-5
6.791698E-4
-0.0015037291
-0.0048838365
-0.0023306946
0.0024464289
0.004552288
0.0038509276
0.0016981717
0.002027671
0.0015626265
-0.0021893657
-0.0036195775
-0.0039837267
-0.0035865055
5.297004E-4
0.0025372482
-2.1405196E-4
-0.0026927695
-0.0013500227
9.780276E-4
-9.819333E-4
-0.003957488
-0.004479941
-0.0036960088
-1.3473908E-4
0.003158815
0.0031553372
0.0029308295
0.0028735194
0.0022709914
9.567866E-4
-8.716595E-4
-0.0016568626
-0.0011392449
8.690465E-4
0.0028890392
0.0033748245
0.0028868387
0.0012319977
-1.3428493E-4
-0.0013325348
-0.0032540893
-0.0034889176
-0.002355914
-5.624401E-4
0.0017774776
0.0031395052
0.003573429
0.0017605225
-0.0010673794
-0.002047738
-0.0036723926
-0.005548987
-0.003973585
2.3178679E-4
0.0030346212
0.0030000512
0.0026714446
0.002334159
0.0014011892
4.3097915E-4
-9.6502306E-4
-8.4490847E-4
9.864926E-4
0.0018986027
0.0024705292
0.003808241
0.003586145
-1.403787E-4
-0.0028105194
-0.0023687726
-0.003512625
-0.004776129
-0.0037383304
-0.0021391164
4.436312E-5
0.0017982454
0.0029802772
0.0026108301
3.6127843E-5
-0.0011225387
-0.002689417
-0.00558767
-0.0049986313
-0.0013777585
0.0013365679
5.596414E-4
-3.6217406E-4
0.0019377918
0.002913455
0.0019103547
2.5117406E-4
-0.001799864
3.1919728E-4
0.0034174258
0.0020993964
8.766293E-4
0.0019096746
0.0023812363
0.0023052774
0.0016863445
-0.0017659155
-0.0049491515
-0.0022511184
0.0022914035
0.0037409903
0.004298668
0.004170555
0.0019682436
-3.3592584E-4
-0.001445963
-0.0027497096
-0.00410627
-0.004343704
-0.003290464
-6.0167484E-4
0.0011802269
8.651152E-4
0.0012024804
3.1945118E-4
-0.0028229041
-0.0045366446
-0.0046477322
-0.0033588957
5.6879903E-4
0.0034862852
0.0027853437
0.0028444005
0.0040573496
0.0027818289
9.787385E-4
-6.187109E-4
-0.0021546963
-0.0016017735
1.4595772E-4
0.0022345902
3.5592564E-4
-0.00484262
-0.0022684194
0.004130662
0.0033037101
-0.001120397
-0.0033698278
-0.0022338014
2.0283455E-4
0.0022977304
0.0039997012
0.0024792983
5.117756E-4
0.0010200294
-5.865859E-4
-0.0033613048
-0.0035655722
-0.0020749653
2.5152008E-4
0.001916545
0.0019896557
0.0015213565
7.6746376E-4
8.6693384E-4
0.0010354664
-0.0022598526
-0.004675769
-0.0016221235
0.0014431984
0.0030101787
0.0032611003
7.639047E-4
6.358276E-4
0.001107464
-0.0014538467
-0.0021182606
-0.002226016
-0.0028233533
-4.074696E-4
0.0020657496
0.002117028
0.0010839745
9.3597756E-4
0.002022156
0.0011332205
-0.0016703116
-0.0032214022
-0.0027646155
-8.685654E-4
0.0011200795
0.0018741109
0.0010767399
-3.0888803E-4
-6.567976E-4
-9.134041E-4
-0.00259353
-0.003746435
-0.0026470514
-7.240364E-4
3.3826873E-4
8.106257E-4
0.0016930572
0.0021284928
0.0015315259
4.112858E-4
-0.002226432
-0.0038995529
-0.0014140434
0.0018175415
0.0037734208
0.0048935916
0.0035440521
0.0020049596
0.00316406
0.0035952376
-1.5348754E-5
-0.0038077906
-0.002230671
0.002318797
0.0030261313
-4.7671483E-4
-0.0015804383
0.0016042239
0.0030179014
1.7910957E-4
-0.0041244803
-0.0069813523
-0.0066698627
-0.0037568035
5.445032E-4
0.002800865
0.001854867
0.0015504635
2.635237E-4
-0.0022075353
-0.0019378631
-0.0033119107
-0.0058648945
-0.0028070584
7.2488695E-4
3.0902534E-4
4.726186E-4
0.0014283959
0.0025824604
0.0037759326
0.0013530911
-0.001262098
2.6758268E-4
0.0012114497
0.0012634923
0.003141087
0.0032824713
0.0013197733
8.840607E-4
0.0013873437
3.7473856E-4
-0.0011022608
-5.80542E-4
0.0012119969
0.002179079
0.001467784
7.139921E-4
0.0019727987
0.0022785028
-4.3514092E-4
-0.003227849
-0.00496971
-0.004999586
-0.0025813328
-1.641987E-4
7.9324277E-4
7.194608E-4
-2.8218425E-4
-7.2364596E-4
3.4442788E-4
2.8316133E-5
-0.0025116908
-0.0032115069
-0.0010220464
9.323356E-4
7.540913E-4
6.918649E-4
0.0022370308
0.0017488133
2.203729E-4
-4.5572722E-4
-0.0036176033
-0.0049543483
-0.0012307185
0.0026078313
0.0043501905
0.0021146045
-6.508128E-4
6.6977536E-4
2.9572137E-4
-0.0020894217
-0.002261935
-0.0029740615
-0.003285435
-3.3927095E-4
0.0025137467
0.0028321056
0.0026718103
0.0026070194
0.0017336265
0.0015023913
0.0021337806
0.0032649064
0.0039938446
0.0023864645
0.002427198
0.0041647675
0.0030236226
0.003081324
0.002507904
-0.0036782632
-0.009084942
-0.010519254
-0.008551186
-0.004392734
-0.0016195807
3.258806E-4
-1.3447243E-4
-0.0016510752
-1.238437E-4
-1.8073313E-4
-0.0013260841
-0.0015787143
-0.0034454633
-0.002623641
3.276676E-4
0.0031781048
0.006641513
0.005805875
0.0037254002
0.003358721
0.0020659168
0.0032818846
0.0036815756
0.0020601081
0.0032993616
0.0028523668
3.8311392E-4
-0.0016162696
-0.003256229
-0.002643585
-0.0037227112
-0.004519484
-9.413832E-4
5.668953E-4
8.1984355E-4
0.0022009953
0.0013811351
9.1917807E-4
6.6775555E-4
-0.0022113079
-0.005766588
-0.0071507166
-0.004135229
-4.6190788E-4
-9.0262643E-4
-0.002034944
-0.0021454075
-0.0025474383
-0.0016651258
-3.6055606E-4
3.350529E-5
1.7255073E-4
3.9215048E-4
0.0017594357
0.002403273
0.0015192762
0.0018587006
0.0016510923
7.008091E-4
0.0010509365
0.0012597818
0.0027019668
0.006490853
0.011318772
0.014070884
0.010684398
0.0054395716
0.0014251412
-0.0039563393
-0.0077898945
-0.008094454
-0.006354425
-0.005546144
-0.0059900545
-0.0023365195
7.328667E-4
-0.0019146025
-0.0030694345
-0.002628952
-0.004717834
-0.00694144
-0.007500625
-0.006264588
-0.003013321
0.001667543
0.0036838488
0.002496067
0.0044765137
0.006411388
0.0012400195
-0.0041696955
-0.0030138255
2.0579077E-4
0.0033598242
0.0076623685
0.00870232
0.0052694506
0.0014887182
-9.418644E-4
-0.0014529198
-0.002992646
-0.005228839
-0.0021496818
0.0019381981
0.001711509
0.0012001244
0.0019765804
0.0025580507
0.0011157996
-0.0020657524
-0.003980589
-0.004037531
-0.0016029357
0.0022551464
0.0038605342
0.0032307957
0.0025186525
0.0023539516
7.6671754E-4
-0.0021089807
-0.0039062686
-0.0044288556
-0.0023576592
-6.174175E-4
-0.0015163298
-4.4100836E-4
-6.3556945E-4
-0.0017414065
0.0027242273
0.004324273
6.4735423E-4
0.0013867256
0.0036649404
0.003973302
0.0048730946
0.003250191
7.0784765E-4
7.766314E-4
-0.001780557
-0.005595168
-0.006173855
-0.007278691
-0.0069038724
-0.003569983
-0.0026286677
-0.0025025858
-0.0014718636
-9.076778E-4
-7.507432E-4
-0.0030446893
-0.0063150628
-0.0063268803
-0.002994665
9.800057E-4
0.004268086
0.0065758545
0.0069448873
0.0072127976
0.0067364895
0.0058086147
0.0071587334
0.004836693
0.0028945943
0.006611359
0.0059807263
0.0048387293
0.005489227
0.004322539
0.0062689586
-5.019557E-4
-0.011800743
-0.008436863
-0.004148267
-0.004269324
-0.0014807181
-0.00361231
-0.00728156
-0.0069098542
-0.0058314423
-0.004633022
-0.0052746125
-0.007010998
-0.0062991516
-0.0026503932
0.0011314856
0.0023482104
0.0030835622
0.0037569918
0.0023448914
-7.4031654E-5
-0.0017543249
-0.0015249577
7.579566E-4
0.0043695113
0.007275901
0.006913564
0.0050587836
0.0043015494
0.003403368
0.002101277
9.2742714E-4
-0.0017934463
-0.0032485297
3.8372737E-4
0.002722956
-7.636625E-5
-0.0013390464
7.6339464E-4
0.0014616498
-3.3829416E-4
-0.0024925484
-0.004402737
-0.003553778
0.0013658587
0.0034716665
0.0024207705
0.0031792093
6.1467657E-4
-0.0044860435
-0.004568825
-0.0029087877
-0.0034863178
-0.0033902621
-0.0010164082
0.001553522
0.0017065096
7.567521E-5
-2.583908E-4
2.7955676E-4
-0.0013279514
-0.0037363858
-0.0038758859
-9.746546E-4
0.0031364453
0.004598594
0.0043252874
0.0035975664
0.0010736987
-4.0401123E-4
-0.0012372195
-0.002850148
-0.0025268947
-0.0020677317
-0.0012496652
0.00211586
0.0031013738
8.9419715E-4
5.613571E-4
0.0014053491
0.0011392944
-6.078186E-4
-0.0044312305
-0.005469056
-9.3716435E-4
0.0025252462
0.0036733926
0.0047814175
0.003495516
0.0018044348
0.0014400475
2.389005E-5
-0.0021652156
-0.0027583092
-7.8207516E-4
8.34574E-4
0.0011172349
0.0014187006
0.0018654412
0.0030100609
-1.6618869E-4
-0.005593262
-0.0041851425
-0.002266572
-0.0024973294
-5.020763E-4
-4.8424388E-4
1.6625992E-4
0.0020638548
6.779037E-5
-0.0027354334
-0.0043280805
-0.0033987425
-9.557698E-4
-6.395541E-5
0.0024799565
0.004588094
0.0035568895
0.003395255
0.004452857
0.0035062619
-0.0021104927
-0.0064078625
-0.0036936654
-3.8312477E-4
0.0014555382
0.0026072194
0.002172277
0.0034003884
0.0039381706
0.0020861926
-2.6913322E-5
-0.003281897
-0.0044777533
-0.0031073354
-0.0020448184
-1.1720339E-4
0.0012185553
0.0016345886
0.0013942621
-8.853231E-4
-0.0017849477
-0.0015730419
-0.001367144
0.0016423231
0.0027916837
0.00148583
0.0032068759
0.0033283941
4.5015395E-4
-0.0015516329
-0.0046615615
-0.0061212787
-0.003835568
-0.0015987712
0.0011029292
0.0026503613
0.0014852405
9.577149E-4
4.299667E-4
-3.3890712E-4
-0.0015526107
-0.004385653
-0.0038464773
-2.4352483E-4
9.803524E-4
0.0012774448
0.0017992328
0.0023951181
0.0029000035
5.7682383E-4
-0.002054564
-0.0027353845
-0.0037313735
-0.0015759077
0.0027528026
0.0028614786
0.0029745712
0.0041583963
0.00153824
-2.34216E-4
-7.169637E-5
-0.0010608467
7.510084E-5
0.002168791
0.002452316
0.0027811145
0.0033995267
0.002931816
6.238179E-4
-8.353795E-4
-9.56409E-4
-0.0035265803
-0.004090016
4.058016E-4
0.0026793187
0.0018065512
0.0015065556
0.0018920986
0.0029457416
0.0014878449
-0.0022874407
-0.0025077872
-0.0011825775
-0.0015512889
-9.95302E-4
-7.7596423E-4
-0.0022068939
-0.0035015782
-0.0054861913
-0.00783986
-0.00857126
-0.008665974
-0.008642255
-0.0068069594
-0.0038441287
-0.0017191038
-7.334935E-4
-0.0011995364
-0.0015140673
-2.3236079E-4
2.2789904E-4
8.910399E-4
0.0046530515
0.0089300275
0.012060044
0.014384887
0.014373151
0.012668078
0.010981115
0.008894294
0.0061793164
0.004226511
0.004474136
0.005243347
0.004322484
0.002292605
4.3626825E-4
8.219399E-4
-6.597835E-4
-0.011087421
-0.021762192
-0.021897038
-0.015703838
-0.008646175
-0.0036811053
-0.002029445
-0.0012900821
-0.0013790125
-0.0023321817
-0.0028546627
-0.003220638
-0.003481328
-0.0024870853
-9.6430455E-4
-8.1305415E-4
0.0017919476
0.007070229
0.008835392
0.009401171
0.00944268
0.0070099724
0.0070270523
0.0076848073
0.007486688
0.008549605
0.00675761
0.0042048483
0.0026180663
-0.0019772714
-0.0068094567
-0.010794056
-0.014567892
-0.015486663
-0.014148683
-0.012244545
-0.01233823
-0.013906672
-0.011600956
-0.008068552
-0.008152429
-0.008849171
-0.008740736
-0.006803688
-9.994485E-4
0.0025158764
0.001493063
0.003333805
0.0071419813
0.009513142
0.012126857
0.012644554
0.01146582
0.01178104
0.013489319
0.018069739
0.02393027
0.024710573
0.018349487
0.011869216
0.013617838
0.018101437
0.0146222655
0.007397383
0.0038565502
-5.5644364E-4
-0.006614832
-0.0069456804
-0.0033414604
-0.0014902112
-8.6668326E-5
1.6896887E-4
-0.003252298
-0.00562912
-0.004861265
-0.0061580655
-0.008509645
-0.008634417
-0.0070154383
-0.0051876055
-0.0072633624
-0.011890058
-0.016491933
-0.019443164
-0.01703609
-0.018515619
-0.026917266
-0.033225857
-0.03986405
-0.046067774
-0.051833533
-0.05538581
-0.044907473
-0.0266143
-0.008212592
0.008968116
0.018204026
0.02393049
0.027516989
0.028674167
0.026239192
0.01911847
0.02697308
0.042806182
0.058059204
0.09536861
0.12166967
0.111715615
0.098395504
0.074974224
0.04416208
0.02723496
-0.005165959
-0.05007961
-0.058787998
-0.017903877
0.03582598
0.042179357
-0.004772642
-0.05452534
-0.087329276
-0.10692984
-0.10392734
-0.08105576
-0.061432015
-0.052404117
-0.044462368
-0.04387744
-0.053864144
-0.06396517
-0.07058476
-0.06749926
-0.051819935
-0.026932856
0.0036229438
0.025820678
0.033445716
0.03008799
0.02305099
0.026256172
0.031127675
0.02350664
0.012875145
0.013595248
0.035056792
0.07009297
0.10134918
0.12213299
0.14611971
0.18571949
0.20554356
0.18058409
0.12870511
0.05517452
-0.010197504
-0.046430245
-0.09006867
-0.13939096
-0.15905657
-0.14625278
-0.121822834
-0.104578726
-0.08847018
-0.068522066
-0.0503983
-0.034172915
-0.02391628
-0.016914045
-0.015395312
-0.025528641
-0.037348576
-0.04767335
-0.049685445
-0.03938048
-0.029452872
-0.009904583
0.020462524
0.039501756
0.058584798
0.09949257
0.1469656
0.15245657
0.09866352
0.0430652
0.013292208
-0.033285048
-0.10491775
-0.16267803
-0.17270324
-0.1401687
-0.11325584
-0.10380553
-0.06926327
-0.0159731
0.028559392
0.1079204
0.21841055
0.27200127
0.24175543
0.1722811
0.13294646
0.10563497
0.009830324
-0.057834953
-0.030214753
-0.048303176
-0.11866789
-0.11342055
-0.029654656
0.060022455
0.1278835
0.16246161
0.14711152
0.1293348
0.08720557
-0.07405509
-0.23938237
-0.27474287
-0.25080398
-0.23894057
-0.2607678
-0.2733492
-0.21053942
-0.12227609
-0.042207226
0.035098027
0.076085754
0.10432514
0.13086392
0.12247796
0.093971655
0.04729672
-0.011291471
-0.05102766
-0.076367065
-0.084161915
-0.0841565
-0.089872
-0.06734132
-0.008793359
0.0799197
0.18075418
0.23079385
0.21800676
0.18701236
0.15732466
0.086889036
-0.020040333
-0.03169809
0.0345546
-0.02841993
-0.18793088
-0.22049104
-0.15101166
-0.08900519
0.031704433
0.16257484
0.21184924
0.23484254
0.19713306
0.12932119
0.09067173
-0.021282097
-0.11494937
-0.14154284
-0.24833108
-0.32393333
-0.26189995
-0.16815966
-0.13014887
-0.15011725
-0.11746531
-0.038150735
-0.009828564
0.0064581484
0.024647333
0.032119054
0.042819366
0.053905535
0.074016675
0.07777385
0.075616606
0.073682114
0.024144296
-0.016538868
-0.005493115
0.0103777535
0.03895902
0.08152266
0.09631141
0.085615605
0.092673965
0.13272573
0.150754
0.08000124
-0.060801145
-0.18044324
-0.21795201
-0.18008831
-0.11871069
-0.07521859
-0.033376366
0.006223999
0.021947527
0.0315499
0.03646858
0.042425066
0.06363583
0.061873775
0.039001286
0.036198974
0.032054123
0.0043701874
-0.026510948
-0.045729075
-0.0566734
-0.063260965
-0.05897207
-0.049091734
-0.039097246
-0.015437664
0.016189637
0.04673066
0.083278835
0.113820486
0.122296505
0.11331195
0.09843845
0.07432922
0.04227542
0.030186754
0.032085933
0.019404693
7.713908E-4
-0.012730894
-0.018470969
-0.02424092
-0.040863454
-0.053990163
-0.07042068
-0.0918395
-0.08796367
-0.083099835
-0.10594904
-0.12902233
-0.14403702
-0.15114549
-0.1399609
-0.1177131
-0.08078324
-0.030752327
0.014542372
0.056150045
0.08888576
0.10988465
0.13620922
0.15444556
0.14676945
0.13182057
0.12152013
0.112488136
0.1028371
0.09106413
0.08113197
0.0726241
0.061294574
0.05039764
0.03995027
0.026851254
0.01406405
0.003039167
-0.008689332
-0.018684622
-0.026045043
-0.03371509
-0.037772037
-0.038231917
-0.03842661
-0.03370299
-0.027366487
-0.022196323
-0.012087586
-0.0018553081
0.004900281
0.011555723
0.016262807
0.018645518
0.016698353
0.010013817
0.002656066
-0.007562103
-0.019538246
-0.029526398
-0.037714243
-0.04176185
-0.04195897
-0.039131753
-0.034115653
-0.029507896
-0.023961576
-0.018737955
-0.014651301
-0.0114300875
-0.011906633
-0.0144863855
-0.018950641
-0.024691897
-0.030338828
-0.037446763
-0.039100416
-0.03626196
-0.038479514
-0.043466486
-0.04889432
-0.053903207
-0.058011938
-0.055289675
-0.038851004
-0.024490668
-0.013765652
0.008239409
0.032356795
0.050599806
0.05915514
0.057869792
0.061993595
0.075548045
0.10203026
0.14612043
0.18794653
0.20304148
0.19190909
0.17249595
0.14185101
0.09682626
0.063942224
0.04679622
0.027995765
0.0020261162
-0.03788624
-0.0872611
-0.13246113
-0.16240829
-0.17176156
-0.1735464
-0.17711222
-0.18067287
-0.18317384
-0.18048598
-0.1716459
-0.1531678
-0.12795982
-0.10845852
-0.08753134
-0.060602523
-0.038027097
-0.016303519
0.007124239
0.029458972
0.05316413
0.07196523
0.082818605
0.09339866
0.10290316
0.10727463
0.10827168
0.10595478
0.100218624
0.09417518
0.08818529
0.0798282
0.07034511
0.062203936
0.054434724
0.0468961
0.041810956
0.038135067
0.032025773
0.02464449
0.019994691
0.015205807
0.0065235463
-0.0034287954
-0.013104215
-0.021042058
-0.024914104
-0.029698834
-0.039215304
-0.048927654
-0.05663219
-0.06273651
-0.06671017
-0.07022965
-0.071409576
-0.065874524
-0.057166018
-0.049154747
-0.040278375
-0.03161052
-0.023706546
-0.014823527
-0.0065454966
-2.0552204E-4
0.0056669405
0.011848745
0.017268546
0.021781543
0.025293538
0.026544763
0.026746636
0.027474297
0.027400743
0.02554481
0.025238736
0.028612455
0.030346224
0.029010564
0.028352277
0.02753404
0.026616316
0.025983574
0.02437774
0.022407955
0.020201659
0.019241527
0.01925946
0.018255962
0.018023595
0.01850568
0.018448047
0.017436719
0.014143389
0.010228479
0.008086076
0.0072003496
0.005306426
0.003612455
0.0043506604
0.0037303409
0.0019307693
0.002510296
0.003885623
0.0039189123
9.524187E-4
5.619058E-4
0.006065594
0.0076821633
0.006211619
0.0078070792
0.008857372
0.009021331
0.007845959
0.005889037
0.00666467
0.0074760728
0.008414652
0.011363618
0.012758866
0.010864372
0.007978318
0.006621367
0.005114054
0.0016737059
-9.0012787E-4
-0.0012769134
-4.7408984E-4
5.1978667E-4
8.254977E-4
0.001331407
0.0024142803
0.0018241819
-1.3846572E-4
-6.8855163E-4
-0.001306248
-0.002089248
-4.4420204E-4
0.0012482915
0.0022384457
0.0025909722
3.369261E-4
-0.0012637085
-9.347633E-4
-7.7397696E-4
-4.362277E-4
-3.289019E-4
2.2109816E-4
0.0012597417
0.0019440938
0.0025733234
0.0012552612
-7.914795E-6
0.0011047997
5.36392E-4
-0.0010063717
-6.832256E-4
-3.2690944E-4
1.1773602E-4
2.9002843E-4
-0.0010224512
-0.0017367416
-7.569068E-4
3.1954574E-4
-0.0012335973
-0.0045959116
-0.0051827594
-0.0040997854
-0.0029099581
-5.899248E-4
-4.0378523E-4
-9.9585E-4
-6.085681E-4
-0.002214034
-0.0036257908
-0.0075589553
-0.012512245
-0.00598429
0.0031222694
0.0021929846
0.0011994244
0.0033775556
0.0047995714
0.006145991
0.0047885277
0.0032675692
0.004998876
0.0066838358
0.008195321
0.009701646
0.0084342435
0.0038898876
4.0747567E-5
-3.677779E-4
-0.0010798282
-0.0015681828
-3.3700466E-4
-9.1363775E-4
-1.12615875E-4
0.0012292925
-0.0017690009
-0.0047588106
-0.0067906664
-0.0076317387
-0.0074997735
-0.010978136
-0.011924028
-0.008234886
-0.005602677
-0.0020612392
-8.223211E-4
-0.002970029
-0.002360909
-0.0019007057
-0.0031201385
-0.003066802
-0.0028286662
-0.0015723263
0.0023130965
0.006835957
0.0076866485
0.003729943
0.0013068344
0.0028235922
0.0024424407
-2.841544E-4
-0.0015270624
-6.1537366E-4
0.0019302029
0.002787781
0.0020947366
0.0038410325
0.0046399413
0.003194129
0.00194718
-8.286085E-4
-0.0022263105
-0.0010931396
-0.0017039328
-0.0031961696
-0.0045015565
-0.004914987
-0.0022632962
2.7266121E-4
-0.0021027492
-0.006064698
-0.004900232
-0.0010946846
9.46501E-4
0.002455096
0.0023962872
9.6923916E-4
0.0014732485
0.0014573035
-0.0027977375
-0.0062856083
-0.0043774745
-0.0018870218
-5.5455527E-4
0.0014846161
0.002215075
0.0019338892
7.344309E-4
-0.0010629541
-0.0015957932
-0.0030891155
-0.0044935644
-0.003058454
-9.015862E-4
3.7227082E-4
3.3230675E-4
3.5691628E-4
0.0015276604
9.779211E-4
-0.0021990913
-0.0044607236
-0.0035576876
-0.0015901783
-8.244481E-4
-0.0010877372
-2.9039942E-4
0.001818009
0.0021053571
0.002289495
0.0026626263
-1.8283277E-4
-9.6020225E-4
8.4769353E-4
4.0941464E-4
6.78071E-4
0.0018160059
0.0028407213
0.003060173
9.6295757E-4
-1.2849484E-4
-0.0012852323
-0.0027002424
-0.0014974467
-5.5248747E-5
0.0017247353
0.0015926549
-4.2337028E-4
0.0019835844
0.003122857
-0.0011340596
-0.0045348154
-0.0058102603
-0.0051079984
-0.0031292888
-0.0015948496
-8.9019875E-4
-0.0013974247
-5.6329684E-4
3.2295208E-4
-0.0019229278
-0.00397883
-0.0042306776
-0.0029750485
2.3010376E-4
0.0019868412
5.5505417E-4
-0.0010509936
-7.809008E-4
4.2064974E-4
4.5626183E-4
-8.0249744E-4
-9.6344843E-4
5.100099E-4
0.0024967215
0.004315462
0.0045932624
0.0054281284
0.0071877795
0.0046662325
0.0010270259
-4.5500995E-4
-0.0034786556
-0.0038795732
-0.0011989381
-8.0304174E-4
2.2395056E-4
0.002102692
0.003058897
0.002742012
-0.0013055885
-0.005301276
-0.0064091557
-0.0061994237
-0.0047610644
-0.0038924743
-0.0024475972
-4.2321248E-4
-8.6881267E-4
-0.0016766553
-0.0023667444
-0.0036059655
-0.0042530987
-0.003958925
-0.0012007613
0.0010788438
0.0014621046
0.0030332005
0.0035560327
0.0028912523
0.0017900342
-8.466736E-4
-0.0021600854
-0.0025790515
-9.915071E-4
0.0037579008
0.0051107863
0.0037112227
0.003026131
0.0011871606
3.9783758E-5
-6.3128426E-4
-0.0024897377
-0.0025887813
-2.0617864E-4
0.001541285
0.0014994176
0.002082061
0.0030334766
0.0032855219
0.0030160672
-3.5185742E-4
-0.00333374
-0.0020077068
-3.8107223E-4
8.76482E-4
-7.213615E-5
-0.003315619
-0.0021791053
-5.1433354E-4
-0.0023758428
-0.0029936887
-0.004861991
-0.0070890686
-0.0034022834
-4.4426872E-4
-0.0025125435
-0.0026736413
-0.0015171398
-0.0019691754
-0.0023896545
-0.0034471564
-0.0028809977
-2.3597345E-4
0.0015617599
0.004611398
0.0074999915
0.0071950047
0.0049897707
0.003073162
0.0037939814
0.0027356807
-9.395061E-4
-4.9806666E-4
0.0012438169
0.0014051171
0.0014833652
0.001582572
0.0029677718
6.344819E-4
-0.0050042965
-0.0070578624
-0.0077408566
-0.0058960654
-0.002009371
-9.323856E-4
0.0018288492
0.0037432609
5.0168636E-4
-9.3798083E-4
-2.2507757E-4
-0.0017797817
-0.004986039
-0.0047479435
5.403831E-4
0.0024846923
0.001010907
0.0017106414
0.0023134414
0.004025646
0.004353792
-1.0793036E-4
-0.0017767686
-8.6742203E-4
-3.3500625E-4
0.0029632524
0.0040681255
0.0015538743
5.1451096E-4
-0.0010433934
-0.0030986723
-0.0032352607
-0.0038258212
-0.0037035
-5.2447215E-4
0.0020728004
0.0025388382
0.0028203116
0.0028078812
0.0022389267
-9.0650676E-5
-0.0038402197
-0.00441111
-0.0033118771
-0.0051785544
-0.006362163
-0.0041320967
-0.001775009
-0.0010460626
-0.0016659974
-0.0025711227
-0.0040281387
-0.006319609
-0.005428837
-0.0012961279
0.001095675
0.002218574
0.0035070162
0.0037758353
0.0040189624
0.004306426
0.0031567584
0.0015676562
0.002710187
0.006296317
0.007829694
0.00736005
0.0074111773
0.007463675
0.007839073
0.007748285
0.0064933226
0.0051494115
7.1774767E-4
-0.0053048283
-0.0059565254
-0.005386763
-0.0075582247
-0.0066856244
-0.005819488
-0.0076173567
-0.0068548033
-0.0075818095
-0.009471593
-0.007660123
-0.0064346776
-0.004193462
-0.0019392491
-0.0037014568
-0.0036088172
-0.0030095992
-0.0038673345
-0.0033195356
-0.0029083684
9.974478E-4
0.006280093
0.0066747237
0.0068720616
0.0077216285
0.0073709446
0.0069642714
0.003658254
-3.6872487E-4
0.001034411
0.0048410054
0.0064260834
0.007777472
0.0070715514
0.002756096
3.4275407E-4
-8.0846454E-4
-0.002865733
-0.0041754483
-0.00598975
-0.005153347
-8.838086E-4
0.001332591
0.0025901077
0.0019437962
-0.0020938222
-0.0028937855
-0.0032009857
-0.0066662887
-0.0053545553
-0.0024851887
-0.0022200916
8.254469E-4
0.0017337387
6.0294446E-4
0.0019638052
0.0012419572
3.737001E-4
-0.0021055322
-0.0055077854
-0.002102643
-5.0270214E-4
-0.0034883893
-0.0036685225
-0.0018902489
3.974239E-5
-0.002622106
-0.003529977
0.0020497788
0.0018519762
0.0012383283
0.004850979
0.0040729064
0.0038144742
0.004265006
0.003057813
0.0033458448
0.0010579677
-0.0016426097
-6.608585E-4
0.0011158987
0.0025558514
0.0029361143
0.002237734
8.6741697E-4
1.5596856E-4
0.0010654408
-5.0074456E-4
-0.0045619886
-0.0052599036
-0.0026804234
-0.0017212029
-0.001905576
-0.0012507789
-0.0015638712
-0.0019529079
-0.0030703584
-0.005738943
-0.005307725
-0.0029331734
-7.655225E-4
0.0020660472
0.0034797092
0.0030835257
8.5318304E-4
0.0010362638
0.0037192067
0.0012484812
-9.2187285E-4
-7.901225E-4
-0.00173782
0.0014404542
0.0032765921
0.0029775493
0.0041833874
0.0013370164
6.7291217E-4
0.0013776908
-0.002017528
-0.001844097
-8.413884E-4
-8.4770034E-4
-2.4149934E-4
-0.0018196189
-4.8575332E-4
0.0015468636
7.6764595E-4
-2.7214995E-4
-0.0041450765
-0.0060082516
-0.0027136516
4.6512176E-4
0.0026863269
0.0030720525
0.0018196859
9.80046E-4
6.3174166E-4
-5.356098E-4
-0.0022931953
-0.002253347
-0.0016743917
-4.427695E-4
8.1589585E-4
-3.4735876E-4
2.973841E-4
0.0016207653
8.61084E-4
2.1361772E-4
-0.002584574
-0.004387758
-0.0015046857
0.0011443107
8.551969E-4
-3.2374304E-4
3.554507E-4
8.4060495E-4
1.1744327E-4
-3.6477318E-4
-0.0027244675
-0.003862378
-0.0015759269
7.406366E-4
0.0018306068
0.0019089737
0.0038625044
0.005415469
0.003401944
8.2159584E-4
-0.0027003728
-0.0037706355
-7.0038077E-4
0.0023676143
0.005165597
0.0034120737
-6.454517E-4
-2.600916E-4
8.488766E-5
-0.0016788343
-0.0042118183
-0.004912746
-0.0028587847
-0.0026519198
-0.0017895462
-6.2608715E-6
1.3909917E-4
0.0013087019
0.0010167018
-2.8704203E-4
-0.0015330804
-0.0036376764
-0.0016681219
0.0011452114
0.0012041769
0.0026098485
0.003543698
0.0018671147
-5.0815137E-4
-0.001966713
-0.003328896
-0.003322813
5.827736E-4
0.0024900285
0.0023098306
0.004487956
0.0037791326
0.0012076525
-6.084006E-4
-0.0044223615
-0.006439111
-0.0053191273
-0.0029814206
0.0011325149
0.004246588
0.0044444315
0.004019564
0.003955928
0.001606538
-0.0023818568
-0.0033617977
-0.0025073222
-0.0025363483
-0.0013356938
0.0016578409
0.0027438458
6.3004665E-4
-6.826838E-5
7.427044E-4
-0.0013329778
-0.003495732
-0.003767627
-0.0036211263
-7.5784494E-4
0.0018764142
0.0015270844
0.0030174598
0.0038908604
0.0021493556
0.0021923543
-2.1876507E-4
-0.0043204436
-0.0023956534
3.2080803E-4
-5.481345E-4
-7.1946916E-4
5.5502367E-4
0.0017274296
9.58124E-4
-0.0019295409
-0.0038464617
-0.0026620415
2.4857055E-4
0.0026716953
0.003764502
0.002197957
2.864303E-4
2.346755E-5
-0.0017158461
-0.0027700178
-0.0023275986
-0.003138513
-0.0015063813
0.0012633406