0.017840382
0.022923099
0.021695066
0.016752886
0.02041314
0.025008582
0.019765373
0.013998801
0.0109362975
0.0061608204
3.4761516E-4
-0.0072916225
-0.012781994
-0.010389701
-0.004447396
0.0012157164
0.0043844283
7.337088E-5
-0.0077094566
-0.012569518
-0.015605993
-0.017759066
-0.018828101
-0.01801374
-0.014382307
-0.010424562
-0.009184414
-0.009883379
-0.008505413
-0.0048099393
-0.002300888
-0.0014520099
-3.1676373E-4
0.003007794
0.005423235
0.003295815
0.0023121403
0.006330426
0.011436689
0.015021266
0.015264252
0.012280581
0.010602259
0.009429977
0.0050593885
0.002076956
-2.923709E-4
-0.00731957
-0.01110984
-0.00981036
-0.008635921
-0.0034808302
0.002170434
0.0038905954
0.0069187167
0.008819848
0.0049937773
-0.0014807172
-0.005126922
-0.0032756578
7.10382E-4
0.0032395634
0.0037298312
0.0015430796
-2.525196E-4
0.0031206189
0.004281058
-0.004324342
-0.009657015
-0.0063973
-0.006318014
-0.008089495
-0.009337671
-0.00915906
3.7983354E-4
0.0108604785
0.012270446
0.007892821
0.0031041258
0.0039044868
0.002236456
-0.0066045644
-0.010238488
-0.00851784
-0.005283146
8.456378E-4
0.0056305705
0.00314699
-0.005699411
-0.00655915
0.0011532239
0.0020481485
-0.0015255894
-0.002785704
-5.7047996E-4
0.0022774467
9.6214697E-4
0.0025920335
0.00561859
0.0011086777
-0.0071849735
-0.012649078
-0.010527415
-0.0056298883
-7.397071E-4
0.0066344542
0.008739114
0.008795551
0.009597849
0.007182364
0.008300388
0.0044046524
-0.0035935831
0.0011241239
0.0067634596
0.0078546805
0.010096727
0.0041510095
-0.0055457056
-0.009629879
-0.008915236
-0.003896618
2.4506517E-4
2.7218382E-4
-0.0023155748
-0.0051914435
-0.00481916
-0.0039733867
-0.0048034447
-0.003783876
-0.003959457
-0.008046122
-0.009226441
-0.006965323
-0.007207835
-0.006735437
-0.003504073
-0.003208807
-0.005140653
-0.0030295344
0.0043622404
0.011823473
0.014608381
0.012040939
0.006472233
0.003768612
0.0049036015
0.0052343905
0.0043501584
0.0026199706
8.9589134E-4
6.6603255E-4
5.396388E-4
0.001855224
0.0032215288
8.0789777E-4
-9.604565E-4
-9.417166E-4
-0.0022826002
-0.0021132259
-0.0025078559
-0.0054521207
-0.004736965
-0.0028836024
-0.003136217
-0.0011798675
-5.685762E-4
-0.0011526495
0.0011254576
0.0014676141
0.0022017502
0.0054002856
0.0049786614
0.0033884454
0.0041237352
0.0052456036
0.0052099735
0.0033682513
4.5109E-4
-0.0013602481
6.702172E-4
0.0019203138
-3.8004102E-4
8.225926E-4
0.0020488235
-0.0023133568
-0.006652049
-0.009562058
-0.0123146465
-0.013433602
-0.012064489
-0.010316622
-0.009611015
-0.004652854
0.003998419
0.0090528065
0.007922666
0.0027071408
9.148262E-4
0.0030452171
0.0029819505
0.004048832
0.007686922
0.008355844
0.005812078
0.005393652
0.006844502
0.0051927986
0.0036459279
0.0025934412
-7.3178374E-4
-4.6914438E-4
0.0010617127
-5.646027E-4
-3.9785192E-4
4.8916007E-4
-8.58172E-4
-0.0028688496
-0.0035626704
-0.003110586
-0.0050538257
-0.0064313426
-0.0034579094
-0.0019835462
-0.0032767968
-0.0012208272
0.00221277
6.1577774E-4
-0.0021926183
-0.0018697052
-0.0021655294
-0.0016953595
8.1684336E-4
7.2279613E-4
4.1912516E-4
0.0017685598
3.275759E-4
-0.0022703782
-0.0027042239
-0.0023070662
-0.0020723578
-0.0023321023
-0.001640051
0.0012028281
0.0032435267
0.0031368732
0.0016606585
8.654596E-4
0.0031617938
0.0041168295
0.0025803582
0.0030999344
0.002512979
5.5642636E-4
0.00120128
0.0016007768
0.0018151312
0.0020790112
-0.0015195393
-0.004335525
-0.0032908106
-0.0032736463
-8.0837705E-4
0.0032095334
0.0010496242
5.117186E-6
-2.2366353E-4
-0.0068901563
-0.0072630113
-9.7611954E-4
-0.0011167967
-0.0029270614
-0.001334402
0.0010129028
0.0016100535
0.0011849931
0.0031175234
0.0025890036
-9.393017E-4
-9.007078E-4
-2.7283348E-4
-9.108935E-4
5.4956832E-5
5.5249693E-4
-8.8106794E-4
-0.001345588
6.959718E-5
9.989516E-4
0.0014958528
9.506818E-4
-3.836612E-4
6.2920334E-4
0.0012627413
5.78482E-4
0.0010208243
7.874851E-4
0.0016214618
0.0036886304
0.0037440371
0.0037810588
0.0035321894
0.001214259
-1.9912771E-4
-1.04843966E-4
-6.832266E-4
-3.810641E-4
6.953932E-4
-7.125937E-4
-0.0013282036
2.0874618E-4
-6.729636E-4
-0.0018324591
-0.0014882169
-0.002629542
-0.004509824
-0.004615043
-0.002996309
-0.0019504073
-0.0022071588
-0.0031263926
-0.0028286332
-0.0011181103
-0.0020259442
-0.0022673598
4.476827E-4
0.0012641741
0.0022879213
0.0025068794
5.38846E-4
8.460282E-4
0.0015025799
0.0029338603
0.0040743956
0.0020323028
0.0023315006
0.004343026
0.0050951024
0.004183936
9.271409E-4
-1.3147044E-4
4.772882E-4
0.0014711197
0.0022733933
-0.001445262
-0.003450077
-6.3431915E-4
-2.9180368E-4
-0.002660495
-0.0039703115
-0.0033625094
-0.0020981533
3.0900436E-4
8.91195E-4
-0.0024411846
-0.0013335433
0.001939144
7.360803E-4
-4.1582776E-4
-0.0020940013
-0.0029950803
-4.255107E-4
7.8892783E-4
3.1385134E-4
1.15737996E-4
0.0017326156
0.004129341
0.0032961492
0.001385442
0.0013220141
0.0026144935
0.0027572848
0.0017879084
0.0030006645
0.002400202
-0.0010816474
-0.0024466456
-0.0033676948
-0.0038906515
-0.0030581085
-0.0036162531
-0.0043206587
-0.0036644742
-0.0032869428
-0.0030480372
-8.861948E-4
0.0014551524
7.3527865E-4
-7.2011765E-4
-1.2528239E-4
0.0017661385
0.0026369176
0.0013988466
7.100071E-4
0.0010841727
6.155108E-4
9.048913E-4
0.0024617875
0.0015695909
-0.0013364542
-7.1745255E-4
0.0027583614
0.0048679835
0.0054828497
0.0045069666
0.0028712158
0.0012720325
-0.0014554776
-0.0037748583
-0.0033833103
-5.040141E-4
4.976593E-4
-0.001926311
-0.0028220676
-0.0013298298
4.8635132E-4
0.001377302
0.0010063287
7.499839E-4
-0.0010406784
-0.003177607
-0.0039968607
-0.0063555
-0.007048506
-0.004414477
-0.0015289924
0.0015254157
0.0022927378
-2.9822457E-5
-0.002580305
-0.0018191088
0.0022954377
0.0017824324
-0.0022494094
-0.0025334915
-0.0012873252
0.0022501757
0.0074351314
0.008296449
0.0065794685
0.0045291963
0.0026080965
0.0018836242
0.0015663995
0.0031634467
0.00560229
0.0062122056
0.005862273
0.0036526448
-8.919831E-4
-0.0072244103
-0.0138138635
-0.014930641
-0.009247696
-0.0033290095
-0.0010263904
0.002045951
0.005012985
0.0012799248
-0.0011996254
0.0022934552
0.0018754016
-2.0543094E-4
-3.8323944E-4
-0.0022946903
-0.0017192946
9.101746E-4
0.0013113542
4.874566E-4
-0.0011526896
-0.0026236787
-0.0034175294
-0.0015882164
0.0023029994
0.003933147
0.0050084586
0.0042608664
0.0022303595
0.003534002
0.0020723613
-0.0025298707
-0.0053831744
-0.006984419
-0.0039013794
0.0014687645
0.005072786
0.006971521
0.005564412
0.004054669
9.940075E-4
-0.00287036
-0.0013358769
-6.409708E-4
-0.0010134905
0.001298913
0.0014273851
8.8295166E-4
-8.182018E-4
-0.0029563373
-0.0021740778
-0.0042873635
-0.0062727514
-0.0040072408
-0.0033289602
-0.0023270496
6.5125374E-4
0.003091023
0.0057517374
0.006496871
0.0038525027
-7.1158895E-5
-0.0029480113
-0.0030075891
-0.0020698674
-0.0013577112
0.0014082107
0.0053167003
0.0064122505
0.0031223507
-0.001273652
-0.0018900137
-1.0261182E-4
2.3789918E-4
-5.91736E-4
-0.0018559737
-0.002049008
-0.0011873728
-0.001977774
-0.0030997857
-0.0033496316
-0.0036279766
-0.0030684748
-0.001603613
-9.303146E-5
4.1078677E-4
0.0010010784
0.0034525322
0.0046255845
0.003131707
0.0014632083
1.8529319E-4
-1.5042955E-4
-3.511151E-4
-0.0017409188
-0.0010798855
0.001991653
0.003372118
0.0040273718
0.0035307994
6.723547E-4
7.7358197E-4
0.0021204643
0.0020335775
0.0031853572
0.0013784937
-0.0017202126
-0.002689138
-0.004762348
-0.005180587
-0.004956952
-0.0038291463
3.9303955E-4
4.0918536E-4
-0.0011269989
-9.5582753E-4
-0.0015546263
0.0023053552
0.0057020346
0.0036818774
0.0020638197
6.290221E-5
-0.0028411334
-0.004797535
-0.0050304607
-0.0031975198
-0.002915887
-0.002420086
0.0011334793
0.0029903294
0.002151781
0.0014063906
-6.6052197E-4
-0.0040586214
-0.0055259624
-0.0059329728
-0.005204111
9.422732E-5
0.0069588707
0.010105381
0.008937599
0.0062078065
0.0037828172
1.4859396E-4
-0.0032942852
-0.0047057797
-0.004771517
-0.0021817994
0.0033466946
0.010525729
0.014858989
0.014100894
0.013153667
0.008405318
-0.003185139
-0.010926919
-0.0116952825
-0.011204391
-0.008859566
-0.0041162255
-0.0018705996
-0.0036222183
-0.0056971344
-0.0061208718
-0.0033454457
0.0011411104
0.0024486866
9.586813E-4
-0.0026557306
-0.0076973364
-0.009368448
-0.008221562
-0.0077287434
-0.0068543754
-0.0033036266
0.00203893
0.005945299
0.009852449
0.014162338
0.013325043
0.008827798
0.0063716564
0.004991314
0.0038146332
0.0046845633
0.0067295283
0.0075074784
0.0061415825
0.0038193841
0.0031714349
0.0054607783
0.00761765
0.0050845006
-0.0010958713
-0.0055936566
-0.008386053
-0.011922965
-0.013680516
-0.01365044
-0.013693261
-0.011126504
-0.007399374
-0.005093679
-0.0023690057
-0.0023592603
-0.0043774596
-0.0018823425
6.050484E-4
-5.4445176E-4
-3.299312E-4
3.4812398E-4
6.9447E-4
0.003475595
0.007371276
0.010655001
0.012650196
0.014275208
0.01494655
0.010134057
0.002441289
-0.0023002338
-0.005713934
-0.008642248
-0.009279875
-0.007704592
-0.0038472372
5.49408E-4
0.0035810124
0.0064086234
0.008675316
0.0093501555
0.00836626
0.0046354583
-3.6594202E-4
-0.0031115874
-0.0037695002
-0.0063727475
-0.008714142
-0.0046218354
-0.0028063215
-0.0075834766
-0.005947941
-0.0019782635
-0.005256968
-0.008393952
-0.00741203
-0.002437484
0.0022445216
5.8262027E-4
-0.0027490973
-0.005343599
-0.006338875
-0.0039091203
-0.0030735247
-0.0051719206
-0.0066321515
-8.6820766E-4
0.012317438
0.02201251
0.028198676
0.033238858
0.030605078
0.018693151
0.0012972836
-0.010735155
-0.012089148
-0.009785164
-0.0053065834
-7.077337E-4
5.617916E-4
0.0010148064
8.922203E-4
-2.4038869E-4
-0.0050556613
-0.012717733
-0.014600831
-0.012109276
-0.009756465
-0.0071017034
-0.009014252
-0.013652224
-0.0131687615
-0.008788504
-0.0034945412
2.553247E-4
0.0024207102
0.008146259
0.012249931
0.0066765966
-0.0014968193
-0.0024551144
0.0037403994
0.009514139
0.011405842
0.0108380355
0.0066693737
0.0042837583
0.0056897337
0.005044997
0.00486775
0.003067438
1.8804352E-4
0.0042686285
0.0069551775
0.0052410127
0.0066173966
0.006779946
0.0013494241
-0.007455037
-0.011422746
-0.010333078
-0.0138006285
-0.014678115
-0.008971788
-0.0071086707
-0.006607239
-0.002472982
0.002039116
0.004732439
0.003997988
-3.1548855E-4
-0.0040845443
-0.00430842
-0.004265293
-0.0026785824
0.0026515836
0.005730505
0.008754936
0.014586124
0.019047238
0.020440713
0.0120342765
-1.0389102E-4
-0.0038292378
-0.009795939
-0.015710074
-0.009214226
-0.0027070309
-0.0025174564
-0.0037931863
-0.0066738143
-0.0047734044
4.9306086E-4
-0.0012575353
-0.006126187
-0.0087076295
-0.011492036
-0.010231635
-0.0034273046
2.3254132E-4
-3.6274412E-4
-7.4083154E-4
-8.767946E-4
-9.1708347E-4
-0.0013938106
1.0877159E-4
0.0057271738
0.0118144
0.019580428
0.026861586
0.02392055
0.013446261
0.0060618375
0.0063595655
0.0072150724
-0.0024161309
-0.011941071
-0.007636268
-4.1535107E-4
9.2451344E-4
-1.03830884E-4
-0.0021840432
-0.0031432172
-0.0028845526
-0.005323311
-0.009301009
-0.009957727
-0.0062074927
-8.5478125E-4
0.001714394
-0.0010404519
-0.0040779295
-0.00307502
-0.0026264065
-0.003426011
-0.002167462
-0.0018958161
-0.0033007816
-0.0035690018
-0.004252633
-0.005432478
-0.006660872
-0.010224371
-0.012731345
-0.014062506
-0.019414937
-0.02101997
-0.014591947
-0.008297588
-0.0024775646
0.001100141
6.7849224E-4
0.0025413802
0.00692015
0.013583085
0.020358836
0.025128039
0.030730592
0.029813271
0.025505709
0.02713854
0.027656341
0.02990824
0.032437153
0.026453037
0.020498779
0.014827622
0.010846487
0.013121976
0.005279358
-0.014280466
-0.031827107
-0.045828987
-0.053979717
-0.0547318
-0.050933182
-0.043551367
-0.03399963
-0.025634613
-0.022194194
-0.021880496
-0.021088632
-0.02041946
-0.020276964
-0.017864745
-0.010627372
-0.0020033012
0.00609537
0.013762452
0.016320294
0.015792318
0.015219459
0.016526908
0.026134131
0.033706196
0.031466853
0.03008978
0.028005876
0.02800855
0.036592692
0.039991397
0.040155225
0.044286117
0.036276102
0.016250897
0.001631384
-0.0030930948
-0.006897599
-0.020746283
-0.040374674
-0.05725646
-0.06808862
-0.06596555
-0.05449196
-0.041160416
-0.028175153
-0.020184102
-0.012708325
-0.0029692538
0.0038460502
0.009756699
0.01698887
0.023423767
0.023262564
0.01636772
0.011969864
0.011995068
0.01582481
0.020317193
0.020803258
0.0221181
0.021836165
0.014804672
0.006484991
0.0037625316
0.01027988
0.017206265
0.017940687
0.019613912
0.020603254
0.016905986
0.011275014
-0.0012143167
-0.018593367
-0.022799462
-0.01097538
0.0028312309
0.008733011
2.938553E-4
-0.01262095
-0.022577036
-0.040456526
-0.050036978
-0.031046238
0.00348634
0.033430766
0.041666865
0.024558917
-0.013143645
-0.05470162
-0.084241666
-0.11556256
-0.1256658
-0.101840176
-0.09747293
-0.07903014
0.00943162
0.0967182
0.13641967
0.17050926
0.21145158
0.23269217
0.22333464
0.2049788
0.18281057
0.115032114
0.0025701085
-0.10195984
-0.17748429
-0.2074314
-0.20665008
-0.20749947
-0.17502454
-0.13777272
-0.1240753
-0.058977965
0.005316872
-0.0012827918
-0.012972928
-0.005456382
0.0038840997
-0.01848978
-0.05406787
-0.04007855
-0.041728266
-0.060710955
-0.016877156
0.03974063
0.11588346
0.26743403
0.40154263
0.40830928
0.3241448
0.2522133
0.18099739
0.05671422
-0.08231379
-0.19120722
-0.24813981
-0.24922836
-0.22999157
-0.2182091
-0.19585598
-0.14525291
-0.10064348
-0.069269046
-0.053297397
-0.07407467
-0.06575009
-0.020300074
0.018876143
0.08921791
0.13259092
0.11013735
0.09150483
0.05001582
-0.0022344165
0.0109979985
0.060104046
0.073196426
0.011022294
-0.07004529
-0.09086051
-0.08893729
-0.10023458
-0.08745671
-0.04283447
0.0042708376
0.049856175
0.08696264
0.09823568
0.10133662
0.077851206
0.014819958
-0.03891059
-0.09637746
-0.13347863
-0.07923364
0.014299387
0.116585106
0.22150294
0.25941584
0.2474753
0.21255206
0.12844868
0.03709613
-0.026517164
-0.07691856
-0.11776312
-0.16471961
-0.22281389
-0.26440042
-0.28285295
-0.26349708
-0.17357029
-0.058370624
0.021126727
0.07226563
0.09607155
0.09565804
0.081991486
0.050010968
0.014374233
-0.035312545
-0.09617459
-0.107582174
-0.072085835
-0.03701836
-0.008615074
0.017273
0.039316423
0.049925745
0.04402916
0.030290967
0.012489022
-0.007803488
-0.02189999
-0.029252833
-0.030134246
-0.017573964
-0.0050928933
-0.006111675
-0.0124398
-0.015460597
0.0012976861
0.029214228
0.042488303
0.057150204
0.08173359
0.102896824
0.11869915
0.13167007
0.14615388
0.14816985
0.13441373
0.11983629
0.10262301
0.08797026
0.07286122
0.053173963
0.03734897
0.015237083
-0.010370664
-0.04051438
-0.07790033
-0.09253276
-0.08715137
-0.08273485
-0.08438103
-0.09325914
-0.08999468
-0.08221955
-0.097623974
-0.13424122
-0.18161769
-0.22503611
-0.25342548
-0.273388
-0.29161617
-0.25938773
-0.1235975
0.021482218
0.082159
0.12216699
0.17337044
0.20443775
0.21399818
0.20503862
0.19970189
0.1991977
0.18693435
0.18470421
0.18968765
0.18384454
0.17024235
0.15656048
0.15524897
0.15586382
0.15660678
0.13371038
0.026010657
-0.10509671
-0.16494098
-0.1805583
-0.1826213
-0.17620154
-0.16971943
-0.1689304
-0.18479612
-0.19529356
-0.19526048
-0.19619738
-0.1766863
-0.14196664
-0.09805905
-0.043897945
-0.0022048086
0.03918674
0.09379828
0.14119177
0.16877934
0.18416707
0.20006965
0.19708657
0.16948275
0.13853179
0.07863179
0.0022091975
-0.022463888
-0.007260967
0.020500928
0.06844654
0.09024849
0.06653794
0.02490026
-0.055751972
-0.14391531
-0.16984756
-0.16189219
-0.15195857
-0.13137677
-0.11157788
-0.09824223
-0.086301126
-0.067553215
-0.04548198
-0.02956162
-0.005789567
0.02478962
0.047075327
0.0606758
0.06412907
0.057289697
0.04819895
0.04968178
0.05364693
0.045583874
0.04164676
0.04444362
0.04301878
0.04126356
0.036423426
0.031737946
0.028934034
0.020719819
0.011647405
0.0040936135
-7.6478565E-5
-6.181797E-4
-0.0046461155
-0.009908975
-0.013210309
-0.014128141
-0.014816956
-0.019191334
-0.020876165
-0.019906651
-0.020962292
-0.020632325
-0.02002433
-0.020083424
-0.024424883
-0.0350388
-0.039569665
-0.037083022
-0.03437378
-0.030963207
-0.031258456
-0.031590074
-0.030294314
-0.036241785
-0.03906023
-0.0301158
-0.018528193
-0.0066267923
0.002692509
0.0077914437
0.01348762
0.0169014
0.015336165
0.011939676
0.010344047
0.009981037
0.006565288
0.004042494
0.0070876684
0.010323911
0.011713197
0.014403606
0.015321046
0.012974846
0.014904127
0.01932793
0.017774323
0.016153432
0.01787173
0.016980618
0.015199032
0.0134131955
0.011058534
0.011159779
0.011442055
0.011175768
0.011742819
0.0096530095
0.0062591094
0.006182303
0.007761562
0.006746048
0.0039384426
0.003949095
0.004592663
0.0018682007
-4.5321765E-4
-9.6006517E-4
-0.0015615884
-0.0010416604
-2.5270862E-4
-0.002195705
-0.005493353
-0.004868242
-0.0017316728
-0.001973711
-0.0036829782
-0.004003961
-0.0023256377
0.0010562935
0.0013343149
6.05809E-4
0.002813437
0.0039623138
0.0049842466
0.0056076674
0.0016274167
-0.0019082088
-0.0010300081
-2.2354953E-4
-0.00184788
-0.0020033915
6.691229E-4
0.0014244448
0.0010231617
0.0019517934
0.0014927696
0.0011670238
0.0019359121
0.0017797978
0.002426781
0.004054017
0.0043265605
0.0018297784
-4.3034542E-4
9.5334806E-4
0.0019268788
0.0022333527
0.0029253906
-1.1289605E-4
-0.0019555476
-3.5068445E-4
-4.5480428E-4
5.628474E-4
0.0020200624
0.0011243528
0.001747745
0.0029040747
0.0027839383
0.003272589
0.0026949008
2.3398669E-4
-9.926135E-4
-0.002052141
-0.005032837
-0.006091952
-0.00627672
-0.007973383
-0.0066137104
-0.0031881374
3.4625936E-4
0.0036221133
0.0032356356
0.0032051962
0.004494371
0.0017974238
-0.0017761779
-0.003082693
-0.0030923085
-0.0025793584
-0.0032642044
-0.0041567693
-0.0025051702
3.129389E-4
0.0012297385
0.0018832528
0.00313323
0.003108359
0.004183677
0.007496344
0.009578855
0.007560615
0.004333417
0.0022269487
-0.0036049252
-0.0072392714
-0.002583063
3.0840142E-4
0.0010918473
0.0030778816
0.0031157655
0.003112892
0.0030233203
0.005042887
0.006849154
0.0023733266
-9.819268E-4
-0.0027315486
-0.005554736
-0.0046963086
-0.00532451
-0.0072565456
-0.005762172
-0.0050462303
-0.00456601
-0.0038967435
-0.004333682
-0.0037024657
-0.0036824278
-0.0042614043
-0.0027583875
-1.5902858E-4
0.0021813444
0.0035480764
0.0036585035
0.002708107
0.002398616
0.0057362127
0.007911055
0.004279508
0.0029240989
0.0049297684
0.004543336
0.0061776754
0.0072671594
0.0028661042
-7.357455E-4
-0.0025745167
-0.0029255187
-0.0012167905
-0.002045638
-0.0033034105
-0.0024864203
-0.0025094443
-0.003309798
-0.0035885489
-0.00335469
-0.0039741006
-0.004836562
-0.004472668
-0.0040938696
-0.0025196413
5.8690767E-4
0.001997546
0.0019392493
0.0021564784
0.0015265307
8.1019977E-4
0.00238203
0.0035061091
0.0023675794
0.002471182
0.0038257982
0.003336762
0.0011249194
-1.2287982E-4
1.4383595E-4
1.4142561E-4
-9.548213E-4
-0.002508684
-0.0019451748
-1.6579407E-4
5.226696E-5
-4.0926208E-4
-0.0025094303
-0.003958955
-0.0038249365
-0.005564105
-0.0039518
-0.0010128907
-0.0020803267
-1.2589071E-5
0.0028081336
0.0030303877
0.004091838
0.0015806707
-0.001728251
-7.7495544E-4
2.1209658E-4
5.5806263E-4
0.0012645148
0.0014863039
0.0011060722
0.0010073812
6.8589434E-4
-0.0012387314
-0.0014213787
-4.954159E-4
-0.0015058623
-8.2640105E-4
7.948546E-4
6.83069E-4
1.4881916E-4
-3.3375208E-4
0.001344195
0.0039069206
0.004561301
0.0049319942
0.004686571
0.0044452916
0.004621166
0.003611401
0.0036811002
0.0034345707
3.0430223E-5
-0.0031583165
-0.0043562544
-0.0055386503
-0.0075328513
-0.006826207
-0.0029087563
-0.001285559
-0.0012652356
-0.0021514453
-0.0058157896
-0.008359128
-0.009246824
-0.008116218
-0.0055921534
-0.005806169
-0.0023255865
0.003968936
0.0052333735
0.008045491
0.010531613
0.007229938
0.0055379863
0.005229563
0.003413951
0.001475038
-7.760296E-4
-8.606652E-4
8.3592495E-5
-7.528431E-4
-0.0019189452
-0.0031054222
-0.0041131433
-0.0048071463
-0.004069005
-6.384973E-4
0.0011738205
5.623387E-4
0.0026404655
0.0052109053
0.0038752276
0.0011494275
-0.0014508349
-0.0020563016
0.0031769911
0.008883687
0.010560743
0.013064654
0.015624984
0.016625904
0.01595358
0.0058459872
-0.008530185
-0.012954622
-0.012701443
-0.013985086
-0.012483005
-0.010207721
-0.009682802
-0.009819594
-0.009296333
-0.008627473
-0.010591424
-0.010398645
-0.006784241
-0.0057020476
-0.0039182156
-8.1592385E-4
8.210857E-4
0.003568986
0.0052721566
0.004786024
0.0051944456
0.00760372
0.010181726
0.009697077
0.008360144
0.008943801
0.010392443
0.0105727585
0.008475054
0.006335058
0.0025717882
-1.2919081E-4
0.0011542892
-0.0022171435
-0.005689663
-0.0035447374
-0.0037497543
-0.003124849
-0.0021230963
-0.0049169827
-0.004746926
-0.0036358242
-0.0045981724
-0.0038532142
-0.0013983853
0.0013059753
0.002784397
0.0033575622
0.0018088154
-0.0013895889
-0.0025502457
-0.0028362912
-0.0017131756
-0.0014193597
-0.003123861
-9.061245E-5
0.0020751404
4.7984788E-5
0.0012945874
0.0017810054
-2.1422972E-4
-6.589387E-4
-9.475208E-5
0.0015276349
0.0010030214
-0.0010375404
-3.9166414E-5
5.2906293E-4
-0.001080272
-0.001583054
-0.0011590099
-0.0013589115
-0.0013587364
-5.4214324E-4
2.4237829E-4
0.0010734992
0.001712621
0.0014590146
0.0011031904
0.001739358
0.0021974724
4.690895E-4
-0.0015558089
-0.0018490395
-3.0218374E-5
0.0028481414
0.0023068462
6.0564274E-4
0.0014152097
0.0012521695
0.0012243243
0.0010724368
-0.0019833439
-0.003278133
-0.0015489717
2.1552229E-4
0.0016473213
0.0018360298
4.8967375E-4
-7.993362E-4
-0.0010541382
-0.0017580744
-0.0028376316
-0.0018345016
3.7102072E-4
0.0013112292
5.574599E-4
4.5642036E-4
0.0014733489
1.9395561E-4
-0.0017830759
-0.0011366295
7.3846536E-6
5.157713E-4
0.001985459
0.0023405508
-4.82183E-4
-0.001074994
8.640124E-4
1.3436655E-4
-3.3906472E-4
-7.125608E-4
-0.0026367346
-0.001862105
-2.2645858E-5
2.8754064E-4
-7.51896E-5
-2.5549132E-4
9.2562905E-4
7.2273606E-4
-0.0019882673
-0.0032509773
-0.0013889414
0.0010792527
0.0016799457
0.0011583288
0.0010527902
0.0026442977
0.0036179684
0.0013739773
4.4145767E-5
-3.9143713E-5
-3.1140723E-4
9.2470495E-4
0.0010609443
0.0010247818
0.0024131306
0.002355163
0.001284329
5.358137E-4
0.0012484739
0.001036835
-0.0022162637
-0.0037703407
-0.0031901854
-0.002757359
-0.0016811577
-9.5015345E-4
-0.0012013342
-9.2632964E-4
-1.353358E-4
-0.0010285396
-0.0020943386
-0.0018536524
-0.0019258084
-8.2751E-4
2.7994407E-4
1.5411588E-5
-2.5097886E-4
-2.8982878E-4
8.6187944E-4
-0.0016479496
-0.0037875995
0.002524456
0.005079987
0.003461362
0.0057686325
0.0045008934
0.0024538136
0.0025177714
6.265397E-4
2.4085217E-4
-1.1370857E-4
-0.0011939434
-0.0014515595
-0.0025725814
-0.0013743757
6.653916E-4
-2.1931008E-5
-3.2206506E-5
-2.7177882E-4
-0.0023382606
-0.002058814
-2.3664908E-4
-6.9880893E-4
-9.751834E-4
0.0011804737
0.0027365172
0.0019064205
9.394903E-4
6.0992545E-5
-0.0018445608
-0.0015305917
-1.8600478E-4
-5.706442E-4
7.850071E-4
0.0012404298
-1.2323775E-4
6.0823694E-4
-3.3349651E-4
-0.0024867242
-0.0035743539
-0.0040188315
-0.0015234621
-8.3508785E-4
-0.0025441423
-3.9844716E-4
0.0023585418
0.0015182318
-0.0012393708
-0.0021407518
-0.001051594
3.0169848E-4
0.0020344222
0.0010491258
6.0950365E-4
0.0039150734
0.005830523
0.007282338
0.006537048
0.0024262464
1.1114252E-4
-0.002427378
-0.0034150684
-0.0014013214
-5.499356E-4
7.670804E-4
3.356206E-4
-0.0022496213
-0.0016502363
5.6385863E-5
-4.972662E-4
-0.0026737961
-0.0036539887
-0.0029442552
-0.002729763
-0.0010981358
0.0025154545
0.0041172076
0.0015976841
-0.0012155621
-0.0010562844
-0.001413943
-0.0023591528
-0.0015435443
-6.442311E-5
0.001347111
7.6122006E-4
-9.5780985E-4
-0.0012573764
-3.777421E-4
7.014245E-4
0.0010420321
0.0024940788
0.0030949477
0.0018927432
0.0030990678
0.0034225588
0.002680954
0.0021564418
2.2094818E-4
7.388062E-5
-0.0040109926
-0.007926508
-0.0014884743
0.0011556669
-0.0013665372
3.714307E-4
-9.17853E-4
-0.002772886
-5.977845E-4
-3.8232765E-4
-0.0025049655
-0.0029296614
-0.0017845433
-0.0023675058
-0.0018807981
-5.5288878E-5
-0.0012026272
-6.7438744E-4
0.00169509
0.0023255975
0.004375934
0.0073438454
0.010323051
0.012343963
0.011458413
0.011269579
0.011530926
0.008580611
0.0032699974
-0.004087372
-0.011339698
-0.012256485
-0.0085079605
-0.00804422
-0.009884642
-0.010092424
-0.010240467
-0.011085028
-0.011642003
-0.010842166
-0.009907129
-0.009453303
-0.006253977
-0.0023662208
-0.0011584911
3.1556527E-4
0.0030689852
0.0050975103
0.006733392
0.009752044
0.013420556
0.015899831
0.017368862
0.019010287
0.021782286
0.021023098
0.013489998
0.005900646
8.265036E-4
-0.0029803377
-0.003182206
-0.0021522208
-0.0036156392
-0.005082376
-0.0037644452
-0.0038259756
-0.0070666727
-0.009144371
-0.011928971
-0.015828032
-0.016454779
-0.015195175
-0.013111075
-0.010330106
-0.0075423955
-0.0044890014
-0.001714821
0.0012075877
5.5709976E-4
-0.0029779403
-0.0016982415
0.0030600175
0.008321538
0.010746866
0.0075745224
0.006135326
0.007480954
0.0069299415
0.005522427
0.005964271
0.009321282
0.009432433
0.005407649
0.0048372415
0.005808996
0.004411696
0.0021961373
9.389262E-5
-0.00149526
-0.0017966428
-9.01647E-4
2.5909345E-4
0.002098566
0.0025859536
4.2227868E-4
-0.0012945699
-0.0025268176
-0.0027616834
-0.0040132245
-0.008451316
-0.009763136
-0.010356054
-0.012792129
-0.010392848
-0.007005334
-0.0046386323
-6.5425766E-4
-2.5447918E-4
-0.0026617849
-0.0029466702
-0.0018175765
-0.0011935997
-0.0015091493
-0.0025325504
-0.0025043795
4.4316024E-4
0.0011293825
-3.2566878E-4
0.0028944244
0.004274394
0.004118477
0.010804357
0.015453345
0.014565656
0.013925372
0.012758538
0.012329598
0.010873624
0.0068158405
0.00406974
0.001161205
-0.002686451
-0.0055932
-0.007368398
-0.0073885666
-0.006928025
-0.0062361453
-0.0051575266
-0.0050272755
-0.005987513
-0.007893887
-0.007205042
-0.0049902485
-0.008487993
-0.01348485
-0.013178466
-0.009339669
-0.0039505796
5.769758E-4
0.0028539742
0.0026137189
0.001837909
0.0049799783
0.0076895007
0.0066533405
0.0063057328
0.006288494
0.0063633127
0.0055106357
0.0027450374
0.0036263014
0.005709176
0.0050708186
0.0060233395
0.0061579724
0.0035109576
0.001225128
-0.0024344553
-0.00560466
-0.005353182
-0.0057582334
-0.005834761
-0.0028556234
-0.0012814199
-0.0010482732
7.6045806E-4
0.0020294874