-0.0034810004
-0.0033257594
-0.006161393
-0.007399266
-0.007610074
-0.0044230195
0.0020361254
0.0050664213
0.005865994
0.0068687103
0.0061040316
0.0035116777
0.0012669789
-4.454215E-4
-0.0024285398
-0.001683332
0.001303059
0.0028288201
0.0025248711
0.0019221365
0.0031473103
0.0018445431
-0.0024228606
-0.0033814854
-0.004489203
-0.0040013157
0.0019012098
0.0051952475
0.0048189317
0.0030769361
2.3712797E-4
-0.0013300196
-0.0034778058
-0.0047208867
-0.0029918842
-6.337921E-4
0.002441734
0.0045407386
0.004254214
0.0030193904
0.001688629
8.14434E-4
-0.001489829
-0.0047370945
-0.0056149857
-0.0050182343
-0.0026405074
0.002094835
0.0037712082
0.0029022172
0.0041275984
0.0030252463
-2.7505436E-4
-0.0019513925
-0.0042105247
-0.0025014216
0.001999398
8.62914E-4
-3.827197E-4
0.0011692944
9.500635E-4
5.036559E-4
-7.37677E-5
-0.0031380774
-0.0063340175
-0.003614516
0.002706078
0.004581424
0.0032918314
0.0012654071
-4.838244E-4
3.8869475E-4
5.1813695E-4
-9.96353E-4
-0.0013547627
1.2003308E-4
0.0037573457
0.006295418
0.0052316156
0.003863491
0.0044767107
0.003819811
-9.28734E-4
-0.006796825
-0.010001737
-0.008247779
-0.0028099334
0.0020006034
0.005442099
0.0062151467
0.0024936143
-0.0034247271
-0.008016101
-0.008933978
-0.008909049
-0.008173602
-0.0025775582
0.0035728535
0.005645983
0.004743566
0.002389441
0.0017638406
9.4745745E-4
-0.0027687585
-0.0035597936
4.9420446E-4
0.004519946
0.008004384
0.010717144
0.010261624
0.009137124
0.007614431
0.0034730583
2.5021902E-4
-0.0030464188
-0.0071514156
-0.0052151815
1.7007151E-4
0.0025285638
0.002884152
0.0023728705
0.0022053162
7.978468E-4
-0.0040703453
-0.007883556
-0.0072097066
-0.0034167392
1.690875E-4
0.0011943267
2.8442685E-4
-0.002926141
-0.005944282
-0.006847607
-0.009937164
-0.011421016
-0.00617905
4.692793E-4
0.0059370566
0.008141851
0.0054009994
0.002883146
0.001286428
-0.0013423638
-0.004513664
-0.0059744264
-0.0012765789
0.004902346
0.00791907
0.011469966
0.0121174045
0.009133736
0.007990854
0.005798339
9.888145E-4
-0.0034388094
-0.0048894444
-6.309714E-4
0.004014447
0.0031855844
0.0014406552
0.0014925327
3.63698E-4
-0.0025428475
-0.0055523533
-0.0071134935
-0.007327113
-0.005841063
-0.0011901556
0.0027179786
0.0013855747
-0.0018779618
-0.003968397
-0.0062442985
-0.009319799
-0.011681041
-0.010493195
-0.004728383
0.0026690622
0.0065502743
0.0054758196
0.004538672
0.005122788
0.0038768407
0.0018734168
0.0010263072
0.001929478
0.0049429447
0.008381156
0.010512096
0.009469812
0.006509042
0.004439683
0.0012305381
-0.0023748453
-0.0040020742
-0.0038729042
-3.4629603E-4
0.0026790253
0.0013182071
-7.8546503E-7
-5.5633235E-4
-0.002166853
-0.0044648927
-0.008028458
-0.011837082
-0.0130028445
-0.009481681
-0.0034399843
0.0016084885
0.004522855
0.003792055
0.001293749
5.325706E-4
7.53064E-4
5.806682E-4
0.0010166025
0.004165721
0.007725552
0.008384601
0.008054661
0.007923222
0.007474206
0.0053326827
0.0013566146
-0.0015491454
-0.002699095
-0.0011468172
0.0012394377
0.001271025
0.0024959364
0.0020713191
-0.002848869
-0.005212604
-0.006959504
-0.011544493
-0.012786095
-0.009768951
-0.0059669106
-0.002304501
-6.44862E-4
-0.0011818949
-9.6654816E-4
-0.0013562276
-0.004947496
-0.008656103
-0.009294243
-0.0052413037
0.0021837694
0.007429211
0.009737379
0.01118281
0.010776936
0.008732229
0.0064625484
0.004563003
0.003510472
0.004636128
0.008360096
0.011506843
0.010673662
0.0067440355
0.003900441
0.0032742508
0.0010102786
-0.0037101773
-0.0048475675
-6.1212777E-4
0.0017594161
4.6999118E-4
-0.0018032818
-0.006483586
-0.009990144
-0.010271494
-0.01203857
-0.014086778
-0.014591648
-0.0143521745
-0.011744772
-0.007442422
-0.0033944848
2.8439144E-6
0.0020101324
8.354531E-4
-0.0022713454
-0.0039200075
-0.0043456024
-0.001030285
0.0057300893
0.008784257
0.010361691
0.011389849
0.007693219
0.0057068076
0.0063927313
0.004146222
0.0027715315
0.0054403204
0.008020498
0.006052567
0.0033435884
0.004416691
0.005181665
0.004809172
0.0026473
-0.0016364425
-0.0011167445
0.0010842321
7.6648034E-4
0.0027773452
0.0043044607
0.0028308886
-9.780357E-4
-0.0064445613
-0.009418376
-0.012234299
-0.013711431
-0.009225166
-0.005243085
-0.0043710247
-0.0031734044
-0.0013426831
-0.0013583727
-0.0054019154
-0.008123231
-0.008284259
-0.008254679
-0.0043256055
1.6299864E-4
0.0016590076
0.002280807
0.0012608777
0.0012469676
0.0030353153
0.0020632425
-7.158682E-4
-5.1621394E-4
0.003599446
0.008344726
0.010509423
0.009163253
0.007076862
0.005603396
0.0027267297
7.0216245E-4
1.9988015E-4
4.9765466E-4
0.0027378208
0.004568226
0.0064411396
0.006467691
0.0036118282
0.00368268
0.0017389795
-0.004306757
-0.007149677
-0.006987699
-0.0037362527
4.7124893E-4
0.0020885912
0.0013501843
-0.0027518286
-0.0062446147
-0.00722185
-0.0077358605
-0.010138341
-0.014179797
-0.010421931
-0.002644194
0.0015748601
0.0063394173
0.0067576207
0.004108867
0.0013655284
-0.0027845046
-0.0012357121
-0.00423311
-0.010376581
-0.0019398001
0.0043562446
0.0015524089
0.004089979
0.0064686015
0.0053706737
0.0035349766
9.228245E-4
9.1372133E-4
0.0030754746
0.005940383
0.007903759
0.006433238
0.0023378704
-1.17646305E-4
0.0014010259
3.747695E-4
-0.0039610052
-0.0035410952
1.3134869E-4
0.0028181104
0.0046396237
0.004951231
0.0048852325
0.0049390057
0.002965789
-0.0020326287
-0.0074018505
-0.0087925
-0.007234251
-0.0065753795
-0.0054662796
-0.0033449577
-0.003697473
-0.0049561667
-0.004432515
-0.004658754
-0.005859295
-0.00649665
-0.005648743
-0.0018620848
0.0016558875
0.0024891628
0.0033301061
0.003810801
0.002679548
0.0011736563
-0.001129071
-0.003427591
-0.0023143524
0.0019899965
0.006150911
0.009180071
0.010422302
0.008501666
0.005319486
0.00238181
-0.0011096944
-0.0032555321
-0.0023120234
0.0013416032
0.005700389
0.0056584724
0.0013900977
-0.0010032082
-9.983719E-4
-0.0017694287
-0.00354675
-0.003968574
-0.002651441
-0.0010459768
0.002117338
0.0046909433
0.004000385
0.0037834847
0.0033809845
2.0316968E-4
-0.004052126
-0.009055608
-0.011530009
-0.008901663
-0.0053578857
-0.0033278652
-0.0027107454
-0.0032831505
-0.0029714056
-0.0018376233
-0.0033616042
-0.0065821633
-0.005130507
6.08361E-4
0.0040893066
0.00472192
0.004995556
0.0050332793
0.0046779555
0.0024163201
-0.0015335467
-0.0025477973
-3.992531E-5
0.001935392
0.002976029
0.0038617474
0.003206863
0.0019071435
0.0023946317
0.0027308427
-8.51893E-5
-0.0019189025
0.0012512925
0.0065866946
0.01033241
0.008352836
0.0023836414
-6.775823E-4
-0.00335748
-0.008281495
-0.011370618
-0.011997501
-0.009255471
-0.0028920989
0.0023502267
0.0041093803
0.0046390914
0.0061770575
0.006834172
0.0030253597
-0.0038139583
-0.009952634
-0.013116561
-0.010513909
-0.004451462
-9.6898526E-4
5.358094E-4
0.0015048365
0.0016462087
0.0016470487
-2.6013207E-4
-0.001095643
0.0021272397
0.005533002
0.0072338344
0.006347128
0.005422122
0.0054916623
0.0021358966
-0.0013497807
-0.004817555
-0.009885618
-0.009446051
-0.0046143346
6.7573745E-4
0.004704695
0.0034074013
-4.5877596E-4
-0.0040456154
-0.006030802
-0.0058075185
-0.007449255
-0.008861765
-0.006358177
-0.002153411
0.0018780367
0.004410413
0.0058584395
0.007763962
0.0079380935
0.0042115706
0.0019330409
0.004727919
0.008985474
0.013617208
0.014057404
0.010552782
0.009556772
0.002226117
-0.0075289896
-0.0054676784
-0.0038099529
-0.006766653
-0.0041262647
-1.0754285E-4
8.362149E-4
-6.802274E-4
-0.0025999134
-0.0040550446
-0.006621651
-0.0074850447
-0.0069815367
-0.0053705024
-0.0013913248
7.439475E-4
0.002343221
0.0041212193
0.0027187862
2.1995085E-4
-0.003922569
-0.008588647
-0.0102348635
-0.011291201
-0.010772273
-0.007797124
-0.006315722
-0.006603278
-0.0066612796
-0.0036596484
2.2102761E-4
-0.001875071
-0.005809807
-0.0052767172
-0.002405789
0.0036485812
0.011436444
0.014662499
0.014713383
0.01542996
0.01660029
0.017753243
0.019141061
0.02221259
0.026682066
0.02799077
0.02388891
0.017582253
0.0090801595
-0.0035526752
-0.015674606
-0.023482183
-0.026040792
-0.023281345
-0.018999062
-0.012953641
-0.006248502
-0.003829228
-0.0044969874
-0.008630937
-0.014418456
-0.018254617
-0.022710117
-0.022391211
-0.015454257
-0.010547251
-0.0066075134
-0.0023192826
2.9986586E-5
0.0029571776
0.0055408427
0.0068854885
0.0077363676
0.007346779
0.00943207
0.012869396
0.010835151
0.008476781
0.010568204
0.009513077
0.0048888344
5.7384366E-4
-0.004232007
-0.0045217443
0.0018819845
0.008810029
0.012442759
0.012465032
0.011846895
0.013334649
0.013791171
0.009439666
0.0033528393
-6.92356E-4
-0.0032835125
-0.0024780894
-3.0952063E-4
-7.275874E-4
-0.001534924
-0.003994922
-0.0057698563
-0.009407617
-0.021555854
-0.024352029
-0.013385812
-0.0077680857
-0.0056768334
-0.003044804
-0.001469267
0.0013825821
0.0016787164
-4.0681818E-5
-9.964799E-4
7.8575534E-4
0.0054302993
0.006932791
0.0060998
0.0038617644
-1.1332199E-4
-0.0029386098
-0.0064140065
-0.009247361
-0.012933905
-0.016734637
-0.012918207
-0.008813822
-0.007289944
-0.0028331256
-0.001317772
2.0278792E-4
0.0036051937
8.4333116E-4
-0.002234516
4.903687E-4
0.005067956
0.010639227
0.015952902
0.017364815
0.016460039
0.019120267
0.02408208
0.023173327
0.018355716
0.018576162
0.02188806
0.022869185
0.020866837
0.014038206
0.00419776
-0.0066573434
-0.019280937
-0.028520484
-0.03444188
-0.039307974
-0.03743188
-0.030918809
-0.023790479
-0.015314118
-0.009126974
-0.00429132
-1.9179416E-4
-0.002498515
-0.0086094085
-0.010123058
-0.004173145
0.003560729
0.005622639
0.0045991307
0.006886279
0.011222865
0.012928892
0.011597683
0.009721449
0.008412659
0.010260702
0.015300969
0.0172091
0.015465317
0.011688309
0.0037197287
-0.0030088169
-0.00561049
-0.009271754
-0.012274085
-0.010927487
-0.00659711
-0.0027330073
-2.8020857E-4
0.0031172894
0.0042438563
0.00196088
-1.6434776E-4
-0.0029775454
-0.0024101508
0.0023818656
0.005527887
0.009081228
0.0125390375
0.013581729
0.013418729
0.011772913
0.008778366
5.13332E-4
-0.007865166
-0.009893544
-0.013919794
-0.012707391
-0.0029218176
-0.0020201285
-0.006706123
-0.010159868
-0.015162532
-0.015616591
-0.0118402485
-0.006711642
2.458796E-4
0.0048918505
0.005023465
0.0016101428
-0.0014808731
-0.0021004053
-0.0018856057
-4.4016223E-4
0.0023560757
0.0050911303
0.0042639733
0.001990591
0.0064926334
0.01531286
0.022654915
0.026863856
0.022570835
0.008409327
-0.007869344
-0.018589081
-0.023887258
-0.02460005
-0.021759281
-0.022700343
-0.024157804
-0.021296587
-0.023624359
-0.026755398
-0.018160434
-0.0027761105
0.011290078
0.020189956
0.022620687
0.023224039
0.024717964
0.02479816
0.023473801
0.021197787
0.017211903
0.015549859
0.016691897
0.016957937
0.01776009
0.016776642
0.015988195
0.020627478
0.01922305
0.008682786
2.7557366E-4
-0.0072787954
-0.014808181
-0.020294847
-0.02859039
-0.037464388
-0.042694997
-0.043467034
-0.03516944
-0.021310277
-0.011006313
-0.0022209575
0.00914212
0.020117823
0.026279397
0.0246218
0.01811875
0.012683485
0.008266458
0.001990572
-0.006692763
-0.013973718
-0.016914373
-0.01896841
-0.021240508
-0.02372387
-0.028521102
-0.031627856
-0.03178668
-0.034309223
-0.03640027
-0.030722303
-0.019731285
-0.011298032
-0.005319368
0.0024970076
0.010191075
0.013943266
0.018852284
0.03455439
0.053161502
0.060466092
0.06539569
0.07703
0.0876509
0.09056201
0.0836781
0.073600784
0.06793773
0.060185373
0.043105774
0.024034217
0.013615183
0.0072100004
-0.0027345922
-0.016003499
-0.030250415
-0.03687113
-0.04100965
-0.05341293
-0.066165514
-0.08249225
-0.102114476
-0.10783058
-0.103682384
-0.10081452
-0.102731764
-0.105716296
-0.1022416
-0.10081474
-0.10286785
-0.10196185
-0.09463703
-0.07141215
-0.04650492
-0.030882692
-0.010817776
0.009616527
0.036476746
0.084517024
0.13565028
0.17557229
0.20346409
0.21305782
0.21022037
0.199371
0.17577891
0.16179585
0.17507993
0.18851133
0.1857462
0.16329658
0.10680717
0.038432837
-0.012694385
-0.056482572
-0.10358244
-0.14973821
-0.18802029
-0.22168776
-0.2557947
-0.27446815
-0.2589472
-0.21247375
-0.15914306
-0.10818634
-0.054999374
-0.022561159
-0.016769713
-0.023514872
-0.04892566
-0.06514017
-0.044462815
-0.009227289
0.027685361
0.05832728
0.08094766
0.108705394
0.12855156
0.13577703
0.14089505
0.13318713
0.109134495
0.07396611
0.031516466
-0.0058686803
-0.031607028
-0.04573602
-0.042628136
-0.020667048
-0.0019788712
-0.0010343773
0.004019533
0.02412659
0.05667271
0.09576563
0.108717725
0.08548657
0.05279055
0.028616004
0.017311623
0.010030797
0.0037886377
-0.0023380236
-0.025051128
-0.06179765
-0.100811265
-0.14116995
-0.15468498
-0.105917014
-0.024561755
0.025006086
0.040511042
0.05750392
0.07800893
0.084521174
0.06944586
0.03848733
-0.009910949
-0.07092385
-0.12216178
-0.16678323
-0.19497481
-0.17559896
-0.120329216
-0.04828726
0.020021956
0.05535498
0.06801653
0.07713016
0.0782963
0.05142528
-0.012022968
-0.06997751
-0.07905442
-0.045670383
-0.0033018405
0.027588481
0.059509713
0.10314932
0.1501596
0.18673424
0.20439807
0.21421982
0.21177953
0.17485212
0.10474523
0.014936714
-0.06715177
-0.10984828
-0.110622235
-0.09073088
-0.081774905
-0.08181975
-0.060970165
-0.034605566
-0.033511527
-0.057865947
-0.09988624
-0.13513793
-0.13181946
-0.09380505
-0.056599956
-0.03761034
-0.014837062
0.0058831307
-0.019930465
-0.064605
-0.057213545
-0.008857851
0.039065488
0.06908438
0.04786605
-0.013418449
-0.046855412
-0.03466155
-0.002164913
0.04543302
0.10708347
0.14832646
0.13112628
0.08644507
0.05983339
0.046441335
0.049548462
0.059469763
0.04483046
0.018506415
-1.2445106E-4
0.007214944
0.054860394
0.100490026
0.10539056
0.05638743
-0.04018464
-0.11897524
-0.14948994
-0.15422782
-0.1250955
-0.091813274
-0.10366903
-0.121397346
-0.09434167
-0.043635115
-0.008614177
0.0053004813
0.005472051
-0.013660433
-0.036459003
-0.027741084
0.010125772
0.047711946
0.0739645
0.09060767
0.09719799
0.09947587
0.09680916
0.071605854
0.027702378
-0.009909018
-0.030528465
-0.025020862
0.002386253
0.022795532
0.028119987
0.025697842
0.012561432
-0.004614878
-0.016753217
-0.028258853
-0.03865218
-0.041777
-0.042134605
-0.038841892
-0.02265341
-0.0031347782
0.006659912
0.009442621
0.008947198
0.007274815
0.005850852
0.0061055855
0.008565475
0.009504216
0.008088362
0.003094859
-0.0048262924
-0.010835649
-0.015702087
-0.019385353
-0.021268364
-0.021337459
-0.014649923
-0.0027248675
0.006365765
0.010303896
0.012927757
0.015314363
0.013589888
0.008078934
0.0022776579
-8.3072955E-4
6.027097E-4
0.0033209135
0.003159526
0.0011709376
0.0021405052
0.005361435
0.0061904136
0.004990025
0.0032712147
0.005002392
0.010500966
0.012608932
0.011654213
0.009686128
0.0062051937
0.0017475098
-0.0043653394
-0.007347916
-0.00781432
-0.011189507
-0.0132057145
-0.011444389
-0.0082952585
-0.0058785346
-0.0037543671
-4.6429032E-4
-3.6138098E-4
-0.0042230203
-0.008372323
-0.0069335136
0.0036479142
0.011634736
0.012968188
0.016661163
0.017879944
0.008616191
-0.0049338825
-0.010700654
-0.00792882
-0.004002971
6.1013264E-4
0.0051702983
0.0082771
0.011576346
0.013399729
0.0116818175
0.004302791
-0.007942844
-0.018959638
-0.02275109
-0.016556785
-0.0066456413
-6.0054834E-4
0.0020227258
0.0025374354
0.0017658077
-0.0011010482
-0.009046736
-0.016232243
-0.013493849
-0.0046647447
0.0052847215
0.015312457
0.017135292
0.012347211
0.009006774
0.004206196
-0.0021924751
-0.009186159
-0.013120484
-0.010317723
-0.0094144875
-0.007975448
-0.0015305777
0.0020432083
0.00393646
0.003694204
7.7870884E-4
0.0023712625
0.007954967
0.015702995
0.023499636
0.023961041
0.011847557
-0.005045388
-0.012254629
-0.0128896
-0.013914932
-0.01379461
-0.011620942
8.2988605E-5
0.02037643
0.03678823
0.042850215
0.03478596
0.015431679
-0.010092248
-0.03534447
-0.04588653
-0.039738953
-0.026806187
-0.012876966
-0.0045395875
-0.0041159545
-0.0027771941
0.0025065544
0.0021209521
-0.0052660885
-0.013108719
-0.017192872
-0.0110283
6.869897E-4
0.0065719928
0.007553927
0.006467674
0.0051073134
0.0063360827
0.00798489
0.006914161
0.0056111505
0.009747017
0.017299239
0.023534967
0.028820915
0.031445667
0.029687608
0.021638054
0.0052504
-0.0124221705
-0.020553619
-0.017519599
-0.011348228
-0.008987536
-0.0140551245
-0.023393972
-0.02476591
-0.017553754
-0.011462924
-0.009728378
-0.010771368
-0.0069110943
0.0037827783
0.012203834
0.014215059
0.011450529
0.009345224
0.008590562
9.771655E-4
-0.011722025
-0.01749116
-0.011945991
-0.0039332416
-0.0022819391
-0.0021882416
0.0023246845
0.0073942496
0.010352748
0.010511913
0.0047208425
-0.0017549726
-0.0016703184
0.0029048757
0.008762445
0.008451343
0.0014662025
-5.775184E-4
1.7985013E-4
-1.759147E-5
0.001042619
2.2434596E-4
8.82024E-4
0.005782987
0.0156101165
0.024683313
0.022702426
0.022183737
0.023038954
0.0057908124
-0.017500006
-0.028372025
-0.027918663
-0.022203408
-0.017477343
-0.015997987
-0.018017655
-0.018336836
-0.014406815
-0.013627304
-0.014908413
-0.010776325
-5.483731E-5
0.011900183
0.018596707
0.019511702
0.017255744
0.014190645
0.010480378
0.004957069
-0.0019998716
-0.007565375
-0.009067626
-0.010160026
-0.0073299985
0.004801658
0.013764263
0.015147475
0.016249485
0.014588318
0.009054882
0.005977802
0.010029271
0.014883546
0.014333442
0.011781646
0.0043673627
-0.0072169537
-0.0142802335
-0.017423313
-0.018041637
-0.0148838265
-0.009872261
-0.0049317763
-0.0022847324
-0.0032349152
-0.005503799
-0.006270005
-0.006126268
-0.005339507
-0.0068957903
-0.012648809
-0.012041719
-0.0035656125
0.0026835054
0.005855262
0.0055471393
0.003531848
0.0045193736
0.004319895
3.1959577E-4
-0.0041525215
-0.004624394
0.0019913767
0.010883817
0.012946472
0.007465577
0.0025938314
0.0018475822
0.0017966757
-0.0022174134
-0.008223532
-0.0061718277
0.0016635604
0.007814679
0.014383387
0.016382823
0.011643838
0.007733414
0.0046954746
0.0014786876
8.8556024E-4
0.0051734643
0.013396794
0.017856438
0.013250617
0.0055787475
0.0021978328
-0.0025574134
-0.014723704
-0.027021566
-0.033047196
-0.030475045
-0.020846324
-0.013842061
-0.011475319
-0.0085359495
-0.007504878
-0.009624679
-0.011925249
-0.015456858
-0.016102582
-0.007940535
0.0021631834
0.00861841
0.013909517
0.017264057
0.01827525
0.016904678
0.012161282
0.0068860026
0.004673001
0.0074708746
0.012546088
0.015675716
0.017134873
0.017125288
0.014761502
0.008182595
-1.9974312E-4
-0.0030849164
-0.0043967348
-0.008248749
-0.005410583
0.0042730584
0.010461069
0.010576053
0.007215101
0.0013201428
-0.007822226
-0.01877719
-0.027861314
-0.030715415
-0.02232358
-0.007335146
0.0029190197
0.0068190983
0.0066422806
0.0025270442
-0.0040961886
-0.011945499
-0.017346585
-0.017058598
-0.011451576
-0.0038720781
-8.8834256E-4
-0.0016673215
-1.1201101E-4
0.0024199025
0.003418234
0.0032037136
0.0035762645
0.00952406
0.021070516
0.027286641
0.02094434
0.010943819
0.005281684
0.003384852
0.0044959933
2.0645927E-4
-0.010328654
-0.01114074
-0.0017517663
0.007264826
0.012875945
0.010075163
0.0034720828
0.004680084
0.007389591
0.0014096352
-0.008269104
-0.01167595
-0.007235161
-0.0033681728
-0.005943045
-0.009789067
-0.0089422995
-0.0056943335
-0.005754837
-0.00928441
-0.011754411
-0.011157461
-0.007199346
-7.515425E-4
0.003819355
0.004779648
0.005237385
0.0047358223
4.2509882E-6
-0.006482744
-0.010541853
-0.008701937
0.0018259729
0.013690946
0.020299207
0.023001581
0.019085491
0.011708658
0.0066500874
0.0012392678
-0.0042475755
-0.0076654116
-0.0059119915
-0.004051219
-0.010762834
-0.01119326
-0.001292357
0.0020402549
6.3571165E-4
-0.0025238167
-0.0075867055
-0.008208447
-0.004741574
0.0022674955
0.007543688
0.007150594
0.0063010324
0.005806133
0.0049253204
-2.1336033E-4
-0.005058198
-0.0011309361
0.0033343148
0.0104714995
0.01936809
0.01718219
0.011341435
0.0010833066
-0.013680638
-0.0181687
-0.019467298
-0.01874383
-0.009492841
-0.0013850774
0.00540368
0.008689934
0.0032509542
-0.0010029505
-0.0018587974
-0.0063399286
-0.0117430845
-0.010747957
-0.0053165522
7.035444E-4
0.007193127
0.008734118
0.0077958256
0.008859915
0.0045488835
-0.0030708574
-0.00706655
-0.006921326
-0.003990192
-0.0027160503
-0.0015118318
9.2840433E-4
0.0018212206
0.0041497475
0.00741632
0.0063580535
-0.0012613682
-0.00909774
-0.008391751
-0.002808853
0.0019512115
0.002973887
0.0017115287
0.007720185
0.01743664
0.022230355
0.022456111
0.0148815205
0.0021125644
-0.007041639
-0.0071075847
9.22142E-4
0.003304583
-0.003712144
-0.008226828
-0.009901975
-0.01402158
-0.017070971
-0.013681649
-0.0056061973
-0.0012432863
-0.0022248009
-0.0022111128
-0.0012533679
-0.004106788
-0.010488616
-0.01619785
-0.015547745
-0.007967114
-2.288351E-4
0.0065222126
0.013484115
0.016290633
0.015951568
0.013146018
0.004745077
-0.003592275
-0.0070364643
-0.004424848
0.005869758
0.014046931
0.013720624
0.0121605145
0.008831839
0.0011034339
-0.0075943526
-0.016045693
-0.017300455
-0.007803108
0.003845476
0.012037718
0.014546127
0.014233148
0.012408409
0.0017356863
-0.010617197
-0.015240648
-0.01605485
-0.011373307
-0.0048715565
-0.0022657437
0.0017310374
0.005505387
0.0065944735
0.006267881
0.001775988
-0.005080689
-0.0094820745
-0.008083511
-0.00220153
0.0021750988
0.0029679397
0.0010310299
-0.0017493784
-0.0032750338
-0.0039474214
-0.004923427
-0.005471492
-0.002561282
0.003110131
0.0071006543
0.006955976
0.0042437995
0.0033300037
0.003039413
1.8841305E-4
-0.0041930582
-0.0073668235
-0.0043327836
0.0029783198
0.010693673
0.017844012
0.015274998
0.004800516
-0.0029311113
-0.009016193
-0.010484002
-0.006284695
-0.0033436746
-0.001153485
-5.17564E-4
-0.0020148421
-8.44457E-4
0.002061838
0.0022017278
-0.002555798
-0.008663858
-0.010357069
-0.0063173855
0.0021608423
0.008381757
0.008075703
0.0071603586
0.007346403
0.006308894
0.0037492244
-9.082498E-4
-0.0033471645
-0.0016227785
0.0021988594
0.006295589
0.0047876653
0.0026869555
0.0028486804
-0.005690908
-0.011938952
-0.008699763
-0.011208656
-0.011378252
-0.002420705
0.0017289494
0.0012701942
0.0014056514
7.1549375E-4
-0.001280005
-0.0037463584
-0.005984563
-0.007884599
-0.005063366
0.0014587888
0.0058965217
0.009800409
0.012131386
0.011322094
0.0086697675
0.0040048
-7.9622885E-5
-0.0034192868
-0.0033280968
0.00347621
0.008386107
0.007522215
0.005978248
0.0038564077
2.0554721E-4
-0.0041020173
-0.008894444
-0.012300365
-0.010987614
-0.0049086865
0.0020580871
0.0048122844
0.0031494964
0.0026735566
0.002281775
-0.001332822
-0.0056808437
-0.009144615
-0.007060938
7.608755E-4
0.0062017436
0.0076510217
0.005767782
0.0018366389
-0.0013425122
-0.006140798
-0.012244972
-0.015096683
-0.01284621
-0.0073806993
-0.0015050023
0.0032524194
0.004094151
0.0030091722
0.0051854174
0.0059430487
4.0557116E-4
-0.0046262597
-0.0019442956
0.006687563
0.015518615
0.020327868
0.021084264
0.020517621
0.01820565
0.011587582
-2.1498035E-4
-0.012250155
-0.01586762
-0.013719074
-0.013709134
-0.01308203
-0.008366619
-0.0039279633
-0.0040872227
-0.0074798707
-0.012063342
-0.014611409
-0.009814471
-9.974344E-4
0.0065241857
0.009803087
0.0059254183
0.002211992
0.0016277059
-9.40241E-4
-0.0032277412
-0.0052815946
-0.0058776047
0.0031973533
0.019496145
0.02957647
0.031596325
0.031023093
0.017322307
-0.008989062
-0.027436659
-0.032221086
-0.023393514
-0.0086737415
-0.002224891
7.061762E-5
9.83809E-4
6.1570475E-4
0.0011498417
-0.0019104959
-0.0049768644
-0.0076982384
-0.009270302
-0.0024490517
0.003909988
0.005800294
0.0079235565
0.0065564592
0.0034613155
0.0011708197
-0.002346029
-0.006140227
-0.005351186
0.002381151
0.008555912
0.008158738
0.006118535
0.005055109
0.004090723
9.361327E-4
-0.004063057
-0.008146646
-0.008039163
-0.0010185628
0.0061516645
0.00587447
0.0018479576
-0.0015523365
-0.0036226925
-0.003909904
-0.0059159747
-0.010060809
-0.008651932
-0.0012985282
0.005750179
0.010543052
0.011196615
0.0082954485
0.0037395633
-0.0021523854
-0.0069470243
-0.010988455
-0.0129663255
-0.009348135
-0.0026601113
0.002672179
0.0042705373
0.0049237898
0.0057719112
0.003942768
0.0011104573
-0.002722123
-0.0038136505
0.00243898
0.007746702
0.006971478
0.0026599125
-0.0017953175
-0.004002316
-0.004351867
-0.0021386673
-0.0017838932
-0.0011503032
0.00557025
0.008299065
0.0073304754
0.008746741
0.008886515
0.010477762
0.0072516412
-0.005041695
-0.014668666
-0.016997138
-0.011644725
-0.0040298514
-0.0013226036
1.6366041E-4
0.0012358446
-1.9744327E-4
-0.0042153317
-0.008400835
-0.009806339
-0.010767517
-0.008562425
-0.0027243055
-0.001693947
-0.006152064
-0.009474717
-0.0057558445
0.0020170463
0.004026149
9.762832E-4
9.4200333E-4
0.005200804
0.009813321
0.015700318
0.023421781
0.02625017
0.024615692
0.022878557
0.015815731
0.0039119963
-0.003415075
-0.004341882
-0.0018094593
5.848828E-4
-0.0011328566
-0.003699216
-0.0055043222
-0.009022813
-0.012089778
-0.013767533
-0.010180076
-0.002660566
0.0011644706
0.0054494566
0.0031195458
-0.011455447
-0.026154326
-0.042983145
-0.049334943
-0.03308952
-0.016735947
2.544574E-4
0.021598209
0.028276838
0.023582993
0.017759424
0.013863885
0.011602277
0.0062581715
0.0012338883
-0.001607015
8.916342E-4
0.0107061025
0.017860256
0.018497096
0.014466647
0.009295403
0.004998483
-0.00268457
-0.008111524
-0.0049933814
0.0044557713
0.016922964
0.020565102
0.010289237
1.8197323E-4
-0.0025524485
-0.006335923
-0.012838465
-0.015887575
-0.015706489
-0.011815993
-0.005965761
-0.0059310514
-0.008421466
-0.006416493
-0.0023867982
-0.0010033735
-0.0035776128
-0.007861638
-0.012025083
-0.013144
-0.009019493
-0.0038317551
-8.669944E-4
7.1290284E-5
5.9534603E-4
-5.3163603E-5
-0.0049061975
-0.008899181
-0.0059297117
0.004284766
0.017126108
0.02358855
0.02585951
0.026485093
0.019778514
0.012856905
0.0077864593
-0.002011999
-0.008239142
-0.0071969316
-0.0043245833
-0.0013435362
-0.0013541712
-0.0040868553
-0.006474597
-0.0069903303
-0.0075053438
-0.011333829
-0.0123341745
-0.006174156
0.0013974663
0.0062800394
0.006919229
0.0045225844
0.0015610494
-5.8344565E-4
-0.0025637278
-0.0072958334
-0.008480603