0.011773076
0.010618204
-0.0037905423
-0.050469358
-0.07762609
-0.07166666
-0.0583124
-0.042436797
-0.02930605
-0.023490641
-0.029028932
-0.03946854
-0.04039959
-0.033484224
-0.017693672
0.009523513
0.035841998
0.050461415
0.05619511
0.061397016
0.06491626
0.05908067
0.040474594
0.019272787
0.014236593
0.026853992
0.048037186
0.06298733
0.056042433
0.0434257
0.03865949
0.02592859
8.4618E-4
-0.025830613
-0.03767792
-0.030435944
-0.022585735
-0.023809688
-0.030140448
-0.034117255
-0.038793076
-0.04860786
-0.058526997
-0.075351626
-0.07516731
-0.05193174
-0.044371583
-0.0057568485
0.055360127
0.037573434
-0.010292616
-0.017194131
0.011377023
0.07162428
0.08960131
0.04155216
0.0019011645
-0.012723863
-0.026524723
-0.040481374
-0.008306156
0.07562627
0.123078234
0.119487144
0.11483039
0.09173485
0.043521896
0.019085843
0.011086776
-0.029770162
-0.069725245
-0.076018006
-0.08967784
-0.09667659
-0.062019665
-0.021410068
-0.0066579375
-0.012962839
-0.025209151
-0.023599863
-0.007751655
-0.0051231585
-0.021860277
-0.036568668
-0.03954597
-0.02572716
-0.0046206755
0.0132960845
0.031728357
0.036619402
0.03467389
0.031700145
0.027241016
0.062748335
0.098940365
0.07553968
0.04798129
0.03405273
0.013563747
0.008337414
0.007666233
-0.0018840056
-0.01482285
-0.030420717
-0.032907125
-0.016789854
-8.721236E-4
-0.0014985604
-0.009748425
-0.014823969
-0.025351636
-0.037388172
-0.046838455
-0.05761289
-0.05931826
-0.051371835
-0.04012615
-0.026825981
-0.01905456
-0.01274396
0.0016162457
0.012984811
0.010630917
0.0013478887
-0.005650812
-4.6685862E-4
0.014182541
0.025795266
0.04618169
0.06824037
0.06751442
0.06804664
0.0724734
0.05524465
0.045903675
0.059430685
0.05794768
0.0293227
0.0047745826
0.0013767056
6.172816E-4
-0.0032308048
-0.018013226
-0.057467394
-0.081855625
-0.06779503
-0.04821922
-0.03802121
-0.036849484
-0.03924033
-0.0363945
-0.037228554
-0.044765167
-0.052234586
-0.053000253
-0.040941834
-0.022124734
-0.006239758
0.001302496
0.0032548038
0.005534845
0.004102088
7.1084726E-4
-0.0011031823
-0.003362561
0.0040366305
0.023847017
0.042913266
0.057236753
0.068900235
0.07623617
0.07574975
0.06477819
0.04794768
0.033922356
0.025276609
0.021532414
0.019965976
0.012738481
-0.0016273707
-0.018632472
-0.035196282
-0.050761715
-0.066733345
-0.071452394
-0.05901022
-0.049187608
-0.046585534
-0.036704794
-0.024033163
-0.025323695
-0.037403468
-0.045167536
-0.05107059
-0.053452548
-0.040440004
-0.01966134
-0.011026085
-0.017855832
0.010845152
0.09883161
0.15757245
0.14996016
0.13982625
0.14675045
0.14683987
0.10728699
0.030265471
-0.027258707
-0.05401102
-0.06983852
-0.07475892
-0.0796787
-0.08570634
-0.085391134
-0.077159084
-0.0604301
-0.04764957
-0.042536054
-0.038852036
-0.038023926
-0.038260996
-0.039789468
-0.0452865
-0.045572277
-0.029203763
-0.0024247004
0.020888522
0.036794603
0.04392302
0.045705024
0.047574174
0.044485245
0.03795212
0.03697906
0.03811799
0.039925914
0.046935953
0.04918343
0.043271624
0.03852696
0.02929807
0.012312806
-0.0046253437
-0.012354427
-0.002493344
0.012033291
0.013571766
0.002959432
-0.009474887
-0.01632106
-0.025490018
-0.038667023
-0.04887748
-0.054426823
-0.049624912
-0.039633803
-0.03044061
-0.025329616
-0.028822282
-0.027950386
-0.028450029
-0.042094845
-0.061230335
-0.07987934
-0.08197497
-0.08077579
-0.07962092
-0.028117228
0.054369967
0.11209749
0.14336373
0.14993733
0.13498782
0.11445991
0.10667224
0.09225719
0.0408388
-0.0013717448
-0.0121233985
-0.0073744156
0.03393487
0.048439205
-0.02163487
-0.07343591
-0.048038997
-0.0117992535
0.0045321556
0.0010281436
-0.0317019
-0.051915806
-0.03387352
-0.031861495
-0.061507743
-0.08105549
-0.07781529
-0.05734214
-0.03072351
-0.012551196
-0.0017732942
0.007572753
0.0146493595
0.010320048
-0.0028967783
-0.0042348295
0.011731399
0.03219491
0.045516394
0.04773302
0.041562635
0.023260402
-0.008651482
-0.03680055
-0.04915826
-0.050103813
-0.038455714
-0.014877606
0.007345371
0.024673171
0.039430972
0.035916172
0.011039924
-0.005805861
-0.0030427857
0.007688173
0.024110202
0.039269213
0.04248114
0.032410614
0.01489294
-0.0021094463
-0.017802794
-0.025364667
-0.029020188
-0.040330555
-0.029526772
0.01013327
0.036803134
0.04640739
0.05292572
0.050303977
0.03928539
0.029684406
0.023326628
0.013443033
0.008865428
0.015298958
0.014278132
0.0020120682
-0.00933168
-0.014567013
-0.01727658
-0.026896942
-0.04455953
-0.060414802
-0.06262889
-0.05261949
-0.045435667
-0.04835103
-0.055306006
-0.061456744
-0.074506156
-0.09140822
-0.10310769
-0.10804973
-0.08570177
-0.044026524
-0.004575887
0.054182775
0.10622181
0.11462085
0.1086408
0.09880132
0.0819144
0.06589284
0.056415748
0.060871158
0.0579278
0.040887687
0.02980419
0.026140904
0.032459024
0.036681548
0.021442024
0.001181069
-0.010583286
-0.011683683
-0.0024017275
-0.0052258675
-0.045556966
-0.083973415
-0.06672099
-0.028005164
-0.012683702
-0.017629802
-0.03450512
-0.046012945
-0.04638212
-0.043618575
-0.034538835
-0.019827269
-0.009881493
-0.018194355
-0.040078893
-0.053944115
-0.030105395
0.035225835
0.07379621
0.059484974
0.043359056
0.030876022
0.018604578
0.013799729
1.2995479E-4
-0.004760922
0.01499421
0.03643578
0.046805885
0.04179573
0.024384234
0.013272658
0.011103114
0.0087181
0.014120419
0.016960021
-0.004181555
-0.025048288
-0.028660143
-0.0322268
-0.035715725
-0.03551038
-0.040899914
-0.057702594
-0.077804126
-0.09258278
-0.094286725
-0.04985221
0.033348475
0.08844614
0.09947016
0.09269328
0.07694742
0.05651195
0.031165613
0.008921985
0.0065292525
0.01955115
0.03164856
0.037488088
0.038770117
0.033492457
0.02237172
0.0073226225
-0.014600763
-0.034755453
-0.043501366
-0.04542398
-0.043505333
-0.04541466
-0.0564204
-0.06413933
-0.06557351
-0.06619068
-0.06741632
-0.06895827
-0.05576356
-0.025122864
0.005683516
0.031898282
0.048627328
0.05399323
0.055241577
0.052871425
0.047766495
0.03791832
0.030330857
0.035936452
0.04350673
0.04682941
0.04963491
0.054664195
0.061100747
0.05988636
0.052627627
0.02527234
-0.025040826
-0.04878295
-0.041037355
-0.035499364
-0.029767187
-0.025304224
-0.027570255
-0.032899525
-0.0429146
-0.052619666
-0.057469945
-0.053610843
-0.040756628
-0.031075701
-0.028779468
-0.026884036
-0.022609254
-0.020312436
-0.022594508
-0.025422888
-0.020121865
-5.9503387E-4
0.022834975
0.0378951
0.043219868
0.039330237
0.033015333
0.022947524
0.0029630726
-0.007523855
0.013895121
0.058002237
0.08406305
0.06817707
0.04769642
0.050100654
0.04874096
0.035229
0.018262815
-0.008082207
-0.028355187
-0.027588231
-0.01961511
-0.010806716
-0.002098511
-0.0023382802
-0.010431532
-0.01670325
-0.024371454
-0.04214202
-0.05347953
-0.04841661
-0.042328272
-0.035305567
-0.032963764
-0.039270606
-0.030690445
-0.01389925
-0.01273598
-0.021494156
-0.0247837
-0.013067514
0.005216618
0.017079573
0.02094091
0.01759307
0.01314309
0.010286103
0.0061148745
-0.0012722524
-0.00586807
0.0049730716
0.019741196
0.021632994
0.015344578
0.0085572135
0.00821787
0.007721347
-0.0020682563
-0.013805312
-0.018676842
-0.008505198
0.008557176
0.02214181
0.03548893
0.037596766
0.030063957
0.023639806
0.012275137
0.004985489
0.0073263263
0.013321449
0.027529903
0.040984835
0.04023474
0.031682424
0.023282137
0.014753277
0.010818951
0.008378664
-0.0043961797
-0.011784577
-0.005250088
-0.006411267
-0.015861068
-0.027756812
-0.042757664
-0.054176588
-0.06710357
-0.080815576
-0.085059136
-0.07843988
-0.06166541
-0.04460336
-0.034345694
-0.025727512
-0.020974126
-0.017165488
-0.004587716
0.0061519807
0.011517199
0.033063024
0.06599366
0.08545337
0.090583906
0.08827165
0.082555115
0.07504448
0.061567776
0.04312102
0.024264863
0.013154973
0.012182052
0.010878134
0.004461585
-0.0043348754
-0.008961895
-0.011211794
-0.023477845
-0.040336896
-0.04931365
-0.04736588
-0.036022473
-0.02564139
-0.020038666
-0.016478056
-0.0175156
-0.017686587
-0.010838167
-0.006843055
-0.013388633
-0.015762022
-0.0037859746
0.009119944
0.016878493
0.022747824
0.025057612
0.023616275
0.013955272
-0.0041987174
-0.021205265
-0.028566003
-0.021791322
-0.0120040905
-0.008844926
-0.0045626718
-0.0021454755
-0.0056406064
-0.010114813
-0.016506614
-0.015616259
-0.002190223
0.012895605
0.024704745
0.028874025
0.026890557
0.024952631
0.020223979
0.01195744
-0.0023153082
-0.013476809
-0.0048917695
0.010819171
0.019637324
0.022573618
0.019656116
0.015041387
0.006326147
-0.008479329
-0.0228113
-0.03132878
-0.028605532
-0.017915936
-0.008112102
-0.0047893333
-0.004592431
-0.0010272193
-0.0017451199
-0.007913243
-0.016063232
-0.022428008
-0.010746428
0.008692149
0.019668318
0.026808618
0.023102636
0.014080241
0.010339687
0.0028245319
-0.010267059
-0.01974222
-0.012575209
0.004445224
0.010736148
0.008642526
0.0054922733
0.0029682806
-2.2781025E-4
-0.010554542
-0.02648758
-0.036702316
-0.0283271
-0.008988618
0.004379655
0.009791881
0.008380995
0.0054057078
5.208285E-4
-0.010074577
-0.020751402
-0.027287943
-0.018105628
0.002264534
0.013081257
0.01780377
0.020028183
0.018328043
0.015880294
0.010353631
0.0011378338
-0.010851259
-0.012211183
0.0027271565
0.018200397
0.02782921
0.025974033
0.014486165
0.007172022
0.0031489183
-0.0052355765
-0.017500466
-0.019071931
-0.006986187
0.0054784757
0.014398727
0.014214977
0.009378662
0.0028474329
-0.009660742
-0.021239964
-0.040091768
-0.044261023
-0.012656666
0.011445668
0.023491798
0.03249805
0.02421486
0.020738646
0.012205599
-0.011064093
-0.016739542
-0.013630037
-0.011245134
-3.5408858E-4
0.0054993164
0.0020254292
-0.0011897957
-8.812752E-5
2.9169289E-5
-0.0072688423
-0.017047105
-0.01810755
-0.0049263025
0.008449213
0.010795271
0.011873847
0.012396391
0.0070977416
1.0217944E-4
-0.00632478
-0.010940025
-0.011219699
-0.0017326284
0.017271874
0.02796824
0.022333363
0.013106099
0.004872215
-0.005761973
-0.019809203
-0.03047646
-0.025168115
-0.012443463
-0.0050028125
-3.9629568E-4
-0.0016765005
-0.005274252
-0.0064913216
-0.011576508
-0.01859895
-0.022725202
-0.017946292
-0.0030280189
0.0134070795
0.024589397
0.025818713
0.02410736
0.020459061
0.011018932
0.007021375
0.0023050935
0.002915042
0.023252718
0.031545997
0.018363021
0.0061058607
-0.0040860614
-0.0109689
-0.015669016
-0.021346899
-0.023763686
-0.01780918
0.0017026911
0.022155099
0.031698912
0.035605494
0.035777982
0.032316756
0.021225335
0.002034609
-0.013577859
-0.01774649
-0.00893981
0.0016614082
0.0014801293
0.0045554573
0.019829834
0.021178205
-0.004998975
-0.036316283
-0.056798514
-0.06445675
-0.06216618
-0.061361372
-0.060054556
-0.05638927
-0.061951824
-0.068292074
-0.066296816
-0.060226
-0.035200004
0.0142943645
0.059914164
0.083826646
0.09302026
0.093174964
0.08588304
0.07552481
0.06266641
0.044990975
0.027458707
0.0205268
0.028335292
0.041443728
0.0469365
0.04502813
0.04008211
0.03255799
0.02533358
0.01334266
-0.0021972992
-0.012192429
-0.03290844
-0.06334495
-0.0759765
-0.07719646
-0.07645437
-0.06926753
-0.060890496
-0.045354456
-0.025238708
-0.020446364
-0.025910411
-0.019604068
-0.0043995543
0.0012425209
6.8081747E-4
5.913267E-4
-0.0031772847
-0.008935336
-0.018697303
-0.02301931
-0.007937547
0.014430057
0.030303888
0.0337727
0.030725466
0.031769756
0.026313117
0.013832472
0.00553802
0.0040947394
0.016061038
0.032207735
0.03805703
0.037250876
0.03469968
0.03385919
0.029791271
0.013855905
-0.0074199615
-0.019610953
-0.014657094
-0.001975386
0.006669611
0.010217735
0.004934644
-0.005125655
-0.013221665
-0.024303045
-0.032746833
-0.032497235
-0.028958095
-0.019467056
-0.010443656
-0.012861393
-0.014380581
-0.0092009725
-0.009444362
-0.018833142
-0.029547248
-0.027348548
-0.0082341125
0.015281363
0.029891836
0.030693058
0.025516367
0.019788038
0.0102430815
-0.003593585
-0.020602021
-0.030124528
-0.022414653
-0.005272441
0.00959265
0.013229583
0.009881335
0.008324559
0.001778611
-0.011981311
-0.025959617
-0.02986077
-0.015996234
0.004347715
0.021135619
0.03372584
0.038589988
0.035074335
0.022407578
0.0031658288
-0.013004113
-0.01723247
-0.008729421
0.0027296117
0.01083371
0.015082046
0.016857212
0.018069763
0.01502713
0.008812959
0.0017572383
-0.0028211526
0.004483393
0.016372008
0.021838807
0.022106458
0.0146375755
0.0011372374
-0.0126746455
-0.025964106
-0.03744313
-0.04251728
-0.035741776
-0.023011142
-0.015393585
-0.01533173
-0.018442778
-0.017882146
-0.017278677
-0.02433439
-0.035299744
-0.03991279
-0.030096851
-0.012141402
0.0022411093
0.009748875
0.010201068
0.009467792
0.009128201
0.0070105535
0.012487893
0.028594593
0.051860433
0.08040259
0.100118846
0.098412074
0.07842594
0.050090842
0.020891285
-0.008262216
-0.03432469
-0.045465697
-0.033607513
-0.009230428
0.011505814
0.021699129
0.014377104
-0.00671204
-0.026750237
-0.04534366
-0.0615828
-0.06789477
-0.063697204
-0.04667987
-0.025822328
-0.014378103
-0.005119196
0.004050641
0.007182179
0.0047803745
-0.005746846
-0.013679482
-0.0042681852
0.013411571
0.027623715
0.034847755
0.033351228
0.026397932
0.015549766
3.601491E-4
-0.015124114
-0.023771115
-0.021022273
-0.006740674
0.010042563
0.013833903
0.009975181
0.010061129
0.0047548506
-0.0055091637
-0.014944317
-0.02192464
-0.012511666
0.0063669994
0.019270675
0.027932677
0.024805015
0.016705334
0.015485271
0.0059907753
-0.009191061
-0.016307777
-0.016598161
-0.0055977176
0.008221124
0.01024788
0.0094898585
0.008945112
0.0024023652
-0.0055052065
-0.016934594
-0.03014132
-0.027684705
-0.010061435
0.0056176903
0.013356394
0.015042832
0.012610675
0.008179808
-8.745058E-4
-0.0165122
-0.026136827
-0.018745108
-0.0019458827
0.012977721
0.01878319
0.017980522
0.017152213
0.012442163
0.0025468613
-0.011175833
-0.022604657
-0.01909656
-0.006204394
0.0055900784
0.013433867
0.013964057
0.010370673
0.004832208
-0.0014494831
-0.009072024
-0.017223177
-0.013966847
-7.525647E-4
0.011705931
0.017324192
0.012957048
0.008963434
0.00508772
-0.008140139
-0.026445424
-0.039920032
-0.03514
-0.014781428
0.008696114
0.024534162
0.01771652
0.0039095827
-5.1551894E-4
-0.006961932
-0.013134023
-0.018166654
-0.0188385
-0.0019299386
0.01536855
0.013860399
0.007149627
0.0063073537
0.0016118062
-0.0012693264
0.008747594
0.014919433
0.016372982
0.021900563
0.022263167
0.023062885
0.020672483
0.004843663
-0.011103541
-0.020429164
-0.025345294
-0.032453682
-0.039402984
-0.028614767
-0.009200983
-6.616483E-4
6.18437E-4
0.003646774
0.007347176
0.0038951624
-0.0054840455
-0.013970331
-0.01290227
0.0041585444
0.02271929
0.030453699
0.032120325
0.030146264
0.025424132
0.015717566
-0.002043417
-0.019294173
-0.022677023
-0.010417966
0.004884493
0.01258465
0.013542797
0.012912412
0.010137241
0.0012512496
-0.013057762
-0.027248314
-0.02938795
-0.016187146
-0.0013090989
0.0053691654
0.0038908704
-0.0020223074
-0.0106707765
-0.018807117
-0.021114092
-0.022552835
-0.02303818
-0.012095609
0.009612745
0.023303103
0.015839543
0.008464905
0.010435961
0.0019486549
-0.01625942
-0.03658043
-0.038689286
-0.0060356846
0.02611037
0.041698445
0.055645462
0.0566388
0.045880012
0.041916948
0.039326645
0.025043411
0.007348985
-0.004095215
-0.014405079
-0.020752076
-0.020022552
-0.01397901
-0.0054025315
-0.008390119
-0.02448424
-0.04428809
-0.054079026
-0.036785293
-0.010487258
0.0046553365
0.013477788
0.0051096007
-0.0196731
-0.03669938
-0.04299156
-0.041212358
-0.022585226
0.005226599
0.03018667
0.05261692
0.061739773
0.05493073
0.04655327
0.033335533
0.011686244
-0.010979847
-0.025068106
-0.01855185
-0.0012962498
0.010196753
0.01451749
0.009035809
-0.001688138
-0.01178299
-0.025383791
-0.03675832
-0.037237518
-0.026700357
-0.008647831
0.0045575653
0.007416434
0.008305964
0.006298042
6.791064E-4
-0.005793605
-0.015973406
-0.015755638
0.002900416
0.021350265
0.030589156
0.03146564
0.02568025
0.017998943
0.00806235
-0.0054405965
-0.021766461
-0.028241739
-0.014806535
0.0033707295
0.012967094
0.014632571
0.012751346
0.010220107
0.0039246995
-0.006191721
-0.016821101
-0.018793883
-0.005773659
0.010141092
0.01974859
0.021879507
0.016128339
0.007970849
-8.294374E-4
-0.010869771
-0.020946192
-0.024828136
-0.014008162
7.304124E-4
0.0048725638
0.0027919011
8.871971E-4
-9.332949E-4
-0.005288359
-0.0155635895
-0.02802941
-0.029653657
-0.015108593
0.0022183487
0.010660041
0.01356351
0.01254736
0.006723146
0.0018244811
-0.005220635
-0.017751448
-0.02100409
-0.009499781
0.0054676267
0.016062088
0.01827767
0.015375558
0.01184328
0.005219663
-0.005300814
-0.015883066
-0.017284863
-0.005515736
0.00877691
0.016388042
0.019241648
0.018799914
0.013707317
0.00792791
-7.374329E-5
-0.012025151
-0.01639647
-0.01040786
9.640203E-4
0.010477746
0.009011763
0.006744408
0.005754501
-0.0026460637
-0.00997444
-0.018198697
-0.025152195
-0.015789313
-7.6613395E-4
0.007597177
0.012528918
0.012480854
0.0070860256
0.001884797
-0.0045690862
-0.016524963
-0.021343168
-0.01129027
8.029688E-4
0.011139132
0.018816136
0.018730681
0.017094469
0.01456899
0.0021918283
-0.016519018
-0.025049001
-0.015016559
0.004034328
0.017627269
0.020249376
0.015519399
0.0069925585
-0.0017133845
-0.009619175
-0.02077344
-0.027259087
-0.019811554
-0.006087013
0.0048890277
0.011229442
0.0148936035
0.015583611
0.011141641
0.0020656148
-0.008307213
-0.008242805
0.002412005
0.010637098
0.016787581
0.018814363
0.0128331715
0.0051034824
-0.003730723
-0.014423108
-0.025795268
-0.031739965
-0.024680581
-0.011735884
-0.0020576452
0.0018137106
0.0033208164
0.0064810743
0.0047153276
-0.0043501495
-0.01511208
-0.019044157
-0.008412615
0.009673421
0.024177281
0.030444004
0.028908327
0.023548994
0.014952267
0.004546673
-0.007602623
-0.017426135
-0.014068669
-0.0010079007
0.010215303
0.012742344
0.006187244
-5.227796E-4
-0.005152356
-0.013767838
-0.026960071
-0.036254704
-0.03176772
-0.0154633485
0.0026055665
0.012403611
0.012857043
0.011657112
0.008266629
2.3662856E-4
-0.009803765
-0.016934626
-0.010171244
0.010343526
0.02657674
0.028921355
0.025093475
0.018855983
0.0084511
-0.0029651085
-0.016842414
-0.027128002
-0.02092855
-0.0063326037
0.0048234137
0.010304388
0.010107389
0.0077943704
0.0027496559
-0.004316311
-0.0122919455
-0.01926637
-0.014090199
0.0023838093
0.016919898
0.02137535
0.017454488
0.01410078
0.00929689
-0.0025376696
-0.018967818
-0.030790865
-0.024743333
-0.007363987
0.008337533
0.019191045
0.019160056
0.013635336
0.0065009585
-0.00690094
-0.017992815
-0.02513101
-0.02966023
-0.023215976
-0.014220362
-0.010697062
0.0010902596
0.020079752
0.025986344
0.016093614
-6.7454566E-5
-0.010280244
-0.0016302138
0.0144536495
0.024337063
0.030799981
0.029138908
0.023074843
0.019257085
0.007832451
-0.008148989
-0.017525548
-0.018416815
-0.011887099
-0.0066364664
-0.0061121844
-0.004736065
-0.0021665879
-8.115807E-4
-0.0068437858
-0.020881835
-0.030463371
-0.026984256
-0.011813448
0.005055551
0.013548361
0.013298862
0.0066555254
-5.308101E-4
-0.0068203504
-0.018984966
-0.028638858
-0.021099765
7.1926834E-4
0.021848379
0.03439937
0.041677393
0.037763845
0.018653635
-0.00370686
-0.021220228
-0.02725264
-0.019071672
-0.0016142054
0.016326424
0.019834023
0.013126499
0.0069133593
-2.633178E-4
-0.004404909
-0.010877939
-0.018522983
-0.014491112
-0.005391427
0.0045175855
0.012869351
0.013203362
0.01122326
0.010821628
0.0073848455
-0.010514049
-0.029568492
-0.020299254
-2.7248828E-4
0.0072141504
0.00877811
0.006319189
0.0029991567
0.0028128247
0.0022215196
-0.008067401
-0.02546714
-0.026809094
-0.012056699
0.0024585228
0.011008277
0.009093181
0.005602603
0.00620173
0.002651421
-0.005888119
-0.013317113
-0.009233129
0.004033829
0.016358158
0.026275793
0.026361035
0.018062575
0.012416102
0.008324648
0.0019386088
-0.008428755
-0.016540842
-0.011708941
0.002117811
0.011715205
0.011806521
0.0088990005
0.006292879
-4.990731E-4
-0.011061008
-0.019060124
-0.018660195
-0.010609317
-4.5673377E-4
0.0040650116
6.508687E-4
-0.0033277115
-0.008498907
-0.016119123
-0.023345605
-0.03076167
-0.02696453
-0.013571786
-0.008104526
-0.006877153
-0.004823789
-5.5585575E-4
0.008431616
0.01159886
0.0046789045
-0.006813006
-0.009580618
0.009317
0.03388292
0.045921665
0.0505271
0.04928897
0.037020147
0.020527732
0.00949364
-0.0019823767
-0.014449277
-0.013277577
-0.0021418848
0.0035383764
0.0029556155
8.440665E-4
-0.002447811
-0.010277476
-0.0227628
-0.034608528
-0.038443737
-0.027863031
-0.011235468
-0.0031441476
-8.762604E-4
4.072065E-4
-0.004296676
-0.01249736
-0.018642407
-0.023642158
-0.022502827
-0.007903315
0.011282863
0.020969208
0.023204692
0.024277143
0.02167819
0.0127830645
-0.0019769392
-0.015458815
-0.017222123
-0.007314813
0.007044931
0.01615879
0.017078701
0.017677296
0.017419847
0.013823926
0.006776867
-0.0076228776
-0.015070228
-0.0046299524
0.006542921
0.010094712
0.011516981
0.012068393
0.0105956765
0.0029320593
-0.010287865
-0.022598736
-0.02521548
-0.011987501
0.006595313
0.018134912
0.020643422
0.013263639
0.0021301836
-0.008753249
-0.021262037
-0.027168816
-0.023392964
-0.013496325
0.0011133896
0.009009105
0.00726346
0.0054583275
0.0052568195
0.0025584847
-0.009291462
-0.020383386
-0.018746363
-0.015459221
-0.0039641685
0.017506264
0.023783596
0.019169869
0.012678573
0.0010190477
-0.007181719
-0.014321392
-0.017108178
-0.006158356
0.009041084
0.01976817
0.02070417
0.016587459
0.016336124
0.01243187
1.975808E-4
-0.016662966
-0.024400447
-0.011373148
0.007068198
0.016352559
0.015976148
0.009351407
0.0026097288
-0.005071094
-0.014743795
-0.025048757
-0.029942144
-0.020528298
-0.0038981156
0.009162403
0.014621916
0.0135581335
0.011555559
0.005772627
-0.0048399814
-0.0154126845
-0.01923709
-0.008156912
0.008818722
0.020198584
0.025611963
0.023018977
0.015097543
0.004888395
-0.008467153
-0.022692805
-0.028664405
-0.017238418
8.125419E-4
0.011621954
0.013454367
0.008916253
0.0077974987
0.0048087984
-0.009299339
-0.02102836
-0.022815209
-0.014132561
0.0035126654
0.01673394
0.021810211
0.021115297
0.013546938
0.0039100847
-0.0068139057
-0.019432617
-0.025817785
-0.018239744
-0.0017538321
0.00945033
0.011054696
0.01090875
0.010485787
0.0051052864
-0.0061908914
-0.021060029
-0.029102182
-0.020570459
-0.0010807755
0.017327989
0.024319336
0.019940091
0.013955214
0.0071211457
-0.0036905832
-0.016056
-0.02286989
-0.015884666
8.072438E-5
0.013739163
0.017824387
0.012764136
0.010412196
0.010802862
0.0015194339
-0.015598198
-0.02573607
-0.018034147
2.4818286E-4
0.013271071
0.017143128
0.016917566
0.014013206
0.0066940337
-5.8757997E-4
-0.0083513735
-0.019537712
-0.019874884
-0.007049301
0.002184859
0.0054125255
0.0061873845
0.004829906
0.0016471028
-0.0068249744
-0.018727304
-0.025123177
-0.01827938
-0.0011266214
0.013053438
0.017654393
0.015411678
0.010809701
0.0063976306
-0.0013295385
-0.012640175
-0.017964281
-0.009919767
0.006293883
0.016524155
0.015771678
0.013181453
0.012956589
0.011948775
0.005287708
-0.0121602435
-0.026319165
-0.018052723
8.067647E-5
0.008639139
0.010341786
0.010450287
0.0064504123
-0.0017219661
-0.011375969
-0.021873191
-0.028782202
-0.023731181
-0.0071414774
0.008153498
0.0125142755
0.014664315
0.01914402
0.01334492
-0.0029937094
-0.019495882
-0.026652684
-0.015080444
0.0060141627
0.022181856
0.0315759
0.03135859
0.022769922
0.010987594
-0.0038716346
-0.017831769
-0.02545953
-0.023084594
-0.008397567
0.0067292447
0.010317369
0.009923663
0.010769362
0.0096305655
0.0019873772
-0.017696498
-0.03251879
-0.025541728
-0.011026837
0.0017862166
0.013756
0.019099452
0.01594509
0.0069561764
-0.002350984
-0.011377713
-0.019453136
-0.017365955
-0.004734535
0.008054702
0.011082885
0.0076608583
0.008682615
0.010466595
0.004963498
-0.008510013
-0.019297764
-0.014177727
0.001649494
0.015915232
0.01959297
0.017669091
0.015555041
8.333043E-4
-0.01110979
-0.009255651
-0.017258465
-0.020440439
-0.003308429
0.010246598
0.012793548
0.009346057
0.0050395103
0.0032451933
-0.00268288
-0.0135503365
-0.022565154
-0.018546013
-0.0011886224
0.013467961
0.019798998
0.020393042
0.015348178
0.006250148
-0.006698789
-0.02085826
-0.028514951
-0.024955055
-0.011417488
0.0056138285
0.013858432
0.01295852
0.014506292
0.013446079
0.0030167503
-0.012019338
-0.025564292
-0.02243712
-0.0018506257
0.016712306
0.02543486
0.026074165
0.02129341
0.010971066
-0.0035556522
-0.015387745
-0.022319857
-0.02018135
-0.007995602
0.006622933
0.017650286
0.018509258
0.012659759
0.0062621688
-0.005389124
-0.021454953
-0.03375776
-0.029979575
-0.010544109
0.0057370723
0.015063108
0.019374015
0.014733549
0.008219902
-1.109396E-4
-0.014789333
-0.023973119
-0.018382031
-0.0032462387
0.010917878
0.017271003
0.018192645
0.015556111
0.00955759
0.00258862
-0.01004093
-0.0249867
-0.025551945
-0.010967483
0.007516033
0.021119865
0.023263706
0.017986283
0.010508081
-0.0013806986
-0.016219314
-0.025544494
-0.023557704
-0.013606803
3.1393382E-4
0.012708985
0.018426893
0.021668103
0.021466827
0.0136869205
-9.489334E-4
-0.018948384
-0.022978496
-0.0074881422
0.008598373
0.016758036
0.01666251
0.00806824
-7.006377E-4
-0.0068183513
-0.016911333
-0.028394202
-0.02894454
-0.017252604
-0.0025701341
0.0071865898
0.008697733
0.0076102475
0.0061097187
-5.137079E-4
-0.012733646
-0.026422147
-0.027354192
-0.0097305495
0.010565919
0.021937963
0.024194917
0.023183571
0.020433843
0.010211909
-0.0028058018
-0.013496912
-0.01710686