1.2863E-5
-1.7168302E-4
1.3277009E-4
-8.834343E-4
-7.141833E-4
0.0021362053
0.0018542112
4.266585E-4
0.0015581069
0.0017542633
9.572883E-4
0.0012515747
0.0015821421
-1.15351795E-4
-6.14938E-4
0.001558871
0.0010539315
-3.608963E-4
3.5929776E-4
0.0012231717
5.370335E-4
-0.0020678136
-0.0016745566
5.7011814E-4
0.0011914679
0.0026715754
0.0033466246
0.0040578907
-0.002030542
-0.016292203
-0.015296493
-0.0023988923
0.0019322364
0.002702142
0.0022084706
4.8524525E-4
0.0016995969
0.002065852
0.0018491219
0.0021440997
0.0016850992
0.0011742573
3.7176168E-4
-9.604491E-5
-4.002768E-4
5.731356E-4
0.003086182
0.0031766011
0.0020795285
0.0023350217
0.0016360198
5.162337E-4
3.2775867E-4
-0.001080643
-0.0023523255
-6.1508483E-4
8.370767E-4
-3.4982775E-4
-0.0014471642
-0.0011035374
-0.0010737124
-0.002648634
-0.0035127755
-0.0025946621
-0.0013792337
1.3008832E-4
5.750949E-4
-1.5495089E-4
-2.0796049E-4
7.408832E-5
1.0415761E-4
-7.199112E-4
-0.0011808525
-3.835093E-4
1.6435339E-4
5.2261667E-4
2.1464138E-4
-2.1537695E-4
1.302103E-4
2.9556052E-4
7.51788E-4
-9.261526E-5
-0.0017009302
-5.6560035E-4
0.0015807671
0.0024119364
0.0022809925
0.002550406
0.0023592324
6.414835E-4
5.650735E-4
0.0011680337
6.0028175E-4
-2.8933646E-4
-0.0016568014
-1.028668E-4
0.0020021314
5.3434854E-4
7.777315E-4
0.0020348434
3.8591883E-4
-0.0012508066
-0.0010139301
-2.74971E-4
-6.828381E-4
-1.1276225E-4
0.0015161893
-3.1026346E-5
-0.0025750026
-0.003161082
-0.0028777388
-0.001742242
-9.512613E-4
-0.0015020461
-0.002618604
-0.0030308366
-0.0021445677
-0.0010202371
2.5979633E-4
0.0015009709
0.0012809209
-5.040834E-5
-4.3461705E-4
9.674154E-5
5.610491E-4
0.0021249382
0.0022613169
8.432592E-4
0.0026562214
0.0030433247
0.0011546783
0.0018083688
0.0010712912
6.910657E-4
0.0013894528
-3.3774486E-4
1.5485266E-4
8.012273E-4
5.0346873E-4
0.0018214065
-1.0586327E-4
-0.0021574446
-0.002662951
-0.003605295
-0.0017923361
-0.001919857
-0.002327155
5.954505E-4
3.2101493E-4
5.929119E-4
0.0021579703
2.8566155E-4
-2.21329E-4
3.3536533E-4
2.3007438E-4
3.2062616E-4
1.401753E-4
0.0017541895
0.0027699284
0.002724601
0.0031829744
9.646024E-4
-0.0015515474
-0.002480376
-0.0024832266
-7.5457746E-4
-8.3661586E-4
-0.0017979058
-5.2958576E-4
2.34316E-4
-9.712554E-4
-0.002742542
-0.0023869507
-8.902806E-4
-4.8531021E-4
4.3021722E-4
5.753689E-4
4.1314393E-5
7.6937483E-4
6.641445E-4
-3.0199252E-4
-7.9416233E-4
-7.54828E-4
-8.43737E-4
-0.0010564604
6.221206E-4
0.0026899881
0.0029726592
0.00210707
0.0011358226
0.0010315091
6.2965974E-4
8.496624E-4
0.0014889828
2.4807852E-4
-5.068327E-4
-0.0023782288
-0.003695667
3.6423022E-4
0.001896916
1.8688505E-4
0.0010090219
2.871832E-4
-5.188113E-4
5.066405E-4
2.8382745E-4
7.969885E-4
0.0017877963
7.5222406E-4
-0.0011047903
-8.152861E-4
9.575754E-4
-2.1118131E-4
-0.0017549972
-2.3980433E-4
5.094266E-4
-3.26127E-5
-3.4118188E-4
-0.0013021551
-0.0019894294
-0.0019026707
-0.0020289458
-0.002084301
-0.0010759364
0.0010884283
0.002366294
0.0011503581
-3.2231148E-4
-5.8771163E-4
-4.4761706E-4
5.6025083E-4
0.0013280587
3.1306196E-4
-0.0019341374
-0.003300651
-0.0010959296
0.0014146712
0.0016159642
0.002338527
0.0017729361
8.0113474E-4
0.002594693
0.0025059464
4.558341E-4
0.0010351989
0.0018675197
-3.5836367E-4
-0.002854275
-0.0026529096
-0.0017792843
-0.0014477228
-0.001847015
-0.0019501542
7.5400755E-4
0.0018784644
2.4859305E-4
-3.6983547E-6
-9.85408E-4
-9.203444E-4
4.6296522E-4
-0.0015445091
-0.0023236293
-8.669829E-4
-7.738272E-4
0.0011138029
0.003472329
0.0034108672
0.0036503486
0.0044749486
0.0033227978
7.841326E-4
-6.3135865E-4
-0.0010050996
3.3462333E-4
0.0018501057
-5.647431E-4
-0.0019120491
6.475073E-5
-7.943323E-4
-0.002291188
-0.0016508905
-0.0015937713
-0.0019761417
-0.0025005096
-0.0034358343
-0.0033371437
-0.0016214206
-2.7156423E-4
-1.03888364E-4
6.954842E-4
8.54372E-4
-6.701655E-4
-0.0011201585
-1.1949266E-4
0.0010055987
0.0016422969
0.0021613534
0.0029881317
0.0026526242
0.0031423697
0.004954924
0.0024493276
-0.0019676317
-0.002800063
-0.0018716654
-8.3588663E-4
-0.0015137425
-0.0022390205
-9.106415E-4
-0.002447625
-0.0040687146
-0.0020451206
-0.0011499134
-7.8587316E-4
4.8651197E-4
0.0017192458
0.0023160297
0.0025171258
0.003818965
0.0030356545
0.002429036
0.0037417547
0.0018167904
6.73808E-4
8.569864E-4
0.0014537962
0.0044818674
0.0039504063
0.0013098976
-0.0017561228
-0.0025736608
0.0013032032
-3.4222956E-4
-8.8462484E-4
4.7058988E-4
-0.0031219586
-0.0011220742
-0.009089038
-0.020434542
-0.006656271
0.0030472314
-0.0011375826
2.431941E-5
-0.0016697289
-0.001304059
0.0021855645
9.3079975E-4
0.0018822871
0.003215901
0.0034609288
0.0035176913
0.0017229836
0.0013552061
0.0010155854
2.3427935E-4
-2.4411925E-4
3.0494833E-4
0.002781788
0.0023458928
0.0015225207
0.0033125621
0.003094589
0.0011222471
-3.296831E-4
4.704247E-4
0.0011190644
-2.786702E-4
1.5080813E-4
-2.3224027E-4
-0.0013669946
4.7161392E-4
9.622927E-4
-4.0842663E-4
-0.0011803752
-9.1463147E-4
6.043948E-4
0.0011069139
8.74077E-4
-1.6719569E-5
-0.001183137
-8.537163E-4
-0.0019818116
-0.0036499961
-0.0036866786
-0.0031303237
-9.811345E-4
-9.25149E-4
-0.0021579147
7.2565786E-6
-6.6918024E-4
-0.0033507717
-0.001351785
7.0151E-4
7.68181E-4
0.0013339273
0.0011601384
-1.2958261E-4
-5.1761983E-4
0.0014191929
0.003244423
0.0022966778
-1.5034275E-4
-0.0010168075
0.0010251376
0.0022849496
0.0027958504
0.0046792827
0.0030795506
2.0192425E-5
7.809709E-4
7.1462936E-4
-9.0924767E-4
-0.0019244533
-0.00358255
-0.0027461767
-0.0013365443
-0.0025453276
-2.1050686E-4
0.0027091047
6.5000984E-4
-4.8401282E-4
-6.3896505E-4
-0.0016207681
-0.0016243188
-0.0022751857
-0.0017880361
1.7111612E-4
0.0017299906
0.0024538871
6.8735937E-4
8.314075E-4
0.002484394
1.5700307E-4
-6.8650435E-4
0.0017858824
0.0030276352
0.0031231449
0.0017304764
-0.0014070309
-0.0023907109
0.0018667035
0.00391816
-9.5100654E-4
-0.0040683444
-0.0041446476
-0.004071279
-0.0021810208
-0.0015705945
-0.0021167311
-0.0015457696
-0.0013700415
-7.340319E-4
5.729378E-4
9.48547E-4
0.0011867847
0.0025522418
0.0016108452
-0.0020853446
-0.0017691773
1.9833E-4
-0.001029533
-0.001208903
4.651138E-4
0.002323158
0.0029391574
0.0017906632
0.0023232126
0.002920833
0.0019405001
0.0018852274
0.0014696666
9.094649E-4
5.2074174E-4
-0.0010419127
-7.674595E-4
6.36883E-4
-6.701369E-4
-0.0023665335
-0.0019995542
2.4248798E-4
0.0028785549
0.002394298
2.576694E-4
-6.6365564E-4
-0.0015965604
-0.0012656488
-4.8744428E-4
-0.0010701285
-9.272135E-4
-0.002582935
-0.0052767056
-0.0040491023
-0.0024883098
-0.001488941
-4.96859E-4
-0.0015371204
-1.9427144E-4
7.0117565E-4
-0.0010727184
0.0017252717
0.0033669285
3.076642E-4
5.23633E-4
0.0023643023
0.0032536227
0.003916613
0.0031558883
0.0025979995
0.0029628943
0.003439301
0.002667109
9.843078E-5
-0.0021205365
-0.0032296176
-0.002515835
-5.957237E-4
-4.3010595E-4
-0.0014883355
-0.0013867107
-2.8186327E-5
6.788412E-4
-5.9786096E-4
-0.0028343985
-0.003145389
-0.0018074294
-0.0016404092
-6.7946845E-4
6.5688696E-4
7.2101824E-4
0.0021620223
0.0026845222
0.0015247678
3.5125637E-4
-2.9407648E-4
0.0010413004
0.0011724427
0.0022961104
0.0028914455
5.643524E-4
0.0043464233
0.0035030644
-0.0020984518
-2.2138633E-4
-0.010480491
-0.019135227
-0.0038124055
0.0051960293
0.0030312585
0.0037923167
0.0025510914
0.0024079212
0.0013700582
-0.0013865718
-0.0010615466
-6.1639986E-4
5.4885455E-5
4.351859E-4
2.5513573E-4
-1.3880992E-5
-8.84561E-5
0.0023514638
0.0025129502
9.333703E-4
0.0011486231
-2.6620348E-4
-1.7524757E-4
8.546157E-4
-8.9903636E-4
-0.0013125694
-4.2013783E-4
1.5938292E-4
8.4281137E-4
6.597142E-4
2.4781696E-4
2.3572202E-4
-7.8764955E-5
-0.0015689512
-0.00220986
1.5110284E-5
0.0017341019
0.0012988849
0.0012560898
0.0018764118
0.0021467872
0.0021301284
0.0012592535
4.1287864E-4
7.064723E-4
-5.2582053E-4
-0.0027620308
-0.0025992005
-0.0020990365
-0.0032098307
-0.0030196523
-0.0011219139
-0.0021621566
-0.0050541526
-0.0040588556
-9.466463E-4
0.0015973707
0.003145553
0.001953387
-3.7888595E-4
-0.0011880139
8.2504604E-4
0.0018222828
-8.169616E-5
0.0017052902
0.0034515255
0.0015162854
0.0020730847
0.0012172739
-0.0013026006
4.7208328E-4
0.0022338238
0.002110473
0.0012092231
-5.022877E-4
-4.940521E-4
-8.21291E-5
1.5062225E-4
0.0010394006
-3.9970316E-4
-0.0025290386
-0.001622871
-4.3338537E-4
-9.120873E-4
-9.889975E-4
-5.3918106E-4
-6.448632E-5
6.479408E-4
3.9992027E-4
-2.4125056E-4
5.4463086E-4
0.0011750788
1.5485659E-4
-2.752669E-4
4.327231E-4
8.78484E-4
0.0017717911
0.0020566701
0.0015301318
9.2349725E-4
-0.0023141429
-0.004093613
-0.0013910768
-9.4014104E-4
-0.0023761336
-0.0017307813
-5.292174E-4
-3.194288E-5
-5.464146E-4
-0.0011345185
-0.0021016868
-0.0019254284
7.43786E-4
0.0013757622
0.0013332806
0.0016612255
1.8817138E-4
9.464266E-4
5.6664326E-4
-0.0021475405
-7.1057805E-4
4.724468E-4
-1.0326696E-4
0.0019080517
0.004333285
0.0046349172
0.0024675967
7.54779E-4
6.169365E-4
-1.9536883E-4
-0.0011693469
-0.0019081822
-0.0014077812
-9.020012E-4
-0.0023536456
-0.0026114197
-0.0019041357
-0.0013781475
-7.1325834E-4
-0.0020579156
-0.0029741002
-0.0012034888
0.0012229849
0.0026030773
0.0014797393
7.387798E-4
0.0027181748
0.003791809
0.003609271
0.0038409438
0.002923089
0.0021899943
0.0017914103
-0.0015616072
-0.0027437808
9.942706E-4
0.00215047
0.0016888824
0.001306166
-0.0030868398
-0.0062088366
-0.004770322
-0.0025261568
-6.9042377E-4
-0.001103839
-0.0020015065
-0.0013522115
-0.0025807088
-0.0038837418
-0.0017841443
5.487603E-4
3.662653E-4
-6.060633E-4
-5.057193E-4
3.519165E-4
8.5693714E-4
4.9604604E-4
8.39817E-4
0.0021112254
0.0018977821
0.0015906839
0.0026105
0.0026831832
0.0023095696
0.002549883
0.0018140137
6.0631876E-4
6.17461E-4
1.5958847E-4
-9.85105E-4
-8.4146135E-4
-0.0018643416
-0.0027083503
8.1430055E-4
0.003953762
0.0039374507
0.00208306
-0.0014290372
-0.0018433211
-2.6642645E-4
-0.0012597963
-0.002108575
-0.0030455585
-0.0028678647
-2.4534797E-4
-0.0014281862
-0.0033760522
-0.0011911783
-8.8367955E-4
-0.0015831059
-5.170786E-4
-0.002508653
-0.004983619
-0.0031404244
-2.9124485E-4
0.0014635196
0.0019360561
0.001220702
0.0017513849
0.0030587986
0.0040002596
0.0041928017
0.0023055393
0.0010256348
0.0017053476
0.0023792014
0.0031755997
0.0025359464
-4.2848533E-5
-0.002174091
-0.002999501
-0.0022644775
-5.420917E-4
0.001033072
2.2946416E-4
-0.0017220196
-3.0515747E-4
-4.5840486E-4
-0.004142522
-0.0038314662
-0.0017021695
-7.31852E-4
2.2353191E-4
-2.8064905E-4
0.0016377842
0.0053154756
0.0067090844
0.0058303312
-4.8549613E-4
-0.004065819
4.515624E-5
-0.0015992307
-0.004906742
-0.002328851
-0.0036235317
-0.005635369
-0.005267621
-0.0075388676
-0.0068478184
-0.003325355
-8.6688466E-4
0.0025180653
0.005969524
0.009787061
0.01238056
0.011751883
0.010514374
0.007910047
0.0043805875
0.0029189163
0.0018943421
-9.018013E-4
-0.0027556855
-0.0011747131
8.74536E-4
7.2043686E-4
-0.002611861
-0.0054295165
-0.0027100188
-0.0015777911
-0.0061727776
-0.010843968
-0.014482601
-0.016802287
-0.01612014
-0.010965512
-0.0047973813
6.055813E-5
0.0085236225
0.014830423
0.0154222725
0.014901488
0.008898209
-1.2215285E-4
-0.0048484467
-0.005175732
-0.008363355
-0.018757729
-0.021872103
-0.0135119725
-0.0012788621
0.013390383
0.019565556
0.016488515
0.013157957
0.0122568235
0.010500993
-0.005485496
-0.022310488
-0.020853892
-0.013032675
-0.0015301546
0.01227366
0.024116304
0.0351102
0.034608282
0.028675415
0.024910778
0.015009689
0.006327706
0.0020493905
-0.0052588577
-0.014023736
-0.019966083
-0.023828438
-0.029620325
-0.033395376
-0.03373402
-0.034431998
-0.031155821
-0.024503846
-0.019649787
-0.017238105
-0.015324402
-0.0128687555
-0.01046527
-0.004061817
0.0037427915
0.009229646
0.017167263
0.024079883
0.028585423
0.03309169
0.03420168
0.0323652
0.027910076
0.022904588
0.019139621
0.018401984
0.025247904
0.029905813
0.02608401
0.020398566
0.011379873
6.5311324E-4
-0.007231603
-0.015341712
-0.02459354
-0.029083211
-0.026478091
-0.024817726
-0.026491733
-0.028043408
-0.02825981
-0.024433058
-0.022506598
-0.024651686
-0.02126334
-0.011557263
-6.8352884E-4
0.0055660033
0.0048592556
7.919571E-4
-0.0049056076
-0.009328861
-0.008817105
-0.003499808
0.0031214145
0.0090287225
0.011319978
0.007901515
0.008352474
0.012509973
0.016527154
0.026804559
0.028500902
0.019234657
0.023178328
0.03600434
0.036770575
0.024916323
0.01915672
0.01492779
-0.0011010512
-0.005723949
-0.0033026356
-0.009127675
-0.008944999
-0.017596956
-0.0396456
-0.055028822
-0.04657553
-0.012577032
0.001675892
-0.0010249511
0.015313852
0.030363258
0.03720882
0.026420455
-2.8960497E-4
-0.016350914
-0.046716515
-0.079801686
-0.084886745
-0.081678145
-0.06336966
-0.035703443
-0.008506516
0.030849753
0.051579695
0.048454314
0.06508768
0.08899945
0.059989423
0.0028349047
0.004207493
0.049077526
0.090321384
0.1261057
0.12479183
0.081889786
0.0397164
0.018498033
-0.0064149005
-0.06223385
-0.107056126
-0.11098865
-0.093784265
-0.065873176
-0.0543344
-0.0634936
-0.069629855
-0.075646244
-0.08871898
-0.10502477
-0.10222079
-0.07459591
-0.046505813
-0.01756779
0.019724274
0.04762093
0.06374387
0.09237574
0.11383214
0.12271906
0.17248197
0.2183114
0.21577388
0.20038967
0.13499649
0.047306553
-0.0010677527
-0.07556023
-0.16235916
-0.19082221
-0.18728259
-0.16912742
-0.13369901
-0.110939555
-0.10804085
-0.09212242
-0.053192653
-0.018098714
3.7668337E-4
0.022923307
0.023767464
-0.03477632
-0.033434607
0.07187295
0.13341567
0.15373655
0.1760946
0.16620576
0.12282071
2.621926E-4
-0.13032998
-0.18202001
-0.1999654
-0.13958661
-0.04258702
0.009075091
0.06598341
0.08457718
0.042066388
-0.01939081
-0.08119397
-0.10780767
-0.14395191
-0.16768678
-0.107406616
-0.028537715
0.033922825
0.10187577
0.17308776
0.20376642
0.17277125
0.1684395
0.19440399
0.17980352
0.12740257
0.029630305
-0.092129335
-0.18042383
-0.19895083
-0.14075468
-0.073990375
-0.045368213
-0.034538094
-0.02989694
-0.025736744
-0.021648332
-0.019697407
-0.017739434
-0.011899979
-0.003799331
-0.0031322986
-0.0019059282
0.001976799
0.0031146896
0.0076367045
0.01355845
0.022570204
0.02832088
0.022759752
0.0160809
0.00666013
-0.00492234
-0.014944398
-0.025971467
-0.0329059
-0.039578382
-0.042743523
-0.032459397
-0.014140313
0.0057297093
0.020159615
0.02921967
0.035998624
0.037530698
0.035343047
0.030116295
0.028233029
0.03384029
0.038916383
0.042835418
0.044288065
0.040201735
0.031394497
0.017219901
0.0042876597
-0.0075528217
-0.020830698
-0.028208127
-0.032683015
-0.034499373
-0.028793769
-0.01976955
-0.010731818
-0.0059717554
-0.0013759846
0.00865713
0.015036939
0.017257128
0.021001099
0.02322542
0.02368014
0.023312986
0.022500766
0.023426974
0.024155088
0.022040186
0.020530313
0.0211856
0.019821635
0.018165026
0.018664088
0.017205404
0.014534384
0.011955007
0.0077533578
0.0030309516
-0.0046220105
-0.015518897
-0.024063172
-0.030077841
-0.036760174
-0.043627646
-0.04787372
-0.050591294
-0.053545993
-0.053506527
-0.052534252
-0.05201363
-0.04687892
-0.040152427
-0.033077028
-0.023480292
-0.01645934
-0.011274821
-0.0058945627
-0.0014672979
0.0045869206
0.011529761
0.02061008
0.03206647
0.042567674
0.057083663
0.0766619
0.096526675
0.11503301
0.12818785
0.12949903
0.11141167
0.07746183
0.04262709
0.017975904
0.007380035
1.196146E-4
-0.010961557
-0.019237246
-0.028737772
-0.038298313
-0.037334338
-0.030291962
-0.028470913
-0.040446166
-0.05890129
-0.066993095
-0.07027467
-0.0820345
-0.09809713
-0.10434153
-0.09522676
-0.08075118
-0.06590821
-0.048341393
-0.032983325
-0.021081487
-0.008858626
0.0020956781
0.010453498
0.017182719
0.022194065
0.025721475
0.028773736
0.03157387
0.032073546
0.03056396
0.029678416
0.027893558
0.026373556
0.027593391
0.028909111
0.03079045
0.030502757
0.026346141
0.025139961
0.022799397
0.0175465
0.01619591
0.011990425
0.004163165
-5.630721E-4
-0.005921149
-0.011494442
-0.014466544
-0.01681917
-0.018994462
-0.01863046
-0.015798492
-0.01470457
-0.012901837
-0.009517031
-0.008144026
-0.0052675055
-0.0029051497
-0.002313644
-9.126977E-4
-0.0035772547
-0.0066478057
-0.0073025823
-0.0098105585
-0.010295248
-0.0083116805
-0.0060043507
-0.0036736317
-0.003088711
-0.0024914707
-0.0017917092
-5.331044E-4
0.0013663382
0.0013646146
0.0010455463
4.8635056E-4
2.2088939E-4
0.0016257705
0.0020857465
0.0021871126
0.0023384646
0.001047827
2.991732E-4
0.0020309766
0.0036966358
0.004085811
0.007061481
0.008635274
0.0060606855
0.0068946434
0.009318617
0.008346967
0.005899205
0.0063395756
0.008544946
0.00700062
0.010019683
0.010090694
-0.005195443
-0.0060193175
0.0108018825
0.015431621
0.014142343
0.01476172
0.013759779
0.013663637
0.012380554
0.011106614
0.009166462
0.0073800264
0.0082475655
0.0060781785
0.0028930667
0.0025878167
0.0037211007
0.0050799553
0.0047390694
0.0049993326
0.0037851569
9.071365E-4
0.0019289842
7.0627977E-4
-0.0033202947
-0.003282424
-0.0035916667
-0.005047754
-0.0039856043
-0.0029740848
-0.0022561688
-3.4739164E-4
-5.2369526E-4
-0.0021019937
-6.648279E-4
-7.085894E-5
-0.0018989348
-7.3827757E-4
0.0011886827
4.4905714E-4
-5.0251652E-5
3.3679206E-4
-5.358477E-4
-0.0019450566
-0.0016361235
-3.7284705E-4
-1.6254517E-4
-5.230719E-4
6.318806E-4
0.0020693087
0.0011648303
1.9204181E-4
-4.3938166E-5
-3.2980755E-4
9.020519E-4
0.0019399913
0.0022653197
0.0025932542
0.0026258575
0.0043108715
0.0052037714
0.0034430777
0.001778756
5.842154E-4
-5.9697195E-4
-0.0024954015
-0.0028278849
-5.617196E-4
-7.504824E-4
-0.002013476
-0.0010089481
-3.026272E-4
-6.041205E-4
-0.0011610541
-8.074466E-4
1.13280716E-4
-5.741688E-4
-4.7106508E-4
0.0016276775
0.0022104236
0.0014630541
0.0010442822
-1.0833464E-4
-2.4763698E-4
0.0010614285
4.324238E-5
-0.0013598611
-2.2083681E-4
0.0011186205
0.0013691346
1.2599493E-4
-6.268689E-4
-6.4503215E-4
-0.0032518094
-0.004416921
-0.0025535398
-0.0020664197
-7.663643E-4
7.942455E-4
-3.8605646E-4
-1.0230386E-4
0.0020475616
0.0010571539
-8.6423405E-4
6.869452E-4
0.0017059481
6.4418354E-4
0.0010137697
9.54493E-4
3.4189757E-4
6.25794E-4
6.1986764E-4
0.0012500286
9.3099073E-4
-7.140728E-4
-0.0011156707
-0.0012407177
-0.0011235861
-0.0012864042
-0.0017036523
-7.0100464E-4
-5.9017324E-4
-4.6482915E-4
6.179231E-4
-5.799757E-4
-0.0016252766
-0.001371381
-0.0023586631
-0.0021292267
2.9513935E-4
0.001894386
0.0013273129
3.6839745E-4
0.00120322
5.8587827E-4
-0.002276868
-0.0011290171
0.0010843122
-5.6580484E-5
8.5666386E-4
0.001963335
0.0016931635
0.0029186485
-7.791829E-4
-0.00595834
-0.0045129736
-0.0023663072
-2.8670722E-4
0.0018071942
3.4009223E-4
8.696067E-4
0.0026097868
4.283302E-4
-6.517457E-4
7.1150763E-4
-2.2205444E-4
-0.002657139
-0.0033798025
-0.002084464
-0.0010145068
-0.0016019531
-0.0012562865
-0.0010734801
-0.003543212
-0.0035271395
-0.0022237166
-0.0033084406
-0.0024349594
-0.0017221643
-0.0014242224
0.001131159
0.0012460704
0.0015659855
0.0030557164
9.996648E-4
-9.3885174E-4
-0.0010506648
5.294808E-4
0.0029168888
0.0021393409
9.782052E-4
0.0015971229
0.0025656496
0.0036195323
0.0031787285
0.0030041686
0.0040648873
0.0030361644
-2.5730493E-4
-0.0041092834
-0.0052164276
-0.0017515704
3.3950044E-5
-0.0013028053
-0.001318555
-0.0038908536
-0.0067744493
-0.0030347675
3.8488573E-4
6.312722E-4
0.0010057031
6.785587E-4
0.0014495094
-5.2157742E-5
-0.0038768996
-0.00447139
-0.0046220627
-0.0033355663
-0.0010155237
-0.0012813603
-8.1289385E-4
-9.099546E-4
-0.0010882007
1.8952646E-4
-1.2296415E-4
1.9552055E-4
5.4043287E-4
5.8532984E-4
0.0017745518
0.0018210168
0.0022557834
0.0020536631
0.0015369345
0.0026091775
0.0011900585
-3.5962186E-4
-6.5274467E-4
-0.001655049
-2.6367494E-4
0.0015676016
0.0015617826
9.550105E-4
4.7715468E-4
8.4355124E-4
7.694535E-4
4.442675E-4
4.0228268E-5
-6.427904E-4
-0.001816817
-0.003359124
-0.0018304907
-2.408249E-4
-6.2971073E-4
5.6979636E-4
1.7284007E-4
-4.5371355E-4
7.6377037E-4
-1.2758494E-4
-0.0012505181
-9.72287E-4
2.1884643E-4
1.2664817E-4
-0.0010891452
-2.3674601E-4
-0.0017908998
-0.003167369
-0.0025274644
-0.0056379554
-0.0040176236
8.1406324E-4
-7.776067E-5
4.3160317E-4
0.0012284149
3.188701E-4
0.001271402
7.27056E-4
1.8235321E-4
2.6035056E-4
-1.8039505E-5
0.0019231358
0.0033210372
0.003242174
0.0034544633
0.0023464977
-4.1548956E-5
-6.961853E-4
3.3810057E-4
1.21820885E-4
3.194785E-4
5.8124907E-4
-7.8781636E-4
-0.0014121555
-0.003240663
-0.0038719608
-0.0012634131
-0.0017848982
-0.0027665852
-0.0015807707
-0.0013698819
-8.3986134E-4
5.478744E-5
9.708122E-4
0.0012263895
0.0014770704
0.0021208206
6.5540476E-4
8.6136017E-4
0.0017863847
5.874164E-4
0.0019894142
0.0028545184
0.0018099573
0.0018638065
0.0014585422
7.153846E-4
-0.002433973
-0.0047508064
-0.0024759397
-0.0016083759
-0.0024897582
-0.0028840438
-0.0019726623
-4.067704E-4
-0.0015379608
-0.0018629851
-9.355609E-4
-0.00125013
-0.0012296885
-0.0013993313
5.502421E-4
0.0032050535
0.0024760666
0.001351608
9.2364365E-4
0.0012055793
0.0021549186
0.0021377113
8.5559645E-4
-1.509424E-4
0.0011065812
0.0012482939
5.4571487E-4
0.0012307034
6.0612545E-4
7.705135E-4
-9.726478E-4
-0.004053101
-0.0015056267
1.7602586E-4
-4.7306457E-4
-1.2848577E-4
-5.3922424E-5
0.0016352921
8.077131E-4
-0.0012969273
-0.0013540048
-0.0022504528
-0.0011690316
-8.9711515E-4
-0.002061016
-0.0010115994
-8.964068E-4
4.3005377E-4
9.474924E-4
-0.001865324
-0.0022717817
-0.001595789
-0.0010523283
1.4142183E-4
0.00144844
0.002822176
0.0022592887
0.0027817297
0.0029113074
-2.775314E-4
-5.524445E-4
-7.43371E-5
-6.696155E-4
0.0012027927
0.0011142029
-3.3883456E-4
5.206549E-4
0.0017645933
0.0014827994
-4.7397072E-4
-0.0013784016
-0.0018417216
-0.0019636643
-7.498268E-4
-0.002175916
-0.00193166
0.0010813611
-2.0971581E-4
-0.0012198885
-4.2534297E-4
-6.937354E-4
-1.2853356E-4
-1.8795292E-5
9.2872017E-4
0.0019447077
0.0024794962
0.0033253648
8.416105E-4
-1.4194431E-5
-7.2297396E-4
-0.004065403
-0.0017134012
1.1411943E-4
9.223374E-4
0.004208841
0.0015032836
-7.943401E-4
3.9382014E-4
0.0028551624
0.0023447548
-0.011244323
-0.01452014
3.2176042E-4
0.0033104336
6.1717135E-4
0.003314633
0.0021565186
0.0031283584
0.004220794
-5.4913027E-5
0.001301117
0.0015016884
-0.010410376
-0.012144213
0.0016716712
0.005779235
0.0029465398
0.003126302
0.0014869435
9.059023E-4
2.1133712E-4
-4.97834E-4
0.0011017733
4.3254386E-4
-2.933056E-4
-6.151352E-4
-8.853979E-4
0.0012176539
0.0014162865
5.978826E-4
0.0012051393
6.5015757E-4
-6.1138906E-4
-2.2212722E-4
0.0020791707
0.0025552958
0.0013476999
0.0010743804
-3.9538925E-5
-8.950445E-4
-9.616969E-4
-0.0017174827
-0.0021484294
-0.0021568015
-0.0019374945
-0.0015812167
-8.3161343E-4
-2.800127E-4
-4.2598625E-4
7.1595096E-5
-6.6833754E-6
-3.08936E-4
-4.147058E-5
-0.0012849686
-0.0020473194
-5.5828295E-4
0.0015550682
0.002420667
0.0015179339
3.4457614E-4
-0.001417852
-0.0019630839
4.3814743E-4
0.0013842211
1.1233463E-5
-5.6964618E-5
0.0010734501
9.844349E-4
1.6940915E-4
2.4669996E-4
-5.302702E-5
-9.278698E-4
-5.7372486E-4
6.8692013E-4
0.0016744763
0.0019812284
0.0011788686
8.873898E-5
3.3408898E-4
5.887365E-4
1.3962628E-4
-1.2460718E-5
-0.001059462
-0.0019223489
-0.0010594907
9.5479685E-5
4.639859E-4
-8.0087903E-4
-7.5994094E-4
5.027822E-4
-9.6602767E-4
-8.827155E-4
2.6006138E-4
-2.691808E-4
0.0017524883
0.0024105108
0.0011641567
0.0016181418
4.923172E-4
4.1907458E-4
9.856533E-4
-4.622225E-4
-9.072175E-5
-2.8808872E-4
-0.0017271094
-0.0017290931
-0.0016563917
-0.0014659198
-0.0016217116
-0.0014919754
-0.0012748776
-0.002718978
-0.0030887914
-3.6068322E-4
0.0026529136
0.0012766846
-9.6108543E-4
0.0010727779
0.0017186438
8.445278E-4
0.0014567546
0.0011227201
8.631041E-4
8.8671147E-4
0.0015656406
0.0017525037
8.0864184E-4
0.0017909983
0.0016341548
0.0015720082
0.0019748157
-4.2872352E-4
1.3755822E-5
7.879829E-4
0.0015653161
0.0031353154
-0.0053937645
-0.014797556
-0.013830166
-0.0065048966
0.0038646518
0.006070712
0.00274833
0.0038117438
0.002649957
0.0010619055
0.0026091184
0.0028936197
0.0018794974
7.0305605E-4
4.6173763E-4
4.894531E-4
9.024325E-4
9.664446E-4
6.960647E-5
0.0011972531
9.87824E-4
-2.009275E-4
3.8404114E-4
-8.1422186E-4
-0.0013260683
-0.0014725323
-0.0024014248
-0.0017350698
-0.0020576934
-0.002229069
-0.0031062814
-0.0034747801
2.6328157E-4
8.9727185E-4
-6.4640766E-4
-2.8034797E-4
-1.0585937E-4
0.0015365551
0.0021676
0.0022653567
0.0029306316
0.0019073605
0.0018202453
6.215896E-4
-4.6028646E-5
0.0011448987
-9.387448E-4
-0.0013739609
-6.1615065E-5
-8.577262E-4
-0.0013370281
-0.0016971685
-8.118473E-4
-0.0022666906
-0.0050584325
-0.0024483476
-1.610243E-4
9.0923463E-4
0.0024317377
0.0021626358
0.003157767
0.0025084557
0.0012856901
0.0022760245
3.258837E-4
-7.582718E-4
8.3637366E-4
7.5029867E-4
1.000372E-4
-2.4345359E-4
9.323066E-4
0.0016838663
-2.4800122E-4
-0.0015946408
-0.0016173031
-0.0011411924
-0.0011971036
-0.0018225163
-0.0022576994
-0.0023715065
1.1122637E-4
0.0015837605
6.274395E-5
4.961102E-5
-0.0011588843
-0.002250902
-1.1767171E-4
-4.4081014E-5
-6.237894E-5
0.0020277337
0.001989073
7.362378E-4
5.115043E-4
0.0010987954
1.0621438E-4
-0.0025115078
-0.0024154966
-9.5920835E-4
-4.1266493E-4
0.001233629
0.0018757526
-3.2194093E-5
-0.0011233151
-1.2620131E-4
0.0010788661
0.0010584281
-3.114715E-4
-0.0015713089
-3.386986E-4
0.0020318464
0.0021268548
0.0015665975
0.0017363757
6.1282533E-4
-4.7317953E-4
4.1530342E-4
0.0012865586
2.624416E-4
-1.8491794E-4
0.0014023624
8.6849835E-4
-6.9050747E-4
-5.3573865E-4
-0.002470171
-0.0031128065
-2.5284028E-4
-7.434904E-4
-0.0025006807
-0.002237534
-0.002221014
-8.674891E-4
0.0010200057
0.0015775772
8.7431935E-4
-0.0014575061
-0.0023279767
-0.0011432214
-3.613895E-4
2.5080363E-4
5.30135E-4
0.0010608655
0.0013923419
3.458247E-4
-1.4133997E-4
-6.740407E-4
-0.0011670432
1.4962024E-5
1.2868222E-4
-1.7376723E-4
7.047121E-4
9.0596074E-4
0.0017970738
0.002726322
0.0019752244
7.4264884E-4
-7.810518E-4
4.2751041E-4
0.0031444277
0.0015997412
5.142256E-4
0.0025094892
0.0012747056
-7.222644E-4
8.587974E-4
0.0014591546
-4.968519E-4
-0.0019068694
-0.0025245356
-0.0025836038
-0.0020374972
-0.0020790766
-0.0021477565
-9.2672254E-4
1.6310884E-4
-5.7038676E-4
-0.0019564012
-0.0026284447
-0.0023060387
-0.0011970508
-0.0010247137
-3.6060333E-4
0.0017407102
7.253333E-4
-6.614585E-4
0.0014385046
0.0018112768
1.7960175E-4
-6.9818617E-4
-2.8385077E-5
0.0023785047