0.0047688824
0.0019877763
-0.004651448
-0.0065378784
-0.0072481497
-0.008610111
-0.006034665
-0.0026179897
5.7887525E-4
0.003985212
0.007172027
0.007820044
0.003438599
-0.0010375533
-0.0039061757
-0.003999508
-1.0695557E-4
0.0021965993
0.004305297
0.0050605326
2.3918033E-4
-0.0018574421
1.5163454E-4
2.5798508E-4
-8.8457274E-4
-4.3363668E-4
0.004876483
0.008967685
0.0030761084
-0.00470247
-0.0042677224
-7.381994E-4
-0.0018087208
-0.005101756
-0.0065122405
-0.0068035987
-0.006071611
-0.003992448
-6.0990633E-4
0.0031775255
0.004792947
0.0047319243
0.004380164
0.0035648618
0.0011627622
-0.0025154145
-0.0021837298
0.0014687629
0.003444314
0.004743306
0.004305743
0.0023899092
7.626058E-4
-0.0025667916
-0.006010541
-0.008592895
-0.009108073
-0.0065364945
-0.0032322865
0.001881233
0.005020443
0.0062476536
0.00890807
0.0071941745
0.007286655
0.0048050205
-0.009757311
-0.012369673
-0.002685493
-8.130605E-4
0.0011543977
0.0039432948
0.00370663
0.0024610467
2.684E-4
0.0034735932
0.006003711
0.0030223767
5.0665875E-4
-0.002551533
-0.0022502241
-0.0010283865
-0.0064744027
-0.011206614
-0.010566568
-0.0070673423
-0.0020699932
0.0025708163
0.0045252335
0.004798327
0.006632695
0.005790862
0.0036522904
0.0049936674
6.411564E-4
-0.0071822656
-0.005735593
1.7273944E-4
0.00220926
0.003271067
0.004567179
0.0010688403
-0.0040597604
-0.0058293003
-0.0060371677
-0.0032720005
6.4787787E-4
0.0047700633
0.008962134
0.0066731507
0.0031450014
0.002960024
0.0012000828
-0.0012738873
-0.0044252025
-0.0042477218
-6.0880237E-4
-0.0013457019
-0.0024855325
-7.5728324E-4
0.0014619372
8.399883E-4
-0.0044537913
-0.005563515
-0.0028492126
-0.002344252
-7.278595E-4
4.8263086E-4
0.0011166815
0.0014359412
-2.8549245E-4
0.001046567
0.003065813
7.990497E-4
-0.0024752868
-0.0016841022
0.0044946168
0.006391011
0.0023827457
0.0022795303
0.0034258286
0.0024729767
-9.827741E-6
-0.0044944426
-0.0051498665
-0.0020562138
0.002056178
0.0066562695
0.005065366
-8.271675E-5
-0.0023021565
-0.004996552
-0.006157075
-0.0040480206
-0.0042438717
-0.004161507
3.3167005E-4
0.00359275
0.002755803
0.0018012483
0.002418224
0.0038165073
0.002416397
-0.003970201
-0.008737304
-0.0075622303
-0.0028597785
0.0028091918
0.0072532026
0.010795745
0.010605229
0.0045939614
-0.0018031007
-0.0076548606
-0.011444182
-0.009047046
-0.004330743
-1.8735617E-4
0.003478419
0.0049539334
0.0043883943
0.0049222717
0.0050562457
-0.0014708509
-0.0073124217
-0.0046100765
-3.539429E-5
0.006346006
0.011284755
0.005753761
-0.0019109796
-0.002704977
-0.0016687905
-0.0037430916
-0.004984295
-0.003008018
-0.0020706097
-3.07066E-4
0.002514288
0.0022785086
0.0015231059
0.0012413315
4.8598662E-4
-0.0024298616
-0.0060481313
-0.0042385804
-0.0014517548
-5.570443E-4
0.0019248088
0.003188931
0.0035469092
0.0029146036
8.895106E-4
-4.4126532E-4
-0.003805448
-0.005125922
-4.6132298E-4
0.004118422
0.005526958
0.003997284
0.0024117352
0.0016665998
-0.0012636831
-0.0040427144
-0.0052541294
-0.0055288007
-0.0028806052
0.0012800377
0.0032652419
0.0028663906
0.0026578503
0.0032146382
0.0022289478
-3.5389507E-4
-0.0014301023
-0.0017270147
-0.002382696
4.6749634E-4
0.0022340254
-0.0010301159
-9.637817E-4
6.5073103E-4
-5.0009624E-4
-8.1703847E-4
-0.0022545834
-0.0024245
8.38935E-5
6.357494E-4
0.0026431936
0.005098737
0.0037359968
0.0020610234
5.4723E-4
-0.0015127497
-0.0031216631
-0.004988923
-0.0062420317
-0.0049404306
-6.7870703E-4
0.0030427475
0.0032416307
0.0026755228
0.0025315038
-9.061557E-5
-0.0040332316
-0.0046204897
-0.0015019649
0.0018288296
0.0032164229
0.0030948797
0.0018683616
7.8914803E-4
0.002668961
0.0033621946
1.857749E-4
2.8642395E-4
0.002622832
0.0019655419
-6.7881064E-4
-0.0024310236
-6.706574E-4
-0.0032186608
-0.007921276
-8.4829016E-4
0.004909101
-9.064256E-4
-0.004449303
-0.0024712002
0.0013160161
0.004417104
0.005280368
0.00497448
0.0011876286
-0.002151167
-0.0016913677
-0.0012967332
-8.647852E-4
-0.0014884744
-0.0023537567
-5.0198374E-4
0.0015566325
0.0022086261
-7.855077E-5
-0.0037812877
-0.004946576
-0.005556894
-0.0046580806
-2.6066814E-4
0.002939521
0.0038068204
0.0056866426
0.0069389115
0.0034842922
-0.0028493947
-0.0064570084
-0.0051097674
-0.0022292917
-6.4008526E-4
0.0028924637
0.0065152473
0.0049009877
0.0032254076
0.0044107223
0.0035301181
9.805156E-4
3.8642308E-4
0.0016852667
6.8592455E-4
-0.0036199598
-0.005420698
-0.0027772647
1.5198215E-4
-2.007321E-4
-0.0041504656
-0.007108716
-0.0048328256
-0.0012602627
-0.0011781174
-5.86802E-4
0.0018860674
0.002666764
0.0038346963
0.0038954124
4.1111917E-4
-0.002112144
-0.0031890436
-0.0027976148
-5.6450156E-4
0.0024452754
0.008017003
0.009143513
0.003243646
-2.44308E-6
-0.0021827675
-0.0057558
-0.0061189574
-0.0028499363
0.0014981915
0.0015292275
1.16600815E-4
0.0024388868
0.003214155
0.0018013489
-9.627867E-4
-0.0055045485
-0.00616433
-0.0024614355
0.0010334777
0.002512927
0.0028432577
0.0028304693
0.0031104507
0.0031916737
-0.0011770728
-0.005139682
-0.0031226166
-9.981927E-4
0.0036841359
0.008167508
0.002845533
-0.0022856372
-0.0014636173
-4.2089412E-4
-8.5382664E-4
-0.0048978413
-0.0070006023
-0.0037875895
-9.341242E-4
0.0020785567
0.00377515
0.0019222172
0.0023662825
0.004649697
0.0020986712
-0.0026137345
-0.0040068557
-0.0045385114
-0.0025984014
0.003904492
0.0055972314
5.2973523E-4
-0.0023140693
-0.0015618209
-0.0020109285
-0.004219652
-0.004152527
-7.433828E-4
0.004284069
0.008921212
0.010016203
0.0071950164
0.002200102
-5.813481E-4
-0.001479911
-0.0077964957
-0.0124756545
-0.007824098
-0.0019712467
0.0021364433
0.0031559188
0.0018328205
0.0049604345
0.0057786545
5.875967E-4
-0.002352775
-0.004595742
-0.005730563
-4.3708255E-4
0.004724973
0.004797067
0.004487097
0.0039350204
0.0010644323
-0.0016421411
-0.0038508174
-0.006005943
-0.00548808
-0.001673105
0.0021206413
0.0032077401
0.0037439463
0.004219063
0.0021696202
-6.3906657E-4
-0.0035944215
-0.005298035
-0.002814937
-3.530785E-4
4.983579E-4
0.0017856755
0.0024503293
0.0028652784
0.0015836159
-0.0014221494
-0.0035360607
-0.0050516003
-0.004395735
-0.002110627
1.4500454E-4
0.0031774074
0.0035399825
0.0023237753
0.0024835342
-4.3007484E-4
-0.00460309
-0.0043979287
-6.373014E-4
0.0029965495
0.0034219108
0.002867512
0.0026824027
0.0019301792
0.0032435453
0.004057792
0.002098861
1.4541132E-4
-0.0011375631
0.0016862259
0.0057331733
0.00523685
0.004299747
-6.844475E-4
-0.01012286
-0.012231208
-0.009956492
-0.008122723
-0.0029080461
0.0013009609
0.0029594377
0.004984154
0.004544637
0.002094281
6.9271843E-4
-0.001141543
-0.0051220376
-0.007636323
-0.0042982674
7.4984954E-4
0.0019641046
0.002634617
0.004821779
0.0044328035
0.0023990597
0.0020225376
-5.7987595E-4
-0.0047901575
-0.0012500762
0.0067510256
0.007240076
0.0032687685
0.0010154902
-0.0011621389
-0.0015959258
-0.0018864064
-0.005232727
-0.0067199576
-0.0048083863
-0.0017297951
0.0017915618
0.0050042863
0.0085646175
0.008286449
8.569892E-4
-0.007265494
-0.009978222
-0.0072661266
-0.002636193
0.0019871842
0.0055422904
0.006022077
0.006372579
0.0062125376
0.0021995278
-7.346956E-4
-0.00227775
-0.0049659493
-0.0043407585
-0.0019138985
-0.0011472837
1.8055616E-4
0.0011683288
0.0014137076
0.0028771092
0.0012494585
-0.00509894
-0.0076141753
-0.004121344
-7.731123E-4
0.0017409043
0.004021536
0.0039734934
0.0024597622
0.0019461955
1.8109936E-4
-0.0053939074
-0.008067059
-0.0037741861
4.9884565E-4
0.0018262168
0.002783865
0.0034198011
0.0026967337
0.0013412588
5.7890214E-4
-0.0010433419
-0.0030270643
-0.0030058315
-6.1212794E-4
0.0042364635
0.0077954233
0.006772462
0.0037832211
0.0015146572
3.8054754E-5
-0.0020191006
-0.003647759
-0.003353444
-8.472741E-4
0.0024721152
0.0018629633
2.787654E-4
7.784894E-5
-8.8125415E-4
7.825188E-4
-0.0022427472
-0.007302786
-0.002798034
-0.0040714396
-0.0076803183
8.0978556E-4
0.0039137746
0.0012117161
0.0017230996
-0.0011553225
-0.003621245
-0.0036170874
-0.0025780878
1.0175994E-4
0.001368231
0.002790983
0.0034291234
0.003040192
0.004838447
0.0052498532
0.0012417077
-0.005334791
-0.0065055727
7.3108956E-4
0.0056575476
0.0054964353
0.0050182547
0.0039304416
0.0026991523
-1.3816777E-4
-0.0046198773
-0.0054605594
-0.0033930526
-0.001604681
9.707638E-4
0.0025655504
0.0017348118
4.9951125E-4
-4.6637573E-4
-0.0013092866
-0.0046646437
-0.0075249188
-0.0028203246
0.0012873175
5.2092335E-4
0.0030448285
0.0050331075
0.0031713017
0.0011306764
-0.0014608338
-0.004339861
-0.0071323467
-0.0051820246
9.687154E-4
0.0014623754
0.001106072
0.0036864774
0.0025355269
0.0017986269
5.042583E-4
-0.004048415
-0.0034808095
-0.0014340436
-0.0016005851
0.0020291596
0.0051859766
0.0055540153
0.005678773
0.0034494288
0.0010644647
-0.0018716403
-0.0054412214
-0.0042809644
-0.0018531245
-5.044038E-4
0.001459144
8.712453E-4
7.273146E-4
0.0024473474
2.7180774E-4
-0.0042261607
-0.005057693
-0.0015395811
5.388556E-4
5.797235E-4
0.003685867
0.004917438
0.0031547637
0.0040994463
0.0021929126
-0.003869186
-0.007810191
-0.0073055015
-0.0010366503
0.0040471153
0.0031107208
0.0026119307
0.0034302676
0.0027001384
-0.001395877
-0.0068064258
-0.007064362
-0.0041950285
3.079446E-4
0.0058805184
0.0052647064
0.0010566809
-8.4150746E-4
-0.0011791281
-0.0011886412
-0.0016567233
-8.875224E-4
-0.0010665547
-3.3087612E-4
0.0044936636
0.0033228912
-3.7009997E-4
0.0016748618
0.001157882
-7.9229765E-4
-0.0022619774
-0.0056638387
-0.0045705996
-4.0264963E-4
0.0010528276
4.2523988E-4
0.001152991
0.0032477723
0.0016667203
-3.1376706E-4
-3.0499388E-4
-0.0022792376
-0.0031126412
-0.0010692602
0.0027337032
0.0052475636
0.0031819956
0.0025367911
0.0040735537
0.0026712925
-4.4467676E-4
-0.0034128688
-0.003512917
-6.966384E-4
0.0016935128
0.003628664
0.004142812
0.0022998461
-3.8913905E-4
-0.0033377893
-0.005905014
-0.006709876
-0.00585583
-0.0044705295
-0.0019159394
0.0011584677
0.0022201017
0.0018941638
0.0012553062
-5.363922E-4
-0.003303628
-0.0054550786
-0.0053242845
-0.0023035922
0.0025386573
0.006685382
0.008248411
0.0064593107
0.003771017
0.0038878026
0.0021015834
-0.0047711865
-0.00812522
-0.0046268273
-0.0013486951
-4.1913748E-4
0.0030616857
0.007313632
0.0058653303
0.001457457
-0.0015627393
-0.0027009388
-0.0021835857
-0.0024344176
-7.0768915E-4
0.004228952
0.0046804785
2.5476317E-4
-0.0015223392
-2.9780991E-5
-6.33255E-4
-0.00452373
-0.0072325994
-0.0038460286
0.0015608553
-9.4768073E-4
-0.0046655107
-0.0013012062
-9.918514E-4
-0.0044230614
-0.0049804067
-0.004797811
-0.0026592512
0.0020193618
0.005879761
0.0062945173
0.0046884064
0.0030133775
-6.528509E-4
-0.0019126909
-0.002334046
-0.0069409017
-0.0070947534
-0.0029309692
2.3438047E-4
0.0023599141
0.0016904407
0.003006411
0.0062455833
0.007058894
0.005151073
0.0017546179
0.003411959
0.00632202
0.0061776927
0.0061203386
0.0028767425
6.3188054E-4
-0.0016372254
-0.0080135465
-0.012453878
-0.016843326
-0.016193278
-0.012988087
-0.016837126
-0.010696315
0.004200309
0.008954978
0.007331552
0.005087261
0.0026219024
-7.5763295E-4
-0.002816232
-0.0013435592
-0.0011430945
-8.836249E-4
0.0017831939
0.0059605073
0.011804653
0.014574999
0.0144932475
0.024042651
0.044186756
0.05363159
0.051290505
0.054030787
0.05184296
0.03463273
0.011058608
-0.012957699
-0.040285375
-0.07215684
-0.0910603
-0.093377784
-0.08906596
-0.07018589
-0.04937498
-0.034756005
-0.002106202
0.036905374
0.046878982
0.028865654
0.010678235
0.009137635
0.012800026
0.007299404
-0.005892218
-0.017161028
-0.016201638
-0.015706044
-0.037906863
-0.06613943
-0.07412323
-0.059651747
-0.030968802
-0.0121184755
0.003050303
0.06487434
0.15069698
0.17151518
0.12466561
0.08573507
0.08794799
0.10208441
0.08811931
0.057524227
0.02159449
-0.050066765
-0.08177818
-0.03524482
-0.047352627
-0.07036376
0.01710922
0.090673946
0.085056275
0.06462471
0.050191257
0.023475712
-0.0830724
-0.21461426
-0.25935984
-0.2677751
-0.24622661
-0.170934
-0.12342659
-0.096724406
-0.054638002
-0.027741501
0.02558793
0.12500645
0.19192685
0.21771847
0.25941712
0.29385048
0.24716845
0.10254844
-0.07077581
-0.15516923
-0.10175361
0.008854807
0.06457479
0.031188464
-0.008921677
0.009184039
-0.007905613
-0.10954904
-0.1895698
-0.18801387
-0.12033497
-0.034548935
0.0139729325
0.07247449
0.16614534
0.17102085
0.069760375
-0.0011965641
-0.045223605
-0.07255514
-0.028632462
-0.047165915
-0.12504654
-0.11215753
-0.049612872
0.122884735
0.29658887
0.20336579
0.059333734
-0.01816506
-0.06970277
0.09709617
0.23506759
0.1076852
0.01852699
-0.024751704
-0.25520322
-0.5157051
-0.49235982
-0.24036288
-0.029153533
0.123580456
0.24576825
0.28174326
0.27704123
0.23641124
0.100318715
-0.11594012
-0.27111033
-0.23518123
-0.11498793
-0.08457426
-0.10206201
-0.0345713
0.060111683
0.08129407
0.0998477
0.10545301
0.04480425
0.05603266
0.17039035
0.1881485
0.070785835
0.02948195
0.11444485
0.0922698
-0.1335546
-0.2716404
-0.14930348
-0.069872886
-0.09900917
-0.024882011
-9.407342E-4
-0.0483959
0.025442855
0.1352881
0.1652067
0.11517478
0.09095025
0.036082238
-0.17620726
-0.25710937
-0.14861746
-0.08634893
-0.005604616
0.1350914
0.31059772
0.36627463
0.14642902
-0.083635926
-0.14473432
-0.1257061
-0.13564932
-0.18870236
-0.1372278
-0.05607272
-0.024084475
0.06363235
0.10987566
0.0655389
-0.003926233
-0.07147031
-0.08786419
-0.06625681
-0.04856179
-0.082876645
-0.059695292
0.08419974
0.12985328
0.15007085
0.239406
0.17845845
0.027338024
-0.048037596
-0.04053038
-0.031167604
-0.09971095
-0.10348957
-0.018601485
0.051636577
0.097238675
0.035485186
-0.044768788
-0.05880081
-0.10484675
-0.08859874
-0.0015134523
0.012461937
-0.018479649
-0.022747386
0.003132219
-0.025440447
-0.06058645
0.076215565
0.2277067
0.15564477
-0.013209981
-0.08847171
-0.08641613
-0.072425574
-0.035950176
0.018825883
0.061800163
0.07467636
0.059238385
0.04805469
0.015913563
-0.013059824
0.012555707
-0.02653808
-0.118313834
-0.12568338
-0.11000651
-0.092583984
-0.02852984
0.019631267
0.053992085
0.107439265
0.10861599
0.03673094
-0.01902684
-0.05140143
-0.08581405
-0.048785266
0.036598198
0.052229404
-0.0060183695
-0.03949421
0.018067947
0.08949689
0.09652018
0.06329958
-0.0013103235
-0.05323524
-0.05560729
-0.06259815
-0.04530209
0.06274922
0.1527694
0.1117009
0.015339088
-0.07826094
-0.1452177
-0.10141229
-0.02816346
-0.02730805
-0.020425705
-0.0016733463
-0.0018177785
0.007519633
0.011697617
0.006447622
0.0041417764
0.010176786
0.012872506
-0.0044542677
-0.0077961315
0.0073115407
0.01293201
0.015535531
0.017663948
0.015366732
0.008847804
0.0076846355
0.01117842
0.0086989105
0.012423203
0.009783024
-0.0071047912
-0.008130143
0.0017234574
0.0027252818
-0.0029301727
-0.012473699
-0.019265965
-0.016792312
-0.009962398
-0.007161211
-0.008233152
-0.007683431
-0.006963082
-0.01371492
-0.017573738
-0.0036922365
0.0049661133
-0.002540246
-0.0033981996
6.093357E-4
0.0034926787
0.0065439506
0.0016696459
-0.005907497
-0.0065591387
-6.128856E-4
8.8190276E-4
-0.004942476
-0.0014270411
0.0038533222
-0.0024292306
0.0023677119
0.019715738
0.024491582
0.031191314
0.043587178
0.029218847
0.010282539
0.005529097
-0.019234885
-0.038511265
-0.022989266
-0.008017555
3.8695484E-4
0.008848886
0.0074894913
0.0020247535
-0.0021839624
1.3228956E-4
0.005090401
0.004136602
0.0031188303
0.001272383
-0.0011498139
-0.002035803
-0.006090864
-0.009266083
-0.007539513
-0.0019480449
8.2258944E-4
-0.0025063057
-0.0020593817
0.0018649074
0.0030664206
4.234008E-4
-0.0071921065
-0.013310301
-0.011968916
-0.006357908
-0.0044945097
-0.0055656205
-0.007046155
-0.015662923
-0.01968265
-0.015484743
-0.01919692
-0.018853432
-0.008916631
0.0029372994
0.021273943
0.032608315
0.03391039
0.036428925
0.03184193
0.021913553
0.01585423
0.014194509
0.016262945
0.017359989
0.017045867
0.015276996
0.011895737
0.009488503
0.0040635117
-0.0036967408
-0.008902489
-0.009767941
-0.010254589
-0.020875232
-0.031315167
-0.027174862
-0.02114424
-0.019125866
-0.017865254
-0.020425268
-0.020324454
-0.015306405
-0.010823356
-0.0067078373
-0.0041098176
-1.3694486E-4
0.0074649793
0.011689134
0.013115472
0.016037652
0.016789936
0.013439381
0.007104649
0.0017334708
0.0052376334
0.014903341
0.018839654
0.01640601
0.014177507
0.009468579
-0.0044630417
-0.021966286
-0.027788945
-0.02040049
-0.010364248
-0.0014386702
0.0036528993
0.004890102
0.008245042
0.009955136
0.0044001304
-0.0045198794
-0.009165428
-0.0046978593
0.0029183626
0.009496413
0.015562364
0.0162932
0.012632533
0.00608616
-0.00128813
-0.0050885137
-0.011395706
-0.014664061
-0.00702674
2.850685E-4
0.004999866
0.003247323
-0.011163604
-0.019737015
-0.012472096
-0.0019830498
0.0051020384
0.008304071
0.00560312
1.6496713E-4
-0.0056391116
-0.017399827
-0.027043952
-0.023925724
-0.016721116
-0.0047795433
0.013173505
0.026320493
0.03271721
0.03139107
0.026628423
0.01820326
-0.0016145209
-0.017792398
-0.022122547
-0.020407803
-0.011267912
-6.630402E-4
0.010749214
0.01806668
0.01276361
0.0065385145
0.0023364283
-0.0025528423
-0.0071184738
-0.012183715
-0.009448372
-0.009817752
-0.020194057
-0.018556492
-0.00701267
0.003630393
0.01249993
0.006904056
-0.0077973637
-0.013274571
-0.008248784
0.0016790631
0.00507376
-0.0018818389
-0.0025074547
0.005145216
0.004756542
-3.73396E-4
-2.4452998E-4
0.0024697944
0.006881551
0.010455652
0.012244586
0.016059907
0.015379998
0.007078148
-0.0017548944
-0.008385125
-0.011188081
-0.008530335
-0.0039129253
-0.0035481623
-0.0056075715
-0.0019040544
0.003972489
0.0054574893
0.0042468417
9.1216515E-4
-0.0024785197
-0.0032068933
-0.0012170466
0.0037434115
0.0071660373
0.0048161265
4.0182905E-4
-0.0013010299
-0.0010994977
-0.0021302209
-0.0021372552
6.8782375E-4
0.002838768
0.0051173056
0.0081330985
0.007812646
0.0050400007
0.0017879349
-0.0015712682
-0.004337629
-0.008664587
-0.011006417
-0.008145803
-0.005010429
-0.0012530057
0.0022968967
0.0030009097
0.0045901965
0.004458919
8.6197304E-4
-0.002621958
-0.0047267084
-8.433296E-4
0.005588969
0.00634219
0.0034194055
-9.166592E-4
-0.0034193315
-0.004090201
-0.008900725
-0.013720147
-0.013503756
-0.008786407
3.1117292E-4
0.00878193
0.013040991
0.013915785
0.012214408
0.007107625
-0.0018335936
-0.0058286246
-0.0016507995
0.0024664353
0.00587415
0.0073981816
0.0042776065
2.4830757E-4
-0.0016363683
2.1147796E-4
-0.0023467399
-0.008134992
0.0011584421
0.01698374
0.0228178
0.021797976
0.013854936
-2.3684102E-4
-0.018766768
-0.031323604
-0.024919976
-0.015478376
-0.012451027
-0.00744743
-0.0011674943
0.0048944014
0.002574392
-0.003276963
0.003317916
0.009251278
0.005100521
1.0615679E-4
-0.0028427772
-0.0018157411
0.0018184157
0.006301963
0.009638585
0.0066699903
0.0026586163
0.0025886602
0.0018378226
-0.0014145056
-0.0033532586
-0.001368044
0.0020932541
0.004419645
0.004685482
0.003665262
0.0030006836
0.0016721324
-0.0013130615
-0.006852571
-0.01056869
-0.0060480814
-3.2775718E-4
-5.513289E-5
-5.8562717E-5
0.0023815343
0.003861294
0.0021237915
-1.6656215E-5
-0.0011251993
-0.002599807
-0.002192368
0.0013071737
0.004391249
0.003256686
2.1413273E-4
1.6346261E-4
0.0010753429
-0.001461914
-0.007385776
-0.010266639
-0.0058841323
4.9006095E-4
0.005134727
0.007181377
0.0069187903
0.0057820394
0.0020028288
-9.41675E-4
-0.0016197797
-0.0034774086
-0.0011617193
0.0030177906
0.0012145498
7.329281E-4
0.0055366135
0.006305099
2.7684224E-4
-0.004845582
-0.006678242
-0.007856157
-0.006254291
-0.0016956312
0.0018579675
0.0024097932
0.0021656652
0.0051922807
0.007357536
0.0021363003
-0.0057329717
-0.0077802325
-0.0037869634
-5.1384396E-4
-1.0800002E-4
0.0010343764
0.0034108923
0.00610417
0.0069771474
0.003201679
-0.0028149816
-0.0069417628
-0.006419437
-9.4972545E-4
0.003878993
0.004256432
0.004412351
0.005503426
0.0025732468
-0.0022922272
-0.0031585793
-0.002635575
-0.0045476076
-0.0044915895
-1.7058544E-4
0.002317214
0.0017999373
0.0016764922
6.92926E-4
-0.001267286
-0.003552447
-0.0042202133
-0.0012023675
0.0010376823
0.0032907058
0.007300754
0.008542118
0.0069127865
-4.377529E-4
-0.009012827
-0.008767087
-0.0069119153
-0.0044582244
7.8980706E-4
0.0021891843
0.0043783905
0.004479171
7.736814E-4
0.002865832
0.0016210394
-0.0047184043
-0.006232264
-0.0052335556
-9.595959E-4
0.0027702255
0.0033703477
0.006301059
0.0071370644
0.004609401
7.2180113E-4
-0.0027530382
-0.002319021
-0.0015264882
0.00325774
0.008963859
0.0028110335
-0.0049375943
-0.0046206885
-0.002901448
-0.0032108664
-0.0059197457
-0.0073935017
-0.0051017287
-4.7688003E-4
0.003762057
0.004145484
0.0035348071
0.0027044693
4.5999917E-4
-0.0015791489
-0.006063552
-0.008190621
-0.00453345
-0.003128417
-0.0019190056
0.0023767613
0.0049075778
0.005781767
0.0063552484
0.0070159812
0.006909186
0.0038573376
6.8555446E-4
4.7514062E-5
4.247045E-4
0.0016352157
0.0042679575
0.0062698936
0.004686238
-0.0019721747
-0.010241089
-0.011520566
-0.006270518
-0.0024405278
0.0018774364
0.005650185
0.0021563575
-8.258414E-4
9.797743E-4
-0.0017641059
-0.007534737
-0.009402785
-0.0073943054
-0.0018962875
0.0028269377
0.003931655
0.0060661663
0.007190348
0.0037038003
5.370079E-4
-0.002143249
-0.0049909926
-0.003294445
0.001030858
0.004206658
0.0049615745
0.003848914
0.0049759196
0.0047508003
7.526443E-4
-0.0038008213
-0.011086397
-0.010603254
0.0016565273
0.0056746583
0.0035665433
0.005929482
0.00409526
3.2037913E-4
-0.0010766053
-0.004686137
-0.0076613333
-0.0066051795
-0.0026307784
4.926561E-4
0.0012866948
0.001856428
0.0017018317
0.0018864041
9.7495737E-4
-0.0028426459
-0.0044359392
-0.0036646181
-0.0013521863
0.0037988718
0.0061864313
0.005577894
0.0069816313
0.007297784
0.0034418462
-0.0027353386
-0.007963752
-0.0062777493
5.275973E-4
0.0035324418
0.004971891
0.0067716753
0.004481702
0.0017793558
-0.0011393968
-0.0059909835
-0.0074242256
-0.005747569
-0.0029143086
-7.267837E-4
-0.0010748518
6.2199257E-4
0.0031850124
0.0019916967
-0.0011802689
-0.004478885
-0.0053684246
-0.002603136
5.243423E-4
0.0016254063
0.0020209197
0.0037523007
0.005596758
0.0055497917
0.0024642958
-0.0018806173
-0.0036291056
-0.004297873
-0.0041067963
-0.0016874928
-3.5023576E-4
0.0010028292
0.0020866331
-1.6495507E-4
-0.0013748421
-0.002796924
-0.0074055414
-0.008074239
-0.0031539903
0.0028043953
0.0062616337
0.0057028253
0.006410732
0.0081866905
0.0036797212
-0.004558071
-0.008962342
-0.0068298434
2.614731E-4
0.008089986
0.013290987
0.0156019265
0.017802952
0.016017482
0.004067948
-0.0051962514
-7.175944E-4
0.0016704298
-0.009910745
-0.021924699
-0.020679995
-0.011410931
-0.0036203451
2.8965584E-4
-8.6696644E-4
-0.0046633724
-0.006659191
-0.0057273745
-0.0017492404
0.0019569395
0.0030951046
0.0035677806
0.003731375
0.0029211384
3.9485432E-4
-0.0019048258
-0.0018117478
-2.7294253E-4
0.0030925022
0.0060755764
0.007225827
0.008001871
0.006900895
0.0062506422
0.005071989
-0.0010886232
-0.0059934994
-0.0058329282
-0.003274204
-5.736293E-5
5.719484E-4
-5.559454E-4
-8.3779485E-4
1.14599825E-4
-2.996568E-4
-0.004714713
-0.0058349036
-0.0023279649
-0.001775523
-5.3666503E-4
0.0029503962
0.0045943423
0.0062870583
0.0061940774
0.0022754
-0.0027230287
-0.005935187
-0.0039516077
5.8702345E-4
0.0029208823
0.004707508
0.008137874
0.010733684
0.005960978
-0.004722235
-0.010850139
-0.010787897
-0.009033245
-0.005625392
9.562757E-5
0.0044917455
0.0042039314
0.0024757592
7.823561E-4
-0.0018375565
-0.0043816124
-0.007666202
-0.007928889
-0.0034541704
4.2331015E-4
0.0034604794
0.0052095805
0.005057066
0.0049202596
0.0029198173
1.5553785E-5
-0.0016401225
-0.0019823972
2.1901359E-4
0.0035863272
0.0056881495
0.0051061353
0.003698374
0.0037591313
0.0019167556
-0.0019810214
-0.004847346
-0.005363884
-0.0030022075
-0.0011374945
0.001369043
0.0052127703
0.003387302
-8.45498E-4
-0.0022713512
-0.004211039
-0.005485828
-0.0064260275
-0.0072241435
-0.0038237108
1.457168E-4
0.0020568743
0.0043723406
0.005240171
0.0030358357
-7.4267545E-4
-0.0032314584
-0.002894812
8.350092E-4
0.006820241
0.008608457
0.008909693
0.0118087055
0.0062749535
-0.0041741384
-0.0066830814
-0.007046772
-0.008061713
-0.0066623935
-0.0031068379
0.0042562014
0.008847913
0.0058384337
8.056703E-4
-0.004710427
-0.009409429
-0.009991684
-0.0076853926
-0.004082978
-2.7698665E-5
0.002728689
0.0040381323
0.004797257
0.0041145654
0.0026682066
8.39212E-4
-0.0032922495
-0.0048998673
-9.340085E-4
0.003064066
0.0049953433
0.004300801
0.003262619
0.004573484
0.0018628413
-0.0034791385
-0.0048446273
-0.0044649323
-0.0016957296
0.0026928117
0.005479043
0.00582563
1.3686715E-4
-0.004262841
-0.0019646927
-0.0028287584
-0.0047427136
-0.002921196
-0.0015733399
9.670622E-4
0.0035153315
0.004648265
0.0055403374
0.0026949504
-0.0012781152
-0.0036192324
-0.00601072
-0.006176909
-0.0033430979
0.0016040948
0.0053858296
0.004718405
0.0037305783
0.0042403257
0.003774127
0.0010081988
-0.0045800875
-0.0075289165
-0.0041965344
-0.0013515444
-0.0013271045
0.0013780153
0.0047280476
0.003419805
-2.0174279E-4
-0.0032010658
-0.0057251942
-0.0065544597
-0.00350783
0.0023626615
0.006783675
0.007323788
0.004739125
0.0031727594
0.0031524599
1.7493039E-4
-0.0029856907
-0.004771363
-0.005478654
-3.2778532E-4
0.004364053
0.0040106806
0.003523251
9.750034E-4
-0.0021289089
-0.004939618
-0.0084572425
-0.0073084095
-0.0046097655
-0.0014712623
0.0039717704
0.004595457
0.0031294362
0.0032491968
6.823762E-4
-0.0020970635
-0.004360294
-0.0052943025
-4.9305987E-4
0.004986287
0.0050735483
0.004183705
0.0063328464
0.005902275
0.0017319834
6.1323744E-4
-2.5980544E-4
-0.0036203235
-0.00370021
-7.325751E-4
0.0035751357
0.009073952
0.010414513
0.0034843371
-0.007069288
-0.011512339
-0.009642747
-0.007808781
-0.0045854268
8.9573E-5
0.0023266186
0.0020229935
0.001349805
0.0027943603
0.0022835974
-0.0031270199
-0.007291519
-0.008003343
-0.004624073
0.001361328
0.003530201
0.00413846
0.0055391635
0.0048691495
0.0025265543
-0.0012905619
-0.0037162632
-0.0034197462
-0.0028442962
-8.969369E-4
0.0012698115
0.0022807275
0.0025628917
0.002405843
0.0025376333
-6.5679994E-4
-0.0037618633
-6.477251E-4
0.0033200162
0.0073423004
0.010315249
0.006166284
0.0010386199
-3.9159606E-4
-0.0017399238
-0.0037213427
-0.006542793
-0.0076519577
-0.004843743
-3.898748E-4