-0.0014990002
-0.0011447099
8.0917336E-5
5.7566864E-4
0.0016905357
0.0028844746
0.0018992331
0.0015363911
0.0029880363
0.002607466
0.0015844388
5.8294507E-4
-0.0017419704
-0.0022934075
-0.0010874643
-2.8076096E-4
2.1149692E-4
7.2633143E-4
0.0014905485
6.85455E-4
-8.0264243E-4
-0.0012739076
-8.9453283E-4
9.1616315E-4
9.866464E-4
-2.7051428E-4
-4.6108323E-4
-6.078565E-4
8.130997E-4
3.867278E-4
-0.0014580619
-7.9780136E-4
-0.0016184612
-0.0011375382
0.0010369244
0.0028987245
0.0047935285
0.0021911496
0.0036519433
0.0011850388
-0.015011209
-0.012638715
0.002968629
0.001955551
6.698293E-4
0.0033447687
0.0018562501
0.0020984658
9.929031E-4
4.0164316E-4
0.0016467945
-4.2764565E-5
-0.0020734833
-0.0015735857
0.0016726948
0.0033460236
0.0022750946
0.002234604
0.0028006549
0.0036101257
0.0022298296
-6.817673E-4
-0.001264699
-0.0018742356
-0.0022715952
-0.002186335
-0.0025466154
-0.0012687865
-7.167209E-4
-0.001460022
-0.001164432
-0.0013386221
-0.0024794748
-0.0019116402
4.2034622E-4
8.631608E-4
5.742742E-4
7.3741365E-4
3.3826343E-4
0.0020522452
0.0016408938
-0.0012543468
-3.4499317E-4
-7.2693586E-4
-0.0012066351
9.81842E-4
-0.0024915023
-0.004899228
2.8275212E-5
0.0015917488
3.2703398E-4
0.0015032042
0.0010532021
2.0218834E-4
0.0017236834
0.002914241
0.003213861
0.0029879774
0.0015139568
-2.2871085E-4
-5.290695E-4
3.1837955E-4
-7.9838326E-5
-9.943913E-4
-0.0010081686
-0.0014460495
-0.0014935175
-0.001460176
-0.0016061101
4.4010958E-4
0.0014945951
-3.3602028E-4
-0.001022932
-9.748132E-4
-0.001694931
-0.0014951637
1.5040137E-5
0.0013834868
0.0014134002
9.168768E-4
-3.681213E-5
-0.0018720977
-0.0015165438
8.146636E-4
5.109089E-4
-4.1499337E-5
0.0018558091
0.0021551086
0.0012267823
-3.4472198E-4
-0.002791708
-0.0026595555
-0.0020967487
-1.3814284E-4
-0.0016159773
-0.013985166
-0.0129959
0.004614072
0.0073097986
0.0031097853
0.0046292287
0.0015500606
5.6787295E-4
0.0032561722
0.003384996
0.0039274693
0.0044320887
0.004359398
0.0040195524
0.0028408123
4.520619E-4
-0.0014676219
-0.0014653059
-0.0024916874
-9.2400546E-4
0.0015766416
-4.9132935E-4
-0.0012590664
-0.002580796
-0.0022781086
6.772378E-4
-0.0030863443
-0.0017807048
-0.0016514709
-0.015863528
-0.014929445
7.406923E-4
0.0049464637
0.0045229485
0.0035963196
9.7019784E-4
-3.7095763E-4
-0.00214708
-8.919069E-4
0.0013125811
0.0018850031
0.0037409656
0.004083751
0.0035814245
0.0033671383
0.0013069188
-3.982662E-4
-0.0013133935
-0.0016804041
-2.6801476E-4
0.0013578509
0.0025801861
0.0032925673
0.0018360156
-3.5992576E-4
-0.0014659346
-0.0024581135
-0.0027573023
-0.0024389594
-0.0016541977
1.5108008E-4
2.8527158E-5
-4.546476E-4
8.383411E-4
6.8008347E-4
2.6565723E-4
-0.001012983
-0.0029427134
-0.0012056853
-1.2537676E-4
-2.4527943E-4
0.0016126229
0.0015429704
8.049298E-4
0.0014501377
9.6391153E-4
-0.0012088397
-0.0029549852
-0.001759212
-4.5011757E-4
-1.07399785E-4
8.413079E-4
7.37485E-4
0.0013520267
0.0011161237
-0.0012209311
-4.2738728E-4
-4.3389987E-4
-0.0028779712
-9.949572E-4
0.0018835887
0.0017101817
0.00113372
0.0011511443
0.0020504636
0.0013764352
-0.00205125
-0.0034975756
-0.0026558982
-0.0018982989
5.843371E-4
0.0028410677
0.002130991
0.0014068616
0.0019205764
0.0016091368
-0.001213538
-0.0034445196
-0.0017511965
-0.0010683005
-0.0012996595
4.927449E-4
4.2788868E-4
0.0011941524
0.002403572
-2.4079687E-4
-8.16826E-4
1.6461681E-4
-8.45912E-4
-0.0012807318
-0.0012997127
6.436597E-4
0.0025875883
0.0017387165
0.0015951542
-1.18180695E-4
-0.0036155046
-0.0034192398
-0.0023551416
-0.002517992
2.821375E-4
0.0031618904
0.002956284
0.0036944621
0.0029179698
-3.907923E-4
-0.0013985184
-0.0025229454
-0.0022203934
0.0010816884
0.0027783457
0.0032783786
0.0018541627
7.964434E-4
0.0011116696
-8.319394E-5
5.56948E-4
-5.781223E-4
-0.0012431048
0.0010186052
-0.0021488706
-0.0013512939
-0.0036065562
-0.01661277
-0.010428209
0.004379071
0.0022444804
0.0013523698
0.0024907968
-0.001078975
8.6816546E-4
0.0041902005
0.003587463
0.0026426145
0.0022405616
0.0013223836
5.8033265E-4
8.2410016E-4
8.6384127E-4
0.0016935644
0.003130697
0.0039881323
0.003955384
0.0017012644
6.843869E-4
0.001041634
-0.0017798963
-0.005219522
-0.0053810007
-0.0022769226
6.174109E-4
9.7193196E-4
5.61115E-4
-3.0095747E-4
-0.0014425212
-0.0026703747
-0.0031947054
-0.0025648049
-0.0025179554
-9.068863E-4
0.0012726072
0.0010474361
0.0019360441
0.0031809246
0.0023167497
7.04561E-4
-9.46929E-4
-0.0010786874
-7.5530773E-4
-0.0013051352
-4.1637855E-4
0.002392121
0.0037643947
7.5282285E-4
-0.0017580991
-1.5305803E-4
-4.285917E-4
-0.0031031745
-0.0029934635
-6.614903E-4
0.0015072494
0.0023426446
0.0015656826
0.0018256187
0.003396945
0.0017311424
-0.0018027384
-0.0023931956
-0.0017459559
-0.0012774725
-2.4251656E-4
0.0010846887
0.002595723
0.00259765
0.0017819899
0.0012463222
-7.473837E-4
-0.0023297654
-0.0023815904
-0.0017065696
6.5937755E-4
0.0018938405
1.8376712E-4
-0.001140207
-0.0012650937
-0.0014975589
-0.002574745
-0.003299835
-0.0017639544
-8.3067884E-5
0.0014599299
0.0030174837
0.002015002
0.0017998053
0.0023276985
-4.6344678E-5
-0.0010827993
-9.537194E-4
-0.0019877157
-0.0015920755
-3.3064914E-4
0.0012959511
0.0018680054
7.733472E-4
0.0010281829
-3.454909E-5
-0.0036392815
-0.004232282
-0.0013286066
6.6376524E-4
0.0017877612
0.00296303
0.0024869607
0.0027374187
0.0027433694
7.483412E-5
-9.3827686E-5
8.7993196E-4
1.3069682E-4
-4.604733E-4
-0.0012750829
-2.796935E-4
7.3288917E-4
0.0012309871
0.0023360169
5.0266273E-4
-5.918797E-4
-0.0017159719
-0.0041863667
-0.0039103036
-0.0026634722
0.002211698
0.004535848
0.004005019
0.0048064697
-0.010947019
-0.01993065
-0.0017583729
0.0037325702
-4.559904E-4
0.0047805663
0.004245402
0.0023262552
0.0026385773
0.0031236785
0.0041112453
-7.0486596E-5
-0.0022202637
-0.0015948602
-0.0011730555
0.002297285
0.0021815835
-7.976569E-5
8.121808E-4
0.0017887261
0.0010417687
-0.0013060907
-0.0020428104
-0.0018570975
-0.001622097
7.349361E-4
0.001371055
3.1305262E-4
7.77179E-4
0.0015416874
1.04952225E-4
-0.003234625
-0.0035474284
-0.0014676466
-2.3442779E-4
8.2935696E-4
0.0013499598
0.0021317268
0.0021252185
0.0014966036
0.0019025018
4.0978665E-4
-0.0015720682
-0.002458306
-0.0018378071
0.0012910237
0.0011217619
-4.191899E-4
0.0012184192
7.734596E-4
-0.0010891064
-0.0017347158
-0.0024383185
-0.0032286053
-0.002873671
3.11695E-4
0.0017319844
0.0010728459
0.0028661166
0.0020700176
-6.820333E-4
-4.534241E-4
-0.0011933421
-0.0031581179
-0.002023683
0.001775223
0.0026989481
1.5988707E-4
4.519064E-4
0.0018790491
7.8987406E-4
-7.682974E-4
-0.0015123034
-4.5792756E-4
9.111106E-4
0.0033386764
0.006443016
0.005486585
0.0032953282
0.0022025842
7.4283493E-4
-0.0011335117
-0.0039269603
-0.005176475
-0.0051336717
-0.0040451605
-0.0011129312
-3.667424E-4
-8.44531E-4
-3.8477682E-4
-9.729831E-4
-0.0031320446
-0.003991194
-0.0019459169
-0.0019137947
-0.001870604
-4.172619E-4
-0.0014388324
0.0015219054
0.0034738071
-5.501424E-4
2.6576527E-4
0.0016145651
7.285602E-4
0.0031747604
0.0043706642
0.0043253307
0.0054854434
0.0064895065
0.006430256
0.0046305517
0.0011554979
-0.0023477308
-0.0036101963
-0.0050442973
-0.0033598607
0.001681766
0.0014103188
0.0011794855
7.331115E-4
-0.002572443
-0.0023523392
-0.003989173
-0.0037020005
-0.0014685302
-6.4032566E-4
0.0028468624
-0.010642334
-0.021307653
-0.0014267744
0.0070516067
8.0119504E-4
0.003242859
8.295075E-4
7.131705E-4
0.0038958718
0.0021952165
0.004221533
0.0047695674
0.0037625825
0.004366376
0.001717435
1.2894163E-4
-8.007458E-4
-0.0022168485
-9.87943E-4
9.9286E-4
0.0022628498
0.0019843206
0.00144017
8.6608686E-4
-6.132933E-4
-0.001614922
-0.003569049
-0.003719071
-3.8515235E-4
0.0013390721
0.0013558525
5.774063E-6
-0.0016523838
-7.808735E-4
-8.379577E-4
-0.0021749074
-0.0018947495
-6.0438097E-4
0.0014298112
0.0024730375
0.0021982566
0.0023062625
0.0022090564
0.002030916
4.120438E-5
-0.003453856
-0.0035986267
-0.0017369416
-5.0250645E-4
0.0012308547
4.6438706E-4
-0.0029579662
-0.0030565895
-2.1258154E-4
8.27268E-4
-7.736416E-4
-0.002521067
-0.0012986801
0.0012129967
0.0015614126
0.0012009416
0.0025157244
0.0041929903
0.0025817575
-7.550542E-4
-0.0022777738
-0.0025921022
-5.519689E-4
0.0011024388
-1.8330675E-4
6.550544E-4
0.0012002707
1.4652174E-4
8.131044E-4
2.17425E-4
4.9021863E-4
0.0017385134
0.0014812986
0.002483992
0.0019864552
1.5281252E-5
-7.36052E-4
-6.2458747E-4
-2.758236E-4
-0.0021130464
-0.0027567442
-0.0021417793
-0.0019653346
3.62261E-4
3.846956E-5
-6.880839E-4
0.0015698817
0.0022215275
0.0022188856
0.0014086169
-2.3933081E-4
-0.0032429774
-0.0014778884
0.0024368796
-0.012474262
-0.019664677
0.0016675616
0.009786997
0.004661977
0.006680258
0.004501725
0.0019432103
0.0010686863
0.0014080362
0.0043199062
0.0017566006
5.4803764E-4
0.0030975174
0.0024803465
5.9507514E-4
-0.0014730793
-0.0021695409
-0.0028250131
-0.0031031366
-0.0010415422
2.4631625E-4
0.0013241839
-4.369945E-4
-0.003417325
-0.0028693024
-0.0037943607
-0.0038394153
-0.0023301484
-0.0027299589
-9.33789E-4
5.7022634E-4
0.0010000977
0.002118496
0.0012988477
0.0016960129
0.0032271366
0.002883384
0.002080438
0.0023233034
0.0032123069
0.001141801
-0.0018415409
-0.0014676889
4.6397006E-4
0.0021899752
0.0010711383
-0.0012165663
-0.0011171692
-2.1807628E-4
0.0023605158
0.0034374436
6.625583E-4
-4.003841E-4
-0.0013281566
-0.0031539313
-0.003123601
-0.003609368
-0.0029010652
-4.7615994E-4
7.901828E-5
3.4570062E-4
7.133194E-4
3.709486E-4
8.8518555E-4
6.4221455E-4
-0.0017501715
-0.0034142465
-0.0021752608
2.7285417E-4
0.0016209355
8.3387597E-4
-1.3437047E-5
0.0017498191
0.0024898492
3.1746333E-4
-0.0015425967
-0.001802207
-2.7665103E-4
9.2519366E-4
0.0024935068
0.0054611755
0.004325196
0.0015779235
0.0012274212
-2.952731E-4
-0.0015953687
-0.0031695734
-0.0044123237
-7.806662E-4
0.0019980515
0.0017579934
0.0020990863
0.0010836597
4.6914208E-4
2.3375968E-4
-0.0010861033
-1.67662E-4
-3.3054178E-4
-0.0026347246
-0.0013135638
0.001196633
6.8324676E-4
-8.660596E-4
-0.0015601984
-0.0017230659
-0.0022295723
-0.0028505235
-0.0025320274
-9.715531E-4
0.0017174099
0.0031417063
7.4314873E-4
-0.0010373285
6.441743E-4
0.00104758
-6.134679E-4
-0.002320931
-0.0018347056
0.0016638442
0.002650632
0.0015135022
0.001373538
2.3615996E-4
-1.4701477E-4
-3.4904946E-4
-0.0011293482
-6.154218E-4
-9.928544E-4
-6.053493E-4
0.0015912136
0.0036089625
0.0047072903
0.0031857188
0.0013348757
1.5991874E-4
-0.001935332
-0.0032476617
-0.00218674
1.066258E-4
5.946953E-4
0.0013850239
0.0023159427
7.345519E-4
0.0012841893
0.001269304
-0.0011042382
-0.0020766193
-0.0028878835
-3.4384962E-4
0.0010090828
-0.0011079485
5.874577E-4
0.0024407348
0.0041909968
-0.0049272683
-0.025592232
-0.020238634
0.0029092212
0.00764902
0.006062663
0.0064115813
0.0036893191
0.003673197
0.0029552032
0.0018183675
0.0014541664
-0.0012708541
3.0620125E-4
0.0033280335
0.002977396
0.004710903
0.0045680664
0.003423105
0.0040302845
0.0017314818
0.0011023651
-0.0013118219
-0.0047325646
-7.192071E-4
0.0013305371
0.0021400873
8.7372237E-4
-0.0026284817
0.0012117143
-0.01061385
-0.025390074
-0.008915403
0.0036871827
8.005849E-4
0.0031254026
0.0024491588
0.0020898813
0.004094808
0.0044046678
0.0037650054
-1.3423664E-4
-3.487145E-4
1.5695007E-4
-6.357154E-4
0.0016349511
2.7162136E-4
5.6261633E-4
0.0036191302
0.00269264
0.0024148987
0.0014549737
-1.2462461E-4
-9.131924E-4
-0.0018058831
0.0011350669
0.002713053
8.94262E-4
9.517117E-4
-4.7927478E-4
-0.0028673643
-0.002948354
-0.0046308055
-0.005986401
-0.0025780005
4.1347696E-4
8.4801164E-4
7.1339175E-4
1.1393591E-4
0.0014506067
4.3189945E-4
-0.0026156383
-0.0019235867
-0.0035079329
-0.0034091778
0.0020034208
0.0028707492
0.0032802306
0.005730582
0.0050129783
0.0032661657
7.327956E-4
-2.9215091E-4
0.0011463962
0.0019796628
0.0035994765
0.004366832
0.0024857442
4.338203E-4
-2.7283732E-4
-4.778328E-4
-0.0027990595
-0.0050682533
-0.0042366595
-0.0027801245
-0.0018215309
-8.373209E-4
-7.9086475E-4
-6.090854E-4
5.231253E-4
3.1655814E-4
-0.001785426
-0.004426653
-0.0061566345
-0.0045045605
-9.527934E-4
4.6800767E-4
2.0620106E-4
8.570536E-4
0.00285446
0.004266852
0.0038466481
0.0024870525
0.0028405078
0.0050421287
0.0043347348
0.0030129065
0.0041958406
0.002737532
8.228729E-4
-4.9201504E-4
-0.0031335459
-0.0033126445
-0.0062990584
-0.010877658
-0.009323555
-0.008129175
-0.0083817085
-0.0073851356
-0.0059591033
-0.0018841418
5.0846156E-4
0.0015601136
0.005487633
0.008187938
0.010259321
0.013006122
0.01351844
0.012912221
0.011359946
0.0054883044
-0.0015274362
-9.078499E-4
0.002517353
-1.6930199E-4
-0.002490297
-0.0015265468
-0.00238873
-0.004754508
-0.007759669
-0.010732186
-0.012706728
-0.014475058
-0.013195069
-0.0058508324
0.0020026425
0.004834368
0.004541223
0.001590314
-0.0019633097
-0.0036856255
-0.008589868
-0.014685175
-0.01481147
-0.0063666184
0.012897597
0.034585323
0.045955803
0.044636842
0.03238825
0.014825632
-9.1450143E-4
-0.009320628
-0.00939616
-0.00895104
-0.011415547
-0.01997179
-0.036774207
-0.043213565
-0.032473568
-0.020685786
-0.008033619
0.006104782
0.014543366
0.021126367
0.02125321
0.012074004
0.009385288
0.011550332
0.0041839033
-0.0071098916
-0.0159169
-0.022846527
-0.02094086
-0.014496478
-0.0074026296
0.018916126
0.05246359
0.0567744
0.04257969
0.031967364
0.017000372
-0.0039550136
-0.02195791
-0.031220732
-0.028769938
-0.019850163
-0.015974477
-0.021251284
-0.025495483
-0.021936161
-0.0157837
-0.0073536704
0.010255533
0.028860051
0.02727659
0.012889207
0.005832556
-0.0019702602
-0.012124746
-0.012440069
-0.0073753987
-0.0039416254
-7.0560124E-4
0.005112762
0.011321944
0.01403601
0.011758762
0.0042682094
0.0017854148
0.008807561
0.01275382
0.0093284035
0.005573376
0.0023135631
-0.005941492
-0.013218846
-0.014544617
-0.01837716
-0.019144362
-0.010225131
0.002201612
0.009597895
0.0061320555
0.0023791327
-0.0053515662
-0.017003017
-0.0075445296
0.0072294152
0.011013214
0.01570095
0.014250153
0.009426381
0.007911022
0.008698883
0.0014181626
-0.022382395
-0.02203211
0.0027628243
0.006632595
0.003997906
0.0025237415
-0.0057047307
-0.0063142036
-0.0038140407
-7.659785E-4
0.0014235002
0.0013078997
0.0043166736
0.0019473601
0.0010327265
0.0042376164
0.0013855053
0.0022878726
0.0024415408
-0.0038641552
-0.0064675584
-0.005166289
-4.7977176E-4
0.0017530953
6.6228106E-4
7.741662E-4
-0.002633023
7.8972674E-4
0.012823783
0.016266562
0.009313811
-0.0032722724
-0.012033736
-0.0129061965
-0.016541947
-0.021245718
-0.018462053
-0.0066481517
0.0064882156
0.011368211
0.013346765
0.015762918
0.015738579
0.01333521
0.007729398
6.3354906E-4
-0.010176225
-0.018006977
-0.012245385
-0.0032450939
0.0037535934
0.007868855
0.0062082876
0.005924196
0.0014105004
-0.007997036
-0.012800502
-0.013904766
-0.007399483
9.336155E-4
0.005340088
0.009196569
0.0060832887
0.0059065754
0.0098437285
0.0018820534
-0.0055161407
-0.003917747
-8.476523E-5
0.0030016063
5.8428786E-4
-0.0017746354
4.3701276E-4
0.0033977951
0.001516564
-0.005021173
-0.003816958
8.090841E-4
0.0012860505
0.0047193603
0.006348822
0.005533809
0.0053345123
0.0019216927
-4.400829E-5
-0.0033521464
-0.00851274
-0.0070333816
-0.0044996273
-0.0026511443
-6.967637E-4
-0.003607683
-0.003576422
-6.8288884E-4
-0.0013177812
0.002119409
0.0050221873
0.0024569018
0.003534775
0.0028711322
5.6990265E-4
0.002192206
-0.006068909
-0.017564848
-0.012848078
-5.2620806E-5
0.009145573
0.012060174
0.009871233
0.0070910375
0.004604833
0.004256073
0.0055368165
0.0045166905
9.1555534E-4
-0.0033468024
-0.00435285
-0.0033977441
-0.004228202
-0.004132361
-0.0014251753
0.003500144
0.0058684903
0.0017327714
-0.001734281
-0.0034993414
-0.007173626
-0.00903348
-0.008734213
-0.005065627
5.3533865E-4
0.0016850485
0.0041045207
0.009250413
0.011190804
0.011850645
0.0041383486
-0.010011499
-0.012787864
-0.008569348
-0.0031385848
0.006335725
0.007459982
-5.8265467E-4
-0.0038645489
-3.6497074E-4
0.0032109593
0.002437393
0.0010408029
0.0012696028
0.0017730318
0.0022096338
2.1625307E-4
0.0017643701
0.0064382087
0.0029274384
-0.0015422825
3.2474865E-5
6.160715E-4
-0.0011100943
-0.0036588078
-0.002860508
0.0024859807
0.0039136354
-3.1700867E-4
-0.0027085298
-2.0084683E-4
-1.7727785E-5
-0.0055939043
-0.008569538
-0.006326764
-0.0028109835
7.137758E-4
0.001403886
-0.002120929
-0.0047593126
-0.0039398563
-0.006201888
-0.011072729
-0.0072765653
0.004886773
0.015203128
0.017151728
0.011159734
0.0064393175
0.007163948
0.0077319294
0.005866062
0.0032444992
5.100745E-4
-0.004098122
-0.0090977345
-0.009276237
-0.0061430233
-0.002854106
-0.001281452
-0.0037224656
-0.004367169
-0.0018768136
-0.0018023715
-0.0014052761
2.3968577E-4
0.0031802563
0.00718948
0.0041297837
-0.0023488402
-0.0056697233
-0.009599711
-0.008999787
-0.0012853602
0.006931401
0.01207605
0.010088711
0.0037343288
0.0010913312
0.0027103832
0.004544124
0.003611668
-4.701758E-4
-0.0048332256
-0.003920052
-7.314714E-4
-0.0012382106
-7.062868E-4
-0.0020517888
-0.008756121
-0.013430218
-0.013614286
-0.005453761
0.002673411
-9.1071374E-4
1.3376381E-4
0.0075399033
0.0074405787
0.008574586
0.012283988
0.00923446
0.0029181023
-9.306351E-4
-0.0018966823
-0.002399166
-0.0017956236
4.1019355E-4
3.5992335E-4
6.007741E-4
0.0024910923
-9.689602E-4
-0.006366228
-0.0060811294
-0.004525207
-0.001793988
0.0026471475
0.0014631161
3.0945553E-4
0.0031096898
0.001165998
-0.0012635952
-3.417864E-4
-0.0017772396
-0.003511048
-0.0014089824
0.0020440628
0.0013698596
9.585341E-4
0.0038522922
0.001963095
4.248437E-4
0.0018552598
-5.385332E-4
-0.0021975893
-0.0040425314
-0.0035076088
0.002187035
0.001119468
-0.0013716844
0.001297281
0.001178033
-0.0019768616
-0.0064071515
-0.0065100044
-0.0017894885
6.778097E-4
0.0022705814
0.00327105
0.004649752
0.005630863
0.0040132925
0.003811834
0.0022706708
0.0012535534
0.0035656844
0.0035065433
0.0027440276
-3.4924876E-4
-0.0064433594
-0.0113555845
-0.013785824
-0.009404805
-0.0023062588
0.0038592252
0.00606869
0.0013260362
0.0025869012
0.0076166536
0.007042355
0.0041005104
0.0010338783
0.002573311
-0.005829218
-0.019554436
-0.009394936
0.0021512217
0.0019650008
0.0065915445
0.006531082
0.0051042666
0.005405728
9.2963735E-4
-3.2477616E-4
-0.0010678268
-0.0033862875
-0.0052079353
-0.005202364
2.4849578E-4
0.002543378
0.0026811047
0.0042700763
0.0019569313
0.0020214391
0.0022664885
-0.0016486675
-0.0027849756
-0.0045962823
-0.0092061795
-0.010118774
-0.005530869
0.0021979965
0.009069083
0.010643256
0.0074994853
0.0046367142
4.028751E-4
-0.005461812
-0.007247357
-0.0058262036
-0.0011654458
0.0043971995
0.0047812173
0.0038533586
0.0032570148
0.0016453966
9.913149E-4
-4.3406247E-4
-0.0012470493
0.0012788136
0.0037616983
0.0014106086
-0.0048162965
-0.009369571
-0.009712958
-0.005115983
-5.8562006E-4
-4.6666912E-4
0.0017439934
0.00493365
0.0034991053
-7.7942834E-4
-0.0063092574
-0.007931255
-0.004285045
7.796311E-4
0.006378336
0.007908167
0.00516791
0.0039594863
0.004403166
0.0025881708
-0.0019790223
-0.0016885137
0.0012873486
-7.135796E-4
-3.7823647E-4
0.001350863
-6.820036E-4
-1.3372024E-4
9.324562E-4
-1.1945018E-5
-4.092527E-4
-0.00126516
-0.0010901837
-7.0722366E-4
-0.0015642876
-0.001018557
0.001467775
0.0031438672
8.3638955E-4
-0.002603842
-0.0035422973
-0.0033720431
-8.718316E-4
0.0020190128
0.0012348244
0.0013840403
0.0027344502
8.8210945E-4
3.067895E-5
-6.4515654E-4
-0.0044611776
-0.0043272297
-9.7272726E-4
-6.0732744E-4
-0.0019578054
-0.0035224233
-0.002007166
8.0103654E-4
9.1747765E-4
0.0024031932
0.0017083448
-0.0031264664
-0.0034667768
0.0011973941
0.0061803935
0.007551619
0.0057448195
0.005448116
0.0040227557
5.743202E-4
-6.718812E-4
-0.0015386997
-0.0025336244
-9.3100773E-4
5.9040263E-4
8.567663E-4
0.0023344539
0.001741772
-8.1669824E-4
-0.001956989
-0.0054407497
-0.007869399
-0.005040081
-0.003061353
-0.002934343
-0.0027808992
-0.0011994401
8.044469E-4
-1.0590828E-4
8.837957E-4
0.0023611544
-1.8160077E-4
-8.926058E-4
8.6468563E-4
0.0020807735
0.0017993758
0.0018826126
0.0041043875
0.0021168508
-0.0015349805
-6.6663447E-4
-7.839501E-5
-1.657827E-4
8.956618E-4
0.002870261
0.0040487875
9.424479E-4
-9.204533E-4
0.0011652432
0.0017010907
1.518398E-4
-0.0017690064
-0.0025442068
-0.0016336769
5.0301314E-4
0.0016665894
-3.463294E-4
-0.0013626168
-7.689085E-4
-0.0018619634
-0.0022867084
-3.8288475E-4
0.0019504391
8.3123177E-4
-0.0023357174
-0.002301259
-0.0015280098
-3.8552293E-4
0.002194738
0.001172268
-0.0017096625
-0.0019761436
-0.0026727412
-0.0051482297
-0.005064267
-0.00273658
-0.0013373547
0.001728528
0.0047893366
0.004230104
0.00260939
1.8741297E-4
-0.0014640943
-8.9515187E-4
0.0012128062
0.005451282
0.0058650295
0.0030302028
0.0037113065
0.0036165367
9.665965E-4
-0.001223746
-0.001616946
0.0012546137
0.003903102
0.0023661866
-3.8663438E-4
0.0024337228
0.0042969193
-7.43552E-5
0.0012629958
-0.0051651318
-0.022550113
-0.014168866
0.0048225764
0.0049816472
0.0073710335
0.008705658
-0.0040632486
-0.015603296
-0.018758768
-0.010201733
0.0029519065
0.0055303345
0.0033205922
0.0027675293
0.0029847375
0.0048263934
0.0053436477
0.0042990553
0.0019824733
-1.3637733E-4
0.001446098
0.0026319968
0.0022529683
0.0028933098
0.0029353288
0.0027475625
0.0013551129
-6.3170714E-4
-3.3719384E-4
-8.995747E-4
-0.0016490465
1.9146977E-5
9.344473E-4
4.5007102E-5
-0.0013859542
-0.0014751476
-7.8899256E-4
-0.0025280819
-0.0046805483
-0.0043092123
-0.0022221697
-3.9937333E-4
-2.0501293E-4
-6.051952E-4
2.5251397E-4
0.0027333705
0.003174496
0.0010075121
9.4233145E-4
3.92762E-4
-0.0013697965
4.171715E-4
0.0016044762
-9.2059854E-5
-4.308832E-4
3.888358E-4
7.026151E-4
0.0013351588
0.0018213282
-0.001235277
-0.0047209747
-0.003498419
-0.0021736727
-0.0011756121
0.002044668
0.0028873615
0.0015952177
0.0015462356
0.0016326873
0.0017342458
0.001607321
-0.0022495405
-0.006794779
-0.0044595324
4.705782E-5
0.0011629796
0.0016028259
4.0028035E-4
-5.0766394E-4
5.209508E-4
4.203122E-4
0.0012774514
0.0027384332
0.0031054704
0.0031845905
0.0029658512
0.0031985869
-2.2106526E-5
-0.004299962
-0.0031332602
-0.0012921172
2.1308323E-4
7.9765194E-4
-0.0010977892
0.0013238203
0.0024192622
-0.0032230867
-0.004611433
-0.001101375
-3.5727676E-4
-0.001519046
-0.001691845
-0.0013300527
-8.3767215E-4
2.367641E-4
-3.9707862E-5
-5.651974E-4
4.0012362E-4
-7.8028097E-4
-0.0014632153
4.9674255E-4
-1.9363825E-4
-5.473838E-4
0.0012948433
0.0019201098
0.0048293327
0.0070570237
0.0042956076
0.002510411
0.0017741636
9.853394E-4
0.0017656267
5.7811564E-4
-0.0012153923
-0.0019470387
-0.0027302569
-0.0014981297
-9.627893E-4
-0.0025571317
-0.003981993
-0.0050477753
-0.0031287726
3.028232E-4
0.001540147
0.0011456873
-0.0012027364
-0.0027533874
-0.0024988542
-0.003483037
-0.0024120398
6.661997E-4
9.402744E-4
9.910465E-4
0.0022135088
0.0020682963
0.0024692465
0.0034264915
0.0021401301
0.0018390309
0.0025827354
7.9680094E-4
1.0735414E-4
7.5507525E-4
4.7703963E-4
0.0013726166
7.961184E-4
-0.0015657004
-0.0017421943
-0.0017927687
-0.0028383713
-0.0027744
-0.0016105465
4.006009E-4
0.0015757061
4.330662E-4
-1.6565135E-4
4.2947757E-4
9.956843E-4
0.0019540263
-3.1256035E-4
-0.00380004
-0.003693065
-0.0040153028
-0.002456554
0.0011000325
6.3206E-4
7.34048E-4
0.0019873928
0.0027925093
0.0036710624
0.0013736165
7.851767E-4
0.00227466
0.002028496
0.0026960606
0.0026702706
0.0014845161
-4.7799174E-4
-0.0012676422
-7.465146E-4
-0.003436978
-0.0038111694
-0.0025199994
-0.0013866512
0.0033206488
0.003380258
0.0014528391
-3.4162487E-4
-0.0020303025
0.0017912164
-0.0099901855
-0.024396159
-0.008253793
0.0066955
0.004757565
0.0051783426
0.0032078973
0.0013399535
0.0025315452
0.0010043699
0.0011241738
0.0028911748
0.0034858813
0.0028868143
0.0026026287
0.0031996442
0.0012602517
-7.376352E-4
-3.6303682E-4
-5.2483554E-4
-6.043471E-4
3.9017005E-4
0.0012756025
0.0016624416
0.0021238266
0.0024779595
0.0013239282
-0.0011299026
-0.0032187519
-0.004212105
-0.0037652687
-0.002279805
-0.0016345056
-0.001374576
-5.424845E-4
-2.6441112E-4
4.0838486E-4
6.131826E-4
-6.651729E-4
-8.5870014E-4
-7.136667E-4
-3.3177447E-4
0.0016599394
0.0026238456
9.1123756E-4
-4.7495216E-4
7.591592E-4
5.930664E-4
-0.0011440708
-4.4114623E-4
-0.001145942
-0.0014540781
0.001356756
8.478904E-4
1.9468552E-4
0.0021106992
0.0013164948
-0.0015277033
-0.0030161252
-7.5425475E-4
9.956012E-4
3.7456947E-4
0.0012667729
3.1740378E-4
-2.8995657E-4
2.260483E-4
-0.0019307826
-0.0014012705
-5.5009854E-4
-0.0014742541
-7.1392127E-4
-0.0014326706
-5.374745E-4
0.0015348967
8.8890496E-4
0.0022466858
0.004135907
0.0024980148
-0.001142792
-0.002099253
-3.0807502E-4
-2.701579E-4
5.5328984E-4
9.1239053E-4
5.828802E-4
0.0025701923
0.0013389104
6.8805943E-4
0.0022693845
-1.074679E-4
-0.0013117745
-8.844836E-5
-6.073991E-4
-0.002670295
-6.076953E-4
0.003971289
0.0023542037
0.0030312755
0.0027146384
-0.002893235
3.5429507E-4
-0.0056855064
-0.019060953
-0.008612556
0.0041613053
0.003593232
0.006071209
0.0064944173
0.0015682047
-2.447806E-4
-9.906914E-4
-8.728686E-4
0.0047837477
-3.8359905E-4
-0.016648015
-0.010165649
0.006031383
0.0046221996
0.00226803
0.0020942986
8.907642E-4
0.0027793644
0.0022762814
0.0029540982
0.0035803402
0.0021771747
0.0028997683
0.0018277388
5.878098E-4
-9.006694E-4
-0.0034857264
-0.0022928165
-4.6532878E-4
9.4293285E-4
0.001785677
7.09862E-4
9.070315E-5
-0.0010371257
-0.001890403
-0.002296259
-0.001970717
-2.252508E-4
-2.5086643E-4
1.6847329E-4
0.0010012501
-2.3695714E-4
-6.3470734E-4
-0.0013502399
-0.002703812
-0.002476642
-0.0014491687
-2.5706508E-4
8.143628E-4
0.0017796796
0.0019379996
0.0017903715
0.0014818248
-1.10713685E-4
-0.0014917107
-0.0023952227
-0.0025953627
-0.0024330737
-0.0018789679
5.643475E-4
0.0015122661
0.0018172055
0.0023630632
9.41591E-4
8.3429506E-4
-3.9198244E-4
-0.0020415066
7.213475E-4
0.002336002
8.9410204E-4
-1.758823E-4
0.0016781957
0.003364933
0.0012464469
0.0014377792
0.0017211299
1.8957362E-4
0.0013128759
0.0013656188
0.001863217
8.3488825E-4
7.4401795E-4
0.0060519073
-0.0047154105
-0.02066119
-0.009161713
0.006043186
0.0032874253
0.00400338
0.0065296255
-0.009525193
-0.018137662
8.3551777E-4
0.008926992
0.001294621
0.0016739931
-5.222353E-4
-0.0013486652
0.0025710226
3.147341E-4
0.0017429221
0.00484232
0.0030035786
0.0019712786
-3.768105E-4
-0.001355268
5.7386153E-4
1.7184015E-4
3.4452396E-4
0.002605293
0.002183112
-8.4722735E-5
4.1479358E-4
2.4217082E-4
-0.0027366448
-0.003919911
-0.0033440068
-0.00152883
-1.7765118E-5
-3.2525312E-4