-0.0060709594
-0.006299924
-0.0037417773
-0.0017265185
0.0018682226
0.004642446
0.0085685225
0.012858823
0.011024382
0.010777571
0.009698389
0.007892095
0.00679343
0.0055800243
0.002849507
5.9187744E-4
-0.0024352344
-0.0036670873
-0.006728423
-0.00939687
-0.009747688
-0.008383765
-0.0074774707
-0.006598806
-0.0011335474
0.0028559351
0.003697788
0.007551494
0.008979942
0.008216018
0.0064273537
0.005373948
0.0057529127
0.0016576538
-0.0016870874
-0.00329657
-0.0065379054
-0.006529241
-0.0059382054
-0.008424282
-0.0111698415
-0.008848289
-0.0049948827
-0.0063338475
-0.0059828125
-1.928125E-4
0.006788523
0.009789341
0.009690159
0.0058791237
0.0059280884
0.006519424
0.0037512768
0.0018983887
-0.0012463526
-0.003115835
-0.0031353175
-0.004249541
-0.0070208763
-0.009269324
-0.012067254
-0.012677554
-0.009598372
-0.005634966
-0.0042691897
-9.9189456E-5
0.004325034
0.0076487404
0.008194817
0.008903264
0.00734697
0.0071906764
0.0043649
0.004026753
6.191235E-4
-9.1324706E-4
-0.0039351
-0.0069864355
-0.008924883
-0.00877333
-0.008761778
-0.008627854
-0.0070791896
-0.0038310424
-3.8341308E-4
0.0020636988
0.004960293
0.006059258
0.006720593
0.005999558
0.0052861525
0.007669858
0.0051864525
0.0037783056
7.1067625E-4
-0.0038111769
-0.005447771
-0.006086736
-0.0091451835
-0.00794126
-0.0106544485
-0.010287637
-0.006818972
-0.006257937
-0.00401979
-2.2979004E-4
0.0023073219
0.004911545
0.0062505105
0.0069318456
0.008417922
0.0079016285
0.0052182227
0.0044224462
0.0018771875
-0.0023099242
-0.0028194068
-0.0034812598
-0.008107336
-0.012145266
-0.012785566
-0.012363496
-0.0089719435
-0.006120908
-0.0037027611
-0.002279873
0.0014948682
0.006053833
0.00872228
0.010023098
0.009221545
0.0061905105
0.0035123632
0.0028518457
0.0017465869
-4.0578368E-4
-0.0019128955
-0.0057818606
-0.0076955664
-0.010758755
-0.013089055
-0.0134917265
-0.011709656
-0.007903362
-0.0064546973
-0.002341809
0.0015129321
0.005529526
0.007533232
0.00885168
0.008517756
0.0061167213
0.0013214624
-0.0076622437
-0.039525516
-0.009403963
-0.0025410743
-0.0029905566
-0.003050039
-0.005356633
-0.005965598
-0.006204563
-0.0064358986
-0.0037677514
-0.0041196044
-6.019751E-4
0.003929878
0.007503584
0.010346772
0.00986759
0.010048408
0.007772114
0.006261079
0.004715303
0.0048195263
0.001011897
-0.0016728443
-0.0017875854
-0.0038194384
-0.0060084034
-0.006439739
-0.008495815
-0.008651892
-0.007335598
-0.003777451
-0.0017921923
0.0024549195
0.0066662547
0.009224703
0.007608408
0.0077321143
0.00756582
0.006174785
0.002161897
0.0010042676
0.0014290088
-8.1336184E-4
-0.0060923267
-0.006993662
-0.0109168505
-0.01199478
-0.011490339
-0.007844046
-0.0066653807
-0.0046696044
-0.0013443457
0.0030251367
0.007218843
0.008164919
0.009253367
0.008791814
0.00775552
0.005814485
0.0046987087
0.0010310791
1.710791E-4
-5.812915E-4
-0.003300774
-0.00860685
-0.0112124095
-0.012000339
-0.011115898
-0.008181975
-0.00631094
-0.0027504223
4.919482E-4
0.0034838014
0.0067951367
0.0076788426
0.00893729
0.0070086257
0.00628759
0.006116555
0.0044207787
0.0020978907
-0.0019492212
-0.0043634446
-0.004990039
-0.0048242626
-0.005650857
-0.011446416
-0.0122243455
-0.009605164
-0.0074688694
-0.0040807226
-0.0013054638
7.669067E-4
0.0047511305
0.008989577
0.009770395
0.008036472
0.008292549
0.0066638845
0.0037457373
0.0019128491
-5.295215E-4
-0.0024066332
-0.0038584864
-0.007119822
-0.008415898
-0.009686716
-0.010087534
-0.0068988698
-0.0052754637
-0.0037573169
-0.0017920581
0.0016226831
0.0053492775
0.0080553545
0.010708543
0.00967936
0.009157808
0.0085638845
0.0055404785
0.0035423315
0.0016470727
-0.0036147803
-0.0053913747
-0.0063703395
-0.009318787
-0.010451975
-0.011859905
-0.008688352
-0.006307317
-0.0032267994
1.8320068E-4
0.0027926832
0.005359277
0.007932983
0.010163802
0.010316989
0.0096378075
0.004129661
-3.5033937E-4
-1.20339355E-4
0.0016044019
-0.0017003394
-0.0018050806
-0.0056640455
-0.006525381
-0.0071367165
-0.009477534
-0.0075112404
-0.0072949464
-0.0036567992
6.255713E-4
0.001972683
0.0047569065
0.008865354
0.009576172
0.0077298777
0.0069612134
0.006852549
0.0059115137
0.0033809962
0.0019081079
-0.0018066333
-0.0029561156
-0.00517271
-0.007938786
-0.010019604
-0.010222793
-0.0092312405
-0.008307317
-0.0060262815
-0.0024433935
0.0016913477
0.004885571
0.0076692775
0.009870095
0.008176172
0.008122249
0.0075959545
0.0059449193
0.0058038845
0.002330996
-0.0020361156
-0.003145598
-0.0045998218
-0.005396416
-0.007890122
-0.011295681
-0.0083917575
-0.0033312403
-0.0012959815
3.6401855E-4
0.002873501
0.0068148365
0.008290913
0.00924936
0.008165437
0.0051720315
0.0054686256
0.00511522
0.005511814
0.0030012964
-4.8703612E-5
-0.0043229274
-0.0037647802
-0.004599004
-0.008485081
-0.008371158
-0.009511975
-0.0070633106
-0.003102793
-1.8279297E-4
0.00397906
0.008747507
0.009628325
0.010983884
0.010947073
0.010470261
0.008056338
0.0060253027
0.004679526
0.0028990088
5.113794E-4
-0.0014833618
-0.004847585
-0.0054141795
-0.008020257
-0.0073939622
-0.007887669
-0.0062366333
-0.004680857
-0.0011855982
0.0043686256
0.007994702
0.010747891
0.011795821
0.011021379
0.009339827
0.0012045678
0.004931162
0.006410127
0.00349198
0.0012967212
3.267212E-4
-0.0043775025
-0.006056467
-0.009334914
-0.008733362
-0.006674697
-0.007016033
-0.0039478857
-2.7788573E-4
0.0018268555
0.00640582
0.009646638
0.012184568
0.011360127
0.008466204
0.009014651
0.007175986
0.0020730982
3.1309813E-4
1.8309815E-4
-0.0020540138
-0.004368237
-0.006529573
-0.00919802
-0.010541208
-0.01442625
-0.0130965505
-0.005735515
-0.0013702563
0.0029492262
0.005828191
0.009659009
0.011184568
0.011370127
0.009008574
0.0066599096
0.0043041334
0.0034559863
0.0019730981
-5.292725E-4
-8.416431E-4
-0.0017863843
-0.0055229785
-0.009883797
-0.010034614
-0.009665432
-0.008291509
-0.0063504735
-0.0019075854
3.4241454E-4
0.002851897
0.007315603
0.00885405
0.008020127
0.008186203
0.00802228
0.0050888746
0.003068357
0.0018230982
-3.9927245E-4
-0.0024963843
-0.003998237
-0.0061172023
-0.0087056495
-0.008744096
-0.0069054323
-0.0070767677
-0.004380991
-0.009389439
-0.03758797
0.0016267725
0.011282331
0.015622114
0.014869526
0.0139845675
0.011710127
0.007363833
-7.885376E-4
0.0033609448
0.0023780565
-1.1943359E-5
-0.0027814258
-0.0039832788
-0.0061922437
-0.006803579
-0.0073572854
-0.00577625
-0.003488103
-0.0019152148
0.0010871558
0.00503375
0.008752197
0.010735386
0.011120945
0.008799392
0.008275469
0.007931545
0.00563814
0.0014428808
3.288086E-5
-0.0026566016
-0.004160825
-0.00626979
-0.0075934962
-0.008711943
-0.009020391
-0.008026468
-0.0054330616
-0.0022601734
0.0013045679
0.005391162
0.00903961
0.008818056
0.008634133
0.009964951
0.01030814
0.006879475
0.007553181
0.0054197754
0.0019068872
-8.954834E-4
-0.0030849657
-0.0066863014
-0.007370007
-0.0075637135
-0.010276902
-0.011292461
-0.006623796
-0.0029832788
-9.856494E-4
0.0024414624
0.0072451686
0.010778357
0.010049175
0.009809992
0.00883844
0.007652146
0.0067334813
0.0034553346
0.0018300756
-4.2229492E-4
-0.0024394067
-0.0065407422
-0.01042393
-0.010767119
-0.010197937
-0.008634014
-0.0061129783
-0.0034348315
-6.7720213E-4
0.001547539
0.004099392
0.0050459863
0.0033854689
-0.025655132
-0.01005595
0.010094868
0.006233833
0.0055504274
0.0031999096
0.0018870215
-0.002962461
-0.0045766844
-0.005333279
-0.007456985
-0.010077802
-0.007741509
-0.0022386205
-3.809912E-4
0.0025761207
0.0044203443
0.0068616797
0.008647757
0.009858574
0.009549392
0.008255469
0.0075091748
0.0058081397
0.0047823633
0.0017371045
-0.0033023779
-0.004938972
-0.0051055662
-0.0077492725
-0.008605349
-0.009373796
-0.008129873
-0.0052464674
-0.004580691
-4.8306154E-4
0.0040087914
0.006440127
0.008186203
0.009264651
0.007338357
0.007292063
0.0041662864
0.0026133985
0.0036652514
0.0013699926
-0.0023871192
-0.0043713427
-0.006050308
-0.0073340135
-0.012351943
-0.013794614
-0.0073983204
-0.0053549143
-0.0026420264
-8.04397E-4
0.0029150855
0.0069964207
0.009124869
0.011530427
0.011305986
0.009506804
0.0067781396
0.005064734
0.0021718456
-1.581543E-4
-0.0014728955
-0.0053094896
-0.0059384545
-0.007934531
-0.009022978
-0.010978538
-0.006709873
-0.005848838
-0.0023059498
4.764209E-4
0.0047506443
0.008506721
0.009255168
0.009735987
0.009184433
0.00812051
0.0054671043
0.0063160695
0.0065074046
0.005183999
0.003645852
0.0011505933
-0.0011741479
-0.0032836304
-0.0052802246
-0.007893931
-0.01240186
-0.01213979
-0.0099406075
-0.0056172023
-0.0013019433
0.005124651
0.0061436156
0.007757322
0.009185769
0.0094465865
0.0066179223
0.0052745165
0.0019916284
-0.0026354834
-0.0039973366
-0.006156301
-0.012606601
-0.013991643
-0.013224314
-0.012844615
-0.012442544
-0.011708103
-0.0095889205
-0.0069102566
0.0033092261
0.0066705616
0.008406638
0.008622715
0.0020398267
-0.03250211
-0.0016068505
0.009271597
0.008657673
0.004381897
-0.0013828443
-0.004797068
-0.0049012913
-0.005940256
-0.008146333
-0.0082224095
-0.006863745
-0.0047579687
-0.00137271
0.0010696606
0.0037615136
0.006492849
0.007206555
0.009255002
0.011220561
0.009049009
0.009277456
0.009628274
0.009166721
0.0073104273
0.004874651
0.0020017626
0.0037336156
0.0024607275
-0.0025563843
-0.0047706077
-0.0068819434
-0.0062709083
-0.006259873
-0.003901726
5.806445E-4
0.004844868
0.008080944
0.009099392
0.007223098
0.004207322
0.0038191748
0.003991028
0.0019181396
-2.9186034E-4
-0.0028213428
-0.005457937
-0.008736384
-0.010369573
-0.012839873
-0.013472544
-0.014027585
-0.012927886
-0.008683963
-0.0024610742
0.0038707787
0.007314485
0.010637674
0.015497456
0.01740198
0.017726503
0.015333916
0.011821846
0.009982663
0.0021797754
-0.0053868187
-0.0049010427
-0.0021881543
-7.105249E-4
4.9475097E-5
-3.505249E-4
0.0010218457
0.0071755517
0.015925335
0.025263565
0.028333647
0.029878471
0.025909072
0.019810708
0.0143157495
0.010248938
0.0048231618
-0.012364768
-0.029899592
-0.03793812
-0.039723765
-0.036407553
-0.03361186
-0.033166166
-0.033020474
-0.03157004
-0.027095381
-0.02394124
-0.019240506
-0.009308953
-0.0025360645
0.004188159
0.011143718
0.009042165
0.011237725
0.011183283
0.009421731
0.0058606956
0.0030501783
3.0017822E-4
-0.001834563
-0.0021516748
-0.0020787867
-0.00449301
-0.007216716
-0.009345164
-0.010618352
-0.009006799
-0.0055333935
-0.0021105055
0.002978977
0.007492683
0.010345872
0.011993801
0.011149361
0.01205729
0.0012120312
-0.024183828
0.009384619
0.008680696
0.007092031
0.006410996
0.0047152196
0.0016399609
0.0018147022
0.0010170727
-0.002410039
-0.006419004
-0.005747969
-0.0019050805
6.9729006E-4
-0.0018074511
-0.002514563
-0.0018793042
0.0029901783
0.010543367
0.01660552
0.018192414
0.015009827
0.010160645
0.008116721
0.004098574
-0.0042756493
-0.01344832
-0.017965214
-0.016174998
-0.008803445
0.0041607786
0.018790044
0.03191961
0.043024734
0.052740674
0.05407136
0.046135966
0.029538421
0.010451609
-0.009509209
-0.020753216
-0.01824011
-0.0047143335
0.006024631
0.01093782
0.008283896
-1.1610352E-4
-0.0036079565
-0.0012026977
-0.004606921
-0.018043816
-0.0284139
-0.029626353
-0.017773246
-0.0068745827
0.0027148998
0.006343865
0.0024809765
-0.0036308765
2.0912354E-4
0.0059680883
0.009558906
0.0017836475
-0.0061353175
-0.0061842822
-0.011229841
-0.018136736
-0.028274449
-0.03725061
-0.03843151
-0.033335816
-0.015223227
0.010299961
0.029000044
0.03603383
0.0317534
0.01647555
0.015432964
0.022524081
0.03359839
0.04906248
0.05367079
0.050319623
0.039332893
0.023036381
0.003948235
-0.022482883
-0.038936153
-0.04238891
-0.041449293
-0.031166486
-0.011804417
0.017832479
0.05230605
0.067619406
0.062586166
0.058278702
0.04910279
0.041413173
0.028823256
0.007266963
0.001311704
0.041262086
0.079051
0.077935174
0.050011635
8.140039E-4
-0.027753709
-0.019212974
-0.008781421
0.012036509
0.031696074
0.03208564
0.018704904
-0.008431172
-0.04607578
-0.07967469
-0.12666295
-0.15037471
-0.12663297
-0.098281145
-0.06288791
-0.016240058
0.02262106
0.03724722
0.051288422
0.06039807
0.045972675
-0.0031168067
-0.035648227
-0.005394819
0.053713493
0.09005559
0.096939035
0.08266743
0.08460294
0.056620732
-0.019078532
-0.094224855
-0.083215624
-0.039128896
-0.033303205
-0.0047074268
0.040068217
0.04633282
0.036948983
0.029191436
0.04640604
0.11075452
0.15435812
0.1604607
0.17044646
0.14325686
0.07634629
-0.02015771
-0.16577688
-0.23716125
-0.23102665
-0.2095333
-0.17186381
-0.12908918
-0.08112283
-0.019974468
0.019467168
0.030201992
0.027307333
-9.3503663E-4
-0.026398009
-0.035139427
-0.05564485
-0.054255534
-0.03309984
-0.03934311
-0.029907936
0.0050586574
0.02797637
0.057116535
0.105398424
0.12087772
0.059294995
0.03973064
0.032732572
-0.036431216
-0.076620646
-0.025481248
-0.011666806
-0.007870513
0.024085347
0.025325947
-0.0076377587
-0.008663835
-0.01767836
-0.05222193
-0.08472744
-0.07415976
-0.05400807
-0.018304966
0.022546152
0.035889942
0.039393213
0.04460308
0.062127467
0.048709188
0.079558104
0.17271097
0.20816526
0.16990864
0.115831345
0.015961127
-0.051010072
-0.039393343
-0.01835024
-0.06865597
-0.091632806
-0.11713025
-0.1321451
-0.124073885
-0.13024163
-0.16809027
-0.16471706
-0.14178275
-0.126901
-0.10118867
-0.047328014
0.007775693
0.037101854
0.030536678
-0.035144743
-0.053140685
-0.026826026
-0.02941848
-0.033022787
-0.023466274
-0.0431414
-0.043498892
-0.028848978
-0.018648243
-0.010953802
0.0066575343
0.023121024
0.042846147
0.048467867
0.02919032
0.013692991
0.028333073
0.037471604
0.022282721
0.002009834
4.9220456E-4
0.026215175
0.027912889
0.012460818
-0.019990819
-0.036624607
-0.047031585
-0.045916192
-0.028093904
-0.012071834
-0.016201615
-0.022772735
-0.021681482
-0.022912601
-0.015632384
-0.011247942
-0.012658242
-0.015598025
-0.01770255
-0.015099961
-0.013872632
-0.0130629325
-0.011780862
-0.0091193095
-0.0064506447
-0.0024277563
0.0025793554
0.0043735793
0.0052001732
0.009228621
0.010901809
0.01328448
0.015011892
0.013474563
0.008713011
-0.023550479
0.007130857
0.0273162
0.028566282
0.026419252
0.023592742
0.026565714
0.025726313
0.025024543
0.02158329
0.017627815
0.016809968
0.018569233
0.020113239
0.021991987
0.024397846
0.026250819
0.024639048
0.022540165
0.01764469
0.015232102
0.011577661
0.006086626
4.1899658E-4
-0.0027304858
-0.0101713035
-0.014968716
-0.016068498
-0.018245393
-0.017279917
-0.0154773295
-0.014662371
-0.014007412
-0.0153248245
-0.015594607
-0.014059649
-0.01403469
-0.014279732
-0.014714773
-0.012795073
-0.012153003
-0.010968562
-0.011144121
-0.009724939
-0.009023386
-0.010014204
-0.00726791
-0.0034597632
-0.0012145044
0.0014602368
0.0065115723
0.0095723905
0.011447949
0.015667733
0.016489886
0.014254927
0.012382857
0.010646045
0.010219233
0.009177681
0.007931387
0.005467981
0.005064575
0.0033140576
0.0015787989
-1.1201172E-5
-2.7120116E-4
3.487988E-4
0.0040606516
0.008226728
0.01399177
0.020205777
0.023789264
0.023232754
0.022613872
0.024622101
0.026285073
0.024490932
0.02278205
0.019743687
0.013003987
0.008010063
0.006109028
0.004313252
0.0025403637
-1.2963623E-4
-0.0013443774
-0.0011691187
4.2325194E-4
0.0032827344
0.005109329
0.0078030345
0.009453853
0.011549411
0.012519712
0.00915816
0.0079942355
0.0062032007
0.0045374245
9.89795E-4
-7.6257566E-4
-0.0034844286
-0.0061633936
-0.0112789525
-0.010252141
-0.01069533
-0.010638518
-0.009729336
-0.007603042
-0.0045572654
8.2734376E-5
6.55105E-4
0.0029745875
0.0054911817
0.0072248876
0.010135706
0.011071265
0.007947342
0.008033418
0.007727124
0.006156089
0.0024332006
0.001517942
-3.720581E-4
-0.0052486523
-0.008344729
-0.0070860647
-0.0060450295
-0.026808001
-0.030342825
0.004721399
0.007977475
0.011503034
0.013053335
0.014148377
0.012708677
0.012086607
0.011964536
0.011490095
0.007213801
0.0036056542
0.0011303955
-9.219751E-4
-0.0046961987
-0.0066675344
-0.0073112403
-0.008889687
-0.0076733935
-0.0062123584
-0.0059913234
-0.004305547
4.4453125E-5
0.0068557886
0.009034236
0.008180313
0.008186389
0.010127207
0.008013284
0.0062722485
0.002851731
1.3173095E-4
-0.0029477514
-0.0057567162
-0.0071580517
-0.0078417575
-0.009492576
-0.009923394
-0.008781841
-0.0073155467
-0.005432141
-0.0012868823
0.0036249708
0.0070263064
0.008734753
0.009525571
0.01116113
0.009901948
0.010825137
0.0072588427
0.0046030665
0.0039349194
0.0030444018
-0.00237271
-0.0012174512
-0.0042316746
-0.007355381
-0.008231457
-0.006862793
-0.0043370165
4.35354E-4
0.0033448364
0.005431431
0.008989878
0.012347807
0.013420478
0.011958408
0.011013967
0.009322414
0.00702375
0.006362715
0.0028921973
1.9219727E-4
-8.8017335E-4
-0.0029696557
-0.004061509
-0.0063004736
-0.006801809
-0.0069831447
-0.0054997387
-0.0026892212
0.00116552
0.004067373
3.8974365E-4
0.00812582
0.01287612
0.013438792
0.01092198
0.009250428
0.0054470217
0.0072007277
0.0022778395
-2.6216064E-4
-0.0024592725
-0.0038811255
-0.004755349
-0.008501425
-0.011256984
-0.009687803
-0.0058567678
-0.0056857322
-0.0031152149
0.0014795264
0.0061884914
0.009639309
0.011434868
0.011530427
0.010283615
0.010004434
0.0062333983
9.757691E-4
-2.1423095E-4
-0.003496084
-0.0065874197
-0.0060963845
-0.006205349
-0.007739055
-0.009959873
-0.00933832
-0.0074620266
-0.005578621
-0.0021057324
0.0017890087
0.005275603
0.007589309
0.008675386
0.009433833
0.010074651
0.008913098
0.0066844337
0.002823916
4.662866E-4
5.786572E-4
-0.0024484545
-0.003980308
-0.006641643
-0.007905349
-0.009073797
-0.008902243
-0.0068135792
-0.004737803
-0.0038496559
-4.3202637E-4
0.003257456
0.006116421
0.007840127
0.0094409445
0.010334133
0.0077578393
0.008253916
0.006272881
0.0033823634
0.0010447339
-6.676367E-4
-0.00407949
-0.0062584546
-0.005545049
-0.0058040135
-0.0073777195
-0.005404314
-0.0033537964
-0.001006167
0.0028633154
0.0039151683
0.004349392
0.010802581
0.0075662867
0.008552363
0.00875081
0.006842146
0.003783999
2.1399902E-4
-0.0017307422
-0.0029902246
-0.0018449659
-0.00510156
-0.008710007
-0.010965566
-0.009404014
-0.006725349
-0.006074314
-0.0028337964
0.0017709448
0.005067539
0.008735986
0.010539175
0.009027622
0.007591328
0.008687405
0.0070887404
0.005777705
0.003549558
6.6192873E-4
-6.104419E-4
-0.0011028125
-0.0020499243
-0.0075536305
-0.008669707
-0.009248154
-0.008684231
-0.0052208253
-0.0011455665
0.0016991748
0.004915769
0.008321846
0.010345034
0.010718223
0.00966904
0.0077227466
0.006411711
0.0061406763
0.0043448997
0.0030343824
2.9438233E-4
-0.004889841
-0.0053464356
-0.009044883
-0.00930333
-0.009534148
-0.010327336
-0.0056139305
-0.003033413
-2.934131E-4
0.00407844
0.008044517
0.011240075
0.009438523
0.007532229
0.0066135647
0.0065649
0.0043691234
0.003028606
-1.7139404E-4
-0.003483247
-0.0050398414
-0.0081859175
-0.010819106
-0.011757036
-0.0126673365
-0.0094257835
-0.00742949
-0.0036713427
4.7102783E-4
0.004092881
0.008781328
0.009299776
0.010652964
0.011038523
0.009196971
0.0069783055
0.004662529
0.0038943824
0.0019014941
9.838648E-4
-0.0034679882
-0.0064693238
-0.0077130296
-0.008339106
-0.010149924
-0.0096307425
-0.0067020776
-0.0049063014
-0.0015410425
0.004173181
0.007536887
0.008102964
0.011678523
0.010431712
0.006883047
0.005029641
0.0031691235
0.0015038648
0.001438606
-0.0022085058
-0.0069198413
-0.0067911767
-0.007142512
-0.00871096
-0.008227036
-0.011352595
-0.009703413
-0.003595266
1.7473388E-4
1.2473388E-4
0.008020811
-0.01313949
-0.016311644
0.011633916
0.010287104
0.010270293
0.012268223
0.008564299
0.0051308936
9.832642E-4
-3.5673584E-4
-7.0910645E-4
-0.0040409593
-0.006462295
-0.00684363
-0.006232595
-0.0042968187
-0.00120156
9.2081056E-4
0.0050374046
0.007911111
0.009751929
0.010375117
0.009525935
0.008492012
0.0060809767
0.0039628297
0.0034746826
0.0017294239
-2.3057617E-4
-0.0028800585
-0.0060190232
-0.00901747
-0.008995918
-0.011351477
-0.011017036
-0.0089754835
-0.0054720775
-0.0017268189
8.9555176E-4
0.005552146
0.008760593
0.009561411
0.009692229
0.010193047
0.008499123
0.0051857177
7.1808835E-4
6.5045897E-4
-0.0010619116
-0.0041237646
-0.005560359
-0.007564065
-0.009974883
-0.010218072
-0.009306518
-0.009787336
-0.010680525
-8.828955E-4
0.0030765869
0.007490293
0.009711111
0.008849558
0.008425634
0.009886453
0.0087749
0.0060838647
0.0045380886
0.0021852
-3.4799803E-5
-0.0021419115
-0.005048506
-0.007882212
-0.007725918
-0.009084365
-0.0070157005
-0.0065770363
-0.0044012596
-4.7363038E-4
0.002945852
0.0070071877
0.008905635
0.009496452
0.008552529
0.011418088
0.008404165
0.0066355006
0.0035973536
8.6972414E-4
2.972412E-5
-0.001505017
-0.0049816114
-0.0076353173
-0.009183764
-0.010094582
-0.00910303
-0.0063819946
-0.0044462183
-0.0027957007
8.3666993E-4
0.006165635
0.007609341
0.0040011937
0.00829727
0.0076309764
0.007814683
0.0060736476
0.0025407593
-5.9240723E-5
-5.016113E-4
-0.0016963525
-0.0037082057
-0.0053748
-0.0055113942
-0.0075851
-0.008833547
-0.0072472533
-0.0029767358
-4.5910644E-4
0.0013856348
0.0057745995
0.0073483055
0.009739123
0.009509942
0.007946018
0.0069973534
0.0053439476
-0.0092445
-0.04095251
-0.0074062184
-0.0015309595
2.1904052E-4
-0.0018757007
-0.004539924
-0.004204148
-0.0049507422
-0.0036325953
-0.002589707
0.0016750342
0.0055116285
0.0079277055
0.0076314113
0.0072551174
0.008983565
0.007999641
0.008055718
0.007749424
0.0057383887
0.003940242
4.8261232E-4
-0.0010197583
-0.0036916113
-0.0075453175
-0.009203765
-0.0084198415
-0.007945918
-0.007409624
-0.0048538474
-0.0016385888
0.002418523
0.007902229
0.009893047
0.009833865
0.009604682
0.010507871
0.010128689
0.007322395
0.0055489894
0.0033784716
-0.0012662695
-0.004380493
-0.006199458
-0.008987905
-0.011363464
-0.0101342825
-0.009142729
-0.006824065
-0.0030335474
4.645264E-5
0.0032559352
-1.6406494E-4
0.004650159
0.008646236
0.010197054
0.010177871
0.007331577
0.0051681716
0.004422395
0.002299507
1.9950683E-4
-0.0011128638
-0.0020099755
-0.0057389406
-0.009859758
-0.009600576
-0.010203765
-0.008912212
-0.0025693236
-2.3932374E-4
0.0043448997
0.007188606
0.007542312
0.01004313
0.009853948
0.009222395
0.008298472
0.005595066
0.0045392895
0.0027587719
4.6114257E-4
-0.0035907105
-0.006442046
-0.0067533813
-0.009021829
-0.010635017
-0.009935835
-0.007609541
-0.0071008764
-0.0040627294
0.002786753
0.007942829
0.009813648
0.011089207
0.010722395
0.009453213
0.00883166
0.006400625
0.003752478
0.0015472192
-5.8515137E-4
-0.0013498926
-0.0037617455
-0.0062807105
-0.009359158
-0.011837088
-0.010810276
-0.009491093
-0.0058200588
-0.0013347998
0.0013599414
0.0062589063
0.008434983
0.00890343
0.008589507
0.008615583
0.006626919
0.0046411427
0.0021282544
0.0018629956
6.9536624E-4
-0.0024617456
-0.0059007104
-0.008226787
-0.010569976
-0.010303164
-0.007959241
-0.0063582053
-0.0055147996
-0.0022719116
0.0027775709
0.005154165
0.008140242
0.008566318
0.010971878
0.0109550655
0.007308772
0.005235366
0.005744331
0.0022014428
-0.0015432984
-0.0021604102
-0.004314634
-0.006595969
-0.008682046
-0.009340493
-0.00939894
-0.0058479053
-0.0041097584
-5.721289E-4
0.004119724
0.00734343
0.008179507
0.011045066
0.010658255
0.0094890725
0.008045149
0.0068564843
0.0060854494
0.0029149316
5.493164E-5
-0.0037269213
-0.0052235154
-0.0076572215
-0.01029041
-0.009761228
-0.008247305
-0.008283381
-0.0074170874
-0.004341311
0.0010910595
0.0044552833
0.0076289894
0.011494548
0.010927737
0.0076014427
0.00853752
0.0058864844
-0.0011358862
-0.019045152
-0.032467086
0.0015976538
-0.0010147168
-0.0057136817
-0.007989759
-0.0068110935
-0.005237688
-0.005554282
-0.0027937647
0.001018606
0.003960459
0.007824165
0.012442094
0.013244766
0.012835066
0.0128153665
0.010488555
0.00663989
0.0056464844
0.004530708
0.0013054492
-0.0026840332
-0.004055886
-0.0051924805
-0.0077361865
-0.009284634
-0.00850071
-0.006582046
-0.003933899
-0.003875752
-0.0012804932
0.00342136
0.007925066
0.009495884
0.009254331
0.009765149
0.010055967
0.008262044
0.005931008
0.0024581202
-7.042505E-4
-0.0019813622
-0.0028508448
-0.0063098096
-0.008858257
-0.008244334
-0.010537522
-0.010540711
-0.0076244166
-0.0027338988
7.5847167E-4
0.006779807
0.010150625
0.011036184
0.0126864845
0.011854414
0.010155232
0.007238938
0.003770791
0.0019079029
0.001382644
-2.3735595E-4
-0.0032768385
-0.005755803
-0.009806621
-0.01076981
-0.0097606275
-0.010333816
-0.0073375218
-0.0031170044
3.729956E-4
0.0063319607
0.0091204075
0.009481225
0.009662043
0.009962861
0.01033605
0.0072997557
0.0052063502
0.0043405737
0.0019876854
-0.0018470556
-0.0041712793
-0.0050378735
-0.006559209
-0.008405286
-0.0099861035
-0.009404551
-0.007458257
-0.0027977393
0.001807002
0.0057159667
0.007942043
0.0086081205
0.008444197
0.007257903
0.0061968677
0.0059158327
0.0062647974
0.0025119092
0.0012066504
-8.7572023E-4
-0.0036875731
-0.0065689087
-0.008334985
-0.011070545
-0.009681363
-0.008277439
-0.006246404
-0.0023135156
8.28855E-4
0.0054654493
0.009183897
0.011811826
0.011047386
0.008063462
0.006112427
0.0040142797
0.0030237623
0.0012985034
-0.0020086083
-0.004292832
-0.0068241674
-0.009172615
-0.010255803
-0.011141363
-0.013111663
-0.0100824805
-0.007043816
-0.0032532983
-5.7566894E-4
0.0050809253
0.008617002
0.01028019
0.011425749
0.010588938
0.008445014
0.00653635
0.0032758326
0.0025729444
0.0014876856
-0.0013670557
-0.0031965382
-0.0067678737
-0.009186321
-0.016066104
-0.011061663
-0.009762481
-0.007143816
-0.0024209276
0.0017938134
0.0058027785
0.008268855
0.011404414
0.011499973
0.011185532
0.009213979
0.0053005735
0.0026400562
0.0011847974
-0.028345285
-0.028955368
8.4700197E-4
-8.1536866E-4
-0.002844851
-0.005601445
-0.0054480396
-0.0060070045
-0.0053335987
-0.003253081
0.0023640308
0.007015366
0.008933813
0.011329372
0.012037302
0.011302861
0.009733679
0.008059756
0.00503635
0.0026134618
0.0015582031
-0.0022889087
-0.0063478737
-0.00784158
-0.009462398
-0.012120327
-0.010543516
-0.009644333
-0.006875669
-0.0042998926
-1.2989258E-4
0.0034319605
0.0056185545
0.007652261
0.010003079
0.010356267
0.009094714
0.009003161
0.0055197557
0.0024068677
-0.002060244