0.003402024
0.0032015063
0.0017262476
0.0015809888
1.7098877E-4
-0.0043132347
-0.0032327173
-0.0035045703
-0.0021316821
-0.0013064233
4.2594728E-4
6.683179E-4
8.906885E-4
0.0012654297
0.0038472826
0.004983877
0.0033633595
0.0032428417
0.003414695
0.0029841773
8.065479E-4
-8.9582277E-4
-4.2819337E-4
1.9180664E-4
-0.0033676757
-0.0028271582
-0.0025142701
-0.0047884937
-0.0046027172
-0.0026098292
-7.5219973E-4
-0.0010345703
5.5429686E-5
0.001750171
0.004052024
0.0063109887
0.0068923244
0.0050889184
0.0040607713
0.003200254
-6.321167E-4
-0.0018568579
-8.692285E-4
-0.004233452
-0.0053800466
-0.0044842702
-0.0055908645
-0.0072145704
-0.004758794
-0.005897759
-0.003489612
-0.001854353
1.3564697E-4
3.7564698E-4
0.0034475
0.0046317237
0.0039135767
0.00406543
0.0051920237
0.004003877
0.0017286182
-2.1138183E-4
-3.6138183E-4
-0.001266123
-0.0022432348
-0.0022503466
-0.0042645703
-0.004548794
-0.005485388
-0.0032248707
-4.8724122E-4
3.851294E-4
-0.0014396118
0.0011351294
0.0018898706
0.0018346119
0.004106465
0.004078318
0.0038401708
0.0029896533
0.0028591359
0.0016938769
-6.8849366E-4
-0.0016932349
-0.0010456055
-0.0019927174
-0.0047269408
-0.0043911645
-0.0042553884
-0.0055419826
-0.004836206
-0.0044304295
-7.042969E-5
0.0018443115
0.004488535
0.0059675
0.0064788354
0.0043930593
0.003524912
0.0030143945
5.7676516E-4
-1.1323486E-4
0.0013615063
0.0014262475
-1.3375244E-4
-9.5612305E-4
-0.0013008643
-0.004092717
-0.0051893117
-0.002908794
-0.0030682764
-0.0011630176
0.0012417237
0.003211206
0.0049054297
0.0061943945
0.0057633594
0.0034652124
7.3758303E-4
-2.62417E-4
-1.0241699E-4
0.0017823242
0.002099436
-0.0019176758
-0.0024547875
-0.0020618995
-0.0034537525
-0.0038856054
-0.0031250878
-0.0010274585
-0.0026245704
-0.0015093115
7.130591E-4
0.0027525416
0.0027920238
0.005398618
0.006047583
0.0042618066
0.0039636595
0.0011784008
6.207715E-4
0.0017355127
1.955127E-4
-0.0035963403
-0.004470564
-0.0047647874
-0.0054613817
-0.0057803467
-0.0057493113
-0.004733535
-0.0032830175
-0.0014577588
1.3224121E-4
-0.020814136
-0.016506288
0.005852676
0.0063716406
0.007927718
0.0066990526
0.004873276
0.0016480176
2.8017577E-5
-0.0016267237
-0.002896206
-0.003558059
-0.002215171
-0.0044793948
-0.0047936183
-0.0033931006
-0.005059695
-0.004986289
-0.0029857715
-0.001118142
4.4422853E-4
0.002923711
0.0029731933
0.0030426758
0.0025697877
0.00269927
0.002216382
9.987524E-4
9.21123E-4
8.2349364E-4
-0.0020336183
-0.0032731006
-0.002912583
-0.0019096949
-0.0024168065
-0.0038386597
-0.0047828835
-0.0035647363
-5.4710696E-4
2.8289307E-4
0.0010552637
0.004509487
0.005818452
0.005867417
0.006628752
0.0038406055
0.0027000878
0.0026695703
0.0026590528
-5.233179E-4
-0.0056922827
-0.0046865065
-0.0034883593
-0.0051149535
-0.0058039185
-0.0035357715
-0.0025128834
-0.002349995
-3.4999513E-4
-0.0015847363
0.0016100049
0.003491858
0.0040237107
0.003625564
0.0019526758
9.267578E-5
9.050464E-4
0.0019221582
-2.578418E-4
1.421582E-4
-0.001452583
-0.003724436
-0.002421548
-0.0028510303
-0.0055976245
-0.006136589
-0.0050331834
-0.0024202955
7.5207517E-4
0.0010044458
0.001659187
0.0048634107
0.007094746
0.005743711
0.0046379347
0.0036197875
0.0033992701
0.0021763819
5.6875247E-4
-0.00270073
-0.0043449537
-0.0022320654
-0.0037139184
-0.006425254
-0.0060842186
-0.0067955544
-0.007909261
-0.005698225
-0.0012029663
-0.0054095606
-0.031026755
-0.003296238
0.006342727
0.0066940626
0.0071877684
0.0075714746
0.0049180686
0.003479922
0.0018046631
7.870337E-4
-2.729663E-4
-0.0031124488
-0.005229043
-0.0029785254
-0.003178008
-0.0022551196
-0.0010174903
-0.0036293434
-0.0028688256
2.1174317E-5
0.0019482861
0.0048725097
0.0057514748
0.005458069
0.0054046633
0.005683628
0.0056602224
0.0014349634
5.57334E-4
-7.350366E-4
-6.3740724E-4
-0.0017721484
-0.0017768897
-0.004371113
-0.0035229663
-0.00426719
-0.005573784
-0.0043180077
-0.0031874902
-0.0015922314
-4.7460204E-4
0.0012301392
0.003761992
0.004948586
0.00486281
0.004114663
0.0032041455
0.0023412574
0.0013659985
-7.963721E-4
-0.0050229663
-0.004044819
-0.0032143018
-0.0033737842
-0.0041056373
-0.0054422314
-0.0054888255
-0.0038406786
-0.0019177905
-7.501611E-4
0.0010322095
0.0023693212
0.004293545
0.00568251
0.0064014746
0.0040333276
0.0014380688
0.0031975512
0.0015622925
0.0013770337
-0.0011577075
-7.700781E-4
-0.0018148193
-0.0017095605
-0.0049661547
-0.005312749
-0.0027922315
-0.0032017138
-0.0020088258
-0.0019059374
0.0015088037
0.0034406567
0.0046748803
0.008260957
0.008357034
0.0074107395
0.0042849635
0.0029544458
0.0022015576
0.0016362988
-8.260718E-4
-0.0026755542
-0.004899778
-0.0050463723
-0.0043005957
-0.004534819
-0.004229043
-0.0031485255
-0.0018432667
-0.0012980078
-0.001712749
-0.011568308
-0.025688909
0.0057400563
0.008918503
0.00838458
0.008090657
0.0068119923
0.0054285866
0.0046528103
0.0034946632
0.0015294043
-0.0017153369
-9.577075E-4
-0.0018324488
-0.002811931
-0.002599043
-5.8141357E-4
-7.437842E-4
-2.3378417E-4
-4.761548E-4
-0.0034780079
-0.026058609
-0.0013233497
0.0069879857
0.0043322095
0.004886433
0.0037282861
0.0054248804
0.0033143628
9.667334E-4
4.59104E-4
5.5147463E-4
-5.20896E-4
-0.0014756372
-0.0042598606
-0.0023569725
-0.0012217138
-0.0014364551
8.159155E-4
0.0035777686
0.003117251
0.003529104
0.0050756983
0.0054422924
0.0037341455
0.0024612574
0.0029307397
0.0014854809
-0.0011892603
-0.0016540014
-0.0024011133
-0.002558225
-0.003970078
-0.0050166724
-0.004590896
-0.00420512
-0.004739343
-0.0015640844
8.4828614E-4
0.0018330273
0.0011777686
0.0019948804
0.0040867333
0.0048109572
0.0043451805
0.0032546632
0.0033541454
0.0023712574
3.412573E-4
-0.0010911133
-0.0011134839
-0.0013582251
-0.002455337
-0.0033348193
-0.007066155
-0.008412232
-0.0026193433
-0.0020164552
-5.988257E-4
-2.4882567E-4
9.435449E-4
0.0022206567
0.0045748805
0.004279104
0.003660957
0.0014656982
0.0020328101
0.0020299219
0.0014646631
0.0016994043
5.817749E-4
-6.505957E-4
-0.002700078
-0.0036819312
-0.0051485253
-0.004252749
-0.002189861
-0.0018146021
-0.0018593433
-8.4171386E-4
-0.0010140844
0.0020430274
0.0039748806
6.57251E-4
0.003629104
0.0033185864
0.0018533276
0.0019604394
0.0016151806
0.0011499219
1.2992187E-4
-0.0010124487
-0.0024895605
-0.0038714136
-0.004875637
-0.004709861
-0.005616455
-0.0037483082
-8.106787E-4
0.0015940625
0.0041359155
0.00551251
0.005941475
0.0052380688
0.004009922
0.0042441455
0.004558369
0.0034302222
0.002257334
-0.0028921484
-0.034268826
-0.011776756
-7.29126E-4
1.7087402E-4
-0.0022162378
-0.0019533497
-0.0043275733
-0.0027170556
-7.994263E-4
0.0013953149
0.0043295384
0.005968503
0.006217468
0.007901174
0.008667251
0.0064885863
0.005365181
0.0050317748
9.0414553E-4
-0.0012205957
-6.0595703E-5
-1.6059571E-4
-0.0023477075
-0.0022948193
-0.004829043
-0.003590896
-0.0023580077
-0.0023751196
-0.0034369726
4.8539796E-4
0.0023825099
0.0032319922
0.003923845
0.0052904394
0.0033999218
0.0026070336
0.0025541454
0.0024712572
7.3362794E-4
-8.887427E-4
-0.0010411133
-0.002558225
-0.0038700781
-0.0033395605
-0.0038814135
-0.0049280077
-0.0021051196
-0.0035569726
-0.004451196
-2.2119629E-4
0.001163545
0.0037853979
0.0049219923
0.0029214746
0.0036933275
0.0019204394
0.0022175512
0.002464663
9.770337E-4
-0.0011253369
-0.0027048194
-0.0027243018
-0.0038661547
-0.005032749
-0.0047469726
-0.0036488257
-0.0046830494
-0.0027425317
-0.0010349023
3.9746825E-4
0.00212458
0.0030940624
-0.0022230493
0.0014516918
0.0047359155
0.0035477686
0.0038696215
0.002709104
0.001966216
7.085864E-4
-0.0013961548
-0.0022532665
-0.0041774902
-0.0034293432
-0.0050259377
-0.004200161
-0.004424385
-0.0035462377
-0.001450979
0.0019061328
0.005512727
0.0068240627
0.0072277687
0.006829104
0.0048133275
0.0022104394
0.0016951807
0.0011599219
0.0014046631
-9.5336916E-5
-0.0020724488
-0.0033219312
-0.001989043
-0.003650896
-0.00512749
-0.0037793433
-0.004131196
-0.003973049
-0.0011377905
-2.7779053E-4
0.0019493212
0.0038311742
0.004395398
0.005001992
0.0052285865
0.002758069
0.0021151807
0.0038170337
0.0028765162
0.0028459986
-0.001126372
-0.002433484
-0.0026629663
-0.0038048194
-0.0039666723
-0.006415637
-0.0052722315
-0.0025393432
-6.317139E-4
-2.3171387E-4
2.2828614E-4
7.1065675E-4
0.0039925096
0.0043867333
0.0029862158
0.003398069
0.004099922
0.0026594042
9.717749E-4
-0.002205337
-0.0020924488
-0.00121719
-8.4956054E-4
-0.0035614136
-0.0040232665
-0.006584602
-0.0041788258
-5.211963E-4
0.001823545
0.0033930272
0.00392488
0.004259104
0.005045698
0.0029251806
0.0025722925
0.002741775
0.0010441456
-7.585449E-5
3.414551E-5
-0.0020729664
-0.00430719
-0.003789043
-0.0049032667
-0.0054298607
-0.0028593433
-0.002456455
-0.003858308
-8.3067873E-4
2.0932128E-4
-0.0016154199
2.2458007E-4
0.0010669507
0.003366433
0.003778286
0.0029877685
0.0011301391
-0.0018869727
-0.005003567
-0.02892365
-0.0069149854
-0.0015997266
4.6264403E-4
7.4501464E-4
-0.0018397266
-0.00426395
-0.0037158031
-0.0033152855
1.0471435E-4
0.0019018261
0.002288938
0.0046531614
0.0068444973
0.0074982033
0.0070295385
0.007173245
0.004697468
0.0038693212
0.0030088038
-8.835669E-4
-0.0016983082
-0.0025454198
-0.0058043846
-0.00696572
-0.0068570557
-0.006758391
-0.006227356
-0.0057163206
-0.0043805446
-0.0016252856
-0.0011800269
5.9973143E-5
0.002097085
0.00662842
0.004512644
0.0045568678
0.005353462
0.0041576857
0.0037895385
0.0017842798
-0.002252832
-0.0028123145
-0.0041241674
-0.004278391
-0.004302615
-0.0063915798
-0.0045058033
-0.0018105444
-0.0013852856
-0.0014400268
-0.0010523974
0.0013123438
0.001517085
-4.9528567E-4
0.004838938
0.003950791
0.0044950144
0.004389238
0.0034810912
0.0024682032
3.8057374E-4
-0.0019965381
-0.0026560205
-0.0020931324
-0.0027626147
-0.001797356
-6.5972656E-4
-0.0022868384
-3.9920898E-4
0.0010231616
0.0016679028
0.0042021265
0.007103462
0.008079538
0.006510874
0.0048150974
0.005221692
0.0044559157
0.00563251
0.0032319922
9.643628E-4
-2.056372E-4
-0.0010480079
-0.0019051196
-0.004599343
-0.0058183083
-0.0065796436
-0.0072933496
-0.009091797
-0.005568391
-0.003970244
-2.024414E-5
0.0029092382
0.0036510914
0.004555315
0.007991391
0.01131695
0.008243027
0.004507251
0.0015119922
0.0015567334
-8.356372E-4
-0.0035374903
-0.026330462
-0.020364467
-0.007368174
-0.009346621
-0.0064579565
-0.0044821803
-0.002589292
-0.002346404
0.0014483375
0.0053349314
0.008733379
0.009944197
0.010125015
0.008723462
0.007307168
0.0065385033
0.006107468
0.006296433
0.005915398
0.0028548804
6.3725095E-4
-0.0013974903
-0.0033769726
-0.005363567
-0.006242532
-0.0023396437
-0.0034814966
-0.005508091
-0.005494685
-0.003926538
3.5346192E-4
0.0026929444
0.0029424268
0.0027619093
9.242798E-4
2.4279785E-5
5.666504E-4
-6.657202E-4
-0.0030852025
-0.005301797
-0.006180762
-0.0048249853
-0.004609209
-0.0044334326
-0.0043576565
-0.00424188
-0.0023889916
-6.213623E-4
-6.537329E-4
-4.0610353E-4
-0.0014408447
-9.0844725E-5
0.0010115259
7.138965E-4
-0.003195586
-8.879565E-4
0.004316267
0.0016010083
-0.0012737329
-5.761035E-4
-2.2610351E-4
-0.0013608447
-0.0019279566
-0.0034998097
-0.0047540334
-0.005922998
-0.0064943335
-0.005040928
-0.001275669
0.0012290722
0.0036609252
0.0032704077
0.0041522607
0.0033117433
0.0031112256
0.0015759668
-3.640332E-4
-0.0017287744
1.6122559E-4
0.0013459668
0.0040778196
0.008063897
0.008309973
0.010263162
0.012181091
0.015388504
0.016730657
0.013763328
0.009794146
0.008220222
0.0038820752
6.344458E-4
-0.0018802955
-5.72666E-4
0.0066586696
0.010571858
0.004746082
-0.0020910304
-0.0051976247
-0.012365554
-0.017220078
-0.015167491
-0.0131577905
-0.0114433495
-0.0048175734
0.009793244
0.021761993
0.030256817
0.03738535
0.035766765
0.028004477
0.017419001
0.009207449
0.0021845605
-0.008321516
-0.01713604
-0.0239219
-0.030256724
-0.030031547
-0.030036371
-0.018695638
0.001859104
0.021245481
0.03763401
0.0489281
0.04913219
0.036818348
0.022529468
0.008305544
-0.023577943
-0.048529662
-0.03325397
-0.033128276
-0.034274954
-0.026717925
-0.007751631
0.008966817
0.012394746
0.013957417
0.012687718
0.008786164
-0.0033033178
-0.019514954
-0.03365163
-0.039867274
-0.040102914
-0.028432999
-0.013063299
0.005193296
0.01924256
0.028802644
0.029315097
0.027210439
0.022621557
0.012511858
-0.0048323656
-0.01783926
-0.019238526
-0.012406455
-0.010439644
-0.013872314
-0.016182097
-0.017086621
-0.01068981
0.010111008
0.03900428
0.065400526
0.07624996
0.078926496
0.07396881
0.06369795
0.057238113
0.042640865
0.022159614
0.0050662085
-8.761621E-4
-0.0060951267
-0.011903057
-0.023636546
-0.04300167
-0.057101835
-0.058866743
-0.06385825
-0.06701923
-0.062445987
-0.0539443
-0.024612531
0.017281992
0.043337118
0.046614096
0.03239603
0.016085813
0.0061747776
-0.004529446
-0.012559746
-0.010492935
0.0072107716
0.02405663
0.026509602
0.021948349
0.02417421
0.025042439
0.028612522
0.028822605
0.023206094
0.019547729
0.016809883
-0.0029795996
-0.029282054
-0.042094808
-0.04033045
-0.024176309
-0.01353898
-0.024054838
-0.022635957
0.012924343
0.038155243
0.035556663
0.02108304
0.02484127
0.04142165
0.08076531
0.1003706
0.094849296
0.06848502
0.01236295
-0.045559287
-0.10547117
-0.12231521
-0.09085968
-0.0066510183
0.11392694
0.21542257
0.26039043
0.23875953
0.14634943
0.027524775
-0.06454673
-0.14117002
-0.242241
-0.30117688
-0.26765606
-0.2125822
-0.1591524
-0.09252161
-0.029144065
0.024451794
0.050460625
0.054151308
0.075016
0.06610461
-0.0054219826
-0.06916008
-0.07333003
-0.038190927
-0.017525451
0.0074282545
0.04645523
0.089224964
0.10780396
0.091993175
0.06255993
0.049074024
0.017178547
-0.021690201
-0.039815843
-0.0038576953
0.07001277
0.10161281
0.08382594
0.018022835
-0.0322991
-0.08075275
-0.15376636
-0.14366677
-0.0737391
0.006542241
0.059859518
0.11449985
0.17298272
0.13760418
0.042899296
-0.023906564
-0.0631957
-0.10420284
-0.13309006
-0.13433203
-0.12871504
-0.08648529
-0.0058142506
0.032557685
0.035076734
0.062663496
0.09897404
0.13417602
0.15125014
0.12320654
0.0757836
0.007517307
-0.05758286
-0.10799185
-0.12359063
-0.11480097
-0.12935634
-0.1372778
-0.09855597
-0.06931406
-0.050932895
-0.033247203
0.0011051685
0.019606804
0.025807405
0.014864817
0.018764082
-0.0032954004
-0.066956386
-0.095707454
-0.07858399
-0.05734416
-0.029576614
-0.00862269
0.02571791
0.055703335
0.04339846
0.021354837
0.009033284
-0.013219387
-0.017393911
3.2608886E-4
0.009596907
0.001481648
-0.023301842
-0.037128
-0.030572824
-0.01890209
0.0042721336
0.012300064
0.009338511
0.006809846
0.0090682935
0.028066006
0.049802467
0.059609745
0.07057021
0.070470676
0.060580324
0.047439672
0.024425533
-0.014579509
-0.02747485
0.034714196
0.07513889
0.07427121
0.10066649
0.11506683
0.04815855
-0.025512053
-0.017938947
-0.023682436
-0.09747825
-0.14901525
-0.13917145
-0.114601776
-0.09755758
-0.061901975
-0.017226499
0.015993284
0.053651597
0.08734658
0.10212662
0.0850845
0.07971578
0.069773875
0.021070253
-0.0293022
-0.051663402
-0.07381572
-0.06212011
-0.044309977
-0.05738014
-0.080643795
-0.10495331
-0.08812067
-0.053468984
-0.011866914
0.032425024
0.05653282
0.047502164
0.05552759
0.06375672
0.024332581
-0.006418755
0.013161546
0.025492147
0.04319727
0.0374358
0.005532395
-0.004421829
-0.01402687
-0.027312212
2.3778809E-4
0.05176136
0.09506006
0.0861503
0.045924913
-0.0054816823
-0.06024133
-0.09996425
-0.11074273
-0.08968483
-0.057927366
-0.024815599
0.001249143
0.002266255
-0.028683828
-0.037349988
-0.022571106
-0.008187182
-6.3955324E-4
0.001295188
7.875586E-4
-0.0018671827
-0.004451406
-0.00425563
-0.0027851122
-0.0030145948
-0.0021517065
-0.003351189
-0.0026283008
-0.0033477831
-0.002364895
4.9747556E-4
0.0037893285
0.0060682935
0.006929629
0.008575706
0.008341782
0.007855488
0.0074991942
0.009590012
0.008206089
0.0067674243
0.006216389
0.0071077244
0.0077214306
0.006992766
0.0065941014
0.005110696
0.0051272903
0.0054938844
0.0051504783
0.006861814
0.00727552
0.007199226
0.006108191
0.0064795264
0.006550862
0.0063198265
0.0061387913
0.0039706444
0.004594868
-9.5131836E-5
-0.001379873
-0.0022569848
-0.003568838
-0.0031183204
-3.4832032E-4
0.003151162
0.0012159033
0.0027553858
0.003004868
0.0053314622
0.00872991
0.010713099
0.008689174
0.007492881
0.0060818456
0.002781328
0.0017760693
0.0013408106
-0.0012739307
-0.0033234132
-0.0031128954
-0.002822378
-0.0015471191
-0.0025542309
-0.004748455
-7.208252E-4
0.004955769
0.0048799925
0.006681328
0.0075950343
0.008371111
0.01109667
0.011682229
0.011047788
0.008153865
0.005410459
0.004917053
0.004211277
0.004907871
0.0030273534
0.0016520948
0.0018268359
8.492065E-4
0.0014739478
0.0023910597
0.0072947657
0.008903213
0.0092316605
0.010224849
0.01374752
0.014242561
0.014047602
0.012767903
0.013880574
0.010583762
0.009082209
0.008248286
0.0069796215
0.0057485863
0.00487281
0.005811775
0.0044759987
0.0039878516
0.004482075
0.0029315576
0.0046657813
0.007931858
0.009130306
0.009861123
0.010011941
0.007775647
0.007639353
0.006328318
0.0063172826
0.005333877
0.0023309889
0.0015157299
-2.6427003E-4
-0.011159829
-0.032641765
-0.0035536182
-0.0010459888
-8.4835937E-4
-0.0026154711
-0.0016002124
1.197876E-4
5.921582E-4
0.0027316406
0.0034734937
0.0047277175
0.0038895702
0.005066165
0.005542759
0.003584612
0.0020517237
0.0013264648
-0.0010059058
-0.0026653882
-0.0044096117
-0.0066809473
-0.0068622828
-0.0076859887
-0.008452065
-0.0075257714
-0.0075194775
-0.005176072
-0.004400295
-0.003029778
-1.5977783E-4
5.825928E-4
0.001657334
0.0027468165
0.0023439282
0.0015386695
0.0029981518
0.0025252637
2.952637E-4
-0.001067107
-0.0021842187
-0.0025413306
-0.0024884425
-0.004522666
-0.0045268894
-0.0030063721
-0.0026034839
-0.0011882251
-0.0010005957
7.817749E-4
0.0042959987
0.0036778515
0.0052744457
0.008490522
0.0062594875
0.0063184523
0.004502676
0.0025297876
0.0022768995
0.0011292701
7.1164063E-4
2.7164063E-4
-3.0835936E-4
-0.0026054713
-0.002532583
-0.0016573243
-7.5969484E-4
0.0030697875
0.0038216407
0.0037234935
0.005290088
0.0045243115
0.004328535
0.009296983
0.00879543
0.008933877
0.0068152123
0.0041470653
0.003346548
0.0029960303
5.7840085E-4
-0.0015963403
-0.0029858227
-0.0037876759
-0.003989529
-0.003461382
-0.0028908642
-0.002287976
-0.0030574584
-0.0011821997
2.578003E-4
8.801709E-4
2.101709E-4
-3.098291E-4
-0.017364353
-0.013867024
0.0064843115
0.004608535
0.0030580175
9.903882E-4
-2.9611816E-5
2.4038818E-4
3.603882E-4
9.427588E-4
-0.002364353
-0.0030838354
-0.001036206
-0.0016809473
-0.0015156885
3.343115E-4
0.003243794
0.0056303884
0.0074840942
0.0076078004
0.0083638765
0.007427583
0.003709436
0.002426548
0.0023536596
7.8603026E-4
-0.0015687109
-0.0022958228
-0.0020729345
-0.0023000464
-0.0032995287
-0.0025166406
-0.0027761231
-0.0019132348
-9.856055E-4
0.0022515063
0.0033709889
0.0048352126
0.0060341773
0.0048584007
0.006187366
0.0061863307
0.004078184
0.002747666
0.0014824072
0.0015671485
-3.3285157E-4
-2.8285157E-4
-4.5522218E-4
-0.0013599633
-0.0024170752
-0.0047012987
-0.0036031518
-6.655225E-4
0.0023515893
4.2395995E-4
-0.0013407812
0.0042134426
0.006382407
0.006411372
0.006090337
0.006671672
0.0025687842
0.0027382667
0.003397749
0.0023848608
5.4723147E-4
-0.0017175098
-0.0019246216
-0.002704104
-0.0048583276
-0.0045225513
-0.0040644044
-0.0011691455
-0.0014638867
-7.5625733E-4
0.0023408544
0.0039927075
0.0061016725
0.005760637
0.0066319727
0.004978567
0.0032280493
0.002505161
0.0013399023
-6.124683E-4
-1.5246826E-4
-0.0020395801
-0.0029890626
-0.0051756566
-0.0062646214
-0.005091216
-0.0029606982
-0.0034425512
-0.002219663
5.727075E-4
0.0036045606
0.004528784
0.005827749
0.005886714
0.005243308
0.003905161
0.004279385
0.0044836085
0.0024207202
-6.316504E-4
-9.44021E-4
-9.763916E-4
-0.0015111328
-0.0042853565
-0.006214321
-0.0056209154
-0.00509751
-0.0029869922
-0.0028964747
-6.2884524E-4
0.0011235254
0.003363008
0.005359602
0.0065809377
0.006982273
0.005711238
0.005207832
0.0032373145
0.0017320557
-0.0011926856
-0.0042069093
-0.018133804
-0.024692034
-9.544043E-4
-7.067749E-4
-6.091455E-4
-3.9145507E-5
3.2085448E-4
0.0017855957
0.003315078
0.0042993017
0.005655896
0.0056224903
0.006351455
0.007175161
0.008291238
0.005397832
0.002604944
0.0019520556
4.5442628E-4
3.1442626E-4
-8.7794435E-4
-0.002315056
-0.0018397974
-0.0031592797
-0.0038511327
-0.0034929859
-0.0028024684
-8.4483885E-4
0.0016799023
0.0026370143
0.003488867
0.005625461
0.0058644265
0.006323391
0.006262356
0.0018570971
0.002604209
0.002331321
2.213208E-4
-0.0012334205
-0.0012181617
-0.002847644
-0.003919497
-0.005808462
-0.006307427
-0.006386392
-0.005642986
-0.0047372095
-0.0016519506
0.0017127906
-6.495801E-4
0.0023575318
0.006618867
0.0052754614
0.0054120556
0.004546279
0.0016310205
-0.0022460914
-0.0031655738
-2.3557372E-4
-4.0794435E-4
-0.0032274267
-0.0043816506
-0.0038435033
-0.004797727
-0.00410958
-0.0029090624
-9.714331E-4
-7.438037E-4
1.4619628E-4
0.0031856787
0.0056646434
0.0062036086
0.005660203
0.0048244265
0.003996279
0.004820503
0.0020876147
6.8998535E-4
-0.0020371266
-0.003166609
-0.003618462
-0.0038003149
-0.0024174268
-0.00345928
-0.0033587622
-0.002375874
-4.3824464E-4
0.0012164966
0.0033983495
0.005444944
0.0068462794
0.0075699855
0.0075536915
0.0050902856
0.0044745095
0.004548733
0.0020058448
0.0019029565
-0.0013517847
-0.0012865259
-5.9889647E-4
-8.012671E-4
-0.0015360083
-0.0037978613
-0.004232085
-0.004013938
-0.0018286792
4.736914E-4
0.0014484326
0.0044826563
0.00462688
0.005483474
0.0050200685
0.0039919214
0.0038137743
0.0033332568
9.1562746E-4
-9.437256E-5
0.0012703687
-3.9631348E-5
-0.0016343725
-0.003073855
-0.003915708
-0.006184673
-0.0047888965
-0.003098379
-0.0012831201
0.0015016211
0.0027111035
0.0031605859
0.00514718
0.007410886
0.0064822217
0.0065535572
0.0051001515
0.0036720044
0.0025491163
4.114868E-4
6.9385744E-4
1.7385742E-4
-0.0016708837
-0.0021179956
-0.0011527368
-0.001577478
-0.0015222193
-9.1458985E-4
-0.0012093311
8.030395E-4
0.0010254101
0.002472522
0.0045467457
0.0044409693
0.0039628223
0.004757046
0.0024341578
0.00284364
0.0028731225
-0.0020039892
-0.0034158423
-0.0024829542
-0.016395107
-0.031954672
-0.0052312673
-0.0050178613
-0.0015726025
0.0025545093
0.0012992505
0.0027987328
0.0032382153
0.0052348096
0.0072485157
0.008134592
0.0077082985
0.008024375
0.0066057104
0.0056523047
0.0017270459
0.0014617871
0.0017565283
-0.0013282129
-0.0025353248
-0.002694807
-0.0033942896
-0.0036161426
-0.0024632544
-0.0049598487
-0.002799331
8.066894E-5
0.0017554101
0.002252522
0.006201487
0.007575193
0.005601787
0.0050083813
0.0053149755
0.002804458
-1.5554199E-4
-0.0019526538
-0.001307395
-0.0027468775
-0.0039387303
-0.0038805834
-0.0022076953
-0.0028971778
-0.00336666
-0.0032061427
-0.0019832544
-0.001025625
-1.75625E-4
0.0018914868
0.0043457104
0.004789934
0.0051165284
0.0029460108
8.9838135E-4
0.0019454932
0.0016502343
0.001022605
4.949756E-4
-0.0014297656
-0.0020368774
-0.0023739892
-0.004488213
-0.0051248074
-0.0034966602
-0.0038585132
-0.0012432544
6.691162E-4
9.514868E-4
0.0018985986
0.0031980812
0.003659934
0.004454158
0.003946011
0.005022605
0.002019717
4.020874E-4
-0.0011302832
-0.0035821362
-0.004123989
-0.0030334718
-0.0023705836
-0.004524807
-0.004889031
-0.0025561426
-0.0013508837
-0.0028703662
-0.0014151074
8.072632E-4
0.002074375
0.0019314868
0.005098081
0.006267046
0.004028899
2.8898925E-5
-1.9110108E-4
0.0018036402
-1.7635987E-4
-5.487305E-4
-2.6873048E-4
-0.004522954
-0.0027924366
-0.0019195484
-0.004253772
-0.003995625
-0.0029851075
-0.0016398486
-5.222192E-4
-7.221924E-5
0.001292522
0.0025896337
0.0030991163
0.00448334
0.0028828222
0.0029623047
0.0026617872
0.001988899
-5.534717E-4
-3.334717E-4
4.652832E-5
-0.0020205835
-0.0036224364
-0.005489031
-0.0062479954
-0.0049745897
-0.0034564428
-0.0023435547
-0.0022406664
0.0014740747
0.002713557
0.002170669
0.003802522
0.0045167455
0.0044309692
0.0051375637
0.002757046
0.0021441577
0.001588899
-1.1010742E-6
-0.0013158423
-0.0027153248
-0.0037971777
-0.0027966602
-0.0028061427
-0.004360366
-0.0018051075
-5.7747803E-4
0.0012972632
0.004291487
0.0039733397
0.0055599343
0.004061787
0.0041236402
0.004337864
0.0033997167
0.0019668287
0.0010391992
3.091992E-4
-6.131714E-4
-0.0019302831
-0.002567395
-0.003789248
-0.0031187304
-0.0036805836
-0.004704807
-0.00388666
-0.002563772
-3.7377197E-4
7.1859866E-4
0.0020257104
0.0031251928
0.0039570457
0.0035988989
0.005405493
0.0044897166
0.0025868285
0.0016415698
-0.0018531714
-0.0031826538
-0.0033221361
-0.002549248
-0.0032687304
-0.0050353245
-0.004911919
-0.004686143
-0.0018508838
-0.001815625
-0.0017503662
-2.603662E-4
0.0019667456
0.002676228
0.0047104517
0.005127046
0.0033365283
0.0022736401
0.0033731225
0.0022002344
0.0011649756
0.0014697168
-8.426538E-4
-3.426538E-4
-0.001557395
-0.002454507
-0.0022316186
-0.0015763598
-0.0030958422
-0.0049624364
-0.00429666
-0.0043908837
-0.005317478
0.0017372632
0.003949116
0.0031585987
0.002688081
2.8081055E-5
-2.8191894E-4
6.8081055E-5
-6.642896E-4
-8.866601E-4
-0.0015514013
-0.0037832544
-0.0076769604
-0.007840667
-0.009299113
-0.00762282
-0.0032223023
-0.002119414
-6.941406E-5
0.0028200683
0.0030995507
0.0037314037
0.00731511
0.007658816
0.007452522
0.003624375
0.0021014868
0.0028209693
-6.9030764E-5
-0.0019361426
-0.0017708838
-0.001735625
-0.0028751073
-0.004529331
-0.0044935546
-0.0040154075
-0.0057543726
-0.003023855
-2.6385498E-4
8.614502E-5
0.0022532567
0.0033827391
0.0053093336
0.0051059276
0.0034977808
0.0027372632
0.0040591164
0.001906228
1.8622803E-4
5.7859864E-4
-7.1377197E-4
-9.361426E-4
-0.0016808838
-0.0029003662
-0.0027598487
-0.0048640724
-0.0055806665
-0.00417489
-0.002402002
0.0011527393
0.0012274805
0.0020745923
0.0036064454
0.0032359278
0.00337541
0.0017701513
-0.002679331
4.7303954E-4
0.0012477807
7.778076E-5
-0.0038140723
-0.0051906663
-0.0021977783
-0.0016825196
-0.0035143725
-0.003263855
-0.004035708
-0.0024528198
-0.0022999316
-0.0015246728
0.0010076978
7.400684E-4
0.0032495507
0.005496145
0.003957998
0.0026774805
0.0022145922
6.169629E-4
-4.9540773E-4
-8.1777835E-4
-0.00204489
-0.0034467431
-0.0047009666
-0.005849932
-0.0062088966
-0.00424312
-0.0066444557
-0.007368162
-0.00952898
-0.028379062
-0.005145657
0.0023214552
0.0058304197