-0.0121399
-0.011727829
-0.010138648
-0.009899465
-0.009710283
-0.008838731
-0.008284807
-0.0052714013
-6.4377196E-4
0.0031357105
0.005482305
0.00662364
0.004697864
0.005054458
0.0030939404
0.0023810524
0.0025381641
-0.0024289477
-0.005005542
-0.007539248
-0.009680066
-0.012067996
-0.0119259255
-0.011611484
-0.009922302
-0.007736008
-0.004460232
-0.0014449732
0.001489768
0.008445845
0.0076495507
0.0071108863
0.0058498513
0.005376445
0.0065477807
0.005324375
0.0019814868
8.438574E-4
-0.003065625
-0.004179849
-0.0063488134
-0.009919631
-0.012939932
-0.011485491
-0.010338679
-0.0076623852
-0.004366609
-0.003828462
-3.484619E-4
0.00260865
0.0051452443
0.00764895
0.0065202857
0.0034221387
0.0019992504
0.0023463622
0.0012811035
-0.0019260083
-0.0056526028
-0.006933938
-0.010979497
-0.011075056
-0.009433503
-0.010094321
-0.011649881
-0.009560699
-0.007884405
-0.0039562574
-0.0018309986
0.0013837427
0.003915596
0.0056945607
0.005131155
0.0044253785
0.004239602
0.0026890845
3.3908448E-4
-0.0038927686
-0.0044069923
-0.006095957
-0.008612034
-0.010062852
-0.010978411
-0.01232634
-0.0113919
-0.0102950875
-0.008431165
-0.004415388
-0.0012901294
0.0024169823
0.004451206
0.0051978
0.0052543944
0.0047686184
0.0015833593
0.00107573
-0.0017190112
-0.0033884936
-0.0035203467
-0.005496941
-0.007240647
-0.010091465
-0.013434135
-0.012894436
-0.011589995
-0.011115554
-0.00763926
-0.0037711132
-0.0037129663
-0.0017277076
0.004596516
0.006035481
0.006334446
0.0041786693
0.0018234106
0.0019605225
-1.4947754E-4
-0.0027989598
-0.003560813
-0.0066621485
-0.0075858543
-0.008974302
-0.011649861
-0.013232532
-0.011598091
-0.01028128
-0.0076049855
-0.0034368383
1.0316162E-4
0.0035450147
0.0076587205
0.01203665
0.0099474685
0.008663545
0.008399622
0.0061785863
0.00445281
0.0018675512
3.9992188E-4
-0.0011348194
-0.0024519311
-0.005950896
-0.009159343
-0.00824542
-0.0068167555
-0.004880979
-0.003542832
0.0015719092
0.004196133
0.00898458
0.012494881
0.013979922
0.0115854805
0.010608669
0.009879488
0.007170823
0.004385046
0.0027845288
-7.578418E-4
-0.0019749536
-0.0033968065
-0.0052634007
-0.008039477
-0.007853184
-0.006654519
-0.007558225
-0.00608719
-0.0023543017
0.0018404395
0.006671775
0.008900222
0.010223411
0.009421858
0.010265047
0.0065863817
0.005382976
0.0043872
0.0037090527
0.0019461645
-6.46206E-4
-0.0049828
-0.0070541357
-0.007165471
-0.008973919
-0.008669995
-0.0066513307
-0.0043355543
1.744458E-4
7.568164E-4
0.0021739283
0.005832893
0.0066542285
0.010115046
0.010145864
0.008651941
0.0067732763
0.0049598706
0.003029353
0.0020064649
-3.3353516E-4
-0.0027730176
-0.0060519823
-0.0072456887
-0.007929395
-0.0073731006
-0.006424436
-0.0019215478
0.001925564
0.004157417
0.008263494
0.009834312
0.007898018
0.009508835
0.010129653
0.009258101
0.006639436
0.0031089184
4.6128905E-4
-0.0014734522
-0.004527676
-0.0059166406
-0.006947976
-0.0073916824
-0.007815388
-0.010156206
-0.008904654
-0.006303618
-0.00242073
7.1164063E-4
0.0040734936
0.006734829
0.0074285353
0.008484612
0.007758318
0.008064395
0.00662573
0.0020328418
-0.0013318994
-0.0032313818
-0.0041756053
-0.0038874585
-0.009678276
-0.0146333175
-0.0096041355
-0.008190213
-0.008366289
-0.005602883
-0.003974736
-5.571069E-4
0.0038147462
0.008540823
0.008016899
0.0074606054
0.0063695703
0.006258535
0.0061475
0.0030269825
5.6982422E-5
-0.0037848705
-0.0046690945
-0.005798059
-0.0068993946
-0.0071931006
-0.008389177
-0.0096799955
-0.009018443
-0.006539778
-0.0026268896
5.8548094E-4
0.0042297044
0.0056986692
0.006890005
0.008878452
0.008094529
0.0077682347
0.003850088
0.003551941
0.0023290527
-0.0024180592
-0.0041522826
-0.0071859886
-0.006687324
-0.007901031
-0.009951849
-0.008607925
-0.00686926
-0.0050458545
-0.0025329662
-8.1533694E-4
0.0010470337
0.0054736277
0.0064649633
0.0056839283
0.006122893
0.005359487
0.006118452
0.0050850464
0.004036899
4.1927E-4
1.1927002E-4
-0.003692583
-0.0046168067
-0.008022883
-0.00941133
-0.0073550367
-0.007838743
-0.007120078
-0.0028695606
-0.0014243018
0.0031851807
0.0067765163
0.0068078516
0.009588669
0.0059876344
0.0040994873
0.004483711
0.0012584522
1.6845214E-4
1.5845215E-4
-0.0023586596
-0.0023757715
-0.005182366
-0.006493701
-0.005972666
-0.009221113
-0.00799719
-0.0046214135
-0.0019285254
-3.385254E-4
0.003310957
0.0043151807
0.0075788866
0.007100222
0.007433928
0.0074476344
0.0049542286
0.0040360815
0.0036279345
0.0010103051
3.3030516E-4
-0.0029791773
-0.0054057715
-0.006987107
-0.007870813
-0.0062097777
-0.007955855
-0.0052324487
-0.003361931
-5.193115E-5
0.003409922
0.008045998
0.008522076
0.006643411
0.007727117
0.006578452
0.004662676
0.0037845287
5.768994E-4
-0.0018902124
-0.0056368066
-0.0055634007
-0.0073171067
-0.008073184
-0.006514519
-0.007278225
-0.008786673
-0.0074203783
-0.0049269726
-6.8934326E-4
6.830273E-4
0.0068343626
0.00908281
0.0073265163
0.003738369
0.004914963
0.0030044457
0.001159187
9.615576E-4
-0.0020855542
-0.004279778
-0.0059587425
-0.0070400783
-0.0066214134
-0.011096973
-0.013549644
-0.012097573
-0.00796365
-0.003835503
9.3686767E-4
0.0027763501
0.0048705735
0.007061909
0.0076956153
0.0081016915
0.0070530274
0.0052296217
0.0037214747
0.0018662158
8.621582E-5
-0.002410896
-0.0050374903
-0.007331196
-0.009722014
-0.011607573
-0.010340761
-0.00991158
-0.007152915
-0.003974768
-0.0026218798
5.304907E-4
0.0025176026
0.004561826
0.0066931616
0.0075368676
0.007118203
0.0067495387
3.1953858E-4
-0.0010028321
-0.0018075733
-0.002294685
-0.0024817968
-0.005448391
-0.0065897265
-0.006901062
-0.007854768
-0.007458474
-0.00693981
-0.0062587745
-0.001121145
0.0012635962
0.00440782
0.0064167846
0.007600491
0.007394197
0.005320791
0.0030302734
0.0023373852
0.0018321264
-3.4787355E-4
-0.0016226148
-0.0048068385
-0.0049834326
-0.0061723976
-0.0051589916
-0.004995586
-0.0047498094
-0.0025169214
-1.1692139E-4
0.0018878198
0.005384414
0.00742812
0.0054047145
0.00674605
0.008452127
0.008458203
0.007761909
0.006280874
0.003812727
3.5272705E-4
-0.003969126
-0.0049857204
-0.0053123143
-0.009010762
-0.0103139505
-0.009454768
-0.007468474
-0.005837439
-0.0054240334
-0.004135886
-0.001912998
-0.0016777392
7.646314E-4
0.0025017431
0.0016864843
0.0016912256
0.002910708
0.003722561
2.5256103E-4
-0.0028269214
-0.0049135154
-0.003052998
-0.0028624805
-0.004596704
-0.004510928
-0.005587522
-0.005534116
-0.0038759692
-0.001983081
0.0014816602
0.002308772
0.005545366
0.008161443
0.00922989
0.008878337
0.009116785
0.008282862
0.0070041968
0.00405605
0.001720791
7.910156E-7
4.3316162E-4
-0.001109209
-0.0025263207
-0.004068174
-0.005214768
-0.005141362
-0.004225586
-0.0020426977
0.002184414
0.0029738965
0.006485232
0.008621309
0.011586867
0.008222944
0.007846651
0.009295098
0.008161174
0.004655398
0.0025325099
-8.8986085E-4
-0.001504602
-0.0013493432
-0.0032488257
-0.00509542
-0.0064967554
-0.004760979
-0.0045552026
-0.0032046852
-8.070557E-4
0.0035747974
0.0056013917
0.009099839
0.010443027
0.010676215
0.011071775
0.009762593
0.00894104
0.0070223757
0.004246599
0.0015613403
-0.0017234009
-0.0021705127
-0.0014152538
-0.0054518483
-0.008167924
-0.0057068896
-0.0019840014
3.4599853E-4
0.0016207397
0.0031602222
0.007443928
0.007717634
0.009538452
0.0073921583
0.008508235
0.009366682
0.005665647
0.0045698704
0.0016146118
-1.9538819E-4
-7.977588E-4
-0.0037096117
-0.006540947
-0.006319912
-0.0052265064
-0.0049231006
-0.003322583
6.497876E-4
0.00337927
0.005718235
0.007271941
0.010495129
0.010618318
0.008594395
0.003363877
-0.023299612
-0.021365989
-0.02601659
-0.026991932
0.0044922926
0.0039541456
0.0016988867
3.888672E-5
-0.0024182252
-0.0033077076
-0.0019348194
-3.6481934E-4
-0.002381931
-0.0023290429
-3.0904298E-4
0.004265181
0.005061775
0.0055083693
0.0050049634
0.0054515577
0.004755781
0.0049423757
0.00642134
0.004745564
0.0046397876
0.0020668993
-0.0011054712
-0.0039773243
-0.0050739185
-0.005350513
-0.006591848
-0.003463701
-0.004447925
-0.0033374073
4.6496338E-4
0.0029644459
0.004156299
0.0057852636
0.0071465992
0.004360823
0.0030603053
-5.9694823E-5
2.7030517E-4
-3.0969482E-4
-4.4206544E-4
-0.002641548
-0.0060005127
-0.00857659
-0.008022666
-0.0086587425
-0.0047329664
-0.0023400781
-0.00243719
-8.0956053E-4
-0.0011443017
0.0048899218
0.009368369
0.009889187
0.007242893
0.0069442284
0.004408452
0.0045926757
0.0028521582
0.0027316406
0.0013963819
-0.0012883594
-0.004382583
-0.0075362893
-0.010219477
-0.011285037
-0.009383484
-0.00729719
-0.003709043
-0.0011314136
0.0039404393
0.006671775
0.010544963
0.011400523
0.010031341
0.008467417
0.0031468994
-2.3310058E-4
-9.054712E-4
-0.0017402124
-0.004154436
-0.0050010304
-0.006189995
-0.007343701
-0.009222148
-0.009330596
-0.008586672
-0.008422749
-0.0067840843
-0.0017988257
0.0020482861
0.0049125096
0.005309104
0.0029285864
0.00438281
0.002349922
0.0035717748
0.003573628
2.2362793E-4
-3.887427E-4
-0.004812966
-0.010286155
-0.014051196
-0.014166238
-0.012896538
-0.012966839
-0.009225286
-0.0036871387
-0.0018918798
0.0029876025
0.009628421
0.012498721
0.013941391
0.016613545
0.017328069
0.014493111
0.009411558
0.0050681517
0.0030676343
0.0017523755
-5.9999514E-4
-0.0056565893
-0.007942666
-0.009873484
-0.013496155
-0.013298825
-0.011024385
-0.008762832
-0.0033923145
0.0035695385
0.011787469
0.018124362
0.02165311
0.026536081
0.025616681
0.027302023
0.026837366
0.022868484
0.014835896
-0.0015188452
-0.012709145
-0.01881841
-0.020712417
-0.017749311
-0.016741464
-0.022862583
-0.025180813
-0.02101719
-0.020641197
-0.026494168
-0.035435587
-0.013948257
-0.012908557
-0.013018858
-0.025669457
-0.0148268705
0.017697655
0.03587907
0.052595016
0.061437033
0.05876194
0.050470773
0.041241154
0.025881756
0.0038536084
-0.018363286
-0.03126048
-0.043697976
-0.04121836
-0.035189778
-0.031036973
-0.026679944
-0.023945803
-0.019697439
-0.016519593
-0.017264117
-0.014559158
-0.013871829
-0.01449687
-0.015074282
-0.011712212
-0.0045664357
0.008189641
0.021558389
0.02681373
0.028643813
0.025944414
0.019113678
0.014188721
0.0071500563
0.003961909
0.007365615
0.021171993
0.039475262
0.052631207
0.058676112
0.062422875
0.052486446
0.027311787
0.002168899
-0.02248222
-0.047029197
-0.06891492
-0.07677672
-0.06894245
-0.056480244
-0.042262997
-0.021199375
-0.0063383398
1.8166016E-4
-0.0020854517
-0.007789158
-0.006490493
0.0011942481
0.01459929
0.034398336
0.051139537
0.058824446
0.05709461
0.049721073
0.049425162
0.042477913
0.024313774
0.013346446
0.008452522
0.016002305
0.011027864
-0.012812437
-0.048704155
-0.06625277
-0.055668194
-0.041116208
-0.0183731
0.0074006054
0.024858836
0.02972129
0.037207447
0.055230502
0.07471519
0.080156475
0.07306643
0.07685823
0.08923796
0.0964914
0.071174234
0.03276617
-0.0024409425
-0.031960506
-0.05277645
-0.06829981
-0.07183501
-0.07333496
-0.069935426
-0.073585376
-0.086597994
-0.09095247
-0.07877901
-0.054439694
-0.0205837
0.0257369
0.09475323
0.1934701
0.2569561
0.2700124
0.22307174
0.19334862
0.16129592
0.059823204
-0.05603222
-0.119396776
-0.14508194
-0.16500872
-0.18095767
-0.18679321
-0.17950742
-0.14251547
-0.09306704
-0.04334217
-0.011870097
1.0990234E-4
0.026122874
0.0557983
0.044468164
0.038219064
0.03398574
-0.024360117
-0.0674611
-0.04959756
-0.054418243
-0.040223885
0.04526835
0.11474868
0.10946242
0.029784873
0.0062738378
-0.012454092
-0.04945818
-0.018677447
0.031522118
0.033266425
-0.030218398
-0.11289162
-0.1674379
-0.19378714
-0.16427156
-0.11221478
-0.07087762
-0.041168
-0.02231912
0.027998595
0.12368737
0.21333589
0.23291603
0.20808795
0.22510439
0.2208666
0.12993434
0.0553774
0.0014421436
-0.06460173
-0.09525043
-0.13247529
-0.13394488
-0.070035346
-0.0042595677
0.05012689
0.0848024
0.089492135
0.029434584
-0.07633485
-0.13966341
-0.21174718
-0.2564108
-0.19222295
-0.10104061
0.014664434
0.13016218
0.18510297
0.16537213
0.108623505
0.07438582
0.046642803
-0.024383057
-0.13528739
-0.20169035
-0.19864382
-0.18680936
-0.17874119
-0.14058211
-0.093726076
-0.04076409
0.032127846
0.08475336
0.09213257
0.070033036
0.014378076
-0.06535817
-0.100423455
-0.070966296
0.024539566
0.09245878
0.12156045
0.11239367
0.10845503
0.08548291
0.011810842
-0.035650577
0.03267136
0.08867872
0.07458341
0.04793276
0.043970253
-0.0030192286
-0.11748904
-0.12110834
-0.060757987
-0.0281157
-0.017070225
-0.034529272
-0.06516314
-0.08211154
-0.09684498
-0.106649235
-0.10523875
-0.0811724
-0.04587701
0.0036548437
0.07904376
0.1352981
0.13949665
0.13935284
0.20103343
0.24069965
0.26521173
0.23278189
0.10127954
-0.04190084
-0.118903026
-0.23802976
-0.30671224
-0.26104248
-0.18028903
-0.09187825
0.0044559743
0.097161785
0.1583396
0.16766588
0.12226992
0.081285946
0.0011906885
-0.080280595
-0.11091907
-0.13887526
-0.14381568
-0.089647785
-0.05600321
-0.06484708
-0.003978933
0.123467475
0.23193525
0.27723527
0.27262107
0.221998
0.122934416
0.05106562
-0.025864981
-0.14831962
-0.22697318
-0.2482931
-0.2877863
-0.28261292
-0.21964276
-0.16150007
-0.12188173
-0.09328569
-0.07075852
-0.04829024
-0.032252178
-0.023515666
-0.013838338
-0.0062873024
-0.0035491553
-0.0014638965
0.0014208447
-4.9152586E-4
-0.00526812
-0.008976568
-0.013789238
-0.012579539
-0.006420874
-0.004195098
-3.3509766E-4
0.0062438673
0.006212832
0.010936021
0.015453433
0.014638474
0.018627739
0.019669374
0.017333899
0.017198423
0.020522429
0.019914065
0.0195457
0.019204967
0.020068971
0.018385867
0.021452244
0.023908103
0.027453445
0.03141301
0.032897316
0.035868734
0.035850152
0.03345446
0.033921137
0.033095445
0.028955527
0.026820868
0.02433673
0.019258365
0.014103406
0.013033706
0.009412154
0.0070234886
0.005650083
0.003801936
0.002569048
0.0031785304
0.0037703833
0.0049469774
0.009145425
0.013278096
0.01637025
0.017867144
0.015154555
0.0149319675
0.014337009
0.010500197
0.009541016
0.00541761
0.004029463
0.0029789454
-6.234253E-4
-0.0015781665
-0.0069095017
-0.007463208
-0.0052398024
-0.0032892847
-0.0014540259
-0.00493062
-0.003922473
0.005766492
0.007280198
0.0068315333
0.00879998
0.01144554
0.0091739865
0.007447693
0.0069190282
0.006440364
0.0032298462
-1.3015381E-4
-0.001754895
-0.0030743775
-0.004818601
-0.0045328247
-0.005399419
-0.005066013
-0.002423125
9.592456E-4
0.0018739868
0.0045382106
0.008174287
0.0076179933
0.0064393287
0.005295923
0.0028654053
0.0021125171
0.0014072583
-0.0028022241
-0.0049064476
-0.0053930418
-0.005649636
-0.007413342
-0.010446531
-0.01157209
-0.009642907
-0.006954243
-0.006423208
-0.004757432
0.0015173096
0.0057762745
0.0076699806
0.009158428
0.007892134
0.0061310986
0.009359546
0.005998511
-0.010554678
-0.030791873
0.0024652393
0.0064965747
0.003066057
0.0028555396
6.3791015E-4
0.0010302807
0.0027297633
0.0037116162
0.0035834692
0.005762434
0.008198511
0.009459329
0.014806741
0.0149541525
0.016856305
0.014923718
0.013276389
0.011001948
0.009140396
0.0063093603
0.004703584
6.859546E-4
-0.0013387867
-7.5115723E-4
-0.004685381
-0.0070767165
-0.009557534
-0.0073912404
-0.008047317
-0.0065486524
-0.002005764
0.0031637182
0.0049603125
0.0082863895
0.007850096
0.0056466893
0.0053532836
0.0042075072
0.0031469897
0.003316472
-3.3352783E-4
-0.001178269
-0.0033777514
-0.0034496044
-0.0038914576
-0.005108052
-0.005024646
-0.0083507225
-0.0062596877
-0.0025667993
-6.6799315E-5
0.0014779419
0.0047121653
0.0055787596
0.0077124657
0.007486172
0.005442766
0.00486699
0.0042612134
0.002118325
1.2832519E-4
-0.001546416
-0.0037582691
-0.0051548635
-0.004909087
-0.004975681
-0.004869905
-0.005276499
-0.003628352
-0.0011330933
0.0010692773
0.004153501
0.0032429835
-0.00428124
-0.026644211
-0.018231105
-0.01925037
-0.016030153
0.010283034
0.013183335
0.011338894
0.009207341
0.0099981595
0.004782383
0.0022794947
9.949463E-5
-3.7050538E-4
-0.0018352466
-8.1761717E-4
0.003464236
0.007960312
0.008076389
0.011844319
0.013566989
0.01274729
0.01310759
0.010710779
0.007174485
0.00652582
0.0068271556
0.00495375
7.361206E-4
-0.0021009913
-0.0029504737
-0.003339956
-0.0045741796
-0.0056631444
-0.005259739
-0.0019168506
-0.0013015918
5.107788E-4
0.0024678907
0.007921597
0.008880044
0.009500862
0.01000168
0.008297756
0.0075414623
0.005328057
0.0021451684
-8.5720216E-4
-0.0014519433
-0.004366167
-0.005905132
-0.006626467
-0.0064178025
-0.00895625
-0.008292327
-0.005588921
-0.0013436622
0.0037481908
0.003460044
0.0058290088
0.0060579735
0.0043921974
0.006371162
0.006210127
0.005979092
0.005195686
0.003457539
0.0022146509
-1.6534912E-4
-0.0031548315
-0.005501426
-0.0071527613
-0.008721208
-0.009389656
-0.007743362
-0.005922327
-0.003381809
-2.3180908E-4
0.003750044
0.0057490086
0.007362715
0.0067940503
0.008620127
0.007613833
0.0044480567
0.0054746508
0.0037565038
0.0019036158
-0.0019234961
-0.0036253491
-0.004509573
-0.005376167
-0.005602761
-0.006261726
-0.0060106907
-0.0052672853
-0.0034691382
3.008618E-4
0.0031503441
0.0061593093
0.006118274
0.00782198
0.008688057
0.007901763
0.0016765039
-6.158667E-4
0.0029336158
0.0031930981
-5.4927246E-4
-0.0014740137
-0.0049606077
-0.0068319435
-0.006523279
-0.007084614
-0.0066359495
-0.0058549144
-0.003154397
-0.0016391382
0.001695603
0.0056021973
0.0069235326
0.0062324977
0.007948575
0.0065999096
0.005566504
0.005153098
0.004197322
-9.850488E-4
-0.0048492723
-0.0076929787
-0.009061426
-0.009632244
-0.009553062
-0.01160862
-0.042411376
-0.017325899
3.1410158E-4
0.0036259545
0.0062649194
0.006716255
0.008754702
0.008833149
0.008721597
0.008077674
0.0051042675
0.0035461206
0.0027956031
3.7797363E-4
-0.0014467676
-0.0036786206
-0.004562844
-0.006311809
-0.007505515
-0.00636448
-0.0062134448
-0.004065298
-0.0019424097
0.0024347021
0.004228926
0.006970261
0.009971079
0.011706638
0.008602715
0.008688792
0.006970127
0.0044943504
0.0038862035
0.002745686
-0.0013490552
-0.0036109083
-0.0036827612
-0.006544097
-0.0068454323
-0.007279138
-0.007252844
-0.0065341797
-0.0033336622
-0.0014784033
2.915967E-4
0.0042258203
0.004420044
0.0064513795
0.0102545675
0.008783015
0.0067643505
0.004448574
0.0013133155
-6.9905515E-4
-0.002236167
-0.0029656494
-0.0031451317
-0.0063940967
-0.007567803
-0.0075615086
-0.007585215
-0.005141809
-0.004816033
-0.0020031445
0.0018815966
0.0036634498
0.0061524147
0.00654375
0.0070350855
0.007166421
0.005563015
0.0035148682
0.00198198
-3.5802E-4
-0.0011203906
-0.0033398732
-0.0052264673
-0.0073701735
-0.00867625
-0.010027068
-0.008663145
-0.0063021095
-0.004978704
-0.0025758154
1.0418457E-4
0.004258408
0.004692632
0.0064239674
0.0063729323
0.004144785
0.0043390086
0.0033384913
8.108618E-4
9.4323244E-4
-8.491382E-4
-0.0043433616
-0.007154697
-0.014429739
-0.010242927
-0.006371892
-0.0054784864
-0.0058474513
-0.004651675
-3.3167482E-4
0.0032178075
0.0039296607
0.005216255
0.008162332
0.007596038
0.009214485
0.009735303
0.007259009
0.0028484913
0.0018532324
-0.0022838793
-0.004488103
-0.0044823266
-0.0059812916
-0.008237368
-0.008043445
-0.007787151
-0.0071684862
-0.005807451
-0.0052840454
-0.0028135278
0.001893584
0.006152549
0.007053884
0.0065652197
0.0067665554
0.0051631494
0.0031726318
0.0022997437
9.3211426E-4
-0.0012426269
-0.0016973682
-0.004129221
-0.004653445
-0.00625241
-0.008238486
-0.0065298215
-0.005116416
-0.003588269
-5.8269045E-5
0.003943584
0.00758729
0.009738108
0.008554185
0.007940262
0.007923967
0.006272932
0.005921897
0.0033613795
0.0017261206
-0.0015786206
-0.034637667
-0.017712193
-0.0021793041
-0.0037211573
-0.005850122
-0.0041543455
-0.0041985693
-0.0025056812
0.0010866894
0.004830913
0.00836699
0.009255437
0.0103486255
0.009819443
0.008927891
0.008353967
0.0052905614
0.003390044
0.0029995264
0.0015542676
-0.0017204736
-0.0031399562
-0.0045541795
-0.0075378856
-0.009106333
-0.0070376685
-0.0051842625
-0.0034861157
-9.684863E-4
8.5388427E-4
0.0054204785
0.009248925
0.009729744
0.009480561
0.00977138
0.008617456
0.0055240504
0.0018887914
0.0012135328
-4.288379E-4
-0.0027183203
-0.0041401736
-0.0049567674
-0.007850474
-0.008838921
-0.006740256
-0.0054668505
-0.002946333
-2.2633301E-4
0.0016684082
0.006287373
0.00922582
0.008361897
0.0069732326
0.00871168
0.006843015
0.0051096096
0.004293833
0.0011362036
-8.26167E-4
-9.785376E-4
-0.0038903907
-0.0064317263
-0.0065830615
-0.007906768
-0.008462844
-0.009171291
-0.012491592
-0.0026510742
5.212964E-4
0.00446552
0.008151596
0.008617673
0.0072313794
0.0065227146
0.0057016797
0.006423015
0.004154868
0.0012196094
0.0011943505
-0.002835132
-0.003966985
-0.0054735793
-0.008089656
-0.010242844
-0.009361291
-0.0074749975
-0.00317448
-0.0011292212
7.4314943E-4
0.0026526318
0.0043668556
0.0071281907
0.0077818967
0.0051584914
0.002435603
0.0018203442
-0.01922892
-0.028006634
0.00481759
0.0037694434
-4.9292727E-4
4.7072754E-5
-0.0019600391
-0.0036918921
-0.005770857
-0.00396271
-0.0031621924
-4.2456298E-4
0.0028849195
0.007146255
0.010899443
0.009740261
0.0074539674
0.007287673
0.0078613795
0.0054479735
0.0041621975
0.0041540503
8.964209E-4
-0.0023006909
-0.0047249147
-0.004409138
-0.007872844
-0.0075665503
-0.006777886
-0.007159221
-0.0050458154
-0.0020829272
0.001191814
0.0046360376
0.006467373
0.00934582
0.009354267
0.008520344
0.005809309
0.004813533
0.0048277564
0.0031272387
-0.0015675024
-0.0052840966
-0.0047883205
-0.0051849145
-0.0056938794
-0.006725215
-0.009223662
-0.0086497385
-0.003491592
-6.439624E-4
0.0019531494
0.0049597435
0.005506338
0.009044785
0.008330862
0.008166938
0.006528274
0.0046324977
0.0034743506
0.0023814624
-0.0010909082
-0.0035327612
-0.0057617263
-0.007595432
-0.008221509
-0.009682327
-0.008648403
-0.006789739
-0.0047539626
-0.0016787036
-4.5107421E-4
0.0042431494
0.0062721143
0.006001079
0.007334785
0.007990862
0.0066721975
0.0064435326
0.0033630151
0.0016577564
9.0012694E-4
0.0018248681
-0.003396985
-0.0032364673
-0.0055030617
-0.0064220265
-0.0050486205
-0.0061075855
-0.00533418
-0.0026936622
0.0018410791
0.0039829323
-1.2706788E-4
0.0054195262
0.009387974
0.009448792
0.009619609
0.0066409446
0.0043351683
0.0022422802
1.9228028E-4
-2.2771972E-4
-0.0035595729
-0.0057085375
-0.005385132
-0.008803579
-0.008369655
-0.00556625
-0.003858103
-0.0036299562
-5.923267E-4
0.0031771557
0.0061961208
0.008582197
0.008478274
0.00751198
0.0059109447
0.0042251684
0.005361763
0.0044959863
7.8835693E-4
-0.0013363843
-0.002373496
-0.0064648315
-0.008993279
-0.012241209
-0.03934448
-0.020068487
-3.1848633E-4
0.0025286255
0.007049961
0.008686038
0.010036855
0.011302414
0.012030344
0.010673532
0.009794351
0.009442798
0.005649392
0.0032488746
0.0037007276
6.930981E-4
8.154687E-4
-0.0021816432
-0.006380608
-0.0072643138
-0.0070656496
-0.005994614
-0.0066459496
-0.005132544
-3.9491456E-4
-0.029567368
-0.008103445
0.012756855
0.012024785
0.012302714
0.009993533
0.00800961
0.0067709447
0.003942798
0.0014675391
7.299097E-4
-0.0013548315
-0.0045490554
-0.00584802
-0.0070593553
-0.0082754325
-0.006184397
-0.0044186204
-0.003038103
2.9189698E-4
0.0041961204
0.0060550855
0.007898792
0.007974868
0.009595686
0.0069470215
0.006768357
0.0016630981
0.005619692
0.0023968043
-9.255664E-4
-0.0017203076
-0.0015250489
-0.0032245312
-0.004478755
-0.00577772
-0.0062666847
-0.005643279
-0.0045775026
-0.0022246141
0.0019024976
0.0054090917
0.007792798
0.008578874
0.010262063
0.007625769
0.006184734
0.0048789573
0.0040608104
0.0022179224
1.3792237E-4
-0.00297156
-0.004155784
-0.007157119
-0.008003196
-0.007446902
-0.0077106077
-0.0058195726
-0.0028990551
3.809448E-4
0.0030104273
0.0065717627
0.008537839
0.009448657
0.010391845
0.006503181
0.004657405
0.003569258
0.0048834817
8.6585205E-4
-0.0011388891
-0.0012536304
-0.0023907423
-0.005719707
-0.0064410423
-0.0060500074
-0.004424231
-0.0023813427
-0.0018984546
-4.908252E-4
0.0026362867
0.005242881
0.0071242163
0.007517922
0.0076116286
0.0071753343
0.005261929
0.0033314112
0.002488523
2.2852294E-4
-0.0027209595
-0.0036728126
-0.003002295
-0.0054888893
-0.007822596
-0.008298672
-0.0058976365
-0.0036594898
-0.004141343
6.110278E-4
0.0025081397
0.0036399928
0.005656587
0.008332663
0.0040045166
0.008070594
0.010803781
0.008219859
0.0028693408
-0.0071719945
-0.035533413
-0.007917119
2.3288086E-4
-0.0025842309
-0.0024713427
-0.005367937
-0.0048721605
-0.003141643
-0.0013163843
0.0011359863
0.00448021
0.009028657
0.010501846
0.011437405
0.0106105935
0.011026152
0.009556971
0.009005417
0.0076991236
0.006880459
0.0034723121
-7.768799E-5
-0.003899541
-0.0068008765
-0.010021694
-0.012389624
-0.010392812
-0.00880126
-0.0060502244
-0.004554448
-9.968189E-4
0.0031526636
0.0060816286
0.0060605933
0.006741929
0.0069732643
0.005662229
0.004124082
0.0020211937
6.635644E-4
-6.7880616E-4
-0.0015235473
-0.004497771
-0.007521477
-0.009612295
-0.009400742
-0.0071320776
-0.0059910426
-0.0069823777
-0.003694231
0.0015005103
0.005839475
0.0070308107
0.0060997754
0.008688223
0.007169558
0.0044137817
0.004658005
0.004412229
0.0021593408
0.0016040821
4.1645265E-4
-0.002620659
-0.0038725121
-0.004486736
-0.0065780715
-0.006377036
-0.006046001
-0.005122595
-0.0029720776
-0.0017468189
0.002140293
0.0048745167
0.0061134812
0.0051100757
0.0052166698
0.006055635
0.0025227466
0.0020398584
-3.9251221E-4
-0.0012172534
-0.0023643652
-0.0052909595
-0.008037036
-0.007620742
-0.0069020777
-0.004968672
-0.0057176366
-0.0025547484
-5.2711915E-4
0.0014176221
0.0066389577
0.009067405
0.0070387404
0.0073224464
0.0085685225
0.0065398584
0.0036617115
0.0012464527
-2.9354737E-4
-0.0040454003
-0.0063843653
-0.0028438477
-0.0033933301
-0.0055999244
-0.006058889
-0.0054954835
-0.005632078
-0.0024891894
-7.9189456E-5
0.0025879224
0.0058368873
0.008282964
0.009983782
0.009022229
0.0067635644
0.004157788
0.0052643823
0.0022514942
-0.0011308765
-0.0051974705
-0.008333547
-0.006172512
-0.0065838476
-0.0076175537
-0.007108889
-0.0067302245
-0.0057791895
-0.0035510424
-0.0015057836
0.00458844
0.0067597753
0.008395852
0.007199558
0.0072132642
-0.0031462184
-0.029841043
0.005495552