-0.035820223
0.0042439993
0.013084299
0.015714083
0.015081494
0.011317053
0.012254983
0.009865801
0.007599507
0.005546101
0.0038279542
-9.744165E-4
-0.0041462695
-0.007077605
-0.0046618287
-0.004586052
-0.006145017
-0.0046492405
-0.0031187232
-3.9109375E-4
0.0017936474
0.004487871
0.009276318
0.010699507
0.010472695
0.011478255
0.010139072
0.007932778
0.006774114
0.0033959667
0.001310708
-2.19292E-4
-0.003571145
-0.004012998
-0.006151963
-0.008730411
-0.009208857
-0.008334934
-0.0064862696
-0.0037781226
-7.404932E-4
0.0023066187
0.0065379543
0.008244031
0.008682478
0.007526184
0.0055227783
0.004347002
0.004138855
0.0018535962
8.259668E-4
-0.0035558862
-0.0065772217
-0.006548557
-0.009057004
-0.010127822
-0.012688123
-0.010028941
-0.0073026465
-0.0038444996
3.755005E-4
0.004509724
0.00771343
0.004577654
0.0026871362
0.009415584
0.009866402
0.008562478
0.004919072
0.0018638135
5.861841E-4
-0.0028532983
-0.0049098926
-0.0055064866
-0.008542564
-0.010475752
-0.01037894
-0.009789758
-0.006168723
-0.003910576
0.0010217944
0.004546018
0.009264465
0.011872395
0.009843213
0.010246402
0.009444849
0.0067761843
0.0048504076
0.004794631
0.002281743
-0.0031277393
-0.0055743335
-0.004930928
-0.007102263
-0.00802834
-0.006569675
-0.009520493
-0.006379458
-0.0026065698
-3.6656982E-4
-0.0027260522
0.005370542
0.011758472
0.011314031
0.011329589
0.009990408
0.005187002
0.0043112254
0.0026383374
-0.0010740332
-0.003935886
-0.009536704
-0.049270794
-0.014898205
-0.0051348
-0.0059737647
-0.0040356177
-0.0024427294
-7.451001E-4
0.0032643822
0.0063833473
0.009141794
0.011779724
0.011425283
0.011130842
0.010714031
0.007657737
0.0057167015
0.0036285548
0.0025056666
-1.14333496E-4
-0.0019114453
-0.0036832984
-0.0056498926
-0.007965969
-0.007819675
-0.0053362697
-0.0041081225
-0.0053747166
-0.00347657
6.3580077E-4
0.0071271365
0.010830325
0.0105335135
0.011991443
0.00918989
0.007975967
0.005874932
0.003064414
0.0027238964
-0.0013108447
-0.0044150683
-0.0062140333
-0.00793011
-0.007863816
-0.008339892
-0.006981228
-0.0054878225
-0.004442046
-0.0012667871
0.0033326952
0.00611166
0.0069129956
0.008489072
0.008505149
0.008683596
0.007164932
0.0041567846
0.002846267
0.0012110083
3.110083E-4
-0.0029584742
-0.0047726976
-0.005509292
-0.009720109
-0.010633298
-0.0075970045
-0.0055035986
-0.0040654517
-0.0013201928
0.0013245484
0.006323513
0.00853959
0.009660408
0.008616485
0.009304931
0.006746267
0.004720491
0.0032699732
-3.0026855E-5
-0.0010123975
-6.3476805E-4
-0.0036066212
-0.005905586
-0.007679292
-0.008687739
-0.006749075
-0.00671041
-0.004664634
-0.001649375
0.0023477369
0.0056867017
0.008685149
0.011853078
0.010526267
0.010629456
0.007070791
0.004142644
0.002559756
0.0012244971
5.868677E-4
-7.7550294E-4
-0.0051320973
-0.0066934326
-0.008219509
-0.008305586
-0.0088040335
-0.007847739
-0.0035795923
0.0017151489
0.0045993724
0.0076530785
0.009411526
0.008979973
0.00813605
0.009384497
0.007698203
0.0036800562
0.0027995387
0.002739021
0.0010813916
-0.0020657203
-0.003997573
-0.0073212795
-0.008709727
-0.008115803
-0.0073795095
-0.006078474
-0.0027479564
-0.0022150683
-0.0036869214
6.754492E-4
0.007941525
0.008407602
0.008816049
0.007942126
0.0069734617
0.0043176855
0.003217168
0.0014419092
-7.7046145E-4
-0.0033499438
-0.0042041675
-0.006875503
-0.0082515795
-0.008930027
-0.008546104
-0.006637439
-0.003529292
3.8070802E-4
0.0024478198
0.0058067846
0.009215232
0.00954605
0.009044497
0.0065258327
0.0021829444
-7.594263E-4
-0.002196538
-0.0064378735
-0.0040297266
-0.0023868384
-0.0059158034
-0.009034251
-0.010507439
-0.010470628
-0.02712597
-0.041033983
-0.0017387231
0.0030207592
0.005719724
0.0085358005
0.01111136
0.01273166
0.014236702
0.011864631
0.008630708
0.008626785
0.0076304907
0.002889973
-6.7239744E-4
-0.0021695092
-0.0024066211
-0.0049132155
-0.008689292
-0.011314851
-0.010095669
-0.008471746
-0.0054783397
-0.0025254516
0.0025316603
0.0032411425
0.006732478
0.010905666
0.011171225
0.010384414
0.00721812
0.0055047143
0.0027741967
0.0020413087
1.313086E-4
-0.0030181739
-0.0033576563
-0.006036621
-0.008612698
-0.010163516
-0.011229075
-0.007202781
-0.006181746
-0.0018064869
0.002230625
0.00614959
0.009078037
0.008886484
0.0072601903
0.0069915256
0.0066428613
0.004817085
0.0021341967
0.001218938
-4.1343263E-4
-9.0580323E-4
-0.0036876563
-0.0064689917
-0.0078826975
-0.009401145
-0.009571963
-0.0076856688
-0.0049722632
-0.0014070044
5.853662E-4
0.0049119606
0.0075356667
0.008824114
0.008682561
0.0070238966
0.008269973
0.005958938
0.003670791
3.931616E-4
-0.0014015796
-0.004595803
-0.0068071387
-0.009977956
-0.011243516
-0.010706704
-0.008512781
-0.005039375
-0.003761228
-7.6359865E-4
0.0017011425
0.0042453664
0.008351443
0.00913989
0.008205967
0.009144414
0.006393379
0.0048576025
0.0022347143
3.4714354E-5
-0.008571362
-0.0054779565
-0.003377439
-0.005666404
-0.008754851
-0.009585669
-0.0069270045
-0.0070683397
-0.0043625636
-9.249341E-4
0.0027845483
0.0064035133
0.009504331
0.01121989
0.010873078
0.008589155
0.0082952315
0.0060641966
0.0045984206
0.0037902733
5.9264404E-4
-0.0017320971
-0.004526321
-0.0062152855
-0.010648474
-0.013771145
-0.014828557
-0.011224116
-0.0066454518
-0.002684934
0.0020921777
0.005268772
0.007984849
0.009655667
0.0066170017
0.008143079
0.007546785
0.0060957493
0.0032952318
0.0024723439
-2.2765624E-4
-0.002354768
-0.005151362
-0.008387439
-0.009235886
-0.0070372215
-0.006568557
-0.0069098924
-0.0058188573
-0.0028883398
9.540308E-4
0.005140625
0.007624331
0.009322778
0.0099335965
0.009062043
0.0072257495
0.0053323437
0.0033418261
0.0018365674
-0.0024905445
-0.0041323975
-0.0055489917
-0.0069003273
-0.008556404
-0.009637222
-0.008483298
-0.0070946338
-0.0043988572
2.0114258E-4
-0.004643081
-0.0357345
0.002644983
0.014882395
0.012120325
0.012288255
0.0117561845
0.010759372
0.00922782
0.0044620433
0.0018667846
0.0012115259
-7.208447E-4
-0.0020879565
-0.005274551
-0.0064858864
-0.005684851
-0.0067261867
-0.00430041
0.0010419604
0.005348555
0.008034632
0.009033078
0.011328638
0.009147085
0.007420791
0.008096867
0.0079729445
0.004807168
0.004119021
0.0024161327
-0.0011786084
-0.0020857202
-0.005774685
-0.0082107615
-0.009349209
-0.010752398
-0.008098474
-0.0045926976
-0.0010050683
0.0019920436
0.006111008
0.008447085
0.008123161
0.009321609
0.009010056
0.009660874
0.008176951
0.0042811744
8.435449E-4
1.6354492E-4
7.159155E-4
-0.0024111962
-0.007184902
-0.012595203
-0.018182097
-0.014337138
-0.012315068
-0.009173515
-0.0060324804
-0.0020295922
0.0023675195
0.0048717433
0.006000708
0.0062496727
0.00799575
0.0074294554
0.007010791
0.006409756
0.0032992384
-0.0021878735
-0.0040897266
-0.00488395
-0.0054205447
-0.0072842506
-0.007930327
-0.009378774
-0.0063277395
-0.0056043337
-0.0024314453
8.509253E-4
0.0055675195
0.006166484
0.0068378197
0.0065491553
-0.010534033
-0.027791746
0.00792196
0.008268037
0.006157002
0.003888855
-3.9351563E-4
-0.0027829981
-0.003544851
-0.006243816
-0.007667522
-0.008313599
-0.0062225633
-0.003312046
-1.320459E-4
0.0016526954
0.0039045482
0.007208254
0.0078419605
0.0076556667
0.007899373
0.005938337
0.0034201904
0.003249673
0.001794414
3.7678468E-4
-0.0011155859
-0.003397439
-0.005816404
-0.009497222
-0.0115627805
-0.01147834
-0.009559157
-0.007945234
-0.0034370874
6.652832E-4
0.0044495068
0.0048637306
0.007857436
0.009165884
0.008361961
0.0066332957
0.0069646314
0.0073683374
0.0037901904
1.7019043E-4
-0.004394033
-0.0065353685
-0.0053119627
-0.007605669
-0.011331228
-0.01494864
-0.008124717
-0.0057836818
-0.0019907935
0.0013439477
0.0034458009
0.005652395
0.010675583
0.009716402
0.0079824785
0.0070538134
0.006665149
0.0047793724
0.004863596
0.0020907081
-0.0011740332
-0.0033335157
-0.0037153687
-0.008551445
-0.008087522
-0.008113598
-0.0075473045
-0.0057962695
-0.003085752
1.2424805E-4
0.0045884717
0.009519289
0.009870107
0.007946184
0.008684631
0.0064559667
0.006557302
0.0050938963
0.0023610082
-5.713623E-4
-0.0026508446
-0.0048150686
-0.011742998
-0.02820071
-0.040938724
-0.0027982055
-2.3820557E-4
5.6416506E-4
0.002061277
0.0044355006
0.006736836
0.010630025
0.014395066
0.012122995
0.012370925
0.013403596
0.008882044
0.006463379
0.0026628613
0.002119973
-6.0026854E-5
-0.0041542505
-0.0041461037
-0.0065274388
-0.010600627
-0.011266187
-0.008764634
-0.008370711
-0.0053773047
-0.0012620459
9.903247E-4
0.0063192896
0.008727737
0.010530925
0.009751743
0.008017819
0.008273897
0.0054804906
0.0018852319
-0.00215188
-0.005638474
-0.03427515
-0.018784417
-0.003173899
-0.004155752
-0.003567605
-0.0019447168
-1.9471679E-4
0.0010376538
0.0031571363
0.0068384716
0.009226919
0.009877737
0.010300925
0.011086484
0.0096673025
0.0030167846
5.791553E-4
3.3915526E-4
8.915527E-5
-0.0010132153
-0.0049098097
-0.0057087746
-0.0070001096
-0.009318558
-0.011054116
-0.009854934
-0.0070462697
-0.003385752
-5.7519533E-6
0.0036561012
0.0064274366
0.009265884
0.009476702
0.0060356664
0.007157002
0.003638855
0.0020259668
0.0031054493
0.0015801904
-8.521802E-4
-0.0029816625
-0.0036035157
-0.0057724803
-0.006793816
-0.008832263
-0.0066635986
-0.0056101927
-0.001414934
0.0015498071
0.0029692897
0.008055367
0.008071443
0.003673296
0.011348855
0.0097696725
0.0072633787
0.0059823436
0.0043165674
0.0024436791
-0.001161062
-0.0029605445
-0.0038423974
-0.006533733
-0.011309292
-0.011767222
-0.009598039
-0.007119375
-0.0029288575
0.0015258838
0.0024029957
0.0072767017
0.011302261
0.011790191
0.011475749
0.011281309
0.010364497
0.009895315
0.0063342797
0.001209021
-0.002428091
-0.004059944
-0.0048141675
-0.0073778736
-0.00839395
-0.008200027
-0.0058989916
-0.004623215
-0.0039450685
-0.0014398096
3.8019044E-4
0.0052767848
0.005643379
0.005619973
0.0051865675
0.0053131618
0.0037850146
0.0024821265
0.0023492384
0.0018739795
2.139795E-4
-0.003135503
-0.0053220973
-0.005218691
-0.0060076565
-0.007983733
-0.007347439
-0.0070787743
-0.00791248
-0.0064014453
-0.004545669
-0.0010580396
0.0041038133
0.0054604076
0.006541743
0.00811782
0.0074315257
0.00524812
0.0044523436
0.0010147144
-9.776562E-4
-0.0026347681
-0.0027342504
-0.0033437328
-0.006665068
-0.006676404
-0.0037582568
-0.00352011
-6.024805E-4
9.2989014E-4
0.0016446314
3.5463134E-4
7.3700194E-4
0.004181226
0.0071725613
0.008861008
0.013913679
0.016625833
0.015825614
0.015625399
0.013075698
0.011191257
0.0050378516
-0.0023192603
-0.0049258545
-0.008261931
-0.008840378
-0.004154602
0.0012101391
0.001977251
0.0028867335
0.0050033275
0.0074570337
0.0068583693
0.002435481
-7.768897E-4
-0.002896372
-0.008312449
-0.006673784
-0.0064951195
-0.008923567
-0.011089126
-0.012789426
-0.013382097
-0.011257656
-0.008683733
-0.011409292
-0.029641746
0.017732779
0.035424195
0.03903747
0.033634145
0.027129488
0.016611641
0.0035634937
-0.0036583594
-0.0041302126
0.00304927
0.009417717
0.009678535
0.008444612
0.0058335764
0.0012683179
-0.007987759
-0.018887024
-0.027834736
-0.033059042
-0.032953348
-0.02630632
-0.016748475
-0.010331662
-0.006622998
-0.0054095923
-0.004433816
-0.0013785572
0.001406184
0.006395149
0.012053079
0.021881826
0.036145616
0.04503785
0.04891194
0.04828366
0.04054167
0.029574126
0.012734426
-0.0057245386
-0.022925656
-0.02949811
-0.029610563
-0.024598794
-0.0203428
-0.016274953
-0.014079995
-0.012550295
-0.011085855
-0.004680078
-0.0050166724
-0.0032761549
0.0027733278
0.0061322926
-0.0026148194
-0.0097556375
-0.01512305
-0.014608091
2.519092E-4
0.020425916
0.038866818
0.049863275
0.05471396
0.053362273
0.04442214
0.030789334
0.02105571
0.01266601
7.183814E-4
-0.019000884
-0.038541786
-0.04342691
-0.042589664
-0.040747676
-0.037446205
-0.027121548
-0.022442667
-0.022653785
-0.023477273
-0.026690245
-0.03154981
-0.032914117
-0.039207388
-0.0405654
-0.026678372
0.0049382225
0.06019787
0.12261191
0.17372715
0.2020301
0.19373934
0.16192666
0.12511018
0.095448874
0.079147786
0.06321692
0.025477517
-0.017317006
-0.0694751
-0.09755091
-0.108119905
-0.1134355
-0.10208553
-0.061739918
-0.0125602195
0.007853487
-0.009967332
-0.045861937
-0.075628996
-0.059776276
-0.02795399
-0.011781919
0.0048523047
0.024208164
0.041878548
0.048430268
0.025088497
-0.015621287
-0.05659908
-0.08151511
-0.058810014
-0.01943165
0.02576895
0.06096097
0.06239773
0.058762636
0.053018577
0.019600214
-0.011405344
-0.022506462
-0.030893657
-0.042526413
-0.075903475
-0.117513284
-0.14392607
-0.13015382
-0.060925834
0.025474766
0.08255316
0.12366194
0.13511628
0.13904247
0.14762475
0.13729618
0.14616609
0.186974
0.21951385
0.18287753
0.056042954
-0.08148307
-0.14886008
-0.22199704
-0.26157728
-0.20728682
-0.05650461
0.08659801
0.17860748
0.20675702
0.14469218
0.0050987694
-0.1290466
-0.22617541
-0.27596068
-0.25648668
-0.19368356
-0.13634264
-0.10065794
-0.08917767
-0.08391081
-0.058433343
-0.015420754
0.015246658
0.023290146
0.034509193
0.053797506
0.07429983
0.10132749
0.13644657
0.204469
0.26611346
0.28324243
0.201063
0.07812718
0.025627786
-0.06770557
-0.19655192
-0.2373263
-0.20905295
-0.1940422
-0.1702056
-0.101955615
-0.04293074
-0.015570525
-0.0064418605
-2.186035E-5
0.035329558
0.094275884
0.12583177
0.0943581
0.12359688
0.10273928
-0.04087873
-0.059946008
0.044693857
0.098422036
0.094288364
0.044145856
-0.041904528
-0.120361455
-0.16223113
-0.16154844
-0.15092257
-0.122726604
-0.08750159
-0.040499605
-0.0010819751
0.014423067
0.012350996
-0.02014301
-0.08314378
-0.1379776
-0.11868978
-0.10182981
-0.08460532
-0.040903334
0.021093043
0.10078833
0.16485512
0.19206727
0.18885991
0.157243
0.0716982
-0.036837958
-0.08588821
-0.059405483
-0.037624013
-0.039007284
-0.046171892
-0.061586283
-0.07072912
-0.035118166
0.0041136867
0.047883034
0.1088344
0.1211537
0.097329505
0.07793368
-0.0033981737
-0.10995428
-0.12476543
-0.06711642
0.0018883252
0.09696176
0.18694967
0.22762322
0.22185019
0.16218986
0.07701167
-0.021264711
-0.08397785
-0.095758915
-0.09168576
-0.08199415
-0.076153584
-0.0866762
-0.06337534
-0.03269727
-0.025887873
-0.03475692
-0.03221886
-6.21228E-4
0.052422345
0.15118647
0.20645364
0.18731155
0.07455624
0.002283352
0.01077654
0.013659212
-0.032935094
-0.088864826
-0.08676745
-0.14056838
-0.17755547
-0.16958886
-0.16608039
-0.14769503
-0.110873505
-0.087708496
-0.061010517
-0.034389567
-0.010955124
-0.0021322363
-0.022403354
-0.037921883
-0.038322784
-0.039768428
-0.02905851
-0.019047776
-0.010983335
-0.0053299293
0.0028395532
0.009328
0.0126683
0.017805194
0.025093425
0.027128767
0.025819367
0.025409969
0.022781087
0.020475093
0.016717246
0.011935175
0.00550177
-0.006307195
-0.0033866772
-0.0038885302
-0.0073022363
-0.007825943
-0.007309648
-0.0018743896
2.9561034E-4
0.0010079809
0.003589834
0.00817591
0.01240384
0.015371253
0.018760517
0.024216376
0.029098831
0.030966025
0.03221796
0.03363464
0.031464204
0.028524287
0.021683035
0.015722817
0.011780747
0.010783936
0.008660012
0.0111155715
0.014852983
0.016465137
0.018544402
0.019966038
0.019225303
0.018472197
0.01611198
0.017396504
0.016238658
0.01544607
0.013488741
0.008967187
0.0060161524
0.0013908936
-0.0020262182
-0.006345183
-0.008743631
-0.01298393
-0.012634231
-0.01019742
-0.006978755
-0.0036306079
-0.024376467
-0.03049129
0.0052753026
0.006666638
0.0053832326
0.0054698265
0.0033893092
4.416797E-4
-3.4832032E-4
-0.0040001734
-0.0049567674
-0.008042844
-0.010063662
-0.011209222
-0.012519522
-0.01078271
-0.008408787
-0.005405381
2.1461914E-4
0.006083584
0.008942031
0.013152331
0.016524484
0.017099008
0.015508791
0.014613833
0.011721763
0.009872581
0.006743916
0.0044581397
0.0034299926
0.0025671045
1.871045E-4
-8.552661E-4
-0.0055118604
-0.006340825
-0.001967937
8.044336E-4
0.0056210277
0.008367104
0.009777922
0.012628223
0.015165634
0.011763564
0.011449124
0.011967054
0.0087355
0.0058544655
0.0016392065
-6.031641E-4
-9.855346E-4
-0.005602129
-0.007958205
-0.010701394
-0.012139324
-0.011674883
-0.00921333
-0.008169407
-0.005106001
5.7636964E-4
0.0024534815
0.004477705
0.007761411
0.008417488
0.007751194
0.009229641
0.008625718
0.0048699416
0.0027894238
5.3179445E-4
-0.0011005761
-0.002427688
-0.0032971704
-0.008333247
-0.010456435
-0.010259624
-0.0086657
-0.0056846654
-0.0034665186
4.9585203E-4
0.004460076
0.009198523
0.011986453
0.011102011
0.00963283
0.008771277
0.008137354
0.00800343
0.006342395
0.003594248
0.0018189893
-1.7101075E-4
-1.3101075E-4
-0.0022081225
-0.0052547166
-0.006906052
-0.0064173876
-0.006518723
-0.002215835
5.1653566E-4
0.0031160181
0.0071673533
0.009948172
0.00972899
0.010842178
0.009442995
0.008901443
0.0064427783
0.0040446315
8.463135E-5
-0.0018701098
-0.0017148511
-0.0032743334
-0.0058332984
-0.008029375
-0.0065707103
-0.0077544167
-0.006495752
-0.003517605
-2.760498E-5
0.0037242481
0.007717954
0.009156401
0.008984849
0.006876184
0.00725989
0.007423596
0.0053601903
0.004814414
0.0014591552
-4.2321533E-4
-0.002160327
-0.00394218
-0.004556404
-0.0076201097
-0.005999075
-0.007212781
-0.0064641163
-0.0027035987
0.0020035133
0.0033229955
0.006864331
0.009262778
0.008741226
0.009099673
0.010130491
0.007384197
0.007547903
0.005966868
0.0019139795
-0.0010183911
-0.0024655028
-0.0056320974
-0.005771062
-0.009851879
-0.0353333
-0.043288425
-8.107935E-4
4.2157716E-4
7.0394774E-4
0.005110542
0.007334248
0.011389807
0.012427737
0.012738037
0.012265967
0.010839155
0.008035232
0.0053118262
0.00430605
0.0038779029
0.0019050146
1.4501465E-4
-0.0015797266
-0.005276321
-0.0071676564
-0.0068189916
-0.0062279566
-0.002787439
-7.1980956E-4
0.004484414
0.008992861
0.011298421
0.010601609
0.010834797
0.009485615
0.00567458
0.004668804
0.0029082862
6.906567E-4
-0.0010217138
-0.005118308
-0.0061272727
-0.006918608
-0.009469426
-0.009940244
-0.008406321
-0.0077800266
-0.0030695093
1.00490724E-4
0.0024076025
0.006858938
0.0071102735
0.0081163505
0.009527168
0.008173245
0.0063822092
0.004836433
0.0030959155
0.002675398
9.4776857E-4
-0.004906455
-0.009877273
-0.005473867
-0.006362832
-0.007756538
-0.007920244
-0.0071215797
-0.0041858032
-0.001962915
0.0023441967
0.007477903
0.007581609
0.010444798
0.011962727
0.011108286
0.011163846
0.007287551
0.004271775
0.0020388868
-1.01113284E-4
-0.0017658545
-0.0030153368
-0.0058443015
-0.008600378
-0.009491196
-0.006802532
-0.007576238
-0.004972832
-2.8283204E-4
0.0015619092
0.0032913915
0.0074650976
0.008833545
0.009131992
0.0075956983
0.007599404
0.005908369
0.0032778515
-8.6451904E-4
-0.0038663722
-0.0044005956
-0.01698275
-0.04960921
-0.011534768
-0.003506621
-0.002203733
-8.373291E-5
0.002243379
0.004155232
0.007748938
0.009689756
0.013552426
0.013805098
0.01411014
0.010453328
0.008049404
0.0065007396
0.0060197045
0.003179187
7.8155764E-4
-0.0026455543
-0.0034174072
-0.0055840015
-0.0063229664
-0.007969043
-0.008687491
-0.0074911965
-0.0056377905
-0.0039296434
9.42727E-4
0.0033922095
0.008608286
0.010571474
0.009389922
0.011195481
0.008873928
0.0071876342
0.0053642285
0.003143711
1.6371094E-4
-7.1865966E-4
-0.0056776246
-0.00661896
-0.007442666
-0.009261114
-0.00901956
-0.007000896
-0.006369861
-0.0045740847
-0.0011988257
0.0018859155
0.008181992
0.01007281
0.009653628
0.0029931103
-0.0014516308
0.005654963
0.0054515577
0.0013662989
-0.002220813
-0.0033802954
-0.0040921485
-0.006473484
-0.011379043
-0.0118269725
-0.00917542
-0.008511497
-0.0074852025
-0.004879426
-2.8942627E-4
0.0032600563
0.009268504
0.00850458
0.0076382863
0.009096733
0.006658069
0.0046522925
0.0022794043
8.517749E-4
8.341455E-4
-0.0017805957
-0.0057295607
-0.0072032665
-0.008409344
-0.009460161
-0.007966238
-0.0062152026
-0.0029846851
-0.0023617968
-4.241675E-4
0.005804797
0.009465615
0.012143545
0.010806734
0.009867551
0.01117311
0.008851558
0.0046157814
0.0012305224
-6.618482E-4
-0.0045060716
-0.01056926
-0.03689542
-0.033349726
-0.0061286916
-0.005585286
-0.0023823974
-4.4476805E-4
9.776026E-4
0.005054197
0.012192126
0.013374797
0.014009839
0.01289014
0.011788069
0.008826517
0.00526311
0.004657334
0.0019644457
2.044458E-4
-5.579248E-4
-0.003549778
-0.007071113
-0.00837719
-0.009868008
-0.008654084
-0.0077977907
-0.006549126
-0.0027586084
0.0019185034
0.004662727
0.0068040625
0.009412509
0.010183328
0.009484146
0.008942593
0.0071139284
0.0050905226
0.0041947463
0.0016594873
4.8185792E-4
-0.0017428834
-0.004587107
-0.007610813
-0.007184519
-0.006023484
-0.0061324486
-0.005079043
5.4332765E-4
0.00296281
0.004919404
0.006088369
0.008334446
0.009142893
0.00933134
0.009029788
0.0060387524
0.005345347
0.00464957
5.5194093E-4
-7.3042966E-4
-0.0014851709
-0.005491765
-0.008057842
-0.009216289
-0.011714219
-0.01413926
-0.01255956
-0.0037714136
9.1095705E-4
0.00372281
0.0040646633
0.005983628
0.007797334
0.009145781
0.009546599
0.0056131934
0.002460305
0.002487417
0.0018521582
6.945288E-4
-0.002092583
-0.0055891774
-0.008697624
-0.010920813
-0.009521631
-0.008347708
-0.0053143017
-3.7430174E-4
0.0026451806
0.005421775
0.007685481
0.008943928
0.010567117
0.008453193
0.006202158
0.004176382
0.004138235
0.0010106055
3.8060546E-4
-0.0013841357
-0.0027636182
-0.004307842
-0.007181548
-0.009872366
-0.0107155545
-0.009566372
-0.0089248195
-0.010418008
-0.009186455
0.0032630274
0.006994363
0.0102075515
0.011915481
0.012113411
0.010266599
0.0090750465
0.0054616407
0.0020687524
0.0019958643
5.5823487E-4
-0.0011965063
-0.0033059889
-0.0027854713
-0.004329695
-0.005216289
-0.007809995
-0.011265554
-0.010096372
-0.0065977075
-0.0020148193
0.0023422926
0.005588887
0.008444963
0.010448152
0.0067294873
0.005778452
0.0041626757
0.0019097877
2.9787598E-5
-0.0020873242
-0.003919177
-0.0069205128
-0.006691848
-0.012702148
-0.05189572
-0.020479726
-0.007583433
-0.0041576563
-0.002124768
0.0010176025
0.0050941966
0.0077579026
0.011053462
0.012061392
0.009942209
0.008970656
0.007824363
0.0058833277
0.0025804394
5.128101E-4
6.651807E-4
-9.471899E-4
-0.005213784
-0.008369861
-0.008005938
-0.0076796436
-0.0061486084
-0.004862832
-0.0021699439
4.2242676E-4
0.0036542797
0.0061632446
0.00706458
0.009825398
0.009656216
0.0066275513
0.0066088866
0.0038207397
0.001155481
-6.2688964E-4
-0.0018616308
-0.0041958545
-0.0073895603
-0.008898008
-0.009336455
-0.011522015
-0.009512832
-0.007596538
-0.003448391
-8.839111E-5
0.0021287207
0.0071724267
0.008880874
0.008989321
0.009490139
0.008276216
0.0067475513
0.003939404
0.002646516
5.8888673E-4
-2.2111328E-4
-0.0038929663
-0.0056619314
-0.0072356374
-0.008651714
-0.010384902
-0.00951572
-0.0066470555
-0.0026241676
-3.241675E-4
0.002765315
0.00711665
0.010829839
0.011685398
0.008431475
0.00678281
0.007556516
0.005995481
0.006094446
0.0021215577
-0.001050813
-0.004052666
-0.0052992604
-0.008525337
-0.010948526
-0.011114084
-0.005753049
-0.0032325317
-0.001787273
0.0011350977
0.0048893215
0.0069906567
0.006981992
0.005810957
0.0069822925
0.006933628
0.0030631104
0.002200222
0.0013649634
-0.0012797778
-0.0018645191
-0.0013592603
-0.0034211134
-0.0068324488
-0.0150098605
-0.01097542
-0.008201497
-0.006792832
-0.003984685
-1.8468506E-4
0.0021724268
0.006411392
0.01038458
0.011802509
0.009400957
0.008979404
0.008265481
0.005292075
0.0039739283
0.00240104
0.0010134106
-3.8895995E-4
-0.003970813
-0.007484519
-0.008580595
-0.008979043
-0.007422749
-0.0069140843
-0.0039959373
-0.0018106787
-4.0304931E-4
0.0034288038
0.0062177684
0.009758586
0.009519405
0.0064507397
0.0048149633
0.004259187
0.0037110401
1.5104003E-4
-0.0020960718
-0.0039179246
-0.0047021485
-0.009442966
-0.010033784
-0.010436973
-0.009517791
-0.007139126
-0.0042133494
-0.0022304615
0.0016842798
0.005610874
0.00811695
0.009637768
0.009548587
0.008234663
0.0066459985
0.005522593
0.0030020752
0.001959187
-0.0029202953
-0.006731631
-0.006472966
-0.008069043
-0.009779861
-0.009560679
-0.009239126
-0.008907573
-0.007851279
-0.0028907617
0.0013039795
-8.483911E-4
-0.03480744
0.0015073023
0.012497603
0.011073162
0.0088216085
0.007122944
0.006161909
0.002159021
3.913916E-4
3.313916E-4
-0.0020657203
-0.0067670555
-0.008543132
-0.0076568383
-0.008102915
-0.005199509
-0.0029389916
0.0017457495
0.0042699734
0.0069813086
0.009532127
0.0107553145
0.0108985035
0.010451692
0.00945251
0.006923845
0.0035056982
-2.5430176E-4
-0.001399043
-0.0021461549
-0.0046403785
-0.0050069727
-0.006998308
-0.0076920143
-0.006210979
-0.0064923144
-0.004736538
1.3346192E-4
0.003535315
0.0064466503
0.008322727
0.008921174
0.0077548805
0.006586216
0.0057751806
0.005301775
0.0025188867
-2.811133E-4
-0.0019582252
-0.0033477074
-0.005634302
-0.008040379
-0.008366455
-0.009324903
-0.00885335
-0.006574685
-0.003726538
8.658325E-4
0.0014605738
0.005437168
0.0070585036
0.0038603565
0.009008803
0.00834488
0.008010957
0.0065122927
0.0038441455
-6.282251E-4
-0.0045624487
-0.0038643018
-0.007748008
-0.011153567
-0.010686755
-0.009607573
-0.00848365
-0.0060626147
-0.0024397266
0.0015950147
0.004889238
0.0077729444
0.0071242796
0.009382727
0.009573545
0.007457251
0.0060662157
0.0035080689
-6.3430174E-4
-0.0032137842
-0.006212749
-0.0034022315
-0.0036140846
-0.0052006785
-0.007384385
-0.008922832
-0.007916538
-0.006315503
-0.0043197265
-0.0018868383
3.1616212E-6
0.004617385
0.009195833
0.010046651
0.010569839
0.007913545
0.0082096215
0.0069509572
0.005447551
0.0010299219
-7.424487E-4
-0.004004302
-0.0044485256
-0.0060174903
-0.008695938
-0.009486755
-0.006788091
-0.0058570555
-0.0043212795
-0.0011360205
0.0023210912
0.007937168
0.009747986
0.009668804
0.010271993
0.006943328
0.0046775513
0.005956516
0.003458369
0.0011831104
-9.3926024E-4
-0.0027087426
-0.0060477075
-0.0074914135
-0.010012232
-0.011377791
-0.01124335
-0.008349426
-0.0068207616
-0.0023778735
5.5449706E-4
0.0013592383
0.009177686
0.010810874
0.009881692
0.008667769
0.006649104
0.0055156983
0.0032151807
9.6755126E-4
-0.0010748194
-0.0031043019
-0.005360896
-0.006389861
-0.009148308
-0.009569126