0.0063188355
0.0074525415
0.0073362477
0.007027583
0.006206548
0.0046007717
0.0036126245
-0.001109746
-0.0041539697
-0.0039258227
-0.005592417
-0.0065237526
-0.0071974583
-0.009135906
-0.009986724
-0.009827541
-0.005866506
-0.0023036182
3.9875245E-4
0.003278235
0.0048624584
0.0051590526
0.007955129
0.008001206
0.005700171
0.006079136
0.0057881004
0.0044323243
0.002629436
9.0180663E-4
-0.0034700464
-0.0043642703
-0.006063235
-0.005619829
-0.0073335352
-0.0067348704
-0.004679094
2.4090576E-4
0.0054675
0.006306465
0.0071478
0.008503877
0.008149954
0.00839603
0.006917366
0.007571072
0.0053976662
0.0031671484
0.0010995191
-0.0023975929
-0.0037894459
-0.0032089283
-0.006397893
-0.00826397
-0.006835305
-0.004619529
-0.004273752
-0.0027132349
-0.005389829
0.0023572827
0.0062962477
0.006937583
0.007271289
0.008567366
0.006708701
0.0039905543
0.0049171485
0.0018518897
-2.0811034E-4
-4.8110353E-5
-0.0019352222
-0.004077075
-0.00600604
-0.0072797462
-0.007433452
-0.0068547875
-0.00302427
-2.3427002E-4
9.181006E-4
0.002837583
0.005154177
0.0056407717
0.0061897365
0.00472396
0.0028034423
5.75813E-4
0.0016405542
0.002447666
-4.847046E-4
-0.0016394458
-0.0032989283
-0.005767893
-0.0071192286
-0.0074729347
-0.0074266405
-0.0064279763
-0.0048121996
-0.0017169409
-6.793115E-4
0.003180171
0.0048843944
0.0059533594
0.0074370652
0.006748401
0.0062873657
0.0036192187
0.0024563305
-4.3604005E-4
-0.0026455224
-0.0038673754
-0.0044915993
-0.006100564
-0.008709012
-0.008767459
-0.008583535
-0.008269612
-0.0065609473
-0.0044751707
-0.0017099121
-0.011085471
-0.025306072
0.008982375
0.0110879345
0.009206382
0.007870088
0.0061590527
0.005215647
0.0044598705
0.0013946118
-3.753882E-4
-0.0028348707
-0.0057038353
-0.009684653
-0.0094231
-0.006684436
-0.0055310302
-0.0034028832
-0.0012476245
5.947461E-4
0.0037465992
0.006105564
0.009164011
0.0103572
0.007730906
0.006782241
0.005791206
0.00431543
5.978003E-4
7.800293E-6
-0.002771682
-0.0033211645
-0.005077759
-0.0064990944
-0.0073828003
-0.008668877
-0.009097325
-0.0040491773
-0.0034410302
-0.0013957715
6.6659914E-4
0.0036684521
0.0052650464
0.005664011
0.0050006052
0.00574957
0.001976682
0.002123794
0.0017585352
-0.0026385766
-0.005525171
-0.0032846534
-0.005481248
-0.007092583
-0.00921103
-0.0077247364
-0.006506072
-0.0062350365
-0.0040568896
-6.1926025E-4
0.0020078516
0.0062168166
0.007830522
0.006641858
0.0022089698
0.005555564
0.0054521584
0.005991123
0.004152976
1.6297608E-4
-0.0022841357
-0.0038059887
-0.0049225832
-0.005549177
-0.006800513
-0.0062594777
-0.0051360717
-0.0035379247
-0.001652666
0.0016420753
0.004776299
0.008754746
0.0105379345
0.008264011
0.008812458
0.007173794
0.005340388
0.004604612
0.0038864648
3.0646485E-4
-0.0031030176
-0.006774353
-0.009505171
-0.025805771
-0.039459042
-0.006368008
-0.0034898608
-0.0026493433
-0.002586455
0.0025906567
0.006471992
0.007948069
0.009518887
0.008927334
0.009435781
0.007879487
0.006298452
0.004120305
0.0044845287
0.003676382
0.001221123
-0.0010812476
-0.00320073
-0.005217324
-0.008283401
-0.007247107
-0.0045213304
-0.0051579247
-0.0037397777
-0.001394519
0.0015202222
0.004614446
0.007798152
0.007831858
0.007305564
0.0056945286
0.005491123
0.004022976
0.0028624586
0.0011348291
-0.0010475415
-0.002787024
-0.005143618
-0.008189695
-0.009418142
-0.00926659
-0.008652666
-0.00482689
-0.0026763722
-6.687427E-4
0.0013359985
0.0015307397
0.005347334
0.006186299
0.007810005
0.0061289696
0.004985564
0.0031750463
0.0024521581
-7.7841796E-5
-9.202124E-4
-0.0029696948
-0.0052062892
-0.007859995
-0.0078037013
-0.007627407
-0.007911113
-0.006100078
-0.004294302
2.4569823E-4
0.0026751806
0.005221775
0.007855481
0.008331558
0.007215264
0.0062142285
0.0040560816
0.004410305
0.0029097877
-1.802124E-4
-0.0020973242
-0.0054339184
-0.0060028834
-0.0061318483
-0.009250295
-0.008036372
-0.0070677074
-0.006589043
-0.0042932667
-6.356372E-4
0.0035362158
0.00562281
0.006351775
0.0068931105
0.0056497045
0.0060486696
0.006770005
0.005286599
0.0025737109
0.0011160815
-0.0013386597
-0.005445254
-0.006114219
-0.009755037
-0.014290079
-0.008596155
-0.0073798606
-0.0060988255
-0.002728308
-0.00201542
0.0011393212
0.0039011743
0.0058301394
0.005879104
0.0051556984
0.0073994044
0.006008369
0.0016431103
0.0022802223
-5.2214845E-4
-0.0031816307
-0.004918225
-0.00602719
-0.007943267
-0.010496455
-0.010037273
-0.007720979
-0.007634685
-0.008250762
-0.0061497265
-0.0025568383
4.3553222E-4
0.004159756
0.007443462
0.0047076857
0.0045919092
0.006210874
0.0063398387
0.00176458
-0.0026949022
-0.0017696435
-0.0036814965
-0.00446572
-0.0068270555
-0.008083132
-0.00991395
-0.008982398
-0.007896104
-0.005362698
-0.001377439
0.0015673023
0.0031667848
0.005033379
0.0048676026
0.0039994554
0.0048636794
0.0055602733
0.0025973853
-0.01958425
-0.020358257
0.002608855
2.3885498E-4
-0.0027506275
-0.0030701098
-0.006019075
-0.00678041
-0.0054070046
-0.0040488574
-1.8857421E-5
0.003340625
0.0052472195
0.0068385545
0.009187002
0.010450191
0.009378638
0.009087085
0.008633162
0.0055797556
0.0025068677
1.6867676E-5
-5.8550294E-4
-0.0033249853
-0.0079910625
-0.011006621
-0.014111662
-0.00990248
-0.009923298
-0.008199375
-0.003931228
-0.003903081
-0.0013678223
0.005308772
0.008134848
0.008823296
0.008229373
0.0074530784
0.0060920436
0.0043962672
0.002213379
0.0014981201
2.981201E-4
-0.004053733
-0.005400327
-0.007524033
-0.007567739
-0.009948557
-0.0076022632
-0.0068935985
-0.004467822
-0.002404934
-3.2493408E-4
0.0024521777
0.006993513
0.0073072193
0.008755666
0.006677002
0.005403596
0.0031830787
0.0023301905
0.0015949316
-0.0017698095
-0.0035616625
-0.005438257
-0.0062172217
-0.008113299
-0.008731745
-0.0077454518
-0.0062744166
-0.003373899
-5.462695E-4
0.0010461011
0.0044003245
0.00684166
0.006400625
0.007724331
0.0071456665
0.005212261
0.0029917432
0.0012064844
0.0012812256
9.635962E-4
-0.0037082569
-0.00374011
-0.005086704
-0.008172781
-0.007756487
-0.007440193
-0.0070515284
-0.004685752
-3.6575194E-4
0.0028837305
0.005110325
0.00677166
0.009160107
0.008056184
0.00720989
0.0052264845
0.0029159668
-3.8640382E-4
-0.001201145
-0.028361227
-0.01449627
-0.0022633814
-0.004167605
-0.0057165697
-0.0062255347
-0.005172129
-0.0038839818
-0.0010063525
0.0011483887
0.005194983
0.0060939477
0.007267654
0.00784136
0.007335066
0.008601143
0.006952478
0.004416702
0.003938555
0.0021356666
7.480371E-4
-0.0010443334
-0.004278557
-0.007272263
-0.007123599
-0.006664934
-0.005121528
-0.0035633813
-0.0014581225
8.64248E-4
0.0032437304
0.005360325
0.007674031
0.008812478
0.008168555
0.009307002
0.007320708
0.003902561
0.0011773022
0.0013920434
1.2204346E-4
-0.0014026978
-0.0038945507
-0.0058135157
-0.007024851
-0.008763298
-0.0076270043
-0.00684834
-0.004060193
-0.0018149341
0.0018398071
0.0042540305
0.005490625
0.0055872193
0.005836184
0.0065475195
0.0051341136
0.0029635963
9.059668E-4
-9.564038E-4
-0.0020635156
-0.0035053687
-0.0062943334
-0.006835669
-0.0069570043
-0.008573081
-0.007876787
-0.006405752
-0.005032346
-0.0016670874
0.0019800244
0.0032595068
0.0052261013
0.0046503246
0.005146919
0.006165884
0.004037737
6.201074E-4
5.3247804E-4
0.00215959
2.6958983E-4
-0.002557522
-0.005154116
-0.0069854516
-0.008903899
-0.008902346
-0.007856052
-0.008092129
-0.0063810935
-0.0036229468
0.0013317944
0.0038036474
0.006392612
0.0076363184
0.007830025
0.0074337306
0.005180325
0.0048345486
0.0028540308
6.164014E-4
-6.5596926E-4
-0.0028854518
-0.004982046
-0.0066233813
-0.012673682
-0.007357388
-0.008353464
-0.0055300584
-0.003349541
-0.0016342822
0.001830459
0.003942312
0.007566018
0.006254983
0.0069063185
0.0072100246
0.00668136
0.0061703245
0.0036121777
0.0025492895
0.0014840307
-0.0011307105
-0.004704934
-0.0041467873
-0.008915234
-0.0120331645
-0.011238723
-0.0080047995
-0.0036866528
-0.0017613941
0.0023657177
0.005834683
0.008030759
0.010333948
0.010297136
0.009265584
0.006676919
0.006165884
0.0032453663
0.0010977368
-4.6463378E-4
-7.070044E-4
-0.0036288574
-0.006430193
-0.0074938987
-0.03543532
-0.023508806
-0.001955918
-0.0016906592
5.7171145E-4
0.0042159352
0.008462012
0.009000459
0.010061277
0.011376836
0.012647136
0.012065066
0.008011143
0.0057201074
0.0037919604
0.0036638135
0.0031032958
-5.990747E-4
-0.0027485571
-0.002055669
-0.0011180396
-2.1803955E-4
0.0013967017
0.0017814429
0.0027209253
0.004675149
0.009063596
0.012221525
0.014798938
0.015968721
0.014203763
0.012694063
0.0088125095
0.0022796215
0.0035914746
0.0013862158
-0.004135637
-0.011551197
-0.01623098
-0.016593132
-0.016305286
-0.014270327
-0.011758257
-0.007651963
-0.0068532983
-0.0037951514
-0.0019022631
0.0032172191
0.007993296
0.009201743
0.00843782
0.009296267
0.008724715
0.00754842
0.0029479028
-9.2446775E-4
-0.0019015796
-0.0072452854
-0.013125586
-0.009986403
-0.010991963
-0.009902781
-0.007756487
-0.0045207106
-5.2308105E-4
0.0011916602
0.002158772
0.0046529956
0.006784331
0.0068456666
0.006457002
0.0050835963
0.0036254493
0.006204414
0.006053379
8.457495E-4
-0.0015889917
-0.003058474
-0.0068498095
-0.0077535156
-0.0059624803
-0.0049890745
-0.012107004
-0.036040794
-0.0023879053
0.009160542
0.012520842
0.012781142
0.013433813
0.011961743
0.011127302
0.00973812
0.008836567
0.008492644
0.003694497
-8.0787356E-4
-0.003337356
-0.005986321
-0.01021951
-0.011395068
-0.0120629985
-0.010556187
-0.006677522
-0.0045417454
-9.541162E-4
0.001320625
0.0022277369
-6.946338E-4
0.0014201074
0.0035619605
0.0051585548
0.008777002
0.01008782
0.011083378
0.009261826
0.006543162
0.0040250146
0.0019221265
-0.003297356
-0.009618174
-0.011283733
-0.010776921
-0.01056011
-0.008748557
-0.0045527807
-0.0031022632
4.7010742E-4
0.0050167018
0.007068037
0.004242261
-6.9010985E-4
-0.0056567043
-0.0053432984
-0.004307522
-0.0017622631
0.0019648487
0.003204331
0.0031838135
0.003363296
-0.0013714454
-0.0068627805
-0.008761228
-0.009722046
-0.011317605
-0.011985535
-0.009233982
-0.0038758349
9.4653567E-4
0.004430759
0.0071620946
0.008690542
0.00975136
0.0076250657
0.008051143
0.00882959
0.007363296
0.007174631
0.0039364845
2.5648437E-4
-0.0019406275
-0.009991446
-0.020125452
-0.016677605
-0.014232647
-0.0073263524
-6.9872313E-4
0.0042555006
0.008823948
0.010587136
0.007240842
0.0035226953
0.0036345483
-4.545166E-5
-0.0034173047
-0.002946787
-0.0030662694
-0.0046704933
-0.0079141995
-0.010687388
-0.013330058
-0.0146751
-0.014802512
-0.013715183
-0.009646001
-0.0069073364
-0.0023344483
0.0021626635
0.006743999
0.013154299
0.017098824
0.016260976
0.0171355
0.016977653
0.017242178
0.012912478
0.011638037
0.010271225
0.0041854493
-7.769214E-4
-0.008875369
-0.01325804
-0.01263834
-0.013731011
-0.009451829
-0.005328423
-0.0022155347
0.0025915771
0.0047158008
0.0067571364
0.009075584
0.014620625
0.01877989
0.020233896
0.023147386
0.022398503
0.02198725
0.016629403
1.494043E-4
-0.0034124488
-0.035573866
-0.02605684
-0.004471062
0.0013236792
0.002330791
0.0025779027
0.00939635
0.021645097
0.030439923
0.03563134
0.03546276
0.02602336
0.011208919
0.0024960302
-0.0063929344
-0.02018694
-0.03540836
-0.042311113
-0.03224305
-0.015430462
-0.0025075732
0.009473245
0.016355397
0.010126215
-0.005802749
-0.017327273
-0.018806538
-0.0118644675
7.7790284E-4
0.00932635
0.014421391
0.015701175
0.016303327
0.006484663
-0.0027948194
-0.010578007
-0.0068893433
-0.0043735667
-0.0025406787
0.0069706566
0.008596733
-0.0037851196
-0.015072532
-0.017587056
-0.020211061
-0.023976922
-0.019828558
-0.013381228
-0.012009158
-0.016651312
-0.015108723
-0.016138505
-0.021647254
-0.030242078
-0.030949272
-0.014986685
6.9568603E-4
0.023739174
0.052535117
0.08398826
0.104065396
0.11264862
0.116663694
0.103228465
0.08645871
0.07123155
0.056919347
0.026222317
-0.011915613
-0.04490548
-0.062892236
-0.06693322
-0.07009369
-0.072661266
-0.0508601
-0.025880698
-0.019672334
-0.013625005
0.0017797364
0.03337404
0.069852136
0.08672476
0.095513456
0.071376294
0.009034739
-0.044525128
-0.027140468
0.01153509
0.052058663
0.10229869
0.12081799
0.13489233
0.14997408
0.15036583
0.12024276
0.041623138
-0.04776621
-0.104283355
-0.09638679
-0.032086354
0.011489204
0.029781658
0.023285147
0.013115447
0.030550271
0.021859018
-0.042686105
-0.12885147
-0.1764062
-0.20724575
-0.12790638
0.017378144
0.10201818
0.15148467
0.20430472
0.1911345
0.05733466
-0.103600115
-0.16176742
-0.21613541
-0.26839697
-0.23938847
-0.21340935
-0.20515415
-0.17913598
-0.13879217
-0.10375695
-0.076626375
-0.048558097
-0.023721585
0.008284492
0.03508354
0.04897763
0.04813935
0.02755469
0.0022118017
-0.013098499
-0.018617764
-0.006739099
0.021207279
0.05495033
0.089370064
0.10833906
0.13649814
0.18635368
0.2207059
0.21195203
0.18529284
0.12365162
0.05496467
0.0062536327
-0.011994297
-0.062641054
-0.14592858
-0.16162589
-0.12370467
-0.102357075
-0.090901546
-0.06565779
-0.06757878
-0.07851532
-0.07017578
-0.05761595
-0.003115432
0.09327852
0.20418859
0.2387777
0.20004591
0.09799409
-0.053844225
-0.11539693
-0.09895748
-0.1127807
-0.11300629
-0.07752046
-0.051754035
-0.040662047
-0.048293766
-0.045636002
-0.03449505
-0.030529873
-0.050206333
-0.054597016
-0.034043692
-0.008679771
0.011585789
0.008371865
0.038152765
0.05676056
0.06397206
0.115214765
0.13895096
0.06932905
0.0475284
0.015528183
-0.05485487
-0.11374283
-0.13056295
-0.11305854
-0.09705198
-0.100969635
-0.096090704
-0.041148715
0.01956292
0.0069242553
-0.028505828
-0.062722586
-0.048354305
0.021002071
0.08595232
0.10740895
0.10955268
0.11012879
0.05089762
-0.010013196
-0.058788102
-0.08879784
-0.07915675
-0.06405825
-0.0804819
-0.079340816
-0.04299594
-0.0036977953
0.04124259
0.07868913
0.08687175
0.06627037
0.08047402
0.109497756
0.102500156
0.12823316
0.15234202
0.13801585
0.10933958
0.06047923
0.011827161
-0.010486028
-0.025536628
-0.07144184
-0.07799601
-0.06503988
-0.080643535
-0.09737934
-0.107698336
-0.12048764
-0.1214393
-0.09144615
-0.075633205
-0.06930131
-0.05808384
-0.03985948
-0.028449565
-0.014194607
-0.007748313
0.0017964282
0.011944358
0.0052609523
-0.013411718
-0.022332838
-0.023586325
-0.020710332
-0.012880633
-0.0077343383
-0.0018790796
0.0023180323
0.013760703
0.024858933
0.03295324
0.03563466
0.035336077
0.035147496
0.03122469
0.027762402
0.02319589
-0.0021812208
-0.025209451
-0.0057284157
-0.027083756
-0.032968063
-0.016550217
-0.019551853
-0.022322971
-0.02299409
-0.024549948
-0.022118697
-0.018817961
-0.015707744
-0.011623303
-0.00894175
-0.007163086
-0.0047073094
-0.0014920508
-9.844213E-4
0.0014703198
0.003942173
0.006593508
0.0088319555
0.010465144
0.011120703
0.0055072973
-2.5270262E-4
4.4966798E-4
-5.0270266E-4
-0.0014674439
-0.0019345557
-0.0047487793
-0.004593003
8.2936767E-4
0.0062583326
0.009849151
0.01167471
0.0094955275
0.0059444923
9.268628E-4
-0.002540249
-0.0012549902
4.6738036E-4
0.0017221216
0.003211604
0.0083076805
0.0099984985
0.010601687
0.013764358
0.01535177
0.017808665
0.024254523
0.027772237
0.031129431
0.032631367
0.034880415
0.037688944
0.037215106
0.035216525
0.03194609
0.029558543
0.024856772
0.02227552
0.018292414
0.015089827
0.014104868
0.011802798
0.008218874
0.008564951
0.007146287
0.008582363
0.013775034
0.014630076
0.014585117
0.019556753
0.019628389
0.018295282
0.018192178
0.016694332
0.0143393725
0.0110949315
0.007698638
0.0032481202
-4.842505E-4
-0.0053608445
-0.009059292
-0.013341963
-0.02025597
-0.019777605
-0.019579241
-0.017653765
-0.013306435
-0.008182513
-0.0031219947
9.50376E-4
0.0053669703
0.0066983057
0.0061172703
0.006518606
0.00446283
0.0020099415
1.399414E-4
-1.700586E-4
-0.003339541
-0.005516135
-0.010859324
-0.009437771
-0.0056543653
-0.00612333
-0.0039851833
-0.0018699244
-2.6992432E-4
0.00511667
0.0087351175
0.009985935
0.011391494
0.011647053
0.011402613
0.00945343
0.007207136
0.0049137305
0.0037755836
3.455835E-4
-0.0023115284
-0.006922864
-0.009191311
-0.0102245
-0.011300059
-0.01387273
-0.011860659
-0.006319624
-0.0021767358
0.0011380054
0.004842229
0.007585935
0.010629123
0.0082952
0.0068165357
0.002916018
0.0011707593
-0.0023163524
-0.0034182055
-0.0057571703
-0.0077708764
-0.0085369535
-0.007880659
-0.009891477
-0.011587036
-0.010330224
-0.0078039304
-0.0056728953
-0.0013276368
0.002489475
0.005056069
0.008152146
0.010655334
0.009153781
0.009422229
0.0083783055
0.0057372707
0.004561494
0.0014362354
-8.3613524E-4
-0.002543247
-0.0042974707
-0.026250442
-0.031650007
-0.0056666015
-0.0050031957
-0.0032926782
1.9732177E-4
0.0045815455
0.007967622
0.0111431815
0.0138958525
0.016318005
0.015025417
0.0161352
0.016297353
0.014172395
0.007546101
0.007379807
0.009950625
0.008086702
0.004500925
-2.6907472E-4
-0.0027885572
-0.0033780395
-0.004152263
-0.0032617457
-0.002731228
3.5877197E-4
0.003930625
0.00670196
0.009752778
0.009171225
0.009229673
0.010692861
0.0106560495
0.007329756
0.00548635
0.0038182032
0.0010305737
-9.217969E-4
-0.0022389088
-0.0041207615
-0.0046549854
-0.006626321
-0.0066076564
-0.0046918797
-0.0035337328
-0.0014884741
2.3152588E-4
0.0052781203
0.008504197
0.010175015
0.009855833
0.008271909
0.008187986
0.009186433
0.0082625095
0.007856216
0.0044704396
0.0024875512
-6.248193E-4
-0.0036566723
-0.0053732665
-0.0058922316
-0.006151196
-0.0047654198
-0.0022825317
4.4983887E-4
0.0022769507
0.004671174
0.0073748804
0.010728069
0.012145999
0.012123928
0.009674747
0.0086831935
0.0060021584
0.006543494
0.004687717
0.0018424585
5.848291E-4
-0.0020422826
-0.0053088767
-0.0068502123
-0.0049768067
-0.0030862892
-6.0865964E-4
3.5134034E-4
0.0032808227
0.0069721583
0.0055387523
0.007832458
0.010665647
0.010558835
0.009267283
0.006808618
0.004832842
0.0028123243
0.002399436
-5.229346E-4
-0.0025800464
-0.0033095288
-0.005656123
-0.007599829
-0.0075835353
-0.0055101295
-0.0023472412
-0.0018919824
6.203882E-4
0.0027498705
0.0075735766
0.010506765
0.010409954
0.010243142
0.009341589
0.008367666
0.0054442603
0.0034761133
-0.0024309985
-0.012751299
-0.03953457
-0.013597242
-0.019608878
-0.024567107
-0.0011318482
-1.8481445E-6
6.505225E-4
0.0019776344
0.0043718577
0.007585564
0.00836164
0.009792458
0.010475647
0.011783577
0.012001506
0.008537583
0.0053741774
0.004478401
0.0037402539
7.826245E-4
-0.002776858
-0.005675823
-0.0069471584
-0.009737976
-0.009758794
-0.009327241
-0.0067985766
-0.0045628003
-5.451709E-4
0.0026843115
0.0050609056
0.007404612
0.008220688
0.0075643947
0.007488101
0.006449436
0.005788401
0.0042826245
0.0017673657
-2.9263427E-4
-8.650049E-4
-0.0022021167
-0.00449634
-0.006295305
-0.007409011
-0.0054056053
-0.0041374583
-0.0030569409
-6.694092E-5
0.0035149122
0.0068462477
0.0088346945
0.010697884
0.010451072
0.0063400366
0.0025171484
0.0036890015
0.0056779664
8.503369E-4
-0.0023167748
-0.003678628
-0.003810481
-0.0020475928
-0.005024187
-0.0068755224
-0.006586858
-0.005533452
-0.0029229345
-4.1530517E-4
0.003496548
0.005373142
0.0068344777
0.006645813
0.0069571487
0.0054637427
0.0060227076
0.0039845607
0.0024616723
0.0010340429
-0.0016406983
-0.0033701807
-0.0053067748
-0.007982852
-0.009221299
-0.008647376
-0.0073710815
-0.0074347877
-0.0031542701
-4.6664063E-4
2.8335938E-4
0.005992324
0.008960771
0.0076844776
0.008140555
0.008346631
0.0067079663
0.005906931
0.0017616723
-0.0035101806
-0.005496775
-0.00619574
-0.0074894456
-0.007945523
-0.007839229
-0.007965305
-0.00622427
-0.006173235
-0.0044174585
-0.0021745702
0.0015301709
0.0059091356
0.008957583
0.0097184
0.007182107
0.0067434423
0.006082407
0.0034242603
2.3426025E-4
-2.6573974E-4
-0.0015904809
-0.0026175927
-0.004039446
-0.0063984105
-0.009126858
-0.010630046
-0.008376123
-0.007929829
-0.006048794
-0.008344871
-0.03545629
-0.0016210303
0.009749788
0.010502976
0.009783794
0.009644612
0.007528318
0.0058972826
0.0043415064
7.3387695E-4
-7.5849367E-4
-0.0026156055
-0.0047298293
-0.005928794
-0.0076425
-0.009120948
-0.0077146534
-0.0076883594
-0.0057473243
-0.0010096948
0.0010826758
0.0046868995
0.0072806054
0.008516682
0.008682759
0.010805948
0.010036766
0.007180471
0.0052970652
0.004411289
0.0024384009
-0.0047158226
-0.0072695287
-0.010200347
-0.012620647
-0.010773836
-0.010697024
-0.009437841
-0.0048720655
-0.0014468066
0.0019603053
0.00603927
0.0069106054
0.008096682
0.0096875
0.009305947
0.0074296533
0.0050062477
0.0025033595
-0.0010990113
-0.0028084936
-0.004020347
-0.005596941
-0.006285906
-0.008571982
-0.00896043
-0.0074241357
-0.008070213
-0.0072139185
-0.0032934009
6.2896975E-4
0.002708452
0.0054750466
0.0088234935
0.005320088
0.0045843115
0.005580906
0.0043551293
0.0016898706
-9.825E-4
-0.0024596117
-0.0041314648
-0.0057804296
-0.007976506
-0.011402066
-0.015931848
-0.010195036
-0.0075587425
-0.004965337
-0.0015500782
-1.0007813E-4
0.003591775
0.0061507397
0.007834446
0.008682893
0.007386599
0.006115564
0.003827417
0.0017621582
-3.578418E-4
-7.102124E-4
-0.0041420655
-0.0059010303
-0.009451848
-0.010092666
-0.009633484
-0.009131931
-0.009360379
-0.009651196
-0.0071425317
-0.0023696437
0.00445458
0.0060135447
-0.0015411963
-0.022059944
-0.001824685
-0.024652915
0.0018218262
0.008027903
0.005514497
0.0018916089
-1.7839111E-4
-0.002235503
-0.0046297265
-0.0079034325
-0.008349509
-0.0071732155
-0.00603218
-0.0050087743
-8.71145E-4
0.0020459667
0.005422561
0.008278638
0.009147085
0.007993162
0.008619239
0.006940574
0.005617168
0.0029266505
0.0017413916
-0.0012033496
-0.0052699437
-0.0056265383
-0.0071278736
-0.008493951
-0.008200027
-0.008396104
-0.0060750684
-0.004769292
-0.0013740332
0.001620708
0.0051773023
0.006126267
0.010961826
0.009532644
0.006271609
0.0052382033
0.0028576856
4.5005616E-4
0.0014747974
-0.0016999438
-0.0038317968
-0.0048960205
-0.008112097
-0.008910544
-0.008768992
-0.014654033
-0.008812481
-0.005509075
-0.0023761864
0.0012285546
0.005525149
0.008963596
0.011599155
0.009919973
0.00935842
0.007964497
0.005733462
0.0026105738
7.129443E-4
-0.0015617969
-7.741675E-4
-0.00277365
-0.0087720975
-0.009932915
-0.008961363
-0.00975218
-0.008308257
-0.005917222
-0.0021143334
9.280371E-4
0.0050946316
0.0050212257
0.006692561
0.008428638
0.007192344
0.00740605
0.004992644
0.0030521264
-4.7873535E-5
5.644971E-4
-8.778735E-4
-0.0049144677
-0.0060934327
-0.007447139
-0.0062761037
-0.0059350682
-0.005944033
-0.0031035156
-0.0011782568
0.0029112257
0.004265449
0.0065967846
0.009355232
0.00953605
0.008572127
0.007073462
0.0048176856
0.0039195386
0.0014542798
-7.480908E-4
-0.0019252027
-0.004067056
-0.00540365
-0.007467356
-0.008523433
-0.0073671388
-0.007610845
-0.00638981
-0.0037316626
3.383374E-4
0.0053449315
0.01030812
0.010491309
0.008267385
0.00587635
0.006285315
0.0043295384
0.003069021
0.0014037623
-2.7623778E-4
-0.0024733497
-0.005179944
-0.0065612793
-0.007374985
-0.009495803
-0.007077139
-0.005523733
-0.0046779565
-0.0011526977
0.002154414
0.004076267
0.005272861
0.0073165675
0.009467386
0.008695832
0.007991909
0.0065232445
0.0063222093
0.0023093212
-0.0016854199
-9.541992E-5
-0.0021225316
-0.003954385
-0.00640335
-0.0077670556
-0.0046812794
-0.0034331323
-0.0018678735
2.6212647E-4
0.0013168677
0.003918721
0.009157168
0.010240356
0.010623545
0.010366733
0.00865281
0.006201775
0.0034736278
0.0014283691
-0.0022887427
-0.0047929664
-0.00448719
-0.004089043
-0.0070903786
-0.010413567
-0.0119114965
-0.0076152026
-0.0042394265
-0.0019165381
-0.01610632
-0.028104033
0.007992043
0.012722344
0.014137385
0.012727685
0.011073245
0.009011691
0.0064206566
0.0030601393
0.002047251
0.0014419922
-0.0015827491
-0.0052993433
-0.00804542
-0.008151497
-0.0057304613
-0.0028999439
-0.0032594262
-0.0018865381
0.0032729444
0.0060119093
0.008587986
0.009848803
0.009989621
0.0092980685
0.009056516
0.006275481
0.0046797046
0.0014644458
0.001219187
-0.0019579248
-0.004362148
-0.008418225
-0.009206672
-0.00912512
-0.008061197
-0.007724902
-0.004289126
-0.0021162378
9.376221E-5
0.0038856152
0.0075693214
0.008465398
0.008671475
0.008327551
0.007381257
0.0049578515
0.0021549633
0.0020720751
-6.0029543E-4
-0.0031997778
-0.0045240014
-0.01070719
-0.0109403785
-0.0077140843
-0.00661542
-0.005562014
-0.0029814965
-0.002910979
-1.0097901E-4
0.003860874
0.009389321
0.01048251
0.009000957
0.007684663
0.0056512575
0.0053878515
0.003367334
5.497046E-4
-4.7266603E-4
-0.0029621485
-0.0057011135
-0.007344819
-0.008130896
-0.010384085
-0.012412014
-0.0064233495
-0.002862832
-0.002299944
0.0015347974
0.004849021
0.007192727
0.009121174
0.010194363
0.010807551
0.009075998
0.0075797047
0.0057186694
0.0025557813
1.2578125E-4
-0.0011265894
-0.005845554
-0.00647689
-0.008552967
-0.011598526
-0.008244602
-0.005763567
-0.006252532
-0.0038543849
4.7798583E-4
0.0041298387
0.007863545
0.0101843625
0.009495181
0.007488887
0.008204963
0.007136299
0.0065776343
0.0030671167
-4.652539E-4
-0.0013799951
-0.004164219
-0.0042984425
-0.006749778
-0.008635854
-0.00781956
-0.0074332664
-0.0058722314
-0.0034040844
0.0016806567
0.0046748803
0.009313327
0.011871257
0.009782075
0.007455781
0.004180005
2.4000488E-4
0.0048442287
0.003193711
6.160815E-4
-7.762891E-4
-0.0018934009
-0.0025605126
-0.0059294775
-0.009027924
-0.008344001
-0.007095337
-0.0044795605
-0.0037014135
-0.0011137842
0.0043804394
0.006661775
0.007685481
0.01143104
0.010554229
0.010065046
0.008421123
0.0079672
0.005223794
0.0020609058
0.001465647
-0.0028538355
-0.00495043
-0.0057693943
-0.008465471
-0.0071168067
-0.004913401
-0.003755254
-0.0031647363
8.476343E-4
0.006186599
0.0067179347
0.010321123
0.013333794
0.010969353
0.009117801
0.0064691356
0.0040409886
0.0028104712
0.002197583
0.0014623242
-0.0021047876
-0.004419011
-0.006147976
-0.007994053
-0.0068053883
-0.0065867235
-0.005233318
-0.0031428002
0.0011619409
0.0052885353
0.009076983
0.011232542
0.0110381
0.009488919
0.007822624
0.0074063307
0.0061752954
0.0044995192
0.002256631
8.1900146E-4
-0.0017257398
-0.004519963
-0.005186558
-0.005163152
-0.007186858
-0.0064581935
-0.0036400463
-0.0013147875