-0.025049943
-0.038670845
-0.0026703272
0.012669973
0.015417385
0.015747167
0.015746951
0.014531992
0.012359922
0.00980074
0.0074744457
0.0045686695
0.003138152
6.505225E-4
-0.0017342188
-0.0024613305
-0.006702666
-0.007958743
-0.009479561
-0.007833267
-0.0036551196
1.1488037E-4
0.0035367333
0.00800281
0.008448887
0.009257334
0.011442893
0.00805897
0.007060305
0.0073740114
0.0040958645
6.282349E-4
-2.8176513E-4
-0.003953618
-0.0052102124
-0.0063091773
-0.009459995
-0.011685554
-0.010248743
-0.008404819
-0.005663784
-0.0028932665
0.0023438453
0.005090439
0.0078041456
0.009514963
0.009413411
0.009524228
0.008610305
0.0068816408
0.005518235
-5.8413576E-4
-0.0023312476
-0.0012859887
-0.0034678418
-0.006396807
-0.010739995
-0.013170295
-0.010193484
-0.008791931
-0.0077156373
-0.006254602
-7.8697264E-4
0.0029425097
0.005459104
0.005858069
0.0074117747
0.008657851
0.007611558
0.0049981517
0.0026976343
-1.7236572E-4
-9.147363E-4
-0.002121848
-0.006390813
-0.010544001
-0.013044301
-0.013566973
-0.012344902
-0.011300461
-0.009691279
-0.006310244
-5.9261476E-4
0.0037992382
0.008295315
0.008823763
0.00990458
0.011340139
0.010493328
0.006924663
0.0045188866
0.001533628
-3.6637206E-4
-0.0028758545
-0.0060948194
-0.008540896
-0.009781714
-0.011257273
-0.011012832
-0.00944365
-0.007277356
-0.00495395
-0.0014286914
0.0025484203
0.0061673853
0.0091258325
0.010949021
0.01091221
0.009070657
0.006681992
0.0053285863
0.0019956983
9.280688E-4
-8.3430175E-4
-0.0023514135
-0.006612749
-0.010053567
-0.010164385
-0.009765202
-0.00915365
-0.007647356
-0.00556395
-0.001961062
0.0044831615
0.005009756
0.007853462
0.009121909
0.006170874
0.0067122094
0.006593545
0.005000139
-0.0017246021
6.3776853E-4
-7.4460206E-4
-0.0055811964
-0.007294902
-0.006223867
-0.0055004614
-0.008046538
-0.008352615
-0.00666395
-0.0018486914
6.136792E-4
0.0026731617
0.0064221267
0.0103253145
0.009526133
0.011331692
0.009340139
0.007976216
0.0045204395
0.002859922
9.022925E-4
-0.0018424487
-0.002961931
-0.004806155
-0.005412749
-0.008841196
-0.009902014
-0.0067933495
-0.004897573
-0.002554685
0.0020424267
0.005139021
0.009147468
0.010750657
0.012460957
0.010464146
0.010247334
0.0071786693
0.005085264
0.004329487
0.0029789698
0.0018137109
-5.6289064E-5
-0.003998142
-0.0055247364
-0.0074884426
-0.00911689
-0.008592966
-0.00472719
-0.0029666724
2.8332762E-4
0.0048775515
0.009035999
0.007219705
0.008275781
0.008431857
0.0067131934
0.0073968996
0.0056534936
0.0018682348
-0.0011465064
-0.0039783595
-0.006197324
-0.0068086595
-0.009187107
-0.010107925
-0.011253484
-0.009454302
-0.0048485254
-7.40896E-4
0.0018862159
0.0058351806
0.006756516
0.009314964
0.009465781
0.008944228
0.008580306
0.006521641
0.0037534935
0.003142976
0.0012177173
-2.7228272E-4
-0.0057812477
-0.009742065
-0.0092705125
-0.010833701
-0.01062689
-0.009447708
-0.009376155
-0.007359861
-0.0025069728
0.0023201392
0.0038319922
0.007845698
0.010838887
0.008284964
0.00800104
0.0071523753
-0.0015623657
-0.001647107
0.0016176343
-5.047363E-4
-0.00474896
-0.0065702954
-0.009761114
-0.00906956
-0.008738007
-0.008334084
-0.0064030495
-0.0030025318
0.0017122094
0.006473545
0.008059622
0.01161518
0.014942593
0.014107634
0.011603193
0.009754011
0.008702459
0.0072361645
-0.0011485766
-0.0063575413
-0.01028073
-0.032102667
-0.04167305
-0.007054385
-0.007990462
-0.006961797
-0.0065431325
-0.0037049854
2.2501465E-4
0.0046692383
0.009770056
0.012680356
0.012018286
0.011706216
0.012284146
0.010607334
0.00825341
0.0057823756
0.0028918579
9.742285E-4
-3.981421E-4
-0.004822366
-0.007153701
-0.009664519
-0.008540596
-0.00517719
-0.0023243017
-7.1667234E-4
0.00267281
0.0049294042
0.007935481
0.01090867
0.010771858
0.011307417
0.008523494
0.0073071998
0.0076309056
0.007022241
0.0032417236
1.3172363E-4
-0.0015130176
-0.0054496117
-0.008768059
-0.009688877
-0.010732066
-0.009260513
-0.00907896
-0.005645554
-0.0014602954
0.0014544458
0.0062634107
0.0056723757
8.147461E-4
0.007628452
0.0074721584
0.0073058642
0.006094829
0.0010171997
4.719971E-5
-0.0010851709
-0.0022122827
-0.0058512473
-0.007784954
-0.008091031
-0.008467107
-0.008273183
-0.00745689
-0.0040987427
-0.0015334839
0.0028259985
0.006477334
0.008583411
0.0076471167
0.0071684523
0.0075921584
0.008408234
0.00641957
0.0034314233
0.0012961646
-0.0026409472
-0.0036228003
-0.0054193945
-0.007985471
-0.0107186595
-0.011564218
-0.011309777
-0.008515854
-0.0054224487
-0.0033819312
0.00142281
0.0052594044
0.008085481
0.0087739285
0.0075776344
0.008553711
0.0065650465
0.005674011
0.004358235
0.0022753468
-5.570239E-4
-0.0025141358
-0.00500073
-0.009129177
-0.0105723655
-0.011627925
-0.0132605955
-0.007151931
-0.005670896
-0.0032103783
0.0013843628
0.004518586
0.0071922923
0.010285481
0.011753411
0.009764229
0.008540305
0.0067216405
0.005228235
0.0033477172
-0.0023493946
-0.0037112476
-0.0048054713
-0.0049320655
-0.0077757714
-0.01079896
-0.011044519
-0.010327708
-0.008856155
-0.0057551195
-0.023108609
-0.021667356
0.014457686
0.016819838
0.015367251
0.012687551
0.012897852
0.01040104
0.0054176343
0.0046118577
0.0026413403
0.0014960816
-0.0019410303
-0.0054276246
-0.008303701
-0.008932148
-0.011017707
-0.008816155
-0.005082749
-0.002039861
8.1250974E-4
0.0060514747
0.008277551
0.008695998
0.009304446
0.009302893
0.00882134
0.006300305
0.004804529
0.00182927
0.0018340113
-0.0027854713
-0.0047896947
-0.004926289
-0.007869995
-0.009078442
-0.008644519
-0.0086705955
-0.0060295607
-0.0024366723
0.0012380688
0.005827034
0.00828311
0.009463929
0.011639487
0.011907417
0.007711123
0.005597717
0.002554829
3.8719972E-4
-7.651709E-4
-0.0028546534
-0.006975989
-0.008012066
-0.011137624
-0.0122455545
-0.011141113
-0.009981931
-0.006350896
-0.0022780078
7.143628E-4
0.0031138451
0.0055904393
0.0087888865
0.009719704
0.007693411
0.0065247463
0.005893711
0.0030831934
8.8556396E-4
-0.0021315478
-0.0024786596
-0.0045328834
-0.007726589
-0.008875037
-0.010478226
-0.010481413
-0.010644602
-0.008773049
-0.0040749023
3.7746827E-4
0.0030769508
0.008603027
0.008319104
0.008967551
0.008433628
0.008189704
0.00694104
0.0032705225
0.0014752636
-8.8710693E-4
-0.0024442188
-0.0045684422
-0.0057074074
-0.008483483
-0.011589043
-0.011354602
-0.008460679
-0.0060196435
-0.008938091
-0.003609944
0.0069813915
0.009492209
0.011900139
0.012378069
0.010561258
0.0093797045
0.009600522
0.0043147462
0.0023618578
8.642285E-4
-7.481421E-4
-0.0047123656
-0.0062713306
-0.009349778
-0.011485337
-0.011530896
-0.009029344
-0.0073130494
-0.0049696434
-3.2964355E-4
0.0028998388
0.0068611745
0.009089622
0.0094704395
0.0084465165
0.0064378516
0.0037697046
0.003379187
-0.0153082255
-0.030143049
0.0032264332
0.0010388037
-1.8119629E-4
-0.0029906787
-0.0063396436
-0.006730979
-0.007724685
-0.00612365
-0.0035055028
-1.2550293E-4
0.004598721
0.007502427
0.008658503
0.00833458
0.008600657
0.008749104
0.00743281
0.0060617747
0.0041759987
0.0017107398
1.3073975E-4
-0.0036711132
-0.0054777074
-0.007993784
-0.011599343
-0.010922532
-0.008188608
-0.0055252025
-0.0036470557
6.6531496E-4
0.004189539
0.008787986
0.009086433
0.010729621
0.011837551
0.009365998
0.005322593
0.0034844459
-9.55542E-5
-4.0792482E-4
-2.579248E-4
-0.0036997779
-0.0061687427
-0.011484302
-0.012352232
-0.015612015
-0.014107056
-0.0116626145
-0.008158691
-0.0022858032
0.001228938
0.005585532
0.008743979
0.010114797
0.009193244
0.008901692
0.007905398
0.0067667332
0.004240957
0.0028704396
0.0014451806
2.8518066E-4
-0.0034266724
-0.0050832666
-0.0061322316
-0.005921196
-0.0065225316
-0.006573867
-0.0053104614
-0.0010628321
0.0027466505
0.005965615
0.0064669508
0.008363027
0.008049104
0.00780281
0.0064241453
0.0041583693
0.002235481
2.2548095E-4
-0.0023316308
-0.005318225
-0.008996672
-0.011272231
-0.012922532
-0.01005335
-0.008409427
-0.0073431325
-0.002240244
7.321265E-4
0.0035939794
0.006272944
0.008219021
0.007522727
0.005761692
0.00964251
0.0062514744
0.0057804394
0.002989922
0.0033594044
0.0015341456
-0.0019029663
-0.0027124488
-0.0038343018
-0.006955637
-0.007951714
-0.00857779
-0.008083867
-0.005350461
-0.0012952026
0.0028142799
0.0060432446
0.009231692
0.008027769
0.0076414747
0.007205181
0.006676516
0.005665481
0.0048697046
0.0018044458
-0.0015902955
-0.004264519
-0.0046487427
-0.008174819
-0.009765637
-0.006426973
-0.008323049
-0.0053496435
-0.022370761
-0.02475899
-0.02269011
-0.008536186
-0.015423599
0.006427737
0.01682989
0.016562043
0.013684714
0.012362644
0.0098834615
0.0025505738
-0.033533733
-0.007757439
0.0011373023
-0.0027321803
-0.004736404
-0.0043706275
-0.0053972215
-0.0026243336
0.0036075194
0.0074912254
0.008657303
0.010320491
0.013140791
0.012298721
0.014153762
0.014508803
0.013651474
0.010162292
0.0074259983
0.0018307398
0.0016854809
0.0017702222
-7.9214846E-4
-0.003141631
-0.006390596
-0.007794302
-0.005420896
-0.0029203785
-1.9037841E-4
0.0019667335
0.0076604392
0.010933628
0.011901557
0.011317117
0.009467934
0.0049845288
0.0045687524
0.004902976
0.003664829
0.0028743115
-7.3805905E-4
-0.0032075415
-0.0037193946
-0.0059083593
-0.0052249534
-0.0067362892
-0.005665254
-0.003987107
-9.5947756E-4
0.0018452636
0.005451858
0.006000823
0.0072445287
0.009825347
0.00469957
-4.0429688E-5
-2.604297E-4
-0.0011228003
-0.0029722827
-0.005098877
-0.007452583
-0.00937103
-0.010634218
-0.010195036
-0.012122966
-0.013255637
-0.012393567
-0.012061496
-0.008457573
-0.0051641674
-9.265381E-4
0.0047876853
0.008143762
0.011039321
0.011034881
0.0091633275
0.0063222926
0.006483628
0.003565481
0.002062593
-1.7407227E-5
-0.0015921484
-0.0034740015
-0.005040596
-0.007111931
-0.008930379
-0.011095937
-0.009526756
-0.00636572
-0.004189944
0.0016947973
0.0072185034
0.009659321
0.004813545
0.010306734
0.013489405
0.014204446
0.014059488
0.012297417
0.008885864
0.0076595703
0.0043437937
0.0026632764
1.6327637E-4
-0.0018714649
-0.0064228005
-0.009081247
-0.005157842
-7.702124E-4
0.0024468994
0.0012716406
-1.6835937E-4
2.3164063E-4
-0.0073820655
-0.028289778
0.0033397046
0.0057286695
-0.011596889
-0.028766973
-0.027092315
-0.009923132
0.010630056
0.012830356
0.013643027
0.013495699
0.011883628
0.010386816
0.011172376
0.010113194
0.0076768994
0.0027563819
0.0026034936
0.003152976
5.2976073E-5
-0.0043012477
-0.0054978416
-0.0032473241
-0.0027868066
-0.002736289
-0.0032357716
-0.0078094774
-0.010040295
-0.004904519
0.004037334
0.017221859
0.030809052
0.038649954
0.036513742
0.031210937
0.02742628
0.024372138
0.019221405
0.0086898515
-2.5014894E-4
-0.01375282
-0.023686308
-0.02874639
-0.030161215
-0.028361298
-0.02692664
-0.028636724
-0.03244866
-0.032100596
-0.03028542
-0.028685503
-0.038306404
-0.064770274
-0.021436652
-0.009457471
-0.0020645824
0.0053220117
0.011739941
0.018659206
0.025919806
0.029322261
0.032644197
0.035325617
0.03317992
0.027485264
0.02062927
0.018226165
0.01820306
0.015250471
0.013613142
0.010958701
0.013881372
0.020535378
0.024521237
0.02559184
0.020195846
0.010839033
0.0034108863
-0.005415708
-0.011993637
-0.020677645
-0.03219958
-0.039685223
-0.043432716
-0.036526505
-0.028194219
-0.021360595
-0.013200896
-0.010111714
-0.008820161
-0.0066114967
6.00874E-4
0.0054474683
0.008513545
0.008389622
0.012699922
0.018276816
0.018143712
0.014751123
0.005820088
0.007773794
0.0202578
0.023301288
0.016813442
0.007074778
9.477783E-5
0.0104579665
0.01840486
0.026777832
0.031175027
0.02960748
0.019499116
0.0058380812
-0.006070884
-0.022712002
-0.043237127
-0.057747293
-0.056785088
-0.0406431
-0.008279177
0.03337513
0.06067478
0.06848051
0.076199934
0.08447544
0.07477013
0.06010978
0.021446157
-0.005672808
0.013629863
-0.01621992
-0.06251668
-0.0996196
-0.1261655
-0.14059642
-0.08392956
-0.047308907
-0.0038207618
0.02898932
0.0465363
0.065572545
0.08144857
0.095949635
0.07993092
0.059588198
0.06738918
0.085687056
0.07933597
0.036039762
-0.022981357
-0.047880705
-0.038009237
-0.025329836
-0.020876214
-0.02138259
-0.013855261
-0.017872157
-0.03411883
-0.041289218
-0.035370633
-0.029583089
-0.017187612
9.747583E-4
0.0035666113
-0.0017981299
-0.0040899827
0.005988982
0.014736394
0.04946048
0.11054659
0.15536493
0.17228544
0.13566214
0.054752827
-0.0107803615
-0.062657125
-0.10283952
-0.08484503
-0.017599557
0.08386358
0.15204008
0.15952027
0.11422823
0.029340686
-0.066357926
-0.11957248
-0.16320454
-0.16501133
-0.13504566
-0.101865694
-0.0768675
-0.09259908
-0.14246713
-0.19295163
-0.17611398
-0.11723143
-0.02983388
0.06736711
0.14985648
0.18158543
0.20881972
0.21170348
0.1614708
0.06535704
0.012587339
-0.03618645
-0.099197
-0.14386742
-0.16021998
-0.12460113
-0.0828619
-0.060601547
-0.03972719
-0.028777273
-0.042500027
-0.022178775
0.010754414
0.04765376
0.07911268
0.09119952
0.090583995
0.08389713
0.04724648
-0.007517229
-0.034876276
-0.017430801
0.020313205
0.01926247
0.03848337
0.15704645
0.23178424
0.24651705
0.23963854
0.15643924
0.02716459
-0.06847113
-0.15207763
-0.18977265
-0.1319575
-0.010168322
0.10421882
0.15116294
0.106247194
-0.027448144
-0.19308501
-0.23261517
-0.22319686
-0.24431257
-0.25081962
-0.20538442
-0.12751505
-0.024540909
0.045541327
0.07558839
0.06562463
0.009525449
-0.042497303
-0.07927622
-0.09224543
-0.0574356
0.0147718135
0.07153702
0.08647964
0.095358334
0.098406516
0.09328047
0.08521835
0.022257097
-0.026848245
-0.02997307
-0.044392936
-0.063742064
-0.04341719
-0.0845327
-0.16363712
-0.17931895
-0.12681721
-0.10422436
-0.09292594
-0.043311067
-0.0105642555
0.010971304
0.051262505
0.0750272
0.08016848
0.07885502
0.05896993
0.07657936
0.12904473
0.18051131
0.1497507
0.034969736
-0.053328577
-0.063407704
-0.056655504
-0.049941964
-0.052987907
-0.059645183
-0.06769854
-0.083491676
-0.06522555
-0.046110153
-0.04341528
-0.02703062
0.0014841211
0.02445998
0.04917407
0.055227123
0.053695437
0.05220901
0.021485386
-0.023158103
-0.05724827
-0.05231184
-0.043096967
-0.038157865
-0.033644542
-0.03344885
-0.028256562
-0.02278768
-0.0222888
-0.021717547
-0.019959182
-0.015396594
-0.013629265
-0.010712453
-0.010605642
-0.009124089
-0.005913054
-0.0077667604
-0.0049933544
0.0020737574
0.006915093
0.005041687
0.0060306517
0.007704358
0.010747546
0.014854958
0.017991854
0.016774006
0.020118013
0.017662536
0.017467061
0.016639214
0.017786108
0.019075373
0.018844638
0.017931534
0.018168427
0.018677693
0.020621698
0.023927558
0.0274829
0.028300613
0.028330695
0.02953315
0.030880345
0.030365169
0.032869477
0.03230141
0.030406235
0.026991578
0.023205066
0.01884433
0.015191743
0.0065830788
0.0023001905
2.6019043E-4
-0.006338774
-0.011214334
-0.012372263
-0.017576788
-0.023410276
-0.026243247
-0.026566219
-0.026449189
-0.02473742
-0.022448538
-0.022969656
-0.023513144
-0.026126117
-0.028506199
-0.027893912
-0.024479771
-0.02391563
-0.021784378
-0.022073125
-0.01966476
-0.017719286
-0.016801437
-0.019523073
-0.02034708
-0.017351603
-0.015861386
-0.013444058
-0.009082505
-0.0045467285
0.0036251245
0.009505942
0.015745725
0.015675507
0.01541292
0.014687961
0.014875374
0.015845155
0.013737828
0.012688127
0.011193686
0.010746875
0.0072305813
0.005869546
0.0020266578
0.0030961402
0.003907993
0.005996958
0.009345406
0.012765706
0.0181026
0.02314609
0.025224319
0.02741966
0.028679743
0.028087456
0.027232798
0.024358658
0.020915033
0.01780193
0.014739341
0.0111149
0.008823347
0.0053399415
0.0041217944
-0.0022353174
-0.0027147997
0.0030546826
0.0041065356
0.007820242
0.009108689
0.008174766
0.011390325
0.011155884
0.0116014425
0.011307002
0.008603078
0.006854414
0.0047986377
-8.537329E-4
-0.004970327
-0.006961663
-0.009832481
-0.013285152
-0.016124934
-0.017299458
-0.017143982
-0.016746135
-0.014151176
-0.008899624
-0.003671477
0.0028980053
0.007944082
0.008530159
0.009810977
0.010754165
0.008540242
0.0073839477
0.006695283
0.0041271364
0.0016818774
-1.6812255E-4
-8.3049317E-4
-0.0035123462
-0.007958422
-0.011083982
-0.0096248
-0.008520876
-0.0050974707
-5.998413E-4
0.0018749
0.005663865
0.008792312
0.01013313
0.011008689
0.008674766
0.007818472
0.008344549
0.006273513
0.0012382544
-4.341162E-4
-0.0053807106
-0.0047949343
-0.014762347
-0.014899759
-0.010282947
-0.010846135
-0.008684582
-0.027019924
-0.03218186
0.0041099926
0.010683181
0.014638223
0.014433264
0.014338305
0.012406236
0.009957053
0.010290242
0.00990106
0.0063400245
0.003249507
-4.4286376E-4
-0.005149458
-0.005988423
-0.0061173877
-0.010360576
-0.007524282
-0.0064656176
-0.005562212
-8.9458254E-4
0.0027849
0.0046791234
0.0080952
0.009986018
0.011983948
0.012131877
0.009522695
0.010093513
0.0068048486
0.0035867016
0.0024238136
2.9381347E-4
-0.0022132983
-0.0055098925
-0.0071735987
-0.008389675
-0.0076033813
-0.008159458
-0.0073531643
-0.0021302758
0.0012044653
0.0063334303
0.009371878
0.010795066
0.011420625
0.009389073
0.008275149
0.005784114
0.0039959666
0.0019730786
-6.59292E-4
1.4070801E-4
-0.004071145
-0.00571011
-0.007393816
-0.010657004
-0.009395451
-0.007679158
-0.0075128637
-0.004387087
-7.19458E-4
0.005317136
0.0070984717
0.0034803248
0.0016950659
0.0091235135
0.007227219
0.005816184
0.006285149
0.003807002
0.0031764845
-8.3515624E-5
-0.0041453685
-0.005181963
-0.00806804
-0.009958858
-0.011004416
-0.010487605
-0.00628657
-0.0026136816
6.78689E-4
0.0026058007
0.008321878
0.009612695
0.009503514
0.012463814
0.010667002
0.009085449
0.006696785
0.0043610083
0.0017157495
-0.0020913624
-0.0035432153
-0.008319292
-0.01030248
-0.009370928
-0.009621746
-0.009370193
-0.0067515285
-0.004635752
-2.5575195E-4
0.004168472
0.0073121777
0.010585366
0.011480926
0.010794113
0.0102173025
0.008063379
0.005379973
0.0032394556
-0.0015352856
-0.0023523974
-0.00294188
-0.003953733
-0.006092698
-0.009793515
-0.009241963
-0.00864804
-0.006599375
-0.0027788575
4.335132E-4
0.0036553661
0.008541442
0.011667002
0.00924545
0.0067167846
0.0072004907
0.007011826
0.0055084205
0.0027679028
7.8027346E-4
-0.0025668384
-0.0060958033
-0.0068771387
-0.006988474
-0.010311662
-0.010424851
-0.008120928
-0.008939375
-0.008827822
-0.0050844164
-1.4416504E-5
-0.020548424
-0.016098205
0.003191277
-0.026874065
0.008724382
0.014851795
0.011207353
0.0090858005
0.006657136
0.00425136
0.0019184717
-1.0152832E-4
-0.004735752
-0.005724717
-0.0061336816
-0.005340276
-0.0033497582
-0.0019368702
0.0020402416
0.0059892065
0.008837654
0.0108408425
0.00988166
0.010554848
0.0128651485
0.010828338
0.007129673
0.006048638
0.0044128615
0.0020399732
-0.0017247681
-0.0053513623
-0.008517439
-0.009688257
-0.007891963
-0.0069232984
-0.006494634
-0.0030841161
-4.464868E-4
0.0036053662
0.007659072
0.00922752
0.010300708
0.010071526
0.008347603
0.006558938
0.003920791
-1.8920898E-4
-0.0021063208
-0.0039781737
-0.0046823975
-0.0062913625
-0.00886981
-0.011475368
-0.0116709275
-0.009279375
-0.0066207102
-0.004694934
-1.0493408E-4
0.0023221776
0.007245884
0.010036701
0.008492778
0.0087312255
0.008597302
0.006588638
0.00328812
0.0031776025
6.6997315E-4
-0.001334768
-0.0051913625
-0.006340327
-0.008998774
-0.011996704
-0.011894634
-0.009073081
-0.0065244166
-0.006445752
-0.0029852344
0.003194248
0.007787954
0.00787166
0.010294849
0.008883296
0.007959372
0.00831545
0.006696785
0.0025238965
0.0013186377
-4.937329E-4
-0.0013884741
-0.002595586
-0.0070169214
-0.01054011
-0.010403299
-0.010376487
-0.007780193
-0.007393899
-0.0067852344
3.7476563E-4
0.0042489893
0.010029807
0.009238254
0.010059073
0.008697519
0.0055641136
0.0047383374
0.002535449
0.0012001904
-0.0018345508
-0.0058735157
-0.006994851
-0.0071985573
-0.009819375
-0.010080193
-0.00848627
-0.0088447165
-0.0071760523
-0.0036979052
0.0019392065
0.006870542
0.008436618
0.009687437
0.010972995
0.009943813
0.00795989
0.003931743
-5.506274E-4
-0.021037005
-0.030251829
-0.0011365698
8.158008E-4
-0.001951311
-0.0032207936
-0.0053673876
-0.004821611
-0.0037834644
-0.002992947
8.7053224E-5
0.004191277
0.008077353
0.011312912
0.013173213
0.013715884
0.013156184
0.012254113
0.013346785
0.008462861
0.004024714
0.0035865675
0.0027160498
-0.002121062
-0.0026505445
-0.009228991
-0.04536123
-0.01542864
-0.0016933813
-0.0015081225
-0.0016928638
0.005866101
0.010639289
0.011767219
0.01343989
0.01211782
0.009116267
0.010117085
0.009497903
0.0058968677
0.0042210915
0.0023182032
-0.0015665381
-0.0029360205
-0.007177356
-0.009918174
-0.010128992
-0.009327439
-0.007541145
-0.003862998
-0.0011053686
0.0025317431
0.0049183373
0.008294414
0.010085232
0.008181308
0.0072550145
0.0077987206
0.007192427
0.0063713915
0.002880874
-3.1912597E-4
-0.0026586084
-0.005265203
-0.005381797
-0.0068431324
-0.011148691
-0.012216621
-0.009315068
-0.0049316627
-0.002821145
-0.0010135156
0.0040983376
0.008554414
0.008630491
0.009088938
0.0068702735
0.007161609
0.0064729443
0.0034147974
9.2716794E-4
-0.0011252026
-0.0035670556
-0.006828391
-0.008244468
-0.010657656
-0.012235586
-0.010938775
-0.010871963
-0.006653298
-0.0028027808
0.0028667017
0.005583296
0.008059372
0.009117819
0.0030273022
0.0054238965
0.006955232
0.006094197
0.0040160497
3.984204E-4
-0.0020786915
-0.0021858031
-0.005964768
-0.008190845
-0.010434033
-0.011279592
-0.01005041
-0.009781228
-0.008077305
-0.0035091578
0.0016055835
0.0052221776
0.008128255
0.00785196
0.009250408
0.008868855
0.0064801904
0.0056267846
0.0045510083
0.00237812
-0.0015066211
-0.0014813623
-0.002418474
-0.013221145
-0.015378557
-0.014603599
-0.011559158
-0.0071704932
-0.0032299757
-0.0040818285
-0.033596136
-0.0035279882
0.013974682
0.013927354
0.014152395
0.012632695
0.008658772
0.005065366
0.0052919607
0.0034238135
5.3618406E-4
-0.0029532984
-0.005792263
-0.0068935985
-0.008389675
-0.008838123
-0.00869657
-0.0058255345
-0.0030750171
0.0011073535
0.004331577
0.009290025
0.011275584
0.010016401
0.0087548485
0.007056184
0.005442778
0.0052793724
0.0026064843
-6.658862E-4
-0.0018506275
-0.0057195923
-0.0071832985
-0.0088917455
-0.0106349345
-0.011040493
-0.010443682
-0.0073873876
-0.0024644996
6.8787107E-4
0.005374465
0.009605283
0.011580843
0.00983166
0.008467737
0.008273814
0.0032032959
0.0030127782
0.0034846314
0.0014793726
0.0011841138
-0.00424011
-0.0065414454
-0.009049892
-0.010593081
-0.01033627
-0.009094717
-0.0058936817
-0.0021207936
0.002718689
0.006970024
0.010823213
0.007736919
0.009025366
0.010798555
0.009649373
0.00931782
0.008453896
0.006945232
0.0011076025
-5.239746E-5
-0.0019595092
-0.007313215
-0.009271663
-0.010774851
-0.010738039
-0.010911228
-0.009199675
-0.0034515283
-1.0152832E-4
0.0021655834
0.0074892896
0.011214849
0.008993296
0.009151743
0.008087819
0.006899155
0.0053157494
0.0012204907
2.8049073E-4
-0.0018742505
-0.002663733
-0.0065050684
-0.010428257
-0.011756186
-0.010127004
-0.011372563
-0.010355752
-0.0055523464
-0.002609458
0.0043247654
0.009003213
0.0066045485
0.0070358836
0.006284849
0.0043290723
-0.009451746
-0.028631829
0.0056147655
0.0024718775
9.4424805E-4
-0.0014804931
-0.002167605
-0.0048818286
-0.009060276
-0.008676353
-0.007920058
-0.006961394
-0.0052079884
-0.0014727295
0.0032567529
0.0064380886
0.010108906
0.0084949825
0.006506318
0.007972395
0.0064113596
0.007545066
0.0047192895
8.9166017E-4
-0.0021154517
-0.004479675
-0.006731011
-0.008047087
-0.009125534
-0.010238723
-0.009829541
-0.007543247
-0.0044774706
0.0016372706
0.004511494
0.00715283
0.008408906
0.009047354
0.0092058005
0.007729507
0.008315584
0.005814548
0.0015492896
-4.3308106E-4
-0.0017278222
-0.0049744165
-0.0058533815
-0.007004717
-0.009113164
-0.011791094
-0.011086653
-0.007260359
-0.0031898413
-3.6984132E-4
0.0016848999
0.006163865
0.009172312
0.00965313
0.007796836
0.008192913
0.0072866185
0.004440842
0.0014955834
7.279541E-4
-0.0017367871
-0.0045410106
-0.006562346
-0.0074260524
-0.011241611
-0.0105048
-0.010337988
-0.008444065
-0.0032435474
-0.0017982885
0.0014464527
0.0062554176
0.008671494
0.010814683
0.010197871
0.007621577
0.007505283
0.0052018776
0.001004248
-8.9812255E-4
-0.0010104931
-0.0044547166
-0.0071984227
-0.0082845
-0.009485317
-0.009536135
-0.008884583
-0.007960659
-0.004274883
-5.772534E-4
0.0051993406
0.008787788
0.009938606
0.010811795
0.009482612
0.006483948
0.0058029126
0.0038647656
0.0034266186
4.4898925E-4
-0.0026704932
-0.004042346
-0.0064836815
-0.0077673877
-0.008673464
-0.0075471704
-0.0073508765
-0.0063098413
-0.006098806
-0.007252512
0.003459341
0.0076330467
0.011568606
0.011324165
0.0101449825
0.0088634305
0.008569507
0.006258472
0.0060574366
0.0029469188
-0.0017178223
-0.0036896754
-0.0058786403
-0.008194717
-0.010837905
-0.010098723
-0.00938717
-0.0063961353
-0.004470359
-0.0012451
0.0012596411
0.0057386057
0.007954682
0.00944313
0.009443948
0.0071452833
0.0074989893
0.0064203246
0.0032098072
-2.5019288E-4
-0.003582046
-0.008068123
-0.012176053
-0.03691221
-0.042494968
-0.009413413
-0.008159489
-0.0032289722
-0.002236084
5.862866E-4
0.0039381394
0.008114216
0.009495034
0.011430593
0.011316152
0.011631711
0.0102749
0.0070162355
0.0031257179
0.0020028297
1.0282959E-4
-0.0036090235
-0.007020359
-0.008176436
-0.010639624
-0.009560442
-0.007644148
-0.008040224
-0.0057791895
-0.0030186719
0.0018260693
0.0070074047
0.008975852
0.0089543
0.009352746
0.009493564
0.0069148997
0.0048591234
0.006258088
0.0033775708
3.775708E-4
-0.0016571704
-0.0044113942
-0.0065327296
-0.009743547
-0.0110791065
-0.010452295
-0.008358371
-0.006087336
-0.0013720776
0.0029874048
0.0065487404
0.009729558
0.007363264
0.0036151172
0.0072288234
0.009529641
0.0063486057
0.0031880883
0.0024952001
0.0012299414
-0.0015047998
-0.003384282
-0.006263247
-0.008459324
-0.008707771
-0.008153847
-0.006645183
-0.003877036
-0.0011294067
0.0014453345
0.005391929
0.010755117
0.010268305
0.009899124
0.010562312
0.007546018
0.0053826123
0.0041344655
0.0012892066
-1.07934575E-5
-0.0021479053
-0.004472129
-0.0066034645