0.0070345607
0.01108012
0.010130937
0.0076246434
0.00818072
0.007414426
0.0046586497
0.003820503
0.0012652441
-0.0010071264
-0.0032966088
-0.0069479444
-0.0076616504
-0.0087100975
-0.009178545
-0.007642251
-0.005891216
-0.003543069
2.7693115E-4
0.002154043
0.0059230076
0.010436196
0.007849902
0.0025770143
0.0017617553
-0.013560915
-0.024909146
0.00667219
0.0065735253
0.0022206372
-0.0027088453
-0.0034606983
-0.0038825513
-0.006613887
-0.0060628518
-0.005639446
-0.0046236697
-2.3366943E-4
0.002775813
0.0069071483
0.010630337
0.012288267
0.013390938
0.012741238
0.011236797
0.010077614
0.007431321
0.0041855443
0.0029950268
5.5026856E-5
-0.0033244556
-0.0041263085
-0.006497644
-0.00759135
-0.008107427
-0.0060863914
-0.004840615
-0.0028000977
-3.0009766E-4
0.0018246436
0.0046188673
0.007192573
0.007163909
0.0071776146
0.0060365796
0.0047708033
0.0030202856
0.0016250268
-9.873437E-4
-0.0032568262
-0.0050534206
-0.006754756
-0.008530833
-0.009961651
-0.01118721
-0.0117027685
-0.009041216
-0.0043354393
-0.0015501807
0.0016645605
0.0040864134
0.006767749
0.007701455
-4.7091552E-4
0.0055056787
0.005052273
0.0033517554
2.8175538E-4
-0.0019853564
-0.0040672095
-0.0047714333
-0.004165657
-0.006626992
-0.00948781
-0.010450998
-0.007924705
-0.00649604
-0.0050226343
-0.002089746
0.0019673656
0.004271589
0.0073752953
0.010388484
0.009036931
0.008613008
0.0060019726
0.003973826
0.003243308
0.0020904199
-0.0010019507
-0.0018266919
-0.0033561743
-0.009094622
-0.008773069
-0.008649145
-0.008075222
-0.007588928
-0.0051555224
-0.0018602636
4.5210693E-4
0.0032315894
0.006170554
0.006059519
0.008105596
0.0044698194
5.2218995E-4
0.0030516724
0.0025187843
0.0012635253
-0.0017712158
-0.0044454397
-0.006846775
-0.009205222
-0.00955604
-0.010279229
-0.009720046
-0.0074837524
-0.004807976
-0.002165088
6.772827E-4
0.0041391356
0.0071928417
0.0080389185
0.0057978835
0.0048421067
0.005348701
0.004552925
0.001617666
-0.0017170752
-0.004621299
-0.02458953
-0.034838576
-0.008717024
-0.038267925
-0.024403784
-0.0016885254
4.638452E-4
0.0014285864
0.00441281
0.007366516
0.011122075
0.010775263
0.012083193
0.013905864
0.012626165
0.010016982
0.0077206884
0.008226765
0.0056033595
0.0037452125
-5.871582E-4
-0.00237427
-0.0064556054
-0.008211683
-0.0080977585
-0.0058067236
-0.0059156884
-0.004549912
-0.0019170239
0.0033824586
0.0042866822
0.007230388
0.009348836
0.0072525414
0.0071762474
0.0057152123
0.0037570654
0.003316548
9.589185E-4
-1.4108155E-4
-0.0022681933
-0.0033876759
-0.006929011
-0.0069303466
-0.0070716823
-0.007825389
-0.006996724
-0.0048009474
-0.0027304296
0.0015543115
0.004588535
0.006759871
0.004916465
0.0026759473
0.0071072825
0.008613359
0.006554695
0.0029841773
0.0023812891
-3.3871093E-4
-0.0013334522
-0.002310564
-0.00725427
-0.008500347
-0.010363535
-0.009131982
-0.006170947
-0.002158059
-5.504297E-4
-7.428003E-4
0.0025543114
0.0052509056
0.0061898706
0.0072835768
0.0062925415
0.0060415063
0.005468101
0.003047583
-8.547876E-4
-0.0022418995
-0.0024890113
-0.008345088
-0.0064564236
-0.00912487
-0.008450948
-0.0165431
-0.043520596
-0.0037324487
0.0055541457
0.006515481
0.008843929
0.011059487
0.014094529
0.013847199
0.010710388
0.006099353
0.0032588355
0.0037906885
0.0036025415
0.0016672827
-0.0025498292
-0.0031293116
-0.0057182764
-0.0061672414
-0.0077209473
-0.0053275414
-0.005134136
-0.0035259887
-7.3835935E-4
0.0011563818
0.0030458642
0.007889571
0.008305647
0.008031724
0.007905429
0.0063943947
0.0053409887
0.0031704712
8.028418E-4
4.2841795E-5
1.1284179E-4
-0.0029166406
-0.0060156053
-0.007931682
-0.0097525
-0.011528059
-0.010911248
-0.007142583
-0.0022396948
0.002087417
0.006066382
0.007800088
0.009620906
0.009751724
0.008357801
0.0077115064
0.0067628417
0.0042470656
0.002766548
0.0015812891
-0.0021058228
-0.0044500465
-0.0055266405
-0.008472717
-0.009151164
-0.009821982
-0.00898043
-0.0066117654
-0.0043159886
-5.1835936E-4
0.0025687525
0.0050653466
0.007136682
0.0076903882
0.006901724
0.005568318
0.0042525413
0.0023796533
5.5202394E-4
-0.0019450879
-0.0034869409
-0.0044911643
-0.007214871
-0.008340947
-0.009249395
-0.008025471
-0.004869695
-0.0047239186
-0.0025110303
8.913403E-4
0.002158452
0.004622676
0.0044968994
0.007108235
0.0074419407
0.006643276
0.0046675
0.0010598706
7.8224123E-4
-0.0028672412
-0.013067542
-0.009135989
-0.007077324
-0.008033401
-0.010286589
-0.009527408
-0.0073911133
-0.004615337
-0.0016800781
5.6229247E-4
0.006753628
0.011259187
0.011897117
0.009657934
0.0074616405
0.0051382347
0.0032477174
0.0026048291
0.0013195704
-4.428003E-4
-0.0010051709
-0.0026646534
-0.005803618
-0.008109695
-0.0065410305
-0.0067823655
-0.008078442
-0.0050950367
-0.0016297778
0.0012249633
0.0031644457
0.0063034105
0.008851858
0.007113193
0.0058021583
0.0054287524
0.006207717
0.0050843116
0.0024814233
7.1379397E-4
-0.0018809473
-0.006119912
-0.0065312474
-0.0073349536
-0.009885771
-0.01035896
-0.008585037
-0.005291631
-0.0019287426
2.6125732E-4
0.0035731103
0.008269187
0.010262376
0.011820305
0.009661123
0.0066724587
0.0075561646
0.004670388
0.0043246117
-2.0538819E-4
-0.0030948706
-0.002964353
-0.005713318
-0.008811765
-0.010092583
-0.00860866
-0.006579995
-0.0046842187
-0.0039560716
-9.0844237E-4
0.0026186695
0.0072023757
0.008528452
0.0065297876
0.007883494
0.0076772
0.0069485353
0.0068298704
0.0021469824
-0.0014477588
-0.0041619823
-0.0058909473
-0.006249912
-0.008455989
-0.010599177
-0.008697624
-0.0075213304
-0.006852666
-0.0043168897
3.0311034E-4
0.0031125927
0.006753928
0.009042376
0.010245564
0.010106382
0.005482976
0.0052095703
0.0014043115
-4.8805907E-4
-8.504297E-4
-0.0020075415
-0.004601765
-0.007415471
-0.01073866
-0.015476072
-0.020140078
-0.047219425
-0.011767356
0.003714497
0.005341091
0.008719538
0.011035098
0.010928286
0.009056733
0.010972292
0.010285481
0.008421558
0.006662893
0.0048271166
7.894873E-4
-0.0036423658
-0.0048565893
-0.005785554
-0.00678689
-0.008122967
-0.008129043
-0.006740378
-0.004814602
-0.0020517139
8.3065673E-4
0.0027201392
0.005809104
0.008907551
0.008653628
0.008569704
0.008235781
0.0052523753
0.0036242285
8.865991E-4
0.0013113404
-1.4865967E-4
-0.0010210302
-0.0031905128
-0.005337107
-0.007580813
-0.00871926
-0.008697707
-0.0060166726
-0.004170896
-4.932666E-4
0.004370957
0.007214663
0.011630222
0.00992104
0.0086071165
0.008083194
0.006424529
0.003926382
0.0043606055
0.002750088
-0.0016346533
-0.0061436184
-0.0040254714
-0.006194436
-0.007528142
-0.0065494776
-0.006560813
-0.0053274073
-0.0029268896
-8.1926025E-4
0.0021078517
0.0073415576
0.009682376
0.008810823
0.0073645287
0.0042187525
0.005155347
0.0036571997
0.0023343116
5.266821E-4
-0.0041875415
-0.0080536185
-0.008519695
-0.011465254
-0.013507925
-0.013560596
-0.011656155
-0.0075698607
-0.0042240843
-7.364551E-4
0.0031930273
0.0060319924
0.00967281
0.009563628
0.0069249636
0.0068662986
0.0063152635
0.0042894874
0.0029489698
0.0011013403
-0.0010010303
-0.0051676244
-0.016027408
-0.046262015
-0.01930365
-0.0094420975
-0.008690544
-0.00693188
-0.0037137328
-2.737329E-4
0.0050128615
0.008088938
0.008555015
0.009485832
0.011531391
0.01032458
0.008360657
0.006921992
0.0030714746
0.0015862158
-8.461548E-4
-0.0030756372
-0.004299861
-0.0065411963
-0.008949644
-0.010932832
-0.008218909
-0.0057478733
-0.0039597265
-9.6209714E-4
0.0019350146
0.0062339795
0.010427168
0.011362727
0.010123545
0.010979104
0.008615181
0.007428887
0.0045631104
0.002040222
-4.6214843E-4
-0.0047363723
-0.007820078
-0.010623267
-0.011648825
-0.012266755
-0.012254685
-0.009243133
-0.0051097265
-0.003139209
0.0011755322
0.0072392384
0.0067305737
0.0061995387
0.0063185035
0.008816951
0.0076006567
0.0073943627
0.0065556983
0.00254281
-0.0018619312
-0.0028614136
-0.008687491
-0.010450679
-0.006612014
-0.0070233494
-0.005489944
-0.0036817968
-0.0038236498
-0.0014083912
0.003403462
0.005350056
0.007573762
0.008319839
0.008808286
0.009046733
0.0073304395
0.005087034
0.0039588865
0.0030383691
6.907397E-4
-0.0018040015
-0.0020711133
-0.004092966
-0.006804302
-0.007768008
-0.0067793434
-0.0062383083
-0.00231542
-0.0017801612
0.0029893212
0.0047835447
0.00642251
0.005259104
0.0067604394
0.006581775
0.0053183693
0.005344963
0.004146816
0.003146299
0.0023534107
-8.658935E-5
-0.006787925
-0.009426372
-0.00932482
-0.012845119
-0.010198308
-0.0068696435
-0.0040014964
-0.0019286084
9.13916E-5
0.0056479857
0.008014062
0.00890251
0.0098333275
0.008339404
0.0039412575
0.0039531104
-0.02467512
-0.019906756
0.004637468
0.004671692
0.0012864331
-0.0032430494
-0.005872014
-0.0070633497
-0.008369426
-0.007663132
-0.0035049852
-0.004329209
-0.0028286914
0.0015360498
0.008734497
0.0095353145
0.008723762
0.007747468
0.006808804
0.003950657
0.0025277685
0.0019048804
-0.0011398608
-7.622315E-4
-0.0022793433
-0.0030988257
-0.0047230492
-0.006584385
-0.007288091
-0.0059070555
-0.0037889087
-5.612793E-4
0.0040805736
0.0059695384
0.005968503
0.0077522094
0.006673545
0.0062125097
0.005599104
0.003940957
0.0031304394
0.0014551807
-0.0034266724
-0.006415637
-0.007429343
-0.0065706787
-0.006992014
-0.007885721
-0.0074794265
-0.00442365
-0.0022307618
9.4160886E-4
0.0018263501
0.006045315
0.008681391
0.0072850976
0.0082711745
0.0070525096
0.0058714747
0.0063804393
0.0019175513
2.8755126E-4
-0.0021095606
-0.004423784
-0.0049903784
-0.005016973
-0.005403567
-0.008049644
-0.00833572
-0.008151797
-0.008267874
-0.0046520974
-0.0013568384
0.002672644
0.0071639796
0.009674798
0.008843245
0.008179321
0.006950657
0.0062296214
0.0035214745
0.0017462159
-2.3378417E-4
-0.001930896
-0.0059798607
-0.007823567
-0.008449644
-0.010170462
-0.0077341674
-0.006555503
-0.003477356
-0.0023744677
-2.7446778E-4
0.0018702734
0.004694497
0.006043462
0.005540056
0.0037619092
0.0027413915
0.0035632446
2.324463E-5
-0.0013614966
-0.0014162378
-0.0032657203
-0.0035775732
-0.0057465383
-0.004890762
-0.0070220972
-0.0075658034
-0.010046621
-0.0053432155
0.0026462672
0.0035181202
0.010681309
0.018498203
0.019359838
0.018156733
0.017311258
0.013613928
0.0066952636
0.0010176343
-0.0059913304
-0.009982148
-0.010957708
-0.0076314136
-0.006912749
-0.0061217137
-0.0065830494
-0.0053896434
-0.0026267553
-0.002023867
-0.0039357203
-0.0017504614
-0.0011552026
0.0018795385
0.003159021
0.0043632444
0.007386951
0.01157251
0.010735698
0.0074394043
0.005828369
0.0032778515
0.002827334
-0.0014374072
-0.009658225
-0.014815637
-0.020599643
-0.023463132
-0.020647138
-0.015546922
-0.008082998
-0.0022901099
0.0031593726
0.006640708
0.008829155
0.010069973
0.00811605
0.007859756
0.0063287206
0.004130574
0.0030000561
0.002647168
0.0016419091
-0.02504632
-0.03666248
-0.006793816
-0.009192263
-0.011227822
-0.0075815283
-0.0037433812
6.618652E-6
0.003326101
0.0068374365
0.008343513
0.0065548485
0.003244331
-5.0803955E-4
-0.0034998925
-0.0022570044
5.153662E-4
0.0018801074
0.0058490722
0.006910408
0.009438855
0.013621526
0.010162344
0.011990273
0.010613462
0.01006428
0.010797468
0.011433028
0.009563846
0.012121775
0.015631558
0.016243711
0.020237718
0.02690306
0.032654997
0.037873525
0.037039686
0.036033474
0.03212541
0.019837046
0.007068381
-0.009982437
-0.027457777
-0.03879868
-0.040486693
-0.03429337
-0.02561397
-0.020810347
-0.01741487
-0.015684653
-0.013677324
-0.008765771
-0.008451848
-0.011949778
-0.010452966
-0.00430719
0.015220222
0.042272978
0.06548922
0.08386236
0.08816972
0.08865708
0.080850735
0.053389046
0.010782233
-0.034406815
-0.07658625
-0.09301783
-0.08367097
-0.06564721
-0.055060264
-0.05461095
-0.053759262
-0.045331497
-0.023794984
-0.014560027
-0.010050844
-0.004885068
-0.0050016628
-0.006692998
-0.010726186
-0.009777005
-0.0074307104
5.716602E-4
0.011377219
0.02752256
0.055245616
0.074800305
0.090042405
0.10307481
0.09858536
0.08144139
0.06542762
0.049934085
0.0409321
0.038683
0.018359896
-4.324756E-4
-0.0076961815
-0.019507818
-0.037323978
-0.05365229
-0.07403461
-0.09549331
-0.11118179
-0.10682604
-0.10047133
-0.07381365
0.0065976856
0.05795022
0.10515974
0.10674399
0.09498269
0.09989561
0.10722224
0.100859895
0.099632815
0.09024492
0.094923615
0.09147046
0.04467032
-0.025057908
-0.11587061
-0.18243429
-0.20668384
-0.14460663
-0.027131971
0.058310565
0.13959913
0.19907497
0.2125311
0.20893776
0.1714959
0.09202511
0.022736225
-0.012554075
-0.039357346
-0.038338248
-0.054168932
-0.08092259
-0.10711921
-0.11691666
-0.07270423
0.026168738
0.0752258
0.029055882
-0.025634719
-0.07528178
-0.1358385
-0.17211899
-0.17180711
-0.16940813
-0.1343101
-0.054933153
0.008795296
0.05409598
0.08203437
0.14587191
0.21123567
0.17014906
0.06983715
-0.0040546996
-0.07372702
-0.11800683
-0.11580954
-0.09490823
-0.065854475
-0.07073731
-0.11116579
-0.19562978
-0.22967044
-0.18075702
-0.12199105
-0.065437295
-0.023460787
0.005345808
0.02735115
0.012851451
-2.5854982E-4
-0.02508678
-0.029629234
-0.0320788
-0.03622259
0.025305642
0.112941235
0.20006944
0.29008976
0.36254764
0.34367627
0.21162005
0.0496765
-0.08737849
-0.20123906
-0.228425
-0.14562252
-0.058335055
-0.04075307
-0.061475087
-0.0922543
-0.10540619
-0.05101739
0.037038773
0.08643902
0.105238535
0.088385895
-0.0026012158
-0.1057931
-0.10186313
-0.06647175
-0.05742191
-0.06030156
-0.033485867
-0.012916167
-0.0046703904
0.046244215
0.08966632
0.06579256
-0.017091963
-0.09895251
-0.10853388
-0.07488857
-0.06176296
-0.081568986
-0.07059945
-0.033333756
-0.021150135
-0.027475476
-0.050734308
-0.059481584
-0.05452227
-0.04153265
-0.02414851
0.0024186012
0.029461054
0.021177432
-0.006963904
-0.0063728685
-0.0012576098
-0.0022147216
-0.007086057
-0.008182134
-0.001536875
-2.76875E-4
-0.011814805
-0.04473467
-0.017159194
1.20805664E-4
0.0021379176
0.0027374
0.005103994
0.005270588
0.0064095533
0.00860563
0.013738301
0.017965196
0.023448683
0.028016396
0.02939885
0.028798932
0.028056646
0.024884876
0.023728365
0.022969482
0.016661637
0.015329048
0.0166212
0.016653355
0.02048736
0.02186611
0.020180115
0.017544638
0.015162051
0.012109981
0.007883687
0.0025207982
-7.920166E-5
-0.0035710547
-0.009571873
-0.012019802
-0.016951956
-0.021560702
-0.024988933
-0.026131904
-0.028341988
-0.025912588
-0.021428965
-0.017573489
-0.015673272
-0.01080646
-0.003698313
0.002548799
0.0051353932
0.00801147
0.010042287
0.009250735
0.009571552
0.0075752586
0.005491853
4.2422363E-4
-0.0037976294
-0.0016023706
-0.002661853
-0.0046260767
-0.0077297827
-0.008465859
-0.006847195
-0.00613616
-0.004810383
-0.0011327539
0.0033867285
0.0053333226
0.0079994
0.010432588
0.009913405
0.012261336
0.011656894
0.008492971
0.0068943067
0.0062932717
0.007114607
0.0032140894
0.002161201
6.9357175E-4
5.3571777E-5
-0.0011287988
-9.211694E-4
7.1120117E-4
0.0064525367
0.012712837
0.01699499
0.020278996
0.024997227
0.027122568
0.02828028
0.02202903
0.019830665
0.0198223
0.017036824
0.014371865
0.012842165
0.011720095
0.0060490603
4.914307E-4
0.006812766
0.007566472
-0.007477234
-0.026480205
0.0100506125
0.014135654
0.015253066
0.015460478
0.018477373
0.015204785
0.014549826
0.012187757
0.011443315
0.011578875
0.008807322
0.005663916
0.0018586572
-0.0022384545
-0.003037937
-0.0042021605
-0.007285867
-0.007067202
-0.007148538
-0.009166985
-0.005313579
-0.001930691
0.0018240503
0.0068753855
0.009283833
0.010337021
0.01095021
0.010021028
0.010141846
0.0082879225
0.00884637
0.005582964
0.0013277051
-1.2229492E-4
-0.0019894068
-0.0044236304
-0.0059125954
-0.008238672
-0.010401861
-0.0074955663
-0.0033850488
-8.674194E-4
0.003162063
0.0066433987
0.010948958
0.011534517
0.010347705
0.009346153
0.00953697
0.008293047
0.0065143825
0.0046386058
0.0029180883
1.6808837E-4
-0.0019390235
-0.0034308764
-0.0044251
-0.006274065
-0.0069954004
-0.006756736
-0.0041509597
-0.0013457007
0.0015290405
0.006950376
0.009198823
0.012789124
0.012447054
0.00814313
0.008529207
0.009247654
0.0071789892
0.0041732127
0.0025503247
-1.6967529E-4
-0.0018444165
-8.767871E-4
-0.0046210107
-0.008657088
-0.006406052
-0.004910276
-0.0032297582
-0.00195687
0.0011355005
0.0062744655
0.010075283
0.010438472
0.008554548
0.006995884
0.0059748488
0.0051414426
0.0057104076
0.004957002
0.0021941138
-0.0012506275
-0.0029001099
-0.003871963
-0.00918041
-0.010853599
-0.0071773045
-0.0062162695
-0.0043104934
-0.0017352344
-9.77605E-4
0.0032918775
0.0075455834
0.009536401
0.009657219
0.010048037
0.007461743
0.005508337
0.0026254493
0.0011278199
-6.245508E-4
-0.0025716627
-0.0040635155
-0.00521011
-0.0063990746
-0.008807522
-0.007391228
-0.010694416
-0.00450864
-3.5864013E-4
0.0017061011
0.0068374365
0.009085883
0.009144331
0.009362779
0.010023596
0.0087720435
0.0077357497
0.006997085
0.0050936793
0.004817903
0.0031673852
2.0738525E-4
-9.549853E-4
-0.0036668384
-0.0065481737
-0.00742188
-0.006943215
-0.0055998093
-0.0038316627
-0.0018864038
7.959668E-4
-0.026177004
-0.0038688574
0.012359072
0.004363296
-0.024122564
0.010088255
0.012738555
0.009427002
0.0065783374
0.004372561
0.003484414
0.0017491552
-0.0019179565
-0.005644551
-0.004971145
-0.003742998
-0.0027024804
7.3989015E-4
0.0042841136
0.0068154493
0.010568637
0.013441308
0.01600109
0.015468503
0.013058804
0.009297251
0.007910957
0.0058599217
0.0038517748
-2.582251E-4
-5.205957E-4
-0.0024477076
-0.0061066723
-0.006428008
-0.007261714
-0.005598308
-0.0027477904
-0.0014825318
-9.2531736E-5
0.0033269506
0.007108286
0.0078819925
0.0094528105
0.009503628
0.008489705
0.008155781
0.005674746
0.0025518578
1.185791E-5
0.0020689697
-0.0014057715
-0.004749995
-0.004724219
-0.0045284424
-0.0063074073
-0.0066687427
-0.006840078
-0.0027895605
-5.5193115E-4
8.804395E-4
0.0069217747
0.0083878515
0.008796299
0.009547116
0.008925564
0.00779927
0.0056158644
0.0026453466
-6.465332E-5
-0.0019717652
-0.0029512476
-0.0060902126
-0.0076439185
-0.008009995
-0.008206071
-0.009054519
-0.003706372
-6.987427E-4
0.0026607397
0.0038325929
0.0067439284
0.009112376
0.008618453
0.008364528
0.007970605
0.0063695703
0.0036714233
0.002638535
0.0038003882
0.0054169823
0.004571206
0.003563059
-8.694092E-5
-0.0023440528
-0.0057530175
-0.007846723
-0.011492283
-0.010405472
-0.009123919
-0.003113401
0.0031660816
0.0042703054
0.0050268993
0.004631123
0.0042753466
0.0056119408
0.003693794
0.0012285352
-4.5383544E-4
-0.0030533178
-0.0028228003
-0.004157024
-0.008433101
-0.011891031
-0.010171848
-0.008057925
-0.0057768896
-0.0037987428
-0.0015734839
0.0028059985
0.007017334
0.009085781
0.009606599
0.009617417
0.0062163817
0.0033458644
0.0017306055
-0.0014141358
0.0014606054
0.0015953467
-0.002501765
-0.005398359
-0.006087324
-0.008985772
-0.008794218
-0.007907925
-0.005584519
-0.002191631
0.0015431104
0.004267334
0.006296299
0.006817634
0.00782134
0.0100521585
0.008710605
0.0055771996
0.005573794
0.0035856469
0.0017403882
-9.961182E-5
-0.001814353
-0.0015490942
-0.0030385766
-0.006799912
-0.008175989
-0.009024436
-0.010195254
-0.00739896
-0.0016137012
0.0026857813
0.004340005
0.0067713405
0.009219788
0.009258235
0.008956682
0.0071280175
0.005886982
0.0025440943
-0.009626724
-0.037605252
-0.0028247363
-1.8473633E-4
-0.0030842188
-0.005410813
-0.007384519
-0.008300596
-0.00554719
-0.0014919312
0.0023751806
0.005061775
0.0066931103
0.0093415575
0.013944228
0.012122158
0.010455347
0.007991423
0.0055480176
0.0044122413
-2.0775879E-4
-0.0023248706
-0.002644353
-0.0028938355
-0.0037756886
-0.008121765
-0.0073154713
-0.0074791773
-0.0058981422
-0.0037399952
-7.9995116E-5
0.0027894874
0.006358452
0.00980927
0.010842458
0.011088017
0.011775947
0.010899136
0.008565213
0.004879436
0.0025865478
-0.001960564
-0.003762417
-0.0066237524
-0.007045088
-0.007878794
-0.010109612
-0.0108028
-0.0076165064
-0.006115471
-0.0020025831
3.997876E-4
0.0047440114
0.0072677173
0.008706165
0.0079922415
0.0067335768
0.006764912
3.249121E-4
0.0023320238
2.4202393E-4
-0.0020250878
-0.0027645703
-0.0069859056
-0.008471983
-0.00931043
-0.008576507
-0.006005471
-0.005994436
-0.0050410302
-6.9340086E-4
0.0030160816
0.0061950465
0.0070063816
0.008212458
0.008850906
0.010041724
0.0070230593
0.0046172827
0.0029767652
0.0016915064
8.2387694E-4
-0.0011184936
-0.0038503467
-0.0077640526
-0.010837241
-0.0119651705
-0.03553659
-0.034143265
-6.056372E-4
0.0019414746
0.002740957
0.0071422923
0.012180222
0.012408152
0.012046082
0.0113716405
0.009430088
0.0064814235
0.0054780175
0.003949871
0.0011646118
-5.677588E-4
-5.501294E-4
-0.0035919824
-0.005368577
-0.0075622825
-0.0081383595
-0.0052249534
-0.0026320654
-2.0206544E-4
0.0040997877
0.007955864
0.011661423
0.010274611
0.009153059
0.008329135
0.007060471
0.006349436
0.0031389184
9.6128904E-4
9.5365965E-4
-5.8871094E-4
-0.0033881934
-0.0038800463
-0.0050466405
-0.006927976
-0.0073916824
-0.0054382766
-0.0053148707
-0.0034067237
1.7327636E-4
0.0050698705
0.009248318
0.0104115065
0.009882324
0.008840771
0.0035426244
-0.0017421166
0.0033473657
0.0019544775
-2.6552245E-4
-0.0016602636
-0.0043944875
-0.0061634523
-0.0071871583
-0.006416123
-0.0086022
-0.0064335354
-0.004045388
-0.0025225
-0.0014272413
0.004236982
0.007158318
0.007994395
0.0081704715
0.007294177
0.008110254
0.0067615896
0.004685813
0.0018905542
0.0015452954
-0.0022818164
-0.0034736695
-0.007035005
-0.009965823
-0.011191382
-0.010314571
-0.008330647
-0.004164871
0.0011398706
0.0038317237
0.004855947
0.006324912
0.007930988
0.009861806
0.009762624
0.007938701
0.006187666
0.003829519
0.0026366308
-4.9573975E-4
-0.0028752221
-0.0055118166
-0.006070781
-0.009901599
-0.011157158
-0.011725088
-0.012233018
-0.008449094
-0.004463318
-0.0011680591
0.0033414233
0.0056580175
0.0037098706
0.0053164647
0.008312541
0.008780989
0.005027583
0.0026870654
0.0017918067
9.3417725E-4
-0.014010864
-0.039234135
-0.0044783596
-0.0027678418
-0.005264436
-0.0056110304
-0.004575254
-0.0026323658
2.4763428E-4
0.004651858
0.0051584523
0.006107417
-0.02176133
-0.002740813
0.0139842285
0.0132468995
0.012194829
0.005521423
0.0039432766
0.0029727588
0.0025098706
7.5224123E-4
-0.0016325
-0.0033719824
-0.0055785766
-0.0038104297
-0.0032599121
-0.0032893945
-5.2176515E-4
0.0030977172
0.008683794
0.011639353
0.010922542
0.010193359
0.0110989185
0.010392107
0.007905813
0.005342407
0.0043066307
0.0028561132
-6.3625735E-4
-0.0012409985
-0.0039828517
-0.0053594457
-0.008085523
-0.0074692285
-0.0062481933
-0.0027176759
-0.001162417
0.0025646947
0.00657603
0.008182107
0.008770554
0.009611372
0.008387448
0.0073711546
0.00583012
0.0057590846
0.0028885668
0.0024556788
8.180493E-4
-0.004766174
-0.0062751393
-0.008793587
-0.009362034
-0.010565222
-0.01012604
-0.010269228
-0.009377676
0.0010746948
0.0027741774
0.004728401
0.0068497364
0.0072334423
0.008811889
0.007093225
0.004547449
0.0036793018
-2.5069824E-4
-0.00225781
-0.0033372925
-0.004261516
-0.0053981105
-0.007169446
-0.008987893
-0.006266858
-0.0065081934
-0.0072218995
-0.0062008644
-1.7086425E-4
0.00552573
0.007509436
0.008707883
0.00913633
0.007890036
0.0017147778
0.004156631
0.0042808545
0.004235078
0.0020921899
-0.0019249219
-0.0033244044
-0.0050309985
-0.006442334
-0.008478411
-0.009899229
-0.008405305
-0.00583427
-0.0044184937
-2.8493652E-5
0.0033109887
0.007364695
0.007888401
0.0072321068
0.008558184
0.0075218896
0.006483225
0.004115078
0.0016198193
9.1218995E-4
3.6218995E-4
-0.0012925513
-0.0023896631
-0.0061186277
-0.008887075
-0.007933152
-0.007596858
-0.0061258227
-0.017942717
-0.037491247
0.0037306054
0.0106137935
0.0124740945
0.012694394
0.011049953
0.009670772
0.008666848
0.005023442
0.0033529247
2.429248E-4
-0.004321299
-0.0039331517
-0.004949746
-0.008325823
-0.00992664
-0.009235088
-0.008311165
-0.0068425
-0.004989094
-5.714648E-4
0.0044827587
0.007666465
0.009717283
0.010310471
0.009008919
0.008664995
0.007368701
0.0051752953
0.0015300366
-3.6996338E-4
-0.0014647046
-0.0038365575
-0.0050231516
-0.0068744873
-0.008420564
-0.009791382
-0.008057458
-0.004994053
-0.002883535
-6.6590577E-4
0.0035259472
0.007942024
0.011227583
0.00897603
0.010309218
0.008867666
0.008353743
0.008469819
0.0052664136
-2.835864E-4
-0.0012683276
-0.004552551
-0.008328628
-0.011674187
-0.012042116
-0.012290047
-0.010413235
-0.007969311
-0.0062582763
-4.8064697E-4
3.4935304E-4
-5.3301756E-4
0.0061059473
0.008632024
0.008850471
0.007996548
0.007220254
0.0045644776
0.00275396
-6.984107E-4
-0.0021855223
-0.0028950048
-0.0039768578
-0.0067081936
-0.0048924168
-0.0068837525
-0.0068950877
-0.004951682
-0.0015664233
0.0018183179
0.0043225414
0.006633877
0.007527583
0.008966031
0.008744477
0.007908183
0.00834426
0.0066355956
0.0034174488
-2.1255127E-4
-0.0011672925
-0.0036891454
-0.0040809987
-0.006632334
-0.00857841
-0.007692117
-0.009270564
-0.00748427
-0.0045784935
-8.0086425E-4
0.003318618
0.006107583
0.00892603
0.010399219
0.010040036
0.008226113
0.006887449
0.0037793017
0.0022264135
-5.75957E-4
-0.0011183276
-0.0025254395
-0.0053420337
-0.00805811
-0.007921817
-0.009190263
-0.009118711
-0.007492417
-0.0045566405
-0.0030561232
4.4624755E-4
0.004210471
0.0064818067
0.008860254
0.00752396
0.0071052955
0.0050718896
0.004948484
0.0046527074
0.0030421899
-0.0014025513
-0.004516775
-0.0049833693
-0.006824705
-0.00651604
-0.009926858
-0.011572417
-0.007776123
-0.004690347
-0.0022974585
6.649121E-4
0.0042791357
0.009469953
0.009158401
0.008354478
0.009272925
0.0065442603
0.0065255957
0.0040974487
4.1981935E-4
-0.0016049219
-0.0020920336
-0.0039938865
-0.0061028516
-0.01101841
-0.009969229
-0.008675305
-0.0050318995
-0.0044461233
-0.0011184936
0.0019986182
0.0054652123
0.0072489185
0.005927883
0.0056244778
0.008540554
0.008066631
0.005073225
0.002480337
-0.0018344043
-0.004718628
-0.005797593
-0.0058265575
-0.0058755223
-0.00940397
-0.010437158
-0.0127874585
-0.018074352
-0.043409478
-0.0048037013
0.0052728932
0.00829897
0.010522158
0.008850605
0.011738535
0.011846465
0.010899654
0.0088881
0.0061870655
0.004831289
0.002138401
-4.139697E-4
-0.004338193
-0.0072418996
-0.0088703465
-0.007966423
-0.007240129