0.0064681643
0.00782187
0.009882688
0.009331135
0.0075848415
0.0075085475
0.007934624
0.003956477
0.0012212183
-0.0011311524
-0.004785376
-0.00494197
-0.007725676
-0.008381753
-0.0094202
-0.0072839065
-0.005662871
-0.004857095
-0.0024042064
0.0021529053
0.0051894994
0.0074532055
0.006694541
0.01033773
0.009436177
0.007982253
0.0064635887
0.005210183
0.0014849243
-2.6507568E-4
-0.0014498169
-0.00368167
-0.0070630056
-0.0078067114
-0.0073604174
-0.006249382
-0.006450718
-0.003882571
0.0016521704
0.0031816529
0.007042988
0.009361436
0.010132253
0.0076259593
0.008222036
0.0071433717
0.003242854
0.0033723365
0.0024994481
-3.3055176E-4
-0.0041647754
-0.009313223
-0.029715676
-0.03956895
-0.008687395
-0.0044816188
-0.0016263599
9.4601075E-4
0.0031054933
0.0051820874
0.0077057933
0.008904241
0.009945058
0.008733506
0.006624841
0.0051914356
0.0037732886
0.0015980297
-3.419702E-4
-0.002539082
-0.003460935
-0.0034627882
-0.0068441234
-0.009934941
-0.01026813
-0.009548948
-0.0084450245
-0.0059539895
-8.763599E-4
4.2601075E-4
0.0040378636
0.0046520876
0.006071052
0.0074547585
0.0055413526
0.006822688
0.0048269117
0.0011316529
-6.2071776E-4
-0.0029702003
-0.0050667943
-0.006405759
-0.009244206
-0.010487395
-0.009638213
-0.007291919
-0.0067432546
-0.005029849
-0.004154072
-3.4072265E-5
0.0037577807
0.0033872633
0.004271487
0.005398081
0.0036399341
-0.0010924365
-4.7480714E-4
-6.7717774E-4
-0.0012019189
-0.0031014013
-0.0033808837
-0.0064822193
-0.007235925
-0.0076696314
-0.008375708
-0.010588896
-0.009539714
-0.008575791
-0.003857644
-7.3001464E-4
0.0033894677
0.006530803
0.008046879
0.007530586
0.006471921
0.0039337743
0.0036756275
0.0020827393
4.8510986E-4
-0.0016296314
-0.0013343726
-0.004828596
-0.0069099315
-0.0068212673
-0.0069926027
-0.0074263085
-0.007087644
-0.0030571264
1.3287354E-4
0.0022399854
0.0056465794
0.007167915
0.0067592505
0.0055758446
0.005442439
0.004004292
0.0031837744
0.0027532568
-0.0010691137
-0.0038509667
-0.0035428198
-0.0059017846
-0.009752602
-0.017357126
-0.040895138
-0.008863586
-0.0015483276
-0.0035301808
0.002446931
0.008423008
0.008579085
0.010652273
0.011207832
0.011193391
0.008309468
0.008907915
0.007601621
0.0043458445
0.0013905859
8.4295654E-4
-5.3941406E-4
-0.002596526
-0.0041507496
-0.006862085
-0.0071034203
-0.006132385
-0.004246609
-0.0028660912
-2.0609131E-4
0.0024810205
0.0067223557
0.008148433
0.00894688
0.008895327
0.007919033
0.0074927392
0.0059917043
0.0033811866
0.0023282983
-7.640723E-4
-0.002191184
-0.0031106665
-0.0052772607
-0.005926226
-0.00537282
-0.005219414
-0.004673638
-0.0032131202
0.0013016211
0.0028911035
0.0057500685
0.0065114037
0.00767511
0.009433557
0.008329634
0.005566228
0.005472822
0.006051787
0.0042660106
9.0838136E-4
-0.0038334716
-0.0058624367
-0.005439031
-0.005255625
-0.005282219
-0.006091184
-0.0047154077
-0.0048496313
-0.0040414846
-0.0023885963
5.0377444E-4
0.0054703685
0.0059293336
0.0056559276
0.0062748925
0.0057338574
0.0058728224
0.004707046
0.003798899
4.0126953E-4
-0.002838213
-0.0051248074
-0.008320884
-0.009099331
-0.008205407
-0.0062743723
-0.0049609668
-0.0039828196
-0.0021199316
9.3243894E-4
0.0042566624
0.008462739
0.0074964454
0.007167781
0.006729116
0.0054057105
0.0025728222
0.0028923047
7.046753E-4
-0.003374807
-0.00413666
-0.0055132546
-0.010326443
-0.010209631
-0.0095004495
-0.009388897
-0.008304973
-0.0069363085
-0.0031757911
0.0027236915
0.004677915
6.4028567E-4
0.0025673974
0.0081634745
0.00729718
0.0051537743
0.0033232567
0.00393511
0.0022222216
6.745923E-4
-0.0028148901
-0.0039367434
-0.0052033374
-0.007034673
-0.00865075
-0.009259197
-0.006890532
-0.004534756
-0.0021218676
0.0019552442
0.004369468
0.008045545
0.009143991
0.01036718
0.010220368
0.007854075
0.0058730394
0.0038548927
0.0022320044
4.14375E-4
-0.0016603662
-0.0038222193
-0.005791184
-0.00787489
-0.0086609665
-0.0076846727
-0.006826008
-0.0038278613
-0.0016226026
-7.7497313E-4
0.0028945094
0.006253474
0.0070648096
0.0061537744
0.00675511
0.0065664453
0.0050930395
0.0013977807
-7.2458986E-4
-0.0031040723
-0.0035059252
-0.004170149
-0.0038820019
-0.0053085964
-0.006459932
-0.006731267
-0.004325491
-0.0030749731
-1.0497314E-4
0.0017597681
0.004121621
0.0043458445
0.0062148096
0.007688516
0.007182222
0.0031017042
0.002068816
6.7118654E-4
4.6355714E-4
-0.0022135547
-0.0021106666
-0.00449489
-0.006193855
-0.008299932
-0.009298379
-0.007722085
-0.008228161
-0.0056771263
-0.0021242383
0.0010881323
0.004482356
0.0067836912
0.008339768
0.009148215
0.0075419215
0.0050885156
0.00511511
5.9748045E-4
1.7480468E-5
-0.0015272608
-0.004099114
-0.0059380787
-0.0084941555
-0.009594973
-0.00821105
-0.005267644
-0.0053642383
-0.012462168
-0.035613585
-0.00450781
0.007795896
0.013348567
0.012456496
0.010659685
0.010020503
0.007754209
0.007577915
0.004914509
0.0021016211
3.216211E-4
-4.407495E-4
-0.0036026025
-0.0061015673
-0.008710015
-0.008686092
-0.006165056
-0.0028845386
6.17832E-4
0.0031073145
0.0074410206
0.010894209
0.012834509
0.011150069
0.009850887
0.008839333
0.0080754105
0.0052920044
0.004276228
9.785986E-4
-0.0016361426
-0.0045703663
-0.005839331
-0.0070906663
-0.008446743
-0.00916519
-0.0075188964
-0.00450312
-0.0012278613
0.0018668799
0.0043311035
0.0057500685
0.008516145
0.0067974804
0.0067788158
0.007822522
0.006251487
0.0028609692
3.4096924E-4
-0.0010714014
-0.004285625
-0.005172219
-0.0075159254
-0.008694372
-0.009845191
-0.008291267
-0.0070226025
-0.0063415673
-0.006422903
-5.752734E-4
0.0038265795
0.0063355444
0.008883991
0.01033718
0.008815628
0.0055122217
0.004516445
0.0038782984
0.0016930396
0.0011977807
-0.0017269604
-0.004341184
-0.006400149
-0.006681484
-0.0064204494
-0.0076741553
-0.0060431203
-0.0044173435
-0.0010497144
0.0015750269
0.00396688
0.007670586
0.009681404
0.009169851
0.008585928
0.007952005
0.006120969
0.005849934
0.0041117873
6.241577E-4
-0.0019629542
-0.0023800659
-0.0042442894
-0.007867996
-0.0081140725
-0.00994489
-0.015112302
-0.0073360084
-0.0038678613
6.7450927E-4
0.004146362
0.006055327
0.009536145
0.010519333
0.00932778
0.0061867456
0.0013214868
-7.208838E-4
-0.0026079956
-0.0047822194
-0.0027317016
-0.005238296
-0.005667261
-0.0078109666
-0.0113465255
-0.012586826
-0.010250014
-0.007673721
-0.005150315
-0.0010726856
0.0011720556
0.0036839086
0.0071652443
0.0076289503
0.007332656
0.006763992
0.005110586
0.003682439
0.003504292
0.0013390332
-1.0966797E-5
-0.0024780787
-0.0060170433
-0.006508379
-0.0067897146
-0.008215791
-0.0068571265
-0.00424135
-0.0017160913
-0.0014808325
0.0014939087
0.0044181324
0.0069594677
0.008827915
0.008343992
0.006775327
0.0042695506
0.0038014038
0.0026908861
0.001897998
-0.0018767432
-0.0030762255
-0.004870449
-0.008156526
-0.009677344
-0.009015791
-0.007899497
-0.006108462
-0.0038603148
-0.0015950562
-0.002492168
0.0054644262
0.0089828735
0.008821321
0.006732656
0.0063416213
0.007012957
0.0056295507
0.0021466627
-7.35708E-4
-0.0025028198
-0.003984673
-0.005713638
-0.006534973
-0.00883342
-0.010246609
-0.008885056
-0.005854021
-0.0053006154
-0.002147727
0.0024793847
0.0062183496
0.0066096853
0.0068010204
0.0060499855
0.006901321
0.0064626564
0.0028221386
0.0020292504
8.016211E-4
-0.0019954906
-0.005292085
-0.0068534203
-0.009834238
-0.009805056
-0.010268245
-0.008594321
-0.007940398
-0.0051269922
-0.0037788453
0.001145896
0.0047001196
0.0077438257
0.0065451614
0.005734126
0.006033091
0.005992056
0.0061210203
0.0049176146
0.001772356
-9.800147E-4
-0.0061289794
-0.006950315
-0.007844021
-0.009222468
-0.009010916
-0.009209363
-0.00804544
-0.0040772925
-4.496631E-4
0.00357219
0.0045364136
0.005543008
0.008609084
0.008947532
0.0074612377
0.0061402027
0.005156797
0.001221538
-0.0013632032
-1.5320313E-4
-8.1557373E-4
-0.0025726855
-0.0051392796
-0.008335357
-0.008883804
-0.0067151394
-0.004449363
-0.0020664746
1.1352539E-4
0.001035896
0.0044701197
0.006651455
0.0068327906
0.006994126
0.008150202
0.0071939086
0.0041157617
0.001870503
8.5287355E-4
-0.0023842382
-0.0030837208
-0.0048579443
-0.0054945387
-0.007055874
-0.00738958
-0.0068109157
-0.0035427685
-0.0010851391
2.5486085E-4
0.0043090843
0.00656042
0.007444126
0.008802573
0.010345762
0.010156579
0.006617915
0.004772139
0.004266362
0.0031858447
-3.1415527E-4
-0.004158379
-0.0044426024
-0.004756826
-0.0073405323
-0.0074542384
-0.007085574
-0.005422168
-0.0042163916
-0.003115874
0.0012188671
0.0034407203
0.0044949437
0.005953909
0.005160503
0.0048447265
0.00437895
0.0031984325
4.908032E-4
1.2080322E-4
-9.9196775E-5
-0.0031286792
-0.0030981617
-0.005664756
-0.009635574
-0.009796391
-0.00998721
-0.0073809153
-0.004225139
-0.0013098804
4.7249024E-4
0.0051790844
0.00696042
0.008366496
0.006497832
0.0047320556
0.00500865
0.0038105028
0.0021476147
9.0998533E-4
-0.0019571264
-0.0014518676
-0.0019089795
-0.005315574
-0.0068469094
-0.010570098
-0.010663286
-0.0070846216
-0.0039764745
-4.488452E-4
5.3352537E-4
0.0039753783
0.005794343
0.00811042
0.007394126
0.007867832
0.005936797
0.0037686499
0.0028381324
0.0016728735
-6.5949705E-4
-0.0011742383
-0.0034260913
-0.0062050563
-0.008501133
-0.0073448387
-0.006233804
-0.005360398
-0.003902251
-0.002619363
0.0010930079
0.0033924903
0.0056090844
0.0054856786
0.0059646433
0.007085979
0.0076496853
0.00598865
0.0026681323
-9.3423825E-4
-0.0018489795
-0.0029584619
-0.0027379442
-0.0033074268
-0.005314021
-0.006392986
-0.010113804
-0.008742251
-0.0046964744
-0.0022035865
0.0021935254
0.0051901196
0.0058090845
0.00714042
0.008356497
0.0073902025
0.0063991677
0.0055857617
0.005482356
0.0029518383
0.0010042089
-0.003437644
-0.0043118675
-0.005398462
-0.007932168
-0.007515874
-0.00798195
-0.005018545
-0.0026680273
6.1972656E-5
0.002921455
0.008047531
0.009155979
0.008864426
0.010677615
0.008653691
0.0063826563
0.00458688
7.4925047E-4
-8.131201E-4
-0.0016878613
-7.7023194E-4
-0.0027697145
-0.0059186793
-0.008094756
-0.007928462
-0.0070797973
-0.0058287624
-0.0058277273
-0.0019548389
0.002052273
0.0033617553
0.004435979
0.008282056
0.008388133
0.0074118385
0.0051584328
0.0036302856
0.0024673974
4.0976808E-4
-0.0021373439
-0.0028068263
-0.002063938
-0.0027834205
-0.0053600147
-0.005366609
-0.0068879444
-0.008064021
-0.006362986
-0.0027824682
-0.0016172095
0.0025899024
0.0073936083
0.010134426
0.011289985
0.011465545
0.010378733
0.0049129566
0.0038348096
9.471802E-4
-0.0016775611
-0.0053141555
-0.008812603
-0.012280532
-0.014145574
-0.013348245
-0.012818545
-0.010931733
-0.006443069
-0.0043072924
4.2507812E-4
0.0026545606
0.0057035256
0.0066848607
0.007950937
0.0076246434
0.0076683494
0.0062973145
0.0076610204
0.0052776146
0.0021247265
9.670972E-4
0.0013018384
-4.6053223E-4
-0.0037523853
-0.007866091
-0.0115216505
-0.0137243215
-0.013716992
-0.010330181
-0.0068615163
-0.0025886279
0.0012461133
0.002503225
0.003985078
0.0031545605
0.0038964136
0.0010887842
-1.4121582E-4
-8.835864E-4
-3.2358643E-4
-8.5595704E-4
4.8641357E-4
3.0641357E-4
-0.0021706983
-0.006329663
-0.0068109985
-0.0055275927
-6.6996337E-4
0.00426426
0.007950337
0.013363007
0.017067531
0.018716797
0.018423691
0.018602956
0.019714592
0.020668598
0.018485494
0.013658164
0.0044123875
1.6238769E-4
-0.0035594653
-0.03372614
-0.029458595
-0.009999414
-0.017796308
-0.020812685
-0.020789063
-0.013701733
-0.0019188452
0.0065424903
0.015179902
0.02087628
0.026779251
0.030024074
0.025804676
0.01902394
0.0077476464
0.0011823877
0.0019494995
0.0072032055
0.016595358
0.016827513
0.012095442
0.0036172948
-0.0065840404
-0.017748564
-0.024776794
-0.027804507
-0.025705107
-0.017219631
-0.0011943725
0.011963557
0.020727564
0.022878682
0.014183723
0.005662688
3.850586E-4
-0.0029044237
-0.0052410183
-0.004012871
-0.0027423536
-0.0015970947
-0.001421836
0.004060017
0.0065113525
0.00972217
0.010555359
0.013045659
0.01319596
0.01300626
0.016538413
0.009459231
-0.0065721045
-0.01949374
-0.016265893
-0.008764341
-0.009875159
-0.0068764943
-0.003628347
-3.9071776E-4
0.006650618
0.018197512
0.023231002
0.026193973
0.029476427
0.021735173
0.012023103
0.014068144
0.01912741
0.01271771
2.0770996E-4
-0.014577332
-0.021523708
-0.0058726734
0.0019144384
0.0075781443
0.01896741
0.02557801
0.02493624
0.018103134
0.0036149877
-0.019144278
-0.037492808
-0.03895608
-0.024181938
-0.0014966797
0.016525473
0.027250815
0.03318512
0.029487576
0.027152918
0.031342484
0.03693864
0.04628325
0.08119927
0.10988301
0.11037912
0.06980722
0.0037190698
-0.047760278
-0.08221868
-0.10342345
-0.12825646
-0.13885264
-0.1265109
-0.1082899
-0.08454541
-0.057023205
-0.029888026
-0.01526544
-0.002654922
0.006234043
0.00935249
0.007606196
-0.012031733
-0.03422841
-0.03750694
-0.015486724
0.016193058
0.058917966
0.071513176
0.0685889
0.06741988
0.014787295
-0.01762723
-0.022115977
-0.007509683
0.021146694
0.042791817
0.044009313
0.013341985
-0.01966965
-0.0061186156
0.012179314
0.010942503
0.019111767
0.033948444
0.05552387
0.0759433
0.03515472
-0.027942993
-0.065196864
-0.0713497
-0.04611431
0.03720185
0.13741331
0.18388936
0.1814283
0.18802859
0.17245908
0.107698075
0.0070394143
-0.049867045
-0.014612087
0.03260985
0.067843206
0.03777173
-0.06700925
-0.14659914
-0.19327602
-0.24376173
-0.22621053
-0.15464652
-0.091865726
-0.026748698
0.03656509
0.08695771
0.11205856
0.084924065
0.03889497
-0.016737185
-0.03277912
-0.03870002
0.003561831
0.03849273
0.03493178
0.03892505
0.057525218
0.030510042
-0.07660939
-0.15203588
-0.13405548
-0.11968003
-0.103174806
-0.050473638
0.018915627
0.061690018
0.075847074
0.08425259
0.08011387
0.09203308
0.14845009
0.15729319
0.104610324
0.074565016
0.039108284
-0.013424387
-0.07981567
-0.12829867
-0.13704775
-0.17460537
-0.16463216
-0.12785278
-0.08901252
-0.0672435
-0.04191626
0.006785078
0.05134628
0.048228
-0.011417561
-0.06294432
-0.08040561
-0.10359038
-0.08442589
-0.008041963
0.06870376
0.08733875
0.090383224
0.11948778
0.104637295
0.06959539
0.017359914
-0.10587197
-0.17860143
-0.16337349
-0.12657174
-0.09234096
-0.040578973
-0.012719273
-0.019610908
-0.028288621
-0.024736851
-0.014401892
0.010421297
0.011446855
-0.010998704
-0.022619821
-0.027867533
-0.024353394
-0.0202474
-0.018224295
-0.01725882
-0.020945195
-0.023478685
-0.0155784665
-0.006919802
-0.004304026
-0.0022611376
3.688623E-4
0.0032383448
0.0059673097
0.0077010156
0.0061199805
0.0032294628
3.946289E-5
-5.0290773E-4
-7.452783E-4
-0.0029447607
-0.0035266138
-0.0021037257
-0.0037455787
-0.004922173
-0.003444026
-0.0030235082
-0.0067848437
-0.008590921
-0.007062256
-0.00492885
-9.612207E-4
2.787793E-4
-1.812207E-4
0.0011311499
0.0017658911
0.003447744
0.006216709
0.007710415
0.00638938
0.0052459743
0.0050425683
0.004004421
0.0027339037
-9.609619E-5
-0.0033055786
-0.008804026
-0.010927214
-0.00684855
-0.0026680322
0.0020990795
0.0074527855
0.013285456
0.020821834
0.023275321
0.02241644
0.020080447
0.01774734
0.014472383
0.009923201
0.005059795
0.0015045361
5.069067E-4
-2.3093262E-5
-0.0018478344
-0.004342058
-0.0069233933
-0.0073070996
-0.0047113234
-0.0027708057
-1.0805664E-5
0.0065605296
0.0074142357
0.011179795
0.0155095775
0.01643173
0.016041514
0.0138941845
0.014229226
0.012519526
0.010242715
0.011118274
0.0090167215
0.006968057
0.0037299097
0.0015446509
-0.0015400903
-0.0013248315
-0.0015195728
-0.001474314
-0.022003062
-0.025823662
0.009857155
0.01712168
0.019383315
0.020107321
0.019758958
0.018505853
0.017140375
0.013120676
0.012218606
0.010119424
0.00747313
0.0064544654
0.0061534303
0.0033129125
0.0016876538
6.000244E-4
-8.623462E-4
0.001662395
0.0047566188
0.007047954
0.010801143
0.015468555
0.015858337
0.013411009
0.011758938
0.011836868
0.011202427
0.010865616
0.007146951
0.0045311744
0.004335398
0.0021625098
0.0023596217
-3.603784E-4
-0.0035422314
-0.003371714
-0.0019988257
-5.311963E-4
0.0023159154
0.004460139
0.0072638453
0.0091222925
0.011677852
0.014292893
0.013245564
0.012925864
0.0107190525
0.0092275
0.007421206
0.0053678
0.0029072827
0.0025043946
0.0010367652
-0.0031427173
-0.0054593114
-0.0063382764
-0.0017330176
-5.301758E-5
5.19353E-4
0.0027688355
0.00505543
0.008361506
0.010904695
0.0098555125
0.010708701
0.009529519
0.008887966
0.006326931
0.0029264137
7.387842E-4
-0.001415957
-0.00415781
-0.007611516
-0.009932334
-0.010205522
-0.009946341
-0.0113919
-0.010225088
-0.007538794
-0.0046130177
-5.8538816E-4
0.0025517237
0.006733059
0.0067943945
0.004678618
0.0031281007
0.002647583
0.0018846948
5.270654E-4
-0.0013476758
-0.0036695288
-0.0046037524
-0.0057827174
-0.0070440527
-0.007467759
-0.008756206
-0.009807024
-0.00730073
-0.0022778418
-3.078418E-4
0.00202927
0.0057482347
0.0059271995
0.0077509056
0.009481723
0.0079578
0.0018225415
0.0060115065
0.00484573
0.0025028419
0.001797583
-8.647876E-4
-0.0012795288
-0.0022966405
-0.004800864
-0.0073745702
-0.004458794
-0.005025388
-0.0034372413
2.527588E-4
0.0041969824
0.00877543
0.010328618
0.009739436
0.010342625
0.008068701
0.008314778
0.0060837427
0.004950337
5.827075E-4
-0.0016520337
-0.0026091456
-0.0034509986
-0.006462334
-0.008548411
-0.0074221166
-0.008458193
-0.00837427
-0.006193235
-0.0026403468
7.320239E-4
0.0048662475
0.007929954
0.00857603
0.008232107
0.0081381835
0.006609519
0.004111372
0.002488484
1.7848388E-4
-9.438867E-4
-0.0024009985
-0.003180481
-0.004804705
-0.0074484106
-0.0075321165
-0.008930564
-0.00787427
-0.005683235
-0.0013279761
2.9202393E-4
0.0024691357
0.0047533596
0.006422324
0.008900772
0.01026396
0.008280037
0.005416631
0.0029061134
6.284839E-4
-3.115161E-4
-0.0013862574
-0.0014509986
-0.0040628514
-0.005009446
-0.007253152
-0.007436858
-0.007180564
-0.0055271583
-3.471582E-4
0.0029923243
0.0030118066
0.0070331423
0.01017396
0.008160037
0.007263743
0.008019819
0.0077535254
0.0066948608
0.004036714
0.0026661963
-1.9380372E-4
-0.0024709154
-0.00639988
-0.0070112157
-0.006462551
-0.007546257
-0.0050528515
-0.003172334
-0.0041665575
-6.089282E-4
0.0047552953
0.0056118895
-0.008564187
-0.02850427
0.0021628418
-0.023560647
-0.009891465
-0.01784836
0.0093500875
0.010180905
0.0066322414
0.0038840943
-1.5590576E-4
-0.002775388
-0.0035872413
-0.0049238354
-0.0019609472
3.9052735E-5
6.2142336E-4
0.0024385352
0.0050951294
0.008321206
0.011829136
0.011004695
0.008823142
0.0076368484
0.0065481835
0.007079519
0.0042437427
0.0022608545
8.732251E-4
-0.0015115162
-0.002318628
-0.005867593
-0.0064065577
-0.006947893
-0.0071292287
-0.0046934523
-0.0028929345
2.4706544E-4
0.0014818066
0.006713142
0.008439219
0.007975295
0.009023743
0.008039819
0.0031993017
0.0029087842
0.002455896
0.0017106372
-0.001644104
-7.764746E-4
-0.002895957
-0.0066372924
-0.008103369
-0.0074070753
-0.0051336694
-0.0024607813
-0.0051373756
-6.797461E-4
0.0048444774
0.006695813
0.00903426
0.008510337
0.007674043
0.006955378
0.0055319727
0.003251455
0.0017061963
7.185669E-4
-0.002218545
-0.0047027688
-0.0059217336
-0.006503069
-0.008519146
-0.010009963
-0.010903152
-0.0065944875
-0.0026539697
1.5603028E-4
0.0026955127
0.0047097364
0.0050563305
0.004810554
0.006279519
0.006008484
0.0046927077
0.0037145605
0.003034043
0.0014087842
-0.0020883277
-0.00298781
-0.004049663
-0.007223369
-0.008039446
-0.010482634
-0.0072563402
-0.0037581935
-0.0020553053
-6.376758E-4
-4.700464E-4
0.0021470655
0.0061360304
0.0070773656
0.00534396
0.0010563305
0.0051229247
0.0045671486
-0.0024999634
-0.0037618163
-0.00423604
-0.0050226343
-0.0052892286
-0.006700564
-0.008689011
-0.007582717
-0.0061016823
-0.0046059056
-0.0027553882
1.3461182E-4
0.0037664648
0.00602543
0.0066867652
0.007840471
0.0067118066
0.0062407716
0.006422107
0.0033515894
0.0011763306
6.687012E-4
-0.0011336694
-0.002983152
-0.0046173753
-0.0060463403
-0.013509011
-0.04610362
-0.015583401
-0.0042376244
-8.799951E-4
0.0042142286
0.0077279345
0.010531123
0.0120590525
0.011504612
0.012974912
0.011500471
0.010081289
0.0068226247
0.0045668483
0.0012015894
-0.0017831519
-0.001727893
-0.0046721166
-0.007003452
-0.008019528
-0.0073132347
-0.007826941
-0.004943535
-0.0031030176
7.5935305E-4
0.0045135766
0.0057525416
0.008568618
0.008624695
0.009063142
0.010366331
0.008272408
0.0034142602
0.002441372
0.0014661133
-7.462573E-4
-0.0017109986
-0.0047552222
-0.0066165575
-0.008422635
-0.009753453
-0.007467158
-0.0049113818
-0.0047056056
6.6676515E-4
0.002343877
0.0046181004
0.006959436
0.006278401
0.0066097365
0.0061287014
0.005165295
0.003304778
-0.0026847045
0.0014300366
7.5240724E-4
-0.001252334
-0.0019894459
-0.00507604
-0.006225005
-0.007838711
-0.0066300463
-0.0059290114
-0.0044932347
-3.1323486E-4
5.6913577E-4
0.00529573
0.0064470656
0.0065684007
0.0070897364
0.008778184
0.0058471486
0.0043413723
0.0010137426
3.4374266E-4
-0.0016109985
-0.004165222
-0.0038170752
-0.0047012987
-0.007032634
-0.008458711
-0.006047676
-0.00537427
-0.0027037524
5.1861815E-4
0.0031081005
0.0046223244
0.0070436597
0.009192107
0.009020554
0.0075742602
0.0054308544
0.0053074486
0.0034093019
2.9930176E-4
-0.0014354395
-0.0037072925
-0.0039891456
-0.008847592
-0.010620781
-0.009419229
-0.011024788
-0.008190865
-0.002597976
-7.976074E-6
0.0020191357
0.00541573
0.008171807
0.0092002535
0.00851633
0.0063352953
0.00597426
0.004188484
0.0015232251
-5.891455E-4
-0.0018838868
-0.001698628
-0.003600481
-0.005297075
-0.008513152
-0.009041599
-0.0056381933
-0.0053547877
-0.00338427
6.881006E-4
0.0035999536
0.00796603
0.01155159
0.010274778
0.009123225
0.007656931
0.005283525
0.006784861
0.0039467136
0.0031061962
0.0018809375
-0.0013138037
-0.0022409155
-0.004775139
-0.006646475
-0.00649781
-0.0057267747
-0.0038086278
-0.0024157397
-3.7811036E-4
0.003301372
0.0050679664
0.006899302
0.0065206373
0.008216714
0.0066080494
0.0037599024
0.0024070141
3.4701417E-4
3.6701417E-4
-0.0021200976
-0.0038319507
-0.0058509153
-0.006912251
-0.009553069
-0.009523886
-0.007969963
-0.0060289283
-0.0044231517
-0.001487893
-6.1026367E-4
0.00432396
0.007437666
0.007841372
0.008027448
0.0042916723
-0.0019954394
-0.0025925513
-0.0344016
-0.0133842705
0.0024228417
0.0027723243
0.0015670655
-0.0057418994
-0.005800864
-0.0054774587
-0.0049640527
-0.005220647
-0.0022977588
-6.201294E-4
0.0045140944
0.007990171
0.008708619
0.011504177
0.0099549955
0.009915813
0.007529519
0.0056061135
0.004850337
0.0016850781
7.3744875E-4
-0.0025496632
-0.003681516
-0.00498811
-0.007089446
-0.008425523
-0.0061744875
-0.0055610817
-0.0054776757
-0.0022647877
4.3758302E-4
0.0040594363
0.0064807716
0.006752107
0.0053787013
0.0047629247
0.005609519
0.002346631
0.0014113721
-4.4099853E-4
-0.0011857398
-0.0036975928
-0.0062665576
-0.006887893
-0.007341599
-0.008740046
-0.0075537525
-0.008279829
-0.0031093115
-0.0010616821
0.0015030591
0.004277283
0.005373877
0.005852842
0.005489436
0.002026548
0.0032760303
0.0050026244
0.0025397362
0.0032392188
0.00154396
-9.1841066E-4
-0.003167893
-0.0063568577
-0.0058158226
-0.0077495286
-0.009640346
-0.0072140526
-0.005170647
-0.0023877588
2.224121E-5
0.0028717236
0.00744543
0.008511506
0.008217583
0.007701289
0.0055478835
0.004222107
0.0058810716
0.0024781835
-4.94187E-4
-0.0026012987
-0.0043755225
-0.0050421166
-0.007185823
-0.008191899
-0.0073556053
-0.0072593116
-0.004793535
-6.359058E-4
0.0022712061
0.0041754297
0.007136765
0.009245212
0.008111289
0.0052978834
0.0062868483
0.006315813
0.0033852954
6.0766604E-4
-0.0017970752
-0.0052436693
-0.0066350047
-0.0071063405
-0.0073400466
-0.0076237526
-0.006575088
-0.005031682
-0.0034735352
-0.0011482764
7.7409425E-4
0.006053059
0.008089135
0.008585213
0.0063441773
0.0069355126
0.0063544777
0.0050410717
0.0027105543
4.429248E-4
-0.0017818164
-0.0034536694
-0.005120264
-0.0034421168
-0.0045163403
-0.0075500463
-0.008436123
-0.0066274586
-0.006708794
-0.0031782764
0.0016064649
0.003948318
0.0062072827
0.0068986183
0.007572324
0.009843142
0.007296848
0.0050334423
0.0039052954
0.0044395193
0.0014442602
-0.001870481
-0.005057075
-0.0077507813
-0.009691599
-0.008107676
-0.007381382
-0.0064003468
-0.004946941
-0.0020840527
0.0013506885
0.0061996533
0.0056462474
0.0022433593
0.006994695
0.0060536596
0.0059026247
0.0047468483
0.0016715893
-6.841064E-5
-3.2841065E-4
-0.0022255224
-0.0039173756
-0.006428711
-0.008767158
-0.0075508645
-0.0069621997
-0.0060711647
-0.0047253883
-0.0017701294
0.0017346118
0.0048788353
0.0090572825
0.00941573
0.0098965475
0.0088549955
0.008651072
0.008437148
0.004993743
0.003313225
0.002330337
-5.9663085E-5
-0.0053262576
-0.0083323335
-0.012912634
-0.038363535
-0.03279547
8.468994E-4
0.0011716406
0.002761123
0.006310088
0.009920905
0.011256465
0.011804394
0.012182324
0.010865512
0.0110110715
0.0082171485
0.005816113
0.0034079663
4.103369E-4
-0.0014944043
-0.0029838867
-0.0056628515
-0.006494187
-0.0070755226
-0.008221599
-0.008137676
-0.0062266407
-0.002976123
1.5387696E-4
0.00357573
0.0068770656
0.006778401
0.0070197363
0.007913442
0.0067247776
0.0048890016
0.002928484
0.0022655956
-6.467749E-4
-0.0028162573
-0.0037581103
-0.004882334
-0.005318928
-0.007572634
-0.009933452
-0.008119529
-0.0058584935
-0.0041203466
-9.327173E-4
0.0038491357
0.0071728416
0.007938919
0.0075226245
0.0062315892
0.0055881836
0.0034900366
0.0017147778
-0.003967075
3.2924803E-5
6.252954E-4
-0.0021318165
-0.005088411
-0.009589229
-0.007945305
-0.0071466407
-0.0076103467
-0.005446941
-0.0029164234
2.1357666E-4
0.0031530592
0.0066843946
0.008792842
0.008218918
0.008044995
0.008011072
0.007734778
0.0036266309
6.7900144E-4
6.613721E-4
-2.8862793E-4
-0.0038004809
-0.006501816
-0.0071131517
-0.007566858
-0.008132935
-0.00649427
-0.004086123
-0.003417976
1.2023926E-5
0.0054886183
0.009097066
0.010220254
0.009591072
0.009409519
0.007995596
0.007199302
0.0036011548
0.0022682666
1.882666E-4
-0.0013664747
-0.0031159571
-0.0056125512
-0.007938628
-0.009417075
-0.008143152
-0.0062521165
-0.005588711
-0.003760564
7.018066E-4
0.0034836596
0.0058626244
0.0075163306
0.0075000366
0.0076137427
0.008569819
0.0074735256
0.0036853785
0.0034472314
0.0018019726
-0.0021051392
-0.002422251
-0.004626475
-0.0072101806
-0.010753369
-0.009814187
-0.010657376
-0.0057963403