-0.0013352929
-0.0011600342
-0.001907146
-0.0050337403
-0.0067750756
-0.00535167
-0.005018264
-0.0034401172
-0.0029295997
-0.0018643409
-5.067114E-4
0.002982771
0.0056293653
0.0055359593
0.005172554
0.0047267773
0.0038886303
0.0036104834
0.004614707
0.0033741894
0.0019813012
-0.0029681812
-0.0037500341
-0.005938999
-0.007935076
-0.007898781
-0.0066101174
-0.008818564
-0.0071298997
-0.005196494
-0.004058347
6.1652834E-5
0.0042958762
0.0014806177
1.8061767E-4
-0.02191813
-0.009728948
0.0065523875
0.0010247583
-0.001339983
1.9001709E-4
-4.723535E-4
-0.0017370947
-0.0028765772
-0.0035884301
-0.005707395
-0.003999248
-0.004061101
-0.0044353246
-9.976953E-4
2.723047E-4
0.0020394165
0.00428364
0.0048378636
0.0070191994
0.0054557933
0.0045300173
0.006028982
0.0045832056
0.0043074293
9.197998E-4
-0.0012749414
-0.0027544238
-0.0048786476
-0.004812871
-0.0071742064
-0.006825542
-0.0048797657
-0.004553989
-0.002571101
-3.0110107E-4
0.0019460107
0.0042402344
0.004524458
0.005421052
0.005800017
0.0052166115
0.004160835
0.004072688
0.0019097998
9.0217043E-4
-0.0021449414
-0.0035767944
-0.0067681298
-0.009146577
-0.007410283
-0.0077839894
-0.0075776954
-0.0055242893
-0.003323772
-0.0017185132
0.0019185987
0.005205193
0.005661787
0.0035736402
0.002000752
0.003742605
0.0033820875
2.0874024E-6
-1.179126E-4
-0.0010002832
-0.0038921363
-0.0055887303
-0.0064300657
-0.007733772
-0.00944459
-0.009403037
-0.010043855
-0.007907561
-0.0050041554
-0.0034460083
-5.5837893E-4
1.5162109E-4
0.0029311036
0.004475327
0.0036071802
0.0029266626
0.0021537745
0.0013885156
0.0010808862
-4.911377E-5
-0.001563855
-0.0028533374
-0.006494673
-0.007198379
-0.008906826
-0.010117644
-0.00845372
-0.0074974266
-0.005414021
-0.0031635035
-3.635034E-4
0.003025979
0.0046402025
0.0037720557
0.0040939087
0.0030033912
0.0031028735
0.003392356
-0.0013523853
-0.0022694971
-6.2186766E-4
-0.0013066089
-0.0026860912
-0.0071274266
-0.010148245
-0.011343803
-0.012011734
-0.006893069
-0.0030125512
-7.1492186E-4
0.0029545606
0.004578784
0.00842486
0.007498567
0.0069199023
0.0070212376
0.0043654614
0.0041573145
0.0023344262
-9.557373E-5
-9.3794434E-4
-0.0013226855
-0.0041145384
-0.006565874
-0.009506692
-0.008022768
-0.006504104
-0.0065454394
-0.0049620336
-0.017346557
-0.022637676
0.0050389185
0.004363142
0.005649736
0.0064510717
0.0079771485
0.005936113
0.0040879664
0.0032574488
0.0013221899
-3.3781005E-4
-0.0026972925
-0.004861516
-0.006300481
-0.0064218165
-0.006330781
-0.006349746
-0.00478397
-0.004518193
-0.0014929345
0.003316548
0.0042807716
0.0050573656
0.00564396
0.006122925
0.0047471486
0.004821372
0.0036432252
0.0014679664
9.903369E-4
-0.0017444043
-0.0022315162
-0.0031009985
-0.0052775927
-0.005484187
-0.005663152
-0.0041773757
-0.0049339696
-0.0031934523
-0.001960564
8.918066E-4
0.0056584007
0.007632107
0.0066534425
0.006122407
0.006411372
0.004143225
0.0033027076
0.0032221898
0.0014969312
7.693115E-5
-0.0024401806
-0.002659663
-0.0047438866
-0.0064128516
-0.008368928
-0.006137893
-0.006196858
-0.006265823
-0.0031453052
7.469482E-5
0.0021318067
0.002821289
0.003923142
0.0023602538
0.0029397362
0.00436396
0.0022210719
1.8107178E-4
-0.0014036695
-0.0012984107
-0.004702634
-0.0065239696
-0.008230046
-0.013482717
-0.008851165
-0.009751982
-0.008820429
-0.0064193946
-0.0034012476
6.4112304E-4
0.0012458642
0.0023129762
0.004004829
0.0034266822
5.090527E-4
0.0016137939
4.9616455E-4
5.985352E-4
-5.538355E-4
-0.001096206
-0.003838059
-0.0069993944
-0.0075631007
-0.0078868065
-0.008372883
-0.00867896
-0.0058279247
-0.00648926
-0.0029387427
-5.511133E-4
5.712573E-4
4.936279E-4
3.7599853E-4
-0.019635636
-0.012605937
-0.0123238675
-0.018663133
0.0059558325
0.0057847975
0.005693762
0.0050203563
0.0032698389
8.622095E-4
-5.0016114E-4
-0.002217273
-7.1964355E-4
-0.002719126
-0.0016238672
-5.762378E-4
0.0020308741
0.003772727
0.0031822096
0.0054388037
0.004753027
0.0053596217
0.003129104
0.0022462157
1.0621582E-4
-0.0018585254
-0.0025856372
-0.0048198607
-0.0043940847
-0.0063330494
-0.008129126
-0.0068704616
-0.0084065385
-0.0070178737
-0.0052644676
-0.0010168384
0.0024002735
0.004224497
0.0051710913
0.004745315
0.005231909
0.005710874
0.004315098
0.0044493214
0.0036811742
0.0012359156
-8.964551E-4
-8.688257E-4
-0.0040506786
-0.005007273
-0.0064586084
-0.0075123142
-0.006421279
-0.0039131325
-0.0014178735
3.6212648E-4
3.8449708E-4
0.0025416089
0.0056705736
0.006541909
0.007375615
0.006716951
0.0059359157
0.004400139
0.0029796215
0.0018343627
6.3673337E-4
-1.3266602E-5
-0.0019603784
-0.004224602
-0.005683567
-0.006694902
-0.0056114965
-0.007525203
-0.0063541676
-0.005320762
-0.001445503
0.0031639794
0.004980574
0.005217168
0.003689021
0.0030885034
0.0041203564
0.0037422094
0.002681692
0.0017864332
5.788037E-4
-4.035669E-4
-0.0022806786
-0.0045649023
-0.0050614965
-0.007172832
-0.006281797
-0.006813132
-0.0069244676
-0.0033139503
-0.0016286914
0.0013360498
-1.239502E-4
0.0025531617
0.005199756
0.00553635
0.0053429445
0.004477168
8.2953856E-4
-1.4046143E-4
-6.6283206E-4
-0.003434685
-0.0033741675
-0.0051707616
-0.0062097264
-0.008898173
-0.008846621
-0.007500327
-0.008026403
-0.005462998
-0.0024301098
-0.0010424805
0.0025846313
0.0037764844
0.004490708
0.003832561
0.0011249316
0.0012996729
-8.032715E-5
-0.0028998095
-0.0050164037
-0.004128257
-0.0036901098
-0.007303816
-0.0068251514
-0.0077388575
-0.006580193
-0.007303899
-0.0063328636
-0.0025099756
-5.623462E-4
0.0038095068
0.005076101
0.006365066
0.005754031
0.0057229954
-0.0014817456
-0.025039976
0.0041018776
0.005518472
0.002927954
3.903247E-4
-3.496753E-4
-0.002116787
-0.0035386402
-0.0044428636
-0.0046070875
-0.00326657
-0.0040284228
-0.0028979052
0.0014468359
0.003548689
0.006287654
0.0066489894
0.006237954
0.004079807
0.00409166
0.002508772
4.711426E-4
-0.0016135987
-0.0034854517
-0.0030649342
-0.004126787
-0.00411864
-0.005847605
-0.00604657
-0.005423164
-0.002170276
-0.0022073877
-0.0010897584
3.502417E-4
0.004224465
0.0068458007
0.007669507
0.007633213
0.0070045483
0.007638254
0.0067895898
0.0037314428
0.0031509253
0.0026904077
0.0013051489
-6.172217E-4
-0.0025443335
-0.004338557
-0.006407522
-0.007953599
-0.005570193
-0.003972046
-0.0015767871
0.0021803246
0.0028398072
0.0045840307
0.0060729957
0.0059819603
0.009410407
0.007814114
0.0029035963
-0.0010287744
-0.0033982568
-0.0030677393
-0.004551963
-0.0064532985
-0.0068846336
-0.009043081
-0.009963899
-0.009784717
-0.007648423
-0.0058573876
-0.0036192408
-0.0015839819
0.003737871
0.005996836
0.0064281714
0.008294248
0.005973213
-0.002603899
-0.0024810107
6.413599E-4
-0.0015233813
-0.0022704932
-0.0017352344
-0.0031247167
-0.005241311
-0.007275017
-0.008983464
-0.0097042825
-0.006745618
-0.0035274706
-0.002736953
4.3046875E-5
0.0021801586
0.0056791236
0.00790283
0.009091277
0.006270242
0.0058592064
0.005155801
0.0036176539
0.0028971361
5.0950685E-4
-0.0038523462
-0.00458657
-0.005053164
-0.004367388
-0.004973982
-0.0031034644
-0.0049800584
-0.0052966527
-0.0038585057
-0.016198289
-0.019669924
0.009108523
0.009929341
0.009397788
0.009126236
0.008552312
0.007256018
0.006234983
0.0033944654
0.0035663184
0.001048689
0.0029981714
0.0033876537
-0.002269458
-0.007653164
-0.005479758
-0.00216687
-0.0027963526
-0.0017210938
-0.001885835
0.0022012768
0.0058702417
0.005106836
0.007962912
0.0059018773
0.0072255833
0.006806919
0.0048611425
0.002670625
0.0027001074
0.0013848486
-5.57522E-4
-0.0017222632
-0.002459375
-0.004081228
-0.005387822
-0.0029073048
-0.0024844166
-0.0015991577
-0.0020562694
4.373047E-5
0.003053213
0.004929807
0.0065011424
0.004505366
0.0011301074
-2.6989257E-4
-0.0024270045
-0.0014017456
-0.007073081
-0.008369158
-0.0044333814
-0.0054899757
-0.00536657
-0.005183164
-0.0068144994
-0.0063434644
-0.004807688
-0.003819541
-0.0015642822
0.001310459
0.0029399414
0.0066512767
0.008527353
0.006958689
0.007282395
0.0070337304
0.004417954
0.002245066
0.0013798071
-0.0014249341
-0.0031444165
-0.005381011
-0.007564717
-0.008883164
-0.008449241
-0.008015318
-0.005051912
-0.0048261355
-0.004390359
-0.0011551001
5.072705E-4
0.002986753
0.0030262354
0.004680459
0.005347053
0.004531277
0.0042855004
0.0017702417
0.0017749829
0.0017897241
6.820947E-4
-0.001955017
-0.0052216114
-0.0064829467
-0.006774282
-0.008330359
-0.008698806
-0.0066101416
-0.0046343654
-0.0012591064
0.0010632642
9.856347E-4
0.0033051171
0.0031245996
0.0038664527
0.004913047
0.0029625292
-2.774707E-4
0.0013672705
0.0012120117
2.2201172E-4
-6.303589E-4
-0.0019674706
-0.005434065
-0.0043982887
-0.0049948827
-0.005361477
-0.0071428125
0.0014719287
0.003161411
0.0046056346
0.0046398584
0.0052664527
0.003085935
0.0031954176
0.0036472706
0.0032567529
0.0013714941
-8.708765E-4
-0.0023179883
-0.0027674707
-0.0046516946
-0.022472812
-0.029255265
-0.003987119
-0.0030866016
-0.0013113428
0.0017133985
0.0026005101
0.0049671046
0.005726069
0.0071274047
0.0064787404
0.006137705
0.007953782
0.0038856347
0.0033951171
0.0049917116
0.0026711938
8.235645E-4
-8.888061E-4
-0.002125918
-0.0044401414
-0.005046736
-0.00548333
-0.005952295
-0.0028517772
-0.0015665186
0.0019805932
0.0049071875
0.0045114113
0.004325635
0.0058045997
0.0056011938
0.005317788
0.007911494
0.0075152004
0.007758906
0.005757871
0.0037997242
0.0024468359
-0.0017579052
-0.004192129
-0.0060210936
-0.0058100587
-0.005566653
-0.0020237647
8.1860594E-4
0.0067499415
0.014624983
0.023498472
0.030725667
0.034364715
0.03020954
0.021558287
0.014183328
0.008029404
0.0053659985
0.005212593
-0.002334519
-0.010035337
-0.0133980075
-0.01589779
-0.016719945
-0.014414986
-0.0148423975
-0.016244551
-0.012954851
-0.0079409275
-0.0037727808
7.6958985E-4
0.006328555
0.012478855
0.01815575
0.021102127
0.026675098
0.02812281
0.031170005
0.032791942
0.028239653
0.015027066
0.001119436
-0.011076123
-0.0211725
-0.026655471
-0.030120295
-0.033886973
-0.03256891
-0.028948992
-0.025889592
-0.02155834
-0.021687087
-0.02848717
-0.022998288
-0.019859925
-0.026885265
-0.038386166
-0.009124614
-0.00667595
-0.007087285
-0.0026467675
-0.00281625
-0.003708103
-0.003889956
-0.0013246973
3.5530273E-4
0.00923375
0.014328792
0.017433316
0.019844951
0.018524216
0.019915853
0.025306452
0.027964165
0.03180373
0.030168554
0.022749674
0.01980131
0.019972945
0.012743245
0.003222727
-0.00835335
-0.008891797
-0.0044960207
-0.0011907617
-0.015760545
-0.03213248
-0.004686704
0.0053998902
0.007753596
0.00421782
0.0028873023
0.006948638
0.0062976023
0.0063465675
0.0050631617
-0.0012915796
-0.009552398
-0.018159293
-0.014644333
-0.0036061865
0.014698855
0.03259079
0.04782014
0.053928453
0.054249134
0.046213742
0.024419602
-0.0014251391
-0.027550481
-0.03731664
-0.03803517
-0.03851607
-0.03263801
-0.023751497
-0.01753602
-0.009434468
-0.006495803
-0.006577139
-0.011022698
-0.018681962
-0.022060711
-0.018709976
-0.012880276
-0.0060092406
4.131299E-4
6.155005E-4
-0.002863982
0.0013907593
0.012378689
0.027304031
0.046298638
0.058893546
0.060773194
0.061315212
0.05659301
0.039516278
0.021655027
-0.0011397144
-0.016059497
-0.024325356
-0.037593886
-0.046108495
-0.0464031
-0.040871114
-0.03317542
-0.023728909
-0.0090473555
-0.00566395
3.260498E-4
0.010006867
0.036180656
0.06656927
0.08709189
0.087224506
0.07579157
0.06162596
0.06123798
0.059292886
0.04124327
0.023436759
-0.01011406
-0.040179703
-0.069377795
-0.09901835
-0.124929495
-0.13075961
-0.10395676
-0.06716774
-0.04214049
-0.029222947
-0.008931394
0.012346536
0.01611632
0.013186619
0.026309589
0.035721008
0.02876109
0.02439695
0.022115698
0.009756516
0.022617634
0.06343676
0.11424473
0.15813018
0.158958
0.11635309
0.0868057
0.038686603
-0.023034515
-0.05630231
-0.07343226
-0.06611087
-0.03392755
-0.033684228
-0.05636202
-0.07329197
-0.07692377
-0.08382691
-0.08714953
-0.08871689
-0.078633435
-0.06846916
-0.07800333
-0.07653276
-0.04899685
-0.02433271
-0.005059304
0.013233366
0.016043149
0.027198492
0.037657022
0.06365615
0.079717435
0.10424458
0.10109224
0.10385701
0.07730882
0.009739634
-0.010273554
0.0069777807
-0.016284373
-0.03265631
0.0025008032
0.024889033
0.014234074
-0.015825707
-0.03850661
-0.05208018
-0.052536123
-0.03159569
-0.009476506
0.04510573
0.08698835
0.10475786
0.12465902
0.1259049
0.08633515
0.04208791
-0.014177133
-0.012095064
0.062581696
0.13777314
0.124534294
0.06973239
-0.0016023486
-0.06713333
-0.14602086
-0.20129144
-0.16956246
-0.166064
-0.1358307
-0.024336558
0.05591887
0.10368364
0.12164531
0.07635474
-0.042298015
-0.100153305
-0.07902222
-0.06376135
-0.094537675
-0.14120097
-0.19274548
-0.16548465
-0.11718209
-0.09880264
-0.06784599
-0.025806595
0.010576595
0.02117297
0.012923271
0.05800581
0.091532655
0.095693715
0.107270345
0.078686886
0.0410849
0.030439723
0.08018101
0.08902074
0.03560216
0.019443793
-0.0054228003
-0.10075809
-0.19677682
-0.20878111
-0.14542863
-0.054019317
0.02139706
0.0784436
0.12030053
0.14505568
0.17329855
0.1814675
0.21743023
0.25046727
0.17793673
0.06582298
0.005791946
-0.07801223
-0.17388746
-0.19683619
-0.20466863
-0.20254394
-0.18056053
-0.15594886
-0.13658795
-0.12530147
-0.101379134
-0.08120516
-0.02938761
0.05167359
0.13979216
0.2325123
0.24797986
0.1990557
0.1158384
-0.027296942
-0.115449645
-0.06688063
-0.03219256
-0.0154823465
0.008563731
-0.049300358
-0.0835735
-0.061475515
-0.04005116
-0.021649905
-0.023885764
-0.01912503
0.013847642
0.044005137
0.04182552
-0.0133771505
-0.091593996
-0.08326476
-0.04740411
-0.031843673
-0.022484792
-0.0207088
-0.01374147
0.018787796
0.067028776
0.07447347
0.03914674
-0.015270672
-0.055213727
-0.07026419
-0.068277545
-0.07196275
-0.05789529
-0.030912485
-0.018881751
-0.033436056
-0.05357437
-0.04866609
-0.03992173
-0.032906037
-0.042781163
-0.028801246
-0.005057839
-0.00111021
-0.0021073218
-0.005033916
-0.0042081396
9.1423094E-4
0.0064031957
0.010916384
0.015073797
0.021060172
0.022321291
0.019452928
0.01495034
0.009871157
0.0060301223
0.0028696044
-5.8276614E-4
-0.0029022486
-0.0016669898
-0.0037088427
-0.0062978077
-0.007831514
-0.00792522
-0.009293667
-0.005822632
-0.005579226
-0.0042134495
-7.0582033E-4
0.003193662
0.0054602562
0.010603445
0.012121375
0.012049304
0.012367234
0.013319905
0.013512576
0.015189988
0.014565029
0.0126653295
0.01288563
0.011773559
0.010436748
0.008985195
0.0040170485
0.0029665309
0.001601272
9.136426E-4
-1.2635742E-4
0.0010160132
0.002033125
0.003814978
0.008683425
0.008731873
0.006893208
0.007826914
0.008825362
0.007909067
0.0073027737
0.0064541087
0.0074078147
0.008916263
0.0084923385
0.0064013037
0.0076650097
0.0076987157
0.008574792
0.011450351
0.012368281
0.013400952
0.014585993
0.017650517
0.018007413
0.019036677
0.018163571
0.016485725
0.016387878
0.013490549
0.009981367
0.0055079614
0.0041198144
0.0025169263
6.092969E-4
-9.0307376E-4
-0.005119668
-0.0069310036
-0.0072747096
-0.006243674
-0.0037755272
-0.002382639
-0.0027521215
0.0015926196
0.004436843
0.0041186963
0.0029181787
9.205493E-4
-0.0014441919
0.004117661
0.0030871436
2.9714356E-4
-0.0040347097
-0.0059836744
-0.0064950096
-0.006293975
-0.0075776805
-0.008876128
-0.007942204
-0.0072859107
-0.0038677636
0.0032117188
0.008910166
0.010193354
0.012091285
0.013783955
0.013214256
0.009755073
0.00846115
0.010774339
0.010457527
0.009245974
0.0053125685
0.0028820508
0.001156792
5.491626E-4
-0.0024179493
-0.0033998021
-0.002256914
-0.0015316553
4.3071533E-4
0.0018654566
0.0020425683
0.0065539037
0.0079599805
0.008376057
0.009374504
0.008160581
0.007624287
0.007217993
0.0037098462
0.0011845874
0.0015593286
4.5169922E-4
-8.906714E-4
-0.006279636
-0.0071409717
-0.005437566
-0.0054641603
-0.0052807545
-0.0033702368
-0.0015249781
6.473926E-4
0.002956875
0.0047910986
0.005517693
0.007039028
0.004213252
0.0042774756
0.0037393286
0.0012140698
-0.004097783
6.045874E-4
3.145874E-4
-0.0020725245
-0.0052891187
-0.008345195
-0.0066265306
-0.004923125
-0.0020802368
-0.001664978
-3.9734863E-4
0.004876875
0.008102952
0.008129029
0.0056556226
0.006786958
0.009487776
0.009648594
0.007984671
0.0056112646
0.0018860059
0.0027254883
0.0019726001
-0.0011421411
-0.004756365
-0.0067777
-0.006879036
-0.0060980003
-0.0051245946
-0.0037064478
4.8592285E-4
0.0046401466
0.008666223
0.00876467
0.0076383767
0.008796824
0.009295271
0.007868977
0.0069603124
0.002729795
0.0011121655
9.5453614E-4
2.6453612E-4
-9.546387E-5
-0.0020325757
-0.0028320581
-0.0045662816
-0.001761023
-1.3102296E-4
-0.0012757642
-8.5813476E-4
0.002548977
0.005897942
0.007861648
0.009140096
0.009740913
0.009951731
0.007815437
0.0059044017
0.0031338842
0.0015486255
-5.8374513E-4
-0.0019508569
-0.0033503394
-0.006961675
-0.007355381
-0.007339087
-0.007582793
-0.0067141284
-0.005160723
-0.0034002052
-0.002357317
0.0017574243
0.004691648
0.006250613
0.007404319
0.0066056545
0.0066869897
0.0051435838
0.003875437
0.0044796607
0.0016844019
-2.3559814E-4
-0.0034274512
-0.004211675
-0.003403528
-0.0037753808
-0.0038972339
-0.0039590867
-0.0025161987
7.561719E-4
0.004018025
0.00621699
0.008303067
0.009111513
0.009419961
0.007863667
0.0069050025
0.005511597
0.0042258203
0.0028453027
0.001400044
1.8004395E-4
-5.9956055E-5
-0.002317068
-0.0047812914
-0.004625515
-0.004789739
-0.0048139626
-0.004568186
-0.002215298
-4.0766847E-4
0.0034441845
0.0052007786
0.0069321143
0.006321079
0.006390044
0.00725375
0.005270344
0.004524568
0.0021816797
7.940503E-4
3.440503E-4
-0.0014806909
-0.0025278027
-0.0057767676
-0.006728103
-0.005504697
-0.0037165503
-0.0039784033
-0.0026455151
0.0010868554
0.003096338
0.0044805617
0.0071118968
0.0070732324
0.0054998267
0.0055364207
0.0057853856
0.0057343505
0.004578574
0.0041527976
-9.0957276E-4
-0.0029090552
-0.004263279
-0.0045475024
-0.0038193555
-0.003278838
-0.003880691
-0.0027101734
3.1982665E-4
0.0018045679
0.003396421
0.006075386
0.008021463
0.0058604274
0.0032399097
0.0045041335
0.004808357
0.005284951
0.0028744335
0.0015291749
-0.002317937
-0.00407979
-0.0065811253
-0.0104143135
-0.009795132
-0.007981208
-0.0063301735
-0.004214397
-0.0013391381
0.0011032324
0.0022003443
0.0050669387
0.006528274
0.005474868
0.0047190916
0.0035809448
0.0042251684
0.0023222803
1.2228027E-4
0.0016270215
0.0012417627
-0.0015229785
-0.0029424608
-0.0062614256
-0.0065527614
-0.0073864674
-0.0056030615
-0.004587285
-0.004851509
-0.00141625
9.161206E-4
0.0036079737
0.0042721974
0.004606421
0.0046406444
0.0060496093
0.004263833
0.003525686
0.003917539
0.0015922802
-0.0019048315
-0.0015395727
-0.005186167
-0.005805132
-0.0061340965
-0.0059030615
-0.004959656
-0.0044238796
-0.0026109912
9.613794E-4
0.0031308618
0.0062598265
0.009108274
0.0087067215
0.0081127975
0.005169392
0.0053759865
0.0051425807
0.004266804
0.0022239161
-6.584546E-4
-0.0019655663
-0.0023726781
-0.004226902
-0.0065382374
-0.007521943
-0.006170908
-0.005809873
-0.0038217262
0.0010606445
0.0024177562
0.0049243504
0.0061133155
0.0066346508
0.0077083567
0.007934433
0.005411028
0.0018557691
0.0020528808
3.4288087E-4
-0.0017518604
-0.0034137133
-0.005832678
-0.008108755
-0.009699573
-0.007183279
-0.007014614
-0.004898838
-0.0038906909
-7.530615E-4
0.0015816797
0.004143533
0.005310127
0.0065414626
0.006802798
0.0066741332
0.0038859863
0.0033154688
5.778394E-4
-0.0014169018
-0.0033987549
-0.005315349
-0.0069366847
-0.0061056493
-0.0019127612
0.00188198
0.003453833
0.0048680566
0.0056870217
0.006638357
0.007222063
0.0014968042
-0.001797937
-0.0018026782
-0.00189979
-0.0016345313
-6.5690186E-4
-9.0927246E-4
-0.0022863843
-0.004680608
-0.005647202
-0.004821426
-0.006582761
-0.009341208
-0.008919655
-0.008888103
-0.00801418
-0.008240256
-0.0052368506
-0.0017415918
0.00238552
0.0031550024
0.0041368552
0.0071805613
0.009441379
0.0061503444
0.0055369386
0.0037787915
0.0024359033
0.0012806446
0.0015353857
-0.0013793554
-0.0017640967
-0.0042383205
-0.0061372854
-0.0077709914
-0.007904697
-0.0052512917
-0.0027407738
0.0016439672
0.0017687085
0.004272932
0.0065442678
0.009242714
0.009693532
0.00865961
0.006118574
0.0052751685
0.004549392
0.0024165038
0.0017712452
-0.0023658667
-0.0060348315
-0.0060637966
-0.0076575023
-0.0081935795
-0.007737285
-0.00596625
-0.007499956
-0.0048241797
-0.0027836622
-0.022344781
-0.016646933
0.009441514
0.010334702
0.01085789
0.008313967
0.007707673
0.0064790086
0.0029584912
0.001905603
7.560303E-5
-0.0011791382
-0.004050991
-0.0055075856
-0.00613655
-0.0062455153
-0.0039473684
-0.0028768505
-7.292212E-4
0.0018878906
0.004914485
0.0065458203
0.008834268
0.008520344
0.00755405
0.0073477565
0.0037796095
0.0041414625
0.0035133155
0.0022304272
0.0013951685
-0.0013995727
-0.004976167
-0.008382244
-0.010305432
-0.00928388
-0.0063628443
-0.0040246975
-0.0024918092
5.9056154E-4
0.0034524146
0.004999009
0.005035603
0.005272197
0.006321162
0.0045753857
6.5775635E-4
-0.0010446142
-6.5698486E-4
-4.993555E-4
-0.0041412087
-0.0053978027
-0.0062967674
-0.006968103
-0.00813418
-0.008140257
-0.0072439625
-0.0036258155
-0.0022529273
0.0011718139
0.005740779
0.0077644847
0.0073081907
0.007771897
0.006050862
0.004122715
0.0020598266
7.821973E-4
-6.7802735E-5
-0.001492544
-0.0015872852
-0.004741509
-0.0046957326
-0.0063246973
-0.008100774
-0.0068021095
-0.0056087035
-0.0047529275
-0.0027424097
5.399609E-4
0.0042541847
0.00703552
0.008361597
0.007585303
0.006926638
0.008162715
0.00620168
0.004093533
9.259033E-4
-0.0021012085
-0.0010235792
-0.0026306908
-0.003902544
-0.00767625
-0.0069675855
-0.00583655
-0.0049531446
-0.002982627
-0.0013573682
0.0012973731
0.0063763377
0.008492415
0.009883232
0.0097540505
0.007035386
0.0047596092
0.0051662037
0.0015709448
0.0014256861
-6.4668455E-4
-0.003366167
-0.00349802
-0.0031675023
-0.0053440966
-0.007015432
-0.0049920264
-0.0039238795
-0.0032733618
-3.433618E-4
0.0015513794
0.0053879735
0.006809309
0.007803015
0.008459092
0.007040427
0.0035522804
0.0015370215
-1.12978516E-4
0.0022041332
8.765039E-4
-0.0016182374
-0.0040400904
-0.0055466844
-0.005223279
-0.007206985
-0.007930691
-0.0062696557
-0.0031091382
-5.815088E-4
0.0030879737
0.004662197
0.0077559035
0.00840198
0.007805686
0.006184651
0.0042988746
0.0023159864
0.0018807276
4.9309817E-4
-4.6927246E-4
-0.0021463842
-0.004550608
-0.006601943
-0.0074156495
-0.0074893553
-0.006610691
-0.006742026
-0.0039338795
-0.0018886206
8.0375E-4
0.004025603
0.005784568
0.0057535325
0.0066448683
0.0066162036
0.0055127977
0.004144651
0.0033041332
0.0011488745
-0.002670608
-0.005869573
-0.006540908
-0.004142761
-0.0051493556
-0.0075930613
-0.0075267674
-0.004380991
-0.0013757325
-0.003125215
-4.5214845E-5
0.0040766383
0.0049232324
0.0057321973
0.007023533
0.008639609
0.006910945
0.0041751685
0.0046993922
0.0034512451
7.636157E-4
1.3361573E-4
-0.0031958667
-0.00463009
-0.006039055
-0.0075827613
-0.0054593557
-0.0048035793
-0.004207803
-0.001342544
7.6982664E-4
0.003319309
0.0051159034
0.0062148683
0.0069962037
0.0058151684
0.0055217627
0.004535986
0.0033854689
0.00177021
-0.0010421607
-0.0023392725
-0.0039611254
-0.0040129786
-0.0076866844
-0.0077603906
-0.007021726
-0.008487803
-0.0059867674
-0.0036886206
-0.0011533619
0.0013913794
0.0037932324
7.6560304E-4
0.0054821973
0.0078059034
0.0054624975
0.0024396093
0.0026067211
0.0016714624
9.1383304E-4
-0.0023932788
-0.0032327613
-0.004606985
-0.005463579
-0.0069949147
-0.00711625
-0.005292844
-0.0029423267
-8.746973E-4
0.0013200439
0.0041542677
0.008330344
0.008698791
0.008707238
0.007973315
0.0060622804
0.005721245
0.004425469
0.003967322
0.001152063
-0.0012826782
-0.0039245314
-0.0047587547
-0.009217202
-0.01023039
-0.009791208
-0.008849656
-0.00549625
-5.586206E-4
0.0013061207
0.004720344
0.004204568
0.006163533
-0.0016512085
-0.023174698
0.0067766383
0.007930344
0.0049469383
0.0041287914
0.003108274
0.0012230151
-0.0022140967
-0.0024012085
-0.003350691
-0.004987285
-0.00575625
-0.005995215
-0.005311809
-2.4180909E-4
0.0015629322
0.005109526
0.008085603
0.008631679
0.0073053855
0.0070967213
0.008142798
0.006041763
0.003973616
0.001198357
-5.3401367E-4
-0.0013287549
-0.0024458666
-0.0029553492
-0.006094314
-0.0071756495
-0.0065169847
-0.005273579
-0.0031430614
-0.0013778027
6.045679E-4
0.0047887913
0.0062177563
0.0076214625
0.008107539
0.007591245
0.0066625807
0.0044768043
0.001953916
0.001981028
5.033984E-4
-0.002646084
-0.0041803075
-0.004966902
-0.0043611256
-0.0076648314
-0.0072585377
-0.0059475023
-0.0051140967
-0.0035159497
-8.483203E-4
0.0019987915
0.0032782739
0.0025353858
0.00530198
0.006110945
0.004122798
0.005109392
0.0044836155
0.0034854687
0.0013502099
-0.0037116432
-0.0061806077
-0.0057495725
-0.0049037966
-0.0073875026
-0.0075612087
-0.0070725437
-0.006261509
-0.005148103
-0.0011004737
0.0035813793
0.0049179737
0.006639309
0.0074130152
0.00573198
0.006230945
0.00712228
0.0049888743
0.0036407276
0.0011130981
-0.0062858667
-0.0042100903
-0.0031995727
-0.0033990552
-0.00624802
-0.007381726
-0.0066730618
-0.0058320262
-0.00428625
2.375E-5
0.0018184913
0.0044427146
0.00700405
0.0073277564
0.006026721
0.0050433152
0.0058722803
0.0037641332
3.241333E-4
-3.458667E-4
-7.482373E-4
-0.0025553491
-0.0031848315
-0.0034066846
-0.0047409083
-0.0072446144
-0.0072183204
-0.004222544
-0.0016672851
5.1508547E-4
0.0014398267
0.0028393092
0.0050359033
0.0064048683
0.0052814623
0.0069227978
0.003534651
-0.017249873
-0.017534398
-0.023147887
-0.0031973682
0.0042868555
0.0014215966
-7.307739E-4
-0.0016355151
-0.0031549975
-0.00292448
-0.0016492212
-5.915918E-4
0.0033778907
0.0069392263
0.009397673
0.008846121
0.008362197
0.007013533
0.00807961
0.007833315
0.0056399098
0.0021970214
-3.729785E-4
0.0010593921
-7.4297853E-4
-0.002812461
-0.003674314
-0.0042585377
-0.0051451316
-0.0037269848
-7.6935545E-4
0.0014753857
4.7775634E-4
0.00457198
0.0064933156
0.007044651
0.01103021
0.008136286
0.0058952514
0.006004216
0.0033836986
-0.009767119
-0.023620607
0.0047436156
0.0042278394
0.0011425805
-0.0024345312
-0.0034963842
-0.0042806077
-0.003452461
-6.848315E-4
-9.672021E-4
0.0021699097
0.004071763
0.002791245
0.008689692
0.009940511
0.010191328