-0.0026207785
-0.0041645975
-0.001916072
-4.9688613E-5
-7.998226E-4
-6.911374E-4
-1.4846509E-4
2.7317015E-4
-1.2208293E-4
-1.8454505E-4
4.4645823E-4
-5.56307E-4
-7.551348E-4
-1.1029686E-4
-3.2947E-4
-1.8757264E-4
-0.0012116208
-0.0018564527
9.291125E-5
0.0017088756
0.0016332202
9.271542E-4
0.0014603453
0.0029525203
0.0027104472
9.7103126E-4
-1.5218262E-4
1.3329783E-4
2.2941189E-4
2.3913392E-4
0.0018951474
0.0016805106
-8.912837E-4
-0.0013715815
-0.0017280594
-0.0025500038
-6.714332E-4
0.0013412233
0.0016671218
6.991912E-4
-0.0012490184
-0.0015606175
-0.0018473289
-0.0011654175
0.0026412134
-4.4163578E-4
-0.007619299
-0.00442842
0.0012254254
5.455599E-4
3.758943E-4
0.0014890169
5.017407E-4
-9.076803E-4
-4.839867E-4
5.815874E-4
7.458394E-4
9.567287E-4
0.0015882887
0.0025411309
0.0023192412
5.3130626E-4
-1.8597287E-6
-1.959093E-4
-5.146229E-4
5.8954925E-4
8.9740043E-4
8.169491E-5
2.2434747E-4
0.0011021806
5.1248E-4
-8.082141E-4
-3.860764E-4
-6.5598224E-4
-0.0011496197
-3.48955E-4
-0.0010243716
-0.0017602219
-0.0028483465
-0.0032150615
2.7922998E-4
0.0011619176
-2.2193784E-4
7.80429E-4
4.1612328E-4
7.9311285E-5
1.5081813E-4
-4.8420404E-4
0.0012739357
0.0021865396
0.0015449661
0.0016026768
5.3776667E-4
1.072129E-4
1.13892995E-4
-1.7971182E-5
0.0021654908
0.0026214274
3.9246588E-4
7.5291423E-4
0.0013561255
-7.359304E-4
-0.0015043371
-4.9413176E-4
-7.291227E-4
-0.0011155177
-9.12309E-4
-0.0014944642
-0.002129229
-0.0018028825
-0.0011326584
-0.0012003056
-0.00152905
-0.0011332387
-8.905144E-4
-7.1818044E-4
-8.959E-4
-0.001365799
1.8263372E-4
0.0016622682
6.136296E-4
-4.4714546E-4
-4.624629E-4
-3.3128198E-4
-3.6244415E-4
3.6289875E-5
0.001001681
0.0018701869
0.0025298237
0.0016880148
7.783771E-4
0.0016140334
9.589545E-4
1.7135253E-4
0.0014664769
0.0012632826
-5.8215563E-5
-3.027968E-4
7.573084E-4
0.002039496
6.9566956E-4
-0.0013362649
-7.82607E-4
7.7856594E-4
0.0010830427
6.050113E-4
0.001538873
0.0015440745
-0.0010076289
-0.0017347852
-0.0013360893
-0.0018005895
-0.0012046312
-5.8326643E-4
-3.108198E-5
9.753585E-5
-0.0012955379
-9.558014E-4
2.660365E-4
-5.6596287E-4
-0.0015247966
-0.0021289252
-0.0020704041
-0.0011382508
-0.0012273772
-0.0015143163
-0.0018612588
-0.002310357
-7.796474E-4
-1.4219203E-5
-6.264145E-4
0.0012365503
0.0020612967
4.7129302E-4
5.7610066E-4
3.8194167E-4
3.7956538E-4
0.0019627938
0.0010507439
-1.3413606E-4
2.2843055E-4
-1.5262148E-4
0.00170062
0.0047063245
0.0062232143
0.0074339155
0.004649367
-9.505084E-4
-0.0023284608
-5.8416754E-5
0.0017400397
6.2025094E-4
-0.0020861118
-0.0024710211
-0.0016359264
-0.0016228241
-8.5347536E-4
-0.0010751635
-0.0035541945
-0.0029518325
-3.5472034E-4
-0.0019731699
-0.003736356
-0.0031889083
-0.004422396
-0.004270335
-2.4246059E-4
0.0028262835
0.0019532354
1.1321747E-4
7.4567256E-4
0.0012701066
9.7631494E-4
0.0015535246
4.5375898E-4
-1.5647047E-4
0.0014467363
9.49386E-4
-1.6625153E-4
1.5391203E-4
1.5509785E-4
7.025591E-4
0.0012229275
3.9610476E-4
-6.1200124E-5
1.0777235E-4
-1.7209118E-4
2.4563773E-4
9.051185E-4
2.8359974E-4
4.667254E-4
9.5044053E-4
6.18642E-4
0.0010115012
-5.495135E-4
-0.0018202715
5.316476E-4
0.0013751336
0.0021951739
0.003486013
0.0013877955
8.20929E-4
0.001314814
0.001485903
0.0026110108
-0.0017337725
-0.0053953496
-0.0019585458
-2.2599452E-4
-7.752551E-5
-0.0030162095
-0.00994533
-0.0069943657
0.0012972945
0.0013126378
-1.1409253E-4
-1.2767952E-4
-0.0014170165
6.6675886E-4
0.0024102193
6.778635E-4
0.0011617822
0.0017424047
5.277817E-4
0.0014795952
0.002684308
0.0019219781
7.906456E-4
2.5610937E-4
-8.777746E-5
-3.1213433E-4
-1.1127966E-4
-8.884194E-4
-8.410361E-4
6.939027E-5
-0.0015109829
-0.0012302531
0.0011180174
0.0011967695
0.0014538972
7.560777E-4
-0.0012278858
-0.0014773472
-0.0014774501
-9.643757E-4
8.5519534E-4
0.0017793382
6.99275E-4
6.3025963E-4
0.0020995543
8.011434E-4
-4.2898828E-4
9.611208E-4
0.0025241647
0.004040175
0.003372841
0.0017618596
-2.1660584E-5
-0.0028133849
-0.0033970089
-0.0038715121
-0.0030634322
-0.0019259854
-0.0057544755
-0.005748299
-8.3602103E-4
0.002175948
0.0034364401
5.6591805E-4
-0.0010358692
1.9411033E-5
-7.3581154E-4
0.0014155599
0.0015258146
-0.0013495822
4.950811E-5
-5.028928E-4
-0.0020056595
0.001014792
0.00243985
0.0015481347
0.0010655789
-2.2056357E-4
9.108226E-5
0.0017213038
4.669312E-4
-9.960049E-5
0.0010709057
-5.2093173E-4
-1.6715922E-4
0.0023577414
0.001653453
9.071787E-4
-2.3342294E-4
-0.0022352634
-0.0017292292
-0.0011095639
-4.6692914E-4
6.310607E-4
2.065768E-4
2.9162937E-4
0.0010286923
6.8408024E-4
1.3392438E-4
-8.749357E-5
-2.2394356E-4
-2.8371607E-4
-3.6316866E-4
-3.383035E-4
-1.8104921E-4
-7.4622175E-4
-0.0012662478
-4.870913E-4
-3.4758757E-4
-7.267461E-4
2.8462344E-4
4.424988E-4
-0.0011342014
-8.2694384E-4
8.3412946E-4
-4.0139137E-5
-6.359464E-4
7.2059175E-4
9.198394E-5
-6.3929136E-4
-4.085172E-4
-3.9705273E-4
0.0016971038
0.002387915
8.248291E-4
9.814171E-4
8.606726E-4
9.5896225E-4
0.001122767
-9.0094836E-4
-0.0018004712
-0.0013856348
-0.0012045796
-0.0011610925
-0.0014103367
-8.296277E-4
-7.566944E-4
-2.9142367E-4
0.001237979
4.283578E-4
6.729959E-6
9.44685E-4
1.7535093E-4
2.6591035E-6
3.016084E-4
-6.843917E-4
-0.0013404058
-0.00106481
-6.4534944E-4
-5.876731E-4
7.7888137E-4
0.0030909993
0.0025581256
3.8833704E-4
0.0012250063
0.0046230988
0.0051690936
0.0011277687
-0.002523183
-0.0026402401
-0.0021615848
-0.0026935723
-0.0019152497
-9.275185E-4
-0.0013326352
-0.0012856275
-4.6201266E-4
0.0012280766
0.0015094596
-4.0821443E-4
-2.6064954E-4
-1.5263232E-4
-0.0010317109
-4.4891954E-4
-0.0012480563
-0.0015251895
4.7795605E-4
0.0016899237
0.0013470242
5.4790627E-4
0.0023336776
0.002814485
-0.0013090495
-0.0026095554
-2.7319437E-4
5.6146306E-4
-7.677559E-4
-9.4315025E-4
0.0010818898
3.1072085E-4
-0.0014159159
-0.001016829
-6.747534E-4
0.0014395074
0.0027908855
0.0013084185
4.7167027E-4
1.7815638E-4
6.948905E-4
-4.1828863E-4
-0.0027507052
-5.775548E-4
0.0014502811
1.7398511E-4
-6.4015435E-4
-0.0014268013
-1.3392682E-4
0.002075806
0.0013647224
0.0031727564
0.0038850754
-0.004976322
-0.01028052
-0.003604814
0.0017189074
0.0013318519
5.725991E-4
1.7557414E-4
0.0010677656
0.001858993
2.8962418E-4
-0.0016224132
-0.001688145
1.7161567E-4
0.0012294666
1.4590423E-4
-1.501977E-4
9.3991053E-4
0.001748858
0.0021347583
0.0011349777
-5.3674716E-4
-4.1795496E-4
-2.8787352E-4
-7.8407465E-4
1.6659318E-4
8.7871763E-4
8.1934844E-4
5.461128E-4
4.9131535E-7
0.0014026937
0.0021528252
-4.60938E-4
-0.0010398533
0.0017088519
0.0014460608
-0.0018233266
-0.0018992776
-2.4964553E-4
-0.001000446
-0.0021732384
-0.0021419208
-3.8597724E-4
6.5748085E-5
-0.0026029325
-0.0021935436
-8.543057E-4
-0.0018397447
5.914025E-4
0.0023752197
9.447909E-4
0.0016747044
0.0011752611
-0.0014297197
-0.0024505667
-0.002656527
-9.3913503E-4
0.0015023602
0.0014531921
5.198321E-4
-1.5081964E-4
1.701267E-4
0.0016957106
0.0022174558
0.0020471583
0.0022466897
0.002695117
0.0026987703
3.0448165E-4
-0.0016850779
-7.468628E-4
-5.7270774E-4
-0.0015844308
-0.0018141489
-6.3203595E-4
0.0014587935
0.0016549367
9.727105E-4
0.0014813462
0.002424981
0.0024460268
-5.3390354E-4
-0.0029795715
-0.002475129
-0.0022132788
-9.846225E-4
-8.0921274E-4
-0.0030800356
-0.0017656853
-1.740629E-4
-0.0024788529
-0.0022452914
1.4318163E-4
-1.7882077E-4
-6.323655E-5
8.2535733E-4
3.2426044E-4
0.0018991872
0.0026183191
-1.3056964E-4
4.848541E-4
0.0019467467
1.2493864E-4
4.0157535E-4
0.0022493347
0.0021247978
7.5312937E-4
8.7193E-6
-1.4102337E-4
-0.0010301017
-6.972331E-4
-2.0863938E-5
-7.932759E-5
0.0014565944
0.0016744181
2.2223797E-4
-9.4917836E-4
-0.0027525753
-0.002829716
-0.0024459332
-0.0035795895
-0.003272992
-0.0013893046
6.3476653E-4
0.0013356406
0.0014930752
0.0023710448
0.001533258
2.9602466E-4
-2.8854587E-5
-6.612027E-4
4.7660785E-4
0.0026625749
0.0031053599
0.0015402158
2.0870847E-4
0.0015573165
0.0018270559
-9.619089E-4
-0.0010427502
0.001426121
-7.511563E-5
-0.00257644
1.6136766E-4
0.001867554
-0.0010055428
-0.002237641
-0.002024066
-0.0011616003
2.8873835E-4
-7.185958E-4
-1.3327353E-4
0.0024343252
0.0015158334
-4.3508573E-4
-0.0027108288
-0.0049290988
-0.0012636917
0.0029775894
6.683825E-4
-8.937605E-4
-1.6798444E-5
-0.002050374
-0.0022323069
-4.4396444E-4
-0.002006696
-0.0017257573
0.0014069167
0.0016044396
5.9487706E-4
8.740636E-4
0.0023835893
0.0040232167
0.002320207
-3.7528668E-4
6.486206E-5
9.091791E-4
4.2065306E-4
-8.291546E-4
-0.0018115474
4.889537E-4
0.0037073272
0.003408123
0.0013285372
1.905132E-5
5.786091E-4
0.0013347209
-7.8020117E-4
-0.0029274402
-0.0026910084
-0.0026637858
-0.0022737968
-2.505777E-4
5.800769E-5
-0.0017262636
-0.002118423
-0.0012405827
3.7714967E-4
0.0023995484
0.0032136512
0.0030606415
8.672241E-4
5.1455817E-4
0.004324201
6.604724E-4
-0.008134016
-0.007638294
-0.0019924152
0.0010885098
9.617185E-4
-7.6154116E-5
0.0018312332
0.00394382
0.004513483
0.0028824557
-0.0013251391
-0.0029844982
-0.004145363
-0.0052557653
-0.0020643466
-0.0012239642
-0.0026452914
-5.6638493E-4
8.544639E-5
2.1226758E-4
0.0031925212
0.0039712735
0.0032388754
0.0037801275
0.0035933775
0.0028940453
-3.8410176E-4
-0.0048586437
-0.0029751374
-6.471042E-5
-0.0019123236
1.5401491E-4
0.005073069
0.0031614115
-0.0010988998
-8.7808684E-4
-0.0012811503
-0.0024691427
0.0021476937
0.005802673
0.002185939
-6.2591484E-4
-2.632693E-4
-0.001676375
-0.004452991
-0.004766771
-0.0021142364
1.1434495E-4
7.201056E-4
1.4863245E-4
-2.671508E-4
-3.397292E-5
-0.001915843
-0.0033850453
-0.0013160293
9.7060925E-4
0.0012419873
-1.6707885E-4
-5.13413E-4
0.0010916309
0.0018232765
9.54456E-4
-4.910192E-4
4.8532154E-4
0.0030018706
0.0033811778
0.003084355
0.0014538597
-3.963453E-4
4.4750972E-4
5.381002E-4
0.0014061071
0.0029596137
3.8768223E-4
-0.0013088327
-0.0017438667
-0.005216378
-0.00642438
-0.0049557593
-0.0047773696
-0.0033148564
3.917748E-4
0.00321421
0.0035459702
0.0037945253
0.0044878204
0.002098249
-0.0010894577
-0.0028876602
-0.0051997555
-0.004668831
-0.0023180875
-0.0015275361
0.0016509844
0.005371199
0.0065645883
0.007044821
0.005593236
0.0024678211
-0.002299092
-0.005460057
-0.0022104105
-6.3728185E-5
-9.972482E-4
6.812999E-4
8.498354E-4
-0.0015118569
-0.003440626
-0.0041695028
-0.0030470688
-0.0013891786
0.001766581
0.0018033766
-0.0022746788
0.0012997359
0.007584993
0.0072167544
0.006623632
0.0047821077
7.4324873E-4
5.747802E-4
5.0782226E-4
-0.0037870242
-0.0070367274
-0.0042556007
4.9092504E-4
0.002045261
0.001071967
-0.0015549344
-0.0030739242
-0.0032093218
-0.005513115
-0.0055099363
-1.9639088E-5
0.0032800953
-3.653102E-4
-0.00421326
-0.003809894
-0.0040287115
-0.0034217993
-1.04139035E-4
2.9329647E-4
-8.5736247E-4
-0.0016104266
-0.002742009
-0.0013674936
0.0017772717
0.004233888
0.005230735
0.006058618
0.007720296
0.008971703
0.010163285
0.0076276623
0.0010537512
-0.001926687
-1.9768909E-4
0.0018508823
-4.0775922E-4
-0.0037823624
-0.0022175163
-4.9174664E-4
0.0019202674
0.007245457
0.009420721
0.0082094325
0.0037228975
-0.0027892897
-0.0077864947
-0.011161965
-0.008570807
-0.0045015845
-0.0070121195
-0.0093327435
-0.0107795065
-0.013696313
-0.011161137
-0.006922138
-0.0065052644
-0.0037081116
6.021086E-4
9.7365124E-4
0.001329739
0.005537311
0.009818579
0.008762476
0.004761525
0.003174512
0.0027037999
0.004076003
0.007264915
0.007940081
0.007927961
0.007668364
0.0069011636
0.008330359
0.0079095075
0.0036755442
-0.001342247
-0.005271722
-0.006198715
-0.005894715
-0.0068003996
-0.008245397
-0.008298783
-0.0074307206
-0.0070030377
-0.0033761563
-2.0604634E-4
-0.002156412
9.448474E-4
0.007825976
0.006095085
6.138803E-4
-0.001250443
-7.551017E-4
0.0016197048
0.0011505187
-0.0036231473
-0.006060495
-0.0084703965
-0.0120509155
-0.010265759
-0.0072881067
-0.0052499115
-2.2359603E-4
0.00290222
0.004157538
0.007694583
0.011653941
0.015555667
0.018076625
0.017770771
0.0153554715
0.008973993
0.0015972124
6.667518E-4
0.0010948989
-0.0037776125
-0.0064721676
-0.0072671045
-0.010538609
-0.009866303
-0.008036344
-0.008387574
-0.0071217706
-0.006068964
-0.004453161
-0.0019736837
6.2304176E-4
0.0023948082
-0.0019227335
-0.009499863
-0.015169854
-0.014580596
-0.0055396087
0.003185382
0.009181716
0.014149214
0.014889412
0.012626028
0.011470392
0.017382832
0.020034129
0.0054112105
-0.0071756486
-0.009617881
-0.01972489
-0.02882819
-0.025859673
-0.020781497
-0.01639611
-0.015829597
-0.021032942
-0.024163973
-0.022407375
-0.010874141
0.0089161275
0.029111398
0.051959395
0.06880705
0.076903045
0.08033909
0.074106105
0.075342104
0.076652505
0.04700532
0.002623395
-0.033037193
-0.04769962
-0.04196845
-0.035261407
-0.028560359
-0.03021728
-0.042755842
-0.052413136
-0.06908817
-0.081685565
-0.07373911
-0.059936065
-0.05121861
-0.04881314
-0.04286312
-0.041708406
-0.050894868
-0.03926765
-0.007147268
0.029818587
0.071358584
0.10513259
0.12003528
0.10270674
0.07129706
0.057011366
0.043454677
0.03708677
0.053529244
0.06324253
0.05300942
0.0111595
-0.072929226
-0.1358595
-0.113460176
-0.055401325
-0.030742813
-0.014603302
0.011391974
0.0280384
0.06972508
0.13204376
0.10283731
-0.04543664
-0.16459763
-0.16358875
-0.10600015
-0.03559114
0.028788123
0.0761944
0.13365766
0.15775299
0.13531196
0.115739875
0.059065685
-0.01897975
-0.068360664
-0.11140457
-0.1102874
-0.07722543
-0.06308454
-0.044968247
-0.046669208
-0.04540596
-0.01770811
-0.032338228
-0.04300972
-0.02254192
-0.040505707
-0.05177907
-0.020828137
0.0016173794
0.012002704
0.026506705
0.019421443
-0.008226167
0.0061338027
0.0611208
0.10891759
0.14579377
0.13764325
0.0684209
-0.0138282105
-0.07092144
-0.0667784
-0.009619979
0.037421588
0.06148641
0.092754066
0.116276965
0.104170956
0.06856285
0.0054046097
-0.079853415
-0.150892
-0.18800099
-0.15384667
-0.07657623
-0.039072197
-0.027724696
-0.017458176
-0.004357943
0.011299276
0.010605966
0.017555414
0.016018458
0.0131243365
0.05462695
0.0408286
-0.034173194
-0.040433127
-0.0078091687
0.007677681
0.0083973035
-0.0063240514
0.0045492896
0.026666248
0.019287642
0.012575716
0.01592633
0.014336531
0.013601067
0.011877935
0.012371821
0.015603699
0.0076243896
0.008874223
0.033526618
0.03591891
-0.006672224
-0.06366471
-0.08800748
-0.05442662
-0.010120377
0.0070231864
0.019995332
0.03033039
0.031491444
0.029172812
0.019084862
0.009926715
0.0053663333
-0.0019338393
-0.008868542
-0.0154163055
-0.0204715
-0.021465471
-0.02186353
-0.020629609
-0.01567673
-0.0070667625
0.0045730188
0.014556607
0.020255307
0.023472017
0.024026826
0.021896675
0.017681371
0.010171837
0.002365301
-0.0022731763
-0.00494171
-0.007907057
-0.01291618
-0.016236091
-0.015959838
-0.014611258
-0.011022087
-0.007626363
-0.0048327427
-4.467194E-4
0.002473835
0.005861953
0.009707801
0.012537354
0.015414874
0.011644648
0.0052117747
0.005900756
0.006268659
3.4319403E-4
-0.008888627
-0.016195364
-0.016278274
-0.012161885
-0.008373194
-0.004830467
-0.0019437672
-7.268585E-4
3.567642E-4
0.0032771328
0.0046241162
0.0047039906
0.00700913
0.006370525
0.0040494427
0.003799379
-8.6922594E-4
-0.0049279686
-0.0035879894
-0.0043703467
-0.003845041
-7.166033E-4
4.4316245E-4
0.003897578
0.007433455
0.008906809
0.0127396425
0.0135801295
0.007914946
0.001226937
-0.0041608494
-0.0075853136
-0.009480952
-0.012597699
-0.014276
-0.010671761
-0.0065149404
-0.0050088814
-0.003204891
-1.3321276E-4
0.0046129143
0.009388426
0.011076969
0.008437977
0.002646819
-3.1047442E-4
-5.5190246E-4
-0.0019743578
-0.003399645
-0.004910162
-0.0013203933
0.0060026664
0.006236165
0.0042307517
0.004687277
0.0055280617
0.0075597926
0.0046647964
-0.001802094
-0.00552094
-0.007864422
-0.005747511
-6.1783177E-4
0.0010501174
-2.1405774E-4
-0.0029786872
-0.00606306
-0.00892371
-0.0095527
-0.00525822
-5.763467E-4
0.0013968557
0.0029818236
0.0031091166
9.685645E-4
7.848765E-4
0.0025349895
0.0013966527
3.2577297E-4
0.001068667
-4.4305704E-4
8.6831715E-4
0.0058605047
0.0066224732
0.0045274436
3.9697552E-5
-0.0070212465
-0.009388111
-0.008099326
-0.0054956265
2.4856065E-4
0.0031165713
0.0026341174
0.004274391
0.005849644
0.0060070585
0.0051359306
0.002598972
0.0014434726
0.003005547
0.0033150318
6.5919134E-4
-0.0015475529
-0.0025913331
-0.0022726695
6.309891E-4
0.0016047263
0.0014409078
0.001954656
-0.0032268872
-0.008604918
-0.004981495
0.0017350932
0.0025287878
-0.0017935763
-0.0036200962
-0.0050061904
-0.008637447
-0.007377364
-0.003087038
-8.2305924E-4
-4.456541E-4
-7.430569E-5
0.002104757
7.457714E-5
-0.002641202
0.0015687296
0.003851956
0.0029917215
0.003574946
0.0025691802
0.0012061242
0.0013315242
0.0031907319
0.0044788243
0.0034222296
0.002635592
5.344618E-4
-0.0015722255
-0.0011839505
7.269448E-4
0.00383017
-7.5281573E-6
-0.0072545055
-0.0038630776
0.0026193566
0.0050594355
0.0054663634
3.5653898E-4
-0.0028187304
0.0013408036
0.0032407055
0.0010555619
-0.0017091994
-0.0043252725
-0.001849892
0.004658849
0.0052197026
-0.0016302402
-0.0077491114
-0.008748766
-0.007990044
-0.009133536
-0.00928996
-0.0063655707
-0.0031333736
-4.858581E-4
5.820407E-4
-4.1414416E-4
-8.576716E-4
-2.4536432E-4
0.0010574571
0.0013152921
-3.8654008E-4
5.62578E-4
0.002533978
0.002073512
0.0047392207
0.009343491
0.0103558265
0.010261305
0.010389671
0.0112310415
0.011829182
0.007177911
0.0026699204
0.0031615917
-0.0011787232
-0.008938829
-0.009442364
-0.0068870997
-0.0056619025
-0.0052023
-0.0074990923
-0.00792769
-0.003860482
-0.0019300396
-0.0050008474
-0.008046529
-0.0075353784
-0.0076934947
-0.008014314
-0.003798642
-1.3853043E-4
0.002436852
0.0067634466
0.0060044397
0.0018350397
0.0020202575
0.004465707
0.0052198973
0.004041475
0.0027070362
0.0021428084
0.0026873052
0.0033212933
9.3455025E-4
-8.6371263E-4
8.560762E-4
0.0015438151
0.0018545392
0.0029058787
0.0018582337
2.0629222E-5
-9.4025023E-4
-9.126867E-4
-5.3107383E-4
-5.9829856E-4
-2.4728407E-4
-8.4826443E-4
-0.0021420717
-0.0014030592
-6.2359526E-4
-6.957146E-4
1.6240901E-5
8.320044E-4
0.0014522857
-8.423321E-5
-0.003695595
-0.0029818066
9.7101164E-4
0.0011112675
-1.2292882E-4
1.1858222E-4
-0.0015503283
-0.0038906555
-0.004586801
-0.0043908786
-0.001991494
8.378485E-4
0.0010872219
9.319061E-4
0.0014116012
0.0021225123
0.0028620216
0.0025113507
0.0010763276
-0.0019666709
-0.003245544
-2.3222827E-4
6.9684803E-4
5.6060415E-4
0.0025601622
0.0010016399
-3.915911E-4
0.0017547744
0.0017264003
0.0017194871
0.0028585233
0.0022417894
5.6339777E-4
-0.0019682462
-0.0019529553
3.153906E-5
-6.509339E-4
-9.6038164E-4
-8.912594E-4
-0.002263993
-0.0015793802
-2.3666452E-4
-0.00101939
-0.0016241153
8.860022E-6
8.238655E-4
-0.0015013516
-0.0018340183
-1.9643155E-4
-9.6173765E-4
2.6199938E-5
0.002884778
0.0020161448
4.0202076E-4
0.0018251932
0.0033662075
0.003823102
0.0033379106
-7.5067865E-4
-0.004996257
-0.0030581648
0.0010534218
0.0024945121
0.002214273
-2.9624082E-4
-0.0026948864
-0.0019441235
-2.612375E-4
0.0011212267
0.0010433104
-0.0015794935
-0.0038870126
-0.0039609345
-0.002513448
-0.0016034243
-0.001245255
3.2772476E-4
0.0011235612
9.657282E-4
0.0012344879
0.0010056648
0.0015737036
0.0020812557
0.0014855826
0.0012766466
3.6639653E-4
4.6652636E-5
7.008554E-4
-3.4997571E-4
-0.0018238429
-0.0018450873
1.7789548E-4
0.001396873
-3.9442E-4
-5.731039E-4
8.695258E-4
7.249696E-4
0.001192839
0.0022259166
0.0011106983
-7.2748546E-4
-9.06111E-4
-8.0627494E-4
-0.0015609956
-0.0031686754
-0.0030276284
0.0017358459
0.004083779
0.0021872465
0.0015368256
-0.0011219233
-0.0023585244
9.827787E-4
0.0027717163
0.0029893406
-0.001412673
-0.0070342375
-0.0036681308
8.097575E-4
6.8231835E-4
4.2799415E-4
-5.4933736E-4
-2.9897125E-4
0.0017926699
0.0018155986
0.001562023
0.002148144
-2.1829552E-4
-0.0024817148
-0.0014446238
-0.0015625473
-0.0014282443
-1.7699714E-4
-8.266176E-4
-5.24408E-4
3.1010312E-4
9.3924586E-4
0.0015348201
-6.471006E-6
-8.3938905E-4
-7.484605E-4
1.5075089E-4
0.0012484686
-2.9582766E-4
4.853008E-4
0.0011652553
-0.0012353904
-2.0910366E-4
9.480339E-6
-0.0015149558
0.001117246
0.0037450292
0.0026444755
5.595179E-4
0.0010327249
9.5704995E-4
-0.001854802
-0.0017217177
0.0012101338
0.0028156908
9.774193E-4
-0.0020711669
-0.0017501191
-0.0013411703
-0.0013523053
-1.0987217E-4
-6.297994E-4
-0.0011291126
-0.001458564
-0.0015379757
9.4278966E-4
0.0020306627
0.0010061627
8.700049E-4
5.426099E-4
-0.0010789784
-0.0015519583
1.0269323E-4
-4.7111837E-4
-0.0014885158
4.0096167E-4
2.4185107E-4
-0.0011594485
-6.833349E-4
-5.04491E-4
1.1737078E-4
0.0012404999
0.00193467
0.0024934146
0.001160191
-3.3127188E-4
9.330839E-4
7.975362E-4
-0.0018640867
-9.7168086E-4
9.357912E-4
-6.787301E-4
-6.099171E-4
0.001251662
0.0013761901
3.7351792E-4
-0.0015905241
-0.0015912657
-1.8909186E-5
4.5499924E-5
6.481479E-4
6.5093575E-4
-5.777593E-4
-4.7757174E-4
-5.277937E-4
-0.0011415241
-8.8138774E-4
-1.0835337E-4
-4.5286748E-4
-0.0013901835
-8.3482714E-4
-7.5495854E-4
-8.307936E-4
0.001021546
0.0027626168
0.004071112
0.003949733
0.002585302
0.0025124568
4.7598104E-4
-0.0027399617
-0.0022686324
-0.0012950415
-0.0017176502
-0.0015591907
-0.0017568213
-9.5502747E-4
9.505778E-4
3.5868448E-4
-7.439476E-5
8.129183E-4
-7.0922874E-4
-0.0010684707
1.780379E-4
-8.3362806E-4
-8.3047256E-4
-2.5726485E-4
-0.0012950193
-8.6018775E-4
0.0014093139
0.0026168742
8.582102E-4
-5.9263E-4
4.352914E-4
6.916157E-4
4.7294485E-5
-2.6880362E-4
2.37717E-4
6.922453E-4
1.8115297E-4
9.3375E-4
2.4154929E-4
-0.0021302227
-8.3354476E-4
0.0014018484
0.0013441513
1.0368994E-4
-8.151159E-4
2.3946569E-4
0.0014643029
0.0012140884
1.6767117E-4
-4.8433067E-4
-6.0093263E-4
-0.0011685536
-0.0011333128
-6.6982047E-4
-1.4979926E-5
7.8248343E-4
2.90525E-4
2.3358049E-4
-1.464878E-4
-5.7043653E-4
0.0014170944
7.461897E-4
-0.0017899334
-0.0014102545
-7.271683E-4
-2.8545313E-4
-0.0011984952
-0.0026378806
-5.447391E-4
0.0010675191
-1.3668335E-4
-9.211486E-4
-2.8200727E-4
0.0018505724
0.0029996561
0.0017748169
0.0010609035
0.0010704247
2.3218524E-4
1.9350005E-4
5.3739676E-4
-4.001458E-4
5.0927536E-4
0.0015335573
-3.6016593E-4
-5.8993587E-4
-1.3468391E-4
-9.530534E-5
0.0012242678
2.054398E-4
-1.216702E-4
3.0371692E-4
-0.0012309469
3.8589037E-4
2.905145E-4
-0.0016303967
-9.264499E-4
-0.0038908361
-0.0029190956
0.0025597955
0.0020848282
0.002609117
8.9294845E-5
-0.0075319717
-0.0060704863
1.3054967E-4
0.0029804443
0.0023294608
4.489945E-4
0.0024212583
0.0024904914
-9.880736E-4
-0.0015286235
-0.0011001058
-7.31782E-4
7.134738E-4
0.0013412029
4.794315E-5
-5.8527134E-4
0.0012191113
0.0013961834
7.321062E-4
0.0019261535
0.0017353903
7.7791634E-4
7.2484155E-4
4.2224466E-4
2.4241373E-4
6.0479186E-4
2.1041076E-4
-7.7359437E-4
2.3697747E-5
2.1715013E-4
-8.1202807E-4
-6.5146937E-6
-6.0708204E-4
-0.0012466782
1.5252741E-4
-0.0015755332
-0.0036715544
-0.0022665411
-3.7500336E-5
0.0010164068
1.2716242E-6
-8.019235E-4
1.4673927E-4
6.262851E-4
-5.301767E-4
-0.0010851902
6.477959E-4
0.0015773037
8.024752E-4
-1.7531046E-4
-2.6771857E-4
8.321814E-4
-0.0010955632
-0.0026366953
5.119252E-4
0.0017121182
0.0016289544
0.0020304592
6.9437193E-4
5.049137E-4
4.6756624E-5
-2.9366591E-4
1.800563E-4
-0.0020369159
-0.0026382487
-0.0010386542
-8.812699E-4
-2.6976585E-4
-2.4017972E-4
-1.4398094E-4
0.0015314248
0.0014620504
4.2667994E-4
9.837266E-4
0.0016513971
0.0013633323
0.0010901395
5.8850326E-4
-3.698065E-4
-7.512927E-4
-0.001174404
-7.312809E-4
5.2895356E-4
1.5694856E-4
2.372245E-4
7.480302E-4
5.422087E-4
0.0010565885
-1.7850041E-4
-0.0013687094
-6.519662E-4
-0.0011618948
-7.345703E-4
-6.8419345E-4
-0.002323217
-0.0010292317
1.9486164E-4
6.0791877E-5
8.2877936E-4
-6.3157215E-4
-0.0016699963
1.0131045E-4
4.4083782E-4
-6.922312E-5
6.6683703E-4
0.001357273
0.0010164585
0.001000765
0.0012246358
-7.5652276E-4
-0.0019675572
-5.0679577E-4
8.846423E-6
-7.0156902E-6
7.7488476E-5
-1.4471772E-4
4.1520482E-4
0.0010482388
0.0013950756
5.383837E-4
-3.917316E-4
3.2421964E-4
5.0209655E-4
0.0010108708
0.0012153749
-1.5066568E-4
-1.979785E-4
-6.3384103E-4
-0.0010610898
-4.383928E-4
-0.0010062533
-1.2377414E-4
5.0184375E-4
1.6774287E-4
0.0013746606
-3.3514894E-4
-0.0013273701
0.0015706006
0.0013347301
-3.095088E-4
-6.8812864E-4
-0.0018916193
-0.0019646839
-4.9900776E-4
3.7283386E-4
8.435525E-5
-2.8227866E-4
4.7710375E-4
0.0017017449
0.0014961556
4.9955497E-4
2.481811E-4
-0.0010292982
-0.0014172185
4.816649E-4
4.3058695E-4
1.07900916E-4
4.460209E-4
-2.3341396E-4
5.669358E-4
1.7077682E-4
-0.0017581156
-0.0010952193
2.2476317E-5
5.7819777E-4
2.770507E-4
-0.0011552245
-3.515541E-4
0.0014045899
0.0010027604
-4.5429677E-4
-0.0011460055
1.5226101E-4
0.0015553375
-7.0119895E-5
-0.0019872696
-0.0015385149
-0.0019432785
-0.0015124293
0.0028918372
0.004794961
0.0017061663
-5.082447E-4
-4.2646387E-4
5.832332E-4
0.0016891944
9.6791296E-4
-0.0012199654
-0.0022840484
-0.001122305
5.272204E-4
6.2811386E-4
3.2191546E-4
-4.4959364E-4
-0.0019481526
-1.13635295E-4
0.002528518
0.0014932695
-1.8954906E-4
-0.0021180224
-0.0013665362
0.002132759
0.0021619056
0.003062056
0.0014013214
-0.006735387
-0.0074364045
-0.0016214402
0.0016743565
0.002331205
0.001202769
0.002927521
0.0028939121
-6.910197E-4
-1.9297069E-4
-2.901131E-4
-0.0014727577
-4.729573E-4
-9.582583E-4
-0.0010598557
-1.6167897E-4
5.1263836E-4
2.6290515E-4
-4.6762993E-4
0.0010240086
4.928658E-4
-0.0013749194
-3.6079652E-4
-9.13186E-4
-0.002529923
-0.0021640263
-6.8451016E-4
2.7017613E-4
2.2255258E-4
0.002357463
0.0033396364
0.0010406892
0.001614739
0.002583127
0.0011272446
1.1061693E-4
-0.001144143
-1.4293281E-5
0.0023911684
-2.9999836E-4
-0.002354459
1.46769025E-5
2.5644453E-4
8.100659E-4
0.0026802714
1.6144305E-4
-0.0025574607
-0.0023323046
-9.06638E-4
0.0013339584
9.995169E-4
-0.0013230767
-0.003229355
-0.0027662143
9.337098E-4
0.0010335575
-6.880066E-4
8.2716695E-4
2.05792E-4
-7.2760985E-4
1.3748722E-4
-0.0010939708
-0.0016987306
-1.1688156E-4
8.992781E-4
5.2579754E-4
3.627623E-4
2.92253E-4
-5.012688E-4
7.5639016E-4
8.67714E-4
-0.0021396042
-0.0015303011
-2.671937E-4
-0.0021349834
-0.0012301822
0.0020556168
0.003083507
0.0017986245
0.0017302369
0.0038417531
0.0030608948
7.133276E-5
6.0942475E-5
5.852524E-4
3.0177794E-4
0.0011647574
3.672997E-4
-0.0015825327
-0.0019416598
-0.001992928
-4.5114907E-4
6.3722616E-4
-0.001371539
-0.0010343418
2.9617484E-4
-7.179071E-4
-2.0244438E-4
-8.7684115E-5
-0.0014700716
-6.225855E-4
6.967226E-4
2.670873E-4
-6.979076E-4
-9.934691E-4
-0.0010099219
-9.065679E-4