-0.0028792403
-0.0025901105
0.0014322256
0.0023289945
-7.896175E-4
-2.5577174E-4
0.0016491528
0.0011314219
8.810276E-4
1.7424437E-4
-7.8440015E-4
-0.001174288
-0.0014066314
-4.097018E-4
1.4208026E-4
5.711927E-5
7.2815886E-4
3.187429E-4
-5.86143E-4
8.0697273E-4
0.0020781525
2.702416E-4
-8.860113E-5
0.001175547
-0.0011001317
-0.0023795122
1.4451469E-4
0.0022344985
0.002800672
0.001467392
4.32208E-4
0.0012077664
6.767002E-4
-0.0013367035
-0.0012153389
0.0011521091
7.314271E-4
-0.001221333
-0.0015427704
-0.002501526
-0.001585667
-5.0641416E-4
-0.0021087443
-9.794625E-4
3.564586E-4
-9.5984986E-4
-0.0017564435
-0.0017506436
-2.4231059E-4
5.4095633E-4
-1.0838434E-4
3.7359976E-4
3.6721202E-4
-1.6140589E-4
1.9064211E-4
0.0011808006
0.0015133523
8.981023E-4
0.0013633064
0.0021811207
0.0019185016
-8.401142E-5
-0.0015304972
7.667456E-4
0.0020529574
0.0011640496
0.0020580895
0.002721524
9.666716E-4
-0.0012010826
-4.2003326E-4
2.7906685E-4
-0.0017091648
-0.0014676438
-1.5787542E-4
-3.284347E-5
-2.0035899E-4
-0.001596321
-0.0021112098
-9.6867536E-4
8.298266E-4
0.0013309834
-1.2553681E-4
-0.0016081114
-0.0026982503
4.2473766E-4
-3.6341127E-4
-0.010337365
-0.008338309
0.002613423
0.0032851913
0.0025338882
0.0042033684
0.0024552692
4.316748E-4
6.001676E-4
0.00169106
3.8979333E-4
-8.0630684E-4
0.0010256909
0.0020522664
0.0015220474
9.125549E-4
0.0013740488
0.0015909706
1.8329316E-4
6.6811533E-4
0.0012273759
-5.0414057E-4
-6.719526E-4
-2.171937E-4
-0.0012440695
-0.0013646523
-4.738054E-4
-2.4278756E-4
-1.3051137E-4
-5.545979E-4
-0.0019049747
-0.0012504967
1.2532341E-4
-0.0011012338
-0.0011953919
6.3841004E-4
4.007099E-4
-6.132543E-4
-0.0013673776
-0.001591021
8.1791275E-4
0.0021013184
2.5550963E-4
-3.179426E-4
7.1427756E-4
0.00116449
4.2793946E-4
7.1560335E-4
0.0018212146
8.9925954E-5
-4.2916802E-4
-7.777665E-4
-0.004064193
-0.0014276461
0.0028671015
0.0021078768
0.002124749
1.5076701E-4
-0.0017919854
9.894214E-5
-4.2543845E-4
-5.567722E-4
0.0016132619
0.0011467009
-9.805999E-4
-0.0019387546
-0.0021544043
-0.0030103622
-0.0014881938
0.001187524
-2.6294525E-4
-8.654967E-4
0.0021610346
0.0033897082
0.0013002664
-0.0011769913
-6.433016E-4
0.0013633263
0.0016287505
0.0015274673
0.0019166718
0.0012387482
7.1024714E-4
0.0018382501
9.3666505E-4
-0.001386232
-0.0013011609
-0.0018735221
-0.0024885114
-8.9106907E-4
1.8950374E-4
7.554067E-4
4.028363E-4
-7.764798E-4
-0.0010838233
-6.9216924E-4
1.433132E-4
-6.026426E-4
-0.0020708763
-0.0024699373
-0.0025858246
-8.8428834E-4
3.0422554E-4
-2.6213255E-4
5.431392E-4
0.0012959569
0.0020810433
0.0028315787
0.0017042009
5.782085E-4
-2.5078293E-4
-9.1104326E-4
-6.23399E-4
-2.6414987E-6
2.3625346E-4
-1.19514436E-4
1.8865542E-4
6.041156E-4
6.086981E-4
8.164687E-4
6.415088E-4
0.0017529727
0.002176853
-1.844999E-5
-1.6858414E-4
7.0365414E-4
1.4867495E-4
-2.8045606E-4
-0.0014399077
-0.0019766411
-6.280169E-4
3.5806882E-4
-1.595641E-4
-6.794232E-4
5.514537E-4
0.001330582
9.61115E-4
-2.2250829E-4
-0.0036788895
-0.0038803576
-3.2344513E-4
-4.5831525E-4
-0.0011911966
3.357115E-4
5.958608E-4
9.614912E-4
0.0012653623
9.470449E-5
-5.6290673E-4
-9.199982E-4
-8.1922824E-4
5.5948713E-5
1.7335762E-4
0.0010125827
0.0021861864
8.004707E-4
6.7668344E-4
0.0025172983
1.5723356E-4
-0.001850061
7.1618706E-4
7.775097E-4
-2.3246499E-5
0.0015852093
0.001056537
4.2397412E-4
6.092974E-4
-8.523318E-4
-0.0010892025
-9.962646E-4
-0.0022874358
-0.0016130771
-2.3343047E-4
-0.001309102
-0.0017630695
-4.2523778E-4
-4.311698E-4
-8.0328493E-4
-7.2054146E-4
-8.08136E-4
3.283857E-4
0.0011125284
0.0010736936
0.0014345193
0.0015084672
0.0021721558
0.0022668068
6.405642E-4
-6.647345E-4
-3.2711093E-4
9.1403816E-4
6.189618E-4
-4.9556253E-5
5.548067E-5
3.6509807E-4
9.70066E-4
-2.8411462E-4
-3.313262E-4
-6.3160485E-5
-0.0010497097
0.0018924098
-0.0012132017
-0.004304166
0.004195774
-0.001576429
-0.013693419
-0.0048965984
0.002841175
6.9167936E-4
0.0017958101
0.0025487277
0.0011049925
-5.4725615E-4
-2.541604E-4
0.0017842678
0.0027423273
0.0030874652
0.0014138693
8.356252E-5
9.3544344E-4
1.1341025E-4
5.332862E-6
0.0017178337
4.2727642E-4
-0.0015371764
3.5513376E-4
0.0012276102
-4.497095E-4
-2.7239305E-4
-0.0020577011
-0.0041413363
-7.887205E-4
0.0014338639
1.0203913E-4
-4.1911355E-4
5.757517E-4
0.0017008652
0.0012014067
5.785114E-4
-3.5330572E-4
-0.0016589632
-0.0013411114
-0.001649477
-0.0013313408
8.882741E-4
0.0018852383
0.0015659148
-6.5843386E-5
-8.322372E-4
0.0011243543
0.0017158969
-1.6231992E-4
-5.0076895E-4
0.001352425
0.0010304857
-6.656577E-4
-9.636472E-4
-0.0029707677
-0.004151054
-9.865485E-4
0.002068546
0.0020281284
-4.023845E-4
-0.001306116
3.5909496E-4
5.2560883E-4
1.7633349E-4
6.036425E-4
-3.0230268E-4
-0.0012157919
1.02905826E-4
0.0013134966
-6.471913E-4
-0.0024988377
-0.0011217723
6.336993E-4
0.0011014482
6.9952995E-4
4.0564383E-4
0.0011983932
0.0016950745
0.0015354116
0.0015705093
0.0016435834
0.0012447101
-2.0980362E-6
-7.259587E-4
2.3676992E-4
0.0022181137
0.00360963
0.002747861
0.0011586356
-8.7710895E-4
-0.005329176
-0.0077305567
-0.0039656824
2.9438586E-4
-4.5174E-4
-0.0019692811
-2.3018025E-4
5.626786E-4
-4.8117206E-4
-4.655843E-4
-3.5435014E-4
7.3003107E-6
1.3185455E-4
-7.7039585E-4
-8.704206E-4
-1.8605556E-4
7.7052077E-4
1.288071E-4
-7.309507E-4
0.0014388491
0.0013674254
1.023331E-4
0.0016504995
0.0012220304
0.0013484306
0.0022536227
2.8541603E-4
7.2473905E-4
0.0019806281
0.0016412749
0.0028148112
0.0021386275
-5.5371044E-4
-0.0011590436
-0.0014389727
-0.003598018
-0.0032089127
3.7610525E-4
5.180538E-4
-2.032945E-4
0.0011464129
8.7999797E-4
5.090595E-4
-9.5780025E-4
-0.0027663447
-0.0016977891
-9.807919E-4
1.0870485E-4
-1.47497485E-5
-0.0023143569
-3.044325E-4
0.0017705178
5.3289234E-5
1.5210296E-4
0.0010759968
-2.1820006E-4
-0.0015017377
-7.549551E-4
-1.685825E-4
-4.1989834E-4
-1.15949355E-4
-9.378371E-4
-0.0010633443
5.988272E-4
0.0010493362
9.680914E-4
6.789778E-4
7.6604134E-4
7.567695E-5
-0.0027525546
-0.001437773
0.0011888442
-7.696086E-4
-0.0019296935
-0.002449347
-0.0016659336
0.002381063
0.002863446
0.0015892079
0.0038382637
0.0064598643
0.006300487
0.0041940394
0.0030724285
4.980044E-4
-0.0043366696
-0.0064404067
-0.0050850953
-8.555671E-4
0.0017979125
9.472588E-4
0.0013182074
-5.2582433E-5
-0.0017154645
-0.0011248033
-0.0036606085
-0.0049398025
-0.0031076528
-0.0016630901
2.4900737E-4
7.930399E-5
2.0658897E-4
0.0021573184
0.0028551419
0.00438735
0.0056426153
0.0049316627
0.0032828418
0.0016879255
7.2510354E-4
-7.3805253E-4
-9.127254E-4
-0.0024587556
-0.0072737397
-0.008467845
-0.004845404
-0.001271975
-0.002135604
-0.0028852813
-0.0012042754
-0.0036079478
-0.0024182296
-0.002873349
-0.012636231
-0.0093316855
9.562068E-4
0.0018622306
0.0050814752
0.0070508537
0.006431747
0.008567844
0.0067694406
0.0063630394
0.010892486
0.01581656
0.020226175
0.018666986
0.009304412
-0.002336667
-0.010302398
-0.013161057
-0.009765489
0.0019653044
0.011001426
0.007155423
-0.0066461414
-0.022415238
-0.025377836
-0.015498671
-0.008943144
-0.00615994
-0.0035249267
-0.0047556413
-0.00664972
-0.00507265
-6.8962417E-4
0.0022841017
4.503364E-4
-0.0012921343
8.612626E-4
0.0059230393
0.00972598
0.0065383962
0.0036366025
0.005847388
0.0060463822
0.0074495156
0.010250634
0.009081204
0.0080677075
0.00630524
0.002592317
-1.789046E-4
-0.00200029
-0.0028350612
-0.006402148
-0.008086702
-0.0027354374
-9.444006E-4
-0.003213164
-0.0032859587
-0.0027562599
-8.1365084E-4
2.3253399E-4
-6.2622014E-4
-4.709511E-4
-6.7406625E-4
-0.0011341367
-0.0011100709
-5.921217E-4
3.726639E-5
-2.1006394E-4
7.239577E-4
8.675887E-4
-0.0019912776
-0.0038892664
-0.004102263
-0.003165173
-6.2198075E-4
0.002007758
0.0033754793
0.0025357525
0.0022813152
0.0037458902
0.002679982
5.314592E-4
1.221519E-4
-7.8329194E-4
-0.002080329
-0.002616354
-0.0024753793
-8.7731617E-4
8.9262385E-4
0.0013360025
0.0023483094
0.0040171547
0.004145033
0.002017519
-0.002140867
-0.0040078033
-8.348075E-4
0.0019621341
0.0017406754
6.3340296E-4
-6.042407E-4
-0.0029628756
-0.0062857294
-0.00428945
0.0016606305
0.002278649
0.0017229641
0.0027519085
5.145795E-4
-4.403248E-4
3.0867025E-4
-0.001359041
-0.0015393173
6.35791E-4
0.0024928479
0.0031083266
0.0012771938
-6.316191E-4
-0.0011764355
-0.002859322
-0.0028044388
2.619836E-4
-5.8298312E-5
-0.0015061805
2.8260358E-4
5.133003E-4
7.1458064E-4
0.0023041917
0.0018215087
0.0017748739
6.152101E-4
-0.001479444
-9.139414E-4
-0.0023697035
-0.0031481916
-3.1688015E-4
-1.3636246E-4
3.8223315E-4
0.0029195829
0.0024501716
-1.0326752E-7
-0.0011787964
0.0010217844
0.004159184
0.0039077033
-3.1215075E-4
-0.0041520204
-0.001999542
2.9851482E-4
-0.0021172045
-0.0037118606
-0.004343264
-0.003564526
-9.6135197E-4
6.1020354E-4
0.0037968731
0.0049942373
0.0017652193
9.290718E-4
5.1190687E-4
-3.0573708E-4
6.412221E-4
-0.0014754212
-0.0028920355
-8.060503E-4
-6.026323E-4
6.529084E-4
0.002071144
1.0223842E-4
8.392242E-4
0.0031049452
0.002453338
0.0012213124
3.0638216E-4
-1.1261365E-4
-9.4810093E-4
-5.322011E-4
0.0020689247
0.002135827
0.0021552476
0.0026697915
-0.0013444239
-0.00559988
-0.0056637516
-0.0033223566
-0.0021534876
-0.0010562812
0.0017079504
0.0010029813
-7.4019976E-4
-8.2891475E-4
-0.0020055897
-0.0010505188
9.6368336E-4
0.0011103846
-0.0021930672
-0.0029617369
0.0038450689
-5.3719524E-4
-0.011085304
-0.0054651853
0.0020244794
0.0040625837
0.0064496836
0.005656791
0.00558065
0.005867855
0.006246029
0.0065238294
0.0015417059
-0.004072212
-0.0070331795
-0.005579966
-2.0346047E-4
0.0029226753
0.003935856
0.0029905313
0.0018927152
5.044049E-4
-0.0025421535
-0.002677053
-0.004877292
-0.008021206
-0.0057364292
-0.003638151
-0.0013276422
4.0323575E-4
0.0011887803
0.0027766705
-7.6742255E-4
-0.0022929132
-1.590257E-4
-0.0024129995
-0.0017758575
8.1400666E-4
8.926487E-4
0.0022777813
0.0032525067
0.0037758024
0.0033161093
0.0022831934
0.0029228716
0.0033737551
0.005980129
0.0078288615
0.004976835
0.003239049
2.040426E-4
-0.0043096743
-0.0027871942
-0.0018515494
-0.0060256175
-0.0070818965
-0.004541898
-0.0033102825
-0.0050030253
-0.007860299
-0.0067445035
-0.0047656503
-0.006255523
-0.0053946152
-0.0026579793
-7.687048E-4
0.0037971786
0.0085011115
0.01026637
0.010002319
0.007040762
0.0032278548
0.0030412057
0.0061581195
0.0056424392
0.0028070293
0.0050999355
0.006020645
0.001607515
-1.0257707E-4
0.0010680956
0.0011410501
-4.6932528E-4
-0.002522666
-0.0045121335
-0.008808171
-0.01240768
-0.012182193
-0.010662131
-0.008305809
-0.0071042594
-0.008646371
-0.009120118
-0.00642697
-0.0018801496
0.0017253527
0.0033412825
0.005322087
0.009270335
0.014546042
0.017804181
0.017668929
0.016778922
0.013238482
0.0049334657
-0.0037855392
-0.008891486
-0.008565264
-0.005239373
-0.0030295106
1.8658096E-4
0.002546881
-1.4681548E-4
-0.0016006675
0.0013883478
0.003928803
9.526027E-4
-0.0082887355
-0.013216552
-0.010003508
-0.00748666
-0.005846893
-0.0039059815
-0.0032520958
-0.0017135103
-9.5085576E-5
0.0020257004
0.0055953157
0.007612957
0.005977263
0.002890134
0.0030185098
0.002861047
5.2945426E-4
0.0012379814
7.6953584E-4
-0.001594798
-0.0023750064
-0.0042264992
-0.0030744374
-0.0018714356
-0.0054041096
-0.0033473773
0.0015188628
2.1849544E-4
-9.436032E-4
0.0015006112
0.005104087
0.00737721
0.006713225
0.0049052374
0.0034030161
0.0026819555
7.5548235E-4
-0.0019572207
-0.0026856468
-0.004989502
-0.00665719
-0.0022885345
0.0028666703
0.0060500936
0.0073407
0.0022952312
-0.00652826
-0.0093671335
-0.004146565
0.0016801679
0.0027499325
-0.001526381
-0.006189174
-0.0058797305
-0.0045917626
-0.0033367309
-0.0011213667
-0.0021910423
-0.0046789106
-0.008617189
-0.0120619275
-0.007546936
-0.0013478061
0.003352427
0.011769442
0.018763997
0.020273985
0.019851755
0.020406898
0.01967685
0.017188884
0.015610433
0.011073331
0.005618499
0.0012577194
-0.008504959
-0.017640257
-0.023533875
-0.03150754
-0.03554538
-0.03684075
-0.036275614
-0.029296858
-0.027203295
-0.027589392
-0.018072944
-0.0111946305
-0.005770171
0.008539107
0.012089634
0.00435689
0.006061073
0.014002032
0.024255099
0.033798333
0.036178064
0.038387343
0.038266785
0.032772105
0.03582726
0.051667515
0.06642409
0.064267024
0.047480386
0.029326078
0.014352427
0.0044093593
-0.009025044
-0.034924984
-0.061812732
-0.0832119
-0.09864718
-0.09865426
-0.08169073
-0.059377305
-0.042962227
-0.028216476
-0.009438495
0.007528338
0.020450914
0.027480556
0.037842378
0.062279284
0.07536843
0.061693225
0.042068332
0.029786019
0.027950436
0.03089287
0.0208932
-0.013688526
-0.06294744
-0.095393784
-0.09473263
-0.07339002
-0.04168448
-0.014499865
-0.014002713
-0.023003528
-0.009545476
0.0064635086
0.0048538083
0.013574205
0.044183753
0.057857964
0.028874824
-0.0051218765
-0.009932799
0.01110791
0.051716566
0.07854441
0.08287685
0.08517838
0.07853221
0.10464244
0.16463923
0.17640385
0.1383478
0.063989386
-0.04365849
-0.14537401
-0.23644525
-0.3008619
-0.33018526
-0.32127836
-0.22403486
-0.0726954
0.037543092
0.07323641
0.06936696
0.08253323
0.10547639
0.11915093
0.09372739
-0.01919974
-0.13711329
-0.16081743
-0.0896707
0.06530206
0.21748877
0.27911618
0.27942756
0.22893064
0.12131852
0.016309734
-0.047114033
-0.0821283
-0.093081065
-0.07391027
-0.04355112
-0.025364505
-0.009109722
0.0053757206
-0.015603869
-0.07633987
-0.12602235
-0.109247915
-0.051632397
-0.035743207
-0.065964885
-0.08699173
-0.07408119
-0.037375405
-0.009405031
0.0092280125
0.04055731
0.07194699
0.093274504
0.10403186
0.08406238
0.017728366
-0.04963444
-0.04336526
0.019767303
0.074700765
0.093080126
0.06438645
0.01918467
-0.010302609
-0.025562607
-0.01618443
0.01621268
0.049533434
0.053366154
0.013828914
-0.025917977
-0.03965144
-0.053219985
-0.06961329
-0.062157754
-0.01928019
0.035286594
0.04822564
-0.010835
-0.08619028
-0.10113041
-0.06682276
-0.031032596
-0.006561609
0.014440761
0.03666923
0.03636088
0.01023875
0.0022323474
0.011805204
0.012096881
0.021004466
0.038123515
0.03912472
0.028096532
0.011645817
0.0038483294
0.015049435
0.017756931
0.0017078005
-0.018076647
-0.031157685
-0.021612193
0.0015277606
0.010619359
0.0043953857
3.8981976E-5
0.004036721
0.0034189082
-0.003343923
-0.0068013673
-0.010150746
-0.010443766
-0.006913595
-0.0043384125
-1.8430792E-4
0.001500424
0.0031453522
0.009203607
0.011576806
0.010880523
0.010650879
0.008761387
0.006122166
0.004106216
0.0018706395
-0.00189134
-0.003815957
-0.003213224
-0.003074933
-0.0036437912
-0.0065304316
-0.006430618
-0.0030333374
-0.002942041
-0.0024851435
-0.0062652887
-0.008120913
0.0025942246
8.833475E-4
-0.009432347
-8.004358E-4
0.008178678
0.006962975
0.0046440223
-0.0011917667
-0.00368288
-0.0039914604
-0.006272056
-0.0047978717
-0.004206278
-0.004700735
-0.004671817
-0.006426407
-0.005663865
-0.0040159593
-0.0015239726
0.0026825338
0.003017582
0.0026595937
0.0049416353
0.0077017182
0.009573728
0.009438893
0.008012593
0.00470542
0.0036313608
0.0071214912
0.009486688
0.013165227
0.016303843
0.0145011665
0.016236626
0.014278797
-0.0048446245
-0.025771594
-0.03083301
-0.026206788
-0.020371225
-0.012580821
-0.007011218
-0.0054612136
-0.0039436
-0.0042699515
-0.0030956217
-2.7076993E-4
2.8258917E-4
0.004956405
0.0077683963
0.0057722707
0.0045095854
-0.005810517
-0.010901806
0.0021731118
0.009573834
0.0104742665
0.0126599185
0.009161635
0.0072318655
0.008982946
0.008937298
0.00457159
-0.0030915327
-0.005808115
-0.007916641
-0.012485244
-0.011916876
-0.009468949
-0.0068261987
-0.003275361
-0.0015844532
2.2134087E-4
7.6649094E-4
1.1355552E-4
0.0020392886
0.004186217
0.004905882
0.006346049
0.009661877
0.012589093
0.011631883
0.008154426
0.0043349895
-6.068762E-4
-0.0039427024
-0.0030879313
-0.0027407212
-0.0051237345
-0.0069934437
-0.008655979
-0.009843142
-0.008439805
-0.0056771864
-0.0015523098
0.0011517624
-0.0042718276
-0.010038726
-0.0054527847
-6.7085767E-4
-0.0011642678
-1.5427778E-4
-1.4379853E-5
0.001827717
0.00856458
0.011812484
0.00982285
0.007689707
0.010624852
0.0126334485
0.003632708
-0.0040820707
-0.0037060825
-0.003357541
-0.0017695881
-0.0012768529
-0.0035426293
-0.0047822106
-0.0053538857
-0.0032908535
-6.5253826E-4
-6.1208586E-4
-0.0010855318
-0.0026173932
-0.004802997
-0.0058797705
-0.0054387283
-0.0049055507
-0.0040097605
-1.9341917E-4
0.0035722556
0.007815815
0.012398192
0.011668945
0.008263877
0.001436695
-0.005358799
-0.0026598296
-5.56536E-4
-0.002832256
-0.001696414
2.3076011E-4
0.0046329335
0.009327785
0.0065931897
7.911409E-5
-0.004385137
-0.0040095793
-0.002493523
-0.003614192
-0.0031021824
-0.0023804437
-0.0027921493
-0.0014096485
-7.815625E-4
-0.0022802274
-0.0030894922
-0.0018040749
-0.0023494298
-0.0050872886
-0.003226764
8.048729E-4
0.0016357258
0.0010168931
-6.7064376E-4
-0.0023777077
-0.0015268014
0.0013562472
0.003009114
0.0027007167
0.0027645242
0.002697493
0.0028261675
0.003166584
0.002287599
0.002639562
0.0035372938
0.0032076738
0.0033700753
0.0036686866
0.0023689035
-0.0013160914
-0.0033457917
-0.0025842786
-0.0030945097
-0.0023157569
-0.0012849545
-0.002943236
-0.0028819805
-0.0012628079
-3.4049727E-4
-7.746761E-4
-0.002763517
-0.0036841095
-0.0023322182
1.3432476E-4
2.2495711E-4
-6.439798E-4
0.001944294
0.00517524
0.0060493397
0.0033686773
-1.9746431E-4
-4.764233E-4
0.002026829
0.0037943549
-0.0045985137
-0.012051258
-0.0013499819
0.007434454
0.005135549
0.002708869
-0.0015552627
-0.0021915268
-8.4757776E-4
-0.0039151073
-0.0044476553
-0.0031266129
-0.002637033
-0.0024222133
-0.0013303951
0.001680459
0.0031047547
0.0030140444
6.6732574E-4
-8.545137E-4
2.9772677E-4
-0.0015312785
-3.4086563E-4
0.0029311706
0.002167197
0.0018464895
4.115481E-4
0.0015287199
0.003708136
8.747625E-4
0.00219559
0.0038308275
0.0013126942
0.001428079
7.42512E-4
-0.0012066127
-0.0028452612
-0.003660297
-0.0021871221
-8.56999E-4
8.450503E-4
6.25587E-4
-8.688699E-4
-2.4608188E-4
-8.083939E-4
-7.1602815E-4
-8.955471E-4
-0.0033057071
-0.003005679
-0.0014597799
-6.289813E-5
8.1641675E-4
-1.9976415E-4
-1.693602E-4
5.830072E-4
8.854794E-4
0.0014940075
0.0016403537
-7.000357E-4
-0.003895132
-0.0024239891
5.8658345E-4
0.0017461588
0.002939722
0.0012868105
-4.429121E-4
0.0015067742
0.0018434337
4.236229E-4
0.0015786187
0.0022211184
-0.0019016438
-0.004262893
-0.0018022468
-0.0010240908
1.4360268E-4
0.0014983753
2.1378546E-4
0.0019817515
0.0028844194
3.4974943E-4
0.0010272985
0.0011970425
-0.0011905509
-0.0012268735
-4.4702354E-4
-0.0018135385
-0.003320747
-0.0022669549
-4.9750874E-4
2.7272712E-5
5.3703546E-4
8.6284324E-4
0.0011486572
0.0020359724
0.0017314405
4.7425283E-4
0.0011753431
0.0024123949
9.412664E-4
-9.3512045E-4
-0.0010864815
-0.0018723762
-0.0029393232
-0.0014380156
5.6651415E-4
-4.0001006E-4
-0.0017208463
-7.5456355E-4
3.9051555E-4
-4.4593622E-4
-0.0024475174
-0.001565955
9.852478E-4
-2.465568E-4
-0.002207506
-0.001509389
-4.6669223E-4
4.763243E-4
0.001126587
0.0017232052
0.0026044706
0.0016862039
-7.419087E-4
-8.555793E-4
0.0015830544
0.0026941265
0.0037084462
0.005234302
0.0034889427
0.00282425
0.004696747
0.0027238738
-0.0017910147
-0.005501751
-0.0063879015
-0.0040963553
-0.0027795234
-0.0022149137
-0.0013463823
-8.3747035E-4
-5.532693E-4
-0.0012211937
-6.503602E-4
-7.166035E-4
-0.0024706544
-4.8772257E-4
7.969573E-4
-0.0013218204
-6.994212E-4
0.0015261238
0.001846896
-2.2083655E-4
-5.7546754E-4
0.0026034382
0.0036784364
0.0030697605
0.0015122951
-5.8839197E-4
5.284323E-4
9.944019E-4
1.289977E-4
-3.5520367E-4
-0.0014742513
-5.7146506E-4
1.4275858E-4
4.331519E-4
0.0010164144
-0.0011799311
-0.0024232473
-0.0025866593
-0.0021345809
6.0048464E-5
-2.4474756E-4
-3.724342E-4
1.1815088E-4
-8.499135E-4
1.3533348E-4
6.5063976E-4
4.672923E-4
0.0018060695
0.002590566
0.0012421885
-9.723638E-4
1.9261942E-4
0.0012043109
3.470773E-4
0.0018331968
6.447261E-4
-7.848578E-4
0.0020111832
0.00177223
-5.785406E-4
-3.9043205E-4
6.0750457E-4
-3.8339928E-4
-0.0024549556
-9.3309133E-4
0.0024254352
0.0021402831
-0.0013609014
-0.0024899135
-0.0018717715
-0.003113408
1.03737075E-4
7.131266E-5
-0.010354107
-0.009195406
0.002123262
0.0034132819
0.00196212
0.0020890431
-8.292815E-5
8.8070425E-5
0.0017857745
0.002553168
0.0027899768
0.00260298
0.0024837274
9.968672E-4
-1.0202028E-4
0.0015511285
0.0020910774
3.5639887E-4
-7.8195846E-4
-6.412622E-4
0.0010791237
0.002196168
0.001090693
2.914874E-4
-6.959135E-4
-0.001976243
-0.0022429258
-0.0030431414
-0.0025638475
-8.686082E-4
-0.0016280458
-0.0021768496
-4.4059317E-4
2.2877616E-4
-4.6854315E-4
-2.112391E-4
1.6323388E-4
3.8127473E-4
0.0016415451
0.0019809708
0.0014530652
0.0014189485
8.7068096E-4
5.3235865E-4
-4.8364218E-5
-8.5458584E-4
-2.2153497E-4
2.9747596E-4
9.117411E-5
6.133578E-4
0.0020199742
7.636989E-4
-0.0030159552
-0.0019499882
7.810673E-5
-0.0026543282
-0.0020351305
0.0012167661
-1.497365E-4
-0.0020413576
-0.0012440514
-3.1440653E-4
8.643825E-4
0.0022651558
0.0019268787
0.0012818575
0.0010099651
-1.9912106E-4
-3.4208622E-4
-5.1019265E-4
-0.0018754066
-9.841326E-4
6.959659E-4
0.0011911743
0.0021784822
0.0025894
0.0016226745
-8.156823E-5
-0.001569867
-0.0010155637
-2.2867648E-4
-8.38398E-4
-3.4373614E-5
9.634647E-4
-9.5996285E-5
-1.9067574E-4
2.6505438E-4
-2.5901166E-4
-2.5143448E-4
-4.3382926E-4
-2.8757664E-4
5.8350945E-4
5.3901854E-4
-7.3421186E-5
-9.167781E-4
-8.4170233E-4
-4.6257616E-4
-0.0012940532
-1.7457976E-4
0.0012534834
-3.051741E-4
-1.919591E-4
0.0013047276
-4.8176982E-4
-0.0016704958
-1.1834206E-4
-6.539164E-4
-0.0014149722
3.368221E-4
5.681009E-4
4.4365352E-4
0.0014931863
0.0010889486
0.0012459453
0.0017027566
6.049673E-5
-0.0011520549
4.2358264E-5
0.0014413701
-3.8820916E-4
-0.002800202
-0.0021440475
-9.2605926E-4
2.687971E-4
0.0012332208
0.0013111079
0.0018756927
0.0013197799
4.966262E-4
2.5576976E-4
-0.0015361352
-0.0020403324
-7.755817E-4
-0.0010102266
-0.001602259
-3.2717694E-4
0.0020019624
0.0026485135
0.0017489339
4.393749E-4
-7.5810903E-4
-5.388599E-4
-6.4068247E-4
2.864767E-4
0.0026398462
0.0012727747
-3.718127E-4
3.0242236E-4
5.137967E-4
0.001065744
-5.3659314E-4
-0.002388867
-0.0018774851
-0.0024360816
-0.001968741
-5.960537E-4
4.17662E-4
0.0017483426
5.9433386E-4
-3.8662113E-4
-2.4039322E-4
-7.968271E-4
-1.8291928E-5
-2.5619264E-4
-0.0019601851
-0.0014614107
0.0014504858
0.0028065336
7.676858E-4
5.8237085E-4
9.4084523E-4
-8.6094224E-4
-3.6134705E-4
-1.9072201E-4
-0.0011737096
-6.264727E-4
-8.071268E-4
-1.171013E-4
0.0017829918
0.0027893856
0.0021561733
3.52282E-5
-4.2797183E-4
-9.057056E-4
-0.0015275958
0.001436585
0.003258818
0.0015575972
-4.9272312E-5
-6.99765E-4
4.887969E-4
0.0011888896
-0.0013109103
-0.0022810916
-4.4852262E-4
-8.64438E-5
4.7108895E-4
0.0020187576
0.0014661993
2.5660014E-5
-9.6364826E-4
-0.002310133
-0.004202247
-0.0022894617
0.0017041966
-0.0054736594
-0.012526402
-0.002900773
0.0038908971
0.002643401
0.005610986
0.0047350554
0.002010473
0.0034861187
0.0019119445
-6.1229843E-4
-5.1140954E-4
3.6120968E-4
7.9989084E-4
6.808648E-5
0.0015710648
0.0029553904
-4.6893497E-4
-0.0027087752
-0.0010622297
4.3211607E-4
0.0014986339
9.3711884E-4
-0.0015563413
-0.001712903
-3.6501553E-4
-7.9367304E-4
-0.00104551
-5.666472E-4
-5.736305E-4
-6.276163E-4
-0.0018293755
-0.0024093727
-1.980131E-4
4.0571977E-4
-5.128237E-4
9.7455306E-4
0.0021277596
0.0016715522
0.0015433463
0.0015039116
0.0013038547
0.0014968202
0.002155712
5.3914165E-4
-0.0010059255
7.574887E-4
-6.0922967E-4
-0.0026881981
-0.0011505416
-0.0016248422
-9.2285295E-4
2.1549789E-4
-0.0016282378
-1.9644849E-5
0.0016613526
5.795346E-4
1.6093146E-4
-0.0011698874
-0.0012986511
2.540677E-4
7.7354E-4
-3.8786727E-4
-0.0016912374
-2.1206411E-4
4.108811E-4
-6.569267E-4
-4.819894E-5
5.4349797E-4
5.92994E-4
3.5376247E-4
4.1914298E-4
8.902731E-5
-9.57563E-4
-2.0091425E-4
1.1351752E-4
7.063705E-4
0.0019058522
6.9125515E-4
7.4560486E-4
8.9826353E-4
1.1900029E-5
1.7222117E-4
-9.469096E-4
-2.2008631E-4
0.001051979
-6.8858295E-4
-0.0012300747
-1.456574E-4
0.0016985283
0.0017526969
-2.8241466E-4
-4.023772E-4
9.7033E-5
0.0010787144
-2.1265938E-4
-0.0027603551
-4.5411184E-4
-2.4193763E-4
-0.0015428471
8.776232E-4
0.0010013261
1.609099E-4
-8.011252E-4
-0.0014867309
2.9892975E-4
-0.0011926792
-0.0019801771
6.235369E-4
1.1870735E-4
8.369646E-4
0.0030094446
8.016866E-4
-0.0018181371
-0.0010236432
4.2254542E-4
-4.5518778E-4
-0.0011487856
3.951188E-4
9.6888555E-4
5.4995774E-4
8.167456E-4
0.0014940575
0.0021995015
8.750343E-4
-9.6424273E-4
-2.6858228E-4
5.8197055E-4
9.668369E-4
0.0011420425
-0.0013129164
-0.0038213483
-0.002976434
-9.183467E-4
3.5912057E-5
-2.260165E-5
-2.838771E-4
9.312664E-5
0.0010587643
4.2864092E-4
-9.925618E-4
6.4506475E-4
0.0012104545
-0.0016114011
-8.79966E-4
0.0018238369
0.0016165444
0.0012984037
0.0014944345
7.275179E-4
-3.1300576E-4
2.7441813E-5
8.438479E-4
1.845193E-4
0.0010010051
0.0022367516
6.161811E-5
-6.722868E-4
0.0014563871
7.389501E-4
-0.0018170065
-0.0020375373
-0.0016185475
-0.0019547744
-0.0012989226
-8.6775236E-4
-8.667607E-4
-1.1474286E-4
-9.6231866E-5
7.7656785E-4
0.001051856
-0.0023286773
-0.0032306747
-0.0013413792
-0.0013809173
-2.1729391E-4
0.0010531091
4.3777382E-4
0.0010309936
0.0011219406
3.4275436E-4
0.0011522142
0.0019139551
0.0017264959
0.0016749153
0.0014062856
-4.952031E-5
-3.8198594E-4
9.076082E-4
-1.4275506E-4
5.7352783E-5
0.0027582212
0.0015904378
7.5030414E-4
0.0018576911
-1.188543E-5
-7.301297E-4
4.0921487E-4
7.451623E-4
0.0010229939
5.432493E-4
-0.001458142
-0.003942108
-7.873734E-4
5.713219E-4
-0.010138179
-0.011536774
0.001071355
0.004359883
0.0014629693
6.473443E-4
-2.9413772E-4
3.740291E-4
3.8997823E-4
8.216802E-4
8.209913E-4
-0.0016777446
-6.9632527E-4
0.0014163047
0.0012075559
0.0014389531
0.0016585293
0.0017132153
0.001103933
0.0015671987
0.0027388935
9.772212E-4
6.4791617E-4
0.0021758894
0.002113392
0.0019609374
1.4446865E-4
-0.0018471639
-0.0025852593
-0.004317305
-0.0034451887
-3.165206E-4
9.878592E-4
8.147037E-4
-0.00103211
-0.0019320673
6.495452E-5
0.0012217232
9.5088343E-4
8.697927E-4
7.0600474E-4
4.502208E-4
-3.7223054E-4
-0.0018302536
-0.002475002
-0.0014246665
5.147281E-5
5.7740975E-4
5.902274E-4
3.7683995E-4
4.3966845E-4
5.3235644E-4
-0.0013804823
-0.0031357643
-0.0018610668
-6.232125E-4
-2.0856498E-4
0.001003017
0.001347646
0.0015389381
0.0020435017
9.236133E-4
7.871487E-4
0.0020919265
0.0016460252
7.4439566E-4