-5.0558604E-4
-8.8478235E-4
6.0382276E-4
0.0018704137
0.0010406182
-7.101691E-4
-6.21698E-4
-4.4178698E-4
-3.7128117E-5
0.0010779956
-2.7661741E-4
-3.4704592E-4
7.510273E-4
-2.913188E-4
-4.3882043E-4
8.316952E-5
0.0012380957
9.166861E-4
-6.680863E-4
0.0010513193
9.629985E-5
-0.0025578681
-7.1642065E-4
0.0011337643
0.0023604245
0.0025888477
0.001286115
8.839557E-6
-0.0018031588
-6.2401616E-4
9.919269E-4
6.0535243E-5
8.291666E-4
0.0014451874
7.0432725E-4
7.7758E-5
1.8504446E-5
-3.3067624E-4
-0.0025156024
-0.0028304546
-0.0021630526
-0.001823905
2.0796564E-4
-1.6705654E-4
-8.467111E-4
4.6917726E-4
-1.0646338E-5
-6.14648E-4
-2.1042372E-4
6.6061417E-4
8.282339E-5
-0.0013050005
3.4420125E-4
9.224096E-5
-0.002590229
-0.0011739263
0.0016464972
0.001324664
2.930859E-4
0.0013129011
7.2057755E-4
-6.9917063E-4
0.001255424
0.002121205
0.0014100034
0.0011477795
-1.8647626E-4
-8.7342603E-4
-4.660944E-4
5.5319397E-4
9.69786E-5
-5.436301E-4
0.0023073645
0.0033778443
0.0015364361
-2.4253957E-4
-8.474067E-4
0.0012851598
0.0010901145
-0.0014058684
-0.0027026646
-0.0028738682
-7.729596E-4
0.0011939618
0.0031943575
9.752287E-5
-0.0046148994
0.0015740979
-0.0025959949
-0.016878856
-0.010045309
0.0026360683
0.0048366846
0.00451847
0.0022434515
0.0029392636
0.0030529827
2.7723867E-4
0.001108805
0.001761086
0.0021046763
0.0020472596
6.9877587E-4
6.421426E-4
-6.5190706E-4
-3.194081E-4
9.2816027E-4
-1.5805288E-4
0.0010203122
0.0016470298
5.869924E-4
4.2239268E-4
-0.0010638216
-0.0015682472
-8.8122895E-4
-5.9722585E-4
2.12835E-4
-8.751385E-4
-0.002650765
-0.0017556204
-4.5741114E-4
-6.4127595E-4
-5.427397E-4
1.8306554E-4
0.0010193639
0.0023697068
0.002188322
0.0010092489
7.9312216E-4
-2.8644703E-4
-4.3873017E-4
3.1400344E-7
-0.0019402109
-0.0015788617
0.0012829317
0.0013997512
-5.9974027E-5
-0.0011095714
-0.002147379
-0.002123221
1.2608556E-4
7.653988E-4
-0.0021993655
-0.0018965537
0.0019309581
0.0027603258
0.0015376493
1.7773514E-4
-0.0018743622
-0.003120152
-8.756628E-4
0.003033123
0.002331092
-1.4023791E-4
4.6609223E-4
1.4842222E-4
-5.722809E-4
-4.0174427E-4
-1.724998E-5
0.0023159373
0.0021957357
-1.7077215E-4
-5.8238376E-5
-4.5791725E-4
-3.0873387E-4
0.0013346075
3.615446E-4
-0.0010651334
-9.744033E-4
-0.0010302596
-0.0011243962
-4.0006958E-4
8.170693E-4
7.325733E-4
-2.7725364E-5
-1.9203752E-4
-2.9694196E-4
5.7718127E-5
2.337223E-4
4.5555283E-4
6.667256E-4
-0.0010822219
-0.001841267
-5.9378635E-6
6.63383E-4
-4.8821844E-4
-0.0010310896
4.6918224E-4
0.001152292
-2.7179427E-4
2.5325455E-4
0.0015401699
0.0018433661
0.0023481066
5.6372804E-4
-0.0010835567
-7.287237E-4
-0.0015809909
-0.0010175299
4.8504182E-4
-1.5125665E-4
-9.4563694E-4
-0.001185515
3.0169706E-4
0.0016589642
-2.3418836E-5
-0.0011841719
-5.470947E-4
9.6668996E-4
9.040982E-4
-0.0017228636
-6.132151E-4
0.0014230772
-4.955235E-4
-2.0218178E-4
8.2713924E-4
-2.1513886E-4
-1.066941E-5
-3.5502395E-4
-4.773556E-4
7.0595925E-5
-0.0011212211
-0.0012383701
-6.58247E-4
1.2304426E-4
0.0024316562
0.0025764804
0.0014048163
5.197831E-4
-0.0015640627
-0.0012155633
9.1870164E-4
0.0011945886
0.0016170036
0.0016969391
4.6476547E-4
-7.2495466E-5
-4.9295294E-4
-0.0010029405
-1.8771156E-4
7.1040326E-4
7.7623216E-4
8.3522045E-4
1.551489E-4
-0.0010062186
-0.0014189288
-0.001657963
-0.0015471219
-0.0012715928
-0.0013784295
-0.0012180404
-0.0013730809
-5.328106E-4
0.0016220579
0.001339514
2.2155566E-4
7.0445106E-4
1.4667181E-4
-5.468919E-4
-2.1481793E-4
-3.3956513E-4
-4.6623024E-4
-8.695843E-4
-0.0010756887
-2.9940644E-4
-1.2701684E-4
-1.4381668E-4
-1.3038011E-4
-1.2281912E-4
9.628179E-4
0.0012620962
8.350452E-4
5.132379E-4
2.2575143E-4
0.0017255798
0.0011303726
-0.0013971445
4.203918E-4
0.0023874096
0.0022626948
0.0028683573
0.0021025352
0.001363811
7.260001E-4
-0.0016412721
-0.0019185004
0.0011799146
0.0023499061
9.331042E-4
0.0030190407
6.5743306E-4
-0.0066202297
-7.115611E-4
2.6488095E-4
-0.014782647
-0.012070287
0.001777569
0.0024461257
0.0014047758
0.001877694
0.0010612581
5.4755074E-4
-5.661592E-4
0.0014178155
0.002174189
4.722207E-4
8.38486E-4
3.301706E-5
8.489472E-4
0.0029504346
0.0015141425
0.0014576205
0.0015444807
-0.0014151516
-0.0018996982
5.541543E-4
0.0021752096
0.00197417
9.5196045E-4
5.015796E-4
-1.6205579E-4
-0.0010873048
-0.0016318064
-0.0025076952
-0.0026356059
-0.0020957682
-0.0014516357
5.044176E-4
0.0012514478
7.862402E-4
0.0020225835
0.0019742234
8.7352487E-4
7.350845E-4
-6.139975E-4
-0.001117472
-2.5378844E-5
7.914456E-4
0.0024488857
0.0025204816
-9.58839E-5
-7.1409444E-4
2.1889477E-4
-4.963594E-4
2.1108503E-4
0.00101055
-0.0030534582
-0.0050590527
-0.0020049594
-0.0015482903
-0.0021272919
-0.0010473788
-5.962049E-5
0.002221333
0.003059948
9.4779226E-4
1.0608329E-4
7.35556E-4
7.535978E-4
4.949485E-4
4.6406148E-4
-5.009487E-5
-7.879567E-4
-8.7261014E-4
-0.0012413503
-6.620132E-4
0.0020394055
0.0026742462
4.4740812E-4
-2.0208689E-4
5.77415E-4
1.4877848E-4
-8.776085E-4
-0.0013458389
-6.0506264E-4
0.001451431
0.0027492489
0.0019506905
3.5066906E-4
-3.183955E-4
-1.6618127E-4
-0.0012133626
-0.0024634593
-0.0015616977
-4.451518E-4
-2.6909416E-4
5.8341822E-5
-1.8292376E-4
-6.595277E-4
-8.834297E-5
3.3270835E-4
3.504066E-5
3.5640292E-4
2.2485314E-4
-7.03895E-4
-6.6668226E-4
-0.0018317697
-0.0026733612
4.4756167E-4
0.0016624306
5.214965E-4
0.0013905597
8.506831E-4
0.0013311892
0.0024682453
-0.0010141353
-4.6057923E-4
0.0035791069
0.0016356976
4.6540343E-5
1.9297961E-4
-0.0010765716
3.4853205E-4
0.0011935129
-2.6612327E-4
-0.0011324236
-0.0027754263
-0.003169925
-0.0012213887
-2.9350637E-4
-9.1640046E-4
-8.8349497E-4
5.9762615E-4
9.559779E-4
9.292635E-5
2.08933E-4
8.2227227E-4
0.002141426
0.003146157
0.00215896
6.229143E-4
-9.99281E-4
-0.0019621456
-0.0012048434
-6.243638E-5
7.3281047E-4
3.3648952E-4
-8.1862474E-4
-1.4070667E-4
6.1427784E-4
-6.1755726E-4
-9.594011E-4
-1.5056822E-4
-1.0507652E-4
-1.9903698E-4
-8.9573E-4
-0.0016305828
-8.1304857E-4
-1.7191713E-4
8.12854E-5
3.537511E-4
-6.466016E-4
-0.0019007012
-0.0022182893
-0.0013035131
-4.4361586E-5
7.0893025E-4
0.0020283957
0.002805435
0.0033342391
0.004961026
0.0051661846
0.0029048375
-8.6384173E-4
-0.0040422194
-0.00517524
-0.0049235555
-0.002698162
-0.0012852221
-0.0015916335
7.9428044E-4
0.0030635395
0.002125271
0.002160758
0.003594794
0.002368674
-2.5673135E-4
-4.448716E-4
-6.548941E-4
-0.0024545419
-0.002958169
-0.0011722519
0.0017324578
0.0025523023
0.0023814829
0.0027573446
8.3664834E-4
-5.1956315E-4
-0.0010218815
-0.003071407
-0.004290286
-0.0035783031
4.847848E-4
0.00275311
0.0023655503
0.002706787
-0.0031124775
-0.0021470722
0.0044119856
-0.00866479
-0.015680954
-0.0016348731
0.0033117759
0.0026067833
0.004144199
0.0015985917
0.001542212
0.0026003935
0.0023331814
0.0026285935
0.0021057485
0.0011965903
-3.9684805E-4
2.591007E-4
0.0020583158
0.0010481044
7.541537E-4
-9.135851E-5
-0.002537246
-0.0011844803
0.002547423
0.003373793
0.0016189959
7.379864E-5
-0.0015873683
-0.0022959334
-9.957276E-4
-0.0011229551
-0.0019629558
-0.0015441405
-9.6927E-4
-4.1946062E-4
-0.0013442575
-0.001972045
1.2607616E-4
0.0016759505
0.0017455361
0.0018842393
0.0019604627
0.0011130057
-9.0814434E-4
-0.0013277815
3.776759E-5
5.525067E-4
0.0014519444
0.0017880115
-4.1646362E-4
-0.0012962426
-6.182309E-4
-0.0015187331
-0.003113787
-0.0043690912
-0.0031625943
-7.642251E-5
3.7554675E-4
-6.523772E-4
-0.0011221961
-0.0012325622
-5.394733E-4
5.506505E-4
0.0024583542
0.002768343
8.238105E-4
8.8865505E-5
-6.1572384E-5
0.0010928329
0.0017865276
-0.0010564493
-6.810676E-4
0.0032628954
0.004411012
0.004231373
0.0035951068
0.00198549
0.0010267532
0.0010066393
-2.1826527E-5
-0.0036141207
-0.00491195
-0.0020082162
-1.714631E-4
2.6537623E-4
-0.0014243253
-0.0049976655
-0.004071059
-6.8626856E-4
6.655127E-4
0.0016579567
9.3998876E-4
-3.208366E-4
4.72152E-4
2.5663222E-4
-0.0013374294
-0.002036361
-0.0012586471
1.9119465E-4
0.0012059931
0.0027250634
0.003420662
0.0017153493
7.2578865E-4
0.002021231
0.0027985065
5.2880566E-4
-0.0012293556
-5.600744E-4
-0.002408843
-0.004184335
-0.0024893626
-0.001648587
-7.3304656E-4
9.224589E-4
8.535863E-4
4.3464988E-4
2.1529014E-4
-7.995065E-5
-0.0014179583
-0.0026273793
-8.515856E-4
3.851144E-4
-1.3927517E-4
0.0011467139
0.0029404424
0.0029267196
0.0018665089
0.0016016768
0.0017444817
0.0014114138
0.0013235537
-6.248417E-4
-0.0026474788
-0.0012505724
-7.3039695E-4
-6.8591133E-4
4.328198E-4
-9.0413913E-4
-0.0010130074
7.777929E-4
0.0014296501
0.002731552
0.0013780801
-0.0014614987
-0.0016732386
-0.0034951475
-0.004723727
-0.0024953
-7.6468365E-4
-4.3292425E-4
-0.0013531849
-9.698638E-4
8.7040884E-4
0.0011784825
0.0017643472
0.0012233289
1.2111839E-6
0.0013079689
0.002675026
0.004330717
0.0031554308
-0.0016981083
-0.0025881028
-0.0032943864
-0.0040485947
3.498886E-4
0.0024465492
0.0040243813
0.007115282
0.0039429055
5.985866E-4
2.3825401E-4
-0.001096962
6.8618276E-5
2.549795E-4
-0.0023355966
-0.0024607545
-0.0033547275
-0.005081314
-0.0028726482
-0.0012166129
-0.0021845538
-3.831117E-4
0.0017670228
-3.143295E-4
-0.0018798469
-8.862716E-4
2.1555372E-4
0.0022774497
0.0028673604
7.846577E-4
-1.6823287E-4
-0.001496267
-0.0031282348
-6.4454356E-4
0.0022814989
0.0017193804
6.308141E-4
-6.837312E-4
-0.0016401329
1.12244394E-4
0.0015027795
8.802514E-4
7.645449E-4
9.2970644E-4
9.71995E-4
0.002437906
0.003935535
0.0026598424
0.0012862127
-2.6273046E-4
-0.005414525
-0.0065250853
-0.0024716752
-0.0026494863
-0.0029806637
2.0165031E-4
0.004082818
0.008381802
0.009092618
0.0076362803
0.0058259433
0.0012866693
-0.0028822105
-0.007519522
-0.010716047
-0.008265892
-0.004657871
-8.651777E-4
4.7476E-4
-2.6573878E-4
0.0038374388
0.0049056923
-1.8565425E-4
-0.0021927706
-0.0023586964
-0.0020159425
-7.865989E-4
-0.0012168314
-9.5573446E-4
-5.658327E-4
-0.0016091141
-9.121364E-4
7.5096515E-4
6.260947E-4
-2.2075856E-6
3.043846E-4
0.0015175181
0.004268818
0.0060297404
0.005554478
0.006418882
0.0055464157
8.9315855E-4
-0.0020955298
-0.0026731046
-0.0016790206
-0.001075277
-0.0027114134
-0.0030263893
-0.0024826874
-0.0022191347
-7.143103E-4
-6.9256633E-4
-0.0036566956
-0.0052491473
-0.00260685
-1.9266344E-4
0.0011085039
0.001742955
-0.0013974413
-5.269838E-4
0.003396939
2.4519247E-4
-0.0021668412
-5.484205E-4
5.961176E-4
0.0015467326
8.145356E-4
0.0021268993
0.00571425
0.007951464
0.008047009
0.0043958244
0.0024830766
0.0019840635
-0.0035684516
-0.009024008
-0.0072554057
-0.0025711088
-0.0027213285
-0.0011597628
0.0012651087
-0.0023093487
-0.0017181237
-0.001616169
3.3609424E-4
0.0077965804
-0.0040237065
-0.012620161
0.0013973032
0.0045093615
0.003789948
0.005396495
-0.0054386244
-0.009184793
-0.002067579
0.002244974
0.0029180541
9.891813E-4
0.0017668684
0.0042925375
0.0051165456
0.005362299
0.0034348816
0.0010212691
3.5735604E-4
-4.8486283E-4
-0.0035681105
-0.0061885505
-0.004857684
-0.0028174068
-0.0033083905
-0.003252469
0.0013895718
0.0037731852
-3.9918505E-4
9.864311E-4
0.007128124
0.007038224
0.0040938784
-1.12563845E-4
-0.007424625
-0.010178352
-0.004322028
-2.4781137E-4
-0.0025786313
-0.001821319
0.0016625858
0.002733838
0.0049944706
0.008524714
0.010613299
0.011134285
0.0095896665
0.0030699212
-0.006482906
-0.009205739
-0.005586986
-0.0046964907
-0.006150518
-0.0044428296
-8.470505E-4
-0.00146897
-0.00334445
-0.0014071476
1.5270118E-4
-9.013378E-4
-0.0026603632
-0.0024055997
-0.0012126275
-0.0023184135
-0.0022896132
-9.264765E-4
-9.705906E-4
-7.5509364E-4
5.43678E-4
0.0015649771
0.0013564035
0.0037078976
0.005150883
6.5479364E-4
0.0028619422
0.010766606
0.009414003
0.004198859
0.0012843423
-0.0021291713
-0.0037975963
-0.0036156415
-0.0061343536
-0.0094553
-0.006837508
-0.0029600454
-0.004365515
-0.006093295
-0.005645599
-0.0039331405
-0.0036648037
-0.008761961
-0.009607635
0.0011883423
0.008037358
0.0028595112
7.372666E-4
0.0058690375
0.008891513
0.006281931
7.5983646E-4
0.0012928098
0.00631962
0.009304043
0.01639697
0.02199118
0.016811008
0.0069613503
-9.415774E-4
-0.0081090545
-0.01990168
-0.022695888
-0.014133511
-0.018638106
-0.020885397
-0.009070435
-0.008396409
-0.009121705
-0.0015877272
4.6061128E-4
0.002579122
0.0052813846
0.0073586795
0.018425114
0.030063603
0.032166224
0.030881256
0.028059533
0.02049704
0.012539404
0.01059278
0.015109748
0.016548444
0.0059250966
-0.010617386
-0.031531073
-0.058679376
-0.07423467
-0.070127904
-0.061517607
-0.05606215
-0.04818659
-0.032832865
-0.012159239
0.011433252
0.033012353
0.043533728
0.05096532
0.07031913
0.096698456
0.11398876
0.113621406
0.09821074
0.07150661
0.041731536
0.018703977
-0.0031337524
-0.02824099
-0.056205805
-0.08510025
-0.10049497
-0.10595648
-0.11635073
-0.1237018
-0.12349942
-0.117707245
-0.10507052
-0.083742045
-0.045979317
-0.0050967694
0.027713891
0.06970449
0.11682329
0.14339146
0.13537398
0.113264896
0.1098914
0.11908701
0.12522988
0.10689913
0.057451073
0.027565911
0.022921344
0.0072336327
-0.014973817
-0.03955886
-0.056415953
-0.06415264
-0.089721926
-0.13158256
-0.162147
-0.15526058
-0.13307622
-0.12421175
-0.089055486
-0.03615549
-0.015668254
-0.0042393
0.027312143
0.07622554
0.1206574
0.14948452
0.19995737
0.24570434
0.21308187
0.13052572
0.040903464
-0.06187234
-0.13939102
-0.1515365
-0.12468299
-0.09608535
-0.058836028
-0.009917536
0.016757036
0.03175352
0.031408515
-0.045315742
-0.14076707
-0.16423076
-0.14138815
-0.085243866
0.009742725
0.10653267
0.14620103
0.103338316
0.045191895
0.023325374
0.033479102
0.05616004
0.040993594
0.0074233
-0.0020547437
-0.013228348
-0.02039393
-0.005996059
0.03281633
0.084916785
0.0966665
0.075651444
0.07271134
0.071571805
0.028999869
-0.06489709
-0.1623672
-0.19970037
-0.17294274
-0.11501102
-0.03942396
0.049114093
0.115330316
0.104199015
0.024650062
-0.03627491
-0.059048075
-0.088120624
-0.09432277
-0.06250216
-0.030766997
-0.00584779
0.011636583
0.026669992
0.025991358
0.018290004
0.050571397
0.07117295
0.07019893
0.12150648
0.18497747
0.19064485
0.08782731
-0.07365991
-0.12353788
-0.08704981
-0.07332204
-0.051944114
-0.019601263
0.013529059
0.039838932
0.015478679
-0.036699895
-0.07055246
-0.081326365
-0.0806457
-0.0769248
-0.057955854
-0.027015675
-0.0015995847
0.01835491
0.03269138
0.039692625
0.043073818
0.044845536
0.042996828
0.039118957
0.03766659
0.03306338
0.021799942
0.010307272
0.002513504
-0.0021782985
-0.005713443
-0.010401136
-0.014278471
-0.011668601
-0.007878542
-0.006408205
-2.4826697E-4
0.0029392573
-0.00118213
-0.0032888716
-2.711374E-4
0.0068935403
0.010565094
0.009552304
0.004903903
-0.0017804791
0.0030473617
3.629596E-4
-0.01658058
-0.01316731
-0.0045183557
-0.0073099565
-0.0031691391
-0.002538236
-0.009065305
-0.011330759
-0.010245058
-0.0049495157
-2.1679299E-4
-0.0013205123
-0.0031888094
-3.25041E-5
0.0028436054
5.861491E-4
6.251634E-4
0.0017891972
0.0011931473
0.0022775372
0.0022238172
0.0017526521
0.0023107184
0.004023667
0.0065041664
0.00578966
0.0027717173
-0.0016505539
-0.005002244
-0.0052707125
-0.0053334553
-0.0041393144
-0.0023567253
-3.2950396E-4
0.0013740489
0.0019686737
0.0061184056
0.010559596
0.010633677
0.007021288
0.0039950567
0.0053873286
0.004171962
0.0016030194
2.634928E-4
-0.0013481296
0.0039622365
0.009892909
0.012167305
0.011614335
0.008408776
0.009977677
-0.003382868
-0.02314835
-0.013730896
-0.0043376125
-0.010099367
-0.00951322
-0.010695125
-0.013924868
-0.014772651
-0.013822136
-0.0070405244
-0.001558722
6.84488E-4
0.0011407385
5.034602E-4
-6.469342E-4
-0.0051286668
-0.0050287605
-8.334447E-4
8.874742E-4
0.003244291
0.004901341
0.0077780294
0.011746884
0.012284196
0.010671755
0.008773903
0.009574666
0.0078821145
0.0035561062
0.0032066868
-8.39828E-6
-0.0034898103
-0.0060231686
-0.01269943
-0.01090498
-0.0026337688
4.5013273E-4
0.0024675983
0.006323579
0.011799559
0.01348702
0.007352912
-5.68161E-4
-0.004350393
-0.0039492524
-0.00651537
-0.008993745
-0.005140923
-0.004643929
-0.0077671227
-0.0068011056
-0.004264472
-0.0027411145
-0.0013491747
1.5064387E-4
-2.173719E-4
5.6169974E-4
9.7127864E-4
-0.005998874
-0.007930086
-5.074483E-4
0.0019544233
0.0012840293
1.6366987E-4
-0.0021525987
1.320791E-4
0.0028439276
0.003338279
0.0058939387
0.008518852
0.0077555254
0.0056757564
0.006151766
0.006390872
0.0037945677
7.2671485E-4
-8.7293744E-4
8.020343E-4
7.24708E-4
-0.004060198
-0.0067581623
-0.006396434
-0.0048243823
-0.0024468356
-9.949949E-4
-4.5739257E-4
-0.0013113384
-0.0012857133
4.5935987E-4
3.0686072E-4
-6.110706E-4
-7.235441E-4
-0.0012333215
-0.0016679417
-6.7980395E-4
6.28539E-4
-3.738769E-4
-0.0013274748
2.6478138E-4
0.0017648347
0.0016497535
0.0010434879
7.767918E-4
7.526671E-4
8.604042E-4
0.0010416699
0.0015053616
0.0018366672
0.0011160825
0.0010667528
0.00145381
5.081868E-4
2.4061643E-4
1.3716306E-4
-0.0015905419
-0.0023318883
-0.001433081
-0.0015960174
-0.0011503918
7.944647E-4
-2.9025783E-4
-0.002064167
-0.0013242883
-0.0012865402
-0.0013378988
-0.0015702767
-0.0010535914
0.0015264803
0.0011078714
-9.197448E-4
-0.0010587765
-1.9731189E-4
0.0010827347
0.0015519267
0.0025579426
0.002395469
0.001180823
0.0018440847
0.0018198254
0.0025058684
0.0022777915
3.8172558E-4
2.0216439E-4
-0.001976283
-0.00218344
-4.300261E-4
-2.9873068E-4
0.0020005798
8.951334E-4
7.088588E-4
9.589697E-4
-0.003458684
0.0017024846
-7.0813287E-4
-0.014613956
-0.0074970014
0.0026593837
4.8396055E-4
0.0018583771
0.0016125245
0.001045571
0.002381575
0.0011693684
0.0012776516
8.7782956E-4
5.650081E-4
8.6131896E-4
2.1406572E-4
8.281218E-4
0.0015086555
0.0016676752
-3.9908E-4
-7.7091757E-4
0.0020066972
-2.4257174E-4
-0.001761908
-6.444617E-4
-7.9160335E-4
0.0019446687
0.0014997249
-1.0177509E-4
9.705033E-4
-0.0019028579
-0.002268473
-6.399127E-4
-0.0020122738
-0.0016508248
-0.0015958073
-3.745056E-4
0.0024267808
0.0022618682
0.0016876793
0.0014787904
0.0013274198
5.9186027E-4
-7.4521574E-4
-4.692793E-4
0.0011087534
0.0024884732
-6.8418175E-4
-0.0010551366
0.0023493618
-0.007649883
-0.012854337
2.3468131E-4
0.0039964644
3.1804125E-4
0.0018864176
0.0020277957
0.0018950383
7.9703546E-4
-6.380654E-5
2.1803044E-4
-9.928909E-4
4.7724145E-5
-3.230704E-4
-9.612132E-4
0.0021359741
0.0015550388
-7.487237E-4
-7.167845E-4
-4.973731E-5
6.997353E-4
-1.9671398E-4
-7.7283045E-4
-6.5248954E-4
-4.2614082E-4
7.593014E-4
4.973305E-4
-7.730336E-4
-0.0011378457
1.9785557E-4
0.0012340291
3.6147106E-4
5.1689544E-4
6.2682026E-4
8.219233E-4
0.0013304527
1.8384133E-4
0.0011761948
0.001492869
-0.0011041826
-9.252404E-4
7.376594E-4
0.0018416519
0.0016764749
-2.1963172E-4
-0.0018948113
-0.0021516965
-2.2710861E-4
-9.674181E-4
-0.0023997952
-8.158085E-4
-0.003875992
-0.0044588484
9.815635E-4
2.3736322E-4
-6.0576346E-4
0.0021292348
0.0015553129
0.0011318552
0.0014457656
-9.859799E-5
-0.001651929
-6.9656456E-4
0.001118172
9.2055E-4
0.0016865653
0.0018907007
3.2141534E-4
5.629476E-4
-8.152331E-5
3.735014E-5
0.0016731928
0.001085166
0.001035311
1.2995252E-4
-5.071914E-4
0.0010579706
-6.881297E-4
-0.0015262759
-4.3333208E-4
-0.0018153136
-0.0011270915
-4.9061736E-4
-0.0010946085
7.414398E-4
6.093471E-4
-4.8688648E-4
2.7122904E-4
-3.6877094E-4
-8.2152575E-4
-4.7206716E-4
-9.476538E-4
5.666977E-5
0.0011956295
-3.574031E-4
-0.0016807866
-9.523546E-4
3.5846964E-4
0.0020886443
0.002888781
0.0018285073
7.357598E-4
1.6093669E-4
4.7133368E-4
0.0010172011
-2.5020834E-4
-0.0015753009
-1.2301917E-4
0.0014086583
3.832713E-4
7.542462E-4
0.0011468688
-0.002511166
-0.0032056314
-1.287634E-4
5.0026807E-4
4.4520004E-4
-7.886114E-4
-0.0024849707
-0.001007557
-2.8674865E-6
-9.5351547E-4
-0.0013898456
-0.0011391974
-5.5540324E-4
5.237433E-4
0.0010609739
-4.0312973E-4
-4.7082474E-4
0.0013364205
0.0013070988
0.0011650098
0.0011387272
0.0010527563
0.0025349697
0.0030495934
0.0016352873
7.479597E-4
0.0012518934
1.9195191E-4
-0.0016354894
-0.0010503017
-8.10319E-4
1.6066757E-4
0.0012843789
3.4803577E-4
7.1504124E-4
-6.460361E-4
-0.0016226248
2.6777736E-4
9.395451E-4
0.0013158009
-0.0029222446
-0.0026383125
0.0024784296
-0.008904338
-0.013193173
0.0019679607
0.0045217485
0.0010301046
0.0031932404
0.0023752474
0.0015371861
6.513473E-5
-2.2533188E-4
4.204588E-4
-0.0014156498
2.2053571E-5
0.0011345448
4.206436E-4
0.0028296995
0.0035228122
0.001325016
1.1164602E-4
8.2411314E-4
0.0017536602
8.6112594E-4
-4.55531E-6
4.4352614E-4
0.0011614528
3.4567967E-4
-0.0013940018
-0.0014826659
-0.0018867501
-0.0025086636
-0.001104978
7.709188E-5
-1.2860434E-4
-0.0019872694
-0.0031004837
-6.4241374E-4
3.2005348E-4
-8.5112057E-4
6.126069E-4
0.0016309362
7.7915465E-4
0.0010954675
4.7998884E-4
-0.0013772375
-6.763703E-4
9.999933E-4
7.4809315E-5
-7.607462E-4
6.135775E-4
9.788407E-4
5.2807387E-4
0.0011782087
9.072764E-4
-2.2538738E-4
-5.564655E-4
-5.120588E-4
-6.8151695E-4
-8.4926985E-4
-1.17102136E-4
8.156861E-4
8.435145E-4
4.5123248E-4
-3.253586E-5
4.01489E-4
0.0011181557
5.637102E-4
5.292447E-4
0.0011421206
1.1328314E-4
-0.0012124197
-6.904028E-4
-5.5145513E-4
-4.4121445E-4
0.001620895
6.5798237E-4
-0.0022831082
-9.2412933E-4
9.1637066E-4
1.0426917E-4
-0.0010402331
-6.5568683E-4
9.4896805E-4
8.0909993E-4
9.4670904E-5
-0.0015574618
-0.0040494823
-0.0016330173
2.2096018E-4
-0.002128479
-9.296418E-4
0.0013717001
0.0019400737
0.0032926286
0.0025939469
0.0011200113
0.0013285843
4.4434678E-4
-1.9514398E-4
0.0011035095
0.0013057506
0.0011165247
0.0010740514
-0.0012516103
-0.0018980021
-7.7756384E-4
-0.0017668642
-3.488558E-4
0.0013830025
-6.5113755E-4
-9.991151E-4
-6.013763E-4
-0.0010629926
-1.242467E-4
-7.445043E-5
-6.823584E-5
4.6604272E-4
-5.7857705E-4
-0.0012687478
-6.260094E-4
2.624102E-4
4.7351775E-4
-9.5687414E-5
-1.3971534E-4
6.584783E-4
0.0018220044
0.0017347321
1.689033E-4
-7.3448877E-4
-6.0607004E-4
2.2191858E-4
3.0106623E-4
2.199297E-5
0.001566483
8.6597994E-4
-0.0018961977
-3.6604726E-4
0.0014898499
-0.0011818053
-0.002607771
3.7688407E-4
0.0017967576
7.889777E-5
3.033644E-4
5.209813E-4
-2.1076016E-4
0.0010228743
1.2596076E-5
-0.001103798
0.0012689768
0.0014942664
8.1674085E-4
3.7647583E-4
-0.0010805662
-1.0212626E-4
-8.087103E-4
-0.0029213566
-0.001587227
-6.8381144E-4
5.1274314E-4
3.6187188E-4
-0.002199377
-2.6345407E-4
0.0014156932
0.0010486821
0.0024295389
9.086359E-4
-3.5106187E-4
6.9773983E-4
-2.1668199E-4
-0.00141684
-0.0019354668
-0.0018994075
-0.0015432322
-4.98822E-4
1.07093E-5
-9.77244E-4
8.84243E-4
0.0016463238
1.2980106E-4
0.0017409987
0.0016328203
7.54291E-4
0.0019262009
0.002238138
0.0016904025
-6.628047E-4
-8.6119317E-4
-2.7967E-4
-0.0012767806
0.0016186014
0.0019257758
-5.0627347E-4
5.5098167E-4
4.2159198E-5
-1.4953558E-4
0.0018306687
0.0015746594
-0.0011528383
-0.0010733679
0.0015776095
-9.1430877E-4
-0.0022093558
-0.0030220642
-0.0058707525
0.0012967008
-9.162549E-4
-0.014389635
-0.0074423365
0.004122076
0.0043192203
0.004477133
0.0028282013
0.0027326765
0.003713617
0.0012272504
7.109058E-4
3.0751212E-4
-6.73365E-4
4.2272225E-4
0.0013474884
0.0018047331
0.0018551172
0.0010597792
6.5089687E-4
8.944988E-4
4.6265262E-4
3.5673348E-4
5.148709E-4
-2.5299698E-4
4.5645382E-4
-1.19564866E-4
-0.0023485094
-0.0011628916
-7.1172154E-4
-0.0020039163
-0.0018797764
-0.0020211549
-0.0015297029
-0.0013395426
-0.0014061651
6.006339E-4
0.0018829827
0.0014578651
3.388493E-4
-5.187708E-4
4.5862093E-4
5.1213475E-4
-0.0015577436
-8.7945716E-4
0.0021720238
0.0024020472
0.0014022259
4.180038E-4
-0.0010401475
1.5005319E-5
0.00117175
9.353842E-4
-2.9634027E-4
-0.0031315351
-0.0014425323
0.0018048972
8.33087E-4
6.4335205E-4
2.4008765E-4
-2.6738696E-4
3.1117635E-4
-0.0011632576
-6.453203E-4
0.0013215567
8.398596E-4
-1.6735814E-4
-4.3172447E-5
0.0011842585
-6.926564E-4
-0.003048501
-7.163768E-4
-4.8513722E-4
-0.0019624827
-3.6056762E-4
3.5070162E-4
6.0465565E-4
0.0017552603
0.0013419851
-2.0179228E-4
-8.7505375E-4
5.133372E-4
0.0019495032
2.7961808E-4
-0.002451451
-0.0016757911
2.7570533E-4
-4.522804E-4
-2.9777575E-4
6.653334E-4
-2.6838118E-4
-4.964982E-4
9.730378E-5
0.0015164787
0.003158972
0.0022587182
9.087473E-4
-4.5363416E-4
-0.0016602698
2.5272556E-4
0.002071912
4.435697E-4
-0.0013738328
-1.7470942E-4
8.273916E-4
-8.734639E-4
-6.9518044E-4
6.2148814E-4
-7.2430594E-5
-1.08999004E-4
3.6905752E-5
-1.5956865E-4
-2.319849E-4
-9.223823E-4
-7.5967255E-4
-8.701744E-4
-0.0015632549
-0.0012757708
-7.491507E-4
8.1346027E-4
0.0010685701
-0.0016997363
-0.0019450517
3.488526E-4
4.1708958E-4
-5.65814E-5
6.646341E-4
-1.077504E-4
-0.0010315884
6.100446E-4
0.0011483633
4.0632574E-4
0.0015390093
0.0017459538
0.0010801826
9.899201E-4
-7.052547E-4
-0.0015495485
-2.7956403E-4
3.0098477E-4
4.009454E-4
5.1982675E-5
-4.385323E-5
0.001221262
0.0016068083
8.593962E-4
2.3894811E-4
2.3874764E-4
0.0010004756
1.6114925E-4
-6.9551443E-4
7.962733E-4
2.461352E-4
-0.001248223
-6.141308E-5
-6.840669E-7
-0.001006983
-2.4332372E-4
-1.0693722E-4
-1.5252343E-4
9.1179134E-4
-3.0380514E-4
-0.0027902385
-0.0028559335
-0.0017127973
-0.0016107034
-0.002391007
-0.0010741805
0.0018772833
0.0024072442
0.002264022
0.0026775533
0.0015120535
4.174947E-5
-5.806558E-4
-3.5716678E-4
-6.2801066E-4
-0.00259715
-0.0022209317
0.0011625041
8.646919E-4
-0.001985718
-2.4428163E-4
0.002074074
7.033866E-4
-7.876143E-6
-1.9706256E-5
3.869195E-4
6.7707204E-4
-5.8841496E-4
2.9816464E-4
0.0014091118
0.0011836078
7.7428995E-4
-6.329494E-4
0.0015754055
0.0036413034
0.0014281737
-4.4785856E-4
-0.0010050567
0.0019649568
0.0028862644
4.7844005E-4
2.6900752E-5
-0.0024107448
4.928083E-4
0.0023996287
-0.0026576957
9.958524E-4
-0.0045351973
-0.015876606
-0.0062598996
7.4123405E-4
-6.792053E-5
0.0028650376
7.585982E-4
0.0010133904
0.0024164098
3.030707E-4
6.118489E-4
8.9253514E-4
0.0015023894
7.510062E-4
-2.3548995E-4
9.698246E-4
4.0220685E-4
0.0018709669
0.0031375908
0.0019261481
0.0022039094
-6.615752E-5
-0.0012355077
0.0016677411
0.002310384
9.753648E-4
-1.0247879E-4
-3.9840798E-4
-7.7163114E-4
-0.0021390198
-0.0027925745
-0.0015313482
5.8939937E-4
1.671308E-4
-0.00147096
-0.0013140675
-9.814486E-4
-6.1053573E-4
-3.0652873E-4
-3.360817E-5
8.365438E-4
7.4815186E-4
-2.0146789E-4
-8.112095E-4
-6.1212457E-4
-4.3907657E-4
-4.613522E-4
2.7375692E-4
2.3955268E-4
-5.09005E-4
-1.8249104E-4
4.1314232E-4
-4.7254466E-4
-9.21766E-4
4.9608026E-4
-0.00113769
-0.0024134554
0.0022122276
0.004333031
0.0022733654
0.0010838927
4.211191E-5