0.0023459224
0.0012323494
0.0013459108
-0.0011327282
-0.004076405
-0.0060894666
-0.003931866
-2.0826267E-4
-8.855682E-5
1.5132677E-5
0.0011500705
0.0015283766
5.196363E-4
-0.0010672376
-0.0011079329
-4.5460643E-4
7.866602E-4
0.001263534
-1.8418854E-4
2.659321E-4
0.0022288323
0.0029592246
0.002245005
-1.6909456E-4
-8.1357296E-4
0.002127736
0.002743879
-2.583002E-4
-7.2659185E-4
9.003665E-4
0.0013028858
0.0015548784
1.5749141E-5
-0.0023136633
-0.001864046
-0.0020061191
-0.0029523103
-0.0011395566
3.8506865E-4
-1.4413733E-4
4.9063435E-4
8.53184E-4
-0.0011150258
-0.0011617556
-3.6575232E-4
-0.0017361896
-4.2421088E-4
0.0011705222
-5.5994187E-4
-1.2581862E-4
0.0012305885
8.278385E-4
6.4030953E-4
-1.2217025E-5
1.8250987E-4
0.0012532736
7.2885316E-4
-3.8238624E-4
-0.0011121669
-6.756826E-4
6.9918885E-4
0.0010902439
1.3140061E-4
-0.0020342849
-0.0028167693
-4.2452745E-4
0.0015173334
0.001450951
8.947148E-4
2.941684E-4
1.2948073E-4
4.2607344E-4
9.7406766E-4
0.0011620336
4.7399005E-4
6.692369E-4
0.0013654795
1.1019228E-4
-7.34049E-4
3.0406666E-4
1.479051E-4
-9.842657E-4
-0.0011084169
-3.068788E-4
-2.9161078E-4
-0.0015653778
-4.218016E-4
0.0014623253
5.296725E-4
2.571494E-4
-1.7301049E-4
-9.926012E-4
1.5177696E-4
-2.2564242E-4
-3.9236262E-4
7.9006143E-4
3.0452295E-4
3.8965401E-4
-4.68499E-4
-0.0020839043
-0.0010150613
2.0494255E-5
2.9372643E-6
-5.749364E-5
1.2421468E-4
8.78315E-4
0.0019842265
0.0022282952
3.3632602E-4
-2.432842E-4
1.1783958E-4
-0.0013731201
-0.0022125232
-0.0026336745
-0.0014209112
8.819223E-4
5.920437E-4
-6.21935E-5
-8.500298E-4
-9.83924E-4
-5.8953103E-4
-0.0010167044
0.0010648835
0.0012269083
-8.216647E-4
7.306519E-4
0.0019150571
0.0014293059
7.339873E-4
-1.3430988E-4
-7.742999E-4
1.1855579E-4
0.0027324257
0.0010561643
-1.3304851E-4
0.0037613474
0.0046618627
0.0033414084
0.001729361
3.6476113E-4
-0.0016948662
-0.0047259927
-0.001458869
1.0964137E-4
-0.0019696588
-3.8800176E-4
-0.0011519803
1.6650058E-4
-3.6657835E-5
-0.0026060382
0.0013064626
-0.0065965983
-0.015413785
-0.004545302
0.0021897862
0.0019325361
0.003113974
7.0055283E-4
4.5754705E-4
7.326278E-4
5.659329E-4
0.0027584978
0.0025783458
0.0011926359
3.3707454E-4
2.2984607E-4
0.0019298581
0.002938955
0.002011148
9.225308E-4
9.36505E-4
9.4126945E-4
0.001594545
0.002142576
5.311217E-4
-5.2867377E-5
2.848693E-4
6.8698975E-4
0.0013755659
-0.0011640844
-0.0032736964
-0.0016426072
-9.1739366E-4
-0.0016029007
-0.0010208748
5.668075E-4
4.1123418E-4
-0.0013279016
-0.0010326504
-6.563857E-5
-0.0013702101
-0.0021182278
-0.0011356905
-7.508596E-4
4.9124064E-4
0.0011829456
-0.0010028504
-9.94648E-4
6.1806553E-4
3.8232214E-5
-7.8758213E-4
-0.0015208557
-6.21575E-4
4.2084808E-4
-0.001673736
-0.0015482755
0.0011159052
0.001067916
3.9600878E-4
0.0016109801
0.0027869563
0.0028771444
0.0027828864
0.0013134079
-6.501843E-4
1.5682267E-4
0.0011541757
5.3786626E-4
-1.6672694E-4
-0.001005452
-0.0011649383
-3.3496934E-5
0.0012918595
5.8281125E-4
-9.712611E-4
-5.512867E-4
-4.3384774E-4
-7.459522E-4
-6.200267E-4
-0.0012249465
-9.376717E-4
-0.0011035973
-0.0016643687
-8.3178957E-4
-0.001417258
-0.0012427268
3.8424254E-4
2.421504E-4
0.0012778888
0.0024272662
0.0015926234
8.4214046E-4
-0.0010035296
-0.0016109273
-2.190125E-5
3.063824E-4
7.6276093E-4
1.4959023E-5
-0.001775658
-1.6371965E-4
8.33897E-4
1.8079953E-4
0.0017000149
0.0017238233
-3.8908944E-5
-3.5521816E-4
-5.903527E-4
-8.135787E-4
-3.184357E-4
4.9917237E-4
0.0012951725
9.2544314E-4
-5.734959E-4
-0.0013803511
-7.622426E-4
1.3333291E-4
9.818084E-4
8.4547576E-4
-7.1505306E-4
-4.8673333E-4
9.3403057E-4
0.0011165334
0.0012578255
3.9186643E-4
-6.2565395E-4
-1.6215522E-4
-5.518695E-4
-0.0011084257
-0.0014512782
-0.0021677038
-0.0010152656
3.018156E-4
-3.00253E-4
-7.3044986E-4
-8.8470767E-4
-9.117118E-4
5.2332965E-4
7.1369525E-4
-0.0014892813
-0.0013313007
0.0011615349
0.0025983066
0.0020961263
-9.0018046E-5
-5.871846E-4
5.2785457E-5
-5.209078E-4
2.0163401E-4
5.773753E-4
-6.3880543E-6
4.6387248E-4
0.0010402935
0.0020022127
0.0015202846
6.270116E-4
0.0020360576
0.0016884964
1.3149668E-4
-2.0513675E-4
-0.0010917389
-0.0010195988
-6.066618E-4
-0.0011390516
-1.2987752E-4
-5.8745925E-5
-0.0024895375
-0.002238219
-8.844101E-4
-0.0018226592
-6.7860965E-4
0.0010059047
-1.9874319E-4
-0.0012009784
-0.0017707224
-0.0016935162
-0.0013177195
-0.002009214
-2.47055E-4
0.0020256185
4.685168E-4
-0.0010183535
-3.1809727E-4
7.68078E-4
0.0019872296
0.0022799175
0.0024057792
0.0033447845
0.00195967
5.707003E-4
0.0019222806
0.0017462943
0.0010237279
-1.53798E-5
-0.0017592146
-7.2637416E-4
-9.910091E-4
-0.0011719826
0.0011918588
9.365021E-4
5.7636865E-4
3.516201E-5
-0.001260464
-0.001910912
-4.5234332E-4
0.0052364403
-0.0017650367
-0.013383467
-0.003248665
0.0038413743
-0.001120453
0.0018395834
0.0020570992
-6.671621E-4
3.1328152E-4
3.9520313E-4
0.0015391039
3.4490373E-4
-0.0011480633
-3.360911E-4
-3.4124023E-4
0.0011820154
8.716695E-4
-2.699636E-4
6.4429303E-4
0.0015640577
0.003234972
0.0012083462
-0.0012406281
-7.599837E-4
-0.0024577295
-0.0013791054
2.4213012E-4
-0.001674686
-0.0011072566
-8.635787E-4
-0.0023454786
-0.0021480685
-0.0011648613
2.0332927E-4
0.0015175914
0.0013725979
4.4464893E-4
0.0019975314
0.0021424538
-5.388478E-4
9.1798784E-4
0.0017300191
7.367917E-4
0.0021638414
0.0020869826
0.0025334407
0.0012329181
-0.0010819318
5.209422E-4
5.981843E-4
0.003365429
0.0037697186
-4.9743924E-4
0.0034586089
-0.004675462
-0.019339062
-0.007973323
0.003056512
-9.5936144E-4
-2.0239308E-5
0.001195871
0.0010183839
0.0026451773
0.001647733
-2.4849936E-4
-0.0010508393
-2.1438579E-4
-5.785248E-5
3.127402E-4
0.00232399
0.0019284108
0.0013288951
0.0011836237
8.7752996E-4
0.0019883283
2.2493947E-4
-0.0035062938
-0.005103499
-0.0033725845
-4.815866E-4
-0.0014975381
-0.0019091532
-2.4035838E-4
-7.5380463E-4
1.3493109E-4
0.0016991593
0.0026084902
0.0032962705
0.0016052114
0.0012474605
0.0020587132
0.0013465283
9.45366E-4
0.0010480284
0.0022844693
0.0032493086
0.004237228
0.0057652094
0.0035687194
7.04088E-4
-5.9889193E-4
-0.0014578323
2.524513E-4
3.5049618E-4
-0.0010230625
-0.0015713957
-0.004203722
-0.0039096572
-0.0018198278
-0.0035548904
-0.0037648876
-0.002663289
-0.0034320026
-0.0049402053
-0.0075603663
-0.0071364394
-0.0038200098
-0.0037510607
-0.004026855
-0.0017973549
-2.7635697E-5
0.0010754574
0.0020664432
0.0028547386
0.003957704
0.0045198053
0.0038494633
0.0022876284
6.829418E-4
5.79567E-4
0.0024896488
0.005423993
0.008387923
0.010365406
0.009054543
0.0074556805
0.011437305
0.013249316
0.007899468
0.0034671992
-0.0024929794
-0.008623652
-0.0065313284
-0.006526602
-0.013115183
-0.014586143
-0.010540171
-0.008041018
-0.007593226
-0.0061770333
-0.0035878166
-0.0011120724
-1.2496622E-5
-0.0010180249
-6.1093265E-4
0.0013046236
3.7071813E-4
-0.0017040048
-9.0796803E-4
0.0012798636
0.0020856396
0.004061454
0.006114468
0.0045017526
0.0042954893
0.0047816546
0.0028399315
0.0033349763
0.0034879646
0.0017030874
0.001457731
7.219043E-4
8.8470275E-5
-4.6828098E-4
-0.0018943594
-0.0024254592
-0.0036156334
-0.0038407766
-8.059616E-4
0.0011770694
2.4176524E-4
1.2653774E-4
0.0016312494
9.7403163E-4
9.3610695E-5
0.001978388
0.0017950085
-4.6675905E-4
-8.804611E-4
-6.073111E-4
1.0630836E-4
7.474719E-4
2.1527588E-4
-5.1233184E-4
-0.00217313
-0.004405937
-0.0049672676
-0.0031030949
2.197908E-4
0.0019952888
0.0014060953
8.851272E-6
-1.5502136E-4
0.0024367934
0.0032419348
0.0019066684
0.0038167369
0.004480008
0.0010582132
-0.0023602503
-0.0045824666
-0.0039531197
-0.0030353724
-0.0028731609
8.475487E-5
0.001042127
1.6799716E-4
0.0019951917
6.990177E-4
-0.0030640084
-0.0029505785
-0.0016530058
-9.1442355E-4
0.0011784934
0.002646156
0.0015307729
-2.052715E-5
3.7684542E-4
0.0012296931
1.4422419E-4
-1.0208865E-4
0.0021948386
0.0027200032
0.0013487636
7.1532436E-4
4.5236622E-4
0.0016863275
0.00320931
0.0014797801
-0.0014351265
-0.001463544
-3.4195522E-4
-0.0012675938
-0.0017764554
-8.944871E-4
-0.0012713677
-0.0014315951
3.8787024E-5
-1.0363449E-4
-0.0021629012
-5.0846994E-4
0.0029987963
0.0016864992
-2.453333E-4
-0.0011894982
-0.0028242925
-0.001456608
-8.212886E-4
-8.650841E-4
0.0020163863
0.0023745205
0.0011255579
7.69569E-4
-4.5547672E-4
-6.5373164E-4
1.8100852E-4
7.486097E-4
9.543601E-4
0.0017565576
0.0017298198
-9.783126E-4
-0.0020092616
-0.0012444828
-0.001432217
-0.0019132028
-0.0024128968
-6.54426E-4
0.0011715892
9.45289E-4
0.0015446383
9.23347E-4
-8.0344017E-4
-9.147325E-4
-4.653217E-4
-5.099948E-4
-0.0010457274
-9.423358E-4
-0.0012236986
-6.7714584E-4
0.0023447708
0.0034015423
0.0030471424
0.0030048874
0.0016143858
9.033717E-4
0.0010615584
0.0010830956
2.8912682E-4
-0.0013517205
-0.0012274446
-5.005365E-5
1.05733045E-4
-3.73468E-4
6.985814E-4
0.0025788327
0.0016865216
-2.4383864E-4
-0.0027242212
-0.00527766
-0.00386889
-0.0018045821
-0.0017515317
-0.0020425597
-0.0023090332
-8.533864E-4
2.3109696E-4
-8.6992205E-4
-0.0018950634
-0.0018703726
-4.8062752E-4
5.022307E-4
0.0016178378
0.004119154
0.0036953383
9.012973E-4
5.7232485E-4
0.002240447
0.0032919503
0.0021632554
-1.8251504E-4
-0.0012512017
-2.958692E-4
0.0014911509
0.0018261113
0.0013747818
0.0024186645
0.0026514798
8.2117127E-4
-7.6518656E-4
-0.0020532352
-0.0017731584
9.088993E-5
1.5715222E-4
-7.271721E-4
-0.002751227
-0.0053241635
-0.0037510858
-4.3264907E-4
0.0017262816
0.0022637881
1.3375385E-5
-0.001137158
-0.0014028526
-0.001564998
-3.1417393E-4
-0.0015840437
-9.908351E-4
0.0025932894
0.0010938451
-4.4180846E-4
5.95351E-4
-5.878997E-4
-8.2173874E-4
-9.3477196E-4
-0.0023137513
-1.11589026E-4
0.0035240918
0.0035332919
0.0017701428
0.0011820463
0.0010485318
0.0011994474
0.002009601
0.0017209639
0.0010362542
0.0015092585
3.212844E-4
-0.0023523197
-0.0022897322
-5.5683864E-4
4.7955435E-4
0.0014108585
0.0012130896
-5.3135346E-4
-0.0027118945
-0.0037479484
-0.002786138
-0.0026086967
-0.0028248327
-0.0015660579
-0.0012805413
-0.0014091
-1.7737017E-4
0.0023157813
0.004386042
0.003373398
0.002636935
0.0026324014
1.1367932E-4
-4.0240132E-4
1.00902995E-4
-0.0025519368
-0.0025903508
3.7985953E-4
8.187941E-4
4.1502275E-4
5.142363E-4
-4.1013517E-4
-2.451423E-5
0.0013498848
7.2218064E-4
-6.204959E-6
-3.7211608E-4
-7.8934286E-4
-2.5045578E-4
-0.0010775618
-0.002187146
-0.0015672229
4.6520392E-5
0.0030203683
0.003356085
7.8444544E-4
7.358552E-4
0.0014151669
3.363605E-4
-3.8440022E-4
2.820662E-4
2.8068697E-4
-0.0014577013
-0.0025677416
-0.0033177165
-0.003199353
-6.3246576E-4
0.0012460084
0.0012315258
-8.0928975E-4
-0.0029242106
-0.0015141909
-0.0013255681
-0.002188377
0.0013568751
0.0041832346
0.0036885424
0.0032309075
0.0030699798
0.0040668007
0.0047063623
0.0029506779
0.0019144499
8.253674E-4
-0.0045249388
-0.008427562
-0.0049032304
-0.0019472957
-0.0032927303
-0.0030313283
-0.0022687248
-0.0015203531
2.1454474E-4
-9.21538E-4
-9.138909E-4
0.0030268324
0.004026855
0.002101149
0.0010444284
7.0974696E-4
5.8700994E-4
3.124429E-5
2.5668403E-4
0.0014340078
0.0025662812
0.0044839834
0.0056834463
0.0047755665
0.003065178
6.7253975E-4
-0.0040460625
-0.008168148
-0.0056131748
-0.0016357877
-0.0026191806
-0.002613888
-0.0011709752
-0.002770872
-0.0028653464
3.694647E-4
4.2732754E-6
-0.0024188624
-0.0010426167
-0.0033423984
-0.0071559376
-0.0014883213
0.0032932113
0.0025818648
0.004188892
0.004719816
0.003915734
0.0023786514
-6.0188735E-4
-0.0019578978
-0.0051002265
-0.0077365716
-0.0052786595
-0.001858523
0.0017701734
0.0056824945
0.007916213
0.0070115905
0.0047393492
0.0040317713
0.0019266525
4.2577952E-4
3.5557477E-4
-0.002893794
-0.0045804377
-0.005034832
-0.008065312
-0.010051077
-0.010604442
-0.007453743
-0.0033812497
-0.0035789334
-7.296628E-4
0.0044346354
0.005700862
0.005182218
0.0040721497
0.006112385
0.011191325
0.014379228
0.01719143
0.016973779
0.01032748
0.0031992688
-4.054674E-4
-0.0026506071
-0.005855393
-0.0071131117
-0.0022144918
0.0019682597
-0.002109476
-0.00901153
-0.0164184
-0.023289956
-0.020382607
-0.012802375
-0.010979821
-0.0061618853
0.0056152027
0.010570169
0.0030725424
-0.0052989125
-0.0046269707
0.0051357294
0.016347403
0.021348549
0.025781002
0.032301035
0.0351376
0.038527608
0.042354167
0.040595286
0.027197042
-0.002517324
-0.034008343
-0.057627864
-0.075154
-0.075643234
-0.05957622
-0.037087377
-0.009780866
0.010993298
0.015948454
0.01800964
0.025546864
0.032989237
0.036959767
0.016372561
-0.03255058
-0.060968842
-0.05416238
-0.030715665
0.0064175916
0.025887039
0.013324141
6.238994E-4
-0.0016461576
0.0074966396
0.025831189
0.03283491
0.02327113
0.010418174
0.0075896294
0.0043982407
-0.019017551
-0.03556117
-0.027208028
-0.016993942
0.014791812
0.050405797
0.02178688
-0.005964695
0.027365353
0.06194936
0.112863526
0.17969713
0.17914423
0.11636265
0.02690393
-0.06896381
-0.1459875
-0.19567932
-0.18002215
-0.11634604
-0.06400987
-0.0078848265
0.03616051
0.029150626
-0.0049582836
-0.042668827
-0.08024548
-0.124227196
-0.15449102
-0.13559777
-0.0960453
-0.057905566
0.0024162922
0.07444099
0.117962554
0.11402374
0.08892202
0.08204501
0.10637718
0.1539152
0.19278468
0.17032477
0.06751546
-0.038359173
-0.0858823
-0.115398616
-0.108795725
-0.038301576
0.047975443
0.15088841
0.20793867
0.15708238
0.09483129
0.00782743
-0.14197817
-0.2367747
-0.2649434
-0.25621778
-0.18220025
-0.09198423
-0.003574912
0.08225666
0.09805926
0.059297692
0.052435536
0.078028955
0.068843216
0.010714632
-0.04567748
-0.04117078
0.014030488
0.0030494584
-0.08174016
-0.11199235
-0.08396184
-0.016346032
0.09488706
0.14074558
0.11050998
0.0742387
0.012591478
-0.018015068
0.034008387
0.073994875
0.047416702
-0.01353661
-0.06456939
-0.075226106
-0.06855707
-0.06704678
-0.050026275
-0.01055921
0.03158668
0.06560061
0.08877071
0.08729956
0.04966442
-0.007204475
-0.042262174
-0.042627644
-0.03940982
-0.041865796
-0.03709978
-0.029976059
-0.020625317
-0.010409336
-0.0066377386
-0.0017851553
0.0057428167
0.009199553
0.010433721
0.013764256
0.017459549
0.01815011
0.01810644
0.015392885
0.0085856365
0.00498841
0.0035250108
-7.612147E-4
-0.0050229784
-0.006111111
-0.0040575755
-0.0017949436
-0.0014936295
-0.0010741227
-3.0129793E-5
-7.072621E-4
-0.001414334
6.328259E-4
0.0019171407
7.724998E-4
-1.6445077E-4
-0.0014653199
-0.003606989
-0.0058266865
-0.0078073256
-0.00808255
-0.00539247
-0.0014944769
0.0011857804
0.004291351
0.0063350694
0.0044559306
0.0025890546
0.0012416005
9.428327E-4
0.003665975
0.003503111
0.0013458005
0.0025700848
0.0040710606
0.0036271363
0.0015070484
-0.0013575766
-0.0037479212
-0.004752312
-0.0029771898
-0.0011975488
7.978392E-4
0.0059738657
0.008412522
0.0064808615
0.005398538
0.003248414
-0.0011879769
-0.0071302084
-0.013278547
-0.013333527
-0.010167462
-0.009969629
-0.008024756
-0.0049394025
-0.0037992192
-0.0017289029
4.0021585E-4
0.0027712618
0.0038444928
0.0027340744
0.004109825
0.001673539
-0.0042907433
-7.03102E-4
0.006960432
0.013456139
0.024034675
0.030772222
0.025941193
0.0111517785
-0.0029105817
-0.0021722654
0.0041863257
0.0010739078
-0.006870727
-0.014139912
-0.020298962
-0.02270806
-0.020049028
-0.017389756
-0.016996244
-0.012742736
-0.008611735
-0.0059211063
0.0035203402
0.007140881
-0.0014479117
-0.0028266995
0.0060922382
0.012131332
0.015597967
0.019808171
0.01699706
0.01201096
0.0122595085
0.008624217
0.008869257
0.008097866
-0.011373399
-0.02055391
-0.010654885
-0.005358379
-0.0014328616
6.819982E-4
0.0032913226
0.0036012772
-0.009356699
-0.0153670255
-0.013705841
-0.013061413
-0.006185783
-0.011867213
-0.020475643
-0.0074973702
0.004459303
0.0063838228
0.011231891
0.016093442
0.01698916
0.018826071
0.022557838
0.018577062
0.008600446
0.00115423
-0.005288653
-0.010033625
-0.0122259455
-0.009585372
-0.0027782305
2.3624623E-4
4.3468044E-5
-0.0019484491
-0.0028093234
-6.1063684E-4
-0.0025308155
-0.0033087474
0.0014320895
0.003718384
0.0010453417
-0.0049411412
-0.007377734
-0.005108658
-0.0044086096
-0.0036326582
-0.0018372405
-3.081133E-4
1.525892E-4
9.609739E-4
0.0033216875
0.001269873
-0.0016246454
-3.100006E-4
-4.9995233E-5
-2.158977E-5
0.0012875863
0.0034922918
0.004483913
0.0035401615
0.0039657587
0.0016062079
0.0022415654
0.004190831
-0.005034329
-0.0028946677
0.012023308
0.011111293
0.0042314976
0.0023343586
0.0019770556
0.0010247672
-0.0060492046
-0.009175505
-0.0076039867
-0.009023191
-0.006598466
-0.0032201684
-0.002066726
-0.0016364645
-0.0030573918
-0.0020540692
-0.0017260944
-0.0026160819
-4.8684285E-4
2.5842298E-4
-5.55695E-4
-8.8338857E-4
4.325497E-5
0.0017214959
0.0019054159
0.0034157834
0.0045895767
0.0039071133
0.004795203
0.0045432905
0.0026598945
0.001994128
0.0019057964
0.0014192819
0.0016835952
0.0035758067
0.0030185452
-6.3648575E-4
-0.002781434
-0.0028573538
-0.0030719107
-0.004107079
-0.0019175357
0.0027324702
0.0035989452
0.002540467
0.0016086953
8.1956474E-4
4.19834E-4
-0.0016402927
-0.0028001887
-0.00265253
-0.0019965798
-6.1051064E-4
-0.0037116676
-0.0070135524
-0.0045698015
-0.002461369
-7.158828E-4
0.002921685
0.0031565337
-9.784908E-4
-0.0038959347
-0.002178672
0.0010887096
0.0014538269
5.326745E-4
0.0019536067
0.0036123102
0.0031319398
0.001692313
-5.30746E-4
-8.6369924E-4
8.875462E-4
4.149172E-4
8.1614405E-4
0.00332707
0.0031484582
0.0014756805
9.525708E-4
0.001085328
5.0238345E-4
2.8298804E-4
0.001525739
1.1315028E-4
-0.0032501768
-0.0037793596
-0.00217317
-7.4647047E-4
-0.001580164
-0.0024141644
-0.0011673252
-0.0020229404
-0.0022435992
8.529675E-4
8.0449414E-4
-0.0010814719
-2.3072305E-5
0.0014310556
0.0019413924
0.001901083
0.0011505894
3.1381825E-4
-1.919015E-4
-5.2009575E-4
-0.0016468323
-0.0011235839
0.0014292875
4.439574E-4
-0.0011178885
-7.109246E-5
-7.292705E-4
-5.94613E-4
9.503677E-4
0.0011102877
3.4867658E-4
-0.0020154486
-9.018462E-4
0.0027086022
0.0021232981
0.0024440365
0.0026646142
2.484136E-4
-4.6960247E-4
-0.002659009
-0.0031569232
5.9824844E-4
0.0012153252
6.906738E-4
0.00124572
6.4602843E-4
2.882663E-4
-5.1140523E-4
-5.051013E-4
8.761224E-4
-4.8441754E-4
-0.0029062573
-0.0036279007
-0.00497242
-0.005195782
-0.0027965596
-0.0010075107
2.93921E-4
-6.1955495E-4
-0.0030439063
-1.498782E-4
0.00289996
0.0016261006
0.0021192655
0.0032342926
0.0037691477
0.004772324
0.0044478
0.0037784562
0.0032623615
0.0041697472
0.0038126954
-0.0012721737
-0.0038717997
-0.0026958007
-0.0026990953
-0.0020569367
-2.4555423E-4
6.881735E-4
-1.434114E-4
-5.918794E-4
-1.4418164E-4
-0.0020346548
-0.0037320687
-0.0032285063
-0.001973841
-8.660969E-4
-0.0022411365
-0.0028509765
-0.0011725016
-8.697849E-4
-4.014714E-4
5.1050965E-4
0.0012220419
0.0018360432
0.001435214
0.0023654336
0.003437939
0.003022184
0.0021531899
1.447022E-4
-2.5208472E-4
3.7080224E-4
-4.322367E-4
-9.038129E-4
-0.0021382766
-0.0025455614
-0.0014195476
-8.891022E-4
0.0015743229
0.0027201169
8.4762473E-4
0.0013379424
0.0016456408
-3.8877418E-4
-0.0013599403
-5.443617E-4
0.0011516426
0.001277918
3.5442885E-5
6.1914E-4
9.3135814E-4
-0.0012692672
-0.0020607586
-5.856365E-4
-7.059433E-5
4.8016806E-4
0.0012437745
3.5373065E-5
-0.0010141301
-5.812106E-4
-0.001422185
-0.002637029
-3.7391874E-4
0.0016055537
-0.0011129201
-0.0024963345
-3.4899454E-4
8.1221515E-4
4.4720888E-4
-0.001256431
-0.0015476657
8.144855E-4
0.0015358103
0.0012701767
0.0015006048
7.285435E-4
-2.4805823E-4
-9.0986694E-4
-0.0011156045
-2.2414343E-4
0.0016304265
0.00261285
0.0012407477
-6.3513225E-4
-0.001793314
-0.001889634
-2.229546E-5
0.001662844
0.001214552
8.345167E-4
0.0016610138
0.0011073635
-5.060009E-4
-3.719899E-4
9.6086954E-4
0.0012003639
-0.0013295618
-0.003140486
-8.4798556E-4
5.129375E-4
-4.7323256E-4
-7.119171E-4
-4.6288394E-4
6.5386645E-4
0.0015659073
0.0014345639
0.0013493241
8.9041353E-4
0.0010921092
0.0020956034
0.0017210223
-4.6878512E-4
-0.0016487006
-3.9100007E-4
-6.8397436E-4
-0.0025886311
-0.0027281914
-0.0020283053
-0.0012949926
-0.0015215733
-0.002705151
-0.0028896795
-0.0027183606
-0.0027714316
-0.002406423
-0.0010316969
1.9497596E-4
6.263693E-5
2.5491402E-4
7.384504E-4
0.0011066648
0.0018287555
0.002599032
0.0029344938
0.0014417742
8.23243E-4
0.0020631598
0.0021669588
0.004403421
0.007904758
0.007331443
0.005387932
0.0049599865
0.0041532665
0.0010853115
-0.002832115
-0.0053494875
-0.0059128064
-0.00443941
-0.0035366407
-0.002484872
-9.36959E-4
-0.0033459023
-0.005506783
-0.004307766
-0.0028138629
-0.0010204106
-0.0013027219
-0.0018995454
-9.59359E-4
-0.001209597
-8.03766E-4
-0.001231201
-9.3661767E-4
0.0020225553
0.0012698161
-1.2639016E-4
3.6285755E-6
-2.4062519E-4
0.0017844896
0.00121437
7.398124E-5
0.0026876566
0.0033224805
0.0036466303
0.003583907
0.0014351936
0.0010611063
5.188605E-4
-4.1263513E-4
-8.045357E-4
-9.637776E-4
4.8348724E-4
0.0010405134
0.0012017707
0.002057358
0.0015708084
1.9199082E-4
-8.7951357E-4
-2.2040938E-4
0.0012414235
0.0035682858
0.003518049
-0.0027389997
-0.0048076143
-0.0021162776
-0.0011601702
-9.5369073E-4
-0.008921687
-0.011927593
0.0014508326
0.006609079
0.002178321
9.576041E-4
-9.304517E-4
-4.5337816E-4
-3.343035E-5
-0.0017925568
-5.22221E-4
6.101808E-4
6.018744E-4
4.8793512E-4
7.1576086E-4
8.3715114E-4
-1.9336692E-5
0.001173717
0.0011658892
5.8570316E-5
0.0011977206
4.7477437E-4
-4.7381612E-4
-0.0011792852
-0.0013078029
0.0017264476
0.0012194837
-4.6599572E-4
0.0021386913
0.0032987793
0.0018334588
1.5149445E-4
2.9627295E-4
7.496105E-4
-4.994429E-4
-1.7073023E-4
-1.1117347E-4
9.9277E-5
0.0016611113
1.5207648E-4
-9.143579E-4
-3.3997727E-4
-0.0014362022
-0.0026605912
-0.003513828
-0.002384908
-0.0011138815
-0.002055676
-0.0021582344
-0.0015948802
-3.2578612E-4
-1.2105521E-4
-0.0017667097
-0.0010183827
-5.331373E-4
2.9785503E-4
0.0028271948
8.0559234E-4
-5.9959E-4
0.0026838377
0.0031175783
0.0013214339
0.0014043249
0.0024277042
0.004024359
0.0051584584
0.003078361
7.0802496E-5
-1.9110212E-5
-8.3142315E-4
-0.0018698215
1.8271588E-4
3.478566E-4
-0.0019465913
-0.002839045
-9.197547E-4
0.0019408087
4.3546333E-4
-0.002607382
-0.004092244
-0.0054769246
-0.0034265283
-0.0012404317
-0.0013380277
3.9700323E-4
2.8099975E-4
-9.7173924E-4
6.0268893E-4
0.0015065722
0.0015121584
5.844001E-4
-0.0012062093
-1.6595334E-4
0.0011806678
6.401023E-4
0.0014371941
0.0021636672
0.0012312557
0.0015093117
0.0024016963
0.0011910326
-3.1254182E-4
2.1849717E-4
0.0010501567
0.0011575358
9.635985E-4
-0.0012375837
-0.0032913862
-0.0021486024
-0.0015172284
-0.0011744616
7.4662647E-4
4.2690508E-4
-2.8494373E-4
0.0012508419
0.0022676778
0.002049925
4.2121127E-4
-9.6539373E-4
-0.0011167001
-0.002278881
-0.002428683
-6.4407306E-4
2.4975726E-4
-9.2375005E-5
-7.9811993E-4
-4.4864533E-4
5.517907E-4
3.7214562E-4
3.4305156E-6
4.003002E-4
3.5924092E-4
-6.008349E-4
-8.6443056E-4
-1.8521492E-5
5.3566217E-4
4.5123012E-4
-3.2255385E-4
-5.645282E-4
2.2857856E-4
-7.5036087E-6
-1.6351727E-4
0.0015782285
0.0029131838
0.0013832274
-6.219444E-4
9.3553547E-4
0.002865615
7.995457E-4
-0.0022036459
-0.002559417
-0.0010863958
-4.342772E-4
-8.125374E-4
-9.872442E-4
-7.162377E-4
0.0010740358
0.0022443088
2.4684292E-4
-8.991382E-4
1.5952897E-4
-2.3077139E-4
-0.001608962
-0.0011007095
7.689621E-4
0.0014400077
8.675637E-4
-5.1512925E-5
-0.0011975183
-0.0013684054
-0.0013785143
-0.0010950539
0.0015296459
0.0022815226
-1.20951074E-4
-0.0012876859
-0.002591032
-0.0028268883
-6.2860205E-4
-3.999511E-4
-4.67819E-4
3.490747E-4
0.0010129358
0.0025977567
0.0028768627
0.0032331392
0.0027439462
2.702053E-4
0.0016354268
0.0021193114
-3.3741868E-5
9.136793E-4
6.095372E-4
4.0522384E-5
1.2081991E-5
-0.00256508
-0.0019448024
6.692836E-4
8.7408297E-4
1.0569533E-4
-0.0015275549
-0.0035596003
-0.0034429743
0.0013886256
3.264325E-4
-0.010706483
-0.010009957
0.0011140732
0.003750559
0.0038227597
0.004038481
2.8502865E-4
-9.4249955E-4
3.366447E-4
5.5614294E-4
0.0014116355
0.003080854
0.0036886435
0.0027919353
0.0019818253
0.0011097501
1.4482248E-4
-2.4774624E-4
-6.4242765E-4
0.0010650818
0.0017127807
-0.0024508832
-0.0025815754
6.413986E-4
-0.0015430939
-0.002625474
-2.985374E-4
5.4561788E-6
5.730959E-5
-8.0694817E-4
-0.0025561384
-0.0018660912
-1.1511019E-4
6.8197434E-4
3.498924E-4
6.251347E-4
0.0012547587
-2.8073886E-5
-6.016492E-4
0.0010484179
0.0016299298
1.540184E-4
-6.058953E-4
-1.4253487E-4
6.011246E-4
0.0018935166
0.0013362499
8.1486965E-4
9.0589817E-4
-2.3276953E-4
0.0044311704
0.0031701408
-0.011091361
-0.01092823
1.5594233E-4
0.0017187777
0.0024646637
0.002202861
5.115621E-4
0.0027372264
9.5605076E-4
-0.0018621156
2.9325845E-5
5.813398E-4
-0.0010891951
-0.0011947196
-2.9776501E-4
-3.905365E-4
5.5606203E-4
0.0013591289
7.5792655E-4
0.002404662
0.0025719272
-1.06860134E-4
-8.112545E-4
-0.0012707666
-0.0023966357
-0.0028676882
-0.0020885835
2.6799084E-4
0.0010339562
-3.091734E-4
-2.696993E-4
0.0013707887
0.0014850349
8.678002E-4
8.924357E-4
-9.0566743E-4
-0.0013048198
5.2474346E-4
-3.3513072E-4
-8.185733E-4
4.3599302E-4
0.0012513588
0.0027449299
0.0031039861
0.0021410182
9.704647E-4
-0.0011416451
-0.0015705597
-1.08403394E-4
-1.11180736E-4
-2.1809436E-4
1.8484877E-4
-0.0021424512
-0.0035843786
-0.0012395728
-5.044011E-4
-9.765856E-4
-0.0013846321
-0.0028110517
-9.644976E-4
0.0013569363
4.611397E-4
8.919662E-4
0.0016725904
5.7989894E-4
-2.9402861E-5
8.575534E-4
0.0019155836
9.7562344E-4
2.9576605E-4
0.001457865
0.0012742556
4.6378314E-5
-8.795537E-4
-0.0010990239
1.5010641E-4
4.941822E-4
-5.1059143E-4
-9.6689834E-4
-0.0011497193
-4.2314376E-4
2.1126919E-4
-8.2404737E-4
-0.001043366
-0.0010856278
-0.0020979492
-0.0014620278
-6.757665E-4
5.5552257E-4
0.0029524397
0.0013593344
-9.660327E-4
0.0012542565
0.002936045
0.002039303
0.0020340893
0.0037441722
0.004385255
0.0026416376
0.0013170204
7.2882493E-4
-1.7568433E-5
-0.0021558926
-0.0059547964
-0.0057863914
-0.002605103
-0.0018753627
-0.0016803854
6.393038E-5
0.002727458
0.0016169513
-0.0026033306
-0.002461172
-0.0018059785
-0.0026898934
-0.0017741191
-0.0015789721
-0.0010326309
-0.0015219358
-0.0019718334
0.001494821
0.0014573432
-8.0506917E-4
4.3742193E-4
0.0016283386
0.002889733
0.003007889
0.0024311186
0.0029775717
0.001176001
1.975866E-4
0.0021846981
0.0039278427
0.004426482
0.0023954886
-3.7647857E-4
-9.093293E-4
5.5389395E-5
-8.897816E-4
-0.002217967
7.891704E-4
0.002673046
2.4262491E-4
-0.0017019088
-0.0013347628
4.1295073E-4
-3.9308387E-4
-0.0013310178
-0.0018940059
-0.0039291
9.6864963E-4
2.8419023E-4
-0.012375196
-0.0108729005
-8.053045E-4
7.0582586E-4
0.0024481257