3.054706E-4
-6.77747E-4
-8.520449E-5
-1.4730998E-4
-0.0015499312
1.3189627E-4
5.167231E-4
-0.0012747861
-9.824615E-4
-2.153372E-4
-4.830078E-8
-1.6064684E-4
2.7425782E-4
-1.5385558E-5
-5.4864783E-4
0.0022533596
0.0029790432
9.015934E-4
5.324082E-5
-0.0012116294
3.6688705E-4
0.0026853913
0.0020532294
0.0022632915
0.0015530185
-2.1249023E-5
-6.2581804E-4
-0.0010334585
-2.3499421E-4
-4.2666265E-4
-0.0010945019
-0.0015199853
-0.002673272
-0.0010519616
2.347531E-4
-0.0015187481
-0.0011519942
-3.3477386E-6
-0.0014648176
-0.002446584
-9.875379E-4
-3.997585E-5
-5.4041715E-4
1.2561532E-4
0.0018282628
0.0022159303
7.1464165E-4
-1.9886911E-4
6.1526784E-4
8.8321866E-4
1.463311E-5
-7.68124E-4
-1.9920421E-4
2.5401142E-4
-3.35149E-5
0.0013403739
0.0010255818
-1.0148369E-4
0.0018380526
0.0010668274
-4.3679238E-4
0.0012046687
7.2613056E-4
-1.0889149E-4
-2.0611538E-4
-0.0012668539
-2.4136549E-4
9.89815E-4
5.0738425E-5
-4.141315E-4
8.391039E-4
0.0010176281
-0.0012899053
-0.0012724291
0.0010759699
6.224228E-4
-9.5484144E-4
-9.690485E-4
-3.488463E-4
4.1112732E-4
9.1025565E-4
5.8807625E-4
-0.0011049206
-0.0027375247
-0.0024793982
-0.0023907614
-0.0020358649
-1.7881986E-4
-4.444991E-4
-5.1202404E-4
0.0014397068
4.1906946E-4
-3.4224262E-4
7.7554607E-4
2.7505893E-4
0.0015882864
0.00248969
-2.6480868E-4
-0.0018364388
-0.00171345
-0.0013198635
1.1381898E-4
0.0020155504
0.0016138033
2.2536312E-4
0.0029684633
0.004304808
0.0014323343
0.0013234876
0.0014904005
-8.783639E-5
-6.471592E-4
-7.545434E-4
-2.1127162E-4
-3.401599E-4
-6.21852E-4
1.0574575E-4
7.968702E-4
6.875819E-4
-8.146529E-4
-5.450527E-5
9.5582905E-4
-8.6289865E-4
-0.0015975556
-0.0031663333
-0.003054065
-8.1578555E-4
-6.309355E-4
0.0010994287
-0.0036128408
-0.009544824
-0.0022332422
0.0019432284
2.6997435E-4
0.0020141057
3.1226032E-4
4.209606E-5
0.002661107
0.0024858837
0.0014368295
-5.2112347E-4
-3.2167797E-4
0.0016049487
0.002054136
0.0018456095
5.30731E-4
0.0015268569
0.0027122414
9.5293083E-4
0.0011518282
0.0016749453
0.0017301105
0.0018692998
-7.839979E-4
-0.0020043338
-9.062611E-4
-0.0010834733
-7.777416E-4
-2.7058928E-4
-0.0015807267
-0.0026946345
-0.0012026677
0.0010172889
8.850173E-4
-4.6412888E-4
-8.409128E-4
-0.0010938243
-0.0011810677
1.22571755E-5
-3.0586318E-4
-0.0014803141
-8.1217215E-5
2.9061554E-4
-4.6656816E-4
1.2115856E-4
-1.6860157E-4
-3.5743495E-5
5.78034E-4
9.0934715E-5
2.920483E-4
0.0014479214
0.0011270064
-0.0026988348
-0.0043164007
-7.7034475E-4
0.0013409411
0.0015573285
8.5322506E-4
3.823986E-4
0.0016083203
1.7951928E-5
2.4777784E-5
0.002939729
0.0017610745
4.105964E-4
-2.6465437E-4
-7.957066E-4
8.069998E-4
3.091829E-5
1.5461935E-4
0.0015933265
-5.067307E-4
-5.606078E-4
0.001570192
0.0020029
0.0013511801
-7.353424E-4
-0.0023074634
-0.0027014294
-0.0023116593
-4.718626E-4
6.966802E-4
-3.75264E-4
-0.0014428402
-3.9493153E-4
-5.0760427E-5
-1.4451866E-4
7.093095E-4
-0.0014283845
-0.0018636876
0.0017401237
0.0016934236
-9.626778E-5
-5.444248E-4
-4.1666004E-4
0.0011085885
7.779389E-4
-0.0011915712
-0.0014390093
-3.597276E-4
6.2744494E-4
5.653965E-4
-1.05797415E-4
-7.375333E-4
3.3364183E-4
0.0016889661
5.876194E-4
7.2427274E-4
0.0014144825
4.5434167E-4
3.640701E-4
-1.818135E-5
3.9529224E-4
0.0010201427
-4.8507916E-4
-4.429482E-4
-3.5661977E-4
-0.0014653486
-9.974822E-4
1.6560998E-4
0.0012866693
-1.0610768E-4
-0.0020643785
-5.4871105E-4
-5.100359E-5
-0.0012187546
-9.5992617E-4
2.6041546E-4
0.0016580399
0.0010623011
-0.0010597534
-0.0019471438
-0.0010377995
3.9570752E-4
5.903611E-4
6.686651E-4
0.0014980023
0.0018000222
0.0014093432
9.672565E-4
0.0010807785
0.001060562
6.50082E-4
4.513424E-4
2.9486985E-4
-4.3027117E-6
-0.0013082591
-0.0021879203
-0.0010575193
1.10748304E-4
3.3811707E-4
-4.6484484E-4
-0.0013669835
-0.0017837839
-0.0023708546
-0.001476204
6.743621E-5
-3.2497872E-5
-5.267016E-4
3.00779E-4
0.0012770562
-3.6787886E-5
-9.3503995E-4
-5.2815035E-4
-0.001245115
-1.2949295E-4
9.8613E-4
-1.1618069E-4
4.8798558E-4
0.0015837749
0.0020199472
0.0016387963
9.3802117E-4
0.0022244102
0.0018736897
1.281288E-4
-5.4387538E-6
-5.8130565E-4
-0.0013819797
-0.0018323015
-5.106542E-4
0.0014013164
5.530024E-4
4.674498E-4
9.47067E-4
4.9411476E-4
0.0014076756
9.6714834E-4
-5.9286976E-4
-0.0012782553
-0.0015256671
4.305285E-4
0.0018015574
-8.2887127E-4
-0.0038762286
-0.002413469
0.0014708615
0.00122747
-3.2829677E-5
2.5146702E-4
-0.003246961
-0.0042658313
-2.0873014E-4
1.8425235E-4
0.0017637835
0.002764446
-0.0053589083
-0.0074741244
6.5624225E-4
0.0036695686
0.0029938286
0.0025350607
7.4925093E-4
8.708021E-4
0.0021441837
0.002028215
4.7186407E-4
2.2162822E-4
0.0012795496
1.3975523E-4
4.0444243E-4
0.0015113857
2.4632073E-4
7.788296E-4
7.3957857E-4
-6.7938317E-4
6.2191556E-4
0.0013463958
-3.0652306E-4
-0.0023851919
-0.002757388
-0.0021573259
-0.0025495575
-0.0011038505
1.33367075E-5
-3.4137754E-4
0.0013854073
0.00130283
4.5714437E-4
0.0015588998
2.6397905E-4
-7.1890163E-4
2.88139E-4
4.9007504E-5
-5.8973406E-4
-0.00131721
-3.7722907E-4
0.001391817
-1.4873866E-4
-6.5416953E-4
0.0010784738
4.90985E-4
8.8043953E-4
0.0017443957
-9.448646E-4
-0.0014747638
9.548096E-4
5.1242292E-5
-0.0023551988
-0.0032942048
-0.002615551
3.7083757E-4
0.0016601201
-2.0908707E-5
-3.5323028E-4
8.051465E-4
0.0018048144
0.0012945867
-1.5144274E-4
8.008301E-5
-2.622254E-4
-0.0011361619
4.984233E-4
0.0022611753
0.0022585322
-8.5509215E-5
-0.0024529025
-9.388921E-4
8.831498E-4
0.0011166711
0.0011358873
-1.14984614E-4
-2.3936355E-4
4.3351285E-4
-5.893152E-4
-4.4049055E-4
7.259728E-4
3.6391855E-5
-0.001047223
-7.311668E-4
3.144685E-4
0.0015659261
0.0017222357
-4.087801E-4
-0.0017407958
-0.0010960897
-0.0011408923
-5.274997E-4
0.0012258547
6.6492014E-4
-0.001561959
-0.0019294396
-8.1180985E-4
-1.2997529E-4
5.88775E-4
9.618766E-4
2.9995298E-4
-6.535954E-4
-0.0018233227
-0.001493259
6.8815163E-4
0.0015521235
8.319654E-4
4.572812E-4
5.712952E-4
6.62009E-4
0.001665692
0.0024255682
7.9676235E-4
-3.8751292E-5
-1.9484878E-4
-0.0014775784
-2.1610527E-4
6.532544E-4
-0.0011860911
-5.432692E-4
7.537218E-4
-3.4374016E-4
-9.348508E-4
-3.2146033E-4
-4.2668343E-4
-0.001066922
-8.714444E-4
-6.6568836E-4
-2.4391655E-4
4.7412864E-4
-6.8373326E-4
-0.0014782547
-0.0010506931
-0.0011981768
1.1104096E-4
7.8545854E-4
6.485658E-4
0.002724749
0.0013377693
-0.0013307385
0.0013804231
0.0022536947
3.160028E-4
9.684404E-4
0.0014283812
7.343232E-4
-7.845156E-4
-0.001399452
9.145687E-4
9.235648E-4
-0.0016661295
-0.0019257857
1.0173378E-4
0.0023110735
0.0014884985
-0.0011776203
-0.0013517516
-5.2435134E-5
1.0268897E-4
-9.774745E-4
-5.8487843E-4
7.515748E-4
4.3182325E-5
-1.8919219E-4
-4.0272524E-4
-0.0022692722
-0.0019533115
-9.151089E-5
3.260489E-4
-2.3978025E-4
-1.2811532E-4
6.167901E-4
-1.7960068E-4
1.07557E-4
0.0016967597
-6.249225E-4
-0.0028534636
-8.434265E-4
1.4769222E-4
-0.0011450272
-0.0013471688
-4.8078026E-4
0.0013685619
0.0040048556
0.0036334777
0.0016795204
0.0015810855
-4.3881223E-6
-6.29715E-4
0.0014503675
9.0314716E-4
0.0010836767
0.0015737122
-0.001581913
-0.001550328
7.2225544E-4
9.831531E-4
0.0014024522
-9.631925E-4
-0.004111815
-0.0022479605
0.0014281926
0.0016698382
-1.1168847E-5
0.0016747806
2.2682005E-5
-0.008959424
-0.00856557
5.8745063E-4
0.0021995602
0.0014957569
0.0024884443
8.1145053E-4
2.22429E-4
-6.995941E-4
-0.0018473706
9.497861E-5
1.3896103E-4
-3.588784E-4
0.0014886552
0.002626427
0.003012638
0.0010449977
-9.0804003E-4
-1.6626102E-4
-4.7362E-4
6.074777E-4
0.0029213822
0.002413687
2.9156765E-4
-0.0027919605
-0.0027194533
3.8490866E-4
9.229984E-4
5.5772974E-4
1.9739979E-4
4.6476736E-4
0.0010062387
-9.637732E-4
-0.0012062746
2.0520813E-4
-3.8469935E-4
-0.0010475311
-0.0018440882
-0.0015826008
5.2184804E-4
0.0012690576
5.5056665E-4
-1.8873122E-4
-9.010755E-4
-0.0012460578
-5.874037E-4
-5.0159125E-4
-9.804614E-4
-4.827367E-4
-3.7441042E-4
0.0010554483
0.0013823276
-0.0020963717
-9.781364E-4
0.0022370266
0.001576261
0.0015142504
-1.0264045E-4
-0.0014653237
0.0011814459
0.0021879973
0.0012771218
3.4898313E-4
-3.5443608E-4
-4.399383E-4
-9.710234E-4
-2.4128315E-4
3.010706E-4
-3.7789464E-4
7.7300926E-4
0.0014168399
1.02900674E-4
-3.9466043E-4
4.827812E-4
7.234757E-4
-0.001353883
-0.0033144844
-0.0033203736
-0.0019922426
3.5609805E-4
0.001526703
0.0017962424
0.001731055
-9.768421E-4
-0.0031852298
-0.00187455
-1.3352088E-4
9.1197045E-4
0.0019705114
0.0019708439
7.876145E-4
5.0569646E-4
3.3812493E-4
-0.0016160047
-0.0013136675
1.5154347E-4
-0.0016328148
-7.6044316E-4
0.0020089035
0.0011506578
0.0016394645
0.00299671
0.0021234273
0.0017104684
9.305581E-4
-1.278614E-4
-1.7655692E-4
3.6345565E-4
5.157738E-4
-0.0013849217
-0.0028325287
-0.0026380292
-0.0019161123
-7.283739E-5
1.693247E-4
-0.0013145533
-0.0016248362
-8.927136E-4
3.1226428E-4
3.633548E-4
-3.6146035E-4
3.490126E-4
0.0010424637
-9.199556E-5
-0.0013470093
-0.0011189445
-0.0012051405
-0.0010534141
6.984302E-5
-4.789602E-4
1.6111687E-4
0.0029067323
0.00275722
0.0013638195
0.0025253997
0.0046821665
0.003593907
-4.1868092E-4
-0.0019243194
-0.0011684445
-0.0011975406
-0.0018029225
-0.0025242718
-0.0025235822
-0.0013911556
3.8288222E-4
4.352264E-4
-0.0015156302
-0.0010513893
0.0010644593
8.994533E-4
-6.553255E-4
-0.0014411261
-5.1077054E-4
9.887703E-4
5.378005E-4
-0.0011985998
-9.177768E-4
7.441555E-4
0.0013189383
0.0017529915
0.0021904649
0.0024465644
0.002444886
0.0013018603
6.0138706E-4
0.0011232359
0.0021479395
0.0011528465
-0.0023204384
-0.003340642
-0.0032804152
-0.003004063
-4.2381298E-4
-0.001088553
-0.0032314437
-0.002136171
-0.0020076414
-0.0026923816
-0.001374787
5.030813E-4
8.8301505E-4
9.395331E-4
0.0013594307
3.0237192E-4
-2.7901311E-5
0.0012881809
0.0030123857
0.003384767
5.427786E-4
5.471752E-4
0.0024909398
1.3570717E-4
-8.309077E-4
0.0012032504
0.0015795653
6.5706926E-4
0.001067962
0.0011442405
-7.337423E-4
6.2465563E-4
6.36477E-4
-0.0019326109
2.3009088E-4
-0.0035643966
-0.008428684
-0.001648724
0.0013025566
-4.7532248E-4
7.341033E-4
1.2819913E-4
0.0013266283
0.0026865245
8.0050464E-4
-2.5235462E-5
5.026558E-4
0.0012629962
5.429216E-5
-0.0016691919
-0.0013876664
-0.0012420164
-5.218081E-4
-2.3334942E-4
-9.5268735E-4
-3.8590186E-4
-1.2478208E-4
-1.21067176E-4
-4.0653424E-4
-0.0013996969
-1.0537384E-4
0.0013274987
7.5483776E-4
0.0016360391
0.0017973603
-8.86287E-4
-0.0011996723
-3.072172E-4
-7.6787773E-4
0.0015385154
0.0034704164
0.002614353
0.0026912235
0.0015147879
5.4519984E-4
0.0011233368
-0.0016308529
-0.003580831
-0.0018981622
-0.001415346
-0.0016002646
-0.0014962172
-0.0010045689
5.2653305E-4
5.5832154E-4
4.15571E-4
0.00134962
-9.3983545E-4
-0.0035022805
-0.0011899378
7.8903773E-4
5.1762786E-4
0.0014180802
9.5711474E-4
-1.9216909E-4
0.0011161743
0.001261013
-2.7604E-4
-4.70867E-4
-2.938665E-4
-1.9811452E-4
-2.5767275E-5
-3.4578037E-4
-4.11267E-4
-9.3718007E-4
-0.0011342224
5.8918446E-4
1.6593245E-4
-0.0015486095
2.3814388E-4
4.605242E-4
-0.0017529097
-4.1664322E-4
0.0013325365
0.0011314286
0.0014009387
0.0011713338
0.0010382388
0.0013396873
0.0011571166
0.0024205518
0.0030429058
-2.9757005E-4
-0.002127317
7.4470416E-4
0.0013899667
-0.0013724419
-0.0023718504
-0.0027437909
-0.0029606887
-0.0012184221
-5.25822E-4
-0.0018906144
-0.0022114662
-0.0012201519
-0.0017046415
-0.0026966217
-0.001619751
-0.0012671156
-0.0021308656
-0.0021926821
-0.0024582879
-0.001199796
7.6541136E-4
4.3575623E-4
3.539758E-4
4.5997818E-4
-0.0012190872
-0.0027075373
-0.0023773485
-0.0013101322
-0.0021447083
-0.0038619176
-0.003550895
-0.003743249
-0.0048381104
-0.0021442743
0.0021542402
0.0041772793
0.00706111
0.00944352
0.00905459
0.010256352
0.011674578
0.010826866
0.010042599
0.008319297
0.0058725583
0.0040630163
6.8794494E-4
-0.0049197213
-0.009422769
-0.007329228
-5.37916E-4
0.0021163109
0.001956927
0.0056413542
0.009659558
0.009302922
0.007168508
0.003844027
-0.001963722
-0.008150944
-0.013215906
-0.018218115
-0.024352076
-0.028110499
-0.029023033
-0.031597763
-0.026793696
-0.011651072
3.6902522E-4
0.011852099
0.023068069
0.026573023
0.032281954
0.038905967
0.037797477
0.027190965
0.0016015301
-0.023766136
-0.035022385
-0.039396506
-0.03843337
-0.035628352
-0.026116692
-0.0051789577
0.0139202485
0.026854204
0.030422654
0.028864067
0.034028355
0.041031513
0.04938164
0.054579347
0.048384026
0.04045623
0.036515903
0.018262168
-0.03380668
-0.08779025
-0.110408664
-0.103483364
-0.060563345
-0.017973885
-0.0013650695
0.022177467
0.060123377
0.122096114
0.1729412
0.1449871
0.061060898
-0.02931604
-0.08717524
-0.12757349
-0.18352
-0.19335826
-0.15885425
-0.12928833
-0.08798464
-0.058019098
-0.04258488
-0.0014218828
0.065027185
0.1293579
0.16517286
0.18461943
0.17873706
0.11571309
0.019616783
-0.05870076
-0.086332545
-0.10295614
-0.11535425
-0.048938937
0.05787489
0.1284651
0.17139435
0.20867524
0.2504161
0.24922399
0.14955892
1.4897808E-4
-0.08781695
-0.11189101
-0.17104346
-0.23129256
-0.23737013
-0.2425561
-0.21662216
-0.14798857
-0.111274146
-0.088979185
-0.038145594
0.019617287
0.054098118
0.07310739
0.085503146
0.073693216
0.06506335
0.07199887
0.028407203
-0.073462784
-0.1403956
-0.105888434
0.0145879965
0.17291361
0.28975576
0.29624426
0.22421862
0.1319714
0.031612184
-0.05852324
-0.10794747
-0.12168159
-0.12397153
-0.10270805
-0.06781596
-0.043085545
0.013861064
0.07904618
0.07478863
0.037513696
0.013264151
-0.021050101
-0.06765362
-0.08282386
-0.04802502
-0.030743903
-0.065108046
-0.090466425
-0.08059503
-0.040721726
0.0117373355
0.026830282
0.036478754
0.089786306
0.1105796
0.055432525
-0.0083591845
-0.041839465
-0.05781702
-0.07108118
-0.063224696
-0.017020855
0.019449154
0.02274828
0.027570335
0.036381695
0.042686474
0.044296004
0.031376664
0.025566442
0.03800958
0.050148178
0.047376305
0.023589533
0.014249577
0.031515382
0.011250003
-0.048703525
-0.08296211
-0.0770105
-0.049087428
-0.022130905
-0.010102075
-0.0024329156
0.004204918
0.007825089
0.0076744976
0.0042249626
0.0061156927
0.007201551
7.633692E-4
-0.004948437
-0.008841185
-0.011102073
-0.011560213
-0.01206131
-0.010361151
-0.007363965
-0.0027856738
0.0052516614
0.012786796
0.01768856
0.021514181
0.02261734
0.019413432
0.015572299
0.011938155
0.0067447186
0.0025173533
-8.643144E-4
-0.0050225337
-0.010612624
-0.015556451
-0.014176045
-0.010397469
-0.008376565
-0.0048363265
-0.0011730997
0.0032621755
0.008085928
0.008019463
0.006541827
0.0076404884
0.0065840716
9.367613E-4
-0.0045645107
-0.005542598
-0.00483013
-0.004784177
-0.0039874273
-0.005886806
-0.00953463
-0.008352995
-0.0054287435
-0.0038968108
-0.0013973704
6.8584137E-4
0.0015971619
0.0023198512
0.002887325
0.0024156307
0.001877082
0.0039841193
0.005632977
0.0062651
0.008220721
0.008576594
0.008556871
0.00771971
0.0043987464
0.0033626733
0.0026822316
7.8673824E-5
-0.0015879938
-0.0026129715
-0.0026340273
-0.0032114426
-0.0058860006
-0.0087688025
-0.009638934
-0.0075468137
-0.007625973
-0.008282418
-0.003954673
-0.0014053673
-0.0014810943
-0.0015347064
-0.0039600963
-0.0028509349
2.2145792E-5
-0.0018697099
-9.601497E-4
0.0056389184
0.010050098
0.009084598
0.008261121
0.009087325
0.0068556825
0.007464083
0.009295867
0.0012462861
-0.0034074204
0.0025747865
0.004294647
0.0028585892
0.0038601416
0.0040222267
0.0022637227
-0.0026377009
-0.0068959338
-0.008129639
-0.010760798
-0.012460583
-0.010597728
-0.009668167
-0.0101954425
-0.009278649
-0.007219156
-0.0038816612
3.851463E-5
0.0017186091
0.0012419446
-4.2699752E-4
-0.0010690341
4.3401812E-4
7.226153E-4
5.75928E-4
0.0016310533
0.003495302
0.0076306188
0.00976099
0.0072129187
0.0069379355
0.011375055
0.0139689855
0.012398333
0.009713603
0.005214408
0.0013633834
-8.4429845E-4
-0.0047596744
-0.004165299
-0.0021377138
-0.006122161
-0.007443902
-0.00612023
-0.0055580568
-0.0025357953
-8.174379E-4
-0.0017590319
-0.0025770077
-0.0020433664
-0.00342345
-0.0054333135
-0.0072780475
-0.020908222
-0.026816372
-0.004924838
0.010690438
0.009457633
0.008492192
0.004466023
0.003304302
0.005694708
0.004696403
0.0048986184
0.0034072762
9.236472E-4
0.0011344408
0.0010832411
0.002675767
0.004612244
0.0052355174
0.0050222203
0.0022709286
0.0011334445
0.0021373604
0.0011307184
-2.5321258E-4
-6.7244185E-4
-0.0013083635
-0.0023743517
-0.0028407937
-0.0032171924
-0.0038596718
-0.002840078
-0.0017970885
-0.0019887744
-0.0026708622
-0.0039595254
-0.002668356
-1.0644037E-4
-3.1635573E-4
-8.5768837E-4
-6.6855154E-4
-1.4197666E-4
3.2768262E-4
-2.2963664E-5
8.871847E-4
0.0013496324
4.0911438E-4
7.576479E-4
2.3779696E-4
-7.423791E-4
5.2251606E-5
3.5958103E-4
5.2742974E-4
0.0012198642
0.001161371
3.2021618E-4
1.1869092E-4
0.0013707193
9.335982E-4
1.3575933E-4
0.0018585884
4.874669E-4
-0.0025473954
-8.915804E-4
0.0013218787
5.0344516E-4
-0.0011855141
-9.761406E-4
7.141164E-4
9.946646E-4
0.0010629499
0.0011158844
-9.041405E-6
-0.0016068468
-0.003347901
-0.0019267843
9.1207837E-4
7.876476E-4
9.84545E-4
0.0011166804
6.4399856E-4
0.0013127648
-1.2780889E-4
-0.0017447058
-0.0014917294
-5.956747E-4
0.001388233
8.4761536E-4
-8.895594E-4
-0.0010229065
-0.0018042482
-3.374662E-4
0.0015118504
-5.895198E-4
-9.548716E-4
0.0016074013
9.597637E-4
-0.0012232813
6.248235E-5
6.6498306E-4
-0.0012467887
-0.0011230316
-8.718813E-4
-6.506084E-4
3.4332302E-4
-2.7735013E-4
5.651313E-4
5.254385E-4
-0.0014660293
4.4704892E-4
0.002149785
7.856927E-4
-6.836452E-4
-5.4855424E-4
0.0019002014
0.001400885
-0.0010909142
-4.0685135E-4
2.5419673E-4
2.1756983E-4
5.539072E-4
-3.47545E-5
-6.530667E-4
6.062442E-4
0.0018931491
-3.7180493E-4
-0.001563437
-6.584991E-5
-0.0010777117
-0.0018307501
-6.596485E-4
6.137494E-4
0.0011342686
-9.479433E-4
-0.0023167615
-0.0012463093
1.5872768E-4
0.0010617647
0.0012132053
0.001811985
0.0014930617
6.675739E-4
-1.3898592E-4
-9.4698847E-4
9.127884E-4
6.418143E-5
-0.0014053499
1.7125507E-4
-0.0027514228
-0.0021808408
0.0018442166
0.0021559692
0.003992071
-0.0028922309
-0.008011355
0.0022573152
0.004616572
0.003584748
0.003766146
-0.0073999446
-0.008567464
3.6388994E-4
0.0015168336
0.0023702662
0.0019132654
1.16765696E-4
0.0015583087
9.494601E-4
9.753518E-5
2.4048134E-4
-2.9716903E-4
2.4992952E-4
4.8915786E-4
2.9513572E-4
9.986387E-4
0.0012009615
4.1848113E-4
-1.362161E-4
-0.0010925522
-0.0019484787
-7.3280535E-4
1.4660109E-4
6.5440596E-5
2.9502725E-4
-7.271695E-4
-0.001485965
-6.533403E-4
3.8580442E-4
3.9383458E-4
-7.0725335E-5
0.0010870271
9.799746E-4
-9.641511E-4
-6.398745E-4
7.661093E-4
0.0012507454
3.5089202E-4
-1.4061725E-4
4.2665724E-4
-7.661658E-4
7.158684E-5
0.002174334
3.7086854E-4
-2.5822633E-4
8.459225E-5
-0.0018597521
-0.002180061
-0.0013614802
-6.330141E-4
1.7028878E-4
-2.5962474E-4
-7.1060593E-4
-4.7710614E-4
6.2244646E-5
6.828468E-5
-1.9246724E-4
5.255919E-4
-2.3438534E-4
-8.9674426E-4
0.001252605
8.047246E-4
-0.0010492392
4.9107516E-4
0.0010741195
8.812963E-4
0.0022207918
7.7687105E-4
-0.0014150664
-1.0038217E-4
8.147111E-4
-1.6275368E-5
1.5859575E-4
4.3705702E-4
5.7391117E-5
-4.986668E-4
-6.792303E-4
3.4467137E-4
8.07998E-4
0.0013619749
0.002605728
6.520786E-4
-0.0017428544
-0.0018466479
-0.0016865307
0.0010933643
0.0026543667
-8.2389386E-5
-8.7068713E-4
-0.0010230263
-0.0017049598
-4.379357E-4
1.6759675E-4
7.5797265E-4
3.2360764E-4
-0.0021639105
-0.0017167097
5.161993E-5
-3.084819E-5
-2.7824414E-4
-8.503387E-4
-0.0013953185
-7.3173514E-4
-1.05223335E-5
-5.2374834E-4
-4.9348606E-4
8.280196E-4
0.0012159823
8.4381935E-4
2.5181397E-4
9.6199603E-4
0.0031533262
0.0019602187
-1.705577E-4
4.4442972E-4
-3.8259928E-4
-0.0015000855
5.489795E-5
0.001726487
6.974338E-4
-0.0011931976
5.880964E-5
9.371997E-4
-3.8584042E-4
-1.591651E-4
6.42656E-5
3.127165E-4
2.468254E-4
-0.0011934445
-5.6382745E-5
0.0010059209
-3.3784614E-5
-2.3581479E-4
-0.0013650134
-0.0017786195
-3.1269985E-4
-2.546452E-4
-6.9937983E-4
-5.203219E-4
-7.851548E-5
5.945067E-4
0.0012871494
0.001142853
-1.4219999E-4
-2.1036396E-4
-4.8586997E-4
-0.0022679048
-0.0022487578
-0.0010893904
1.4964797E-4
5.1231653E-4
-0.0012050128
-2.56511E-4
0.0022093903
8.3202525E-4
1.7351207E-4
0.0021401304
0.0024431592
0.002454591
0.002196379
-3.2360898E-4
-5.481532E-4
0.0018866301
0.0011627501
-9.3131344E-4
-8.7875704E-4
-9.629106E-4
-0.001032497
-6.3816726E-4
-0.0015715968
-0.0018005554
-0.0012657144
-0.0015291786
-6.717208E-4
-7.3177944E-4
-0.0016793555
-5.315882E-4
9.560121E-7
4.4263134E-4
0.0012501674
8.657266E-4
8.4589166E-4
2.048853E-4
0.0012549036
0.0025300614
5.373873E-4
9.724064E-4
0.0012993723
6.463384E-4
0.0012624714
-0.0014007023
-4.8098946E-4
0.002761317
0.0012415313
-5.2215054E-4
-0.003281662
-0.0019805962
0.0020226547
0.002021618
0.0029350144
-0.0037684664
-0.01050668
-0.0024509798
0.002025713
4.403014E-4
7.8945234E-4
-7.743201E-4
7.69656E-4
0.002140265
4.371663E-4
0.0012515342
0.0026247713
0.0025148976
3.5192008E-4
-0.0012119028
-1.0809289E-4
2.129557E-4
1.3824167E-4
9.873613E-4
2.0552617E-4
-0.002718271
-0.002084534
-1.049992E-5
-0.003294545
-0.003991895
-0.0011018893
-0.0019042124
-0.002629187
-0.0022710192
-7.761779E-4
0.0021209635
0.0031240913
0.0033697882
0.00326192
0.0035547607
0.0034204184
0.0019199069
0.002976195
0.003087295
0.0012511053
0.001644364
2.4531988E-5
-0.0015427473
0.0010044352
0.0010470555
-8.47175E-4
1.4200539E-4
-2.3924707E-5
-6.1576E-4
0.0012268969
0.0014334213
0.0016123222
0.0019420955
-0.0021494934
-0.010344718
-0.021943286
-0.02318366
-0.00523942
0.008880564
0.00854212
0.006858941
0.005955578
0.0031135215
0.0016913981
0.0027443608
0.0018490887
2.7815378E-5
9.85801E-4
7.990486E-4
5.1348656E-4
0.0023779722
0.0022996734
0.001992998
0.0023947237
0.0012209205
0.001487568
0.0022072687
-3.31863E-4
-0.0013240892
1.359049E-4
-7.256525E-4
-7.760341E-4
-8.3352707E-4
-0.0022121484
-6.782057E-4
-0.0017215936
-0.003399444
-8.8336965E-4
-0.0018656328
-0.0023901917
7.1200985E-4
0.0012601262
5.749998E-4
-8.761341E-5
0.0010276275
0.002270569
0.001054089
0.0011805639
7.355355E-4
-2.01412E-4
-4.8955103E-6
-4.379385E-4
2.4903036E-4
-2.443554E-4
-0.0012314339
-5.7661714E-4
-8.71822E-4
-5.1475986E-4
-0.0012013832
-0.002331055
-0.0012643368
-0.0012804825
3.498539E-4
0.0027929628
0.0015944126
2.627035E-4
3.428718E-4
7.148063E-4
1.21339945E-4
-7.418606E-4
-5.9561327E-4
-4.766107E-4
8.845741E-4
0.0017113982
0.0014087455
0.0014113062
-4.3361596E-4
-6.5199105E-4
4.1392032E-4
-0.0011530166
-0.0013560938
1.1277423E-4
0.0015036549
0.0020112884
4.229971E-4
3.045572E-4
0.0010693538
-3.5183146E-4
-0.0010065662
3.530705E-4
6.987644E-4
-6.013346E-4
-0.001111529
-2.2684368E-4
3.2911025E-4
-3.6189388E-4
-5.588273E-4
-3.0807747E-5
-8.3403685E-4
-4.4243524E-4
7.4644556E-4
-3.5250274E-4
-4.1646164E-4
7.944409E-5
-7.2213373E-4
-3.1987464E-4
-3.2653406E-4
-0.0018905407
-0.0022031907
-0.001068722
-0.001025517
-3.870557E-4
0.0019986534
0.0010646096
-9.105121E-4
4.0252434E-4
0.001045792
6.598766E-4
7.0963637E-4
9.792307E-4
0.0012248211
-2.74561E-4
-0.0012332113
-1.002697E-4
7.246346E-4
0.0015333297
0.0020936315
7.8504457E-4
1.6588699E-4
0.0016752485
0.0013042028
-4.6185986E-4
-0.0013272164
-0.0025899012
-0.0013157199
0.0012294385
1.5340568E-4
-0.0013129561
-6.528174E-4
7.180545E-4
0.0015015111
0.0010226514
-3.5753453E-4
-0.0011641984
-5.4294744E-4
-8.9418207E-4
-7.6125446E-4
4.0645569E-4
7.400308E-4
0.001977494
3.031824E-4
-0.0016259281
-0.0011882642
-0.002262795
0.0021510592
0.001607054
-0.0072013796
-0.0034102574
0.001966515
0.0023973694
0.0032829214
-0.00497724
-0.0058784573
0.003966043
0.004710237
0.0017651661
1.5511242E-4
-1.0826506E-4
3.7999736E-4
-6.461861E-4
0.0019048126
0.0031681967
0.0012663059
0.001281972
0.0012635539
0.0017676791
5.930533E-4
-0.0013017392
-3.40574E-4
-9.382759E-4
-0.0017801702
-0.0013941964
-0.0015798107
-3.6736848E-4
9.297904E-4
7.459606E-4
-5.7356537E-4
-0.001360572
-4.4680753E-4
-6.306085E-4
-0.0017897228
-0.0020925358
-0.0013520428
2.2303258E-5
2.4357131E-4
3.0159514E-5
2.8544555E-6
-6.219729E-4
-5.026578E-4
4.4465513E-4
0.001024687
4.156024E-4
-7.175526E-4
-7.009785E-4
-3.837432E-4
6.1697717E-4
0.0021436648
0.0016923425
0.0016675177
0.0031413538
0.0033168013
0.0021136631
1.2930787E-4
-4.765213E-4
-2.9544084E-4
-7.259138E-4
0.0012161
0.001967897
7.031047E-7
-9.5250714E-4
-0.0019114908
-2.7243322E-4
0.0017445689
0.0020021796
0.0022762131
-0.005993846
-0.012070537
-0.0036554614
7.336799E-4
-0.0016885997
-0.0025689658
-0.0028214622
6.7467475E-4
9.2741795E-4
-0.0012854879
0.0021446513
0.0025112329
5.333509E-4
0.0013910168
0.0014964421
0.002590374
0.0027497585
0.001511189
0.0020439108
0.0010602851
2.887179E-4
0.0013191097
6.739581E-4
-3.2247888E-4
-2.0407575E-4
9.407586E-4
0.0014328933
1.4757336E-4
4.3237023E-4
0.0011742687
4.1157936E-4
1.3396495E-4
-0.0010282197
-0.0026804595
-0.0030546393
-0.002775435
-0.0011430205
-3.777019E-5
-5.9768015E-5
0.0011665636
0.0013905738
-4.1089483E-4
-0.001362607
-9.636945E-4
-3.2468763E-4
6.100979E-4
6.9503067E-4
-0.0012658299
-0.002043039
-0.0015316419
-0.0019392513
-4.6755926E-4
0.0010527818
7.038491E-5
-1.6472029E-4
4.8543804E-4
7.2828826E-4
2.8915112E-4
6.982607E-4
0.002342606
0.001558292
1.6472634E-4
7.9307985E-4
0.0010330767
-1.9586003E-4
-0.0010736532
0.0010715326
0.002437345
0.0013670964
0.0015320039
3.841983E-4
-1.9665751E-4
8.47594E-4
-0.001445166
-0.002986128
-0.0020139385
-0.00121525
-4.922675E-4
-7.987457E-4
8.930555E-5
8.2681637E-4
-2.8558023E-4
4.056239E-4
6.1627326E-4
-3.824795E-4
-3.307753E-4
-2.9042887E-4
-4.265873E-5
-6.996871E-4
-9.282028E-4
8.814015E-4
0.0010700551
-2.8689206E-4
-6.4793346E-4
3.6148593E-4
8.554211E-4
-1.6168844E-4
8.431221E-5
9.174982E-4
7.5974665E-4
-4.2669277E-4
-0.0020757162
-7.1506057E-4
3.6982616E-4
-9.6965244E-4
-1.9994426E-4
5.568199E-4
0.0012175202
0.0024513807
0.0013167313
5.645112E-4
-6.972451E-5
-4.556716E-4
5.73993E-4
-0.0011608677
-0.001984458
-1.7266835E-4
-4.8442112E-4
-6.8269233E-4
3.309968E-4
0.0016628895
0.00221783
0.0011454641
0.0014474746
7.6273625E-4
-0.0023396944
-0.0032944197
-0.0023028392
-0.0011907521
-7.491435E-4
-0.0013331311
-0.0010115609
4.8812962E-4
8.276155E-4
4.8669422E-4
0.0012992234
5.43358E-4
-2.5452068E-4
0.0017389103
0.0015536419
6.823978E-4
0.0010015582
-5.687671E-4
-6.605403E-4
-4.1164862E-4
-0.0013626566
6.6951716E-6
0.001640153
0.0016191722
3.6265407E-4
-1.4536819E-4
3.2856496E-4
-1.2533908E-4
4.7896107E-4
2.8868742E-5
-0.0018972893
-0.0025549054
-0.0028131865