0.0019744856
0.0015441136
0.0010362006
-0.001963817
-0.0010930996
0.0011642083
-0.0017213109
-0.0025026859
-6.2462816E-4
-3.048797E-4
-2.4996654E-4
-8.583559E-4
-0.002126316
-0.0026674091
-0.001223526
7.965583E-4
0.0016059004
0.002354771
0.0020240059
4.487156E-4
-3.504714E-4
6.484526E-4
0.0019462018
9.63844E-4
0.001246379
0.0029370002
0.0016698434
5.9888355E-4
9.0867997E-4
6.01892E-4
4.5294053E-4
9.646034E-4
8.564774E-4
-4.0569244E-4
6.2284415E-4
0.0011101482
7.985556E-4
0.001856476
-0.0044277348
-0.005628368
8.4781187E-4
-0.009898573
-0.016372139
-0.002647765
0.003113878
0.003079386
0.00434499
0.0018790457
0.0020239921
0.0018624072
0.0015235518
0.0018236693
-1.324458E-4
0.001289273
0.0019652576
0.0010700083
0.002594846
8.910006E-4
-6.24415E-4
2.954241E-4
7.4494653E-4
0.0015637003
-9.988879E-4
-0.0029056992
4.096525E-4
0.0018764122
4.1719948E-4
-7.3331274E-4
-8.3040755E-4
-8.0206303E-4
-0.00214593
-0.0023279386
-0.0018370629
-0.002026666
-0.001042426
2.2623087E-4
0.0023604021
0.0035970178
0.0017757443
0.00110411
0.0011066416
6.08513E-4
7.329052E-4
2.9812934E-4
5.2412896E-4
-2.1863649E-4
-8.2435546E-4
3.4374816E-4
-5.5682845E-4
7.5433723E-4
7.958038E-4
-0.003894671
-0.0022720534
-0.0012850789
-0.004053548
-3.5126627E-4
0.0018277717
0.0012936991
0.0019057383
-3.9032317E-4
-0.0010606544
-4.656512E-4
-8.7868917E-4
1.08830245E-5
6.495498E-4
0.0010313978
1.6839449E-4
-4.3109246E-4
5.110408E-4
5.1166302E-5
3.821317E-4
1.9045109E-4
-0.0015096047
1.2145068E-4
0.0022051784
0.0012974326
3.2567434E-5
8.352889E-4
0.0024524773
0.0017118948
3.5433564E-4
3.7411293E-5
-7.740729E-4
-0.0016721484
-0.0012870624
6.470381E-4
0.0015923976
0.0013517645
0.0014319117
1.3925988E-4
-7.2409987E-4
-9.039367E-4
-0.0022157559
-0.00144996
-4.4843953E-4
-0.0012741243
-9.5668883E-4
-0.0011913541
-0.0016247306
-1.9602293E-4
1.570235E-4
-0.0015382036
-0.0023371505
-2.8803418E-4
0.0013203846
7.612075E-4
0.0012457373
0.0017995073
0.0018448047
0.0015628213
-8.132511E-4
-0.0010378514
0.0017525706
0.0025340803
0.0023062236
0.002494178
0.001396669
-2.7762899E-5
-5.1869685E-4
-0.0017865526
-0.002141574
3.213591E-4
9.462711E-5
-0.0012294765
3.0021137E-4
-7.127949E-4
-0.0016521765
-2.713121E-4
-5.4495013E-4
3.1402113E-4
2.2480167E-4
-0.0015147756
-1.9599515E-4
-2.7745E-4
-0.0025420927
-0.0022340207
-9.517253E-4
-2.5083511E-6
0.0013144099
0.0015356379
7.330213E-4
8.164331E-4
6.1170023E-4
5.92054E-4
0.0013166846
-1.2848545E-4
-3.6178826E-5
0.0018534848
8.52423E-4
5.238542E-4
-2.7035558E-4
-0.0020758742
-8.110267E-4
-2.7482017E-4
8.0722326E-4
0.0036198976
0.0034515474
0.0018675072
-5.618429E-4
-0.0031957326
-0.0040026996
-0.0025574672
0.0015354693
0.0023186111
-6.781822E-4
-7.439852E-4
5.2815816E-5
-1.5935709E-4
8.1403664E-4
0.0010869777
-3.2654993E-5
-1.05833815E-5
-2.4633406E-4
-0.001985379
-0.0023010198
-0.0022360976
-0.001974092
-9.256107E-4
-0.001856664
-0.001288523
9.124719E-4
0.0012120962
0.0016371924
0.0010762404
2.1782289E-4
-2.0168112E-4
-6.5478607E-4
0.001994491
0.0037824123
0.0031963566
0.0031325403
0.0023965097
0.002631135
0.0017856165
-2.6729621E-4
-1.21244404E-4
-0.0012157157
-0.0031085927
-0.0028584402
3.332817E-4
0.0027730486
9.480859E-4
0.00111738
1.8886906E-4
-0.0015752865
0.0026900254
-0.0029837391
-0.016705558
-0.016308567
-0.006593964
0.0021229328
0.005873101
0.0048428513
0.0050379373
0.0033800802
0.0012509705
0.0022804453
0.0016933754
0.0017498444
0.0034785266
0.0033292023
0.0024750347
0.001189787
-5.929176E-4
-0.0014240448
-5.6983746E-4
2.1457026E-4
4.7001193E-4
0.0021863119
0.0020460738
-2.2174779E-4
-3.7937233E-4
-2.7688465E-4
-8.9048065E-4
-0.0019721687
-0.0033609448
-0.002515785
-0.0014713522
-0.0019358878
-0.0017355225
-0.0012701642
-0.0011333423
3.830297E-5
0.0014919948
0.0010587759
0.0016015681
0.0037005078
0.0021260574
2.734033E-4
6.0637976E-4
-0.0015323703
-0.00332214
-0.0022908917
-1.9334594E-4
0.0015759545
0.0012652419
0.0011945725
0.0017187056
0.0022507443
0.0027629195
-7.219414E-4
-0.0038224966
-0.0021305329
-7.4007927E-4
-6.1079394E-4
-0.0015606155
-0.0024054472
-8.437453E-4
4.3464577E-4
0.001754297
0.002586009
6.578829E-4
-4.518011E-4
-5.9354275E-6
-3.2503894E-4
-6.416266E-4
7.54281E-4
0.0019803508
2.3576838E-4
-0.001311958
-0.001083135
-4.934568E-4
1.3907622E-4
-3.0596304E-4
9.2883356E-4
0.002760433
0.0015487662
8.962177E-4
4.3982404E-4
1.946359E-4
0.0013857157
-5.727929E-4
-0.0021157458
-7.283243E-4
-6.220744E-4
4.9644546E-4
0.0010434998
-9.5896865E-4
-7.195888E-4
3.1210572E-4
-5.589127E-4
-0.0011322253
-8.285567E-4
-9.5867936E-4
-0.0011543012
2.4296202E-4
5.349289E-4
-0.0014483946
-7.2710303E-4
0.0016583133
0.0015013457
3.1434055E-4
-6.839844E-4
-0.0016034095
-0.0014885574
-6.284786E-4
-5.268098E-4
-0.0011227166
-4.842236E-4
8.235199E-4
2.2710873E-4
1.1348665E-4
0.0030395044
0.003495425
-3.7932463E-5
-9.912165E-4
4.7561343E-4
9.4953814E-4
8.3420816E-4
2.3618859E-4
3.4431976E-4
0.0015856937
0.0023780568
0.0011712397
-0.0013602211
-0.0016364547
-0.0010328315
-0.0015557593
-1.8052086E-4
0.0023452942
0.0023878394
-5.698846E-4
-0.0020186547
-0.0011029015
-0.002272121
-0.0017411999
4.8075552E-4
-9.1318245E-4
-8.8793633E-4
7.158074E-4
-1.740929E-4
-0.0011695835
-0.0014801621
-4.170284E-4
9.5467083E-4
4.621456E-4
-1.6796976E-5
8.2505675E-4
0.0016488928
6.2249834E-4
-3.6259947E-4
-2.406243E-5
-3.9405044E-4
2.2974236E-4
0.0013858131
2.1225404E-5
-0.0012896204
1.4482017E-5
0.0016836952
0.0016780847
0.0010941563
-1.1254221E-4
-0.0010677724
-4.9924175E-4
-0.001041666
-8.3674403E-4
5.063737E-4
-3.3395796E-4
4.8417438E-4
0.0017075785
1.7008907E-4
2.297954E-5
-0.0011245396
-0.0045506093
-0.0040458906
-5.075339E-4
6.8421266E-4
-3.4024628E-4
-3.092568E-4
0.0017917653
0.003025069
0.0012422332
-9.059193E-5
6.293434E-5
-2.9999108E-4
0.0012845844
0.0026791422
0.0011511297
0.0010133941
0.001375451
-1.5981926E-4
-0.0010769829
-3.2077054E-4
5.535925E-5
-3.1686327E-4
8.4065174E-4
0.001969834
0.002001399
-0.0014252379
-0.0051053367
0.002311927
0.002364289
-0.013462308
-0.011199811
0.0030232861
0.0039078845
0.0028752873
0.0031788442
0.0013051964
5.9215253E-4
-3.31339E-4
6.342645E-5
6.517517E-4
8.747859E-5
-6.4294616E-4
-0.0016606287
-0.0010265234
7.183185E-4
0.0022825082
0.0022912642
0.0018933598
0.0028325927
0.0011948232
-9.6294144E-4
-0.0017963997
-0.0034162905
-0.0018551496
7.1690493E-4
3.164062E-4
2.649997E-4
9.4322616E-4
0.0011189686
0.0011250477
3.9268646E-4
-0.0010801866
-8.074837E-4
6.235985E-4
4.4076508E-4
7.47662E-4
5.09641E-4
-0.0013320514
-0.0010699149
-8.01159E-4
-0.0012701831
8.173366E-5
4.6125698E-4
-0.001026293
-9.413604E-4
3.2191435E-4
-3.9315913E-4
-0.0011982493
-4.467464E-4
6.3636363E-4
0.0013317734
-0.0010857909
-0.0018271849
0.0015647828
6.4406416E-4
-8.3941146E-4
4.328702E-4
-1.4694234E-4
0.0010807442
0.0025235268
0.0023730006
0.003277603
0.0014085174
-0.0011097557
-0.0011214672
-0.0021488683
-0.0027840394
-0.0013256867
-3.9461273E-4
-7.87949E-4
-5.9347524E-4
2.8882243E-4
-3.265363E-4
-0.0016315494
-0.0013825458
-7.010097E-5
0.001260256
0.0023723287
0.0017440289
-1.811909E-4
-7.744008E-4
-0.0014196836
-0.001331717
0.0012506805
0.0019388725
9.2424353E-4
7.2338793E-4
1.7294096E-4
6.1199913E-4
0.0017311318
0.0012409269
-7.5028476E-4
-0.002065265
-0.0012695026
-8.169062E-4
-5.2726484E-4
2.7801003E-4
-5.2520755E-4
-6.738859E-4
2.0545295E-4
-5.569046E-5
1.4931567E-4
7.2290207E-4
7.111757E-4
7.301788E-4
8.166001E-4
9.416125E-4
1.463759E-4
-0.0013516765
-0.0016345315
-0.0015949694
-0.0014774831
1.0225842E-4
8.440138E-4
0.0013605321
0.003494991
0.0025064268
-7.0013787E-4
-0.0011534413
-1.9459805E-4
5.7936722E-5
-0.0018466061
-0.002550392
8.1293227E-4
0.0022826619
0.0011239292
1.8085311E-4
-0.0017666625
-0.0021241498
-3.3259348E-5
-4.1149533E-4
-0.002292888
-3.510328E-4
0.001350593
-4.5679993E-4
-4.1909525E-4
-7.548049E-4
-0.0016200555
0.0012003026
0.0012501355
-2.4097045E-4
0.0021018279
0.0023742802
8.9250883E-4
0.0015260082
0.0015256547
2.4394656E-4
1.216567E-4
4.883422E-4
-0.0010931526
-0.0019920417
9.131549E-5
0.0010618801
-1.9277899E-4
3.3299773E-4
0.0015119109
-2.6968124E-4
-8.279852E-4
4.6532555E-4
-0.0016383094
-0.002350269
4.4406592E-4
9.685721E-4
1.249469E-4
-3.3084615E-4
-1.4789787E-4
5.90432E-4
3.56638E-4
-4.0430823E-4
-0.0017330946
-0.0010605541
5.616465E-4
-0.0025696915
-0.0044662785
-0.0016431817
1.0889864E-5
9.1705244E-4
3.3402286E-4
-0.0013266313
3.1338423E-4
0.0018322178
0.002185762
0.0033517468
0.0018240898
-4.418943E-4
4.85494E-4
0.0014570988
6.300846E-4
9.7090437E-4
0.0023613493
0.0018674888
0.0013881907
9.32284E-4
2.3184299E-5
0.0017432673
0.0015163777
0.0010926055
0.0033065593
-9.385814E-5
-0.00101438
-3.0507433E-4
-0.007298579
-0.005067083
-0.003887974
-0.016552731
-0.013664932
0.0012922464
0.005932763
0.0063973824
0.00656005
0.00601772
0.0039343648
0.0018487043
0.0031063412
6.7212136E-4
-0.004272797
-0.004314099
-0.0011730092
0.0013694518
0.0015004635
0.0017231489
0.0014944563
-1.04041486E-4
0.0013776
0.0030080215
0.0019624112
0.0011975877
1.0788273E-4
-5.299644E-4
-3.9174334E-5
-9.482404E-4
-0.0015145642
-8.282553E-4
-0.0019038117
-0.0016502825
2.4984655E-4
-0.001977527
-0.0028814848
7.6958456E-4
0.0017471145
4.5463088E-4
-2.2541403E-4
-3.0912404E-4
-2.8969994E-4
-0.001231462
-0.0016933989
-0.0012457576
-2.1302867E-4
-8.4527355E-4
-0.0020959072
1.6598964E-4
4.4186052E-4
-1.7279708E-4
0.0025864216
0.0025695183
0.0015072144
5.3203898E-5
-0.0011040026
0.0022201126
0.0014345181
-7.0617616E-4
0.0027177155
0.0038195227
0.0041139703
0.004176159
5.4364715E-4
-9.924261E-4
-5.113706E-4
-0.0016226898
-0.0036040298
-0.004523447
-0.0040130685
-0.0040672384
-0.0029800832
-7.9007546E-4
6.49623E-5
5.04776E-4
3.363656E-5
-5.6899333E-4
3.703529E-4
0.0017328749
0.0014161258
-0.0010654962
-0.0011505226
0.0019906135
0.003874251
0.0035265556
0.0016439914
8.009958E-4
4.756866E-4
-0.0023861597
-0.002752784
-2.1425521E-4
-6.3860894E-4
-4.938336E-4
0.0012220152
3.7074485E-4
1.647605E-4
-2.6628937E-5
-0.0025066067
-0.001536564
9.944502E-4
-2.7347903E-4
-1.5040586E-4
0.0034432616
0.0037919588
2.8412326E-4
-2.8119722E-4
5.010578E-4
-0.0014167284
-0.0020074314
-0.0011729125
0.0010874525
0.003774322
0.0014597379
-1.5811785E-4
2.6883683E-4
-8.332042E-4
0.001624532
0.0017504704
-0.0019240231
-0.0010186641
-0.0013024176
-0.003999295
-0.003452975
-0.0024537665
-0.0021482345
-7.2166405E-4
9.958908E-4
0.0012037302
0.0016923571
0.0019474863
-0.0014181413
-0.0024276383
7.4563886E-4
0.0011481341
2.6526628E-4
-3.7167882E-4
-0.0015545504
0.0010162529
0.0039292653
5.8512215E-4
-0.0023782349
9.4876735E-4
0.0038695019
0.002623844
0.0023740313
0.004192493
0.0029443174
-3.6174522E-4
-0.0025243375
-0.0051031453
-0.0036063327
0.0016816048
0.0032447884
0.004359679
0.004092124
4.2099712E-4
-0.0012099391
-0.002387024
-0.0023739438
-0.0022149535
-0.005042558
-0.0063976953
-0.005959765
-0.0025876607
5.867012E-4
-6.261743E-4
1.9007546E-4
8.7880285E-4
0.0015229491
0.0037664762
-4.2871927E-4
-0.004559164
-0.0018751178
0.0016349882
0.0015162496
-6.037546E-4
0.0018488343
0.0028313587
-0.0014981619
-9.5281843E-4
0.0017288009
0.0017822046
0.0016639259
0.0018598824
0.0048662685
0.007396183
0.006947904
0.007510683
0.0058949445
9.7221904E-4
-0.0029781898
-0.00737393
-0.008552574
-0.0041876812
-0.0031887852
-0.0032590926
-0.001086596
-0.0020675205
-0.0019295526
1.0915014E-4
0.002143863
0.003319341
0.0021844618
0.0037273506
-0.0018022895
-0.007962562
8.152163E-4
-0.0035443963
-0.015590154
-0.0059348526
0.002233665
0.0010785897
0.0022441985
4.704836E-4
-0.0014269735
-9.236044E-4
0.0024960968
0.0052045607
0.0029071588
0.0017344416
0.0010048598
9.7229244E-4
0.002631477
0.0023576347
0.0020848894
-0.0015344397
-0.005164136
-0.0013897466
5.2455236E-4
-0.0015340325
-9.5895835E-4
-3.2357796E-4
4.8166304E-4
0.002745254
0.0020446486
0.0027470463
0.0074420115
0.0032682864
-0.006049844
-0.0056038545
-0.0017607145
-0.0011540812
-0.0010879501
-0.001455432
-0.0029110042
-0.0039468124
-1.7982416E-4
0.0033188192
0.0018378384
0.0026135617
0.0034683237
-5.209352E-4
-0.003391472
-0.0027407717
-0.0038039978
-0.007656123
-0.009647874
-0.010227221
-0.0070297336
0.001968382
0.003616974
-0.0015382131
0.0017814989
0.007686075
0.00827522
0.010400741
0.012655786
0.011503753
0.011235381
0.010458682
0.008768042
0.008170825
0.004782803
-2.3003297E-5
-0.0014903649
0.0038754065
0.010326424
0.0046946234
-0.008179191
-0.021647988
-0.034103803
-0.03167129
-0.0166703
-0.006198589
-3.2407301E-4
0.009567946
0.019827215
0.019591922
0.017348781
0.024676768
0.02872655
0.026322674
0.02931779
0.027370216
0.009793155
-0.011071822
-0.026680527
-0.035803284
-0.038994484
-0.041129086
-0.041996375
-0.04364846
-0.042493306
-0.03876174
-0.051178124
-0.059062436
-0.033505466
-0.005258104
0.0069862115
0.016900044
0.02743733
0.043230396
0.060417138
0.0664704
0.070931144
0.08859483
0.09878372
0.07502497
0.044207864
0.039510045
0.043709774
0.03570049
0.019060964
-0.010241288
-0.061248966
-0.10272591
-0.08801565
-0.04189222
-0.03210305
-0.05514005
-0.06946374
-0.08384817
-0.093187906
-0.077696025
-0.072141714
-0.0763359
-0.04391863
0.02387728
0.08846946
0.10550872
0.07648025
0.054556023
0.084931165
0.16206758
0.1963836
0.12866075
0.008324065
-0.09693413
-0.12801556
-0.0836017
-0.020233676
0.027621487
0.029886493
0.0030763668
0.0037207417
0.029004795
0.03332314
-0.022344524
-0.11014973
-0.16169871
-0.15703855
-0.111835
-0.062742166
-0.0054111276
0.077235274
0.10356124
0.04548179
-0.014280404
-0.032144144
0.001489652
0.05741831
0.07990509
0.06283947
0.015990244
-0.024723502
-0.021870475
-0.015114748
-0.013760572
0.023503944
0.066025086
0.06995088
0.04347395
-0.00397433
-0.058439285
-0.07353762
-0.0114481645
0.07553738
0.098194875
0.06808262
0.063412815
0.10024096
0.075341836
-0.07457141
-0.19688487
-0.1819959
-0.11913529
-0.052859202
0.005352866
0.035911012
0.0640136
0.029641211
-0.0494788
-0.020438539
0.050981544
0.03579036
-0.00626733
-0.038525365
-0.054927398
-0.047317464
-0.058341034
-0.044985484
0.018640533
0.040700298
0.02019676
0.014669967
0.01620276
0.022794602
0.033074357
0.032253224
0.029510772
0.03244545
0.028640408
0.010655134
-0.0059126625
-0.010655556
-0.012442424
-0.012362297
-0.008520574
-4.213806E-4
0.011375923
0.019136209
0.024595648
0.028068136
0.025471259
0.023807772
0.020595854
0.010856824
9.608374E-4
-0.009157374
-0.01986553
-0.027370306
-0.032870255
-0.03410256
-0.028140957
-0.02330761
-0.022408336
-0.016757771
-0.008441222
-0.0019349797
0.0043430086
0.006056891
0.0068812678
0.011823807
0.012132123
0.007776075
0.0047698184
6.183008E-4
-0.003762188
-0.00549381
-0.007516455
-0.009932186
-0.0076387404
-0.0016344243
9.4394945E-4
0.0012374524
0.0043256204
0.0063521406
0.0064396616
0.0076077566
0.0061834683
0.0049450668
0.009707922
0.013411009
0.010528494
0.0050183204
0.0012428093
-2.8099548E-5
-4.3165902E-4
-6.4365607E-4
-0.0022563464
-0.003642049
-0.002656929
-0.0037454127
-0.004414996
-0.0017813256
-0.0024989059
-0.0045692
-0.0031726363
-0.0018909062
-0.0022892612
-0.002234846
-5.8528257E-4
4.815476E-4
-9.11257E-5
-3.232786E-4
-7.56186E-4
-7.1532914E-4
4.5681786E-4
6.296211E-4
0.0014917746
0.004192428
0.006769617
0.00948821
0.011229065
0.01051969
0.009498916
0.0067816675
-6.1665865E-4
-0.00776274
-0.01024283
-0.010349086
-0.009505191
-0.0079005575
-0.005987912
-0.004565845
-0.0037665537
-0.001549652
-3.395955E-5
-0.0011371721
-0.0011418195
-0.0011378097
-0.0036849666
-0.0045971065
-0.0028053331
-0.0030804088
-0.0035866227
1.082786E-4
0.0031967722
0.0039510527
0.0060834154
0.0072123483
0.007932674
0.00984876
0.008717449
0.0057531875
0.0038330855
0.0012273036
-0.0013592071
-0.0031888061
-0.0041231406
-0.001993971
-5.064137E-4
-0.0023330755
-0.001528285
-8.1697886E-4
-0.0048013623
-0.0061347717
-0.0049623544
-0.0056896233
-0.0044526695
-0.0020461788
-6.2031404E-4
9.677084E-4
1.8982301E-4
-0.0014631419
3.1812416E-4
0.0019683656
0.0016696834
0.0025672526
0.002192334
8.9913805E-4
0.0015980576
5.9852493E-4
-1.835474E-4
0.0019349975
0.0032310933
0.003178635
0.002493295
0.0031017524
0.0028405106
-9.3756727E-4
-0.0021428168
-0.0017004502
-8.576857E-4
0.0019589923
-2.8452137E-5
-0.0027583686
-7.02796E-4
-3.0547136E-4
-0.0012090112
-8.772083E-4
-0.0013480106
-0.0028335874
-0.0023197823
5.777511E-4
2.708156E-4
-0.0017812529
-0.0012850212
-0.0011078788
-9.132463E-4
2.1891863E-4
-2.1936574E-4
-0.0013590981
-9.1952534E-4
4.918676E-4
6.0499925E-4
4.6012303E-4
0.0021697106
0.002248145
-1.03042075E-4
-1.452964E-4
4.241454E-4
3.0774422E-4
0.0019671866
0.0019433236
0.0013934865
0.0018214161
-5.0183313E-5
-5.161356E-4
-0.0011836109
-0.0022234055
8.248783E-4
0.0018108519
0.0021301962
0.001128607
-0.0018826362
0.0033218118
2.2076932E-4
-0.013685044
-0.009890831
0.0016552849
0.0042375326
0.0043491316
0.0021020868
5.3380796E-4
0.0011957958
5.3409004E-4
-3.0434853E-4
-4.559863E-4
2.8632223E-4
-2.4852805E-5
-3.7285872E-4
6.2208524E-4
-2.074118E-5
-8.2915166E-4
-5.560091E-4
5.001244E-4
0.0017266
8.780299E-4
-2.7827735E-4
-7.531649E-4
-0.0011801613
-9.63567E-4
3.9293045E-5
7.228099E-4
-3.6267997E-4
-5.289573E-5
0.0012212587
1.1656168E-4
-4.408805E-4
-4.898977E-4
-5.5846927E-4
5.9062615E-4
0.001229609
8.8008033E-4
-4.6320976E-4
-7.381462E-4
1.122036E-4
5.1250605E-5
5.3922914E-4
-4.646706E-5
-2.2065167E-4
0.0013798549
-3.578149E-5
-0.0013905576
-0.0010062933
-0.0024923922
-0.0026697281
6.2451564E-4
0.0025477859
-7.4203295E-4
-0.0023630364
6.681357E-4
8.0254645E-4
2.977458E-4
3.453867E-4
-0.0013009068
8.536193E-4
0.0024971918
4.0217984E-4
9.862602E-4
0.001293198
-9.629298E-4
-0.0013033156
-5.8541125E-5
4.020204E-4
2.0632982E-4
2.9503062E-4
4.1858244E-4
1.458916E-4
-7.6074834E-4
-0.001964641
-0.0018612792
-8.344989E-4
6.373778E-5
6.840178E-4
5.82671E-4
6.69846E-4
9.2352007E-4
3.0929994E-4
-2.0275998E-4
-2.8537403E-4
-3.4018513E-4
9.739402E-4
0.002474946
0.0010500157
-2.1457928E-4
8.033824E-4
1.9387124E-4
-8.1939576E-4
-2.2337723E-5
6.4829795E-4
8.737815E-4
2.14486E-5
-0.0010868782
-0.0011999699
-0.0018461649
-0.0017741019
-1.9642094E-4
1.0177737E-4
-0.0010405183
-2.678162E-4
0.0015860242
-3.433316E-4
-0.00281838
-0.0015267334
-6.597387E-4
-0.0011496845
-4.773269E-4
8.20696E-4
0.0010845831
5.7141477E-4
6.0479494E-4
-2.5580663E-4
-3.4793047E-4
0.0017632778
0.0022584961
0.0018778144
0.0014327102
3.731682E-4
5.9518375E-4
4.5081973E-4
-2.7449284E-4
-4.4607872E-4
2.2150257E-4
0.0013617532
-4.6114833E-4
-0.00162004
5.3737976E-4
3.4213712E-4
-7.545743E-4
-4.6781547E-4
-4.6470997E-4
2.031818E-4
-1.1632802E-5
-0.0020616548
-0.0021466778
3.925839E-4
4.6323188E-5
-0.0017843007
0.0010002594
0.002388428
-6.4550753E-4
-0.0020816596
-0.002370124
-0.0013670861
9.0176E-4
6.2411587E-4
-1.0065995E-4
0.0015775604
0.0028777479
8.617618E-4
-0.0011553805
-5.633418E-4
-8.0098154E-4
-4.7728865E-4
9.292882E-4
-2.4319896E-4
-9.016508E-4
3.7647723E-4
9.5962046E-4
0.0014437655
0.0017310765
0.0010189766
4.733857E-4
9.11919E-4
3.2749548E-4
-8.5635774E-4
3.3935442E-4
7.8975706E-4
-0.0012819541
-0.002457685
-0.0022313418
-0.0011056688
-9.308291E-4
-0.0021446368
-0.0015174248
-1.9823094E-5
3.6784136E-4
3.652474E-5
-8.403183E-4
-8.5028086E-4
5.6908623E-4
0.0018392212
0.0019262851
0.0019935109
0.0016501003
2.1056378E-4
7.30462E-4
0.0014328293
2.0062273E-4
-1.2955774E-4
-9.726766E-6
8.011627E-4
2.9732877E-5
-0.0017825655
0.0012953342
0.0031832694
0.0034437105
0.003767219
-0.0010655108
6.7041913E-4
0.0010609434
-0.012861264
-0.013922444
-0.001604079
0.0019500358
0.0023744295
0.0025720964
0.0017139711
5.8171444E-4
-0.0012696233
1.2999379E-4
2.1794795E-4
-9.955582E-5
0.001936114
4.2366513E-4
-1.6131944E-5
6.938026E-4
-9.155369E-4
0.0011702111
0.002316003
9.666194E-5
9.26282E-4
1.5327575E-4
-0.0018395428
3.9061115E-4
3.2322397E-4
-0.0016678099
-8.634885E-4
-8.698267E-4
-2.2562302E-4
5.3861487E-4
7.666351E-4
0.0028086815
4.598078E-4
-0.0017234051
0.0010579524
9.039457E-4
0.0011119765
0.0021690014
0.0010206663
0.0018098463
0.0015906565
-2.7560888E-4
-6.9044787E-4
-2.7361952E-4
-9.818672E-4
-0.0010617054
0.0023091903
0.0014691893
-3.9227778E-4
0.001364135
-7.120189E-4
0.0011051076
-0.0028741814
-0.018776694
-0.014326265
0.0029101947
0.0055179
0.0026727426
0.0011819266
7.317819E-5
-9.347552E-4
-4.6971426E-4
0.00265922
0.002157857
8.629868E-4
0.0015777
0.0011405438
0.0015107447
0.0014888855
0.0012413213
0.0017532159
0.0015775767
0.0019131672
0.0022232302
0.001470732
-3.4814762E-4
-4.5441618E-4
3.1083907E-4
-0.0016590947
-9.0564485E-4
9.151098E-4
1.6046033E-4
0.0013526934
1.7609296E-4
-0.0025705232
-9.379991E-4
4.1975672E-4
-0.0014003627
-0.0026880763
8.4254854E-5
0.0013012211
-0.0013600917
-3.5979977E-4
8.811512E-4
-5.3022846E-5
2.629971E-4
1.2811761E-4
5.497059E-4
-0.0013884811
-0.004045561
-5.634357E-4
0.0017037899
-8.167164E-4
-0.0016259116
-4.242143E-4
-9.186991E-4
-0.0016879739
1.519284E-4
-0.001407522
-0.00400654
1.902115E-4
0.0031386719
0.0031811176
0.0035191292
8.4973505E-4
-2.6218776E-4
3.3801456E-4
3.695244E-4
0.0021471428
0.0018452222
4.4547016E-4
9.82706E-4
0.0011082126
8.9613226E-4
3.139425E-4
7.10622E-4
0.0019574012
1.4352144E-4
-0.0023333118
-0.0012811224
-2.2805272E-5
-0.0016130817
-0.0019487969
-8.5259124E-4
-0.0012450892
-2.7970914E-4
2.0024907E-4
-7.036638E-4
-9.345529E-5
-9.940157E-4
-8.508893E-4
0.0011356343
-8.2186205E-5
-4.579925E-4
9.508547E-4
5.791597E-4
-1.7843633E-4
-4.7858403E-4
-6.932853E-4
-0.0014878728
-2.314504E-4
0.0027236028
0.0014865495
7.74694E-5
0.0012633499
2.876524E-5
-0.0012842193
-3.9692534E-4
4.5077738E-4
3.127433E-4
-6.2818883E-4
-2.6721013E-4
7.546284E-4
-3.586332E-4
-0.0016713677
-4.5700866E-4
6.667973E-4
1.3121132E-4
0.0011649182
0.0022707004
-1.7161416E-4
-0.003041445
-0.002731741
-9.844456E-4
-8.0989685E-4
-8.2390226E-4
2.539567E-5
1.493151E-4
-1.6520581E-4
-0.001552272
-0.0010874104
0.0023632974
0.0027136342
0.0021108326
0.00269853
0.002535909
0.0026032312
5.252117E-4
4.6546853E-4
0.0026894088
6.1057607E-4
-2.979609E-4
3.5298016E-4
-3.2636852E-4
-4.2440815E-4
-9.612574E-4
-7.9389004E-4
-0.0023390725
-0.0021510744
6.892425E-4
-4.57046E-4
9.76721E-4
-0.0018279771
-0.0063628065
0.0012901135
-0.0038779804
-0.014214991
-0.002115044
0.0049660956
-5.488326E-4
-9.1572985E-4
0.0013954405
0.004405493
0.0042352844
0.0026447938
0.004115009
0.003662733
0.0014584298
-7.685176E-6
1.2265815E-4
8.857709E-4
0.0018227097
0.0025875077
-1.1946433E-4
-8.076102E-4
0.0015745509
1.7533964E-4
-0.0014011966
-0.0012603188
-0.0013931349
-0.0015768157
-0.0023175797
-0.0015203437
-2.319872E-4
-8.950648E-4
-0.0012845407
-3.5625146E-4
-5.5499942E-5
-9.407545E-4
-0.0014446477
-0.0015764415
-5.9294194E-4
9.429451E-4
6.073296E-4
6.289941E-4
8.0107246E-4
4.6585442E-4
0.0011051205
7.5362105E-4
6.7012914E-4
6.374345E-5
-0.0016339185
-3.8326954E-4
-2.3817744E-4
-0.0010558036
0.0017894398
0.0024437974
1.6972912E-4
2.3366869E-4
5.172685E-4
-5.3964154E-4
5.887968E-4
0.0016004934
-0.0012827293
-0.0016781545
0.0010448068
7.7885634E-4
5.747673E-5
-7.2744855E-4
-0.0019284033
-4.4392335E-4
8.8311406E-4
7.796546E-4
6.195471E-4
-1.7145628E-4
-1.3358599E-4
-6.2448607E-4
-0.0025642437
-0.0020567924
-7.2770385E-4
-5.889661E-4
0.001130331
0.0010267185
-0.0011374656
4.156926E-4
0.0014457541
-2.5015761E-5
0.0012703353
0.002133766
6.403194E-4
4.0803413E-4
2.9067823E-4
-7.57171E-4
-0.0012249073
-0.0014038861
-0.0016533708
-4.5956825E-4
0.0013150801
0.001700841
0.002082277
0.0012401019
-9.6298015E-4
-7.6728995E-4
-2.6563564E-4
-9.98376E-4
-0.0011159211
-8.664182E-4
4.2866598E-4
0.00113847
7.087203E-4
8.3481154E-4
-4.485508E-4
-9.1096386E-4
3.668168E-4
-3.62766E-4
-1.697778E-4
8.6324546E-4
-4.4189917E-4
-2.6487134E-4
0.0016895077
0.0013144038
-7.833606E-4
-5.3591176E-4
0.0017354055
4.064989E-4
-0.0028211598
-0.0023927302
-8.1148656E-4
-3.9147423E-4
-3.1719996E-5
1.6264834E-5
-2.6083828E-4
-9.736779E-5
7.5688766E-4
1.9927268E-4
-0.0018607794
-0.0017444243
2.2126913E-4
0.0014483101
0.0010406137
-3.8631406E-5
0.0015710123
0.0034090388
0.001362595
-2.3389407E-4
-3.7960138E-4
-8.570798E-4
0.0013811898
0.0026788602
-1.7393236E-4
-0.0012793855
-1.5677029E-4
-1.0113924E-4
-2.9130862E-4
-6.028673E-5
1.319973E-4
2.2457582E-4
3.638617E-4
4.1994738E-4
4.3463058E-4
-4.3878073E-4
-0.002027801
-0.0017117517
-0.001419686
-0.0021382547
-3.6680803E-4
0.0018793086
0.0021929282
6.8569445E-4
-8.4954675E-4
5.527853E-4
6.1650766E-4
-0.0013227301
-0.0020924467
-0.0029511356
-4.1037623E-4
0.0012358251
-0.0019103535
-8.017611E-4
2.2405149E-4
-0.0019751878
-6.093353E-4
-2.2429049E-4
-4.2096173E-4
0.0014786023
0.0018846638
0.0025055418
0.0024826082
0.0017814186
0.0020599293
0.0016466797
0.0019454096
0.0017506189
0.0013481849
0.0018973594
9.868932E-4
0.0013448353
7.3716184E-4
-0.0019439961
-9.4027916E-4
2.4637507E-4
-1.263083E-4
-4.4857798E-4
-8.00971E-4
3.9205188E-4
4.656763E-5
-0.0011915213
-0.004239514
-0.0062413258
0.0013951642
-8.279124E-5
-0.012781123
-0.0090758335
8.270123E-4
0.0026358732
0.003396632
0.0016985227
0.0019436606
0.0031911808
8.300462E-4
0.001460893
0.0017275023
4.4306833E-4
6.6363503E-4
-6.1366335E-4
0.001215483
0.0036276516
0.0012311857
7.4129266E-4
9.068643E-4
-5.6585786E-4
-1.609883E-4
3.1429816E-5
3.619291E-4
-3.6238187E-5
-0.0019263726
-5.127362E-4
8.1431057E-4
5.859596E-5
2.1600029E-4
-2.4103667E-4
5.574239E-4
6.141184E-4
-0.0011932695
2.1328335E-4
0.0011788985
0.0011805709
0.0013364019
-6.880934E-4
-2.0426202E-4
9.187909E-4
-3.733399E-4
-0.0014950715
-0.0016506201
4.098138E-4
8.612747E-4
2.9267825E-4
-2.2056726E-4
-0.0011375403
0.0023302697
7.6186174E-4
-3.285812E-4
0.0038381019
-0.01044548
-0.018622054
-5.4740324E-4
0.006384854
0.0033923322
0.0036391949
6.6199864E-5
0.0012883182
0.0022431859
-3.552955E-4
5.8142474E-4
2.7551688E-4
6.90413E-4
0.0014782266
3.254749E-4
0.0013295661
0.0013272176
3.788676E-4
1.0545769E-4
-3.2015433E-4
8.451707E-4
0.0010428905
9.031652E-4
9.589002E-4
-0.0011121699
-9.949935E-4
6.0023787E-4
4.044505E-4
-4.619389E-4
-0.0019015431
-9.1970805E-4
5.565236E-4
3.0456946E-4
0.0023579362
0.0021166052
-8.627198E-4
-0.0010137772
-0.0015271554
-0.0011519424
1.8794877E-4
-0.0011282753
-2.4438743E-4
0.0018280046
9.874608E-4
-2.0715823E-4
-0.0010374277
-6.1231706E-4
1.735324E-4
-7.5011124E-4
-0.0010983164
-7.127849E-4
-4.4986687E-4
2.107493E-4
-4.2414915E-5
-9.1150333E-4
-3.9449957E-4
5.2521355E-4
3.1162106E-4
5.8948674E-4