-3.444626E-4
0.001668823
0.0022902149
0.001017235
0.0011114163
3.0625655E-4
-0.0023146947
-8.595923E-6
0.0034571101
0.0013976644
-6.709732E-4
-1.7711472E-4
-3.0120107E-4
3.734787E-5
0.0010208972
0.0012624355
0.0013493722
0.0010591869
4.1885005E-4
-1.4283213E-4
-9.0184534E-4
-0.0014464543
-0.002240301
-0.0023416039
-3.1280576E-4
0.0011409173
7.149697E-4
8.1034505E-4
0.0015569879
7.674837E-5
-0.0019762234
-0.0010739864
-0.001004178
-0.0017900717
2.9998005E-4
0.0013541384
0.0010584054
0.001397396
4.4250875E-4
-7.837537E-4
-0.0011660744
3.948412E-4
0.0016856667
1.3674419E-5
-7.573132E-5
5.039461E-4
-6.344998E-4
-0.0012827924
-0.0022352985
-0.0010904833
0.0013401103
0.0012752978
9.038972E-4
8.596913E-5
2.8118916E-4
0.0018372531
1.3353986E-4
-0.0022656522
-0.0022415807
-0.0022280393
-0.0025758725
-1.6254984E-4
0.0027916585
9.4999454E-4
4.3724795E-4
0.0028936223
0.0012905359
-1.1171664E-4
7.7218126E-4
9.179009E-4
9.925709E-4
3.2922972E-4
5.342448E-4
-6.090156E-4
-0.004286744
-0.0039113294
-3.9303204E-4
0.0022742532
0.0028036027
0.0016249404
0.0023511695
0.0026540558
8.8843115E-4
-4.3817016E-4
-0.0024377403
-0.0039069285
-0.0031569097
-0.0010746624
5.6518556E-4
2.255511E-4
5.474946E-4
0.001093697
3.5001183E-4
7.1603287E-4
-4.9973314E-4
-0.0025520546
-3.2052147E-4
0.0019891486
0.0013274867
5.0640287E-4
-2.8347914E-4
-4.911442E-4
-1.07751745E-4
-4.3631773E-4
-1.5574087E-4
9.77191E-4
0.001209668
5.568375E-4
-7.34886E-4
-0.0029879522
-0.0037132404
-0.0014061361
2.325507E-4
0.0010410156
0.002630545
0.0011810719
-0.0013628617
-3.8726407E-4
9.3466457E-4
0.0013183486
0.0011604839
1.7225296E-4
0.0014136112
0.002140879
-0.0012562034
-0.0022441067
9.2525E-5
-0.0010195735
-0.0017147135
0.0017743337
0.0027962488
0.0014109464
0.0011850955
2.863209E-4
-7.331265E-5
-8.313772E-5
-9.808812E-4
-0.0012727535
-0.0019451173
-0.0012663079
3.4016496E-4
-5.486815E-4
-4.3285935E-4
8.33019E-4
5.601181E-4
2.362777E-4
-6.71688E-4
-0.0021249368
-0.0019498727
1.4780549E-4
9.4124296E-4
1.18031894E-4
4.4878264E-4
1.13688446E-4
0.0016391166
0.003200313
5.917596E-7
0.0017032567
0.001848416
-0.0077282065
-0.0080078915
7.9007534E-4
0.0041720537
0.003270007
0.001666123
0.0026156213
0.0027121645
4.797177E-4
9.0218923E-4
-1.8925907E-4
-0.002840224
-0.0029056321
-0.0025683178
-0.0017763027
4.2020864E-4
0.0021741835
6.068547E-4
-0.0019442709
-0.0011787714
8.103758E-4
0.0017510729
0.0012871576
7.289998E-4
-5.210557E-4
-0.003173348
-0.0019893516
-1.1440703E-4
-0.0010652577
2.1230315E-5
6.501712E-4
3.774926E-4
0.0011071621
9.086984E-4
0.0013360365
0.0014500209
0.0020278958
0.0036187011
0.0016660254
-0.0019842207
-0.003865655
-0.0030858861
-5.135221E-4
5.748417E-4
8.769469E-4
0.0023662327
0.004111597
0.003333253
0.0015626983
0.0010887296
-0.00142085
-0.0032380172
-0.0034086742
-0.004797727
-0.0021323164
0.0013119639
2.1596383E-5
-7.314314E-4
-1.4881021E-4
-3.4405827E-4
-1.3558962E-4
4.5205213E-4
-0.0011705364
-0.0030997768
-0.0018845812
-0.0016326004
-8.065538E-4
0.0022208588
0.0012565063
-5.761822E-4
-1.10701665E-4
4.458468E-4
0.0012938164
0.0011885536
0.0012704122
0.0019973032
0.0015705505
3.6638704E-4
6.3283066E-4
0.0029746222
0.0022552137
-3.9211212E-5
-5.782065E-4
-0.0012689756
4.844552E-4
9.219295E-4
2.4932742E-4
0.002394336
2.633888E-4
-9.682813E-4
3.176056E-4
-0.0019790395
-6.0762354E-4
-7.841398E-4
-0.0039061874
-0.0010513524
-3.242328E-4
-0.0018652701
-0.0012910208
-0.0017469684
-7.2565564E-4
1.3806291E-4
9.668204E-4
0.002319899
6.4627174E-4
4.3572328E-4
0.0011019484
-0.0011717775
-0.0026851567
-0.0018836353
8.45707E-4
0.0028800415
0.0020019272
0.0011730586
0.0017678009
0.0010393601
-0.0014157591
-5.1132764E-4
0.0018865594
1.5509642E-4
-0.0015460281
-0.002338395
-0.0030029016
-5.522769E-4
5.123245E-4
1.03684906E-4
0.0020337568
0.0016129836
-6.2928064E-4
-1.4585015E-4
-1.3488605E-4
-0.0010610642
3.506809E-4
2.215762E-4
-0.002595879
-0.0025879543
-1.5306015E-5
0.0036903087
0.006399234
0.0032463802
-0.0018431353
-0.0030164868
-0.0010344055
0.0012468842
0.0017644787
0.002318328
0.0029089493
0.001466419
-7.8099524E-4
-0.0027440446
-0.0032515505
-0.00270151
-0.0023204682
-0.0020153504
-0.0018394961
-1.9642741E-4
3.3225323E-4
-9.933678E-4
0.0012394962
0.003171891
0.0015368201
9.239514E-4
6.010821E-4
-4.6160218E-4
-6.906473E-4
-4.090429E-4
-4.384148E-4
-7.850058E-4
-0.001473953
-0.0024531493
-7.869546E-4
0.0013687867
2.0092317E-4
-2.7371768E-4
-3.887664E-4
-7.7665725E-4
3.243424E-4
-7.857402E-5
6.4676785E-4
0.0023148616
7.4655557E-4
6.0581155E-5
7.4514304E-4
-5.4618133E-5
-0.0012173465
-4.5844252E-4
0.0018228965
0.0017497999
0.001793697
0.0037472786
0.0034746437
0.0030383596
0.0032657054
5.0091516E-4
-0.0029074904
-0.0027449632
-0.0016680491
-0.002567702
-0.0025597415
-0.0024472605
-0.0018277186
0.0010833765
0.0012872813
4.5387985E-4
-0.0027028155
-0.010568584
-0.00940345
-7.45923E-4
0.0025551
0.0038962164
0.0046352623
0.0028472373
5.9705466E-4
-8.8175066E-4
-4.8717132E-4
6.602423E-4
0.001692331
0.001907353
0.001195228
0.0012887728
0.001494512
0.0012123754
9.691814E-4
0.0016220071
0.0016384926
-4.2423312E-4
-5.751642E-4
5.233516E-4
0.0010261456
0.0012873184
-9.4456883E-4
-8.69328E-4
9.2412747E-4
-0.0015133175
-0.0024436398
-0.0013082853
-7.503844E-4
9.888245E-4
5.037122E-4
-0.0016002926
-0.0027368672
-0.0018250704
0.0016453455
0.0016488652
-0.0010714196
-0.0014403185
-0.0019183822
-0.0015119874
6.7958474E-4
0.0013579392
0.0015400422
0.001110358
-6.7354226E-4
-0.0010141509
-6.5581326E-4
6.6181214E-4
0.0029359006
2.8106174E-4
-0.0024336374
5.088562E-4
6.8742805E-4
-5.5201765E-4
5.647689E-4
-0.0010561097
-0.0010135012
0.0018436798
0.0024489206
0.0026569546
0.001147013
-0.0014426719
-7.1367045E-4
5.3353313E-5
-0.001428208
-0.0019197846
-4.4259217E-4
9.576308E-4
0.0012522077
3.978197E-4
-0.0011512745
-0.0022198886
-0.003029971
-0.0016978133
0.0015696355
0.002347927
0.0027258485
0.0037836677
0.0027588862
9.3918765E-4
-9.654325E-4
-0.00192058
-0.002811418
-0.0037082909
-0.0014622501
-3.6655765E-4
-8.4880885E-4
2.5760577E-4
9.3625765E-4
0.0034375256
0.0042696297
5.9319305E-4
-0.0010156784
-0.0011979681
-4.4155895E-4
7.453405E-4
-0.0015905707
-0.0031884685
-0.0019099972
-6.2320796E-5
0.0011567028
-3.9090854E-4
-0.002909563
-0.0029056438
-4.0658073E-5
0.0018987824
0.0015145333
0.0020678563
0.0022978657
0.0014499014
9.5307606E-4
2.3658061E-4
1.0662582E-4
3.1624708E-4
4.0072456E-4
-4.3936298E-4
-0.001318394
4.31735E-5
5.3361444E-5
-2.93482E-4
0.0010759945
-9.974532E-5
-8.127927E-4
8.4546756E-4
0.0013455325
8.057714E-4
-2.379152E-4
-0.0010955811
-0.0021358582
-0.0019352591
-4.6097637E-5
-4.1717308E-4
-0.0010000506
-0.0012653806
-0.002394381
4.9800612E-5
0.0028676833
0.0025219962
0.002756604
0.0028138438
0.0015725433
4.7889614E-4
-0.0010739182
-0.0019335032
-0.0010319088
-0.0011328781
-0.00133045
-3.0509563E-4
-0.0023908995
-0.0043989196
-0.0012726908
0.0012988689
0.0017296018
0.0015126178
-7.156768E-4
-7.631458E-4
0.0016230219
0.0013235636
-0.0017849384
-0.004195804
-0.0016614393
0.0018932566
0.0010431423
0.0012302592
0.002640652
0.0012446222
5.4401206E-4
0.0011369074
0.0014088427
0.001402882
0.0015601427
0.0027811162
0.0019366608
-7.0363114E-4
-0.002175998
-0.0036418445
-0.0035468526
-0.0021924216
-8.0706534E-4
0.0018600121
0.0016797114
-7.838564E-4
-4.1298763E-4
0.0013974662
0.002743968
0.0019869304
-7.944301E-4
-0.0022155927
-0.0018830195
-8.190867E-4
-2.8698417E-4
-3.3201458E-4
0.0013092913
0.0018069597
-3.9205718E-4
1.18540804E-4
5.492799E-4
-0.0018546148
-3.0225428E-4
0.0012784048
4.584621E-4
9.561332E-4
-0.0045598135
-0.00822806
-0.002098191
-8.7420235E-4
-0.0020823304
-2.3159324E-5
-3.285438E-5
0.0033418275
0.006531887
0.0047836164
0.0035474983
0.0016536413
9.837053E-4
0.002334421
0.0014342235
-3.6650515E-4
-0.0015576067
-0.0012011168
1.1214746E-4
6.982667E-4
5.084646E-5
-0.0019263487
-0.0015969964
-6.9247524E-4
-0.0027198256
-0.0030400213
-0.0010285078
4.6647084E-4
5.343254E-5
-0.002952946
-0.0043918965
-0.0026022324
-6.872646E-4
1.74428E-4
7.76365E-4
0.0016089401
0.0025929336
0.0049353195
0.0062154704
0.0038393163
0.002274309
0.0015141563
2.2659151E-4
9.146913E-4
5.693049E-4
-6.6292135E-4
-0.0010562853
-0.002539454
-0.0017014231
-1.3610558E-4
-7.9682254E-4
-0.0013721457
-0.005239034
-0.0069025587
-0.0013874612
5.3540606E-4
3.1270963E-4
0.0021188
6.9417394E-5
-0.0018633256
-9.776034E-4
1.7427541E-5
0.0014747062
0.0018808531
0.0015624441
1.3206044E-5
-0.0023162158
-0.0010444348
0.0012671275
0.0013392713
0.0013357344
0.0019327838
0.0028312353
0.0030664664
0.0010564843
-0.0022175503
-0.002516199
5.150977E-4
3.788295E-4
-0.002545581
-0.0022191834
-6.407598E-5
0.0017891492
0.0026051058
6.651477E-4
2.1157434E-4
0.0026032047
0.0027399007
9.528781E-4
3.7305597E-6
4.4179658E-4
2.4988422E-5
-0.002767515
-0.0027433508
-0.001127984
-0.0030059253
-0.0034349358
-0.0012234856
-2.5475578E-4
-0.0011608966
-0.0025071502
-7.511081E-4
0.0014804784
0.0021928633
0.0034735296
0.0021317122
5.459389E-4
8.1925513E-4
-8.566847E-4
-0.0021096477
-0.0020479693
-9.0117304E-4
4.356302E-4
-0.0012166715
-9.2483946E-4
0.0018071522
0.001902171
0.0016233707
0.0014335314
4.897147E-4
4.5367578E-4
0.0011003539
6.7000475E-4
-0.0019288438
-0.002838923
-8.276041E-4
-2.2763501E-4
-2.6932405E-4
-1.6706258E-4
-0.0016577913
-0.0016181276
0.0011144069
0.0012067304
-0.0012291407
2.070226E-4
0.003975905
0.005375158
0.0051740324
0.0038402583
0.0022044124
1.6470673E-4
-0.0028778743
-0.00419278
-0.004449939
-0.0039525945
-0.0014566287
-0.0014707561
-0.003469035
-0.0020124547
6.557786E-4
0.0012593864
0.0016191365
0.0021057127
7.672376E-4
-3.570962E-4
2.5840255E-4
-0.0011407025
-0.0029839638
-0.0013659407
-6.2260515E-5
3.79289E-4
0.002497531
0.0029216325
0.0012639432
-7.2533876E-5
-8.255687E-4
0.0013626433
0.0037347977
0.00184052
2.655582E-4
-1.3101821E-4
-0.0023608087
-0.0021774198
0.001000775
0.0018498197
1.2938908E-5
-0.0022818688
-0.004111481
-0.004014754
-0.0019534451
-6.220072E-4
-6.335714E-5
0.0012987576
0.002007715
0.0017442687
6.124051E-4
-0.0016399766
-0.0016457313
0.001109396
0.0036016253
0.004648829
0.0032380284
0.0012777796
6.7643775E-4
-0.0013043681
-0.0027074297
-1.0195078E-4
6.985934E-4
-0.0025133782
-0.003712784
-0.002554545
4.7595517E-4
0.00452778
0.003562082
0.001554737
3.107163E-4
-0.0074147456
-0.010228681
-0.0015397462
0.004038675
0.0049673617
0.0041490328
-2.9453757E-5
-2.493263E-4
0.0017511058
9.2935355E-5
6.391944E-4
0.0023887125
4.729576E-4
-0.0014004813
-0.0021257303
-0.0026247425
-0.0024863018
-0.002543289
-0.0011728193
4.3818678E-4
5.610297E-4
0.0017633458
3.1743036E-4
-0.0039170035
-0.00356282
-0.0018725944
-0.0014957389
4.1525732E-4
5.769702E-4
-2.8681848E-4
-5.0315604E-4
-9.960204E-4
0.0013249994
0.0037323695
0.0055005983
0.008803794
0.0066320477
0.0028260294
0.0036021913
0.0010773621
-0.0017651267
-0.001346657
-0.003485314
-0.003672863
-0.0011320155
-5.443475E-4
0.0010037883
0.0037023968
0.003970138
6.3450774E-4
-0.002630783
-0.0049739173
-0.00704051
-0.0038648555
-0.0012722298
-0.0016669603
-4.0582466E-4
-0.006799593
-0.010586042
-4.8553156E-5
0.005894127
0.0056301034
0.005487236
0.0019153716
-1.14037415E-4
-0.0033085253
-0.0056351265
-0.0013913347
3.5266049E-4
3.6692418E-5
0.0020634795
0.0034902955
0.0049345316
0.0051949373
0.0026368992
2.3932065E-5
0.0010458155
0.0023623155
-6.273327E-4
-0.0039688763
-0.0066398354
-0.0055744713
0.0015637439
0.0045341067
0.0025056044
0.0019228213
0.0020658085
0.0015801856
8.5542613E-4
0.0019421314
-1.9582383E-5
-0.0039004805
-0.001363036
-0.0011284291
-0.0041404287
-0.00304215
-0.004065059
-0.003756158
7.2687655E-4
0.0013281966
-0.0016426533
-0.005026906
-0.0056695547
-0.0037092227
-0.0027698646
-0.001394412
2.1849276E-4
-1.10196255E-4
-0.0030614007
-0.0064350045
-0.006674164
-0.0052870754
-0.003626324
-0.0025492362
-0.0027404912
-0.0022008505
-0.0011443064
-2.1459094E-4
0.0010803575
0.004216413
0.006623523
0.0036428452
0.0012352688
0.00239495
0.0013890199
-0.0010863218
-0.0023156614
-0.0018411534
2.5154123E-4
0.0040295674
0.0068482417
0.004771143
0.0035936448
0.006022203
0.008392188
0.011249122
0.010952306
0.009664769
0.011889302
0.012369205
0.010979114
0.009357633
0.008849301
0.010411376
0.008648848
0.0049789776
0.0034190556
0.0013418652
-0.0036912796
-0.008373839
-0.0075225136
-0.005357632
-0.0024862539
0.0018879472
3.0925957E-4
-0.0040343036
-0.006925045
-0.007510472
-0.0036416466
0.0065770107
0.020740049
0.018401105
0.001564121
-0.011353626
-0.023025855
-0.025318254
-0.019967053
-0.018922653
-0.019157788
-0.019800855
-0.01277114
-0.014101328
-0.041446906
-0.069892906
-0.07620867
-0.049234
-0.021289164
-0.019602174
-0.014116162
-0.012129398
-0.0029948836
0.034246247
0.042865995
0.026617965
0.028916804
0.034955632
0.052943222
0.09139027
0.10949196
0.08950165
0.071718775
0.07073964
0.066947185
0.07807678
0.094802655
0.057417817
-0.037082057
-0.0809997
-0.0068228277
0.056749944
0.032243244
-0.0019585828
-0.04585442
-0.10079161
-0.12126893
-0.12951663
-0.15744446
-0.18834591
-0.16121022
-0.073272355
0.041831788
0.15076306
0.14028157
0.049387615
-0.012308974
-0.09805833
-0.14207183
-0.08995087
-0.0433214
-0.014331321
-0.012726725
-0.007565602
0.06829767
0.14489178
0.16386922
0.11784054
0.048031576
0.021175453
0.011351763
-0.013333888
-0.058729857
-0.06769086
-0.010414308
0.017850097
0.034998022
0.048453644
0.020974455
0.06382729
0.12840858
0.1068778
0.059652485
-0.009882584
-0.07123269
-0.08491916
-0.07319537
-0.01976185
-0.0030618394
-0.050864555
-0.05950988
-0.03298692
0.005386458
0.016344687
-0.048294462
-0.062424906
0.020087458
0.06885066
0.055482946
-0.012181457
-0.12990545
-0.19419874
-0.15222034
-0.051716294
0.052318152
0.1261552
0.1590825
0.11814314
0.04012614
0.014837511
0.009167714
0.0022460383
0.0022663148
-0.03633275
-0.05936705
-0.03102753
0.010070466
0.062249824
0.06119176
0.0020753937
-0.024332764
-0.009143057
0.028653203
0.040482573
0.007360363
0.009072007
0.03760028
0.01607267
-0.05353344
-0.10555052
-0.09495811
-0.063565634
-0.046467286
-0.025869519
-0.006112325
0.0066616414
0.011769083
0.005163502
0.0011106551
0.0068731057
0.014190374
0.017962476
0.02156155
0.027667584
0.03742453
0.050553326
0.049704384
0.028335415
0.0056626387
-0.0020082465
0.011482152
0.032370765
0.047275756
0.060967956
0.064341165
0.04923934
0.031701986
0.016750278
-0.017385637
-0.06870355
-0.09311871
-0.080419846
-0.06280237
-0.049337357
-0.03864357
-0.03472071
-0.030437103
-0.021823687
-0.015348359
-0.013095021
-0.009694528
-0.0040213554
0.0028723846
0.007849541
0.007506467
0.01045022
0.017301153
0.024050577
0.030473422
0.02367127
0.010150289
0.0077155856
0.011803744
0.016226575
0.016520899
0.013206958
0.010199353
0.006490852
0.0049241898
8.2440535E-4
-0.0035545095
-0.0020121648
-0.0030795364
2.5041212E-4
0.0077386694
0.002191807
-0.009857774
-0.017798377
-0.017934514
-0.0099554565
-0.0033914726
0.0011729684
0.0053313468
0.004984466
0.0039536506
0.006176575
0.007048464
0.00405011
0.0031342749
0.0043601003
0.0015634599
-0.002463376
-0.0047711064
-0.0069333375
-0.008160447
-0.008848912
-0.009922555
-0.010138465
-0.006737862
-0.0017982268
-0.0018061366
-0.0025970086
-2.2580098E-4
-9.719613E-4
-8.068118E-4
0.0043285624
0.005151301
0.0014072318
1.6534918E-4
7.126443E-4
2.7009414E-4
-9.0796483E-4
-5.402801E-4
0.0013244173
0.0029459205
0.0044098017
0.0064708474
0.009093592
0.011073356
0.012811715
0.009850801
-6.556916E-4
-0.006151388
-0.0047938926
-0.00466143
-0.0025272493
-0.0024061229
-0.004789426
-0.0031075121
-0.0022205755
-8.8103913E-4
-0.0020734426
-0.010809702
-0.011434764
-0.0033615509
-0.0011846297
-0.0016920711
-7.9557195E-4
7.386781E-5
0.0031467387
0.005437483
0.004658661
0.006419375
0.0077986596
0.0045459643
0.0029874372
4.988401E-4
-0.0030286796
-5.5866677E-4
5.3059164E-4
-1.5125962E-4
0.0015857887
-5.803799E-4
-0.0028250187
-0.0022202218
-0.0024985934
-0.0023069943
-0.0021487726
-0.0015065118
-4.7279432E-4
2.796389E-4
0.0019321283
0.0013797772
7.3246314E-4
0.0032703192
0.0042189807
0.0024448608
0.001112036
0.0013913624
8.583004E-4
-0.0028737145
-0.0059174355
-0.004694651
-0.002964493
-0.003732449
-0.0031517202
-0.0011293569
-0.0011433637
-6.6070736E-4
3.2381236E-4
3.8830552E-4
0.0016173255
3.758304E-4
-0.0045906487
-0.0063009746
-0.0035139346
-0.0017206052
-5.512614E-4
0.003657566
0.006734692
0.0068155844
0.007886257
0.0074903495
0.006526735
0.009062387
0.008663115
0.0022438155
-0.0026586794
-4.3227954E-4
0.0051668943
0.00315882
-0.006293145
-0.010875508
-0.010855988
-0.012749098
-0.012483841
-0.008007432
-0.0037995616
-0.0012612209
-3.1104495E-4
-0.0015785213
-0.0020772594
-1.09243585E-4
3.4456374E-4
2.0682403E-4
0.0011990359
-1.2157179E-4
3.7546188E-4
0.0045047128
0.0061251433
0.00564865
0.004344348
0.0044105956
0.008100661
0.009480047
0.0079289945
0.0073554814
0.0055543906
3.5925113E-4
-0.0058485353
-0.007757495
-0.0059143933
-0.0049888007
-0.0046838564
-0.003941801
-0.003242104
-0.0042479835
-0.005437857
-0.0024487562
0.0012059342
0.0019987999
0.0013560823
-0.0016620515
-0.0046386733
-0.003499431
1.3521146E-4
0.002764755
0.003391854
0.0030537667
0.0014056388
2.2725206E-5
0.0014217141
0.001959963
0.0010076509
0.0018997964
0.0017114072
4.5870576E-4
1.9124245E-4
-0.002207596
-0.0040263454
-0.0031387259
-0.00252474
-0.0010012119
-5.384575E-4
-0.0012791657
8.804761E-5
5.275246E-4
9.60257E-4
0.001911729
7.180959E-4
-2.82216E-5
-2.7735997E-4
7.232556E-4
0.0021539833
0.0010157243
9.317242E-4
6.2052894E-4
-6.578607E-4
4.5562568E-4
0.0016517442
0.0013963165
-0.001445983
-0.003085732
-0.0011265317
-0.0013289147
-3.3322282E-4
0.0011648167
-4.8972014E-4
6.2213384E-4
3.091312E-4
-0.0011641973
9.978969E-4
-4.7659595E-4
-0.0022112285
-1.7321279E-4
-3.273739E-4
-0.0013609278
-0.0010138067
5.2572315E-4
7.422709E-4
-0.0015648154
-9.796502E-4
6.409669E-4
-2.0856396E-4
-6.654039E-4
-0.0012087403
-4.626672E-4
0.0016865181
0.0012060527
8.113451E-4
0.0016849374
6.863275E-4
-2.0850915E-4
-5.7780056E-4
-0.0024254215
-0.0026612473
4.6938233E-4
0.0027620322
0.0027053277
0.002418883
0.001804371
0.0020949175
0.00367221
0.002432357
-0.001091132
-0.0030909788
-0.0032173889
-0.0017796997
1.0388948E-4
0.0010201852
0.0012410369
3.675947E-4
-0.0015042915
2.827478E-5
0.0034161247
-0.0017455185
-0.009352745
-0.0060287025
-5.814393E-4
-5.2140804E-4
-6.916002E-6
0.0012939251
0.0014167333
1.9002995E-4
-0.0012085461
-7.348027E-4
0.0018918677
0.0038028876
8.392775E-4
-0.0013247471
0.001125577
0.0012855582
9.4920244E-5
4.754877E-4
6.696358E-4
9.622223E-4
0.0011801032
0.0016168811
0.0013618551
9.524952E-4
0.001029241
-5.123701E-4
-0.0012652114
-0.0018918758
-0.0028120968
-5.800271E-4
7.4851094E-4
3.8064102E-4
3.6851238E-4
-5.00293E-4
-1.9142186E-4
5.215584E-4
-2.5136667E-5
-0.001466364
-8.1007887E-4
0.0026050017
9.58582E-4
-0.0016298395
2.3842595E-5
-0.0018011894
-0.0024487635
1.1277943E-4
-5.677364E-4
8.438679E-4
0.002773587
1.9379915E-4
-0.0010407221
-5.5434334E-4
-0.0018109434
-0.0025821812
-5.285123E-4
0.0018595667
9.597349E-4
-8.219407E-4
-8.67266E-4
-8.9459313E-4
2.6493642E-4
0.0022977074
0.0016982107
0.0011542299
0.0018202247
6.0411927E-4
-9.396246E-4
-0.0014550873
-3.413338E-4
0.001643153
9.209962E-4
3.6571315E-4
9.971554E-4
-3.960096E-4
-4.8748887E-5
9.349627E-4
-0.0010796563
-0.0010734816
0.0014213598
0.0017783574
-8.1050785E-5
-0.0011047232
-1.3472227E-4
-1.1272579E-5
-0.0012583631
-0.0013675643
-2.658993E-4
-6.158303E-5
-0.0011265577
-6.266874E-4
6.114054E-4
7.937549E-4
0.0016325497
4.168752E-4
-0.0025791985
-0.0020818089
-3.1226256E-4
-3.2749613E-5
2.2829443E-4
2.9914934E-4
-1.943947E-4
-1.1411354E-4
8.291657E-4
1.2273538E-4
-0.0012445514
-3.682593E-4
-9.662693E-5
-9.420912E-4
-6.2724296E-4
-2.8044355E-4
-2.6144087E-4
6.3157326E-4
0.00311437
0.0036219368
-2.4272918E-4
-0.0015869845
0.0014343942
0.0019249115
3.354614E-4
5.1843206E-4
-5.641536E-5
-0.0010224119
1.7435817E-4
-6.5755734E-4
-0.0023122784
1.3009986E-6
0.0014225764
5.216075E-4
5.408886E-4
6.477525E-4
8.8033295E-4
3.1785847E-4
-0.0010544241
-0.0015191463
-0.001555486
-7.852901E-4
-4.8899476E-4
-0.0010216952
-4.0497482E-4
1.2291543E-4
6.943956E-4
9.665551E-4
-4.0603915E-4
-1.9703433E-4
0.0012609698
9.213593E-5
-0.0011012495
-9.051473E-5
-5.532677E-4
-0.0010789119
3.091687E-4
-4.1072097E-4
-5.326855E-4
0.0012833094
7.9602946E-4
3.5798713E-4
-3.2097785E-4
-9.5179165E-4
0.0011536514
0.0013452237
7.466141E-4
0.0015454548
3.8743133E-4
-2.1746996E-4
4.7492344E-4
4.3650268E-4
1.517277E-4
1.7041841E-4
3.7891252E-4
-0.0015886466
-0.0022060522
3.5951196E-4
-6.7521876E-4
-0.0017677305
-1.1757804E-4
-0.0013322324
-0.0016121708
6.4233167E-4
0.0014366369
9.804335E-4
-0.0011509794
-0.0019115441
2.485649E-4
0.00131197
0.0016657098
0.0011188771
-8.2154013E-4
-7.1769115E-4
7.840536E-4
9.443542E-4
0.001191165
0.0033967765
0.0034075538
9.082331E-4
0.001891319
5.83877E-4
-0.0033660994
-0.0011898308
1.7297495E-4
-1.2707418E-4
6.6014414E-4
-0.0030463405
-0.0029470022
5.0828623E-4
9.797352E-4
0.0033374755
-0.0015034177
-0.009708156
-0.005247058
8.4167154E-4
0.0010859777
0.0015230733
0.0016133707
9.812713E-4
9.3013376E-5
5.735913E-4
0.0013239034
-7.099327E-4
-0.0016842729
-2.816407E-4
5.162524E-4
6.0361903E-4
0.0011738946
0.0022328345
0.0019050733
0.0016089675
0.0029142972
0.0022122834
-2.514518E-4
-7.047687E-4
-2.9182626E-4
-0.0018193459
-0.003395775
-0.002159402
-3.8587733E-4
3.9181884E-4
0.0013336231
9.775313E-4
-7.934666E-5
-3.0598522E-4
-6.4328656E-4
4.299252E-4
0.0013261534
-6.5154553E-4
-0.0016521802
-9.863661E-4
4.976934E-5
0.0010147522
-3.4055076E-4
-4.4658218E-4
6.106049E-4
-5.5353896E-4
4.187766E-4
0.0016774987
0.0013506904
0.0025082952
0.0015652423
9.3126306E-5
-9.338099E-4
-0.0041120406
-0.0033600798
-2.7759065E-4
3.3278475E-4
0.0014406017
8.9917635E-4
-0.0011615108
-0.001171725
-6.9820706E-4
-2.7645892E-4
-3.202919E-4
-0.001264847
-7.385394E-4
9.4371306E-4
6.465457E-4
-5.303137E-6
0.0017229964
0.0018418415
-3.6082717E-4
-5.657129E-4
-5.9218135E-5
1.3782075E-4
0.0015373308
0.002382245
8.7440124E-4
-0.0011498883
-8.1129547E-4
-1.1215709E-4
-9.463893E-4
-6.409225E-4
-1.56652E-4
-5.4372783E-4
3.363274E-4
0.001034671
1.3321982E-4
-0.0010219913
-0.0013604057
-0.0011331346
-3.2409077E-4
0.0018474434
0.0020369622
-3.8720126E-4
-6.697785E-4
-1.0241135E-4
6.9131743E-4
0.0021384477
3.2225254E-4
-8.950317E-4
3.6230808E-4
-0.0011726198
-0.0017267147
2.0601526E-4
-4.3353293E-4
-0.0013758478
-1.516991E-4
0.0012063327
0.0012488652
-2.4129818E-4
-0.0013696052
-0.0010371286
-7.1468216E-4
-0.0010057035
-7.31474E-4
4.4319843E-4
9.52416E-4
9.1764465E-4
0.0014158085
7.401989E-4
-7.419862E-4
-3.1431002E-4
-2.1105492E-4
-0.0013591476
3.138123E-4
0.002740866
0.0023198312
8.372843E-4
-8.1481447E-4
-7.184083E-4
7.1458827E-4
8.48845E-5
-2.070722E-4
-2.3559505E-5
-6.9654826E-4
1.211811E-4
1.9051075E-4
-3.220363E-4
6.6458643E-4
1.6621116E-4
-2.0283028E-4
9.796497E-4
9.6059305E-4
0.0010645894
5.9845304E-4
-0.001776574
-0.0017311071
1.46514E-4
-1.885072E-4
-7.791392E-4
-6.8852835E-4
-0.0011290199
-0.0017705485
-0.0022763622
-3.554713E-4
9.934198E-4
-0.0012994484
-8.784735E-4
1.5602626E-4
-0.0010045439
9.540209E-4
0.0017088844
3.114818E-4
3.3140637E-4
-9.675444E-5
0.0016226612
0.0032036116
0.0022204937
0.0016622886
-3.0707478E-4
-0.0014060232
-9.267848E-4
-8.409469E-4
9.7399554E-4
8.3581737E-4
-0.0015563371
-0.0013654062
2.8853855E-4
4.8754408E-4
-2.8037836E-4
5.2544207E-4
4.3301267E-4
-3.0368888E-5
0.0017915178
4.804581E-4
-0.002071264
-0.0018015618
-0.0012597058
-2.8535892E-4
4.6195093E-4
0.001741602
0.0025373811
0.0014610824
4.5382415E-4
-0.001584803
-2.424668E-4
0.0020446577
-1.2212803E-4
-5.098021E-4
-0.0030509774
-0.004862001
-4.941433E-4
5.2647106E-4
0.0025406051
0.0016273796
-0.006330795
-0.0041616503
9.914358E-4
2.625024E-4
0.0014347063
0.0011261064
8.1061514E-4
0.0016137442
8.042205E-4
0.0012029274
6.98153E-4
8.636205E-5
5.314494E-5
-7.820179E-4
7.4800436E-4
0.0015784824
2.9435253E-4
8.772496E-4
0.0016953787
8.2412665E-4
-4.4334203E-4
-0.0010700298
-0.0013957439
-0.0012259696
3.4586716E-4
0.0019178252
0.0010361124
-9.362637E-4
1.9405858E-4
0.0018710113
-1.7997135E-4
-0.002187827
-0.0018731053
-7.160655E-4
4.7009453E-4
2.4570207E-4
-8.3166367E-4
-8.7218307E-4
3.673708E-4
7.1528123E-4
-1.2953133E-4
1.442975E-4
-2.0644744E-4
-0.0019464288
-0.0026195166
-0.001740422
-3.509994E-5
0.0011496792
0.0022836605
0.002358642
2.9168813E-4
-7.811199E-6
-2.4199148E-4
-0.0017834178
-7.089812E-5
0.0014701462
4.1611466E-4
3.673335E-4
4.9479137E-4
1.7752568E-4
5.6122863E-5
-9.979087E-5
-1.1818302E-4
-6.388334E-4
-2.0724285E-4
0.0015583995
0.0014252154
3.713211E-4
6.5266405E-4
-3.103256E-4
-0.0025036468
-0.0019721244
5.1376334E-4
0.0010342761
4.2341494E-6
-9.239465E-4
-0.0020293011
-0.0013398189
8.3879574E-4
0.0011433709
0.0016283275
0.0029348398
0.0020594564
-3.901951E-5
-0.0019223571
-0.0019932261
-0.0010064669
-0.0011964588
2.9547565E-4
0.002111682
0.0015243628
7.6511316E-4
-8.794881E-4
-0.0017669557
-1.4659709E-4
0.0013264862
0.0017879548
-3.8190752E-5
-0.0015346343
3.803398E-6
3.1347308E-4
-7.619292E-4
-0.0011542687
-0.0011285314
4.8472264E-4
0.00244116
9.632856E-4
-0.0026974115
-0.0019090538
6.956222E-4
-8.9040084E-4
-0.0012746983
1.4664362E-4
2.4908976E-4
0.0018606827
0.0024549558
4.1348857E-4
-8.391231E-4
-3.9360364E-4
6.115301E-5
-9.233437E-4
-5.6451E-4
6.7263236E-4
2.0082475E-6
2.795772E-4
0.0012101739
0.001081671
4.3559857E-4
-6.494229E-4
4.421255E-4
0.0013566017
-7.872993E-4
-2.8699456E-4
0.0016200524
-3.074631E-4
-9.1324095E-4
2.0231794E-4
-0.0020199611
-0.0026640967
-3.277395E-5
0.0010493039
0.0015177313
8.406983E-4
-0.0011895051
-9.7283704E-4
1.0008961E-4
4.909747E-4
0.0012768474
0.0018241009
0.0011593001
-6.649944E-4
-0.0018167858
-0.0013144232
-4.000013E-4
-6.439409E-4
-0.0015482673
-7.794827E-4
4.0600996E-4
3.9872105E-4
2.3303783E-4
-1.910731E-4
2.194003E-4
0.0012806873
0.001410315
0.0015079213
3.6650567E-4
-0.0017035592
-0.0013041171
-4.3291737E-5
-2.0391923E-5
7.1230344E-4
0.0019198286
6.956783E-4
-0.0020426104
-0.0023308787
-5.826019E-4
3.4734036E-4
7.5030787E-4
0.0012398151
8.57856E-4
-5.5651687E-4
-6.9010456E-4
0.0011848956
8.655166E-4
-9.951814E-4
-1.2255556E-4
1.9015365E-4
-3.9690116E-4
8.792118E-4
-2.09707E-5
-0.0013071747
0.0015558999
0.0031213663
-2.230858E-4
-0.0029841452
-0.0012082137
0.0017729107
0.0024109688
-1.7007724E-4