5.003643E-4
0.0022322542
0.002583967
0.0023586107
0.0040791538
0.005886324
0.004171636
0.0016474564
3.0060476E-4
1.3859813E-4
-3.482993E-5
-0.0024729315
-0.0031199402
-5.570633E-4
2.6476942E-4
-9.255001E-4
-0.001419476
-6.3112564E-4
1.322436E-4
7.4257137E-4
0.0013680814
4.2920248E-4
-9.421669E-4
-0.0013787103
-0.0019178158
-0.0032055432
-0.0037088809
-0.0014707807
5.810236E-5
-1.6171708E-4
6.597523E-4
4.96111E-5
-5.80917E-4
4.5742735E-4
4.292283E-4
0.002173454
0.003662911
0.0013983723
6.448167E-4
9.643354E-4
4.5334495E-5
-2.634647E-4
-0.0011953033
-0.0012912424
0.0015662686
0.0032564807
0.0019804514
0.0010337877
-3.2794368E-4
-0.0028591913
-0.0019063082
7.358221E-5
-0.0011855332
-2.2676203E-4
0.0028723506
0.0026227937
0.0013753009
0.0015792364
0.0015587457
4.8510646E-4
-0.0018186675
-0.0037690573
-0.0032279396
-0.0016407922
-4.888833E-4
8.596666E-4
2.551539E-4
-0.0021457602
-0.0017017081
-3.209739E-4
-3.1693518E-4
0.0010119118
0.0018674184
0.0013987412
0.001174783
1.2305078E-4
-5.475191E-4
5.2919404E-5
4.3223954E-5
-0.0016480595
-0.0029448613
-0.001712666
-3.5071027E-4
-7.385429E-4
-0.0012359191
-2.5078666E-4
0.0011291776
-3.554927E-4
-0.0021975788
-2.4024866E-4
0.0013210006
7.981804E-4
4.5119209E-4
4.5739373E-4
0.002228833
0.004317442
0.004869477
0.004173573
0.0021345431
0.0021156084
9.4083144E-4
-0.003687326
-0.0021569508
0.0011918286
0.0020838073
0.0041939938
0.0016635635
1.0472119E-4
2.4391951E-4
7.5973244E-4
0.003293014
-0.0077807456
-0.01014793
-1.2622528E-4
-0.012770238
-0.012585682
0.0018295397
-0.0024790165
0.00533913
0.011757971
-0.0014555373
-0.010381425
-0.0049753045
0.012543829
0.0034983533
-0.009498471
0.009723393
0.003182212
-0.0062392256
0.0073405635
-0.0018138689
-2.8539952E-4
0.0077710357
-0.0036295478
0.0026699412
0.003505002
-0.00964211
4.344441E-4
0.011585554
0.0031432502
-0.0031202137
-8.6618366E-4
-0.0031496405
-0.0028145046
3.6467445E-5
-0.004806354
-0.0017218896
0.0026910454
-0.002585548
-0.005751002
-0.0032953406
0.008453894
0.0070183617
-0.0044931336
0.0024287116
0.0011977394
6.5479556E-4
0.00484025
-0.0110401455
-0.0026615318
0.007475398
-0.008923849
0.004102608
0.009513437
-0.0070136525
0.004370032
0.01166355
0.011208714
0.010874938
-0.00982801
-0.015921876
-0.005473158
-0.0040015206
-7.8020175E-4
-6.2636996E-4
-0.0018143681
0.0011159218
-0.0017004968
-0.0033849548
-0.0043848115
-0.0061686533
5.219289E-4
-0.0011072332
-0.014174094
-0.008881304
0.0073882975
0.008258967
0.004468906
0.0051125456
0.0035569894
0.0031675724
0.0034352215
0.0030154684
0.0048316126
0.0049944874
0.003821803
0.004035823
0.0031788663
7.804568E-4
1.1202052E-4
0.0012572112
-0.0018648906
-0.0043383404
-2.6837164E-5
0.0013564037
-0.0015173336
-0.0020582327
-0.0011772299
-0.0017733172
-0.0042823744
-0.0047804555
-0.0035278054
-0.0029458303
-0.0014697781
-0.0016402983
-0.0020017151
-3.0873017E-4
5.03807E-4
0.0020348392
0.002505832
0.0015768551
0.0027904294
0.0020188265
-0.0013936434
-0.0024252364
-8.564621E-4
0.0011813719
0.0012270445
-7.3014735E-4
-8.984229E-4
0.0013210865
0.002695935
0.002275485
0.0014005073
-1.11387875E-4
-0.0021830318
-0.0014680485
0.0021778317
0.0030674771
0.0015459276
2.6619874E-4
-0.0015540493
-0.0010550496
-0.0010734767
-0.0029318566
-9.5497555E-4
7.414301E-4
5.1303083E-5
-3.2362634E-5
-2.485475E-4
5.6093046E-4
-8.0272567E-4
-0.0021734023
5.302954E-4
1.2995487E-4
5.6306494E-4
0.0034554414
6.8428024E-4
-5.1291724E-4
0.0011635694
-2.615758E-4
-0.0013501527
-0.0011205763
0.0011169701
0.0027935961
0.0014042858
8.172879E-4
-8.327386E-4
-0.0021697662
3.2851538E-5
0.0012577511
7.8802695E-4
-1.8093403E-4
-0.0014368893
-0.0017643961
-0.0011336671
-4.6432303E-4
-0.0013642028
-0.0013286409
-1.9615391E-4
-0.0015647486
-0.0021477488
-5.452915E-4
4.3525797E-4
-6.223024E-5
-0.002224526
-0.0025864867
-2.2571736E-4
0.0013842494
0.0015873503
7.6887716E-4
4.8066938E-4
0.0010801052
5.7248457E-4
3.9982705E-4
0.001338518
0.001580877
0.0015747467
0.0015052676
0.0021055844
0.004023885
0.0029557613
-1.10288725E-4
4.5782255E-4
0.0018624775
9.807163E-4
-0.0011879004
-0.0012750672
0.0015028551
6.105328E-4
-3.6927435E-4
1.21990015E-5
-0.0036239629
-0.0014231232
-0.0010407063
-0.010853684
-0.008429428
2.424862E-4
-7.238914E-4
1.89342E-4
8.7528006E-4
-0.0017643152
-0.0012724316
-1.9238621E-4
6.525395E-4
0.0010969585
0.0011813558
0.001979411
0.002483557
0.0028790052
0.0016763088
6.171166E-4
0.0014970619
0.0023810184
0.0032770105
0.002606884
0.0017021531
0.0014536734
6.4388046E-4
0.0021564814
9.480981E-4
-0.0046266923
-0.0052104555
-0.0020279023
-0.0011758498
-0.002063201
-0.0010980971
0.0011480202
8.076905E-6
-0.0015908955
-7.200212E-4
-2.0183381E-4
1.7110031E-4
7.6376664E-4
7.4056216E-4
3.211738E-4
0.001185201
0.002379583
0.0014269664
0.001173711
0.0017349523
0.0015982451
4.1945354E-4
-0.0021581813
-9.622283E-4
-1.6152966E-4
-0.0030677898
-0.0019670478
-0.0017850889
-0.0027128113
-2.2067844E-4
-6.149361E-4
-3.6753668E-4
3.4230427E-4
-0.0019842135
-0.0012630288
-2.5678476E-4
1.1746442E-4
3.8831038E-4
-0.0026213487
-0.0022296058
0.0017985897
0.0035722088
0.0038665035
0.0045113303
0.005436565
0.0036751318
0.0011253365
-6.350748E-4
-0.002973369
-0.0026949537
-0.002132301
-7.1607914E-4
0.0024642553
7.327825E-4
-3.7225307E-4
0.0011878819
1.6586093E-4
5.022658E-4
-5.8797294E-5
-0.0014715624
-2.8334398E-5
-8.7257155E-4
-0.0026641553
-0.0023264058
-0.0018378623
-8.7522034E-4
4.292177E-4
0.0017289569
0.0017279888
-2.4828854E-5
-0.0013311062
-0.0011176361
1.6159316E-6
1.9229548E-4
3.9209917E-4
6.6390826E-4
-0.0010955101
-0.0016127453
-7.2970346E-4
-9.286201E-4
8.297365E-4
0.002726914
8.047076E-4
-0.0010702921
6.582666E-5
0.0011670149
8.147462E-4
0.0011635161
0.0019029953
0.0012418005
-2.8837493E-4
-0.0010920741
1.1124416E-4
0.0024717117
0.0034959696
0.0023718472
7.680749E-4
-6.359129E-4
-0.0032293177
-0.005820412
-0.0059004165
-0.003245707
-4.599656E-4
-4.995227E-4
-1.3242639E-4
0.0020828086
0.0019960843
0.0012765923
0.001194274
8.8766974E-5
-1.4886855E-4
-6.0020597E-4
-0.0018297296
-7.5693266E-4
0.0012961291
0.0023142165
0.0030600377
0.0026869208
0.0014843874
0.0015537537
0.0015556423
2.5319878E-4
-8.4656494E-4
-0.0012267445
-5.13511E-4
2.760166E-5
-8.650663E-4
-0.0011190353
-0.0016683403
-0.0026327658
-0.0018215654
-9.5896964E-4
1.3999603E-4
7.046306E-4
-0.0013012122
-0.0026106997
-0.0017554603
8.912458E-4
0.0028455784
0.0016073978
0.0016063428
0.0020247393
1.2975356E-4
-4.9359095E-4
-3.0274948E-4
4.3067965E-4
5.5087905E-4
-0.0020080868
-0.0024548988
-0.0011366822
5.4458284E-5
0.0029155484
0.0025264618
-7.7719905E-4
-9.291822E-4
-5.8430637E-4
-0.0012964769
1.595316E-5
0.0013266116
3.7995647E-4
-2.4500416E-4
5.882279E-4
0.0011726884
0.0010356451
0.0013666538
0.001500907
-3.2891534E-4
-0.0013665335
-9.166504E-5
0.0015131176
0.002739571
0.0012145032
-4.333735E-4
1.6326086E-4
-3.375972E-4
1.1269355E-5
-0.0025003988
-0.0044749486
0.002000365
-0.0022883068
-0.012887562
-0.005326486
0.0027134921
0.0020519532
0.0045929686
0.0038175234
3.1875068E-4
-4.895472E-4
-0.0010850059
-3.8386605E-4
0.0018816069
0.0034878927
0.0010908773
-0.0018453288
-1.8812927E-4
5.1479E-4
1.6505478E-4
0.002597503
0.0033013758
0.0015392044
0.0011547209
0.0011306099
1.937563E-5
-8.090196E-4
-0.002117521
-0.00271157
-5.04992E-4
4.473356E-4
-2.6750652E-4
5.7360367E-4
0.0013960255
5.3204873E-5
-0.0025870537
-0.0032257729
-0.002486519
-0.0011709477
0.0019186749
0.0019173966
3.3714098E-4
9.901318E-4
-5.1238603E-4
-0.0013246203
0.0011463388
0.0030171263
0.0031240021
9.985475E-4
-3.375333E-4
-2.9012063E-4
-0.0019689172
-0.0035977447
-0.0036823007
-0.0019276564
-3.4623724E-4
-4.8245362E-4
3.053258E-4
5.3292495E-4
-4.4952307E-4
-0.0013909211
-0.0024987697
-0.0014419788
-1.8720959E-5
6.359824E-4
0.002093899
0.0013700934
-7.679309E-5
1.2518631E-4
6.9054315E-4
0.0021633925
0.0019627183
9.499409E-4
0.003804247
0.0070489664
0.005706565
3.034666E-4
-0.0032803928
-0.001515605
1.2182991E-4
5.297867E-4
0.0016816149
0.0010150424
6.1010476E-4
8.206356E-4
-2.4464226E-4
-4.7828132E-4
-0.002629968
-0.0059743584
-0.005635163
-0.0043319156
-0.002987649
-0.0018101645
-0.0021146757
-0.0010017962
-4.473059E-4
-0.001015784
0.001173668
0.0020552303
-7.49645E-4
-0.002118398
-4.9532374E-4
0.0011903272
0.0016912647
0.0022304396
0.002380377
0.00220361
0.0023749222
6.925325E-4
-0.0010846296
-1.6367178E-4
7.413164E-4
0.0011616641
0.00142732
0.0013387278
0.0026818186
0.0015172701
-0.0028008777
-0.0022250805
0.002204957
0.004159683
0.0028528483
-8.6876657E-4
-0.0033638892
-0.0036733253
-0.0036097593
-0.0010931564
0.0013505882
7.7544333E-4
-3.510884E-5
-7.5824605E-4
-3.1596914E-4
0.001532409
0.0020196782
0.0011725408
-0.0010459146
-0.0015866028
9.343753E-4
7.4430613E-4
-7.2870136E-4
-0.0010171622
-0.0023451205
-0.0023541702
-0.00246426
-0.0034653079
-0.0014678638
1.07748725E-4
-1.6790656E-5
0.0016560812
0.003471706
0.0045372667
0.0053441776
0.0041260985
0.0015575495
3.627437E-4
-9.880146E-4
-0.0038420502
-0.0043323776
-0.0017693787
9.655299E-4
0.002025443
4.779446E-4
-0.001189881
-0.0015721677
-0.0014646623
-4.3447135E-4
3.749459E-4
3.5332973E-4
-6.809511E-5
1.4067281E-4
0.0016880698
0.001588857
-2.5611933E-4
-0.0018609186
-0.0031539248
-0.0022599453
-8.796102E-4
-0.0010001052
2.4999792E-5
4.2079776E-4
-3.154396E-4
0.0010680371
0.0016935858
9.644546E-4
0.0021938316
0.0032399828
0.0027788903
8.7453733E-4
-0.0030171764
-0.004702938
-0.0025978014
-7.258835E-4
-5.2872836E-4
1.8459425E-4
0.002008519
0.0023776107
0.0030464085
0.0049321675
0.003296885
0.0011784979
0.0015872591
7.2358624E-4
3.8855255E-4
0.0017536235
4.0243095E-4
-0.0033549375
-0.0015483979
0.0030738185
-0.0035400304
-0.011068128
-0.005021999
1.5360965E-4
-0.0010151864
-6.8471895E-4
-8.3778787E-4
-4.641828E-4
0.0012465789
6.0621626E-4
-0.0011466987
-0.0020556196
-0.0018609987
-5.476369E-4
1.1840833E-4
-3.4701216E-4
6.22795E-4
0.0025387479
0.0031599873
0.003091495
0.0021665043
0.0013993786
0.0011014162
6.101751E-5
1.9371574E-4
4.415399E-6
-3.2461024E-4
0.0018347015
0.002241256
0.0010029897
8.0978696E-4
1.2727834E-4
-6.567041E-4
-0.001922733
-0.0022546898
-7.364782E-4
-0.0011459793
-0.0029264507
-0.002178114
0.0018351447
0.0045453804
0.0025867538
7.3398167E-4
0.001255385
-3.0982563E-5
-0.0036700305
-0.0046896506
-0.001781528
-6.469015E-5
4.988928E-4
0.002620767
0.0035380642
0.0026558503
0.0012787067
-5.582137E-4
-0.0018861707
-0.0019406156
-8.67367E-4
-0.0014146413
-0.0025922402
3.7112975E-5
0.002367535
0.0010856665
-5.584735E-4
-0.0026028282
-0.0039246865
-0.0021211065
-2.4914287E-5
-2.3174375E-4
-9.2450803E-4
3.5262617E-4
9.4780896E-4
-0.0010694051
-0.00138217
2.3553694E-4
0.0013768523
0.0017909323
6.731566E-4
8.472509E-4
0.0022133843
0.0015163034
0.0015762617
0.0030326836
0.003708211
0.002649568
-3.6032722E-4
-0.001756519
-4.0515783E-4
0.0024191304
0.0030903646
-0.0023185033
-0.0051639224
-0.0011032283
0.0011982948
9.852821E-4
-4.9472743E-5
-0.0025641697
-0.0037813275
-0.0033878004
-0.0011246451
0.0018624914
0.002495236
0.0016902518
-2.9880725E-4
-0.0019346013
-0.0012152274
-0.0010148031
-9.873194E-4
3.1173302E-4
3.338273E-4
-4.645026E-4
-4.105516E-4
1.16959716E-4
5.2682526E-4
-3.4671326E-4
-6.457789E-4
0.0012983358
0.001530648
7.170339E-4
0.00200862
8.235062E-4
-0.002955055
-0.0051411293
-0.006500901
-0.004252622
9.434649E-4
0.0014221113
-9.020107E-4
-2.4322566E-4
0.0018616938
0.0011679172
-0.0036313254
-0.0067492276
-0.0042937575
-0.00208505
-0.0031134998
-0.0025378726
0.0011374246
0.0039969566
0.005623419
0.007529514
0.008596606
0.009789621
0.009748199
0.005912859
0.003302614
0.0024415937
-0.0010971774
-0.003904997
-0.005078032
-0.0083526755
-0.011634723
-0.0123623125
-0.01135397
-0.008650166
-0.005248617
-0.0026854242
6.578102E-4
0.005525037
0.009571219
0.0107645
0.010488418
0.013128249
0.016889263
0.017067194
0.014007652
0.008349526
0.004312019
0.00306786
-0.0030390713
-0.013982062
-0.023271384
-0.027740598
-0.026895937
-0.023184266
-0.019639986
-0.016382668
-0.011203319
-0.0044358736
0.002927378
0.009599844
0.012428217
0.011408566
0.009900682
0.013886421
0.019959392
0.020157551
0.020951172
0.02428404
0.028391866
0.032093108
0.024689509
0.014014184
0.01038984
0.007996841
0.0073161484
0.0024373054
-0.002666796
-0.0020562792
-0.016537303
-0.04274898
-0.06460074
-0.07489296
-0.06009733
-0.04876814
-0.058146525
-0.053961534
-0.040578887
-0.02922482
-0.0022774353
0.035305906
0.06771102
0.07715151
0.061939586
0.053338
0.058862142
0.061120316
0.061815158
0.057493478
0.038485385
0.023215437
0.015251363
-0.0015639473
-0.006518456
-0.0016378108
-0.018672377
-0.042381972
-0.06310243
-0.085198514
-0.08813703
-0.064718194
-0.026988342
-0.005615712
-0.0104802055
-0.018876813
-0.03724636
-0.06484841
-0.08552979
-0.078266345
-0.019623525
0.04502033
0.07674174
0.092556246
0.111093506
0.15727867
0.20228565
0.20711192
0.16355535
0.05209561
-0.052234996
-0.082263105
-0.10556407
-0.1465415
-0.14824785
-0.0877541
-0.03527521
-0.059744954
-0.104919836
-0.09769575
-0.03671734
0.021466516
0.030877534
0.02805291
0.008422369
-0.06191186
-0.1153874
-0.09771555
-0.047094822
0.009679815
0.08253112
0.13253908
0.14803855
0.1900067
0.2259716
0.21558723
0.16993634
0.060248155
-0.03555026
-0.059357483
-0.09474757
-0.12345468
-0.107397154
-0.0769997
-0.031243293
-0.00860406
-0.044461537
-0.11490514
-0.17089626
-0.15888898
-0.10431806
-0.053727977
-0.014755427
-0.006784397
-0.00466369
0.031980675
0.08815113
0.1325088
0.12609091
0.07329581
0.01596278
-0.03363963
-0.041345015
0.001733646
0.05516064
0.12404391
0.1631554
0.09478687
-0.01195134
-0.051654425
-0.03780272
-0.020845193
0.01341025
0.06363499
0.04701084
-0.033999432
-0.078689374
-0.0775046
-0.08038583
-0.090644374
-0.078396715
-0.03910216
-0.011677414
-0.00539301
-0.003800494
-0.0054042866
0.007136572
0.030371916
0.032297015
0.014792678
-8.911184E-4
-0.007533367
-0.009905107
-0.011404894
-0.00992099
-0.0057854867
0.001142381
0.011438747
0.022508617
0.028776683
0.031526178
0.03498834
0.03187148
0.026357213
0.02699696
0.022495432
0.012749378
0.007002305
0.0029158704
-0.0019181292
-0.009396628
-0.016479477
-0.01822061
-0.019409627
-0.020668695
-0.016786521
-0.010840344
-0.007558413
-0.004702913
-0.0013483901
-4.5261238E-4
9.615493E-4
0.00475876
0.0056227646
0.0032081844
2.0705005E-4
-0.0031596292
-0.0051762955
-0.0046085236
-0.004428767
-0.007879129
-0.010740294
-0.010209072
-0.010592153
-0.009589397
-0.0044465247
0.0010731673
0.00537079
0.00621632
0.0047165197
0.0059361747
0.008365571
0.00875048
0.0071766768
0.005799343
0.004766917
0.002648782
6.5511616E-4
-0.0024853414
-0.0056131165
-0.0033585888
0.0020527095
0.0064447485
0.009688749
0.010382057
0.007466122
0.0029442084
-0.001498849
-0.00504956
-0.004819269
-0.0020422176
-0.0018255744
-0.0031890604
-0.0021888798
0.0010267886
0.0021979618
0.0014102035
-3.2304326E-4
-0.0056484016
-0.0040461165
0.003145193
-0.0025725348
-0.0068390775
3.9583124E-4
4.2660136E-4
-0.0035991152
-0.0054704407
-0.0062442124
-4.9303455E-4
0.002075969
-0.0019339886
-0.0029064852
-0.003747207
-0.005271688
-0.0018129783
0.0050581996
0.0092123225
0.008506871
0.0045396127
-0.0010900167
-0.0035739902
-0.0014848589
0.0021314656
0.0067408364
0.011035614
0.013380575
0.008563996
-0.0014522994
-0.0032241908
-8.040321E-4
-0.00143463
9.1038377E-4
5.057468E-4
-0.006026364
-0.009729735
-0.008173707
-0.0048913206
-0.00562582
-0.0070785345
-0.0028923003
-7.5121195E-4
-0.0046653817
-0.010339663
-0.01210178
-0.005547715
1.6951961E-4
0.0010147655
0.004122737
0.0066435477
0.0077246297
0.009748941
0.009267485
0.007956513
0.008710887
0.010861854
0.01159048
0.008933907
0.0045292866
-0.0027643212
-0.0067234803
-0.0012024075
0.0020613186
1.10828165E-4
-7.2785845E-4
-0.0035967627
-0.005461308
-0.003654124
-0.0047514965
-0.009718646
-0.013076971
-0.009913184
-0.004250562
-0.0034154137
-0.00444693
-0.003286508
-5.7883427E-4
0.0019162174
0.0011472162
-0.0010969886
-8.1066584E-4
4.7641594E-4
8.0943166E-4
0.0013733251
0.0028592043
0.0041743256
0.0040242085
0.0034383975
0.0042010685
0.003271823
-4.1877516E-4
-2.8556893E-5
0.004407193
0.0059164343
0.0054641836
0.0049726823
0.0032302837
0.0022838656
0.0011485126
-0.0016252421
-0.0011463658
0.0018361836
0.0023885847
0.002354095
7.960099E-5
-0.005093695
-0.0061917882
-0.006005801
-0.0070015513
-0.003925837
-0.001497395
-0.0022629127
-0.0021894365
-0.0018094017
-8.8213553E-4
-0.0018503632
-0.004215228
-0.0022763251
-6.6252734E-4
-0.0020998854
-0.0013251695
1.0882637E-4
6.901646E-4
0.0018736623
0.0016693362
8.4543985E-4
0.0015133389
0.0019447281
0.0023504714
0.003764032
0.004174714
0.0034246612
0.0014904939
-0.001401218
-0.0016873387
-9.1593486E-4
-0.0020069072
-9.611867E-4
0.0015282127
-2.265505E-4
-0.0033022903
-0.0024898248
4.0543655E-5
0.0013339936
7.372026E-4
1.415389E-4
0.0021443402
0.002960831
0.0012709452
9.740796E-4
0.0013637744
0.0019367685
6.39508E-4
-0.0040480923
-0.0064818724
-0.0051616076
-0.0020052223
7.1762287E-4
0.0010776124
8.2217663E-4
1.2164577E-4
0.0016942233
0.004481334
0.004415542
0.004311873
0.0012099367
-0.002827912
-0.002637633
-0.0044284384
-0.0056703445
-0.0040641637
-0.0031874457
-0.0011537913
-2.068861E-5
-1.1238306E-5
-2.1129513E-4
-4.4705343E-4
-2.8354506E-4
-0.0018460945
-5.1412126E-4
5.779195E-4
-0.0017298977
4.9508543E-4
9.988961E-4
-2.8659665E-4
0.0032554958
0.0030908242
0.0015123738
0.0034260915
0.0027478829
9.4416185E-4
0.002192093
0.0033701377
0.0025246644
0.0030924066
0.0027267286
4.9872784E-4
4.7665264E-4
-2.7267775E-4
-6.228664E-4
-2.6602125E-5
-0.0010941102
-0.0019161891
-0.0044182027
-0.0044159046
-0.0018115956
-6.9371524E-4
0.0017715433
-0.005169073
-0.013644078
-0.005210119
0.0018864227
5.175863E-4
8.503286E-4
7.4514194E-4
0.0019452263
0.0025631008
0.0011445195
0.0012716263
8.153433E-4
5.871462E-4
7.769917E-4
-1.2588846E-4
-4.00761E-5
0.001520642
0.0018118919
2.7518967E-4
0.0017344484
0.003970573
0.0025826704
0.0013910185
-1.7276967E-4
-0.0011703742
0.0010008046
0.0014089717
5.5207673E-4
5.1156996E-4
-6.8894733E-4
-0.0019442018
-0.0026060627
-0.0014039916
8.944703E-4
-5.960524E-4
-0.003359648
-0.0023843504
-1.1122761E-4
7.0263277E-4
-3.039142E-4
-0.0012893893
-1.01510195E-4
-7.2934414E-4
-0.0033511654
-0.0020407303
0.0011796576
0.0016925071
4.389147E-4
5.883129E-4
0.002202893
0.0019134758
8.1636326E-4
-3.8943277E-4
-0.0021409392
-4.901862E-4
0.0015030985
5.97896E-4
0.0011169865
0.0018353314
0.0018658284
0.002012141
-9.4225345E-4
-0.002712025
-2.6858773E-4
3.697278E-4
5.240071E-4
0.0011489186
-0.002355104
-0.004369693
-0.0022127924
-0.0012492725
-1.7051626E-4
7.418606E-4
5.7790976E-4
0.0019418977
0.0025514557
0.0016865632
9.580052E-4
1.19884615E-4
1.9279378E-4
6.813946E-5
-7.64221E-4
2.5247972E-4
7.397142E-4
-0.0013271931
-6.3485885E-4
0.0013998386
-1.6808129E-4
5.2592324E-5
8.8195055E-4
-7.053533E-4
0.0014669977
0.0021403846
-0.0013688903
-0.001852958
-0.0012406877
5.590991E-4
0.0016776121
-0.0010516711
-0.0012882368
-8.986741E-4
-0.0012568732
0.0010025863
9.838518E-4
-1.7521731E-4
2.869396E-4
-2.0336965E-5
-4.6146216E-4
-0.001608842
-0.0021516162
-5.870823E-4
9.187962E-4
0.001298078
-1.860054E-5
-1.8130636E-4
0.0014701826
9.000347E-4
-4.3283153E-4
-7.457974E-4
-6.395387E-4
6.622684E-4
0.0017417228
0.0015212895
2.332544E-4
-0.0011026693
-5.757151E-4
4.9913087E-5
7.3467534E-5
0.0010360569
5.2862667E-4
-0.0010382902
-4.9047766E-4
3.230536E-4
6.684548E-4
0.0018189431
0.0021138291
7.856892E-4
-0.0017024664
-0.004224266
-0.0035050928
-4.5420602E-5
0.0010755018
8.4725214E-4
0.0028865663
0.0029984154
0.0012306472
0.0021654232
0.0015518282
-8.4811414E-4
-0.0010894904
-0.0019293299
-0.0025452839
-0.0013608984
-0.0010205399
-0.0011930098
-0.0016396509
-0.001993214
-9.0924103E-4
6.9715705E-4
0.0017529906
7.0107216E-4
-0.0015910384
-0.0014551425
2.1776775E-4
0.0011790107
0.0015014426
7.462128E-4
-6.55502E-5
2.0599931E-4
3.347004E-4
2.4434223E-4
8.473283E-4
0.0011331447
-9.494312E-6
-8.959806E-4
1.0346516E-4
0.0010444251
8.879472E-4
0.0013583092
0.0010221216
-0.001888599
-0.0025541824
2.4880547E-4
-1.5907151E-5
-0.0011696266
9.365195E-4
0.0011599757
2.295497E-4
0.0012688942
0.002067463
0.0023761208
0.0019244881
0.0013650132
-1.2645473E-4
-0.002218147
-0.0018359713
-0.0028272418
-0.0017012008
0.0026681884
9.788394E-4
-1.7027283E-5
-7.9510873E-4
-0.0034593735
0.0023086537
-2.0340498E-4
-0.011246367
-0.0063275197
0.0010491507
1.289601E-4
6.317896E-4
9.189568E-4
0.001730725
0.0023713494
6.3337205E-4
1.4906745E-4
8.0882484E-4
0.0020472251
0.0027288753
0.0020054276
0.0013866657
0.0011682236
0.0015986697
0.0012466304
4.1021683E-4
4.3489155E-4
5.0737188E-5
2.3971943E-4
1.19813914E-4
-0.0015617255
-0.0017681645
-0.0010987173
-0.0010630756
-2.2974722E-4
5.0051813E-6
-7.4254326E-4
-2.133236E-4
4.4827233E-5
-0.0011825659
-0.0015617693
-5.5497343E-4
7.391088E-4
0.0010677474
8.396325E-4
0.0012435112
0.0010086608
7.042725E-4
7.7574735E-4
4.4524603E-4
4.620101E-4
-9.475895E-4
-0.0016924213
3.5997469E-4
4.6299383E-4
-2.5885485E-4
-4.1127446E-4
-0.0015821973
-0.0012167981
-0.0011599096
-0.002011722
-0.0014578081
-0.0012279969
-2.4421708E-4
4.7707878E-4
-6.820425E-4
7.8865465E-5
0.0016955027
0.0024557863
0.0029344545
0.001196783
4.7988204E-5
9.0280466E-4
4.3877654E-4
3.6716455E-4
7.344639E-4
8.39827E-5
-6.0571696E-5
-7.066415E-4
-8.5387425E-4
5.246813E-4
0.0012516604
0.0015406539
6.2770693E-4
-0.0016585874
-0.0029892318
-0.0027178312
-0.0013467101
-3.9684653E-4
3.4568363E-4
0.0013027898
0.0011174483
2.536633E-4
-9.915133E-4
-9.2717365E-4
0.0010329096
0.0019904173
0.0021404217
0.0014899706
7.9596805E-4
0.0020737036
0.0016827789
-0.0014524952
-0.0025905182
-9.3906285E-4
-8.939951E-5
3.4001682E-4
7.800689E-4
-0.0019671794
-0.0028332865
-3.6780685E-4
-0.0010729932
-0.001120504
-7.418431E-4
-0.002025489
-1.8064495E-5
7.456463E-4
-7.7301526E-4
-8.024219E-4
-9.545491E-4
1.9247684E-4
0.0013446824
0.0015254002
0.0011257365
5.251702E-4
0.002345496
0.0012834299
-7.9260644E-4
0.0010964527
7.728054E-5
-3.959286E-5
0.0022017825
6.6129246E-4
9.091365E-4
0.001923366
9.7370084E-4
0.001810693
8.827349E-4
-0.002098647
-0.0030031286
-0.0019260206
-0.0013444279
-0.0027216747
-0.0021569822
6.064765E-4
9.933225E-4
7.7098666E-4
0.0014120814
7.9661555E-4
-1.2335135E-5
-5.292266E-4
-0.001600137
-0.0017930351
-8.7454123E-4
4.3025316E-4
0.0010916825
6.990385E-5
4.3568062E-4
0.0019805883
0.0010274058
-3.011715E-4
-5.72372E-4
-5.6555E-4
-3.7590673E-4
-6.327318E-4
-1.6684325E-4
3.0032825E-4
2.4473644E-4
5.858976E-4
-2.0238511E-4
-2.1731733E-4
0.001245884
2.786418E-4
-0.002005794
-0.0017922703
2.3957093E-4
6.373143E-4
-2.5382137E-4
-4.3493602E-4
-7.63778E-4
-3.934141E-4
1.5988639E-4
-0.0011396571
-0.0017003193
-6.946057E-4
3.8131933E-5
0.0015049945
0.0024687324
0.0011107144
0.0011949606
0.0021386074
5.379673E-4
2.6335608E-4
0.0012726997
0.0018074418
0.0032769963
0.0012505578
-0.0019781038
-5.6846516E-4
-4.2620617E-5
-0.001869317
-7.642929E-4
0.0015998249
5.047069E-4
-6.9808506E-4
5.629774E-4
1.7399247E-5
2.8322687E-4
-7.324007E-4
-0.005362961
-0.0024607612
-0.0010420472
-0.009148342
-0.007621783
0.0016486594
0.0037239157
0.0019223412
4.5323948E-4
4.0046644E-4
0.002116624
0.0028438817
0.00110403
-1.98089E-4
0.0011799284
0.001991716
0.0016262165
0.0015979249
0.0013563518
0.0010586978
2.6803635E-4
4.8714262E-4
0.0012673979
-2.6206966E-5
-2.722982E-4
0.0012229838
7.5994886E-4
-2.4614914E-4
7.437282E-4
6.476783E-4
-0.00119098
-0.00112171
-0.0016919156
-0.0031124977
-0.0015582907
-8.192964E-4
-0.0021160024
-0.002548616
-0.0019668043
2.9640534E-4
0.0021349117
0.0011373293
-2.7431262E-4
1.1036026E-4
4.16589E-4
5.170294E-4
0.0015501182
3.358904E-4
-3.9390943E-4
0.0014953439
8.0874935E-4
1.2183798E-5
3.6100976E-4
9.0217806E-4
0.001372023
-0.0024358002
-0.002022999
0.0041231937
0.0033617378
-3.1544485E-5
-0.0011337935
-0.0017364487
-9.556576E-4
-0.0011106007
-7.1723585E-4
-8.492642E-4
-0.0022839312
-9.658811E-4
-2.6459905E-4
-5.730666E-4
-1.6212427E-4
-6.095157E-4
-1.0880115E-4
4.7334074E-4
5.2167114E-4
4.3362434E-4
-7.658582E-6
6.7132496E-4
7.5660524E-4
8.9271273E-4
0.0016876733
0.0013775487
0.0014937274
8.574824E-5
-0.0015010182
2.4873036E-4
0.0013986268
0.0012041463
6.932378E-4
3.0928614E-4
8.7233697E-4
9.001278E-5
-0.0013460343
-0.0027834086
-0.0025865783
1.6518834E-4
-6.0272653E-4
-0.0017469795
9.736016E-4
0.0011986193
1.1252315E-4
5.5858097E-4
-6.394682E-5
-0.001358646
-0.0017244588
-3.5322094E-4
6.311423E-4
4.8743907E-4
7.2360877E-4
3.1530194E-4
3.157071E-4
3.5940256E-4
-9.352212E-4
-0.0015808133
-0.0012494667
2.7990714E-4
0.0010109077
2.0725225E-5
8.624166E-4
0.001195031
6.46077E-4
0.0017005041
0.0011498338
-2.860805E-5
-4.653467E-4
-3.531939E-4
5.777403E-4
-0.0012693291
-0.0020639785
6.808609E-4
8.588121E-4
3.7736553E-4
8.1894884E-4
2.6584222E-4
3.497676E-4
-4.7776947E-4
-0.0020883041
-0.0025660205
-0.0023342944
-6.4564426E-4
9.0274547E-4
7.9074E-4
1.8054989E-4
8.471871E-5
0.0011449021
0.0017987016
0.0015786109
0.0011287013
8.3506275E-5
1.1519797E-4
9.13039E-4
0.001253648
0.002215837
0.0017992307
-0.0013605095
-0.003376537
-0.002227667
-5.1731407E-4
1.983775E-4
-6.0187397E-4
-0.0015795722
5.755373E-4
0.0015654629
-7.727001E-4
-4.6060345E-4
-4.7078158E-4
-0.0024786158
-0.0016708086
-7.8540447E-4
-3.117162E-4
9.455288E-4
6.15432E-4
1.8033118E-4
1.3015185E-4
-7.784291E-5
-1.356133E-4
-0.0010901954
-0.0013743222
1.4869726E-4
0.0010892199
1.9911428E-4
-1.8741291E-4
9.949028E-4
0.002024528
0.0024424891
0.0010265388
-6.955201E-4
6.69473E-4
0.0018294486
9.0233795E-4
1.2389723E-4
4.574471E-4
0.0018906901
0.0015714618
3.8125427E-4
0.0011494518
5.9489335E-4
-2.08447E-4
0.0012539173
3.5672015E-4
-0.0010108922
1.3439263E-4
-0.0014956135
-0.0022566095
-0.0011741107
-0.0048354664
-0.0031774174
4.5083638E-4
-0.008149149
-0.010384611
-3.4306152E-4
0.0028164093
0.0021270425
0.0035795048
0.003202512
0.001394172
-1.854018E-5
6.529689E-4
9.427632E-4
2.256814E-4
0.0011091054
0.0013526885
7.3709525E-4
0.0013819902
0.002677691
0.0026681274
0.001624231
0.001186853
-3.8151447E-5
-0.0012251779
-0.0011479752
-0.0010050324
-4.5883984E-4
-2.5530937E-4
1.0589771E-4
-3.0676508E-4
-0.0019322769
-6.297956E-4
7.6447753E-4
-8.7155195E-6
-4.891772E-4
-0.0015603895
-0.0013569593
-4.1753709E-4
7.455396E-5
0.0020102118
0.0020476864
5.95706E-4
1.5511265E-4
-3.1848243E-4
4.89736E-4