2.563326E-4
6.508691E-4
0.0018317216
0.0019813455
0.0019063826
0.0011376236
-6.1128533E-4
-2.295903E-4
4.8552954E-4
2.0190666E-4
-2.684662E-4
-0.0010268249
-6.0608974E-5
-3.2614672E-4
-0.001510658
5.487568E-4
0.0014334715
0.0010567924
8.493466E-4
-0.0010510186
-8.8789634E-4
-3.6174306E-4
-0.0013740406
-8.4063475E-4
-8.789827E-4
-8.5434003E-4
2.5430744E-4
-2.4016474E-5
-7.693103E-4
-6.3282123E-4
0.0012667767
0.0020506668
-5.719743E-4
-0.0011768608
5.132037E-4
2.891766E-4
-4.318264E-4
3.2231797E-4
0.0012739259
4.0125955E-4
-0.0010520931
-0.0010290428
9.690479E-5
0.0011964425
3.973464E-4
-0.0011100268
-0.0013356276
-0.0015472673
-0.0010692682
1.3582651E-4
6.077663E-4
5.9046067E-4
-4.7480123E-4
-6.6760904E-4
0.00182974
0.003189202
0.0018262989
7.447004E-4
6.709135E-4
8.986608E-4
0.002065528
0.002467779
6.207666E-4
-8.1757054E-4
-5.85848E-4
5.01724E-4
7.0929015E-4
-0.0014444588
-0.003072833
-0.00205146
-2.6467448E-4
-2.664088E-4
-0.0013814499
-3.7751778E-4
6.29094E-4
-5.1418453E-4
-0.0020573363
-0.0026986832
-7.02448E-4
-7.224657E-5
-0.0013090089
7.965671E-4
0.0013290471
5.594368E-4
0.0024187653
0.0016314604
4.8553967E-4
6.415718E-4
-6.876861E-4
3.4797593E-4
0.002313157
0.0015493113
-0.0017895926
-0.0049826237
-0.0032033685
-9.063931E-4
-6.8627857E-4
8.551056E-4
-3.8943166E-4
-0.0018795886
7.847323E-4
0.0017339422
0.0010405631
0.0017125887
0.0018928701
4.4940558E-4
-1.4961128E-4
0.0021746135
0.0021098386
4.640226E-4
0.0021588632
0.0019618142
0.0010761498
0.0018459101
0.0011018706
0.0015972314
0.0010390254
-3.760853E-4
0.0011109302
9.574073E-4
-6.622952E-4
-0.0026366252
-0.00357667
-0.0028082808
-0.0043833577
-0.0033091905
-0.0019961786
-0.0030899323
1.160586E-4
-6.6334446E-4
-0.0018799921
0.002126054
8.5932406E-4
0.0011302049
-0.0011416001
-0.00902493
-0.0034861777
0.002663764
-5.5065536E-4
0.0019321716
0.003412264
1.01937214E-4
7.3043193E-4
0.00306173
0.003084699
0.0018463096
0.0025567051
0.0027651766
5.907982E-4
6.042991E-4
0.0017262012
0.0013559507
4.0349358E-4
7.444934E-4
0.0030138039
0.0025379015
-3.490046E-4
-9.16583E-4
-9.4721187E-4
-0.0014976191
-0.0012942773
-0.0012755564
-0.0020067785
-0.002347664
-0.0014745651
-0.001096084
-1.4855163E-4
0.0019946813
4.2642016E-4
-0.0015749659
-1.2095472E-4
-0.0012282237
-0.0022803198
-2.3098652E-4
-7.5059425E-4
-0.0011477302
3.7069677E-4
1.09587745E-4
-1.9678297E-4
-7.1940845E-4
-0.0014184938
5.5454765E-4
0.0020192424
1.9617159E-4
-9.835567E-4
-3.1847527E-4
-7.490557E-4
-0.0011186902
-0.001111587
-0.0015561166
2.728835E-4
0.001781627
0.0014203409
0.0021729453
0.0019992674
0.0014663298
0.001552243
9.5253385E-4
0.0012536601
0.0013698734
0.0015708766
0.0012744523
-0.0015095045
-0.0020798484
-1.12252856E-4
5.7493814E-4
7.353306E-4
3.8409512E-4
-8.3094835E-4
-5.922575E-4
0.0014024132
9.6731825E-4
-8.989494E-4
-8.4842544E-4
-0.0015601775
-0.0014412426
7.430933E-4
9.631006E-4
-6.069372E-4
-0.0014053363
-3.675107E-4
-0.0014710706
-0.0034549814
9.003759E-5
0.0020984157
2.6547554E-4
8.007491E-4
2.626371E-4
-0.0011531666
-0.0014354646
-0.0023063684
-0.0020844168
-0.0012686636
-7.3989684E-4
-1.9600797E-4
1.83731E-4
3.045737E-4
-3.011492E-4
-2.7479837E-4
-8.5026835E-4
-0.0013921594
0.0012874127
0.003589141
0.004352357
0.0043487716
0.002075793
9.160196E-4
0.0015046606
0.0019461585
0.0020045654
-1.9296214E-4
-0.0017929611
-8.5405353E-4
-0.0010842737
-0.0017429596
-0.0016052489
-0.0014523226
-3.898706E-4
-5.713315E-4
-0.0018947603
-6.7398377E-4
3.9713824E-4
-0.0010179108
-0.0023757906
-0.002446549
-8.920312E-4
-2.8051392E-4
-6.998853E-4
0.0017573161
0.003044874
0.0016453802
0.0024330881
0.0020761613
-2.4756938E-4
-1.1412646E-4
6.363898E-4
0.0017300918
0.0033206672
0.0016064254
-0.0011441346
-9.589212E-4
-6.375999E-4
-0.0013401988
-6.543635E-5
3.6115546E-4
-0.0031487956
-0.005095929
-0.0035598923
-0.0017388997
-6.331231E-4
-0.0016832683
-0.0017860633
3.7266585E-4
6.3575094E-4
0.0011882314
0.0016914597
8.9925434E-4
0.0021891876
0.0020585118
7.128059E-4
0.0018301315
0.0024288674
0.001828085
6.015315E-4
1.7698849E-5
7.604405E-5
-3.04471E-4
0.0013693101
0.0014371225
-3.0442554E-4
6.447291E-4
-1.8180574E-4
-0.0016473578
-0.0010396218
-0.0014770281
-0.001414131
-9.7551936E-4
-5.960316E-4
2.6939288E-4
2.5046832E-4
2.4214528E-4
2.6076315E-5
7.221414E-5
-4.7722947E-6
-7.8156905E-4
6.9195806E-4
0.0018711796
0.001857607
0.002697095
2.446429E-4
-0.0033112336
-0.0027995557
-0.0011587725
-4.0746224E-4
-6.750426E-4
-0.0025514613
-0.0030866049
-0.0013349409
-2.1445836E-4
6.7529967E-4
0.0010113533
0.0011460618
0.002265978
-0.0023458125
-0.0075027253
-0.0014093112
0.0043484964
0.00275298
0.002661373
0.0031882878
0.0022744453
0.0017855644
0.0018811062
0.0024071354
0.0027832529
0.0036118173
0.0019039495
-0.0026258149
-0.004157749
-0.0031157695
-0.0018567054
-0.0014512432
-0.0019790023
-6.987597E-4
4.111821E-4
2.0156437E-4
2.0545999E-4
-0.0013241096
-0.0025985043
-0.0014546321
1.487082E-4
9.385062E-4
7.361474E-4
-1.0540795E-4
-7.676873E-4
2.6206425E-4
0.0012666027
-3.2629134E-5
4.6568172E-4
0.0024881696
0.0014661115
-3.9665407E-5
0.001058293
0.0025366733
8.965223E-4
-0.0015993586
-0.0013243201
-0.0010243633
-6.8114273E-4
-1.8817591E-4
-0.0020085594
-0.0021131656
6.7790286E-5
0.0010593549
0.0018425143
0.0014097687
-7.962758E-4
-0.001713707
-5.04217E-4
-1.1671599E-5
-0.0015867456
-0.0016698844
1.8610523E-4
9.1675523E-4
0.0010550165
9.750163E-4
9.894982E-5
4.4664473E-4
0.0018980261
0.0010329565
-4.9222494E-4
-6.9015124E-4
-0.00206494
-0.0015089717
5.136435E-4
-7.915035E-4
-3.1328478E-4
0.0015117597
8.856156E-5
-5.815531E-4
-4.3181732E-4
-3.0703872E-4
7.5713976E-4
8.3603506E-4
6.994219E-4
5.369156E-4
1.1492446E-4
4.2175765E-5
-7.84758E-4
-6.742213E-4
9.424321E-4
0.0013597131
8.329726E-4
2.8504385E-4
-0.001114774
-0.0014006542
8.683521E-4
9.439924E-4
-9.948014E-4
6.642501E-5
0.0010324923
8.510333E-4
0.0014569401
2.0834517E-4
-2.1518457E-4
5.948774E-4
-0.001237812
-0.0014274616
4.1400702E-4
-6.219205E-4
-0.00233388
-0.0018114565
-2.399395E-4
8.349641E-4
0.0013152173
6.596906E-4
-0.0012619186
-0.0016031472
-3.597211E-4
7.231614E-4
0.001534224
0.0010401781
5.4092665E-4
2.2711036E-4
-7.547783E-4
-6.311588E-4
-8.968962E-4
-0.001287361
-9.393527E-4
-0.00172447
-7.6557783E-4
9.3353476E-4
0.0015213205
0.0037777268
0.003608397
1.6432184E-4
-0.0013403036
-0.0016327987
-0.0026283734
-0.0028682244
-7.929476E-4
2.6967047E-5
-0.001570974
-3.7602446E-4
0.0022357886
0.0022931856
6.309676E-4
2.0520749E-4
0.0014469704
8.9945423E-4
7.537076E-4
0.0018347517
9.1614504E-4
2.8584423E-4
-1.20867386E-4
7.425322E-5
2.563783E-4
-0.0020068826
-0.0015048588
-9.883034E-5
-0.0010816437
-2.1060597E-4
9.71545E-4
0.0017075501
0.0013620576
-6.212861E-5
1.3098889E-4
-0.0010583006
-0.0027077708
-0.002933153
-0.0012856405
0.0025738697
0.0017791982
-2.4249576E-4
0.0015261517
6.9347955E-4
-6.691851E-4
-0.0011749011
-0.0027761748
-0.0020451322
-0.0018764371
-0.0038791331
-0.0026379458
5.464186E-4
3.7466627E-4
4.684386E-4
0.0028646193
0.002233614
0.0014189278
0.0014128194
-5.9367238E-5
0.0012147034
0.0017262468
4.2946226E-4
8.547981E-4
2.905872E-4
0.0013644731
0.0030937998
0.0025102177
0.002302887
-1.3764662E-4
-0.0025659371
-0.0010160301
0.0012937322
0.0027717534
0.0028385557
0.00111474
-0.0040235175
-0.007815901
-0.0041838153
-0.0014704807
-0.0016500308
-4.8136024E-4
-3.0674224E-4
4.0191773E-4
-4.665818E-4
-0.002066372
6.363998E-4
0.0022823925
0.0017556447
0.0012665839
6.653634E-4
0.0013367588
5.6453265E-4
-6.2247204E-7
7.3023076E-4
-4.4581533E-4
-9.89245E-4
-9.2599745E-4
-6.086125E-4
4.583131E-5
-0.0013645672
-0.001962496
-0.0014948086
-7.5094856E-4
0.0013982735
0.0022354524
0.0022993754
0.0012274001
-0.00134164
-0.0016805388
-3.332375E-4
0.001585206
0.002279638
0.0023932082
0.004919562
0.004612146
0.0017747588
9.3894516E-4
-7.598E-4
-0.0017013368
-3.2673657E-4
-6.7482126E-4
-0.0027898145
-0.0019320383
-2.8931806E-4
-0.0031817094
-0.00286334
-0.002078293
-0.008256333
-0.006266339
4.312556E-5
-0.0015291342
3.9922514E-5
0.002155997
0.0010728339
0.0022380452
0.0019153346
0.0025070338
0.003022989
0.0010230776
0.0023465184
0.0030647197
0.0013963666
0.0019007561
0.0031044637
0.0031509355
0.002999544
0.0039093983
0.0027556268
-9.812604E-4
-0.0038018513
-0.005493818
-0.003911387
-0.0019510245
-0.0036625357
-0.004449349
-0.0042377054
-0.0037241715
-0.0010992283
7.350758E-4
0.0014663704
0.0024124756
0.0018171973
1.9016046E-4
5.840887E-4
0.0014662219
0.0012427939
0.0022677863
0.0015555088
-4.6295635E-4
6.194894E-4
0.0010457308
7.2802044E-4
0.0011328312
3.5982928E-4
4.857441E-4
0.0011673289
0.0016169922
3.2194352E-4
-0.0026448127
-0.0010552101
4.4409418E-4
-0.0034595637
-0.0062291715
-0.0057264464
-0.0024958903
4.0207285E-4
-0.0011119916
-0.0013718964
0.0022540195
0.004591466
0.0037176237
0.0016190154
0.0016245749
0.0029456841
0.0016656389
-9.842538E-4
-0.0019511963
-0.0018063642
-0.0010427446
4.7959044E-4
6.977147E-4
-3.1131002E-4
5.815077E-4
0.0019506821
0.0015527076
0.0023818226
0.0029229755
3.663483E-4
-1.9518343E-4
6.729142E-4
-0.0016750293
-0.004019879
-0.0037352992
-0.0014173832
1.7860822E-5
-6.991094E-4
2.4775893E-4
7.2622456E-4
9.987361E-5
0.0015119424
8.1020786E-4
-5.1085337E-4
9.515649E-4
0.0011662873
4.8798817E-4
-3.938812E-4
-0.0023423447
-0.0028032318
-0.0012024506
3.9002998E-4
6.343325E-4
9.354344E-4
0.0011310568
6.450179E-5
3.0620508E-6
-6.925758E-5
-8.0713147E-4
1.8779957E-4
7.065436E-4
-5.580968E-4
-0.0020855318
-0.002555977
-0.0014535099
-8.4846304E-4
-7.351431E-5
0.0012791352
0.0017533768
0.002758513
0.0024491074
0.0010477075
0.0016862558
0.001436353
8.849162E-4
0.0012970653
-2.7040991E-5
-1.1707631E-4
0.0013126549
7.149834E-4
-4.253039E-4
-0.0012299281
-0.0012075994
7.4734545E-4
0.0020603216
6.1107863E-4
-0.0016955351
-0.0027778696
-0.0028739017
-0.0027522028
-0.0042232475
-0.005568822
-0.0021996163
0.0013633036
0.0018537681
0.0020077478
4.0627577E-4
0.001569219
0.0038906424
-0.0016996022
-0.0035151313
0.0027365314
0.0026546
1.7341007E-4
0.0019198677
0.0032575573
0.0034201457
0.0015921885
1.31679735E-5
-2.596847E-4
-0.003183247
-0.0038253996
-5.2429416E-4
4.0746183E-4
-2.202896E-4
-9.3525177E-4
-0.0016076264
-0.0017461174
-0.0026104543
-0.0015428126
0.0023041223
0.0048666373
0.0037821599
0.0014966946
0.0018440218
0.0016542622
-6.501631E-4
-0.001964215
-0.0034736132
-0.0029660903
-3.1501913E-4
1.0660576E-4
4.9908797E-4
0.0010459946
0.0013487372
0.0023266997
0.0018674694
0.0014355992
-5.3573196E-4
-0.003949384
-0.0039219945
-0.003900449
-0.0041562715
-0.0022362247
-5.106305E-4
0.002459085
0.004007164
0.0019651607
0.0013802482
0.0014589288
4.113301E-4
8.282997E-4
0.0019954373
8.084111E-4
-9.296642E-4
1.4294214E-4
7.6882564E-4
3.6421264E-4
0.0016214459
0.0010393268
-6.36589E-4
1.64401E-4
1.6835677E-4
-0.0013768133
-0.0016839578
-0.001646538
-0.0022832388
-0.0026691982
-0.0022030554
-2.6041036E-4
0.0018367672
0.0013772096
1.03867234E-4
5.614363E-4
9.2376885E-4
-3.4930858E-5
-9.934708E-4
-7.1125495E-4
5.2373896E-5
-7.1478664E-4
-0.0011880732
0.001899415
0.0043921145
0.002240914
0.0010642639
0.0019060852
7.464134E-5
-0.0012402075
-0.0017728988
-0.004531965
-0.0045542265
-0.001174942
9.0238854E-4
0.0022052582
0.004714445
0.0064489665
0.003465381
-0.0018686305
-0.004356914
-0.003909902
-0.0012268825
0.0013288984
0.0022308596
0.0020972134
-3.9494887E-4
-0.0020369014
-0.0019830067
-0.0034198763
-0.0025724848
4.2901003E-5
0.0011664747
0.0023205066
7.545322E-4
-0.0025444473
-0.0028784422
-0.0018563911
-0.001080699
-5.124847E-4
8.598024E-4
0.0016765051
-9.804603E-4
-0.001498591
0.0026456164
0.005023168
0.0043108463
0.0022906472
-0.0015464245
-0.006371462
-0.0075448207
-0.0034798372
-7.272274E-4
-8.750688E-4
-5.02416E-4
-7.9729373E-4
-0.0021214783
-0.0039612735
-0.00514645
-0.0036891603
-0.0014515939
2.0508328E-4
0.0011013178
0.0013750825
0.003583654
0.006246565
0.0049844775
0.002218269
0.0016645564
7.9636014E-4
-2.7479976E-4
0.0016177773
0.0050975825
0.007980479
0.0074856174
0.0038018837
0.002088034
0.0014965988
-2.4995176E-4
-0.0023181087
-0.0051340815
-0.0068328064
-0.0062684407
-0.005589164
-0.0065842695
-0.007637384
-0.0049631996
7.13751E-4
0.0045018215
0.004457825
0.0048314505
0.006436624
0.006665879
0.0073603145
0.0048882277
0.0010091373
0.0025276188
0.001036408
-0.0037251401
-0.00678073
-0.012701667
-0.016217446
-0.015041609
-0.012037333
-0.0062166797
-2.355741E-4
0.008428285
0.019282574
0.026783349
0.031046871
0.028128328
0.011936814
-0.012818523
-0.028826306
-0.028925942
-0.018465066
-0.0052640056
-0.0053508673
-0.007283988
0.0051429598
0.013283039
0.01528629
0.013653905
0.0069930675
0.005928941
-0.004845873
-0.024913304
-0.033594333
-0.030108368
-0.015873369
-0.009933241
-0.013765785
-0.00957197
-0.007835288
6.004196E-5
0.017392814
0.030147752
0.046525918
0.056506615
0.060401946
0.061754625
0.044146344
0.03689365
0.056147125
0.072642416
0.06496575
0.016354239
-0.054212477
-0.106485784
-0.11659676
-0.07836191
-0.03487908
-0.033581916
-0.06457037
-0.09371348
-0.109140374
-0.10603346
-0.06236033
-0.005609813
0.007864454
0.0012472724
0.0162536
0.043661356
0.0584283
0.043386657
0.008831162
-0.024610568
-0.04001122
-0.0048099756
0.09457876
0.19853216
0.21710561
0.16181026
0.13125499
0.15083632
0.1607062
0.10158235
-0.024634967
-0.14779553
-0.21918152
-0.21791992
-0.1493088
-0.08399127
-0.03836705
0.006702505
0.0130807385
-0.010109374
-0.0461145
-0.09938244
-0.13069686
-0.12625876
-0.07274745
0.01584886
0.07252007
0.0826687
0.042417802
0.0022178874
0.012752613
-0.0034033756
-0.030608958
-0.0032971117
0.030753149
0.05400922
0.076160625
0.09054021
0.06729935
0.0023377608
-0.028047524
-0.020134576
-0.007299096
0.011144112
0.011706567
0.011095904
0.034714352
0.0954403
0.15414247
0.11037316
-0.007178305
-0.101724766
-0.1144519
-0.045080632
-0.010623579
-0.034550354
-0.011741256
0.06358855
0.09424954
0.03727963
-0.030098887
-0.08113925
-0.13145423
-0.13016796
-0.105535895
-0.09748621
-0.07254844
-0.03294328
-0.001659188
-7.480155E-4
-0.011345536
-0.005924905
0.0014833218
0.02830064
0.069732055
0.09920193
0.112726115
0.093983315
0.06301144
0.03432532
0.01755654
0.05146433
0.080040045
0.030573847
-0.042940207
-0.064741895
-0.04280501
-0.021319736
-0.0074835457
0.003043581
0.006140721
0.0014698724
-0.015690574
-0.03066342
-0.032125283
-0.031162195
-0.027396217
-0.025130386
-0.02785106
-0.021096183
-0.005443923
0.0040144725
0.006359362
0.009318783
0.012198175
0.014672987
0.017804401
0.017414551
0.016157571
0.0153457755
0.00985929
0.003843091
0.0018601465
-0.0010245828
-0.0060326695
-0.008503118
-0.008898201
-0.007013871
-0.00424255
-0.005500489
-0.0043132068
-2.3783016E-4
0.002571475
0.009382097
0.011264827
0.006406829
0.006710603
0.005382062
0.0013049952
0.0032688663
0.0064349067
0.004984686
0.0010264665
-0.0030122797
-0.0075579034
-0.009127395
-0.0070088273
-0.006105509
-0.005539457
-0.006731997
-0.0082440525
-0.0043299748
-5.45583E-4
2.963831E-4
0.0020161327
0.0045261174
0.004650448
0.0011720827
3.335647E-4
0.0019613572
0.001809959
0.0017964675
8.2461996E-4
0.0011882094
0.0013496411
-0.002140723
-0.0013243017
-3.656845E-4
-0.003108259
-0.0018035772
3.383047E-4
0.0041055693
0.006351386
0.001235845
0.004123282
0.011692638
0.008010566
0.0019811713
-0.002300123
-0.00583068
-0.005397997
-0.005438035
-0.0020078379
0.00633347
0.009456096
0.008160004
0.0054402957
-2.1506123E-4
-0.0067538
-0.010924201
-0.009356104
-0.005704866
-0.0032869584
1.7621176E-4
7.1421993E-4
-6.037011E-4
-6.0128456E-4
-0.0034523467
-0.004527886
-0.0017350339
-0.0010574245
-0.0013081966
-0.0026875504
-0.0047063823
-0.004196391
-0.0052984776
-0.0075666485
-0.0044671674
0.0020026448
0.005835593
0.009125632
0.015756533
0.018189926
0.0107085
0.0034650625
0.0028367015
0.0023340126
-6.865157E-4
-0.0029984962
-0.003572619
-0.0033241408
-0.003045285
-0.0022734005
-0.0022396394
-0.0037474688
-0.0015231834
0.003606937
0.0040465733
0.0015223974
1.6052826E-4
-3.3858765E-4
-0.0012334768
-0.0039949226
-0.0051298332
-0.004407529
-0.006752145
-0.008391642
-0.0063885762
-0.0048241415
-0.0033597837
-0.0014483862
-6.326165E-4
0.001553072
0.0037774714
0.001716143
4.4315084E-4
0.0034873735
0.007820454
0.012824769
0.0106721595
-2.3689124E-4
-0.004980315
-0.0028467157
-0.0010277148
0.001941337
0.0029056144
0.0020765166
0.002962154
0.0032970805
0.0034113901
0.0039596157
0.00582677
0.008002163
0.0040613594
-0.0037716182
-0.008642181
-0.0093410155
-0.00726813
-0.007463885
-0.008960258
-0.0052018524
-0.0013624497
-0.003697922
-0.006309203
-0.006687549
-0.008041499
-0.0090672765
-0.008675845
-0.0048488025
0.0021981613
0.005962887
0.0076159863
0.007941504
0.004941537
0.0060596843
0.009200905
0.008498343
0.008801592
0.008290621
0.0049808086
0.0016363845
-0.0010944908
-0.0013594187
-9.907038E-4
1.9976466E-4
0.002349319
0.0018077203
0.0048745847
0.012164085
0.014073204
0.009712506
-0.0010239757
-0.01413264
-0.020032546
-0.02046603
-0.017786313
-0.010674588
-0.0044136024
-0.0017000078
-0.0010169725
-0.001071579
2.4708902E-4
0.0012211811
1.82901E-4
-0.0010367677
-0.0015946312
-3.5262783E-4
0.0013768936
0.0012199895
0.0014640293
0.001994648
0.0015651291
0.0027907202
0.004354819
0.0034998695
0.0026536596
0.0035946672
0.0038498943
0.0017150204
7.5720367E-4
0.0035324434
0.0047793165
0.002576209
0.0024292357
0.0031555025
0.0014977285
-4.7033143E-4
-0.002797521
-0.0015774035
0.0036825617
0.0018500842
-0.0042271265
-0.0049816687
-0.004414921
-0.003121684
-5.461796E-4
-6.569064E-4
-8.83183E-4
-3.1177924E-4
-0.001873697
-0.0042850473
-0.0052321344
-0.004067889
-0.0018902603
-4.8353832E-4
-5.1977026E-4
-0.0013029499
-0.0017652172
-0.0022418452
-0.0023487152
-4.4295113E-4
0.0022436657
0.0034517746
0.0037998762
0.0032464932
0.0017164293
0.0018957277
0.0035502561
0.0043651853
0.0023286964
-0.0021322619
-0.002129738
0.001044118
7.233976E-4
9.4293116E-4
0.0019917574
0.00128898
3.0319276E-4
-0.0019340401
-0.0018416252
-3.3185486E-4
-0.0014398712
-9.79315E-4
-8.902918E-4
-0.0020461408
-8.237134E-4
-7.486517E-4
-0.0016403082
-0.0011728096
1.2674411E-4
0.0014551932
8.138046E-4
2.620906E-4
-2.9337592E-4
-0.0015441587
1.7028756E-4
0.0011408939
-7.523982E-4
-7.6707924E-4
4.900457E-4
0.0012508656
9.4885414E-4
9.525172E-5
0.0011197298
0.002136458
0.0015267057
6.29103E-4
-7.3631847E-4
-6.844087E-4
6.901882E-4
-1.04283965E-4
-2.0982663E-4
0.001405655
1.6896406E-4
-0.0013672393
-8.4487716E-4
-0.001261082
-0.0018679248
-0.0017611898
-0.0016191677
-9.0268673E-4
2.156868E-4
7.349606E-4
1.9077094E-4
1.9300813E-4
2.8318848E-4
-8.664201E-4
-7.183322E-4
-3.3293527E-5
-5.2078924E-4
-2.0514354E-4
-1.900434E-4
-5.347193E-4
9.5526077E-4
0.0014354057
-3.1755373E-4
4.8422247E-5
0.0012976967
1.7419679E-4
2.5430217E-4
5.4519565E-4
-0.0012282833
-8.8648294E-4
4.1852007E-4
6.207338E-4
0.0011520806
0.001704613
0.0024626039
0.001858678
6.274777E-4
5.0853513E-4
-0.0010229144
-0.0019926392
-5.7629525E-4
2.8657136E-4
2.7935198E-4
3.827692E-4
-1.6621489E-5
-0.0015740755
-0.001525394
0.0010596504
0.0014015266
-0.0019508455
-0.0043101287
-0.0012522291
0.0020278916
-6.781155E-4
-0.0028302271
-0.0011357085
-3.9413184E-4
-8.3885563E-4
-5.148658E-4
3.1766057E-4
4.02575E-4
0.001128695
0.0015778592
4.0716658E-4
8.702836E-4
1.7391698E-4
-6.797124E-4
0.002410745
0.0038266522
0.0030742195
5.5655924E-4
-0.0016678501
3.0373057E-4
-0.002317295
-0.0049998085
0.0014311399
0.004893591
0.0019978648
-8.31921E-4
-0.0021924172
-8.98384E-4
2.636975E-4
-9.253001E-4
-0.0018144762
3.948539E-4
0.0023523793
0.0012097899
0.0013103486
4.5863725E-4
-0.0027755343
-0.0025136576
-5.3542585E-4
-4.105756E-4
-0.0014377091
-0.0017378723
-6.245142E-4
-7.129569E-5
9.827275E-4
0.0019421722
2.8412027E-4
-0.001217311
-0.0010680441
-0.0015630327
-0.0016715983
9.4595336E-4
0.0017443663
-4.4897123E-4
6.08545E-4
0.0019477188
6.361495E-4
8.1364927E-4
8.297933E-4
1.4884163E-4
0.0012975843
0.0025434527
0.002224578
0.0011560853
7.5088895E-4
5.564993E-4
-0.0011596447
-0.002138219
2.7834874E-5
-4.4361033E-4
-0.0021201004
6.7697064E-4
-0.004636382
-0.0127687985
-0.004000996
0.005550461
0.004910188
0.003878851
0.0013718742
0.0010348989
0.0017273121
-0.0014434068
-0.0019878629
-0.0014495499
-5.4961495E-4
0.0022688615
0.0021073155
0.0010726542
7.5197633E-4
6.0202065E-4
0.0018444582
0.001260383
2.7564909E-5
9.6254266E-4
0.0010008592
1.9864878E-5
-4.6377393E-4
-0.0018912314
-0.003055193
-0.0031865323
-0.0037062468
-0.0017385771
0.0013078921
0.0016113081
0.0026648722
0.0022563834
-6.4817554E-4
-4.1040395E-5
6.508654E-4
-2.7237575E-5
2.2985983E-4
-0.0011533021
-5.167778E-4
0.001606821
-3.237102E-4
-0.0016838554
-7.959118E-6
0.0014200658
0.0016407139
3.206297E-4
-5.904225E-4
-2.0855121E-4
-2.130184E-4
-5.5905E-4
-0.0019560833
-0.0026307858
6.238143E-4
0.003045711
0.0010408579
-0.0011682399
-0.0014724241
-3.2111036E-4
1.4108737E-4
-0.0010597664
5.2307645E-4
0.0027819904
0.0014851781
0.0010463899
0.0012766775
8.8282325E-4
0.0024214848
0.0019393179
3.5073288E-4
7.52551E-4
-0.0015811898
-0.0032365983
-6.041602E-4
4.8927043E-4
1.0130511E-4
7.135583E-4
4.7018786E-4
-0.0011314
-0.0020407713
-0.0017305333
-0.0015400867
-4.256102E-4
-3.3790068E-4
-0.0015374124
7.864508E-4
8.599205E-4
-0.0025951574
-0.0010614373
4.2392383E-4
-5.039635E-4
0.0010702637
0.0012811676
-2.0180863E-5
-3.9337054E-4
-8.3242735E-4
3.1319567E-5
0.0012831376
0.0013727148
5.8531656E-4
8.596934E-5
0.0017370373
0.0025013331
6.262168E-4
-4.2925705E-4
-8.74261E-4
-0.0013082448
-3.3455985E-4
2.3924309E-4
-4.2814834E-4
-8.6645094E-5
8.4263564E-4
-2.3236767E-4
-0.0011457739
6.663899E-4
9.400997E-4
-4.2819657E-4
6.582365E-4
3.4019355E-5
-0.0022068075
-1.6541882E-4
0.0021302972
0.0016490351
9.2633505E-4
-7.1520865E-4
-0.0014686476
-3.7031423E-4
-2.3988714E-4
-1.9695653E-4
5.0425157E-4
4.8731978E-4
-5.069195E-4
-0.0015309709
-0.0013664629
-9.6973655E-4
-4.2080777E-4
3.747126E-4
-3.0590303E-4
-0.001111206
-0.0016809991
-0.0018794608
7.855855E-5
7.4410613E-4
1.6756883E-4
8.7001757E-4
1.7988542E-4
1.6601852E-4
0.0011017187
1.2776065E-4
7.777444E-4
0.002411327
0.0018637036
4.3765327E-4
-4.0360578E-4
-7.180742E-4
-0.002226629
-0.002583144
-7.4953545E-4
7.7388255E-4
0.0034119147
0.0031497043
-5.6735874E-4
-1.18088974E-4
7.4191316E-4
-7.636505E-4
-7.7213795E-4
-0.0023845881
-0.0044583734
-0.0017998182
0.0018557153
0.0020635196
0.0015221728
0.0014179165
4.969485E-4
7.2787073E-4
0.0011333008
3.0280926E-4
1.06655396E-4
-1.7849561E-4
-6.5852783E-4
-5.7801564E-4
6.407959E-4
0.0020976013
7.1551464E-4
-4.7965074E-4
-1.8483782E-4
-8.4273244E-4
1.2371613E-4
6.372219E-4
-0.0015345835
-0.002361031
-0.0013599513
-1.5271103E-4
2.3490854E-4
2.0460221E-4
6.215283E-4
1.2787909E-4
-6.6420337E-4
-4.2983028E-4
-4.0817398E-4
-0.0011492886
-7.741267E-4
3.2446306E-4
-7.8501273E-4
-0.0014624171
1.385902E-4
2.3866117E-4
-3.339369E-4
2.908587E-4
8.6197985E-4
9.308438E-4
9.2841365E-4
0.0020149813
0.002117684
4.3399507E-4
1.0092421E-4
-2.8886535E-4
-0.0010963107
1.9534708E-4
0.0019717542
0.0024068921
7.756054E-4
-0.0012566469
-8.4602396E-4
-2.5806976E-5
1.0500217E-4
-1.0847131E-4
-0.0013466348
-5.7760987E-4
0.0015877218
0.0013655293
9.836762E-4
0.001364004
7.731086E-4
-7.836969E-5
-8.600852E-4
-0.0014430262
-0.002076765
-0.0026530079
-0.0014715473
-4.2664347E-4
-0.0014806219
-5.5903115E-4
0.001750084
6.7140063E-4
0.001093164
0.0034611686
3.0386788E-4
-0.0031032334
-0.0018493137
0.0012239201
0.0033800097
-0.0027496836
-0.009866568
-0.0051821056
0.0015255549
0.002817439
0.0015834803
1.8453583E-4
0.0019835753
0.0025603704
0.0013093957
0.0032309517
0.0033062487
1.8408234E-4
-4.6464978E-4
4.734983E-4
1.7741439E-4
-1.6738963E-4
-6.866906E-4
-8.9220214E-4
0.0013415844
0.0017685674
7.389091E-4
0.0014896429
-0.0010265155
-0.0021402028
4.963615E-4
-3.9646265E-4
1.6454994E-4
6.395048E-4
-0.0033109381
-0.0035105809
-0.0018669552
-0.0012636922
6.4338144E-4
5.369972E-4
1.2201071E-4
9.148594E-4
6.0546957E-4
1.1454704E-4
-9.0602836E-5
8.9350034E-4
0.002197367
0.0015254503
3.689803E-4
-5.8137486E-4
-0.001982369
-0.0028533665
-0.0022669826
-7.691375E-4
-3.4087355E-4
-2.0203475E-5
0.002333838
0.0021411427
-0.001335588
-2.728136E-4
0.0020759415
-1.8717695E-4
-0.0012070504
-6.8372325E-4
-4.319727E-5
0.0019517449
1.8280522E-4
-0.0018342811
-4.0764542E-4
-0.00153559
-0.0019823464
7.202618E-4
0.0027254568
0.003923556
0.0029165219
0.0012450214
1.8609379E-4
-0.0010207206
2.9435716E-5
5.057691E-4
-5.4546166E-4
-9.507097E-4
-0.0015864461
-3.20611E-4
9.4978E-4
5.5317517E-4
7.8599155E-4
2.8645707E-4
0.0013106975
0.0030620794
0.0011283606
-0.0017571667
-0.0029600896
-0.002023328
-0.0015873497
-0.0024881416
-0.0015214777
-0.0014173615
-0.0015445924
-2.5349748E-6
-8.621881E-4
-0.0018201033
-9.0445865E-5
0.0015868256
0.0018811635
0.0018195948
0.0012413308
-9.887189E-4
-0.0012566607
2.2684521E-4
2.2359758E-4
0.0013526173
0.001327653
5.139748E-4
0.0025136217
0.002394674
8.969005E-4
3.78192E-5
-0.0015227454
-3.9294807E-4
2.5817513E-4
-0.0018513924
-0.0013849678
3.2332676E-4
-1.3687651E-4
-6.2592555E-4
9.861683E-4
0.0014172392
-0.0015401756
-0.0019857676
4.629493E-4
2.213311E-5
-5.0769234E-4
0.0014891201
0.0030993875
0.003171732
9.145211E-4
-4.390722E-4
9.4232947E-4
-6.766335E-4
-0.0026442881
-4.7796205E-4
5.151829E-4
2.882537E-4
3.973134E-4
-8.3196163E-4
-7.869954E-4
8.1921025E-5
-5.4527416E-5
-2.4052878E-4
-0.0010147468
-9.963897E-4
-2.3395638E-4
-7.9375406E-4
-9.973191E-4
-0.0011816069
-0.0022488516
-0.0019200438
-9.299742E-4
-3.5836965E-5
0.0012745224
9.780568E-4
4.531625E-4
0.0011749185
6.210267E-4
3.0544E-4
9.0704724E-4
-1.0153805E-4
-0.0014979135
-0.0022465528
-0.0018151642
-1.2237608E-4
0.0012251082
0.0029420154
0.0031044693
3.034248E-4
-7.368296E-4
3.2069703E-4
1.4874189E-4
-5.403836E-4
-1.4281332E-5
0.0012031642
0.0013853048
8.1258576E-4
7.1921555E-4
8.5059385E-4
8.550731E-4
0.0011469078
5.955099E-4
-0.002233681
-0.0028731406
-3.4588345E-4
-3.7046036E-4
-3.3289203E-4
9.332947E-4
1.4220466E-4
0.0014610722
0.0033295373
0.0020038285
2.676886E-4
-0.0012046809
-0.0010086774
-9.6118724E-4
-0.0017936756
-9.741817E-4
-0.0023671084
-0.0012701593
0.0031043442
0.002141545
0.0019175761
-9.090086E-4
-0.009373534
-0.0078545185
-0.0012823145
6.9904217E-4
7.862193E-4
-0.0020760372
-0.0015057456
0.0013581788
6.184781E-5
0.0012344599
0.002719256
2.8972488E-4
-5.4616755E-4
8.19325E-4
0.0023252796
0.0023810233
7.680706E-4
9.204928E-5