4.564424E-4
0.0020652113
0.0037132176
0.0014328222
-0.0019264712
-0.0016709577
-5.4332416E-4
8.180247E-6
7.0190063E-4
3.0746986E-4
-3.4696274E-4
0.0013668438
0.0034175732
0.002655259
-1.316658E-4
-0.0012224136
0.0018165025
0.0030420343
4.9338635E-4
-4.306739E-4
-0.0021955736
-0.0025063143
0.0013593532
0.0014681797
8.7503716E-4
-1.2481549E-4
-0.007140277
-0.007810079
-2.5070246E-4
0.0028089487
0.0019991796
6.888199E-4
4.0887735E-5
0.0010424185
0.0011718028
3.0286962E-4
-3.5339946E-4
1.2422267E-4
0.0011259044
7.3165086E-4
-4.6047755E-4
-0.0016630208
-0.0016175429
-4.1422187E-4
-3.838745E-5
-1.565647E-5
-1.0881342E-4
2.822262E-4
0.001394501
0.0010802485
-3.6664633E-6
-1.2409133E-4
-1.4873706E-4
-8.692007E-4
-8.4829447E-4
-1.8905974E-5
4.8264912E-5
4.905262E-4
2.321819E-4
-9.296112E-4
2.4745276E-4
0.001667841
0.002504827
0.0027419073
3.1031953E-4
-0.0010448891
-9.96932E-4
-9.804862E-4
4.7734176E-4
-6.714915E-5
-8.114842E-4
3.9845466E-4
-6.6819676E-4
-1.8344932E-4
0.0018037135
-8.7632687E-4
-0.002307821
-7.113683E-4
-0.002468011
-0.00287776
3.0701896E-4
0.001518974
0.001983745
0.0011787143
-9.206708E-4
7.9769955E-4
0.001974303
4.404143E-4
3.973366E-4
-0.001296738
-0.0022261064
7.3213385E-5
-7.1834534E-4
-9.7516243E-4
0.0013464525
3.0480785E-4
-2.0804023E-4
2.885628E-4
-0.001633316
-0.0010087353
9.6441654E-4
0.001793247
0.0027266534
2.1363184E-4
-0.0016744288
-2.2674463E-4
-7.9634204E-4
-6.0870074E-4
1.0487653E-5
-5.6309014E-4
0.0013087743
0.0026736825
0.0028619955
0.0020727501
5.2015594E-4
0.0012273908
-9.079418E-4
-0.0036830604
-0.0026196793
-0.0026685256
-0.0011219098
6.457447E-4
3.2628738E-4
0.0017153351
2.6310925E-4
-0.0010933199
5.8140204E-4
-0.0010245554
-0.0024283344
-0.0018784982
-3.6340192E-4
0.0027178414
0.0020167537
6.306873E-4
0.0018812731
-2.8556848E-5
-0.0020159215
-0.0010787718
-0.0011930827
1.1344571E-4
0.0024809535
0.0015626752
0.0012095767
0.0014791122
-6.774597E-4
-0.0017739255
-0.0016287322
-8.972546E-4
-4.6131318E-4
-0.001177994
0.0012322742
0.0025854856
4.2826793E-4
8.5903256E-4
7.294083E-4
-4.917378E-4
-8.5336686E-4
-0.0020644607
-5.3262175E-4
8.530148E-4
-4.317694E-4
-5.428118E-4
-6.70492E-4
9.0278126E-4
0.0030702087
0.0017921672
2.224959E-4
-0.0012293672
-0.0014933139
-1.017784E-4
-0.0017389476
-0.0026259099
-4.4657703E-4
-8.4602326E-4
-8.965115E-4
0.0013847037
-2.3869319E-4
-0.0026190188
-0.0014285174
-6.230005E-4
0.001142142
0.002561294
8.5861987E-4
0.0022479056
0.0034420288
8.222034E-4
8.5901876E-4
7.2813727E-4
1.7356346E-4
0.0019927402
9.050432E-4
-1.412624E-4
5.1794323E-4
-0.001558384
-0.0027744535
-0.0019812053
-0.0011164711
2.5189536E-5
5.729156E-4
3.038543E-4
-0.0022440678
-0.0034060082
9.523182E-6
4.906649E-4
-0.0019996392
-0.0019662455
-0.0017172099
-5.05281E-4
0.0020635673
0.001863872
0.0010400882
0.0023372257
0.002624442
0.0017526076
0.0026117559
0.0028017808
6.576292E-4
-7.016979E-5
5.666389E-4
-4.0825614E-4
-0.0018061891
-0.0010746421
-1.3835568E-4
-3.58554E-4
3.5346876E-4
-0.0023047493
-0.0056313938
-7.6228497E-4
0.0027109142
0.0030669644
0.004501501
-0.004543309
-0.0117177805
-0.0035473567
0.0016513818
6.799518E-4
0.0018616595
0.0019472636
0.0014475026
0.0016567432
0.0011676075
4.463018E-4
6.3307025E-4
0.0012264149
0.0014369953
0.0012374725
-8.390966E-4
-0.0016720224
3.675175E-4
5.772875E-4
2.389775E-4
4.2709752E-4
-0.0010331209
-0.0015862489
5.1623315E-4
0.002278951
6.18101E-4
-0.0014060896
-9.0805214E-4
2.9326847E-4
0.0016261201
0.001520687
8.265858E-4
0.0013746654
2.5401008E-4
-0.0011853251
-4.6989153E-4
-2.8319724E-4
-0.0016514241
-0.0015348556
-8.574906E-5
-5.073014E-4
1.8681776E-4
0.0015335163
-9.11018E-6
-7.2482513E-4
-3.7643232E-4
0.0010745563
0.0019712707
-5.2554034E-5
1.0552294E-4
-0.0040685236
-0.010694746
-0.0050331736
0.0017940653
0.0012890399
0.0014816767
0.0028408917
0.0042834645
0.0031443457
0.0019274137
0.0029683753
1.1437884E-4
-0.0016282154
6.3208846E-4
-8.9014415E-5
-0.0021717052
-0.0027955181
-0.0026152204
-0.0017071636
-1.0463032E-4
0.0022775156
0.003731125
0.0034900366
0.0022946475
8.109107E-4
-7.803543E-4
-0.0018135277
-9.0514123E-4
-6.496375E-4
-0.0020112623
-0.0016874084
-9.9777586E-5
9.776021E-4
0.0016979243
0.0026117738
0.00293919
0.0016686574
8.237826E-4
2.4387424E-4
-0.002013863
-0.0032790652
-0.0022610154
-0.002481937
-0.003468115
-8.7182707E-4
0.0020939575
4.579208E-4
-0.0012749387
7.7034294E-4
0.0022846828
5.182121E-4
-1.82522E-4
1.1099205E-4
-0.0023929887
-0.002191711
7.200497E-4
2.1869534E-4
0.0010168408
0.002820383
8.838463E-4
-0.0010893749
-0.001318233
3.8902217E-6
0.0013239478
0.001035495
0.0010124817
2.4991125E-5
-0.0017862228
-0.0018050864
-5.8556243E-4
4.3636205E-4
-2.3180062E-4
-5.3893885E-4
3.572888E-4
-4.1333277E-4
-6.550842E-4
-3.912527E-5
-3.3900162E-4
6.1663747E-4
0.0013955175
5.086741E-4
2.8479507E-4
0.0014542078
0.0026741622
0.0023063433
0.0019639928
0.0025782546
0.0010135355
-0.0020940027
-0.0031175434
-0.0023372355
-0.0021104775
-0.0021353886
-0.0010417113
2.4250119E-4
0.0013043797
0.0016203466
1.2842087E-4
-5.2654656E-4
6.4326037E-4
8.907452E-4
3.0950506E-4
-1.4337641E-4
-7.083546E-4
-0.0010485738
-8.032456E-4
-2.6550045E-4
-7.012031E-4
-6.023537E-4
0.0014349195
8.3149824E-4
-0.0013442341
-2.7967678E-4
4.0847334E-4
-1.376508E-4
1.6705053E-5
-6.320034E-4
-9.2448475E-4
-6.3863164E-4
-2.758089E-4
-1.8711992E-4
-0.0012665709
-0.0012244922
-6.9210294E-4
-0.0016848302
-0.0023492128
-1.315076E-4
0.0029060924
0.0011589362
-1.680154E-4
0.0026593714
0.0014878968
-0.001007629
1.1588439E-4
0.0010575635
9.055692E-4
7.1672053E-4
0.002413103
0.004003718
0.0029802565
0.001304447
8.374203E-5
9.380743E-4
3.700336E-4
-8.8462385E-4
0.0014829222
1.552969E-4
-0.0025870963
-0.0013513408
-0.0011184994
-5.755866E-4
7.0923974E-4
7.05155E-4
-9.311957E-4
-9.822524E-4
-0.001272454
-0.009254922
-0.006534075
0.0037861096
-0.007053984
-0.011933045
0.0020041286
0.0037536933
0.0011438022
0.0039342367
0.004168048
0.004641964
0.0030235797
7.252383E-4
0.0016575196
0.0027030627
0.002457296
7.2619296E-4
-2.0319027E-4
3.9537868E-4
0.0014527767
0.0018325878
-6.774544E-5
-0.0011856346
-0.0011743245
-0.0014741889
-0.0012527254
-0.0013886183
-5.37661E-4
-2.4348286E-4
-0.0016835065
-0.0010001449
1.08597385E-4
2.2502411E-4
5.196014E-4
-5.439568E-5
-6.872439E-4
-0.0013642662
-0.0015225298
5.0818495E-4
0.0031595102
0.0040104976
0.0020523376
-2.6078767E-4
-0.0018061901
-0.0033030168
-0.0017770883
-1.17688294E-4
-0.0012595222
-8.694697E-4
-0.0013688762
-0.0017430981
0.001882821
0.0018085169
-2.5825037E-4
-1.6418811E-4
-0.0029296502
-0.0018314667
0.0032090296
0.0028573908
0.002171207
0.0032397136
0.0030994974
0.0029864984
0.0017819174
5.22604E-4
-2.1084929E-4
-0.0011662549
-0.0016584853
-0.0019308073
-0.0014130671
-0.0015044553
-0.0014148675
-9.3188736E-4
-0.003274964
-0.0034659195
-8.25523E-4
-8.266624E-4
-7.3370425E-4
-9.292836E-4
-0.0026921146
-0.0022289355
-2.380553E-4
7.5243856E-4
5.015021E-4
7.491865E-4
0.0018771101
0.0030271672
0.0047453707
0.005001606
0.0045446977
0.0035626586
-0.001453381
-0.0036471942
-7.1981514E-4
-0.0019178333
-0.0036205424
3.0645475E-4
0.0038725086
0.004747947
0.0057904967
0.005166384
0.0014480453
-0.0017246994
-0.002806479
-0.0031699839
-0.0029932593
-0.003433995
-0.0046817167
-0.0048633656
-0.0037425566
-0.0016181995
0.0010162994
0.0018776772
-2.4667548E-4
-0.0020488352
-0.001178671
-6.7969554E-6
0.0010243884
5.6682073E-4
-0.003191229
-0.004622848
-0.0025909664
-0.0017706569
-4.0861417E-4
0.0014656627
0.0012949966
0.0024280744
0.005857624
0.008561548
0.010957955
0.010601242
0.0034575518
-0.0027438547
-0.0010543447
6.332497E-4
-0.0035010949
-0.007867252
-0.007014677
-0.00423043
-0.003104491
-2.7982588E-4
0.0020072185
0.0011368686
0.0026890733
0.004957981
0.003716606
1.678268E-4
-0.0038102793
-0.0051902267
-0.0067656212
-0.008613379
-0.004476392
4.558742E-4
0.0011486424
0.0020993014
0.004052187
0.005701636
0.0066139386
0.005469401
0.0015476188
-0.0036716487
-0.0060359403
-0.0046353964
-0.0022508688
1.5899561E-4
0.0016211176
0.0014180068
0.0015768085
0.0018919406
4.5759047E-4
-0.0011069071
-0.0019943158
-0.002358416
-2.891217E-4
0.0025941678
0.002484125
8.4001647E-4
0.002548879
0.005591623
0.004343953
9.712339E-4
-0.002899032
-0.0057973163
-0.0041206433
-0.0027412705
-0.0017761829
0.002428791
0.004384889
0.0035644274
0.0019861853
-3.2434583E-4
-4.8583708E-4
-8.314782E-4
-0.003699893
-0.0053822887
-0.0033904214
7.6961705E-6
0.0016698278
5.5662764E-4
-0.0023662276
-0.0018534319
4.3397292E-4
-2.8132406E-4
0.0019103497
8.886093E-4
-0.00721576
-0.004590161
0.004055444
0.0037744264
0.0026525096
0.0026629486
0.0016036689
0.0035763758
0.0038576073
0.001210005
2.5670452E-4
2.0583824E-4
6.895353E-4
-2.0240029E-4
-0.0032688174
-0.0039772247
-0.00238511
9.3001314E-4
0.0040191514
4.3330234E-4
-0.004048685
-0.0027485632
-6.68886E-4
9.301705E-4
2.1471194E-4
-0.0022328764
-2.357667E-4
0.00137585
8.2190393E-4
0.0031521115
0.0046729306
0.005284386
0.006043862
0.0029846427
-0.0015675061
-0.005321508
-0.0075840526
-0.005794172
-0.0010050873
0.004180491
0.004764559
-0.0011140514
-0.0066664414
-0.008497432
-0.0072887745
-0.0040175375
-0.0018801665
-0.0017357919
-0.0012357422
0.0021493554
0.0045149224
0.003174001
0.004790644
0.0064906604
0.00516016
0.0054934183
4.8511525E-4
-0.0055847913
-7.971869E-4
0.003927279
0.0037494511
0.0058864937
0.007826516
0.006077658
0.0015327747
-0.0018560495
-0.003029622
-0.0041955374
-0.005437735
-0.0076432615
-0.0077654943
-0.0061969347
-0.006366555
-0.0023957856
0.0024071583
0.0017007329
9.803905E-4
-7.231754E-4
-0.0034695815
-0.0025256993
3.892414E-4
0.0049051847
0.008004489
0.0064461264
0.0043860036
0.002042206
-0.0019996115
-0.0049001565
-0.005081595
-0.0041877492
-0.0031522885
1.6202785E-4
0.0020190757
-3.4392366E-4
5.407864E-4
0.0035842096
0.003343488
0.003347179
0.0034572955
0.0024060134
0.0013882907
-5.235417E-4
-0.0015285721
-3.0941353E-4
0.0015285003
0.0014382813
-1.3624734E-4
7.7961327E-4
0.0019695896
0.001521488
1.8904956E-4
-0.003797471
-0.005568317
-0.0051561766
-0.0076332
-0.0066232705
-0.0023345347
-0.0022481992
-0.0036371152
-0.002430093
2.3153935E-4
8.4442983E-4
-5.774536E-4
7.373176E-4
0.0043659173
0.004404574
7.908435E-4
-1.1898035E-4
0.0023416728
0.0055670394
0.00945197
0.010343771
0.00759558
0.0055656545
0.005772002
0.0057533793
0.0010853028
-0.0038140926
-0.004352182
-0.006004599
-0.008194893
-0.009066267
-0.007930186
-0.0025035301
-0.0011992928
-0.004726648
-0.004715148
-0.004054142
-0.0030519299
5.5886096E-5
0.0016808261
8.78878E-4
-6.30896E-4
-5.845508E-4
-2.1186007E-4
0.001493123
0.0043744845
0.0021012141
8.5998494E-5
0.0018318034
1.0602071E-4
-6.4215646E-4
0.0019061441
0.002327362
0.0031230124
0.004175483
0.003429649
0.004169218
0.0027667189
-0.003977857
-0.007087156
-0.0031685063
0.0017611001
0.0024054842
-0.0023283514
-0.0021897547
0.0033132446
0.0025059113
6.3103746E-4
3.678222E-4
-0.0019597965
-0.0011590595
-8.419823E-4
-0.0028863542
-0.0033935332
-0.0042227046
-0.0040034833
-0.0036118636
-0.003697614
-0.0015518672
6.048259E-4
1.4146123E-4
-0.0026407093
-0.002940513
-5.4763746E-4
8.3305396E-4
0.002214947
8.8228454E-4
-9.036402E-4
0.0016325706
0.0068711736
0.011277362
0.004159155
-0.008439471
-0.008768952
-0.0014754357
0.0058247657
0.009678082
0.008300397
0.006793948
0.005173772
0.005029945
0.008150362
0.012707043
0.016743876
0.016012257
0.012925256
0.0043317555
-0.010124728
-0.014686997
-0.014145849
-0.019851848
-0.024230463
-0.02532481
-0.025940297
-0.027007205
-0.02650202
-0.022334684
-0.020391745
-0.019837534
-0.018153006
-0.017728694
-0.015033397
-0.010231662
-0.0026692988
0.010733907
0.024848405
0.038854863
0.049273573
0.051797774
0.057110317
0.061126444
0.048346933
0.029725567
0.021322051
0.021225315
0.023463277
0.018571297
-0.00787563
-0.048753522
-0.06928951
-0.057627607
-0.035811268
-0.0146659305
0.0015551278
0.006610066
0.010242645
0.015713012
0.013436224
0.004913008
-0.0059376387
-0.02074286
-0.03355342
-0.038390975
-0.03987812
-0.03496646
-0.01839141
-8.85665E-4
0.016186684
0.042650513
0.06831287
0.07095796
0.0508933
0.029103426
0.017675675
0.015587853
0.008340765
-0.0083836485
-0.013245308
-0.0056433068
-0.005684501
-0.030802308
-0.07945185
-0.11414137
-0.12739894
-0.13831775
-0.12659107
-0.076943286
0.0040079644
0.10525299
0.18467164
0.21215259
0.200165
0.12330222
-0.01089256
-0.083583556
-0.0979875
-0.14086783
-0.15005422
-0.0988813
-0.02849147
0.054419555
0.1094655
0.15474014
0.2009925
0.20072658
0.16625379
0.092822745
0.03758108
0.050178822
-0.012040598
-0.14840275
-0.21004353
-0.23935018
-0.2710898
-0.22993207
-0.14481564
-0.046596795
0.08533122
0.17103653
0.18264559
0.1831529
0.14615561
0.07984834
0.030385267
-0.024997676
-0.07416267
-0.10109903
-0.11823605
-0.1306773
-0.11718523
-0.029610336
0.0560187
0.047477797
0.027875656
0.041446116
0.014682667
-0.060944274
-0.1125398
-0.09612862
-0.03784828
0.025684275
0.10020508
0.17449486
0.15896022
0.04629041
-0.025884818
-0.014749516
-0.0067343204
-0.05681269
-0.114485584
-0.08116892
0.027388442
0.11984825
0.16579778
0.20831245
0.2922991
0.340685
0.21281658
-0.102080554
-0.3730756
-0.37253845
-0.24477594
-0.18799607
-0.1523721
-0.09972911
-0.035274044
0.015793769
0.01782134
0.032390844
0.08035037
0.11755616
0.12257252
0.08087259
0.013965629
-0.054502405
-0.096469864
-0.085232876
-0.052237246
-0.021786414
0.0029134974
0.019395314
0.033966336
0.040280253
0.041218944
0.04015017
0.032639902
0.025246006
0.01692925
0.0066491454
-0.0012363099
-0.0064808563
-0.010604426
-0.0134144
-0.010198164
-0.0044650966
0.0017227122
0.010419334
0.01595673
0.022000156
0.027402896
0.025576258
0.023091117
0.018253893
0.01026028
0.005198087
-6.274457E-4
-0.007943669
-0.016508458
-0.023949023
-0.026950803
-0.034441322
-0.039405033
-0.029866003
-0.021052534
-0.016106162
-0.006293236
3.4421336E-4
0.004479118
0.010726189
0.013361949
0.0137746055
0.01292105
0.00882756
0.0046002404
0.0010775927
-6.793503E-4
6.823241E-5
-0.0013491759
-0.0041698907
-0.0034079647
-0.002708691
-0.0030151298
5.940361E-4
0.0035095613
0.003593062
0.004701955
0.004807771
0.004583221
0.003655129
-2.0941728E-4
-7.9533376E-5
0.005028354
0.008283661
0.008711685
0.006949326
0.0043192827
0.0036254816
0.005421409
0.0057217795
8.89861E-4
-0.003629577
-0.003429012
-0.0017233938
-8.130149E-4
-0.0018009682
-0.003307378
-0.0036792313
-0.0044807657
-0.005791987
-0.007154312
-0.00551147
6.49219E-4
0.004699157
0.0040927203
0.0022719405
2.7168548E-4
-0.0035171486
-0.010127343
-0.01568898
-0.017690469
-0.016123211
-0.010668216
-0.006269742
-0.0037592337
2.8215337E-4
0.005195534
0.012502308
0.017742114
0.016560927
0.016657285
0.015854092
0.008196511
0.003600173
0.007245621
0.009540224
0.0042781103
-0.0020903263
-0.0044556633
-0.00810591
-0.012411706
-0.008930952
4.5766123E-4
0.0070364317
0.010946597
0.013617301
0.009358047
9.88102E-4
-0.0036275745
-0.0072961836
-0.011663674
-0.013660313
-0.014136911
-0.014280164
-0.012634223
-0.0069276975
-1.4982815E-4
0.0023341859
0.002651104
0.0039590374
0.0038367051
8.3269674E-4
-0.0018629176
-0.0029077998
-0.004402697
-0.005138902
-0.002924351
0.001385074
0.0044562523
0.0034654697
6.793115E-4
-7.760801E-4
9.491338E-4
0.0045187953
0.0049220817
0.0031164042
0.0020732302
0.00474711
0.013897876
0.021102704
0.020202888
0.013821832
0.0034610052
-0.0042384914
-0.005428588
-0.0048614354
-0.0060637365
-0.010938089
-0.01574381
-0.0154680265
-0.011700597
-0.0061916956
-9.821391E-4
6.341802E-4
-0.0015562967
-0.004544432
-0.006491831
-0.009261242
-0.010712348
-0.006315808
-3.9318932E-4
0.0016498566
0.004119144
0.010626163
0.015419035
0.013011545
0.006230712
0.0016796939
8.084921E-4
0.0010658476
0.0026176265
0.0029709283
3.7838312E-4
4.934636E-4
0.0038403939
0.0060167713
0.006277875
0.0030240414
-0.002662623
-0.0054764827
-0.0064259865
-0.008473988
-0.008312162
-0.0058588544
-0.00400405
-0.0022039951
-0.0019328484
-0.0023544985
-6.859713E-4
7.8269833E-4
7.1255525E-4
3.2151263E-4
0.0013691147
0.0025905732
0.0019784064
0.0029243368
0.0037681249
0.0015099349
4.4001624E-4
0.0018791629
0.0021600714
-0.0026161964
-0.0075328876
-0.005842991
-0.002266239
7.0084794E-4
0.0029245347
0.0027890669
0.002220945
9.784293E-4
0.0013203506
0.0034059572
0.0018708259
-0.003089129
-0.0066885063
-0.005137941
-0.0040180525
-0.005374543
-0.002964667
8.3787437E-4
0.0059677577
0.0064127864
6.22213E-4
0.0058099553
0.008519603
-0.0017176571
-0.0012737954
0.0022063165
-0.0037461205
-0.0065021776
-0.0056984853
-0.0027377731
0.0014870192
0.002123394
0.003123834
0.005463716
0.005966981
0.0038496624
-4.479483E-4
-0.0023022324
-2.8625366E-4
-4.3979054E-4
-0.0033345448
-0.0036885196
-0.0034638047
-0.0038307165
-0.0021695474
-0.002177946
-0.0032820825
-0.0019823713
-3.218934E-4
6.921474E-4
2.993805E-5
3.2332976E-4
0.0030258684
0.00217712
-6.0409383E-4
-8.164713E-4
1.2492109E-4
0.0011855535
0.0012790958
6.256548E-4
-2.6679103E-4
-1.3546112E-4
0.0019017537
0.0023690155
0.0025899794
0.0034942077
0.00209648
0.0014761845
0.0011124781
-3.8885136E-4
-1.0214885E-4
-4.6115616E-4
-0.0012522981
-0.0015888088
-0.0024745592
-0.001480536
-0.0027347337
-0.00479221
-0.0010413515
0.0013644408
0.0010960323
0.0013278618
-9.7428326E-4
-6.824157E-4
0.0010793298
-8.5450517E-4
-8.3302223E-4
1.2763594E-4
1.9385718E-5
0.0019176615
0.002637666
8.222378E-4
-0.0010126465
-0.0014407234
-7.736082E-4
-7.826434E-4
-2.830322E-4
-4.642344E-5
-0.0015750104
-9.152021E-4
6.3826307E-4
-3.7750334E-4
9.94391E-5
0.0014732855
1.06981424E-4
-0.0010370688
-0.0010993674
-4.2915792E-4
0.0014413649
0.001770504
0.001433679
0.0016448648
0.0010537211
6.948154E-4
-2.2662601E-4
-9.806764E-4
-3.2288834E-4
-5.448201E-4
-5.9041442E-5
0.0010203939
6.8134663E-4
9.945742E-4
7.829085E-4
-2.3800526E-4
7.7847435E-5
-4.7859954E-4
-0.0022509506
-0.0023315104
-8.899076E-4
3.3556658E-4
0.0011321844
1.3694131E-4
-0.0017870814
-8.515213E-4
-6.1589805E-4
-0.0023739743
-4.7239245E-4
0.0018421573
0.0011965842
9.4284135E-4
0.0019375123
0.0031630797
0.0023508389
5.588504E-4
-2.0050099E-4
-0.0021572828
-0.0027863681
-7.7824946E-4
-2.1444783E-4
-2.6702305E-4
-2.733483E-6
-4.371882E-4
-5.3219334E-4
-1.430561E-4
9.2104863E-4
0.0016002977
-4.4121608E-4
-0.0020577617
-1.7304844E-4
9.647107E-4
-2.0656757E-4
-4.651837E-4
-2.461195E-4
-2.4122061E-4
-6.259106E-4
-0.0014712473
-6.1944E-4
7.633471E-5
3.9130254E-4
0.0025788345
0.0026637444
0.0019571497
0.0028845405
8.839658E-4
-0.0012297621
-3.28461E-4
4.6477458E-4
9.045352E-4
3.4219364E-4
-3.2710316E-4
2.7847406E-4
-1.3072103E-4
-5.5144E-4
-5.211731E-4
-0.0012451421
-0.0013182779
-0.0015284328
-0.0017425433
-8.9676405E-4
-7.607797E-4
-3.916861E-4
0.0011440684
6.649479E-4
-0.0015055541
-0.001288774
-3.2238086E-4
-7.4277126E-4
-3.8342594E-4
-0.0015773537
-0.0024925943
4.9479154E-4
3.1121078E-4
-4.8004475E-4
0.0035911202
0.0044300254
0.0020498338
5.5261917E-4
-4.811015E-4
6.1676983E-4
0.0016954254
0.002012197
0.001512121
-3.170974E-4
-1.5119578E-4
3.0659762E-4
-5.833876E-4
-0.0018486021
-0.002481453
-1.8491215E-4
0.0017874463
0.003020087
0.0023923088
-0.0029148886
-0.0027548852
0.0013146137
7.281814E-4
0.002428526
2.6453193E-4
-0.009679165
-0.009421967
-2.6531503E-4
0.0026013753
0.0016307036
0.0018076258
7.5766526E-4
-4.764119E-4
1.175043E-4
9.934512E-4
9.4555435E-4
1.7948677E-4
3.5613345E-4
0.0013086507
0.0014919521
0.0020445113
0.0013799762
-1.7304986E-4
8.058856E-4
0.0012375183
3.3053994E-4
-1.7695157E-4
-9.5151947E-4
8.4839725E-5
6.040679E-4
-0.0010050113
-1.4976836E-4
0.0012476409
2.1006084E-4
-2.281944E-4
-5.5755052E-5
-8.474141E-4
-7.2507246E-4
-3.175088E-4
-9.43517E-4
-7.384151E-4
-0.0012768352
-0.0025027879
-0.0018451316
-0.0012989207
5.5406264E-5
0.0017820502
9.424886E-4
9.631915E-4
0.0019962038
0.0011817515
-7.9658144E-4
-8.856387E-4
0.0020494806
0.0021922318
4.9339957E-4
6.868081E-4
-0.0022993856
-0.0052541597
-0.0035224152
-8.6561736E-4
0.0013041045
9.498547E-4
-8.089155E-4
-1.3834653E-4
0.0011843104
0.002819508
0.0051312475
0.0045022992
-1.411414E-4
-0.0030113468
-0.0013126588
-4.0315228E-4
-8.7004725E-4
2.218268E-4
8.109051E-4
2.2539239E-4
3.4966727E-4
0.0012803297
0.00157885
0.0015352621
0.0014531153
3.2758046E-4
-9.910997E-5
-7.494076E-4
-0.0023036215
-0.0014284827
-0.0012060296
-0.0026474646
-0.0024461527
-0.0018110622
-8.471995E-5
8.4415654E-4
-7.2089495E-4
-7.923926E-4
-1.7111171E-4
6.0652674E-4
7.38631E-4
-0.0014127622
-6.728723E-4
0.0012735723
4.0983214E-5
-2.5417836E-4
6.5282563E-4
0.0011471736
0.0011480504
-6.905482E-4
-0.0013327996
8.449546E-4
0.0014307976
3.0608638E-4
0.0014127446
0.0017639537
-3.2424965E-4
4.7378012E-4
0.0013857373
-4.8261395E-4
1.5354433E-4
0.0016228908
0.0014518034
0.0014112742
-9.1175476E-5
-0.0015051384
-0.0012144914
-0.0018401634
-0.0020594988
-5.780367E-4
-2.9176586E-5
-3.160776E-4
1.6035614E-4
5.6987297E-4
0.0011041984
0.0017485654
4.0483463E-4
-7.6022337E-4
6.742423E-5
-7.891497E-4
-0.0016700258
-1.2429581E-4
3.305891E-4
0.0012033526
0.0020465758
-0.0010611166
-0.0023631682
-6.807364E-4
-0.0012177435
-0.0013936157
-2.46149E-4
5.177667E-4
0.0012216691
0.0014964122
0.0019861867
0.0012360626
-0.0011897321
-0.0013174852
5.3705834E-4
-8.4334327E-4
-0.0043546646
-0.0023994881
0.0020992137
0.0023555849
0.0022859327
0.0020018523
6.1715946E-5
2.3083924E-4
7.139453E-4
-2.0382756E-4
-3.4007357E-4
8.5175486E-4
2.6265017E-4
-0.0021711474
-7.4743736E-4
9.0320583E-4
-0.001123976
-0.001343981
-4.058327E-4
-4.2912277E-4
-7.5415516E-4
-4.1759902E-4
9.2989777E-4
-8.0048E-5
-5.582143E-4
4.636545E-4
-7.884001E-4
-2.4419095E-4
0.0012657095
0.0013562926
0.0024556154
0.002286396
0.0013008016
9.914984E-4
4.543122E-4
8.648993E-5
-8.3177467E-4
-0.0013585181
-0.0010486329
4.2541538E-4
0.0021976382
-1.7732452E-4
-0.0016421821
0.0016630801
0.0012296843
-0.0014848278
-0.0019450567
-0.004271917
-0.004186539
-5.110058E-4
7.406475E-4
0.002906826
0.0016541122
-0.00673102
-0.006949178
0.001304492
0.003828406
0.0028151518
0.0033116734
0.002486139
8.775763E-4
6.715359E-4
4.9044556E-5
-3.3174767E-4
9.217512E-4
-2.1647851E-4
-0.0018736639
-2.4419434E-5
3.9535863E-4
-7.4594305E-4
9.194853E-4
0.001542434
-6.182738E-4
4.4895703E-4
0.0024214438
-5.322092E-4
-0.0021428764
-2.9302045E-4
-1.8226545E-5
-2.321142E-4
-2.2972003E-4
7.2188195E-5
1.6532727E-5
-5.4931093E-4
8.688264E-4
9.642104E-4
-2.3045142E-4
2.5582325E-4
-2.3318437E-4
-7.8517897E-4
-6.5398996E-4
-2.2308806E-4
0.0013424074
0.0016115956
5.580107E-4
-4.3170704E-4
-0.0012784012
-0.0013892028
-1.8619216E-5
0.0013561764
-1.04020255E-4
-0.0014599186
-0.0017681392
-0.0020761776
-4.975665E-4
-0.0010969781
-0.0017439647
8.2145823E-4
2.7625164E-4
-5.046097E-4
8.9071994E-4
0.0012346802
0.0017184627
4.835344E-4
-9.78892E-4
-4.4034753E-4
-6.2653125E-4
-1.2178847E-4
0.0013043779
0.001802228
0.0020190894
0.001701088
8.6050865E-4
0.0016324332
0.003047949
0.0010060401
-0.0016594917
-0.0015134856
-8.222648E-4
6.36209E-4
0.001079893
-5.7615153E-4
-0.0012732843
-0.0011726944
-5.9655565E-4
-9.2506513E-4
-0.0015078207
-2.6640095E-4
-4.6436535E-4
-7.457783E-4
-4.7113994E-4
-0.0015569915
-4.5183994E-4
1.5926563E-4
-0.0010816247
-6.8074523E-4
-0.0014221561
-0.0027671428
-0.0020566927
1.0235852E-4
0.0020249744
0.0021978205
0.0029897285
0.0025518592
-3.396477E-4
-5.6667754E-4
9.4444425E-5
5.601272E-6
0.0011714726
0.0013744725
8.615605E-4
9.251294E-4
7.69153E-4
7.4523565E-4
0.0012544562
0.0013627812
8.0372964E-4
0.0017396988
5.5044406E-4
-0.0034842833
-0.0013223597
0.002343208
7.4108073E-4
-9.868785E-4
-0.0031584948
-0.002643271
9.894862E-4
2.4533549E-5
-8.922402E-4
4.821865E-4
-9.527545E-6
-3.449256E-4
-4.4480132E-4
-3.625245E-4
-8.0375664E-4
-0.0019738758
-0.0023510791
-0.003071784
-0.0013007623
4.3186295E-4
-9.693115E-4
0.0015549862
0.0034981857
4.5949154E-4
-6.154704E-4
-8.673004E-4
-4.255972E-4
5.605265E-4
-0.0015090392
-7.3696557E-4
0.0030248517
0.0034669058
0.0028594406
0.0020748447
8.320257E-4
0.0014569128
0.0014753822
-1.4853214E-4
-5.330401E-4
-4.4969853E-4
-2.336299E-4
0.0012740137
0.0018978622
0.001051603
-2.0622314E-5
-8.671699E-4
-6.23078E-4
-0.0014949578
-0.0036775507
-0.003619306
-0.0027100754
-0.0021416475
-9.3569316E-4
1.4253352E-4
0.0014930558
0.0012880674
-0.0016476698
-0.0030520426
-0.0013563993
4.6166003E-4
0.0010146967
0.0018904564
0.0020540273
-4.3411976E-5
-8.3593663E-4
-5.617844E-5
5.591297E-4
0.0012296471
4.3840084E-4
7.610849E-4
0.0019369252
0.0017132874
0.003684124
0.0026201094
-0.0012657661
7.2464976E-4
-4.1249528E-4
-0.005328231
-0.0025379849
6.769013E-4
6.83061E-4
0.0026625933
5.8009307E-4
-0.0032441155
6.104896E-4
0.004773528
0.0046155574
0.004888045
-0.0011107983
-0.009172228
-0.0054164627
-4.5939683E-4
-0.001804146
-0.0010538645
-7.2723924E-5
-5.585308E-4
-6.9827295E-4
-7.9687143E-4
3.5514872E-4
-5.2098885E-6
-0.0010849185
-5.762781E-4
-0.0012142621
-7.589644E-4
5.8858894E-4
-4.6034236E-4
-0.00126365
-0.0013043203
-6.680626E-4
0.0010506783
0.0017284048
0.0025630617
0.0034183303
0.0030842065
0.0033873788
0.003131607
0.0021465097
0.0011869335
-0.001330534
-0.001941675
9.6070155E-4
0.002779351
0.001842021
-6.2027026E-4
-0.0013584316
-3.1945526E-4
-0.0018028412
-0.0030928878
-7.650953E-4
0.0013374044
0.0015466992
0.0012113943
-5.1229994E-4
-0.003239354
-0.0039333953
-0.0029927203
-0.0027833546
-0.0024951498
-7.5623137E-4
0.0011169142
-7.12776E-4
-0.0027984339
8.8741985E-4
0.0026121635
-2.4387149E-4
2.2923297E-4
0.0013413612
-1.0804595E-5
-8.97464E-4
-2.987774E-4
0.0012323745
0.0010474762
-5.6253073E-5
-2.8179644E-4
-1.2816732E-4
0.0012187901
0.00181465
0.0013030662
0.0013666212
5.4606225E-4
-1.9453403E-4
3.9225846E-4
0.0017483166
0.002927837
0.0018472286
-3.1377655E-4
-9.0804225E-4
-1.8803563E-5
2.1277618E-4
-7.461367E-5
0.0013179635
0.001428241
-6.8701437E-4
-0.0012051434
-4.693907E-4
5.4437503E-5
-0.0012059062
-0.0026448602
-0.0012626481
-0.0016070991
-0.002931387
-9.3484385E-4
-2.5250655E-4
-0.0018126776
-0.002486284
-0.00188222
-9.966672E-5
7.638472E-4
5.5449316E-4
5.133391E-4
5.0306856E-4
0.001439528
0.002737872
0.002337447
2.1682773E-4
-0.001022968
-4.039684E-4
3.5470317E-4
0.0011884096
0.0015460993
0.0015911862
0.0025187912
0.0020197048
5.7397695E-4
1.8019935E-4
-4.8194182E-4
-7.1953377E-4
-2.2816406E-4
3.1953814E-4
-3.091125E-4
-0.0030286007
-0.0030127026
-4.1840083E-4
-4.599905E-4
-0.0012074463
-0.0014808894