-0.009820947
-0.011358435
-0.012528923
-0.011889525
-0.010662864
-0.010380932
-0.011279464
-0.00967002
-0.007572471
-0.009346673
-0.010524186
-0.009321288
-0.008781079
-0.009096474
-0.010452048
-0.01111383
-0.011152118
-0.012157476
-0.0104188
-0.007109727
-0.007385519
-0.009093065
-0.008104348
-0.0058995937
-0.0071452074
-0.009704486
-0.00904829
-0.0079823695
-0.00803923
-0.008023234
-0.007233331
-0.0056994837
-0.006267306
-0.007511323
-0.0069158
-0.0070705316
-0.007973181
-0.0078002373
-0.007229063
-0.007070495
-0.0070453933
-0.006832379
-0.0062514925
-0.0063798027
-0.008261854
-0.00789041
-0.00600822
-0.007311428
-0.006577019
-0.004945159
-0.0075792023
-0.00810338
-0.006755616
-0.0071319486
-0.007978875
-0.008817231
-0.0060195173
-0.003573246
-0.0049295966
-0.0038644793
-0.0032323927
-0.005176179
-0.0057918066
-0.0062726997
-0.006357929
-0.0056548533
-0.005116156
-0.006031343
-0.008421072
-0.006998295
-0.0047415323
-0.0057178894
-0.004408109
-0.0041298126
-0.0063325297
-0.0053954534
-0.0052047833
-0.0056839813
-0.004916582
-0.005535723
-0.004759161
-0.004080974
-0.0050352155
-0.0047416002
-0.004401113
-0.0038099447
-0.0035944644
-0.0031709545
-0.0023699882
-0.004879495
-0.0056198877
-0.0033135053
-0.0026792642
-0.002786228
-0.004118611
-0.0042971973
-0.0044013993
-0.006332414
-0.0049552396
-0.0037813534
-0.0037422196
-0.002653396
-0.0043712147
-0.005613211
-0.0048081214
-0.0039797644
-0.0039412603
-0.0041973284
-0.0019076435
-9.1468834E-4
-9.249003E-4
-0.001942053
-0.0075452984
-0.009281631
-0.0057925186
-0.0023723992
-0.00190592
-0.003919762
-0.0024204904
-0.007754432
-0.015542017
-0.007538917
-3.8490893E-4
-9.430393E-4
9.439372E-4
9.5181644E-4
0.0014538125
0.0018678238
-4.977716E-4
-0.0010892862
-0.0016891565
-0.0021377136
-0.001092357
-0.001351261
-0.0024909268
-9.1667176E-4
5.0803594E-4
-0.0014036004
-7.5216667E-4
-3.4453112E-4
-0.0016946921
-0.0014366562
-0.0036882404
-0.0017962011
-0.0041771904
-0.014904705
-0.006823763
-5.51582E-4
-0.015462162
-0.013363482
-0.001346549
-0.006188748
-0.0075542154
8.101212E-4
0.0026619965
-4.6570282E-4
1.6164204E-5
0.0018795783
0.0016680991
1.874976E-4
-0.002527539
-0.003555132
-0.0016943676
-1.5411004E-4
5.190564E-4
5.3649396E-4
-4.4463825E-4
-0.0014120358
-4.3619412E-4
4.8919895E-4
-0.0013994764
-0.0028646616
-0.0030375717
-0.0020508734
2.5308292E-4
-4.0493047E-4
-0.0019786372
-0.0018644142
-0.0029683004
-0.003144274
-0.0021195696
-0.0027673473
-0.0025117055
-8.605396E-4
-0.0012537378
-0.0023627449
-0.0027086441
-0.003566007
-0.0027486423
-7.0048764E-4
-8.5407234E-4
-0.0014456614
-0.0012371311
-9.796827E-4
-0.001406364
-0.003743205
-0.0050337827
-0.0036648219
-0.0031223851
-0.003567645
-0.002544716
-0.0016180119
-0.0021808257
-0.0011163058
9.294045E-4
9.5838594E-4
5.7528686E-4
-2.3733829E-4
-0.0014188823
-0.0016101277
-0.002285784
-0.0020794326
4.3792016E-4
7.7084755E-4
-0.001810568
-0.0012317356
0.0010812606
-4.917482E-4
-0.0012644832
1.18533026E-4
-4.6378578E-4
-4.4767847E-4
-5.943329E-4
-0.0010835923
4.585994E-4
0.0010746708
1.7151427E-4
-0.0028210229
-0.004831141
-0.0021457446
-0.0012988811
-0.0018865064
-6.358025E-4
-6.473684E-4
-5.024741E-4
-3.7761146E-4
-0.0011644141
-0.0019741117
-0.002702961
-0.0023625642
-0.0025061392
-0.002358305
-0.0022352356
-0.003202203
-0.0020584734
-0.001061647
1.7548513E-4
0.0015412181
-0.0013695712
-0.0019466697
3.850454E-4
1.2501099E-4
3.140465E-4
7.539394E-4
-2.3424127E-5
-0.002354449
-0.0032391564
-2.0324861E-4
4.4342573E-4
-2.5977331E-5
0.0010874644
5.4313557E-4
2.9493152E-4
-5.169339E-4
-0.0010532768
0.001208636
0.0021711793
5.3520966E-4
-0.0016888788
-0.0024104123
-0.0027189415
-0.0039510382
-0.0029058845
-0.0010180384
-1.0600884E-5
2.4015002E-4
-0.0012422096
-0.0016131508
-9.4349124E-4
-3.1324587E-4
4.5699024E-4
5.1341415E-4
9.299764E-4
-7.35148E-4
-0.0026150937
-0.0016677141
-0.0027690474
-0.0033084173
-0.0015000991
-8.5313345E-4
-2.9276192E-4
-0.0011578129
-0.001068344
0.0010473027
9.0587157E-4
7.990849E-4
4.526807E-4
1.00039906E-4
0.0014982513
5.2337366E-4
-4.63709E-4
-1.5919792E-4
-8.188678E-4
-1.9014598E-4
-1.627317E-4
-3.5236133E-4
3.639086E-4
-2.626959E-4
1.3451542E-4
4.8139246E-4
3.081102E-4
0.001295787
-1.9572015E-4
-0.0019574168
-0.0014335486
-2.965586E-4
3.89094E-4
-0.0027478843
-0.0049730856
-0.0024969662
0.0010541108
0.0046966523
-0.0012892823
-0.012393509
-0.007527563
0.0029402156
0.0040202676
0.0027341128
2.611928E-4
-0.0014741886
3.2798707E-4
0.0015444885
0.0019599693
0.001114255
2.4345244E-4
3.2270345E-4
-0.0014683034
-0.0010997708
9.808762E-4
-9.006867E-4
-0.001478465
0.0012255756
0.0013108458
2.3713695E-4
8.1256774E-5
-8.6435326E-4
-8.8917866E-4
2.162088E-6
-1.992217E-4
-9.858347E-4
-0.0020283016
-0.0019774646
-9.900517E-4
-8.818638E-4
-3.6169533E-4
1.7228963E-4
2.0159977E-4
8.2697155E-4
0.0012778119
0.0012146086
-3.2183438E-4
-0.0016242503
-7.418607E-4
-6.091885E-4
-1.4828349E-5
0.0015519931
0.0010822264
-1.3975239E-4
-0.001726587
-0.002393499
-0.0012662115
-0.0015084787
-0.0012904571
5.4136233E-4
-1.5419014E-4
-0.0022852863
-0.0021145751
-0.0016762561
-0.0022312817
-0.0012399693
-2.708034E-4
5.6731055E-4
0.0023095927
0.0013283101
8.9203473E-4
0.0025883827
7.030214E-4
-0.0013838755
2.9853126E-4
0.002176054
0.001494244
-3.2934677E-4
2.4960839E-6
9.299055E-4
0.0012219807
0.0014248369
6.235398E-4
0.0011270681
-2.5764912E-5
-0.0035373003
-0.0019119285
1.5421154E-4
-0.0017563516
-0.0019842798
-0.0012173676
-0.0012348663
-0.0016978552
-0.0017253633
-1.7926899E-4
-0.0010743864
-0.0035620064
-0.0028132384
-9.6670137E-4
3.2515213E-4
9.924449E-4
5.764992E-4
0.0014120721
0.0025366915
0.0018411179
0.0014016727
0.001211809
3.4642048E-4
4.834886E-5
-4.0109598E-4
-0.0010467775
-6.617951E-5
0.0013155384
0.0012383659
7.0548465E-4
2.7726052E-4
-0.0010719715
-0.0022086338
-0.0010624335
2.6639883E-4
-0.0011380685
-0.0023939905
-7.474412E-4
2.4289737E-4
-4.8680892E-4
-3.740322E-4
-7.2889175E-4
-7.481185E-4
0.0013336253
0.0014083029
-5.50942E-4
2.8545679E-5
0.0012915321
9.149014E-4
0.0014295581
0.0010258282
-0.0016666634
-8.925788E-4
0.0013683899
-4.864274E-5
-7.8008066E-5
0.001846372
0.0013235918
-2.3630065E-4
-9.772212E-4
-0.0010333671
-0.0020203756
-0.0025742718
-0.0013882387
-0.0024792762
-0.0025665644
0.0012402855
0.0014862637
-4.5141266E-4
4.9863354E-4
-2.743305E-4
-0.0019925847
3.5625882E-4
0.002447522
0.001181655
1.1684652E-4
1.9592258E-5
8.9527755E-5
-4.1149737E-4
-0.0011416018
8.748468E-5
8.9808175E-4
3.146166E-4
0.0013875965
0.0021732154
0.0011611498
4.8060945E-4
3.9093275E-4
1.2916462E-4
-2.4917035E-4
-4.9563573E-4
-0.0016496992
-0.0028515796
-0.0012881599
6.8876427E-4
-5.847419E-4
-0.0024819646
-0.002200222
-0.00139431
-4.8133403E-5
0.001334698
3.0329352E-4
2.2602174E-4
0.0018433464
0.0016557238
0.0010187182
-8.104918E-4
-0.0022362575
-1.07697095E-4
5.150089E-4
6.695482E-4
0.0026384427
7.809434E-4
-8.209494E-4
0.001963334
0.0026943414
0.0017112532
7.926097E-4
-0.001939209
-0.0015764349
0.0012059667
7.993955E-4
4.5555682E-4
-7.575631E-5
-0.0024134072
-0.0024063399
-1.0633984E-4
0.0023411228
-0.001893948
-0.011353812
-0.008497339
0.0018234956
0.0030286761
0.0013377736
0.0021809067
0.0022572596
0.0020912588
0.0016876872
1.8995475E-4
-0.0011323827
-5.952652E-4
-8.553948E-5
4.6693726E-4
0.001782814
-2.1690087E-6
-8.3211076E-4
0.0023926983
0.0027121068
4.1920715E-4
-4.952917E-4
-8.88897E-5
5.1233015E-4
-9.369777E-5
-1.6469638E-4
-2.3682219E-4
-0.0012277877
-6.730607E-4
-3.413699E-4
-7.8307174E-4
-0.0011509401
-0.002400267
-0.0018164443
-3.1926463E-4
-2.6364482E-4
1.5763986E-4
5.0824514E-4
0.0019899982
0.0036673928
0.002463499
0.0016763173
6.5725663E-4
-0.0012066723
-7.4187387E-4
-0.0014379991
-0.002089246
-1.4011988E-4
3.8266828E-4
0.0010313822
0.0017115698
2.91525E-4
-1.9523529E-4
-9.2811206E-5
-3.7730145E-4
-0.0016651269
-0.004113217
-0.003578928
-9.3642296E-4
1.3977557E-4
7.0305495E-4
9.117496E-4
-8.886857E-4
-0.0034335735
-0.00246112
0.0016943343
0.0036921718
0.0017882478
-7.2504464E-4
-5.3800028E-5
0.0020477935
0.002430155
0.0024194825
0.0015226355
2.3257008E-4
9.0149156E-4
7.3985336E-4
-4.3941292E-4
-3.1711883E-4
-5.098621E-4
-8.579727E-4
-0.0010557693
-0.0010281308
-1.15845214E-4
-0.001135772
-0.0018470229
8.099238E-5
-4.2538557E-4
-5.5184384E-4
0.0019171453
3.7128487E-4
-0.0021444089
-6.977913E-4
7.8435807E-4
0.0010113062
0.0015195339
0.002242234
0.00262621
0.0028509044
0.0027262755
0.0011153748
-5.8298314E-4
-0.0015853799
-0.0027575905
-0.0031614357
-0.0030276913
-0.0028782522
-0.0025642398
-0.0021399613
-9.0599875E-4
2.3049011E-4
0.0010166611
0.0021513624
0.002229232
0.0010802192
-6.039261E-4
-8.521134E-4
0.0018902493
0.0019892836
-0.0011355705
-3.7906927E-4
8.08548E-4
-3.077657E-4
0.0015114375
0.0018111229
-6.262719E-4
9.989359E-4
0.002349557
6.896896E-4
3.0868992E-4
-9.973927E-4
-0.0037122797
-0.0037984164
-0.0024651168
-0.0039767637
-0.0062505356
-0.0052512945
-0.003429544
-0.0017169911
9.2297373E-4
0.003962887
0.0071171112
0.0075060306
0.0068481467
0.006802002
0.0043015
0.0028211998
0.0023396227
3.485471E-4
1.184784E-4
-1.2812456E-4
-0.0015762278
-0.00167428
-4.688528E-4
-7.714331E-4
-0.0029581322
-0.0019952948
-0.0015311266
-0.0044468516
-0.0040882025
-0.0016495398
6.1382743E-4
2.0859789E-4
-0.0034606638
-0.003912558
-0.0033423153
-0.0017370868
0.0012120703
7.30861E-4
0.0021178843
0.00351777
0.0013673581
3.5550504E-4
-3.873042E-4
6.6955254E-4
0.002118356
0.0019973565
0.002106328
-6.10688E-4
-0.0023991563
-0.0018946513
-0.0015847652
1.3201393E-4
-2.7280964E-4
-2.4490376E-4
0.0012392986
3.34655E-4
-2.629761E-4
-0.0019744437
-0.0028761646
-0.0011615296
-0.0011232465
-0.0017842056
-9.2998735E-4
0.0024798322
0.0026114918
0.0016710126
0.008092418
0.011073335
0.008196183
0.0021113113
-0.006688305
-0.0047727106
0.0011903741
0.0036165763
0.0029389071
-0.00760738
-0.007911021
0.0038715797
0.0024324066
-0.0032352833
-0.0034770025
-0.0043678433
-0.0030554875
0.0019008735
0.0039893636
2.5186522E-4
-0.0014694767
-0.0015564787
-0.0026863164
-8.034687E-4
-6.7902263E-4
-9.5838186E-4
2.4919052E-4
7.797732E-5
0.0019326947
8.284343E-4
-0.00222914
-0.0020785148
-0.0020771031
0.0010458265
0.0036359478
0.002651142
0.0044318847
0.0070366785
0.0073479707
0.0016324153
-0.0051024924
-0.0028024907
-5.744738E-4
-0.003959586
-0.005647236
-0.0049278494
-0.006103947
-0.0084445765
-0.005177955
0.002207211
0.0082682185
0.011421971
0.008908352
0.0039462247
-8.302115E-4
-0.003281824
7.050111E-4
0.002309982
-0.0029836579
-0.0043467204
4.2825058E-4
5.9758214E-4
-0.0048759263
-0.0031916986
0.005649948
0.0095242625
0.0051223147
-0.0018179014
-0.005500083
-0.008692916
-0.008751838
4.2572845E-4
0.0075851697
0.0056323567
0.0012342692
7.050378E-4
0.003971186
0.0025078417
-0.001001939
-0.0017350047
-0.0065064556
-0.009311882
-0.0022487282
0.009688801
0.018663539
0.016408702
0.004443558
-0.007510519
-0.012285136
-0.011094579
-0.0086774845
-0.0031142142
-1.737888E-4
-0.0037641658
-0.005519702
-0.008624377
-0.012732319
-0.009586694
-0.0031400742
0.0041487208
0.010660985
0.012044673
0.0072833747
-0.0027364248
-0.008923571
-0.006075615
0.0018410232
0.00984811
0.010097358
0.007669039
0.010676475
0.012095822
0.009537108
0.0045628664
4.4839608E-4
0.0027745164
0.005185382
0.004020244
9.4019907E-4
-0.005094997
-0.0102601545
-0.016507413
-0.021909691
-0.015292867
-0.004007369
-0.0010612584
-0.002234408
-0.001214342
-4.1281697E-4
-5.214707E-4
0.0020626262
0.004405613
0.0028952854
-0.0030300661
-0.011727083
-0.0132025
-0.0070318403
-0.0012794179
0.00432097
0.006763185
0.0056602173
0.005373378
0.002644164
-0.0020881458
-0.0029752217
6.3706114E-4
0.0015761441
-0.004166444
-0.007815916
-0.0052752225
-0.0016348055
0.0013093023
0.0038249432
0.0070436355
0.009169672
0.0084493235
0.012461903
0.020875053
0.018369226
0.0069301487
0.0019321829
-0.0025383763
-0.01009857
-0.00904478
-0.0041980273
-0.004464788
-0.0066650887
-0.009297251
-0.010639903
-0.008444934
-0.0044758813
-0.0019514622
-0.0022703577
-0.0019426642
6.1615114E-4
2.4656134E-4
-0.0037186712
-0.002651023
0.0033704715
0.0061013172
0.013045578
0.02719037
0.032772176
0.028065387
0.018748285
0.006720548
-3.013178E-4
-0.0027553476
-0.0011262092
0.0056063877
0.001570684
-0.019221226
-0.040157907
-0.045657814
-0.036479674
-0.027865473
-0.021268278
-0.0101185655
-0.0034540037
-0.0050565614
-0.00952967
-0.010203849
3.173855E-4
0.010729034
0.007584892
-1.583259E-4
-0.0072294036
-0.0059629674
0.025213141
0.065681934
0.069570854
0.04430042
0.022140339
0.012043204
0.020704374
0.05470411
0.08046364
0.06061485
0.01982829
-0.018202666
-0.047918048
-0.061055917
-0.087287955
-0.111257
-0.084955245
-0.020939816
0.057223905
0.10313476
0.09292972
0.048128657
-0.017563064
-0.029257193
0.00944463
-0.00715699
-0.06701699
-0.14335646
-0.21768491
-0.20560226
-0.111854315
-0.02172027
0.030415699
0.051774357
0.04069459
0.043871894
0.10156691
0.13781957
0.13258688
0.11585841
0.0903495
0.107401274
0.10086883
0.0027272962
-0.076817706
-0.07438224
-0.016331917
0.004168375
-0.061212137
-0.109369814
-0.08741876
0.010020939
0.13598494
0.1788062
0.16402504
0.13934061
0.092383884
0.024588523
-0.10952508
-0.29701507
-0.41018796
-0.35803014
-0.19549552
-0.040164582
0.073552646
0.15066493
0.23632836
0.34416497
0.32687992
0.14941636
-0.023309192
-0.116709135
-0.17089738
-0.2086084
-0.1922981
-0.112919204
-0.03524033
0.040571526
0.11898305
0.12294937
0.06399576
0.007676137
-0.05616731
-0.11428046
-0.12709387
-0.10778426
-0.07277075
-0.016851032
0.047123276
0.10137894
0.1719348
0.23777653
0.1813275
0.02126337
-0.08247009
-0.10047066
-0.088224135
-0.05624078
-0.022934817
-7.77876E-4
0.016202502
0.01861659
0.017404286
0.033828866
0.043838713
0.040565055
0.061954044
0.10454778
0.14709245
0.15438968
0.04912095
-0.13624635
-0.2577958
-0.24643344
-0.13543393
-0.031536624
-0.017520482
-0.027550397
0.005571492
0.030525986
0.02067542
0.0075053694
2.3615464E-4
-0.005457479
-0.016094098
-0.026599362
-0.025152521
-0.027254138
-0.034612708
-0.02825328
-0.014545381
0.0015752809
0.025409454
0.04780554
0.061850674
0.071652025
0.07894729
0.07918716
0.071928605
0.0635631
0.051855724
0.030793225
0.00651487
-0.011551738
-0.023748113
-0.035004724
-0.04342965
-0.044617534
-0.04241191
-0.03909751
-0.030796664
-0.019896414
-0.008846223
0.0036595406
0.014358863
0.021221114
0.022950368
0.019341337
0.013836524
0.0063684653
-9.942512E-4
-0.0050570276
-0.008850042
-0.013028315
-0.016277252
-0.018025596
-0.018173061
-0.019853778
-0.019675273
-0.013704356
-0.008499898
-0.003934128
0.0034655915
0.007103061
0.0075371903
0.010635486
0.014067657
0.014991723
0.012341637
0.007582678
0.0031261106
-6.209163E-4
-0.0010150685
-5.6576374E-4
-0.0044770055
-0.007841574
-0.0060227243
-0.0036240714
-0.0015839777
0.003279224
0.0055898977
0.0035965114
0.0030533199
0.0032301685
0.004306135
0.0067162435
0.010243319
0.013400581
0.008169423
0.0034280512
0.0057293824
0.0018505246
-0.002625064
-0.0012875856
3.200145E-4
8.76919E-4
-0.0053932676
-0.011239703
-0.010508917
-0.007531069
3.0658024E-4
-0.0017473511
-0.012939943
-0.009390008
-0.0015900629
-0.0016187959
-0.0044528926
-0.008383155
-0.0064156414
-0.0040407726
-0.0065485085
-0.0051955376
-0.0029504397
-0.001467966
0.0028350234
0.00639178
0.0100958
0.0137470355
0.015045136
0.01651156
0.015492337
0.010506011
0.005698698
-5.298812E-4
-0.006616842
-0.007167879
-0.0058963397
-0.0033403905
0.002599416
0.0031058874
-0.0035472033
-0.0063366336
-0.0035046323
-0.0012181657
0.0012995618
0.004917549
0.0033372964
-0.0037938878
-0.0077251527
-0.0045810486
2.143455E-4
9.527187E-4
8.444756E-5
-2.558077E-4
-0.0036667746
-0.008357658
-0.0108106835
-0.010246661
-0.0046571908
0.0015300453
0.003081847
0.003976733
0.0057724705
0.004034117
1.0234942E-4
-6.2336883E-4
9.876543E-4
0.0025170173
0.002119142
-0.0030846726
-0.005391162
1.6006918E-4
0.0031327093
0.0025543347
0.0032416468
0.0026958294
0.0028127579
0.003560212
0.004124559
0.0073425323
0.007987003
0.0040809615
7.037448E-4
-0.0018622514
-0.003934681
-0.0048045567
-0.0040569273
-0.0046209325
-0.006990492
-0.004821511
-0.0020068157
-0.0018604504
6.36019E-4
7.887493E-4
-7.6120516E-4
6.552884E-4
2.0254081E-5
-7.160238E-4
1.697839E-5
-0.0012407023
-0.0012008202
-1.1668023E-4
-1.8208878E-4
6.017151E-4
0.0014920606
0.0012188217
3.796654E-4
2.0595151E-4
0.0011954862
0.002095185
0.0017156996
2.8388732E-4
2.5724896E-4
0.0010850513
4.6551652E-4
7.990424E-5
-7.3017314E-4
-0.001995358
-0.0018369779
-0.0028809286
-0.0037871792
-0.0022200055
-7.4607844E-4
-3.9087252E-5
-0.0014138292
-0.0030605255
-0.0022502074
-0.0022395106
-3.311137E-4
0.0031123925
0.0014846412
3.5922797E-4
0.001482907
0.0010881387
0.002627395
0.001625606
-0.0016122368
2.057665E-4
8.996874E-4
-2.8047425E-4
8.1417465E-4
8.924612E-4
9.834047E-4
8.83175E-4
0.0010753027
0.002076288
-3.471972E-4
-1.2732612E-4
0.0020545148
-0.0026567471
-0.00443215
-2.6624178E-4
-2.1060257E-5
-2.6097038E-4
7.1058667E-4
-4.971716E-4
-1.4265071E-4
0.0014360405
0.0011925646
5.231856E-4
-3.2439365E-4
-5.526069E-4
-3.2449898E-4
-0.0015135302
-0.0012599697
3.8088165E-4
3.9971352E-4
-3.9151547E-4
-0.0012512562
-1.9418838E-4
6.9784815E-4
-0.0011009227
-5.3910154E-4
-3.8230675E-4
-0.0029053874
-0.0013769136
0.0011110231
5.6838465E-4
5.8578484E-4
0.0015305253
0.001296914
-5.150356E-4
-9.515246E-4
3.325714E-4
5.4133334E-4
6.548989E-6
-0.0010922204
-0.0014660945
-3.883637E-4
-3.601189E-4
-1.9013218E-4
0.0011251309
0.0011116472
-2.0163803E-4
-9.980055E-4
-3.026461E-4
0.0017650677
0.003339007
0.0031009591
0.0013981075
-0.0012685395
-0.0021793107
-6.4520224E-4
9.633193E-4
0.0026315702
0.0024636907
0.001084419
-3.4211154E-4
-0.0022505492
0.0014457655
0.0043753562
7.952607E-4
3.3239518E-5
-0.0016212588
-0.0027821139
-0.0012242063
-0.003532846
-0.0013972182
-0.004084434
-0.01318826
-0.0060596406
0.002512148
0.0020207972
0.004157178
0.0026030277
-8.6136407E-4
-0.001165344
-2.7852828E-4
7.286718E-4
-6.1326986E-4
3.6365617E-4
0.0017348524
0.0014655627
0.002382898
7.8603975E-4
0.002089431
0.004443657
0.0012976654
6.905885E-4
8.8992633E-4
-4.3070104E-6
0.0014027664
5.587029E-4
-4.7920574E-4
-6.454429E-4
-0.002023758
1.4098604E-4
0.003568564
0.0012922693
-0.002730382
-0.0018698474
2.8972065E-6
-2.805227E-4
-8.696468E-5
-4.572118E-4
-6.3877687E-4
-5.3825654E-4
-0.0020812578
-0.0012966354
7.020248E-4
5.972516E-4
0.0010429055
1.3100108E-4
-0.001841339
-0.001345348
-0.001230639
-3.1956387E-4
0.0015014944
-3.825594E-4
-6.9042854E-4
-3.3150368E-6
-0.0046233297
-0.00511775
7.8338623E-4
0.0029698056
0.0020360616
0.0017258816
0.0017329721
6.8487215E-4
-3.0032487E-4
0.0013411818
0.002329757
0.0021241289
0.0031524843
0.0027438921
-1.183984E-4
-0.0022952014
-0.0015712349
-8.369712E-4
-6.905982E-4
0.0010392019
-2.3769942E-4
-0.0019955593
8.2115503E-4
0.0012761882
-6.7239645E-4
-7.010495E-4
-0.0013956935
-0.0024667445
-0.002924485
-0.0026298359
-0.0011033836
-1.0548461E-4
3.3320545E-4
0.001032981
0.0012702931
0.0016271241
0.0025160795
0.0015814428
-1.5128306E-4
3.4348923E-4
4.3579156E-4
9.920127E-5
0.0012598832
0.0015248886
0.0015561265
0.0016395866
4.9496966E-4
-5.345946E-4
-9.863905E-4
-7.015879E-4
-0.0017377463
-0.0035756074
-0.0015483174
0.0010504436
4.470333E-4
-7.161327E-4
-0.0011914247
-0.0010306649
-9.797106E-4
-5.6260097E-4
0.0011085419
0.0017695546
0.0010021217
3.2777866E-4
-1.683369E-4
-1.5298215E-4
5.9087184E-4
8.0783665E-4
-2.8718096E-5
-7.4178976E-4
-0.0010165194
-4.0822688E-5
0.0016031895
6.927793E-4
-2.577768E-4
0.0013170537
0.001598443
-3.5441404E-5
-0.0015126499
-0.0014692637
-8.8288834E-5
-1.6563092E-4
-4.8231997E-4
4.4318216E-4
3.1176797E-4
-4.1522383E-4
-5.092627E-4
7.3341114E-5
8.07526E-4
4.3058352E-4
-4.504722E-5
5.2019E-4
0.0015139072
0.0013065264
-6.093965E-4
-6.98023E-4
0.0010555517
4.5553874E-4
-0.0010975
-6.19866E-4
7.3073024E-4
5.505738E-4
8.885185E-5
6.268999E-4
-9.564492E-4
-0.0020085487
1.0877423E-4
5.5132475E-4
2.0602834E-5
6.673029E-6
-2.830833E-4
2.2748657E-4
-0.0012483185
-0.0030477569
-0.0014199276
-1.7654055E-4
-8.2987704E-4
-7.4413646E-4
6.5328943E-4
9.634747E-4
-8.972058E-4
-0.0014675466
3.582079E-4
4.6613673E-4
-0.0012681545
4.0805526E-4
0.0023231325
7.2012946E-4
0.0010818898
0.0011185207
3.5057167E-4
0.0027790188
0.002348388
5.397063E-4
6.895138E-4
7.99653E-4
0.0021726426
7.9417403E-4
1.4264393E-4
0.0030744988
0.0011959538
-0.0014767048
-0.0011223635
-8.7625365E-4
-8.256204E-4
-0.002577968
-0.0031778147
-6.5351144E-4
0.00181437
0.001352238
0.001040254
0.003108061
-0.0037466723
-0.01071952
-0.0028968167
0.0011970062
-0.0011687285
8.707372E-4
6.7245256E-4
1.8129266E-4
-5.686532E-4
-0.0028791628
-5.1460887E-4
0.001338346
7.7501626E-4
0.0015775883
0.001371272
0.0010414692
0.0020722526
0.0023246296
0.0010179692
3.8078215E-4
8.925762E-4
6.4395E-4
-2.24996E-4
-0.0013024432
-0.0013325509
-4.616472E-4
-2.4888653E-4
2.994456E-4
-8.1283494E-4
-0.0033363933
-0.0023284259
6.998006E-4
0.0016335263
0.0012476096
0.0021795242
0.003201445
0.0023311537
0.0018793506
0.0019288323
0.0014683122
0.0016000154
2.5789646E-4
-0.0023326217
-0.0017711255
7.6845005E-5
-7.2424905E-4
-5.563942E-4
0.0018372387
0.002163102
0.0011541843
0.0011245566
0.0024023692
0.0034973314
0.0015420001
-0.0012891792
-0.008209969
-0.023790585
-0.029149292
-0.010493424
0.009225
0.010981559
0.0067041037
0.006780642
0.0067716395
0.0048784977
0.0030017034
0.0014398685
-1.0150024E-4
-8.7010866E-4
0.0011257444
0.0030796127
0.0016529105
0.001307184
0.0030440232
0.0026333157
0.0022059279
0.0024875426
9.411233E-4
5.534154E-4
7.4075826E-4
-0.0010124109
-0.0016686424
-0.0025837228
-0.00399793
-0.0022013884
-5.293599E-4
-7.3311495E-4
-0.001154372
-0.0019170091
-0.0014183446
-5.756201E-4
-1.2512947E-4
2.2066075E-4
-5.63536E-4
8.843578E-5
0.0011114799
5.1392394E-4
0.0013552405
0.0021308025
0.0011269487
-3.5039717E-4
-0.0013189149
-4.6074195E-4
-3.351766E-4
-0.0010186629
-3.5997157E-4
-0.0011618132
-0.0023323412
-0.0015556936
-7.61372E-4
-4.3598446E-4
-8.560376E-4
-9.038414E-4
9.530814E-4
0.0025835172
0.0026514
0.0014722283
1.4099212E-4
5.623153E-4
0.002354421
0.002877836
8.605714E-4
-5.2716845E-4
-2.46478E-4
-0.001994703
-0.0030339765
-6.240824E-4
0.0012056339
0.0023140206
0.0020057238
8.11334E-5
4.842762E-4
-2.056373E-4
-0.0019741498
-4.684738E-4
-5.557426E-4
-0.0020733834
-0.0012308878
-1.4191825E-4
0.0010940176
0.001316861
6.0834433E-4
0.0013862445
0.0013650892
-1.5539496E-4
-0.0017825654
-0.0022677872
-6.5752865E-5
0.001595051
8.013365E-4
8.2766515E-4
0.0015183234
7.970215E-4
-1.1214155E-4
-5.7558005E-4
-0.0016207778
-0.002161165
-0.0015423854
-9.684691E-4
-9.7194774E-5
3.9645494E-4
-3.625021E-4
-9.569365E-4
-0.0010906616
-1.6592635E-4
0.0013628018
0.0012102498
9.3902356E-4
4.91402E-4
-0.0019709945
-0.0026858277
-7.778633E-4
4.9724662E-5
1.512092E-4
0.0015005859
0.003515616
0.0033502958
0.0011088443
6.591841E-4
0.0014015323
4.0454586E-4
-7.223879E-4
6.953143E-4
0.0024008462
5.568086E-4
-0.0013604078
4.7172353E-4
0.0014794389
-6.5643835E-5
-3.797925E-4
-0.0011625232
-0.002936626
-0.0010767388
-2.9758528E-5
-0.0021839836
-6.9044856E-4
-1.3253767E-4
-0.0015394659
0.0010338998
1.314951E-4
-0.0030535094
-0.0013918203
0.0017081598
0.0024477427
-0.004649786
-0.009737553
-0.0014850124
0.0041659568
0.0022962124
0.0021879533
0.0023546505
0.0023818484
0.0020678414
0.002116452
0.0028838506
0.0020491006
0.0014007068
-7.246983E-4
-0.0023928583
-6.844889E-4
-4.72551E-4
4.890791E-4
0.0014453485
-0.001200721
-0.0015871873
-5.1828247E-4
-1.1791188E-4
0.0012985087
0.0010929771
3.7021146E-4
-6.3155213E-4
-0.0028125627
-0.0031129553
-0.0031338069
-0.0031704027
-0.001569181
-7.576399E-4
4.2217295E-4
0.0018086645
0.0016621284
0.002694559
0.0033147996
0.0024510028
0.002313882
0.0017428898
0.0012333983
6.4737455E-4
4.023663E-4
0.0016808627
8.472103E-4
-1.0547139E-4
3.663893E-4
-0.0011950828
-0.0016672336
-6.670423E-4
-6.099308E-4
-0.002168508
-0.0047250297
-0.0024805893
6.5931707E-4
-6.5717904E-4
-5.7523773E-4
-7.698084E-4
-0.002370441
-0.0016030407
-0.0017158617
-0.0016492421
7.655133E-4
0.0022389418
0.0021197074
8.9832296E-4
2.9749956E-4
0.0010774465
5.249642E-4
8.821332E-5
0.0013143137
0.0013183512
6.4261287E-4
9.211092E-4
0.0011520048
0.001549123
0.0012013235
3.1243404E-4
0.0016093388
0.0017624861
-9.867841E-4
-8.7710563E-4
6.406356E-4
-7.211209E-4
-0.0010058571
9.631788E-5
-5.66555E-4
-0.001073647
-9.117291E-4
-9.813558E-6
9.585E-4
-0.0011921189
-0.0019303707
3.3112464E-4
-3.7671806E-4
-9.999269E-4
-3.5983557E-4
-0.001611269
-0.0012735538
-1.8707993E-4
3.884962E-5
5.416748E-4
-6.6642597E-4
-0.0015321068
-2.622991E-4
0.0014459365
0.0023698595
0.001216272
8.437652E-4
0.00168547
4.0939238E-4
-6.4366695E-4
-2.5868963E-4
2.175337E-5
7.4373424E-4
5.270494E-4
-9.7573677E-4
-0.0010319734
6.3889376E-5
3.0051963E-4
1.7913518E-4
2.6397515E-4
5.3698063E-4
8.1592123E-4
1.6472263E-4
-1.0309586E-4
6.0424814E-4
3.7943534E-4
2.0779959E-4
5.7865986E-5
-0.0012703271
-0.0013363818
-7.9804234E-4
-0.0013915803
-6.476123E-4
6.8153406E-4
5.1979814E-4
7.129172E-5
-5.3082634E-4
-7.176731E-4
3.33974E-4
9.095636E-4
1.3205134E-4
-0.0012567069
-0.00119203
2.4448073E-4
8.0424616E-5
-3.8540753E-4
1.3996744E-4
0.0011168869
0.0029174106
0.0016787256
-0.0012344657
-4.503433E-4
0.001353919
0.0024028942
0.0028748654
0.001993726
-2.7461996E-4
-0.0025744366
-9.229429E-4
2.762465E-4
-0.00216989
-0.0016147523
2.903253E-4
4.899632E-4
-4.9563986E-4
-0.0022179866
-0.0010985947
-5.5554364E-4
-0.0018303049
-0.0013321562
-0.001972388
-0.0029342407
-0.0026431715
-0.0015129948
7.839701E-4
9.569265E-4
3.5154074E-4
0.0012529279
0.002116536
0.0029335592
0.0026105598
0.0014897196
0.0014093915
0.0018763349
0.0017441924
0.0017810252
0.0027166496
0.002332152
8.3921105E-4
8.031521E-6
4.97711E-4
5.9630506E-4
-0.0021116855
-0.0015314883
0.0016316787
4.2654827E-4
-9.327365E-4
-0.0019115505
-0.0022959814
-0.0010129906
-5.2661455E-4
0.0011442985
-0.004004173
-0.010992693
-0.0044299546
0.0014880558
0.001257662
0.0024403406
6.4955064E-4
7.531119E-5
1.6167891E-4
-0.0019007901
-3.2775357E-4
0.001328043
0.0016100276
0.0024207318
0.0019884384
0.001302455
1.0812079E-5
-7.438265E-4
6.363015E-4
0.0020418607
0.0018914934
3.130538E-5
-0.0013608051
-6.9925754E-4
9.731834E-5
-6.9765135E-4
-0.0011698477
1.3362593E-4
6.2604685E-4
4.183787E-4
0.0017989896
0.003290564
0.0024991196
2.1008031E-4
-0.0023726774
-0.0052598906