0.0010945085
3.0033468E-4
5.2328035E-4
0.0011787558
3.174884E-4
-6.185158E-4
-3.948584E-4
-9.802558E-4
-0.0012690562
-3.3571827E-4
1.9347061E-4
0.0018011234
0.0021682475
-3.609516E-4
-1.887634E-4
4.3122767E-4
-0.0018920786
-0.0021203405
1.6706141E-4
0.0016174411
8.1948505E-4
1.2228767E-4
0.0014878132
0.001022712
-4.0570577E-4
-1.8593858E-4
-3.499912E-4
-5.292808E-4
-8.8670576E-4
-0.0015065107
-0.0016916305
-0.0014855657
-7.9890754E-4
-0.0014397928
-0.0014267126
-3.7392363E-4
-3.755187E-4
0.001574172
0.0034242515
0.002906936
0.0016155385
-1.5346619E-4
2.472032E-4
9.990201E-4
0.001341687
0.0019209335
2.4973977E-5
3.9952106E-4
0.0016545892
-6.7215913E-4
-0.0010394378
5.9218775E-4
0.0016524601
0.001292571
-7.865208E-4
-0.0023703543
-0.0010432564
0.0025264318
-3.939722E-5
-0.0021190534
0.0013511874
-0.007676169
-0.014993394
-0.003391245
0.0037722292
0.0023583488
0.0018272201
9.134741E-4
0.001593171
9.418273E-4
0.0011212413
0.002791648
0.0010308776
5.3347426E-4
4.709468E-4
-1.5316531E-4
0.0011531595
3.3641033E-4
2.4330942E-5
0.001724083
0.0012956307
4.971736E-4
4.7294426E-4
7.152389E-5
-9.196433E-4
-0.0013344655
-3.3060135E-4
-2.3940214E-4
-8.294794E-4
4.8084703E-4
0.0017654455
-1.04740364E-4
-0.0018898662
-4.1010985E-4
1.6076288E-4
-7.4525544E-4
3.0511673E-4
0.0012279182
0.0010840767
0.0017488442
0.0017318346
4.3985576E-4
1.774554E-5
-5.142487E-4
-0.0021829593
-0.0017635864
-2.522374E-4
-7.2300615E-4
-4.6620765E-4
2.2545051E-4
-6.220207E-4
-1.5549545E-4
2.0802353E-4
-0.001155148
-3.2831755E-4
-2.0998788E-4
-0.003071983
-0.0018564274
7.163102E-4
-0.0013368701
-0.0014791558
9.001264E-4
9.875454E-4
0.001634903
0.0026102168
0.001314234
3.9909086E-5
2.5097202E-4
2.4093955E-4
-7.23211E-4
-3.16286E-4
0.0014804958
0.0014623704
2.136716E-4
-2.3847632E-4
-3.7743596E-4
-1.5468228E-4
4.2124998E-4
7.0776406E-4
0.0014926505
0.0016982626
-7.858144E-4
-0.0023606315
-6.456189E-4
3.1638937E-4
-5.683239E-5
1.2766838E-4
7.5930596E-4
0.0012196179
8.289353E-5
-0.0011232507
-0.0010143878
-8.415537E-4
-9.884665E-4
-0.0020448843
-0.0013147173
5.02701E-4
-8.487905E-4
-5.847327E-4
8.4267446E-4
-4.2058123E-4
4.9526093E-4
0.0010566748
-3.877926E-4
7.848243E-4
7.2217546E-4
-0.0011968148
-9.4466837E-4
1.1302944E-4
7.0522376E-4
4.111534E-4
-1.1108332E-4
2.336937E-4
7.2676985E-4
0.0015194934
0.0014902819
1.4174568E-4
5.6644436E-4
0.0019019392
3.9194364E-4
-0.0020965948
-0.0027143755
-0.0023513222
-0.0010952697
3.747279E-4
3.7218627E-4
1.4376854E-4
2.17755E-4
-1.3637877E-4
3.8014815E-4
0.0012547165
1.5707592E-4
-0.0014985554
-0.0015416498
-9.972264E-5
0.0023051286
0.0021428515
-8.8326994E-4
-0.0013461545
-2.917904E-4
9.478987E-5
0.0011039623
0.0020296513
0.0029051087
0.0014009399
-0.0010277919
1.8724888E-4
7.2182185E-5
-0.0015861569
-9.941447E-4
-0.0012820964
-0.0014559646
-8.1747095E-4
-7.913663E-4
4.5930402E-4
0.00104082
-7.622844E-5
-1.40511665E-5
6.627046E-4
5.4986245E-4
3.527173E-4
-2.4810556E-4
-3.3594333E-4
5.4698205E-4
-8.267869E-4
-0.0019765738
-5.659831E-4
-6.266966E-4
-0.0011365808
-0.002160708
-0.0022324119
0.0013236351
4.7528002E-4
-0.0016887652
0.001136525
7.2559225E-4
-5.4381386E-4
6.4964883E-4
-5.7724974E-4
-5.817807E-4
0.001275872
0.0019564056
0.0021425805
0.0014575215
0.0017555841
0.0022756248
-2.3950639E-5
-6.6506764E-4
0.0015735666
0.002142792
0.002468803
0.0022084229
0.0011387826
0.0016526221
-0.0012582372
-0.0042563654
-0.002281619
-0.0014830405
-4.800422E-4
-2.2921867E-4
-0.0011846141
2.0454983E-4
-0.0020155371
-0.0019982536
-0.0022115794
-0.011139379
-0.009281354
0.0015104625
0.0044424585
0.004654242
0.0028440615
0.0021702985
0.0031154978
7.1879325E-4
0.0010005799
0.0017551726
0.0010858979
9.6115825E-4
-7.198876E-4
6.668029E-4
0.0020177278
6.3823326E-4
0.0014983099
4.2359365E-4
-0.0016833445
-1.2583476E-4
4.6573067E-4
-0.0019415873
-0.002373761
2.0506859E-4
6.733544E-4
-1.4086181E-4
-3.4312648E-4
-0.0019374816
-0.002010588
-8.0241414E-4
-6.025303E-4
-2.1531079E-4
-3.5658534E-4
4.730943E-4
0.001578545
6.156992E-4
7.6244574E-4
0.001775024
0.0015549045
0.0010185922
-1.2530835E-4
-8.215656E-4
3.5967666E-4
8.869924E-4
-5.9229456E-4
-6.746606E-4
8.684283E-4
-1.1226652E-4
-0.0022219336
-0.0013524888
1.714469E-4
-9.022909E-4
-0.001535277
5.7626446E-4
0.0020004332
0.0011778388
-4.578798E-5
-7.808164E-4
-4.2044942E-4
4.0711902E-4
5.1200687E-4
3.1640186E-4
-7.45045E-4
-0.0025360691
-0.0023263653
-0.0010172162
-5.093132E-4
9.323851E-4
0.0019332109
9.3410217E-4
4.6742274E-4
2.2433145E-4
-9.96538E-4
-0.0016087864
-5.802551E-4
0.0013077977
0.0013907151
-2.615335E-5
5.6081737E-4
7.859982E-4
-8.579559E-4
2.921542E-4
0.0014211016
-3.9010937E-4
4.894276E-4
0.001782314
-8.0556085E-5
-6.016767E-4
8.270327E-5
-1.0849038E-4
-5.3091167E-4
-4.421285E-4
3.7712618E-4
0.0010444095
0.0013063013
-4.380342E-4
-0.0013499644
9.929546E-4
4.1775464E-4
-6.9179334E-4
3.5210128E-4
-3.625911E-4
1.7794236E-4
2.671009E-4
-2.772192E-4
0.0010648754
-2.3852538E-4
-8.338394E-4
-9.89393E-4
-0.002793358
-1.7534553E-4
0.0014567033
-5.3088757E-4
-0.0011413759
-0.0015060647
-6.361441E-4
3.742727E-4
-4.8656566E-5
-5.553253E-4
-7.6790666E-4
7.352483E-5
-3.667268E-4
-8.2915445E-4
-1.9790741E-4
-0.001091662
3.0214216E-5
0.0016839895
0.0012706583
0.0023573646
0.002334621
4.6666685E-4
2.702117E-4
0.0011394783
0.0014502684
7.069136E-4
2.6570485E-4
2.1163207E-4
3.1994943E-5
0.0011369861
0.0018661994
-3.368201E-4
-0.0023617162
-3.0365709E-4
0.0015812899
-5.4611196E-4
-0.002007936
-0.0011730067
-0.0010183898
-0.0012117901
-4.9458916E-4
3.1582567E-5
-8.12163E-4
-9.170708E-4
-3.6413603E-5
-6.4009783E-4
-0.0014976462
-0.0015082795
-7.970265E-4
4.153767E-4
3.6999883E-4
-6.295382E-4
-0.0014320238
-0.0010218458
6.525777E-4
0.0017870907
0.0018324469
7.9272815E-4
5.860459E-4
0.0012357116
2.8030656E-4
-4.6461218E-4
-9.3903847E-4
-0.001038746
2.4830244E-4
3.2701952E-4
6.612187E-4
7.548435E-4
-0.0010729791
-0.0011424082
3.7146846E-4
0.002116233
0.0025222907
0.0018515339
0.0021465842
0.0010904244
0.0012204052
0.0014475201
-3.0896152E-4
6.361051E-4
-4.185145E-4
-0.0012828845
1.629015E-4
-0.0022696243
-0.0013461744
-9.290922E-4
-0.0024321936
0.0018991621
0.0020453676
0.0018688033
3.7827698E-4
-0.0051537524
8.3263294E-4
-0.0027767208
-0.015583118
-0.006392752
0.0029286623
0.0024551635
0.004159571
9.3355187E-4
6.766701E-4
0.0026822125
2.436693E-4
-1.2314563E-4
-5.4446945E-4
3.998215E-4
0.0025141232
0.0021324763
0.0025334756
0.0020123443
0.0016369724
0.0020354716
-7.057014E-5
-8.1040786E-4
6.930048E-4
9.610259E-4
-6.38904E-5
-2.6468464E-4
3.8366223E-5
-8.548879E-4
-0.0012113549
-0.0014387699
-0.0012574724
6.0135376E-4
7.007508E-4
6.7401714E-5
9.588677E-4
1.2832494E-4
-0.0027506081
-0.002572281
4.5605682E-4
-9.625365E-4
-0.0030898515
4.2397055E-6
0.0014319783
6.8111345E-4
0.0015239124
0.0012894985
2.9298614E-4
8.764201E-5
2.4865795E-4
5.1968425E-5
-6.1087264E-4
-7.519707E-4
5.1607374E-5
5.586364E-4
-0.001712747
-0.0032144496
-3.7459395E-4
0.0014129876
0.0010579382
9.855852E-4
3.1420466E-5
-6.1652483E-4
-3.7093504E-4
6.7972526E-4
0.0021404277
0.0014228376
-6.0378213E-4
-0.0011106472
1.7108316E-4
9.459711E-4
-2.639377E-4
-0.001030417
-2.641263E-4
8.529192E-4
0.0012422078
3.9486482E-4
2.6267764E-4
4.0455576E-4
-7.0598436E-4
-0.001261994
-0.0013123808
-8.7105867E-4
4.209899E-4
6.7378825E-4
4.508374E-4
-1.4610285E-5
-0.001705762
-0.001851831
6.260893E-4
0.0010261047
-0.0014160633
-0.0012379014
1.8665986E-4
-4.4622945E-4
2.2520572E-4
9.825885E-4
7.680556E-4
0.0017473259
8.618368E-4
-3.697494E-4
3.7268185E-4
4.4234202E-4
7.174355E-4
-2.1724627E-7
-8.6569495E-4
0.0010107614
0.0010113557
5.091637E-4
0.002401005
0.001388635
-6.961226E-4
5.94928E-5
5.643996E-4
-5.467879E-4
-0.0016019864
-0.0013567433
-4.7722153E-4
-1.8611917E-4
-9.323419E-4
-0.001950207
-0.0016403514
-0.0015405574
-0.001751602
-4.585217E-4
-9.8380275E-5
-4.8268578E-4
-3.435189E-4
-0.0010553506
-9.187769E-4
-8.522186E-4
-0.0016679664
-2.1230342E-4
0.0016172488
0.0018934002
0.0019114703
0.0020514312
0.002677499
0.001641127
-5.5103085E-4
-1.0554907E-4
7.440099E-4
1.9412568E-4
7.512424E-4
0.0018337507
0.0015757168
9.6037606E-4
5.83851E-4
-6.645735E-4
-7.8743044E-4
9.269162E-4
2.3273064E-4
-6.590498E-4
0.001636702
0.0013042578
-0.0012473546
-0.001012706
-0.0016834475
-0.0025788592
-8.128019E-4
-0.0017485255
-0.0035168056
-0.0010710537
3.4976064E-4
-7.40705E-4
-8.256039E-5
0.0012635118
0.0012536088
2.4844403E-4
-9.876733E-4
-0.0012996405
-8.126307E-4
-7.727123E-4
-0.0011692432
-7.093306E-4
9.586422E-4
0.0015228265
4.414254E-5
-5.920947E-4
2.8778636E-4
0.0012174748
0.0015739893
8.7002025E-4
0.0010167016
0.0020037894
0.0018908443
0.0022799387
0.002024235
3.4350675E-4
5.0540053E-4
0.0013070789
6.9426483E-4
-1.7240198E-4
-3.186653E-4
-5.578639E-4
-0.0012368769
-3.730463E-4
1.1293285E-4
-0.00173917
-0.0032602716
-0.0028098698
-0.0010126043
-2.7653444E-4
5.8165484E-4
-1.7275284E-4
-0.0032027017
0.0021903447
0.0041790465
-0.009770783
-0.013546491
-0.0016071718
0.004538972
0.003566642
0.002073477
0.0028256837
0.0036932018
0.0018739188
7.5109635E-4
0.0014498914
0.003302049
0.0037990762
0.0018060323
5.142478E-4
5.170683E-4
4.0320776E-4
-0.0018364518
-0.0022993062
7.2328944E-4
4.600153E-4
-5.607098E-4
-0.001062439
-0.002564223
-7.454822E-7
0.0014652113
9.78148E-6
0.0013601907
0.0010982467
-0.0014893421
-0.002273089
-0.0026380874
-0.002887303
-9.6075056E-4
0.0012754889
5.320625E-4
-0.0010430278
-0.0014073234
-2.9837425E-4
0.0023196512
0.0030245185
6.929817E-4
-0.0017098199
-9.87654E-4
0.0011103975
6.711679E-4
-2.303086E-5
-2.0416273E-4
-6.6045386E-4
-7.267788E-4
-8.4062235E-4
-3.639702E-5
-0.0019204242
-0.004320012
-6.451831E-4
0.0022655593
0.0019766637
0.0015318446
0.0010616671
0.002947039
0.0021672312
-5.4835406E-4
4.7641585E-4
3.8951982E-4
-1.3483284E-5
7.3760154E-4
-4.6637862E-5
2.7242664E-4
4.3224063E-4
-8.8744325E-4
-9.697806E-4
2.1377983E-4
9.3120843E-4
-4.1224866E-4
-0.0012287992
1.8409692E-4
3.545837E-4
-2.6258128E-4
4.8402452E-4
9.340225E-5
-0.0019097154
-0.0020124572
-5.6660903E-4
7.676656E-5
-5.0543254E-4
-0.0023976306
-0.0018639007
5.986074E-4
-1.1119199E-4
1.4044048E-4
0.0022950647
0.001685881
3.655693E-4
-8.6677243E-4
-4.9727625E-4
0.0018171926
3.1129524E-4
-0.0016313643
4.995607E-4
0.001220854
1.0213492E-4
2.4300595E-4
-1.8053484E-4
-7.035484E-4
9.049461E-4
0.0018386489
8.676233E-4
0.001085685
9.453542E-4
-8.004405E-4
-0.0013228701
-0.001478087
-0.0011432557
6.461022E-4
1.5129623E-4
-0.001828465
-8.7297073E-4
6.839473E-4
3.6665273E-4
1.426216E-4
-2.7881865E-4
-4.1623658E-4
7.0991105E-4
1.6111594E-4
-1.9606129E-4
9.6154585E-4
-2.679571E-6
-2.4381684E-4
-2.856529E-4
-0.0025118825
-0.0014698715
9.83845E-4
0.0012356138
8.607759E-4
-2.7415343E-4
1.0143263E-4
3.2314852E-5
-0.001942189
-5.309049E-4
0.0018736
0.0016497915
8.7288464E-4
3.82631E-4
1.6660184E-4
-9.560447E-4
-0.0013451899
0.0011901921
0.0029813054
0.0026495182
0.0021936048
6.514448E-4
-0.0019300326
-0.00237204
-0.001683053
-0.0027181339
-0.0023887395
-2.4520562E-4
4.3616688E-4
8.4500696E-4
0.0015427332
6.461223E-4
-0.0010341213
-1.9703573E-4
5.282554E-4
-0.0022998492
-0.0024359915
-1.6101538E-4
-4.514038E-4
-7.288054E-4
-8.087524E-4
-1.5274188E-4
4.04001E-4
4.1269504E-5
0.0017023177
0.0011655487
4.3203204E-4
0.0025487016
0.0016573448
6.935225E-4
2.3205954E-4
-1.3992775E-6
0.001644135
-8.5144525E-4
-0.0023442
-5.640771E-4
-0.0013542185
-2.9727348E-4
4.7296472E-4
-1.6302335E-4
0.0015708463
0.001436137
0.0015048793
0.0046112877
0.005238158
0.0019883611
5.67277E-4
5.280741E-4
-0.0027098535
-0.003880534
-0.003080963
-0.0018293189
-2.0429495E-4
-0.0060817488
-0.0051180157
0.0018908238
-0.008194405
-0.010575729
0.0023184256
0.0022612761
0.0010011534
0.004683907
0.003622507
0.0030092336
-4.4672526E-4
-0.003907419
-0.0017713557
-5.1826228E-5
0.0012665001
0.0026570305
0.002275292
8.809028E-4
6.5083324E-4
0.002527571
0.003973099
0.005437366
0.0052172756
0.0035050053
0.005445643
0.0050485255
-6.334245E-4
-0.005652943
-0.010743148
-0.014382575
-0.0134992525
-0.009847505
-0.0062237047
-0.0051746336
-0.0036872935
-4.79256E-5
0.0024717494
0.003384696
0.0028460373
0.0036674412
0.0068465616
0.008443954
0.008365686
0.003635449
-0.0053700684
-0.009996289
-0.011752445
-0.012268634
-0.00934755
-0.007936847
-0.005363812
9.657492E-4
0.0048203543
0.0063722865
0.0076304614
0.010581191
0.016057301
0.019045597
0.016892556
0.007189165
-0.0041800006
-0.005432647
-0.0029983425
-0.00635004
-0.010352423
-0.009964997
-0.0057585817
0.0025484003
0.01005999
0.007361605
-6.994796E-4
-0.0040328936
-0.001578998
0.0052359984
0.010450443
0.011448582
0.01046671
0.0062115863
0.0034386117
0.0038008932
-2.2072137E-4
-0.00795592
-0.01549248
-0.018867543
-0.013599199
-0.0073745735
-0.0068380614
-0.0035832934
0.008747491
0.027981108
0.049749423
0.06592148
0.06977116
0.06170588
0.046478435
0.027026724
0.005381091
-0.013037434
-0.034938116
-0.06923872
-0.09564401
-0.09360185
-0.07328699
-0.059139263
-0.064848095
-0.07165339
-0.057838824
-0.040406637
-0.03524779
-0.02750718
-0.009762877
0.006159877
5.834507E-4
-0.02437695
-0.031694446
-0.023459045
-0.018415203
-7.421117E-4
0.009537316
0.03755894
0.14432664
0.2563032
0.30698264
0.3016757
0.23983608
0.19307034
0.170989
0.09030944
-0.045032177
-0.18588802
-0.2642489
-0.26027575
-0.22474225
-0.15450454
-0.09002036
-0.050583735
0.04152698
0.11604821
0.059923142
-0.09655119
-0.26134965
-0.32370582
-0.27465963
-0.19300336
-0.10882005
-0.02087676
0.084630035
0.1815391
0.23519887
0.25535637
0.2222875
0.15575553
0.114764206
0.104644276
0.106067985
0.08383798
0.04994879
0.027206603
-0.0073042307
-0.033068113
-0.05277136
-0.058242947
-0.019705495
-0.035676338
-0.12249233
-0.15737242
-0.124523394
-0.081567205
-0.07207036
-0.079256624
-0.053361647
-0.014781881
0.012084187
0.033690542
0.05131743
0.06688688
0.07962174
0.09077356
0.07519314
0.011393951
-0.05096647
-0.040186245
0.040544156
0.11850111
0.16124405
0.1630917
0.09928344
-0.004772841
-0.08120463
-0.09489431
-0.10403503
-0.13617367
-0.10774405
-0.062073104
-0.07841028
-0.079995945
-0.043017037
-0.0038032103
0.021168169
0.017484898
0.02704433
0.052772343
0.0601235
0.058051385
0.031247484
-0.014870878
-0.032167297
-0.012987097
0.016476935
0.024595438
0.008087134
0.0013238713
0.009783944
0.0057884404
-0.0034996925
-0.0018438371
-0.0027416241
-0.0038210491
-0.0021926025
-0.0084739765
-0.014388492
-0.017344836
-0.01679135
-0.010003015
-0.0061381403
-0.0021564364
0.0038551157
0.008458369
0.015276303
0.02113394
0.025876459
0.029289754
0.025566615
0.020163799
0.018116238
0.014086268
0.008456725
0.0057496154
0.0015047442
-0.005207444
-0.009340098
-0.01278665
-0.015825476
-0.017833376
-0.019898904
-0.01957086
-0.016514739
-0.010851958
-0.004287614
0.001387234
0.0062658563
0.0077546234
0.00847111
0.008032202
0.002661742
-0.0012969001
-0.0022597054
-0.0033082447
-0.0024916362
-0.001790923
-0.0040382547
-0.005869227
-0.0047966205
-0.003105972
-0.0013801635
-0.003049728
-0.0077275247
-0.0033163284
0.004158445
0.0034650776
0.0039037154
0.004685916
0.003428735
0.005319221
0.004549239
0.0035720214
0.005894358
0.005449254
0.0041708704
0.0020768407
-0.0011317492
-0.0020888797
-0.002306824
-8.604738E-5
0.0025512902
7.966301E-4
-0.001150359
-8.313523E-4
2.9021685E-4
7.398754E-4
1.7972621E-4
3.0796026E-4
8.876177E-4
0.0014053411
-1.5269012E-4
-0.0024100845
-0.0013723018
-0.0015397659
-0.0032547028
-0.0033545569
-0.0038328618
-0.00228305
-9.634027E-4
-0.0023013288
-0.0011952202
-7.742972E-5
2.3269327E-4
0.0021030218
0.0022288219
9.974436E-4
-6.6382036E-4
-0.0015140467
-9.684204E-4
-0.002506536
-0.002355456
6.773298E-4
9.058736E-4
8.645074E-4
0.002884533
0.0041692285
0.0037491631
0.0018227766
2.1168787E-4
-3.5322318E-4
-9.418245E-4
-0.0010144223
-3.0902776E-4
-6.0991493E-5
-5.579283E-4
-9.588214E-4
-0.0013023913
-0.0015517196
-0.0023438432
-0.002798676
-6.2472705E-4
-1.5591E-4
-0.0014711255
6.13897E-4
0.0021835626
0.0030932466
0.0043296763
0.0016423356
-9.740373E-4
-0.002126033
-0.0023443166
3.5251275E-4
5.5999856E-4
-1.3083949E-4
0.0018289046
0.0014438113
5.9805487E-5
-1.712683E-4
-0.0011039659
-0.0018748185
-0.0012674691
2.8911405E-4
0.0012152985
0.0012721089
4.1488328E-4
-2.1204235E-4
-4.2947886E-5
-0.0011778002
-0.0013670607
-8.126373E-4
-0.0014110826
-1.8739212E-5
7.6607475E-4
-3.7142672E-4
-1.0345993E-4
-1.0891194E-4
-6.3832506E-4
-9.0261106E-4
-8.236064E-4
-1.1093518E-4
-2.5658985E-4
-2.7438987E-4
-4.177076E-4
-0.0013071283
-2.864339E-4
2.8007972E-4
-0.0012589713
-0.0012743985
-0.0011283245
-0.0012326458
8.0043485E-4
0.0011792873
0.0012206713
0.0042639133
0.0036773311
-4.6891187E-4
-0.0010997498
0.0025487696
0.0057740225
0.0034547055
3.0332958E-4
-5.8894893E-5
-0.0015864411
-7.6284236E-4
0.003008226
0.002544122
-0.0026290717
-0.0046907733
-0.0010780654
2.124903E-4
-0.0013930274
-0.0027094155
-0.0033622026
-9.125729E-4
2.311571E-4
5.8061123E-4
-5.7278154E-4
-0.003416381
0.002809715
9.093931E-4
-0.013018683
-0.009148751
0.0013598206
0.0027908867
0.0036061916
0.0017321444
2.3958653E-4
7.9525315E-5
3.601286E-4
0.0031935864
0.002926076
0.0023307577
0.0024966074
0.0018446549
0.0026402064
2.71249E-4
-0.0018615412
-7.658056E-4
-8.8483485E-4
-1.4305444E-4
0.0013683466
0.0016205132
0.0011507089
0.0015519182
0.0022662713
7.305768E-4
-7.684243E-4
-0.0016684947
-0.0014406573
-5.348607E-4
-0.0019890496
-0.0015102228
-2.0770337E-4
-5.814247E-4
2.681378E-4
-5.852069E-4
-0.0010875396
-4.1726942E-4
-0.0016120042
-0.0013984883
-9.687322E-4
-4.30354E-6
0.0024950663
0.0021678542
2.4868338E-4
-3.5173867E-5
0.0014933104
0.0012640342
-7.9487177E-4
-5.94127E-4
-3.5222332E-4
4.9134553E-4
5.6934194E-4
-0.0024157234
-0.0018819557
-9.128719E-4
-9.808448E-4
0.0019813778
0.0011384482
-0.0010265267
-5.439229E-4
-0.0017369678
-0.0010665896
6.105016E-4
9.928352E-5
-1.7491402E-4
-5.111761E-4
3.302959E-5
3.2902468E-4
-4.1495493E-4
5.181468E-4
8.103824E-4
8.227285E-4
0.0020316339
0.0012535115
8.9465604E-5
4.7077678E-4
0.0010674854
0.0014819027
1.1857884E-4
-0.0015691207
-7.234732E-4
-2.415664E-4
-4.0583374E-4
0.0014324171
0.0014205452
-4.758131E-4
1.7117776E-4
1.6027587E-4
-7.77334E-4
4.840991E-5
-5.9816666E-4
-0.0020539917
-0.0017474279
-2.1243418E-4
0.0019823986
0.0025726233
0.0012581185
-5.544976E-4
-0.0013063224
-1.5595662E-4
-6.613731E-4
-0.0020602462
-0.001018675
-2.655087E-4
-2.335331E-4
3.007235E-4
-6.3393597E-4
-0.003080022
-0.0036686086
-8.8334654E-4
0.0011220762
8.0135535E-4
4.8703558E-4
1.9026545E-4
0.0010736664
0.0014982906
5.3434534E-4
0.0019181654
0.0016257956
-0.0011619983
-4.063145E-4
8.6826854E-4
0.0010970299
0.0017517488
4.7665153E-4
-0.0010500257
-0.001727131
-0.0010586564
0.0016077003
0.0013606776
-6.919954E-4
1.5076506E-4
2.5557997E-4
-8.5435796E-4
-2.7769041E-4
-8.0107513E-4
-0.002266638
-0.0015481234
-1.3012752E-4
6.9802144E-4
1.3243657E-4
-0.0010001976
0.0014758004
0.0032000027
3.237034E-4
1.3043465E-4
0.0017402709
7.171112E-4
-1.7982938E-4
-0.0011208417
-4.0046842E-4
0.0013280652
-8.005669E-4
-0.0020307605
-0.0010136443
-9.655874E-4
-1.9501256E-4
-0.0012782952
-0.0024173465
-6.488343E-4
-4.7877774E-4
1.2059776E-4
0.0019853737
0.0012128941
4.891459E-4
4.2961302E-4
-0.0014878338
-0.0023355854
2.5335402E-4
0.0019236068
0.0013172114
0.0015349837
7.89883E-4
-6.186915E-4
-8.0903206E-4
-5.977191E-4
-1.9441395E-4
-0.0019773806
-0.0020829753
0.0014033602
0.0015414119
1.988459E-4
-1.7022173E-4
3.2660575E-4
0.0015027465
-3.2845877E-5
7.433316E-4
0.002801201
5.4623827E-4
-0.0010351188
-0.0011515995
4.9507566E-4
0.003210021
0.003267352
0.0016252507
-7.114415E-4
5.4938626E-4
0.0021734303
1.2004849E-4
-6.4906094E-4
-0.0033986885
-0.004640203
-0.0017363988
0.001598688
0.004827687
-0.0062576625
-0.016886782
-0.004112649
0.0051992624
0.002875418
0.0020910427
-8.308674E-4
-3.201748E-4
0.0025010286
0.0023165136
0.0021351962
8.486558E-4
8.058005E-4
0.0015919824
0.0014387112
0.0013227755
2.8472632E-4
6.46633E-4
0.0014059505
0.0015160283
0.0012882852
-7.7641744E-5
8.7326975E-4
0.0011593173
-0.001432964
-0.0024071685
-0.0020110207
-4.574954E-4
3.355041E-4
-0.0016017925
-0.003384276
-0.002980861
-5.2646006E-4
2.758209E-4
-4.8333057E-4
-3.2337755E-4
-6.5927755E-4
9.308664E-5
9.2948653E-4
0.0011297943
0.0027218696
0.0023716816
0.0015816439
0.0025484553
0.0024160708
0.001397879
-1.6793457E-4
-8.9702697E-4
-0.0019366584
-0.0038209136
-7.0268754E-4
0.0029691302
0.0014432417
-9.88204E-4
-0.0025523095
-9.7516476E-4
5.0597475E-5
-0.0038918196
-0.0030586105
9.4281096E-4
2.989976E-4
0.0010629051
0.0014541533
-9.811127E-4
-9.675505E-4
-0.0010506461
-6.1954744E-4
0.0016460107
0.0013553051
9.798616E-5
-2.1757395E-4
-8.7516404E-5
1.0855826E-4
-1.3056125E-4
6.0629775E-4
0.0010580063
0.0015978321
0.00300689
0.00141647
1.2078714E-4
0.0015457994
-5.866814E-4
-0.0037526449
-0.002394639
2.6868723E-4
0.0016984099
0.0012173909
6.5700624E-5
2.685023E-4
-9.653565E-4
-0.0010711284
0.0015415625
-9.447592E-5
-0.0023003186
-0.0013161292
-0.0012363405
6.632557E-4
0.0023099408
8.185228E-4
-4.3500488E-4
-0.0017416269
-0.0010443815
-5.571391E-4
-0.0022644135
-5.395715E-4
2.1006569E-4
-0.0011651994
1.0596835E-5
5.265691E-5
9.1176754E-4
0.0026853608
0.0014908916
0.0012902231
0.0012926115
-1.7422695E-4
1.9320329E-5
4.299024E-4
-4.3567122E-4
-3.6952164E-4
0.001087454
7.7498733E-4
-8.401335E-4
-2.894023E-4
4.0736448E-4
-2.528066E-4
-3.2291238E-4
3.494953E-4
6.896001E-4
2.7746192E-4
2.9977706E-5
-4.6239383E-4
-0.0021548553
-0.0038710597
-0.0032583892
1.7104312E-4
0.0015684337
2.5249514E-4
8.641077E-4
0.0012962531
2.1701226E-4
3.580718E-4
8.399281E-4
6.092084E-4
3.3685841E-4
8.4306794E-4
0.0013041308
0.0011997272
9.843415E-4
-8.0594636E-4
-0.0017312219
-1.20698314E-4
5.310715E-4
6.052288E-4
-5.187844E-4
-0.0018491031
-2.859524E-4
-5.96865E-4
-0.0014930816
6.870957E-4
7.325059E-4
2.7545388E-5
7.600833E-4
-7.464873E-5
-4.7494628E-4
3.5319815E-4
5.380207E-4
1.1871528E-4
5.1249808E-5
0.001350615
0.001678219
-1.6017054E-4
-0.0014751938
-0.0018223333
-0.0016570297
-0.0011942568
-0.0013914026
-0.0013573213
-9.321137E-4
-1.67906E-4
0.0019999025
0.0021948935
-3.6556902E-4
-8.6843694E-4
-4.9379945E-4
-3.45733E-4
0.0010877377
0.0015646097
0.0018210644
0.001727237
5.860419E-4
0.0011593811
0.0016998955
0.0013056531
3.9159338E-4
-4.654469E-4
-1.1599668E-5
-0.0011971527
-3.7332758E-4
0.0022352058
0.0017078437
0.0017113342
-0.0023399685
-0.0034076963
0.0018504679
-0.008020326
-0.014707028
-0.0015493722
0.0035300765
0.0014669506
0.0021568544
0.0010686985
0.0033307401
0.0034561509
5.594441E-4
0.0012174118
0.0015648518
0.0012214599
-1.6670045E-4
-0.0011339255
6.1779964E-4
0.0014413563
0.0022765656
0.0015525331
-0.0013020685
-7.512336E-4
-3.2135428E-4
-0.0014638316
-3.0258347E-4
-4.3615393E-4
-0.0012575579
-1.4010743E-4
-0.0010321587
-0.0017886924
-6.777284E-4
-0.0016351333
-0.0014154593
2.7786728E-4
-1.3088786E-4
9.882208E-4
0.0019978092
1.6134696E-4
8.418638E-4
0.0026487552
0.002013213
0.002763739
0.0031097326
9.5356716E-4
5.957299E-4
-6.750026E-4
-0.0014893981
0.0013766444
4.2358018E-4
4.9280585E-5
0.0010444435
-0.0013607959
0.0019111631
-0.003696207
-0.01774681
-0.008921784
0.0037046599
0.0015088707
0.0024625252
0.0024338635
7.559159E-5
0.0010938188
4.8097278E-4
9.2564494E-4
0.0021425234
0.0020814964
6.117775E-4
-7.833818E-4
0.0019997004
0.0020028995
-0.0012702645
-4.2542405E-4
0.001014199
0.0017120342
0.0013588183
4.1049402E-4
0.0032778257
0.003822119
-8.084323E-4
-0.0020672812
-3.5872255E-4
-6.831434E-4
-0.001563754
-0.0025450517
-0.00362573
-0.0027853737
-0.0016513503
-0.0010687162
4.743121E-4
0.0018062695
0.0025593915
0.0023406832
1.0640389E-4
-0.0019386122
-0.0012116706
0.0011903071
0.0020524582
0.0021893396
0.0019067216
-0.0014252702
-0.0033642186
-0.0014516659
-4.807481E-4
-6.163234E-4
-7.857114E-4
-9.077931E-4
4.1616603E-4
0.0016418595
0.0013692613
6.599945E-4
-3.9092137E-4
-0.0015742482
-0.0015290233
-4.7470164E-4
6.9895346E-4
0.001739666
0.0015809686
6.5550406E-4
1.7130285E-4
1.07693675E-4
1.3227972E-4
-1.0616846E-4
3.7979316E-5
3.7489788E-4
3.4540042E-4
7.247563E-5
-7.601011E-4
-3.7813038E-4
2.3052398E-4
-6.9242355E-4
-3.0910026E-4
-4.1681895E-4
-0.001936396
-7.7049003E-4
0.0021975548
0.0027029777
-0.0011154963
-0.0026288494
8.180515E-4
0.0016862367
0.0015881445
6.473048E-4
-0.0022447596
8.361328E-4
0.0030220572
-9.1060303E-4
-0.0019652618
-0.0013824818
-3.1539277E-4
9.061289E-4
-4.501799E-4
-1.6390647E-4
-4.280059E-4
-0.0015514101
2.2362816E-4
4.2641335E-5
-3.4080734E-4
3.6121864E-4
-0.0010043405
-3.6305754E-4
4.418576E-4
4.7167935E-4
0.0019476241
2.823948E-4
-6.3480175E-4
0.0014077886
3.0466414E-4
-1.0636745E-4
0.001923697
0.0022396315
0.00152939
-5.6308156E-5
-0.0011000936
-8.551507E-4
-0.0023400804
-0.003385812
-0.001642695
-0.0011987056
-0.0020384223
-6.142235E-4
-1.8890406E-4
-0.001422165
1.2633188E-4
0.0013157007
4.3158844E-4
0.0012121713
0.0020019624
0.0017808811
0.0017631911
1.5744622E-4
-0.0014951028
-2.0752834E-5
0.0016977838
0.0012464765
0.001212586
0.0017107489
0.0014964184
0.0010273476
5.875319E-4
0.0010148946
0.001568059
0.0023165718
8.2738494E-4
-0.0041358164
-0.0019348293
4.4781293E-4
-0.009498725
-0.009438561
0.0030919588
0.0042635812
0.0016166859
0.0010165846
-0.0028878255
-0.0024565808
-0.0016263699
-0.0025714927
0.0010270663
0.0027220869
0.0023546848
0.0028767504
5.472917E-4
-2.7364912E-4
0.0013571965
0.0011776695
5.026181E-4
0.0012525977
0.0032495514
0.0015723867
-0.0020925393
-3.546456E-4
0.0010807267
-6.957465E-4
-0.001380619
-0.0021071753
-0.0018613283
-0.0016019489
-0.0013233069
4.5750535E-4
-7.186052E-4
-0.0012636452
3.718533E-4
-7.036398E-4
-3.9492306E-4
4.1891943E-4
-2.2355278E-4
0.0011946118
0.001603233
7.872547E-4
2.948743E-4
-7.1436807E-4
5.0803105E-4
0.0017151461
6.020717E-4
0.0015952515
0.002947117
6.1828364E-4
-6.960248E-4
1.1907295E-4
-4.3514842E-4
2.723773E-4
4.151272E-4
-8.994796E-4
0.0013228535
0.0013286475
-0.002132699
-0.0024503088
-0.0021545996
-0.0021783167
-0.0026158248
-0.0028403203
3.0049825E-5
0.001477275
0.0017804344
0.0024560713
4.3655894E-4
-5.096135E-4
-8.08168E-4
-0.002074778
-8.8120403E-4
-9.907001E-5
-7.2951516E-4
-6.4304715E-4
-6.436402E-4
8.84675E-5
0.0017815738
0.0028502855
0.0013685996
-0.0014572213
-0.001993161
7.34734E-5
0.0031569912
0.003315848
3.6285704E-4
-2.8467222E-4
1.6278557E-4
-7.7776844E-4
-0.001119065
1.5265562E-4
0.0018201232
8.784736E-4