4.2003355E-4
0.0011659526
0.0011941596
0.0015578881
9.164161E-4
0.0016346669
0.002097491
0.0024020998
0.0020248895
-0.0011822665
-0.0010938519
0.0014331861
0.0013292399
0.0015844454
0.0016345533
0.0010108174
0.0010967123
0.0012438206
0.0015503725
-9.594543E-4
-0.0033994473
-0.0028013333
-0.0046979077
-0.004142515
7.1659975E-4
0.0014116343
0.0010908861
9.3092996E-4
-0.0011268482
-4.333698E-4
6.827975E-4
-3.1417867E-4
-0.001293982
-0.001552763
-3.1428633E-4
1.7654177E-4
-6.706851E-5
9.7050314E-4
0.001189557
6.9341055E-5
-2.7491924E-4
0.0013319586
0.0010643343
-0.0020629521
-0.0016926778
-1.4277382E-4
-2.74262E-4
0.0015114602
0.0016705083
2.3527128E-4
8.991073E-4
6.09811E-4
2.99902E-5
4.0805843E-4
-1.2341194E-4
-3.9624659E-4
-4.8606968E-4
-7.536963E-4
-2.5291083E-4
-6.870362E-5
-9.6101477E-4
-0.0014986034
1.6005395E-4
0.0014129832
-7.219629E-5
1.7464376E-6
0.0015294964
0.0012587232
0.0013684945
0.0015545635
6.331604E-4
2.5221483E-5
-3.2407985E-4
2.8048658E-5
-4.1896454E-4
-0.0022356883
-0.0015371104
-1.9289971E-4
-9.515577E-4
-1.656214E-4
8.1234553E-4
5.3095934E-4
0.0021779826
0.0010396753
-0.0026755247
-5.8490736E-4
0.0012629558
-0.0011578226
-7.4620923E-4
-6.4031105E-4
-0.0018984843
-4.2956625E-4
-3.0836675E-4
-9.272014E-4
5.742292E-4
0.0014712856
0.0016208255
0.0011166905
1.3320838E-4
2.4373949E-4
-2.4772871E-5
-6.606103E-4
1.43801E-4
-1.5381155E-4
-0.0020456505
-0.0014213731
3.1674205E-4
8.3912245E-4
0.0015426906
0.0011636065
0.0011969554
0.0023251572
0.0011281036
-1.7490295E-4
-8.129771E-4
-0.0013787964
-8.54868E-4
-0.0019809103
-0.001476949
0.0011888014
8.56264E-6
-1.8454053E-4
0.001616963
3.4846857E-4
-4.0430273E-4
-8.976013E-4
-0.0026999672
-0.0019377699
3.4103604E-4
0.0014437798
0.0018578689
0.0012716047
-8.2676025E-4
-0.0014446857
1.780336E-4
5.8477435E-5
2.3068732E-4
0.0018238612
5.363421E-4
-9.5295574E-4
-4.571176E-4
1.5686524E-4
0.0017684003
0.0032100459
0.0026014252
-8.1486104E-4
-0.0037541757
-0.0021702056
-8.1257185E-4
-0.0013447737
-0.0015249143
-0.0016053198
6.436505E-4
0.002140132
0.0015045379
0.0015543022
-7.954023E-4
-0.002493097
-0.0011418242
-6.313879E-4
5.0936255E-4
0.0010412083
4.9463586E-5
3.3712055E-4
6.2208483E-4
9.1477574E-5
-6.0329074E-4
-3.6678082E-4
2.0374269E-4
-1.798776E-4
-9.2627146E-5
-2.179405E-4
-3.4030495E-4
1.5927378E-4
1.3760348E-4
4.025613E-4
3.5147546E-4
-6.0250075E-4
-0.0017893572
-6.0035806E-4
0.0028150517
0.0028438568
0.0017879432
0.001980391
0.0011661291
-1.0026955E-4
-0.0024476259
-0.0010778535
0.0019314317
0.0010745308
0.0017285708
-4.8339815E-4
-0.0011991486
0.003997696
-0.002841309
-0.011412708
-0.0054991757
1.9568717E-4
6.2499964E-4
4.998327E-4
0.001550801
0.0026627774
9.4409485E-4
3.529491E-5
-5.661078E-4
-7.04064E-4
6.5988896E-4
4.5880233E-4
0.0021905105
0.0032440156
8.455318E-4
4.3210402E-4
2.92297E-4
-2.6334592E-4
-5.231303E-4
-6.662289E-4
8.191955E-4
1.7103307E-4
-0.0015843103
-0.0013880514
-9.3462504E-4
1.6550815E-5
-0.001075134
-0.0036157316
-0.002991856
-0.0010007081
2.3987258E-4
0.0012653018
0.0017321667
0.0015899112
0.0017146111
0.0016679548
9.4558107E-4
9.5013535E-4
0.0010551338
0.0015726556
0.0027693785
0.0015007799
2.568628E-4
0.002219823
0.003590536
0.0016025791
-0.0016185577
-0.0032044377
-0.0037011418
-0.0037590829
-0.0038189173
-0.004519842
-0.0035739196
-0.0014834102
2.0500502E-4
7.9532125E-4
-3.6149126E-4
1.1373758E-4
3.7490233E-4
-5.541251E-4
0.0016072745
0.0018713461
-8.028868E-4
-8.2876283E-4
6.837129E-4
0.0020064968
0.0019531308
0.0013272557
0.0019482581
0.0021416277
0.0017393903
9.34384E-4
6.0879765E-4
8.7001425E-4
-7.0333324E-4
-0.0018455238
-7.2279084E-4
7.207202E-4
8.7971345E-4
-1.8250437E-4
2.580863E-4
-7.5903296E-4
-0.0047795065
-0.00431585
-7.8772695E-4
1.7175174E-4
4.6787667E-4
0.0010027601
0.001641106
0.0011809202
-4.092162E-4
5.0770905E-4
0.002224896
0.0019111546
-4.3538073E-4
-0.003923187
-0.003398228
9.845482E-5
0.0014871061
0.002126187
4.6895488E-4
-0.0024809064
-0.0018321218
-4.0988694E-4
7.546718E-4
0.001829166
6.684355E-4
3.7705444E-4
7.858923E-4
-6.268616E-4
-0.0016186499
-0.0012039073
6.710446E-4
0.0020397329
5.591706E-4
-7.277717E-4
-4.9981166E-4
2.099273E-4
0.0013819102
-4.7005636E-7
-0.0022803664
-1.5565936E-4
0.0011753297
-9.241886E-4
2.3639835E-4
0.001539314
-6.4736436E-4
-3.2399278E-4
0.0018828306
0.0017150007
1.2353131E-4
-4.7381787E-4
1.2526652E-4
-9.0028194E-4
-0.0014971659
1.12173264E-4
-2.8843374E-4
-3.5189805E-4
0.0015747158
9.0916E-4
-9.128371E-5
9.6465216E-4
9.4679167E-4
-0.0011336505
-0.0035202852
-0.0030870086
2.053903E-4
0.0019311053
0.0010250878
6.1604474E-4
0.0016399418
9.5235015E-4
-0.0017140594
-0.001525343
7.6875486E-4
-2.9029849E-4
-0.0016904357
8.3491154E-4
0.0017405807
-4.293239E-4
-3.5065718E-4
7.5980474E-4
7.5067166E-4
4.1607578E-4
1.3084178E-4
3.6703638E-4
-0.0010281692
-0.0027770505
-0.0017676665
-0.0010958485
-0.00149829
-0.0012145782
-3.7202163E-4
4.8075823E-4
4.638674E-4
9.6435205E-4
8.6873554E-4
-3.2405817E-4
1.7864873E-4
5.902525E-4
0.0010341107
0.0013692117
-5.2714964E-5
5.237858E-4
0.002085817
0.0021176166
0.0015727624
0.0010113845
0.0018984478
0.0020004793
0.0018043321
0.0022326761
5.856761E-4
-4.745318E-4
-0.0014005711
-0.0016008968
2.0091175E-4
-6.874091E-4
-0.0013784624
-0.0016130701
-0.003588615
-0.0038991263
-0.0012165211
0.0035692907
-0.0019733186
-0.012336137
-0.0059983735
0.0022651984
0.0019545043
0.0020323335
-8.515108E-4
-8.2984584E-4
0.0018058168
2.7016865E-4
6.9761E-4
0.001023854
8.7563373E-4
0.0019906801
7.187025E-4
9.2484924E-4
0.0026792802
0.0034866116
0.0035512708
0.0018644378
0.0010946498
0.0012358276
2.7484546E-4
-1.7479306E-5
0.001192131
2.1713624E-4
-0.002999234
-0.0018750719
3.3248484E-4
-7.138282E-4
-5.380334E-4
-2.1489132E-4
2.4674338E-4
9.848133E-4
-2.58485E-4
-5.1451236E-4
-8.961874E-4
-0.0015967285
-0.0011039632
-0.0017979193
-0.0015689947
-6.392132E-4
-3.248289E-4
8.160995E-4
-3.5378188E-4
-0.0024924478
-0.0018299184
-0.001234497
-8.83471E-4
7.360165E-4
9.443695E-4
0.0011837215
0.0022028196
-5.2791275E-4
-0.0020175471
3.7179934E-4
-9.466794E-5
-4.0661386E-4
3.7070562E-4
2.5883794E-4
0.0017142734
5.650327E-4
-2.777953E-4
0.0017020708
0.0012783
0.0026120648
0.004231488
0.0027504244
0.0016516993
-8.590956E-5
8.9773536E-4
0.0022704378
-0.001742641
-0.0041952343
-0.0034541646
-0.0017735603
4.721252E-4
-2.8870808E-4
-0.0016644059
-8.470053E-4
-2.2338478E-4
-0.0015706407
-0.002240949
-9.971472E-5
-1.6547834E-4
-0.001255797
3.8979654E-4
-5.0687555E-5
-0.0016841223
-0.0015684542
-8.9150766E-4
8.7482657E-4
0.0014843424
2.3067383E-4
-3.2168409E-4
3.7731303E-4
0.0017151091
0.0023606273
0.002902339
0.0023052087
3.931044E-4
0.0013338329
0.0010615656
-0.0020095026
-8.269231E-4
9.500599E-4
5.4945867E-4
0.0010509875
-5.3486583E-4
-0.0015617278
5.456869E-4
7.9915905E-4
-3.4627176E-4
-9.267485E-4
-0.0022496514
-0.0026636661
2.5816725E-4
0.0024352774
8.183584E-4
5.677008E-4
4.539713E-4
-0.001824478
-0.0011291194
-7.1400777E-4
-0.0024281298
-0.0019242055
-0.0012690905
4.3843332E-4
0.0033303902
0.002286642
-5.022531E-4
-4.6847865E-4
7.503837E-4
2.322979E-6
-6.2286336E-4
9.423868E-4
0.0010004286
-3.0419682E-4
-1.2653332E-5
-3.2854052E-5
-4.1947752E-4
0.001091167
0.0017438348
-4.2891418E-4
-0.0014375404
-8.910369E-4
-9.960452E-4
-4.1044713E-4
6.846591E-5
3.3454152E-4
0.0013175133
2.4643663E-4
-0.0015733605
-3.361783E-4
0.0020501877
0.0017828577
-6.165348E-4
-0.0015224791
-0.0013348147
-0.0011532159
0.0011483424
0.0030475433
9.381859E-4
-9.698515E-4
0.0010083128
0.0020915263
3.4289053E-4
-1.13378606E-4
-5.4966786E-4
-0.0013168504
1.3098899E-4
-1.7613693E-4
-0.0019200011
-7.2527037E-4
-3.870043E-4
-0.0024126812
-0.002906143
-0.0024347557
-0.0018899353
-1.8338194E-4
0.0016543111
0.0029335371
0.002096794
-7.750148E-4
-3.135497E-4
9.925757E-4
-0.0010197266
9.099322E-6
0.0028393203
0.0025974296
0.0022144169
0.0020059184
0.0019932147
0.0010416463
-9.457667E-6
0.001976495
9.458802E-4
-0.0024886013
-0.0028928774
-0.0019496342
-1.9141701E-4
-0.0015547872
-0.0021463844
5.4171565E-4
-0.0015061662
4.6737626E-4
0.0030072965
-0.0018615208
0.0017259307
0.0010089905
-0.010647594
-0.0074575245
7.3556777E-4
8.7352743E-4
0.002077398
0.0020944297
0.002138799
0.0031123054
0.0022594896
0.001976997
4.7950362E-4
-5.075774E-4
2.9347886E-4
4.3557514E-4
0.0014552312
0.0014872567
-1.8289038E-4
-9.795282E-4
-5.955971E-4
5.5806775E-4
5.4231787E-4
-4.7780242E-4
-0.001787026
-0.0029495845
-0.0014941968
9.1392576E-4
0.0013876028
2.7726818E-4
-3.8254645E-4
8.164694E-5
-4.947867E-4
-5.9061963E-4
3.159476E-4
-4.5929683E-4
-8.813992E-4
-5.706403E-4
-3.467482E-4
2.875321E-4
4.3818186E-4
0.0016073204
0.0016929897
1.585181E-4
0.0016977147
0.0020938215
3.3601882E-6
7.0225727E-4
0.0010335405
-9.264604E-4
-0.0018921773
-0.0012393103
-8.204344E-4
-0.0013597885
-0.0012515967
-0.0019272519
-0.002537994
-3.8417813E-4
3.3373997E-4
-6.9766276E-4
-5.2302034E-4
1.2870228E-4
0.001676558
0.0021530404
0.0013033663
0.0017017518
9.687447E-4
-9.1749785E-4
-8.767603E-4
-3.9909792E-4
-0.0011764229
-6.315991E-5
0.002429435
0.0013517536
-8.917126E-5
5.37371E-4
2.0000304E-4
5.859104E-4
7.9587987E-4
-2.391137E-4
-2.0161668E-4
-1.1485971E-4
2.7561608E-5
-8.9421624E-4
-0.0026145878
-0.0015948266
4.1734318E-5
8.5733284E-4
0.0011321857
1.8703831E-4
-5.0948677E-4
-0.0012684112
-6.5495964E-4
6.565378E-4
-9.879335E-4
-8.893141E-4
0.0018215411
0.0015066871
-1.3641687E-4
-3.810888E-4
5.6719786E-4
6.492555E-4
-0.001580163
-0.0017425581
2.6456258E-4
-3.718395E-5
-7.022334E-4
-1.3637105E-4
4.0832895E-4
0.0010871792
3.4572498E-4
-2.9254312E-4
0.0015430136
0.0018241674
6.2340073E-4
3.1945793E-4
-0.0016058075
-0.0017902781
0.0015581711
0.0016016692
-5.521426E-4
2.7775596E-4
0.0017268902
0.001232752
-9.013174E-5
-3.8345697E-4
2.4411619E-4
5.680824E-4
6.423441E-4
3.3916347E-4
-5.328192E-4
-0.002021231
-0.0029213508
-0.0020595493
-0.0014418355
-0.0012632775
-0.0011066466
-0.0016684652
-7.7222247E-4
7.352912E-4
0.0010731426
9.189336E-4
-6.078302E-4
-9.712733E-4
8.93292E-4
0.0015817632
0.0015469963
0.0016378858
0.0012737303
1.0895619E-4
-6.4498367E-4
3.7651372E-4
4.8486458E-4
3.7308538E-4
0.0018796095
0.0025969315
0.0033405737
0.003186275
4.6284645E-4
-1.7408875E-4
8.2766014E-4
-0.0017295844
-0.00402234
-0.0017652159
-7.428014E-4
-0.0026049607
-0.0026754988
-0.002611685
-0.0032595652
-0.0018515071
-4.4124285E-4
-0.0014295435
-0.0020603144
-6.70372E-4
-5.2242517E-4
-0.0010120946
2.1933649E-4
8.48994E-4
0.0015644496
0.0029038666
0.0029332598
0.0023955298
0.0017208824
0.0015893384
0.0019918105
0.0025497538
0.002870626
0.0018585928
0.0020965207
0.0024765546
-1.0844307E-5
-0.001775693
-7.6545536E-4
0.0011126183
0.0013045094
5.1355985E-4
-2.1455111E-4
-0.0015217646
-0.0029668952
-0.006896715
-0.0044794227
0.00345256
-0.006196207
-0.016621925
-0.0055508045
0.0024784254
0.002103497
0.0039546983
0.0031555637
0.0033018172
0.004346259
0.0033101619
0.0024597547
8.1922277E-4
0.0014425323
0.0019776681
-3.2965996E-4
6.6941936E-4
0.0019331132
6.916282E-4
5.2551634E-4
-3.6288353E-4
-9.483744E-4
-5.4970285E-4
-0.0014139388
-7.390587E-4
9.770223E-4
6.265434E-4
-9.568596E-4
-0.0033418657
-0.0047936365
-0.0036925443
-0.002744516
-0.0028950563
-5.7069864E-4
0.003995395
0.0047457973
0.0019216783
0.0013099688
0.0030923327
0.005167687
0.005719608
0.0035224194
9.4060466E-4
4.073836E-4
5.543091E-4
-0.0014886467
-0.0032719492
-0.0030934734
-0.0046770643
-0.0063828076
-0.0058114016
-0.0044009252
-0.0032054284
-0.0034755408
-0.0036867368
-0.0036782934
-0.0029528756
-0.0012268896
-0.0025174546
-0.0027182274
-8.308754E-4
-0.0010615367
0.0017277413
0.0058354223
0.00804478
0.009458757
0.0074466523
0.006173787
0.006155432
0.0039258255
4.93758E-4
-0.002927938
-0.0019157095
-0.001327396
-0.005005755
-0.0060076755
-0.005860143
-0.0046219877
-0.0018945608
-3.2143458E-4
0.00434365
0.008559342
0.008910963
0.010097904
0.010728931
0.009604535
0.008689171
0.0069588944
0.0024450445
-0.0016204919
-0.0030699053
-0.0070752553
-0.010697122
-0.008704358
-0.0064587714
-0.005635365
-0.004398754
-0.0045698467
-0.0063845175
-0.007122149
-0.006189594
-0.007138541
-0.009365014
-0.010666581
-0.012559452
-0.01255382
-0.010435046
-0.0117862895
-0.013796611
-0.0088327825
6.386886E-4
0.010531159
0.024320032
0.037933804
0.04179986
0.03893067
0.036410354
0.035806715
0.038064446
0.038378745
0.02515268
-0.002755704
-0.03193741
-0.05184706
-0.06074411
-0.060108922
-0.05087217
-0.034471408
-0.020926699
-0.019091263
-0.021442873
-0.01625877
-0.0036713288
0.006334514
0.010399418
0.012859091
0.015383846
0.021164069
0.023507463
0.016356044
0.007845487
-0.011297847
-0.030803442
-0.018093703
0.0073053185
0.027538499
0.048112612
0.052024685
0.049786165
0.054738376
0.04518273
0.021293812
9.049464E-4
-0.005293668
-0.005905625
-0.01983575
-0.032738976
-0.022874597
0.006080106
0.035767395
0.043318704
0.031215971
0.022349292
0.021248614
0.014766819
-0.0059587457
-0.030680202
-0.046634573
-0.066103645
-0.0955097
-0.11662847
-0.12773879
-0.1260911
-0.098684624
-0.059109226
-0.01328128
0.028628873
0.040073372
0.036502335
0.0329048
0.025548222
0.018017717
0.007873436
0.010704566
0.02407716
0.0359892
0.06922948
0.10158931
0.105692
0.12395868
0.15980348
0.15658312
0.116492175
0.06969453
0.0068080374
-0.05150312
-0.10796384
-0.17703113
-0.17459287
-0.115402065
-0.094899006
-0.07880541
-0.0372123
0.031183776
0.10834884
0.10987189
0.041426092
-0.018857097
-0.02042574
0.030052468
0.045600276
-0.008032431
-0.067851156
-0.07373863
-0.049876843
-0.060117908
-0.072687574
-0.037821505
0.03397163
0.09846689
0.0779495
-0.014719693
-0.093825124
-0.12858486
-0.1045799
-0.029651232
0.038116235
0.036357656
-0.01923365
-0.035030488
0.005072883
0.038353074
0.052630253
0.07241779
0.09405274
0.1047497
0.12863041
0.14870605
0.09973294
0.022356302
-0.010022605
-0.015974976
-0.0053204764
0.019334828
0.013431741
-0.030447938
-0.09060501
-0.14158837
-0.13818912
-0.08606747
-0.03381952
-0.004403885
9.6048665E-4
0.0055921567
0.010565464
-0.009168252
-0.031630334
-0.034078617
-0.02182585
0.0013118748
0.024079299
0.04879752
0.07468078
0.077723555
0.047523748
-0.002834216
-0.039679267
-0.035335038
-0.0032477127
0.017143274
0.007255846
-0.008437504
-0.01183509
-0.013480333
-0.014988352
-0.011480105
-0.0078101824
-0.008278489
-0.0075933672
-0.0029423889
0.0011897992
0.005316119
0.0078021446
0.007427166
0.008394049
0.008243446
0.007379252
0.009648395
0.011722975
0.010601887
0.008531242
0.007032913
0.0038057775
1.3010924E-4
-0.0026368534
-0.005601447
-0.006296505
-0.0063926326
-0.0076564658
-0.007921062
-0.0068690064
-0.0040893415
-0.0016882931
1.19652104E-4
0.00205485
0.0018070561
0.001692024
0.0036261424
0.0072530964
0.010297076
0.009116588
0.0057464596
0.002008786
1.5762555E-4
0.0015388192
5.3955073E-4
-0.0028261386
-0.0041564917
-0.004222067
-0.0056210314
-0.007452592
-0.006187675
-0.0045668394
-0.004750995
-0.0038616573
-0.0027667147
-0.0013303877
5.105949E-4
0.0014572005
0.0023598608
0.0027070772
0.0026485773
0.0011459334
-6.845872E-4
0.0013740765
0.0037782367
0.003296853
0.0013353517
-7.19249E-4
1.9255465E-4
0.003287694
0.006102502
0.0067919265
0.004439668
0.00166672
-7.067533E-4
-0.002947886
-0.006520455
-0.0093234945
-0.007831963
-0.0070586824
-0.0051057916
4.2993095E-4
0.0040832
0.008013843
0.008661145
0.0030864114
-0.0012313693
-0.0029460627
-5.393254E-4
0.0044478816
0.008528507
0.011867259
0.009698366
0.006093827
0.002241056
-0.008393733
-0.015719296
-0.012873025
-0.005598889
-2.7081193E-4
-8.414386E-5
9.065695E-4
0.0031448833
0.0027060672
-1.9921933E-4
-0.0055995607
-0.008587621
-0.010294088
-0.013163713
-0.01135696
-0.00845053
-0.007160088
-0.00402642
-6.3382054E-4
0.003210205
0.005538429
0.007213709
0.01331093
0.016948951
0.014893354
0.013549031
0.011981568
0.008912048
0.004303265
-0.0016831415
-0.0034039866
-0.0029536374
-0.0040193154
-0.0012763274
0.0028745993
0.0025980796
-9.924674E-4
-0.0037134504
-0.0010982093
0.0015379761
3.063171E-4
-8.574424E-4
-0.004892477
-0.008303482
-0.006835445
-0.0070928996
-0.006515599
-0.008122373
-0.017447386
-0.016241118
-0.0013882347
0.005777407
0.0050690477
0.0059660217
0.0042272587
0.0011551726
0.0028114868
0.00468869
0.0035304404
0.0027518736
0.0029137437
0.0026830714
0.0011405771
-0.001013912
-8.5141126E-4
0.0015295028
0.003605534
0.00534805
0.006505679
0.0059830244
0.004859919
0.00301743
0.0023214638
0.003778286
-2.6676804E-4
-0.0075801844
-0.008208685
-0.0056435727
-0.0032910844
-9.220046E-4
-9.193425E-4
-8.0028904E-4
-8.2248516E-5
-6.298053E-4
-8.8313577E-4
-3.8174832E-5
5.734281E-4
-8.193446E-4
-0.0017464377
-6.573994E-4
1.7278003E-4
0.0012590328
0.0021586781
0.0024832787
9.1795594E-4
-0.0032029971
-0.0039286744
-0.0027227185
-0.0032113355
-0.003171182
-0.0048350464
-0.003855574
0.0014102246
0.0013420283
-5.6987243E-5
0.0015393705
2.493164E-4
1.0898518E-4
0.0024622113
0.0012832953
-2.3688446E-4
2.3707683E-4
1.6538726E-5
0.0010637192
0.0035367096
0.005434687
0.0066123144
0.0053593903
0.0038142335
0.003965437
0.0036743009
0.00412357
0.002576108
-0.0023780472
-0.0041363216
-0.0046108738
-0.0071950215
-0.00643908
-0.0020775008
5.0831866E-4
0.0010487185
0.0010680114
-0.0010940946
-0.002202395
-7.099175E-4
-0.0025022037
-0.003560908
-0.0015955941
-0.002606976
-0.0025149705
-4.88239E-4
9.384876E-7
0.001051423
0.001083171
5.047726E-4
7.2818575E-4
6.540147E-4
7.261149E-4
6.417558E-5
0.0014943084
0.004222901
0.002689972
6.088945E-4
8.322922E-5
-8.6057343E-4
-7.263218E-4
-3.1252905E-6
3.5083853E-4
5.9381422E-5
4.7511498E-5
0.0011360077
0.0018755165
0.0024850138
0.0015254559
-6.227438E-4
-3.949746E-5
-1.9538074E-4
-0.0025746727
-0.0018446868
-2.0508433E-4
-2.5083942E-4
7.013072E-4
2.9060437E-4
-0.0019231042
-0.001526758
-3.1611253E-5
-3.3323414E-4
-5.239484E-4
4.4504015E-4
-4.1570558E-4
-0.0021920004
-8.319643E-5
0.0014875294
-1.5697868E-4
5.009742E-4
0.0011558154
7.980314E-4
0.0013500528
4.8720036E-4
-2.4754343E-5
-6.0643104E-4
-6.443212E-4
0.0012504569
2.9538973E-4
-2.8762847E-4
0.0010297897
7.5381505E-4
6.68559E-4
-0.0011642829
-0.001823539
-3.928717E-4
-0.0022369844
-0.0018178456
-1.1126391E-4
-0.001707047
-0.0017800789
-0.0012372304
-6.624327E-4
0.0010461967
0.0019934017
0.0022220216
0.001170049
3.4840673E-4
-5.910926E-5
-9.114989E-4
4.177677E-5
6.4056914E-4
6.456102E-5
2.7215725E-4
-5.4343334E-5
1.4212707E-4
0.0014293827
0.0011849805
-5.7041354E-4
-0.001734467
-0.0012123102
4.6620445E-4
8.6588296E-4
-3.232754E-4
-3.626448E-5
1.9462866E-4
-8.704305E-4
7.7967816E-5
0.0010771854
0.0014083544
0.0024447017
9.949625E-4
-0.0010744486
-3.188222E-4
0.0012854417
0.0014327398
4.783696E-4
-2.5009268E-4
-0.0011344057
-5.828157E-4
0.0013652054
0.0015835866
-0.0012366612
-0.005368848
-0.001692701
0.0025086924
-0.00740719
-0.010534395
7.9267076E-4
0.0028181854
-5.40906E-4
0.0012748442
0.0018477014
0.0013289206
0.0013118781
0.0012684076
0.0018279082
0.002306192
0.0019893458
6.7997933E-4
-3.313245E-4
-7.2571484E-4
1.3742087E-4
0.0019402875
9.8769E-4
-8.941527E-4
1.5028824E-4
0.0010233585
-6.841957E-5
3.756021E-4
0.0016834232
6.0875865E-4
-8.641711E-4
-0.0016443375
-0.0025095372
-0.002071395
1.2071416E-4
0.0019907483
-5.1713076E-5
-0.0029107216
-0.0013725531
3.3244415E-4
0.001293544
0.0038882075
0.004079856
0.001945829
3.8268545E-4
-0.0012693009
-0.0017596727
-4.1948073E-4
-6.178362E-4
-0.0019618866
-9.726824E-4
1.1327637E-4
-5.985315E-4
-0.0017663329
-0.0021861554
-9.937643E-4
-0.002394175
-0.004606818
-0.0013300534
0.0019709698
0.0023930757
0.0019901714
1.3608995E-4
-5.600381E-4
-6.305723E-5
0.0011835467
0.0020697832
5.5010006E-4
9.803501E-4
0.0012790074
-0.0010696922
-3.828416E-4
0.001109172
0.0011934235
0.0022750911
0.002051042
9.121018E-4
9.625697E-4
6.028276E-4
-5.374053E-4
-8.7519654E-4
-3.9456284E-4
-8.1440056E-4
-0.002371241
-0.0026001523
3.251256E-4
0.002729253
9.522654E-4
-4.143395E-4
0.0010307519
8.881793E-4
-7.3319057E-4
-0.0012515282
-0.0016480671
-0.0022343558
-0.0011912342
0.0012065847
0.0017349904
-1.04299914E-4
-0.0010699454
-5.8397406E-4
-0.0010847095
-0.0019228047
-2.9876432E-4
0.0017794595
0.0010609659
1.5177074E-4
9.4291515E-4
2.224636E-4
-0.0014768384
-3.8535535E-4
9.738788E-4
-1.6128429E-4
-9.2125323E-4
-1.6449633E-4
0.0012983497
0.001417635
-4.7757057E-4
-6.375095E-5
6.749256E-4
-9.454581E-4
3.5819216E-4
0.002116153
7.9032243E-4
4.3423373E-5
-6.775235E-4
-6.900853E-4
4.9029867E-4
1.7756141E-4
1.5274671E-4
2.1175631E-4
-1.5877467E-4
-3.288512E-4
-0.0016929462
-7.7656965E-4
0.0014780976
4.6628073E-4
-3.8620373E-4
2.0655313E-4
7.6685037E-4
4.4704037E-4
-5.7383755E-4
0.0010880883
0.0015808084
-9.2248624E-4
-0.0012708093
-0.0016219985
-7.227043E-4
0.0014855245
-3.886399E-4
-2.5709247E-4
0.0013159007
-5.6115305E-4
9.295867E-4
0.0029174648
9.787781E-4
-8.3992287E-4
-0.0020259898
-0.0010584597
-2.1297189E-4
-0.0018050952
-0.0013921281
-5.210746E-5
1.0503812E-4
-1.7995681E-4
-7.12958E-4
-5.014917E-4
2.4041767E-5
8.1770244E-4
2.8864658E-4
-3.6873604E-4
0.0019816437
0.0015014969
-0.0013616927
-4.6582284E-4
1.6734461E-4
-9.5351896E-4
-0.0014362516
-0.0013158795
-3.2569517E-4
2.9571456E-4
1.7457517E-4
-3.6724212E-4
1.1983069E-4
0.0020625328
0.0020226573
0.0012156117
0.0010916996
5.600428E-4
0.0015484169
0.0015327135
-2.9675828E-4
4.0151898E-4
9.835622E-4
-2.163231E-4
1.3275261E-4
6.9894665E-4
1.7384571E-5
2.4489063E-4
7.487422E-4
-8.4745046E-4
-0.0014512568
2.62364E-4
4.1477746E-4
0.0017171467
0.002054565
-0.0035133904
-0.002637095
0.0015516398
-0.0077727744
-0.0132753365
-0.0027974476
0.0035231574
0.0024709902
0.0030398984
0.0025400459
8.5541664E-4
1.4661021E-4
2.0826742E-4
6.6991115E-4
7.520555E-8
-4.3902948E-4
4.6152467E-4
5.8960484E-4
8.733727E-4
0.0018298824
0.0021340724
0.0026739722
0.0016959709
-1.0452173E-4
3.1837515E-4
-1.5547776E-4
-5.4033776E-4
2.7318447E-4
-6.136564E-4
-1.6231506E-4
1.8430068E-4
-8.1192737E-4
-5.7534716E-4
-0.0019454894
-0.0010916736
0.0021263557
0.0011861073
-4.6618617E-5
-7.80674E-4
-0.0018190428
-3.3920782E-4
9.5000834E-4
9.7368204E-4
3.1068426E-4
-1.444231E-4
3.1399363E-4
3.4789937E-5
1.7064389E-4
7.7693134E-5
-7.7763334E-4
-9.833431E-4
-0.0015340558
-0.0010092661
4.7066834E-4
6.088038E-4
-0.001133497
-0.002339589
1.5961705E-4
5.918226E-4
-0.001545826
-1.6336734E-4
-3.6585097E-5
-0.0012677265
7.6536504E-5
9.814386E-4
0.0015070481
0.0022541736
0.002203251
0.0011260116
5.668964E-4
0.001120942
2.622642E-4
3.0542767E-4
6.4644817E-4
-0.0012046624
-6.9045695E-4
9.8067256E-5
-7.5133506E-4
1.2431867E-4
0.0010887842
0.0019992657
0.0011711662
-0.0011990967
-3.9543505E-4
-1.1737961E-4
-0.0010048426
1.9520892E-4
-3.9983E-4
-0.0017896523
-9.9753E-4
-0.0010487561
-0.0019164684
-0.0012989888
-4.0059205E-4
-1.9686436E-4
2.9301323E-4
9.700404E-4
0.0013972954
0.0014988387
0.0012273951
2.933116E-4
-0.0011549693
-7.932916E-4
4.4444192E-4
5.042708E-4
7.1194506E-4
-4.7817433E-5
8.121759E-6
0.0015401131
-4.752311E-4
-0.0018336364
4.049267E-4
8.34052E-4
1.8222678E-4
7.1929017E-4
0.0024460973
0.002534794
-0.0012843955
-0.0024176491
7.330191E-5
2.3899188E-4
1.3381975E-4
9.924707E-4
2.1595675E-4
-7.6363597E-4
-7.97507E-4
-5.580866E-4
-2.7348692E-4
-6.5823994E-4
-4.150386E-4
5.722951E-4
-7.915218E-4
-0.0017832515
-4.919242E-4
-7.4413314E-4
-4.3689056E-6
0.0016568485
-7.3815405E-5
-0.0010105855
-5.8870076E-4
-9.729368E-4
3.5280452E-4
6.067232E-4
-4.0302819E-4
3.7421426E-4
4.8474077E-4
0.0016223597
0.0035345485
0.0013354972
-2.3674048E-4
0.0012243919
5.3509127E-4
-3.122317E-5
0.0010408054
-3.2586372E-4
-0.0015105815
3.2494398E-5
5.943021E-4
-6.2684785E-4
-0.0010603949
-2.6841258E-4
-3.68835E-4
-0.001282794
-0.0010300193
-3.8996333E-4
4.958071E-4
9.954796E-4
-3.9415154E-5
6.226877E-7
2.1503739E-4
-9.446575E-4
-0.0011573469
-0.0013091996
-0.0013894904
-0.0010208208
-0.0011888411
8.522255E-5
0.0010079774
9.037348E-4
0.0025622798
0.002042306
-4.5068006E-4
-5.796322E-4
-7.425797E-4
-4.7109032E-4
7.588487E-4
6.178815E-4
0.0010155953
9.784637E-4
4.300886E-4
0.0014257542
5.391778E-4
-5.437562E-4
3.4285613E-4
4.5953126E-4
0.0013023354
0.0018298854
0.0018837516
9.603496E-4
-0.003426161
-0.0023188093
0.0016432289
5.3703773E-4
0.0016904033
-0.0014719826
-0.004888176
0.0021698175
-0.002389337
-0.012041699
-0.004095092
0.0025581704
0.0019532843
0.0035574937
0.0028909848
0.0015416017
-3.810088E-5
-0.0012856587
2.7174575E-4
1.4581183E-4
-1.3438113E-4
4.4187132E-4
-3.0012833E-4
9.0728345E-4
0.0016539702
-4.9954513E-4
-0.0010177303
3.796766E-4
0.0020776582
0.0029121586
8.9154363E-4
-4.3478512E-4
7.094708E-4
3.047152E-4
-8.050971E-4
-6.319357E-4
-2.8788342E-4
-1.4715943E-4
-6.0738344E-4
-5.015588E-4
3.381486E-4
-7.6376746E-5
-0.0010819448
-3.2464846E-4
0.0022743556
0.0025267818
6.4812973E-4
8.904514E-4
4.660879E-4
-0.001471342
-0.0017902012
-0.001354332
-0.0012751045
-0.0017826522
-0.0014566762
-4.294642E-4
-2.8805085E-4
-1.34295E-4
-6.823181E-4
-6.822359E-4
5.355392E-4
6.769783E-4
9.5765374E-4
6.502314E-4
-2.9792835E-4
-6.5151515E-4
-0.0015296079
2.5143137E-4
0.0026710804
0.001201375
-5.159354E-4
-0.0012543176
-6.966154E-4
7.1948086E-4
2.7197195E-4
5.5823557E-4
0.0014207914
3.339639E-4
1.4777134E-4
8.435943E-4
4.7195022E-4
1.5934974E-4
1.1771329E-4
2.3278722E-4
-3.6261848E-4
-0.0016861338
-1.13764145E-4
0.0024415522
0.0022137212
0.0021230222
0.0013734169
-4.7881223E-4
-7.166429E-4
-0.0021321927
-0.0024320607
-4.936026E-5
-6.0404633E-4
-0.0012201051
-5.4647896E-4
-0.0017265559
-7.730344E-4
0.0015526571
0.0014799951
4.7442832E-4
-7.1148307E-4
-7.700168E-4
-2.549619E-4
-0.0011000676
-6.9765985E-4
4.6164502E-4
-4.069951E-4
-3.40853E-5
0.0019863138
0.0010058319
-0.0012558571
-0.0012431146
-2.5717387E-4
6.8187754E-4
9.254688E-4
8.1368635E-4
9.4118674E-4
5.595497E-4
0.0012477236
0.0012050407
-0.0010607663
-5.9256505E-4
8.8879955E-4
-2.3637987E-4
-8.51965E-4
-1.6474305E-4
6.482702E-4
5.777445E-4
-2.1624437E-5
6.164511E-5
-4.623516E-4
-7.773459E-4
-3.6459096E-4
4.7681962E-7
0.0011927992
0.0010179084
-0.0012806418
-0.0028344549
-0.0022064203
-6.567514E-4
-6.278604E-4
-3.2291855E-4
7.481915E-4
7.1876746E-4
9.558399E-4
2.0366783E-4
-4.8456693E-4
9.647982E-4
0.0012520074
6.6866935E-4
1.4757251E-4
-4.6788543E-4
-1.1735793E-5
8.7467243E-4
0.0019518557
0.001326221
-5.6861886E-6
8.0857065E-4
6.054755E-4
-5.1339966E-4
-0.0014874582
-0.0022390787
-5.395546E-4
3.3301717E-4
-8.622211E-5
-2.5542572E-6
-1.5498378E-4
0.0011948593
5.3749604E-6