-0.0082834065
-0.0060086893
-0.006846665
-0.014175116
-0.0050351177
0.010561058
-0.0011623204
-0.002819152
0.008185886
-0.0071037975
-0.009738472
0.0017323315
0.0076267985
0.013561182
-0.0032158287
-0.0061137867
0.0067630275
-0.004883682
0.0022878298
0.009571034
-0.0039709606
0.0019784772
-0.0076014125
-0.012825707
0.01640071
0.009304315
-0.0063607744
0.013702044
0.0100521045
-0.0060355808
0.0053232806
0.0075726234
-0.010136164
-0.01172115
0.0020877593
0.001068642
-0.0024503206
0.007273228
0.0018773514
-0.008093313
3.903376E-4
0.0016743124
-3.2237652E-4
0.0051114485
4.4601047E-4
-0.0044603515
-0.0071027274
-0.014797899
-0.0065829866
0.008163921
-0.0040668664
-0.018142646
-0.0064692087
-0.001517861
-0.0042075342
0.006998452
0.013248419
0.011831204
0.010939549
0.012791549
0.0074014957
-0.017278858
-0.015417755
0.0055995444
-0.0055570914
-0.0051314323
0.011124133
0.0066914735
0.0059633236
0.0063941297
0.0023593074
0.003157007
-0.0011973137
-0.0028746498
-0.0015600581
-0.0033317918
-0.0025418259
-0.0017901374
-0.0012823303
-0.001114553
-3.1390422E-4
4.9213856E-4
-0.0018281213
-0.0018299059
-6.878647E-4
-3.697047E-4
1.5515031E-4
1.6088829E-4
0.0016136552
7.0943934E-4
-5.3636014E-4
9.028083E-4
-3.8127357E-4
-0.0014966261
-0.0016380704
-0.00238571
-0.0011804159
-0.0013081605
-0.0016218715
6.340817E-4
0.0011778399
5.384887E-4
2.3960194E-4
-6.28182E-4
6.4459944E-4
0.0032498874
0.0027982115
0.0013163269
5.914611E-4
6.2628073E-4
0.0019035455
0.0017751886
0.0011264028
9.804101E-4
-4.33989E-4
-0.0024513686
-0.004150578
-0.0015615511
0.001860944
9.012847E-4
8.998428E-4
3.0037504E-6
-0.0011539791
0.0010357995
2.0540041E-4
-0.001289132
-0.0023293267
-0.0041830214
-0.0013589313
-1.1093648E-5
-9.908711E-4
0.0014176511
0.0011034262
-3.9078444E-4
-7.110401E-5
-9.956817E-4
9.073101E-5
0.0016897474
0.0011104299
0.0011550626
0.0015869397
0.0021053855
0.0019144482
0.0014958928
0.002166736
5.335633E-4
-7.3573086E-4
0.0012717089
-1.4720453E-4
-0.0028428144
-9.54156E-5
0.0018916338
-8.819341E-4
-0.0027796412
-0.0025739311
-0.0018506486
-0.0010313011
-0.0012060946
-6.842533E-4
5.042078E-4
5.67264E-4
-1.12012356E-4
-0.0017269433
-0.0011217172
0.0019106956
0.0019504365
1.6024565E-4
-0.0010150133
-0.0012249475
-9.51787E-5
-2.8076061E-5
-9.306606E-4
-0.0012433627
-3.8278554E-4
4.8484665E-4
-5.570813E-4
-7.109322E-4
-2.9963194E-4
-0.0017079058
-0.001431748
8.711831E-4
0.001280347
7.1799214E-4
0.0021697362
0.0020415138
4.3062557E-4
0.0019058408
0.0014875288
1.1373681E-4
0.0017253656
0.0019741245
0.0022276933
0.001705688
5.9111515E-4
0.0012772593
-4.561079E-4
-0.0013966538
-0.0010325204
-5.4893305E-4
0.0016258141
5.30315E-4
7.8482066E-5
-0.001721699
-0.0038416737
8.6726784E-4
-0.0070166807
-0.015985223
-0.002467868
0.00451285
-5.4649336E-5
0.0015801544
0.0023648902
0.002591186
0.002484997
6.673763E-4
6.316598E-4
1.0361581E-4
7.059982E-5
-2.7172835E-4
2.015711E-4
0.0029123113
0.0027476735
0.002364855
0.0013609194
-0.0017820942
-9.485683E-4
5.258341E-5
-0.0011542611
3.235451E-4
0.0019207444
0.0010523597
-5.494604E-5
7.465424E-5
3.500504E-5
-0.0014604585
-0.0028578097
-0.0027620832
-6.529473E-4
8.2031946E-4
-2.687866E-4
2.4843031E-5
0.0012303729
4.5706626E-4
2.9822084E-4
3.293464E-4
-3.2207646E-4
7.6815934E-4
0.0020253106
0.0018554517
5.1096064E-4
-0.0011445393
-6.703923E-5
0.0013332657
-8.847489E-4
-0.0033001436
-0.0023725964
1.2875759E-4
5.580279E-4
-4.8317757E-4
-7.04277E-4
-6.282378E-4
2.0167636E-4
5.190405E-4
-9.401896E-5
0.0011397763
0.0021708186
0.0012930807
3.5605E-4
2.1346829E-4
0.0011303723
0.001056851
-7.4620557E-4
-0.001082243
3.3096928E-4
-4.749003E-4
-0.0019559092
-0.001098177
-0.0020660283
-0.0033892859
-0.0021469977
-0.0014825811
2.4702554E-4
0.0010978731
-3.7406205E-4
5.5750366E-4
0.0015882814
0.0013259156
3.0321855E-4
-1.9338966E-4
0.0015560607
-4.8137717E-6
-7.9806603E-4
0.0027926767
0.0023840275
0.0010009862
0.001630757
0.0019171197
0.0024680388
8.1412663E-4
3.048849E-4
0.0019152588
0.003310993
0.0056702374
0.003528887
-7.3208695E-4
-0.0036204155
-0.0087102745
-0.008732771
-0.0045975973
-0.0026548977
-1.1704222E-4
-6.414484E-4
-0.00227581
-3.1978404E-4
1.8295315E-4
-4.8306456E-4
-6.8860606E-4
-4.7415408E-4
7.181166E-4
6.986543E-4
4.2237696E-4
2.4300748E-4
-3.106245E-5
5.106256E-4
2.602946E-4
7.493925E-4
0.001979309
0.0015375183
5.5665517E-4
9.362603E-6
0.0015070844
0.0037118932
0.0034239648
0.0016938229
-3.5555224E-4
-3.9023554E-4
4.441504E-4
-7.735391E-4
-5.0401146E-4
-5.591953E-5
-9.795815E-4
-1.6464332E-4
-1.0732584E-4
-9.959505E-4
-8.64564E-4
4.502964E-5
0.0012310034
7.857217E-5
-8.711585E-4
-1.2860923E-4
-4.4898238E-4
3.6741619E-4
0.0014556723
9.779575E-4
5.2650226E-5
-0.0019578037
-0.0033897443
-0.0025103872
-5.0447305E-4
1.0462508E-5
-7.7420735E-4
5.8495003E-5
4.90593E-4
-3.1341944E-4
-8.1782404E-4
-0.0010464564
9.774654E-4
0.002946762
0.002020651
0.0010951181
0.001222671
0.0010178626
-4.905262E-4
-0.0011552307
-2.7397697E-4
-2.4620708E-4
-5.1778345E-4
-0.0017277447
-0.0012965993
0.0017078433
-4.2702557E-4
-0.0030905856
-2.8239074E-4
1.3949678E-4
-4.8225143E-4
0.0019678203
0.0022259988
7.595024E-4
6.662585E-4
0.0010469784
0.0011284637
4.547317E-4
3.7467293E-4
4.8143216E-4
-6.5596594E-4
-3.8064038E-4
0.0013258456
0.0022540824
9.1807154E-4
-0.0014249681
-6.5646943E-4
-7.019783E-4
-4.5356722E-4
0.003509599
0.002274167
1.8114215E-4
-9.445565E-4
-0.004801702
4.4845598E-4
-7.939275E-4
-0.014215224
-0.008229982
0.004672565
0.0028816946
0.0013690556
0.0026500083
0.0021576995
0.001371165
4.3555198E-4
7.602984E-4
0.0010357667
0.0013115439
0.0014026972
0.00101927
2.638055E-4
-0.0014056319
-2.9394779E-4
0.0015147288
8.5428014E-4
0.0010996421
9.0024335E-4
-3.595237E-4
-2.9772165E-4
7.258747E-5
-0.0010658425
-0.002504792
-0.0016894372
-8.765179E-4
-4.3209275E-4
0.001142279
8.885202E-4
-5.0836836E-4
-0.0011037273
-5.6411437E-4
9.6461904E-4
7.452903E-4
1.0080881E-5
7.729959E-4
0.001410985
0.0012259361
8.9127827E-4
0.001498156
0.0015867738
2.9043696E-4
-7.5028127E-4
-0.0015580236
-0.0016691954
-7.4459246E-4
-8.791476E-5
2.7746137E-5
6.649223E-4
1.2094188E-4
-0.0031270047
-0.0033579308
2.5569181E-5
9.383846E-4
1.8436347E-4
-3.550564E-4
9.173649E-5
0.0012739747
0.0012806158
0.0018116217
0.0015326497
-3.6348723E-4
-5.932877E-4
-3.1843263E-4
-3.2659274E-4
-3.9721324E-4
-0.0010922513
-2.7088527E-4
9.4738393E-4
9.400888E-5
-4.6625288E-4
5.4462533E-5
-5.933085E-4
-0.0013830537
-0.0010507068
-5.6074566E-4
-3.81836E-4
-0.0016845111
-0.0027250147
-6.8347936E-4
0.0018248432
0.0024201605
0.0017387462
0.0029936538
0.0055198288
0.0034342108
-2.800211E-4
-0.0014881633
-0.0011183771
2.412863E-4
-7.7256485E-4
-4.771111E-4
0.002568115
0.0022158355
0.0030809208
0.005017309
0.0019610806
-0.0028972651
-0.0064725685
-0.005711057
-0.002804318
-0.0027714183
-0.0026874873
-0.0021601073
-0.0013124085
1.5887595E-4
-3.278866E-4
-5.031061E-4
4.0125204E-4
-3.684481E-5
-9.4897154E-4
-5.956778E-4
2.1929108E-4
1.7120416E-4
0.0010509948
0.0024582322
0.002965909
0.0021040195
4.8513106E-5
0.0012433284
0.0025796248
0.0011173352
0.0015676724
4.4760414E-4
-0.0011201773
-3.6060644E-4
-9.236153E-4
5.021022E-4
0.0013066967
2.5920646E-4
0.0012138785
-4.955931E-4
-0.0014532515
-3.159567E-4
-0.001353315
-5.527143E-4
-7.8737945E-4
-0.0023373943
-3.609445E-4
0.0013521267
0.0017872592
0.0017354041
5.6975044E-4
-0.0011673995
-0.0023970376
-7.7800825E-4
9.875438E-4
8.88483E-4
6.0923386E-4
-1.9568241E-4
-1.4325115E-4
-3.4389776E-4
-0.001848228
-9.094134E-4
0.0016103879
0.0013212637
-6.9616246E-4
-6.595518E-4
-8.409258E-6
2.0585282E-4
8.5339946E-4
1.3228181E-4
-5.765798E-4
-0.0011297718
-0.0012567504
6.2562054E-4
4.221845E-4
-7.199252E-5
1.479875E-4
-0.0011364236
3.8153728E-4
9.282437E-4
-0.0012413122
-0.0023035964
-0.0027768074
3.058734E-4
0.0016930064
-3.49528E-4
3.5370557E-4
-8.167083E-4
-7.323018E-4
0.002161762
0.0014854885
0.0019222952
0.0025491922
0.0012163953
0.0021651487
0.002366196
8.83233E-4
0.0014145424
0.0020334022
2.7260073E-6
-2.009619E-4
4.9126364E-4
-0.0024337578
-0.0026355388
1.9688986E-4
0.002507071
0.002957913
-7.1462075E-4
-0.0019847525
-0.0034262412
-0.0029612656
0.0029602076
-0.006516677
-0.016217535
-0.003884597
0.0028847253
4.8033894E-6
0.0011628236
0.0014685635
0.0017813346
8.561409E-4
6.5020873E-4
0.0023057542
9.501247E-4
0.001346434
0.0023795771
0.0018688223
0.0021321778
0.0014433559
0.0028775288
0.004455655
0.0023605055
-4.003219E-5
-0.0016730548
-0.0011412299
-5.8557E-5
5.9523416E-4
0.002816392
0.0020466703
-4.4823668E-4
-7.6344504E-4
-0.0017588689
-0.0018265079
-0.0017464658
-0.0037342105
-0.0032638558
-0.0019039243
-0.0027711845
-0.0021665327
-3.5911606E-5
7.52239E-4
4.6357673E-4
1.5336412E-4
-7.840029E-5
3.912919E-4
0.0012638742
4.666768E-4
5.822435E-4
0.0021061406
8.4627466E-4
7.671604E-4
0.0017061655
1.61679E-4
9.862643E-4
-1.8275052E-4
-0.003176379
9.189748E-4
0.004249956
0.0033137829
0.0018689985
-0.0025181514
-0.003985276
-0.0019589574
-0.0018912841
-6.51792E-4
0.0010983193
0.0015153426
0.0015171864
9.1267604E-4
5.5525335E-4
-0.0012983363
-0.003453525
-0.0015222604
-1.2722405E-4
-0.0018382428
-3.9460858E-5
0.0018338665
-0.0013684974
-0.0017274522
6.1342877E-4
2.8401733E-4
9.611353E-4
0.0013872997
4.7421297E-5
3.436297E-4
3.8019418E-5
-8.7033014E-4
0.0010587212
0.003101399
0.0018667374
-4.158067E-4
-0.0018212321
-0.0022925928
-8.464757E-4
-1.3071686E-4
-7.083978E-4
0.0011370173
0.002994534
0.0029370524
0.0029418678
0.0021081737
-0.0010919117
-0.0045868303
-0.0032990016
-5.4289267E-4
-0.0016006898
-7.202422E-4
0.001708796
2.5381596E-4
-0.0017576709
-0.0018113154
-8.511344E-4
1.3737827E-4
7.245181E-4
9.757671E-4
0.0015053224
0.0027775217
0.002352582
0.0019284975
0.0027152621
0.001647389
0.0019875737
0.0022316754
-0.0015065141
-0.003914194
-0.0040562963
-0.0035363818
-0.0018167067
7.167274E-4
0.0031171218
0.0024774878
0.001255569
0.0016458568
0.0016575829
0.0013751854
-7.6308066E-4
-0.002313621
-0.0025278972
-0.004174398
-0.0035320334
-0.0025668517
-0.0030412115
-0.002713456
-0.00321136
-8.7061356E-4
0.0023895837
0.0024571016
0.0021960656
-9.060103E-4
-0.0039294623
-0.0034481024
-0.0042737573
-0.0044129686
-6.098118E-4
0.005162874
0.007303923
0.0053251954
0.0044239857
0.0015175119
-0.002180408
-6.6220027E-4
0.0033812232
0.00618126
0.008504271
0.015224238
0.019968905
0.0133232
0.0031399885
-0.0064941426
-0.014569313
-0.01664566
-0.015662149
-0.011968108
-0.005651509
9.404285E-4
0.005088802
0.0041918675
0.0022351097
-0.00161758
-0.008609653
-0.014687423
-0.017902862
-0.013549257
-0.0050948285
0.0011409426
0.0066159866
0.009096789
0.009189641
0.009208851
0.008422766
0.006619696
0.0040398682
0.004890149
0.008112349
0.0093202945
0.006989137
0.0011379531
-0.003312269
-0.005259438
-0.0030970261
7.0190676E-5
-0.0023665822
-0.0032660642
-0.005295221
-0.0063642436
-6.2304834E-4
-0.0071095633
-0.013054426
4.3605577E-4
0.007983878
0.004805546
0.0032710168
0.0022532535
0.0015677593
-2.568018E-4
7.457618E-4
0.003833126
0.0028288076
0.0013618675
5.1154924E-4
-1.5034312E-5
1.4747407E-4
-8.32765E-4
-0.0018755918
-0.0023090455
-0.0015987761
-0.0014346339
-0.0022126387
-0.0011701566
-0.0010268295
-0.001731853
-8.638292E-4
-0.0016811927
-0.0039542993
-0.0045416015
-0.0038292673
-0.0025706547
6.2843465E-5
0.0030654755
0.0037790795
0.0026091407
0.0015071104
0.001781397
0.003952921
0.006118287
0.004770533
1.3311859E-4
-0.0020222587
-4.213765E-5
0.0018097358
0.0020399147
0.0015286623
6.172205E-4
-0.0011352394
-0.003132148
-0.0036522858
-0.0024316437
-3.5073748E-4
-4.633319E-6
6.8040084E-5
0.0037818796
0.007058274
0.0065621734
0.0038622897
-2.3203887E-5
-0.0026785017
-0.0035829502
-0.0024162359
7.7715714E-4
8.0110796E-4
-0.0025859643
-0.0030831022
4.935527E-6
0.0013292349
-0.0015284851
-0.0047685704
-0.0034619789
-4.7277712E-4
-0.003250028
-0.009181815
-0.012319798
-0.013342736
-0.011426073
-0.008177091
-0.007423555
-0.0063736285
-0.002509771
0.0014176974
0.0033383663
0.0066902847
0.009900991
0.0063955337
0.004322183
0.010561153
0.0148883285
0.013174471
0.011761828
0.013763192
0.016359875
0.016841698
0.014151568
0.006497107
0.002683278
0.009795133
0.01166037
6.985981E-4
-0.006785134
-0.009102936
-0.01830642
-0.02885899
-0.031826895
-0.029505158
-0.024386931
-0.022252548
-0.02275258
-0.01945745
-0.01936527
-0.021182073
-0.01415085
-0.0038719843
8.91393E-4
-0.003359564
-0.01135978
-0.011278487
-0.0031605132
0.0074717295
0.019597044
0.037775945
0.059770323
0.06967624
0.06629191
0.062121738
0.060444813
0.05505046
0.043208588
0.037640568
0.034268796
0.011737173
-0.020083863
-0.03956188
-0.044380143
-0.043792576
-0.048416615
-0.056024577
-0.053804412
-0.038300775
-0.021559475
-0.009219763
0.0019296316
0.005867042
-0.005193273
-0.027337974
-0.03694408
-0.026436336
-0.015800837
-0.0049744695
-2.9673346E-4
-0.0071004895
-0.008705835
-0.0141478
-0.016493287
-0.004425879
-8.764845E-4
-0.008976484
-0.031155836
-0.056869645
-0.052411873
-0.009517943
0.06048293
0.11029644
0.107284196
0.06680582
0.010749292
-0.017697427
-0.035995994
-0.071424864
-0.051969603
0.0046826913
0.023918876
0.044746105
0.06941412
0.05778494
0.07499867
0.18568534
0.31544903
0.3294206
0.19774982
0.023240263
-0.11406956
-0.22391951
-0.28049392
-0.26940942
-0.26808554
-0.258941
-0.1683537
-0.039393857
0.063996844
0.0833169
0.03120404
0.021777915
0.024652673
-0.028290011
-0.07328997
-0.11667033
-0.15505007
-0.1170894
-0.04224801
0.03606608
0.11171933
0.14081751
0.16113667
0.17676102
0.1373451
0.104441255
0.108996436
0.09756928
0.07437391
0.07168147
0.100668125
0.11299498
0.026469659
-0.101104625
-0.14283574
-0.13259952
-0.15885778
-0.19188714
-0.16887395
-0.09230483
-0.017850623
0.017549671
0.024015412
0.027357183
0.05952121
0.087438114
0.05320573
0.006571199
0.0010722476
0.030685673
0.06770781
0.049089223
-0.018841453
-0.06736401
-0.06467326
-0.010932797
0.036040016
0.039266333
0.048085697
0.082674034
0.082755975
0.008249236
-0.059370115
-0.06388948
-0.077509865
-0.10443251
-0.090971544
-0.055238362
-0.02661379
-0.0071181273
0.023421869
0.04860793
0.027102703
0.0021136529
0.012075415
0.015004606
-0.0010050463
5.044695E-4
0.025949707
0.042097744
0.03473407
0.020753585
0.011823745
0.00794295
5.3262786E-4
-0.01121879
-0.016709048
-0.016344978
-0.015044411
-0.01299945
-0.007985891
-0.0018290037
-6.802134E-5
0.0020984702
0.0066501945
0.010160363
0.016142217
0.019358074
0.015230337
0.012374038
0.01239453
0.010668312
0.0065998975
0.0026342152
9.404312E-4
-0.0010082633
-0.0050919144
-0.009607067
-0.013977529
-0.017600542
-0.017947469
-0.013255477
-0.0076083452
-0.0059177177
-0.0054611983
-0.003247558
-0.0015088422
-6.3315034E-4
0.001476693
0.004116411
0.005926424
0.006894949
0.006525285
0.0044958806
0.0020407278
0.001546475
0.0021828027
0.001645268
0.001371403
4.2340148E-4
-0.0015741421
-0.0016394904
-0.0011619872
3.3986592E-4
0.0018075291
-5.260716E-4
-5.917934E-4
0.001643001
-4.0639227E-4
-0.0018849664
-0.0017373816
-0.00358327
-0.004219407
-0.0040079122
-0.0041675703
-0.0032964048
-0.003823411
-0.004157231
-2.9074564E-4
0.0032881105
0.00378405
0.0057532853
0.009115194
0.01014713
0.00823215
0.0039195106
-2.4504794E-4
-0.0017057678
-0.002307018
-0.0033202681
-0.0023251052
0.0014029748
0.0055455742
0.007540171
0.0065850993
0.0023983049
-0.006074961
-0.011621065
-0.008052584
-0.0066963034
-0.0101217665
-0.0068283663
-3.445376E-5
0.0026190337
0.0024495907
0.0037402967
0.007820142
0.010506856
0.012176919
0.010114772
0.0010000077
-0.003110987
-0.0031263344
-0.010256285
-0.015712852
-0.014337758
-0.010754815
-0.0032442838
0.004025687
0.0032343364
-3.5772144E-4
0.0025590851
0.005196283
-0.0012246709
-0.008335879
-0.009366258
-0.007213285
-0.005463061
-0.004908744
-6.042232E-4
0.00438718
0.004849707
0.008184966
0.012851881
0.012155151
0.012862008
0.018195119
0.020986892
0.014500478
-5.007094E-4
-0.012705408
-0.012238487
-0.006722209
-0.0078082434
-0.0093558775
-0.005967948
-0.003362208
-0.001998604
-0.002048604
-0.0027856587
-0.0034416104
-0.004961692
-9.194341E-4
0.0032768038
0.003085486
0.005230504
0.0016844803
-0.001026298
0.0017258751
-0.0054544075
-0.0032593177
0.009021989
0.0012158046
-0.008329795
-0.005625704
-0.0041483506
-2.8857938E-4
0.0021034973
-0.0019407315
-0.0035718016
-0.0011947012
-3.722656E-4
-0.002597187
-0.0028870502
-0.0024906776
-0.002765903
7.408688E-4
0.0019544251
5.277747E-4
0.004259441
0.008821475
0.009148075
0.0061471337
0.0034382322
0.0033176232
0.004612898
0.0072986754
0.0070148306
0.0016842966
-0.0027363643
-0.002970139
-0.0023000408
-0.004124428
-0.0034830095
-0.0011625981
-0.0027998611
-0.0028225665
-0.002642779
-0.004944195
-0.004782829
-0.0047717025
-0.004017832
-0.0021262316
-0.0019720283
-9.413157E-4
-0.0011306874
-6.9598306E-4
0.0015273661
1.6566552E-4
-6.255049E-4
9.7047904E-4
0.0017544327
0.0013543922
-3.835589E-4
6.842667E-4
0.0036195444
0.0020678837
-0.001520452
-0.001405204
-6.3071016E-4
-0.0012961659
0.0019219781
0.0045952993
0.0040209945
0.0059113484
0.0048359204
8.720628E-4
-5.4466416E-4
-9.942309E-4
-5.1157636E-4
-0.0023147
-0.0028347878
6.29171E-4
0.0010382037
0.0012622589
0.0029053907
0.0026427323
-7.0439075E-4
-0.001351772
0.0036560453
-0.004534191
-0.014203023
-0.0025621243
0.0041503115
0.0017485903
0.004057045
0.0010382119
-0.0013258753
-0.0013301668
-0.0034513013
-0.00240258
-0.0020239996
-7.20497E-4
-1.1958058E-4
-0.0036724005
-0.0027382858
2.1204875E-4
8.3036534E-4
0.0014257029
9.822813E-4
-2.1557932E-4
-1.752172E-4
0.0026634
0.0035596509
0.0015036049
0.001612774
0.001502144
0.0016959128
0.0018814463
5.576946E-5
7.298431E-4
0.0014696748
8.669372E-4
6.6250225E-4
-5.4008333E-4
5.7106146E-5
1.841434E-4
-0.0015671648
-0.0016333562
-0.0016853488
-0.00147682
-0.0016767116
-0.0021822588
-5.8621255E-4
-4.0477875E-4
-9.885188E-4
-7.110221E-4
-9.178797E-4
-3.9610403E-4
-0.0013098713
-0.001612446
5.988903E-4
1.472384E-4
-7.5303216E-4
8.679543E-4
0.0033077989
0.004552626
0.0014334243
-6.1753235E-4
0.002259845
0.002928856
7.732315E-4
-2.3736936E-4
-0.0010876565
-0.0017549049
-0.0012820985
-0.0016291928
-0.0022637276
-7.0112443E-4
-2.4749563E-4
2.8193183E-4
0.0030530163
0.0017807169
-5.9863017E-4
-3.305567E-4
-9.853208E-4
-6.673469E-4
-0.0016449904
-0.0035574697
-0.0021189805
-0.0015838019
4.3086047E-4
0.003947691
0.0017852808
-8.635411E-4
-3.626411E-4
-9.450013E-4
-0.0019533036
-6.5182435E-4
0.0012451723
4.469865E-4
-2.1435742E-4
-1.5132879E-4
-0.0014285285
-8.9046324E-4
3.0247305E-4
0.0011090109
0.0015710343
-2.324212E-4
5.894305E-4
0.0022608226
5.92881E-4
7.190314E-4
0.0010381347
6.1801904E-5
1.8866737E-4
3.914826E-4
0.002084949
0.0022274659
-7.413841E-5
8.1715157E-4
0.0013688375
-0.0013534131
-0.002365888
-4.7959122E-4
1.4308156E-4
-0.0013412688
-5.612427E-4
1.8380539E-4
-1.3390265E-4
0.0016254754
-0.0017435037
-0.003919447
0.003288986
-0.0012787385
-0.014424155
-0.0094631035
0.002251714
0.004428659
0.0035476054
0.0019558694
8.723698E-4
8.635516E-4
-9.79881E-4
-0.0012591301
6.731141E-4
0.0014458497
0.002064432
0.0022393002
0.0019576491
0.0028661336
0.0028501481
0.001251218
-2.405195E-4
-6.1745784E-4
5.203113E-4
4.2138275E-4
3.1922892E-4
0.002634035
0.0028114065
8.9438446E-4
-5.5914174E-4
-0.0018620767
-0.0017510053
-0.0021725642
-0.002466481
-7.0813467E-4
-5.7988596E-4
-0.0014464115
-0.0014818069
-0.0010177535
6.866954E-4
0.0019649519
0.0011097584
-0.0011013348
-0.00152035
-8.8196085E-4
-0.0016653048
-7.9843786E-4
1.2950497E-4
-2.422315E-4
5.0735864E-4
6.0638215E-4
6.6684495E-4
-3.61042E-4
-0.001491372
-2.4535067E-4
-0.0016893338
-0.0017048437
0.0017408393
0.0022298992
0.0020703995
6.9806154E-4
7.2360033E-4
0.0032772454
6.5316644E-4
-0.0011319065
-4.6050944E-4
-0.0014842182
6.144046E-4
0.0021231456
0.002803824
0.0036298325
-0.0013118288
-0.0046015587
-0.0020698425
4.4491622E-5
7.513468E-4
-4.097124E-4
-0.0014428458
1.1669503E-4
0.0013825599
4.8872567E-4
-4.8682018E-4
-7.7735697E-4
-0.0019690609
-0.0011193323
0.0013616454
5.582745E-4
-3.0492927E-4
4.941497E-4
0.0011878405
0.0016491696
-1.4417108E-4
-0.0012561352
2.5690292E-4
0.0013029532
0.0014648146
8.5694826E-4
6.873242E-4
-3.5905125E-4
-0.0025957616
-0.0017528809
-8.3751243E-4
-0.0016168784
-0.001779523
-0.0025713171
-0.0016861917
5.767758E-4
0.0016341277
0.0016488293
-5.252076E-4
-0.0011770211
1.4087443E-4
-3.398604E-4
6.926548E-4
0.0017757383
8.1840095E-5
4.7613532E-4
0.0027873747
0.0031553125
0.0016779228
3.7541162E-5
-3.197792E-4
-1.4026272E-6
-4.056226E-4
-1.0742696E-4
0.0012913044
7.3258934E-4
-0.0010020258
-9.61291E-4
-2.385698E-4
9.064145E-5
-5.379597E-4
-0.0014730316
-8.078656E-4
-1.9220734E-4
-7.0943683E-4
-4.6272084E-4
8.2292024E-4
4.8972014E-4
-0.0013789956
-3.6105583E-4
0.0013708469
-3.4172623E-4
-0.0015747005
-6.969876E-4
-1.3323716E-4
2.4279689E-4
0.0012554283
0.0018916688
9.6952106E-4
9.961479E-4
0.0020358104
9.775606E-4
-4.777208E-4
-0.0013277703
-0.0019276598
-0.0018765709
-0.0020016686
-0.001537539
-0.001024111
-3.3090863E-4
0.0010137626
6.580356E-4
4.1097013E-4
8.027789E-4
-1.6697237E-4
-4.5966066E-4
-3.2552678E-5
9.232292E-4
0.0019291828
5.8046816E-4
-7.8856415E-4
-0.0010801062
-0.001537163
-7.828686E-4
-2.1540452E-4
-3.4381327E-4
8.2383596E-4
0.0011245008
9.050278E-4
0.0014423743
-7.2450994E-4
-0.0011022118
0.0028415474
0.0024263782
-3.9337264E-4
-8.727038E-4
-9.818324E-4
9.0046553E-4
0.0015129609
-1.0448135E-4
9.952434E-5
1.3848607E-4
8.844408E-4
0.0022778597
0.0011598141
-0.0012842907
-0.0016999992
2.848073E-4
-6.783639E-4
-4.873501E-4
0.0022520716
-2.582273E-4
2.1847931E-4
-1.9792489E-4
-0.0049864254
4.8409987E-4
-0.0024115734
-0.013670424
-0.005165076
0.0029717616
5.989997E-4
0.0023447012
0.0010881678
-7.637942E-5
0.0022757303
0.0032353278
0.0042032097
0.0013815385
-2.3749401E-4
0.0017667356
2.936006E-4
3.1078997E-4
9.2448515E-4
-7.8274956E-4
5.9375836E-4
9.7372074E-4
-8.2454324E-4
-1.03489976E-4
0.0010158934
0.0014732148
0.0013773559
2.642636E-4
-3.3274104E-4
-2.7389402E-4
-4.0746073E-4
-0.0011868788
-0.0013806736
-7.407708E-4
-0.0014679269
-0.0012574029
1.0470888E-5
-0.0013667982
-0.0012475476
0.0010881639
7.6195213E-4
8.330162E-4
0.0026080695
0.00257404
0.0011867484
4.492764E-4
2.0614431E-4
-7.881406E-4
-0.0013635042
-0.001310801
-0.0013240438
-3.8014806E-4
-1.7191599E-4
4.5327836E-4
4.7482425E-4
-0.003560273
-0.0038540314
-6.1871525E-4
-2.2510655E-4
0.0015097961
9.045454E-4
-0.0023086946
-9.791454E-4
-3.2266288E-4
-5.6465116E-4
0.0011489744
6.7591754E-4
4.2047806E-4
0.0011587666
7.773486E-4
0.0018114755
0.0024475981
0.0010061358
4.3015977E-4
6.5105286E-4
5.325876E-4
3.568802E-4
5.453073E-4
0.0012096665
0.0011639252
0.0010670001
0.002303297
0.0028122307
0.0010409178
-0.0011083022
-0.0018825624
-0.0027059282
-0.0037528616
-0.0019610717
1.852262E-4
-5.7362544E-5
5.712938E-4
-3.757523E-4
-0.003054026
-0.0014459849
4.5860247E-4
-9.907645E-5
2.8470892E-4
-8.8379974E-4
-0.0024991005
-0.0017466475
-0.0014693659
-8.854934E-4
9.7402046E-4
0.0018696154
0.0014302501
3.879487E-4
0.001199987
0.0026941814
5.8225496E-4
-6.004568E-4
0.0016085231
9.542793E-4
-4.7329242E-5
0.0022578961
0.0024476312
8.6678856E-4
0.001320493
0.0021189419
0.0015123481
3.0303112E-4
-0.0011325422
-0.0046363925
-0.0065827854
-0.0021726228
0.0014181368
2.5957037E-4
7.808947E-5
2.330095E-4
-0.0011412388
-0.0012900718
-5.3791486E-4
-3.02063E-4
-3.0534502E-4
-8.5350976E-4
-4.943618E-4
0.001428509
0.0010110055
-5.590844E-4
8.9176657E-4
0.0015114176
1.2422417E-4
4.308407E-4
9.759251E-4
0.0012816574
0.0024502596
0.002304057
0.0011152171
0.0014452032
0.0016939536
-1.3473755E-4
-0.0010324024
-2.1991579E-4
-4.892797E-4
-0.0011123779
-0.0012748361
-8.167362E-4
3.890185E-6
-2.9199955E-4
-6.1875273E-4
-0.0017299214
-0.0030798106
-9.896432E-4
8.293825E-4
5.895639E-4
7.499374E-4
3.289529E-5
-2.8953434E-4
1.6539505E-4
-1.3608378E-5
1.3464852E-4
-4.942238E-4
-0.0013424385
-4.1068456E-4
8.2394865E-4
4.8175958E-4
-2.2744368E-4
4.8531854E-4
7.1925507E-4
-5.442084E-4
-0.0016460235
-7.257468E-4
1.3988957E-4
-0.0021250094
-0.0022388767
3.2802156E-4
7.2942814E-4
-0.0010332556
-0.0016141705
0.0018601199
0.0024292858
0.0014734456
0.003682064
0.0023788093
0.0025444168
0.0026583916
-1.15148905E-4
0.0017316103
6.776591E-4
-8.929936E-4
5.294886E-4
0.001007339
0.004019674
0.002583133
6.0021284E-4
-0.0015400731
-0.0020340385
0.005723441
-0.002493699
-0.008324078
-0.0036075744
-0.017792104
-0.009916073
0.01118865
0.0027327808
-0.0031848087
-0.002384464
-0.0026164372
-0.0024187937
-0.0017585657
0.009685787
0.014256441
0.008643362
-0.008564595
-0.019011898
0.0032833284
0.00508539
-0.0055599557
0.005770045
0.001115523
0.0019254233
0.012262578
0.003278617
-0.003739987
-0.0035982616
0.004510875
0.006071129
-0.005260814
-0.0045839995
-0.001934408
1.5272028E-4
-0.004160623
-0.013930325
0.0027582976
0.012933958
-0.0017232267
-0.005489643
-0.004809036
-0.0014021139
0.009998459
0.0077218483
-0.007100986
-0.006895381
0.00578304
0.0017978566
-0.002632727
0.011814451
0.015555579
9.833205E-4
-0.011314114
-0.0073928745
0.0029596058
-0.004493466
-0.006731906
0.0090808105
0.007232224
0.0040405663
0.010143794
-0.006160434
-0.011496
0.0015194926
-0.0068837325
-0.0042935372
0.0063481876
-0.0086757215
-0.011143087
-0.0023353335
-0.009247043
-0.012070114
-0.0051509053
0.004358092
0.009354156
0.007316284
0.0061318064
0.003963335
0.0029565298
0.0037524425
0.0019355721
7.7621924E-4
4.1832382E-4
0.002070457
0.0036508986
0.0030635542
0.0038752295
0.0028817304
0.0013905391
0.001569947
6.9713104E-4
5.6149875E-4
8.8084425E-4
-1.6190982E-4
-0.00185152
-0.001465633
-0.0012268148
-0.003464205
-0.002889307
-0.0034945488
-0.0065089106
-0.0038459843
-0.001209732
-9.015399E-4
0.0010025663
0.0013664847
0.0016787163
0.0019839748
0.0016901528
0.0012868006
-0.001091241
-8.9853304E-4
7.574601E-4
-6.342494E-4
-0.0018100243
-0.0016369222
-5.159699E-4
-1.8924326E-4
-4.3418017E-4
5.834297E-4
-4.688592E-4
-1.0322788E-4
0.0017036808
-0.0016913983
-0.0017833754
0.0025839056
0.0012981948
3.242299E-4
0.0026800395
0.003002268
0.002294999
0.0010873238
6.000279E-4
9.6718385E-4
3.069522E-4
1.5799438E-4
-4.374118E-5
-6.6685426E-4
-3.0596866E-4
9.761881E-5
-5.509018E-4
-0.0016069209
-0.0012438451
-6.5195584E-4
-0.0011557002
-0.0010128566
-3.0847755E-4
0.0015024113
0.003512394
0.0026540256
0.0013675684
0.0013953219
0.0011030809
7.9171197E-4