-9.376767E-4
6.5948314E-4
-5.567792E-4
-0.0017341104
5.0844386E-4
0.0015988132
0.0025534343
7.5357937E-4
-0.0025725882
-0.0015866641
-5.94971E-4
-4.3782024E-4
3.4425117E-4
-2.1641266E-4
4.9645075E-4
0.0024476086
0.0023513017
-7.728638E-5
-0.0014491513
1.4033352E-4
5.342247E-4
-2.6025504E-4
5.2012625E-4
9.4726525E-4
7.052004E-4
2.5102557E-4
-2.3947793E-4
-6.026369E-4
-0.0012852799
-5.588733E-4
8.6009946E-5
-0.0011239778
-7.7290897E-4
8.5934694E-4
0.0011429186
7.833753E-4
2.3009986E-4
-4.785798E-4
-0.0012996476
-0.001360941
8.158239E-5
-1.3945498E-4
-0.0014032574
3.7778122E-4
0.0015286685
2.1848109E-4
4.964272E-4
6.763369E-4
-7.7250606E-4
-0.0020044092
-0.0020285917
-1.6877474E-4
0.0010349479
0.0012656752
0.0012543008
-6.596918E-4
-8.4392965E-4
7.122016E-5
-0.0010833899
-1.843076E-4
0.0015059363
0.0013184969
0.0015091118
0.002442974
0.0025251315
-3.7589355E-4
-0.0020420994
3.472982E-4
5.5057846E-4
-0.0011602613
-3.6285928E-4
4.627674E-4
-8.67236E-4
-5.6806067E-4
0.0011273079
-2.6189373E-4
-7.9087296E-4
3.7500347E-4
-2.0693289E-4
2.7892186E-4
-0.0010836407
-0.0025864013
3.1821436E-4
2.5245492E-4
-0.001298809
-5.8631354E-4
-6.538262E-4
7.131149E-5
2.0498644E-4
4.4442664E-4
0.0010995959
-8.961407E-4
-0.0014760051
-4.045193E-4
5.41721E-4
0.0014103813
7.9314056E-4
6.8632595E-4
-5.041908E-4
-0.0017279192
-0.001156365
-0.0023085717
-8.436476E-4
0.002156004
0.0013203309
2.816968E-4
1.7383875E-4
0.0014688671
0.002036066
0.0015126425
0.003620313
0.0024310004
-9.548299E-4
-2.1178785E-4
0.00102942
0.0014261021
8.6712727E-4
1.269968E-4
-7.0102554E-4
-0.0022982412
-0.0018693138
-0.001875374
-4.7614233E-4
0.002366673
0.0019111218
0.0023125166
-0.0022631467
-0.005820081
0.0022102585
-0.0022204842
-0.013384155
-0.0061846115
0.0014838413
0.0016619588
0.002341662
0.0016497854
0.0021071981
9.573861E-4
-1.8954265E-4
0.0016744894
5.1030837E-4
3.763428E-4
0.002010615
0.0012359234
0.0019600538
0.002286527
5.874157E-4
3.1525292E-4
0.0010810847
0.0020477923
0.0025331816
0.0012692873
-0.0015033303
-0.0021598141
5.1168696E-4
6.53503E-4
-0.00193534
-0.0022099717
-0.0012302285
-5.3920434E-4
-5.397845E-4
-0.0010296648
3.2181467E-4
7.133532E-4
-6.0656393E-4
5.9949176E-4
7.841074E-4
-0.0012854782
-0.0015380839
-0.001454315
-7.177422E-4
2.6414928E-4
1.58058E-4
0.001628488
0.00206585
6.5417844E-4
1.0662158E-4
-0.0010000425
-0.0016828815
-3.6924199E-4
0.0023131727
0.0014124805
-0.0028203754
-5.892846E-4
0.0017432084
-8.2544767E-4
-5.0792256E-5
-0.0017470042
-0.0035267675
4.9955427E-4
5.868979E-4
7.256775E-5
0.0013489656
1.72522E-4
0.0014318444
0.0026449743
0.0014872039
-2.698135E-4
-0.0023623095
-9.1463164E-4
8.048773E-4
-9.5683645E-5
-5.4929627E-4
-5.7233986E-4
4.678471E-4
9.871449E-4
7.4618333E-4
9.204711E-4
-3.3385467E-4
1.0872707E-4
0.0020083704
0.0017386934
0.0013037808
8.5424475E-4
3.8789498E-5
-2.554551E-4
-0.0012287876
-0.003227746
-0.003025027
-1.9804414E-4
-4.4141212E-4
-6.7372725E-4
0.002339413
9.88628E-4
-0.0012165301
2.2754462E-4
-7.5476756E-4
-0.0017754214
-7.4092747E-4
-0.0010047244
-0.0013005532
-0.001267002
-8.8340184E-4
1.8625531E-5
-3.316562E-4
-2.4321176E-4
0.0011333647
9.530371E-4
6.836603E-4
0.0022982534
0.0017200944
-7.234057E-4
9.8692115E-5
0.0015109335
0.0012717342
0.0024995082
0.0022382743
-3.0123955E-4
-1.8110998E-4
1.0649228E-4
-3.7188097E-4
0.001103482
4.7010773E-5
-0.0018617082
-3.5307856E-4
-6.857659E-4
-9.924993E-4
0.0012938165
2.3779279E-4
-0.001696153
-0.0011095986
-6.396951E-4
2.3913551E-4
1.3992503E-4
-0.0016003457
-0.0013124752
-2.4551131E-5
-3.0205972E-4
-0.0010191186
-9.876997E-4
-5.1103195E-4
-2.1705478E-4
4.2385506E-4
2.777489E-4
-0.0011996024
-3.6112274E-4
0.0015727077
0.0018988203
0.0016171896
-5.7706295E-4
-0.0010785877
0.0013170746
7.8080496E-4
4.1031782E-4
9.4392564E-4
-1.730344E-4
-3.3615772E-5
-2.6240645E-4
1.1131362E-4
0.0020772102
0.0031583782
0.0030122318
-4.204055E-4
-0.0017745463
-2.0285287E-4
-0.00114401
-3.9645797E-4
-0.0013520535
-0.0027863064
0.0010104498
9.701977E-4
-9.589189E-4
-4.201289E-4
-9.1004587E-4
-0.0012952485
-0.002909203
-0.002292407
-4.7196247E-4
-0.0011031068
3.7338486E-4
-2.5426023E-4
-0.001148779
7.0250884E-4
-6.804856E-4
3.4776877E-4
0.0028191917
0.0025336624
0.0042420146
0.003416678
1.05205996E-4
-8.9079695E-6
5.4484315E-4
0.0014125858
0.0031538766
0.001745417
-0.002177773
-0.0024858464
5.061649E-4
0.0025708396
0.0017900623
-3.427109E-4
-8.168614E-4
-0.0029738531
-0.0019309374
0.001490624
-0.0077286996
-0.011242364
8.719221E-4
0.0023003994
-0.0011750828
0.0011818765
8.9871464E-4
0.0018613754
0.0013728689
-0.0011497999
1.2647444E-4
4.5010686E-4
6.263525E-4
0.0011571333
1.2832422E-4
0.001014082
0.0015400951
1.09438224E-4
3.8375263E-4
0.0022963667
0.002105703
4.780584E-4
0.0010151895
5.0920015E-4
-0.0011457712
2.8132492E-6
3.2613217E-4
-8.830324E-4
-0.001404604
-0.0014251999
4.987515E-4
0.0010843484
-6.1988644E-4
-4.8618158E-4
-0.0010945819
-0.0020219942
-3.2536188E-4
7.234926E-4
0.0014460803
0.0019925481
6.750272E-4
3.941552E-4
7.913485E-4
-4.7167032E-5
-0.0010514653
-9.009076E-4
-2.4395427E-4
-0.0014112785
-0.0012612946
1.8368886E-4
-9.212635E-4
2.586983E-4
0.0024147893
8.557429E-4
-7.328179E-4
-0.0020619705
-0.0024110584
-0.0021361322
-0.0029301294
-1.844869E-4
0.0024920027
9.3917426E-4
6.365259E-4
6.562696E-4
-3.266412E-4
8.9169753E-4
0.0019528482
9.374382E-4
6.537979E-4
0.001414815
0.0014891649
0.0014566641
9.241317E-4
-0.0011006863
-0.0018597192
3.8913864E-4
0.0019321303
3.8431615E-5
-0.0012507698
3.8347353E-4
8.822063E-4
-6.4655265E-5
-5.1380595E-4
-0.0012141893
-0.001360118
-0.0011889157
-0.0013168779
-5.8271847E-4
-2.8591033E-4
-5.920608E-4
1.7405942E-4
6.776817E-4
6.9631997E-4
0.0011575139
7.494756E-4
-3.125677E-4
-0.0012510469
-0.0015686778
1.2497258E-4
0.0011973
-1.0280295E-4
1.00430436E-4
0.0010778559
-4.970078E-4
-0.0015691405
-6.298055E-4
2.078851E-6
6.024792E-4
-1.026645E-5
-0.0012149378
7.0897996E-4
0.0019168779
4.0372348E-4
1.3606893E-4
5.0404086E-4
0.0011603558
9.266318E-4
-3.7078978E-4
1.7135263E-4
-1.3038689E-4
4.369789E-4
0.0022777277
4.307218E-4
7.4477946E-5
2.2797876E-6
-0.0022963725
-5.45133E-4
-2.5130761E-5
-7.493695E-4
0.0015414928
-5.4516003E-4
-0.0032261957
-0.0011527387
-2.7464976E-4
-0.0011423209
-0.0015191587
-9.853175E-4
4.3259206E-5
2.8459384E-4
-1.6111968E-4
-9.345835E-4
1.3130668E-4
0.0028103695
0.0022882486
-2.628035E-4
1.23771E-4
0.0012268623
5.3473917E-4
4.118178E-4
5.519209E-4
0.0011598549
0.0020115145
-1.6388757E-4
-0.0015168962
0.0011298261
0.0027640972
0.0013795327
-7.8332843E-4
-0.0018892827
-0.0012088643
3.8965046E-4
-4.7979303E-4
-0.0024262741
-4.6658432E-4
3.0087613E-4
-0.0014542459
-7.7525206E-4
-0.0010206214
-0.0010845787
3.3011948E-4
9.024946E-4
0.0018288029
2.7832156E-4
-9.2260307E-4
2.829274E-4
-0.0011763696
-0.0015588911
2.8232837E-4
7.434184E-4
-6.3704676E-4
-0.0021209635
-3.9771362E-4
6.7157013E-4
8.3969603E-4
0.0020114237
6.4920593E-4
6.437635E-4
0.0012612429
1.9993207E-5
8.1458536E-4
9.347836E-4
3.5078876E-4
5.951681E-4
7.4277085E-4
0.0012362709
-4.302023E-4
-0.0022314838
-0.0015869777
9.389128E-5
0.0017174424
0.002389485
0.0016246508
-0.0016325936
7.0721685E-4
0.0031981906
-0.008125482
-0.008280097
0.0053547863
0.0014717311
-0.0044571166
5.7899975E-4
8.272745E-4
-2.3049509E-4
3.322148E-4
-1.8981393E-4
-6.679599E-4
-2.5754856E-4
0.0031395473
0.0028394156
-5.8533874E-4
2.6857943E-4
-3.758985E-4
-0.0015877873
0.001274503
0.0023878587
0.0014534169
5.721589E-4
-0.0013342553
-0.0015077034
-3.1189145E-5
-4.7854238E-4
-0.0016009108
-0.0013922674
-0.0012763912
-0.001263345
-3.6931498E-4
6.37896E-4
0.0016865307
0.0022952626
0.0010463026
-0.0011264291
-0.0017088476
1.6272068E-4
0.0018262351
0.0021607373
0.0020763502
-6.045545E-4
-0.002499913
-9.1681995E-6
7.633951E-4
2.586252E-4
0.002052955
0.0031699017
0.0027186489
-8.174481E-5
-0.0025812362
-0.0021383602
-0.002023088
-0.0015173088
-0.0022178974
-0.004454976
-0.0028451255
-5.883526E-4
-1.3733188E-4
-5.2240095E-4
-0.0018363005
-1.925491E-4
0.0023921274
0.0027819762
0.0024606404
0.0016924972
0.0020097569
0.0016338417
-5.9702976E-5
-1.1613117E-4
-2.3108226E-4
-7.335715E-4
-8.859958E-4
-8.671482E-4
3.1119856E-4
0.0017219012
0.0026547986
0.0019121321
8.7391486E-4
0.0017388007
6.87966E-4
-7.377363E-4
9.383778E-4
0.001147245
-0.0017601096
-0.004724879
-0.004736545
-0.0018083275
-2.1605561E-5
-1.6150468E-4
-2.4702025E-4
3.0846565E-4
1.981961E-4
-0.0015603993
-0.0018405507
-7.863672E-4
-8.9589506E-4
-2.4561188E-4
-4.453077E-4
-0.0018921222
-5.330207E-4
7.8105513E-4
4.9945386E-4
0.0015046238
0.0021119067
0.0017287738
0.0014618661
0.0016457475
0.0021763102
0.0012186269
4.9021665E-4
0.0015056767
0.0022086916
0.0025840213
0.002904145
0.0036819042
0.0032105437
-2.3279044E-4
-0.0018260657
-0.002018289
-0.0041201524
-0.0037332124
-0.0010712213
-6.337912E-4
-0.001533877
-0.002384031
-0.0032093376
-0.0033592375
-0.002775431
-0.0015815636
3.4269388E-4
1.18761964E-4
-0.0023402052
-0.0015261974
-2.343052E-4
-0.0018116006
2.2131571E-4
0.0034185988
0.0017402706
9.76669E-4
0.00255844
0.001667345
7.610824E-4
0.002566603
0.003725771
0.0018239587
-3.3313208E-4
6.097746E-4
0.0026996862
0.0027145834
0.0013371046
-9.0202026E-5
-0.0011356781
-0.001655467
-0.0011915929
-3.0641026E-5
2.601922E-4
-3.309973E-4
-0.0012643636
-0.0018191504
-0.0012947415
-6.61901E-4
-7.688967E-4
-0.0013213806
-9.0440924E-5
0.0016949957
1.39613E-4
-0.0018884434
-0.0020494235
-9.17926E-4
9.744445E-5
-0.0019857876
-0.002635708
-6.692482E-4
-6.637028E-4
2.5898218E-4
0.0015185603
6.546651E-4
-7.198964E-5
-1.546117E-4
3.801017E-4
-3.4887056E-5
-7.947926E-4
7.551336E-4
0.002645687
0.0031237456
0.0033504728
0.003077466
3.9573453E-4
-0.0011818499
-2.9447543E-5
-4.803075E-4
-1.3323205E-4
0.0012446535
0.0024219211
0.0028185863
-0.0016232897
-0.0030046464
-9.936653E-4
-3.83877E-4
0.003179999
9.847431E-4
-0.0020990672
1.4294262E-4
-0.0014062083
0.0017257045
-0.0018274282
-0.014769832
-0.008294036
0.00225715
0.00245121
0.0047288854
0.0032423798
4.5178048E-4
7.402155E-4
0.0011381647
0.002055037
7.6282985E-4
4.6598745E-4
-3.657806E-4
-0.0019360199
-6.1106746E-4
-0.002273407
-0.002143266
0.0012226915
8.2942017E-4
4.089766E-4
-1.5261088E-4
4.4718344E-4
0.0029659509
0.0019145765
0.0011314563
0.0012359078
-0.0011834586
-0.0024456393
-6.6662615E-4
0.0017118268
0.0021808483
0.0021087746
9.32381E-4
-0.0021364042
-0.0011840241
0.0024599398
0.002508525
5.4833246E-4
2.4430108E-5
0.0019105923
0.0031617815
0.0015027764
-6.652386E-4
-0.0025871927
-0.002511259
-6.6332234E-4
-0.0028891894
-0.006065879
-0.0044963
-0.002637028
-0.0013836235
-3.1890368E-4
-0.0020055105
-0.0013082739
0.0014962865
0.001012152
8.767785E-4
7.925076E-4
-3.4206914E-4
0.0018512895
0.0032450166
3.6860225E-4
-0.001714291
-0.0010539673
6.0661964E-4
0.0020105287
0.0027971696
0.0029435537
0.0015027721
2.0212356E-5
0.0013685353
0.0031008432
0.0018103262
-2.6134972E-4
-1.7909407E-4
9.439034E-4
3.2914223E-4
-0.0015641787
-0.0013924829
-3.9632883E-4
-0.0013843016
-0.002551913
-0.0035531248
-0.0042603286
-0.0023743412
7.3395605E-4
0.0031451958
0.0036002088
7.697656E-4
-0.0014718191
-4.460854E-4
7.3759956E-4
0.0013348757
0.0016328172
3.1446601E-4
-6.7392143E-4
5.5196615E-6
3.267485E-4
1.2459578E-4
-4.1290646E-4
-0.0019700043
-0.0030038336
-0.0015951488
0.0013437064
0.0016815279
-4.919954E-4
-2.4226472E-4
9.205025E-4
4.9106363E-4
3.566455E-4
-4.2827107E-4
-0.0016742377
-0.0010202777
2.3990594E-4
-6.054987E-4
-0.0021484809
-9.915425E-4
0.0011158381
0.0010686002
-8.3399256E-4
-0.001521003
1.9725849E-4
2.5659225E-5
-4.8874976E-4
3.0523294E-4
-0.0012684767
-0.0014101187
-0.002552823
-0.0072218548
-0.0068595205
-0.0041453904
-0.0022626072
-5.7566096E-4
-0.0014948986
6.926946E-4
0.003984895
0.0043566446
0.004876105
0.0020909258
-7.3017913E-4
-8.913775E-4
-0.0017584307
-4.7610461E-4
8.890162E-4
0.0016564453
0.0018438947
-0.0017912495
-0.00233121
0.0019690779
0.005000081
0.004679333
0.0028527128
0.004014989
0.0048436136
0.004109683
0.005189433
0.003524571
-2.7933327E-4
-0.0037013164
-0.0076350435
-0.008369125
-0.0057449737
-0.0027958094
-9.913914E-4
7.844533E-4
0.003058356
0.0016359999
9.407987E-4
0.006598959
0.01094354
0.01076627
0.010822332
0.010739611
0.0059759463
-0.003057376
-0.009930501
-0.012932471
-0.012458713
-0.011673056
-0.015042814
-0.014318393
-0.005805155
0.0071612173
0.025539877
0.038350206
0.03774066
0.030523408
0.024758948
0.028527793
0.036293693
0.03243019
0.010094475
-0.02686418
-0.06015354
-0.06950085
-0.05700844
-0.038715076
-0.01764264
0.005627933
0.019497558
0.01806606
-0.0010728778
-0.039714366
-0.091244616
-0.12101373
-0.09136313
-0.045492157
-0.033068832
-0.0274794
-0.021219544
-0.022370739
-0.017031778
8.252345E-4
0.037400324
0.071863405
0.08994028
0.11569001
0.13724734
0.13579471
0.13689095
0.16326797
0.19743726
0.18705873
0.105923936
0.0031537318
-0.056933645
-0.06884335
-0.060711075
-0.06325685
-0.08052346
-0.071440764
-0.044860184
-0.03147829
-0.01827997
-0.038448386
-0.08589319
-0.097719975
-0.097604364
-0.11236876
-0.14141217
-0.16844878
-0.13788342
-0.09063826
-0.099353984
-0.1285376
-0.13665932
-0.11400906
-0.05574851
0.018510472
0.08567265
0.1405539
0.18914117
0.22620699
0.22340094
0.17848533
0.14742534
0.14165702
0.090967774
-0.0072846333
-0.06465684
-0.045879036
-0.0061303466
0.025708454
0.0914063
0.17214577
0.1980766
0.19692273
0.20334037
0.16450477
0.089501075
0.0040810523
-0.17844303
-0.3957141
-0.4323004
-0.31615913
-0.19744244
-0.104704544
-0.05735556
-0.05070753
-0.05261673
-0.05127818
-0.029298127
-0.019829007
-0.038806506
-0.033781122
8.9724106E-4
0.031415176
0.04745233
0.058656786
0.055779196
0.02697656
0.01638555
0.04518977
0.07146447
0.07753722
0.0773059
0.08033795
0.08456576
0.08711599
0.08625631
0.06664151
0.028373372
-0.0018368354
-0.009001542
0.001092822
0.011522057
0.004807716
-0.02445989
-0.067283414
-0.09392914
-0.07880234
-0.043340057
-0.019667802
-0.0052270973
0.0063006384
0.012546651
0.015493527
0.015312476
0.011285126
0.0015055658
-0.012212254
-0.02276408
-0.030033724
-0.034239013
-0.033636346
-0.031093234
-0.026364392
-0.016594144
-0.004679901
0.00431411
0.012088738
0.021181533
0.027234392
0.02796931
0.027104812
0.02623185
0.021223018
0.012857446
0.008453845
0.005680865
9.558337E-4
-0.0014510178
-0.0030417808
-0.005004441
-0.0047526727
-0.0045370245
-0.0043817624
-0.0025419514
-0.0012233272
-9.885093E-4
3.172778E-4
0.001533091
8.0338505E-4
1.3977091E-4
-8.32417E-4
-0.002112747
-0.0013551102
-0.0018361572
-0.0038386972
-0.0042877193
-0.0037475508
-9.5273973E-4
0.0015211059
0.0012501364
0.0023636695
0.002762628
0.0014887813
0.0023148323
4.4507877E-4
-0.003460641
-0.0012750983
0.004431572
0.009107173
0.010014527
0.006307969
0.0033998159
-0.0028619575
-0.011939651
-0.009587826
-0.0024231444
-0.0015051371
-0.0010665791
-6.6732685E-4
-5.744532E-4
-7.453379E-5
-5.7931157E-4
1.4715843E-4
-6.835617E-4
-0.0022391921
-4.424425E-4
0.0019294051
0.0033703407
0.0025051995
0.00196786
0.003757559
0.0029605352
0.001568778
9.1843645E-4
-0.0017226001
-0.0049650455
-0.007131325
-0.0068961694
-0.005077898
-0.0018421973
-7.691751E-4
-0.0048911357
-0.005316644
-8.6343253E-4
0.0012946466
-7.985495E-4
-0.0022106187
0.0018114684
-0.0012104784
-0.0058766417
0.0064879963
0.017025255
0.0150570925
0.010010174
7.7291543E-4
-0.0038031556
-0.0033753503
-0.0051901853
-0.0019286536
0.004787271
0.008233871
0.007276018
0.002321141
-0.0014359544
-0.0016271622
-5.825817E-4
-6.2237115E-4
-0.0040419907
-0.009676336
-0.010628879
-0.007816151
-0.008697244
-0.007251211
-9.568765E-4
0.0032505996
0.0043771304
0.0025850849
0.005646645
0.010194938
0.0039183577
-3.2379886E-4
-6.0771214E-5
-0.0038199646
-0.003029561
-1.7757622E-4
6.36523E-4
0.0012244942
-0.0016513831
-0.0024818615
-6.4116815E-4
-9.0752705E-4
-0.0020772235
-0.0064314567
-0.010294227
-0.0077566197
-0.003357471
6.9800386E-4
0.0046613617
0.004880975
0.0038250787
0.0058301925
0.0053538596
5.0886296E-4
-6.1821664E-4
0.0032915506
0.0063175317
0.0069447183
0.0075782277
0.008380015
0.007990791
0.0065405727
0.0059029623
0.006910574
0.003844109
-0.0036462701
-0.0069253547
-0.007690557
-0.009767764
-0.010065829
-0.009544022
-0.007741311
-0.0038305272
-0.0018992968
-0.0027061503
-0.0036065984
-0.003609497
-0.0035831814
-0.0025221417
-0.0011519653
-0.0027347016
-0.0047217854
-0.0053449795
-0.004987464
-0.002857391
-6.115672E-4
0.0035641657
0.008170509
0.008701195
0.0076632253
0.005579968
0.003967556
0.004559326
0.004534048
0.0035342916
-9.786618E-4
-0.0047501996
-0.0011488546
0.0019393496
0.0019633798
0.0030857078
0.0060000066
0.010825324
0.010682218
0.004260959
-0.0015705064
-0.0043044286
-0.0029294044
-0.0013050924
-0.0031733003
-0.006125939
-0.006230254
-0.001854157
0.0011599894
0.0012802426
2.5183347E-4
-0.004362128
-0.009154262
-0.01406781
-0.015374483
-0.00801451
-0.005412788
-0.0056521823
0.0016845015
0.007915918
0.013344689
0.013267771
0.001316617
-0.004514535
-0.0021439584
-0.0025187891
-0.0018960088
-5.0171817E-5
0.0013049764
0.0024546622
0.0018664696
9.825778E-4
0.0020469583
0.005476848
0.007038507
0.0074026366
0.01083302
0.011694083
0.00794191
0.0031830082
1.8313738E-5
-7.682445E-4
-0.005887325
-0.012043625
-0.011288944
-0.007955818
-0.003624623
-0.0010110456
-0.0010495457
3.2813213E-4
-1.0139298E-4
4.5958918E-4
0.0018111658
-0.0025337008
-0.0047957953
-0.0030770916
-0.0039886013
-0.0044184276
-0.0027531113
-0.0023131086
-0.0024611226
2.0483561E-4
0.003105837
0.0029844923
0.0033519012
0.0045612752
0.005153502
0.0048129885
0.00289289
0.0022453715
0.0028377434
0.0022819403
8.1927684E-4
-6.2405155E-4
-0.0015004593
-0.0023966702
-0.0026378417
-0.0028940015
-0.0032260083
-9.121054E-4
0.0023260252
0.003993577
0.0031341214
0.0010164496
5.3395116E-4
9.3975547E-4
0.0011338331
-2.9421868E-4
-2.7312274E-4
0.0015333812
-0.0011127553
-0.0027531316
-0.0029205342
-0.0057020914
-0.005307539
-0.0029771167
-7.582241E-7
-7.820723E-4
-0.0029455908
0.0017399727
-0.004512825
-0.012505631
-0.0010046996
0.0055138473
0.004815962
0.007834511
0.004919248
0.0026905355
0.0013513393
-0.0016011205
3.8622564E-4
0.002489957
0.003265739
0.0027795099
0.0020899195
0.0042665787
0.005363985
0.005444032
0.00237447
-0.002853428
-0.0028055916
-0.0015022561
-0.0020631258
-0.0038850585
-0.0056567634
-0.0030873287
-0.0019802179
-0.0046929223
-0.0047698617
-0.0031103073
-9.6911157E-4
0.0016160663
0.0020910117
0.0018973618
0.003395228
0.0033047495
-0.001032825
-0.00469272
-0.00377752
-8.009635E-4
3.5567838E-4
-1.3401452E-4
0.0015614239
0.0026180097
0.0013985031
0.0024472678
0.0015208989
-0.0015981117
-0.0013720078
-0.0014762096
-0.0010780566
6.658403E-4
0.0012646292
0.003525784
0.0027623903
6.977881E-4
0.0039049922
0.0024504177
-0.0029291736
-0.002909539
-0.001716207
-0.0013202421
-6.591638E-4
4.7127443E-4
0.001896856
0.0023835676
0.0035623377
0.002437548
7.2075834E-4
0.0023553793
-3.7304085E-4
-0.0053926096
-0.005968813
-0.005436703
-0.003615149
-0.0014565467
-7.15732E-4
-1.8958372E-4
-0.0017138488
-0.002858598
-5.676413E-4
0.0018571595
0.0026007944
0.003192212
0.003661569
0.0026947719
0.0011917658
-4.9561105E-4
-0.0021554749
-0.0013775455
-2.8767379E-4
-0.0012181707
-5.9821585E-4
0.001823996
0.0024625552
0.0015172816
6.186318E-4
-4.950726E-5
-5.482317E-4
-0.0016283918
-0.002339763
-0.001772895
-0.0014800328
-1.3086413E-5
0.0016627294
8.764385E-4
8.9867506E-4
0.0011791546
5.14961E-4
4.3206871E-4
-4.4306275E-4
6.2232115E-4
0.0032542238
0.003937747
0.0044826353
0.0030815655
2.8009512E-4
-4.972343E-4
-6.2822853E-4
-3.4121773E-4
-0.0015548542
-0.0036874143
-0.003748469
-0.0044388194
-0.0039527514
-0.0015777684
-0.0024948362
-0.0032232588
-0.0010798811
-0.0015003996
-0.0032358903
-0.002311125
-0.0012146608
6.4339786E-4
0.0030900883
0.0020394612
0.0020478172
0.0030560505
0.0013027211
0.0037864314
0.006839478
0.004296345
0.0026647507
0.0028062148
0.0036983262
0.0033280596
6.9138194E-5
-9.4428833E-4
-0.0015155345
-0.003343131
-0.004171961
-0.0035591067
-5.317797E-4
-3.6463732E-4
-0.0021845018
-0.0013075168
-0.0018186922
-0.0015586917
-1.6238996E-4
-0.0012558022
-0.002173176
-0.002278681
-7.988596E-4
3.8443963E-4
1.3947574E-4
0.0019706895
0.0019622345
1.13268434E-4
4.7449727E-4
-1.8480062E-4
-0.0015848241
-0.0013099479
-7.335626E-4
-7.5210416E-4
-2.3774005E-4
2.4196682E-4
-7.0325576E-4
2.8854815E-4
0.0038779136
0.0059142946
0.0045496053
0.0022069921
0.0025626034
0.001456266
-0.0027459625
-0.0038614061
-0.00246109
-5.491203E-4
0.0019408594
0.0030850573
0.0019551616
7.080939E-4
6.4327556E-4
-0.0014391817
-0.0018796665
-4.3715473E-4
-0.00186243
-2.645802E-4
-9.130789E-4
-0.0026579506
0.001779303
-0.0056403535
-0.01366434
-0.0028361874
0.0034349754
0.0015848007
0.0026286994
0.0023599933
0.0028065261
0.002371313
0.0013291539
0.0022561806
0.001962
0.0018742277
6.634873E-4
-0.001273817
-0.0013621099
-0.0023948743
-0.0025457651
-6.807216E-4
2.7230105E-4
2.9933482E-4
0.0010935598
0.00179117
3.620615E-4
1.5731147E-4
7.176675E-4
-0.0011364835
-0.0011949441
4.1287176E-6
1.3037879E-4
7.0838706E-4
-1.8944002E-5
-4.7308975E-4
0.0018217042
0.0037876416
0.0030121822
0.0013273786
0.0013832255
7.174108E-4
-0.001421778
-0.0020315375
-0.0031175748
-0.0034638753
-0.0017065237
-0.002254064
-0.0015689471
0.0015152158
0.002127283
0.0021070363
0.0012443624
0.0022638699
0.0019140103
-0.010327877
-0.014295517
-7.1077544E-4
0.0031462482
-9.41372E-5
0.0025916137
0.0025320796
0.0018958377
0.0026492877
0.0024652968
0.003615485
0.0031682304
0.0020746153
0.0010565938
-0.0013360721
-0.0013424513
-8.4699347E-4
-0.0014006938
-5.3651558E-5
4.2121456E-4
-5.454604E-4
9.143881E-4
0.002071133
-6.485258E-5
-0.0010981698
-6.707272E-4
-4.7063088E-4
0.0018826233
0.0022056843
-3.2405058E-4
1.8488817E-4
-1.003214E-4
-0.0032682677
-0.0041370587
-0.0021769
9.3754425E-6
9.8517216E-5
-5.728683E-4
-2.6535237E-4
6.629346E-4
0.0024649901
0.0016178417
-5.145092E-4
0.0010236496
0.0011134596
-0.0015100192
-0.0019590682
-0.0011505012
-2.701187E-4
-3.5982662E-6
-6.345447E-4
-0.0015415797
-0.002577097
-0.0013399572
2.2257816E-4
-5.639148E-4
-2.9598927E-4
2.708123E-4
-1.05511856E-4
0.0010836672
0.002420761
0.0023681193
0.0017698016
0.0015283077
9.432308E-4
-0.001123767
-7.1293366E-4
0.0032168815
0.0054615634
0.0054620733
0.0047972105
0.002773495
-4.89771E-4
-0.0031353922
-0.0027484924
-0.0013628001
-0.0014570293
-0.0010452527
-0.0015337383
-0.0035945366
-0.00341655
-0.0027756575
-0.0034223238
-0.003473312
-0.0037358878
-0.002910619
-0.0011514954
-9.736284E-4
-3.226098E-4
-4.903645E-4
-0.0019024931
-2.2872165E-4
0.001676603
0.0025439248
0.005291563
0.006257804
0.0041102003
0.0020940753
7.5997924E-4
-3.3316558E-4
8.956947E-4
0.0055107977
0.006723288
0.0022597774
-0.0014250113
-0.0045433855
-0.006848502
-0.003702226
7.634561E-4
6.264829E-4
-9.178186E-4
-4.0910678E-4
-3.639977E-4
-0.0012050492
-0.0011298514
-0.001125529
-0.0014397416
-7.890636E-4
6.7105336E-4
5.7876226E-4
-5.657E-4
2.2017748E-4
9.698689E-4
-4.1310574E-4
-0.0026414257
-0.0028811244
-4.1738944E-4
1.356032E-4
-3.9842085E-4
7.351662E-4
0.0017653245
0.0031099708
0.0023742912
-6.678816E-6
-1.816815E-4
3.322153E-4
8.3231926E-4
4.3285702E-4
7.9264585E-4
0.002028561
2.9301006E-4
1.1421905E-4
0.0013592724
0.0010297395
8.3063124E-4
-4.997799E-4
4.4833033E-4
0.00203336
0.0029056827
0.0039416095
-9.0816733E-4
-3.2721454E-4
0.0025192695
-0.008711011
-0.015587885
-0.013490261
-0.009038991
0.0036725334
0.00844026
0.0034585146
0.0020487735
6.371434E-6
-4.8727903E-4
0.0012215012
0.0010497683
0.0010559283
0.001565737
0.0026563634
0.0021217854
0.0017693936
0.0034131196
0.0021379257
1.3152577E-4
-3.741382E-4
2.3305499E-4
0.0025756343
0.0021995122
3.9660277E-5
-2.2548543E-4
-6.5504055E-4
-0.0018950154
-0.002322733
-0.0011069673
-0.0010466101
-0.0022955725
-0.0012251443
-9.8435E-4
-0.0019064796
-3.359083E-4
-2.0957393E-4
-6.2693673E-4
0.002592943
0.0037187247
9.141809E-4
2.8769145E-4
0.0023372495
0.002416307
-6.206564E-4
-0.0019928578
-8.180353E-4
-0.0013577999
-0.0019413885
-0.0012789926
-0.001682617
-0.0020995666
-0.0022005811
-0.0017497677
-8.1459945E-4
-0.0011208897
-3.8700065E-4
0.001498352
8.0752023E-4
-6.311999E-4
5.0211686E-4
0.0016825926
8.080961E-4
6.983189E-4
6.9780106E-4
-4.4748906E-4
7.6239463E-4
0.002984557
0.0033587497
0.0025906102
0.0013135822
0.0012989024
0.0012089411
4.9710285E-5
5.3555134E-4
5.867863E-4
-7.1511185E-4
-7.302186E-4
-0.0011135526
-0.0021092803
-0.0011995321
-1.3220342E-4
-0.0012509308
-0.0020715236
-0.0016541614
-0.0023051973
-0.0024790037
-8.510145E-4
0.001229814
0.0023496335
0.0012089092
8.073497E-4
8.2311605E-4
-6.148638E-4
5.916517E-4
4.742017E-4
-0.0022202337
-0.0010630331
-5.866068E-4
-4.426319E-4
0.001956852
1.278177E-4
-0.0013838381
9.176079E-4
0.0013086651
2.6055868E-4
-5.7607325E-4
1.5428501E-4
0.0010608116
-7.72723E-5
4.3492144E-4
0.0010555808
-3.738103E-4
-0.0010595539
-0.001408419
-8.2125625E-4
-4.397028E-5
-7.48155E-4
-7.58866E-5
0.0016384518
0.0019352406
0.0014330758
0.0016828069
0.0023673072
0.0011601076
-7.8190584E-4
-0.0015479992
-0.0021372326
-0.0013081452
7.087025E-4
6.4730825E-4
-6.880784E-4
-0.0012851278
-0.0018998614
-0.0019760903
-9.853194E-4
-1.6499744E-4
9.1974187E-4
0.001421878
4.7871278E-4
2.8887668E-4
1.7213059E-4
-5.6774105E-4
-1.055222E-6
9.426677E-4
1.2452157E-5
-0.0016781572
-9.2309306E-4
6.3293544E-4
5.723589E-4
6.385282E-4
5.769882E-4
0.001293178
0.002711772
0.0016602392
0.0015903907
0.0028614344
0.0012183636
-8.2617434E-4
-0.002165417
-0.003761768
-0.004364379
-0.0025832187
0.0010185697
0.002095447
0.0010326712
6.222875E-5
-6.07208E-4
8.592314E-4
6.8156194E-4
-9.820514E-4
-0.001333759
-0.0037720837
-0.0034700495
-0.001084932
-0.0018895478
7.3170546E-4
0.0033597709
0.0018379424
0.0015529692
3.8656432E-4
-7.2292465E-4
1.4453115E-4
2.7923475E-4
8.142749E-4
0.0012754694
3.9249763E-4
-4.028032E-4
7.448707E-4
0.0015280164
5.2253663E-4
0.0025686813
0.004103311
0.0014976579
-8.737815E-5
-1.4409212E-4
3.195685E-4
-9.604181E-4
-0.00238215
-0.0011440825
-9.4069605E-4
0.0010801733
1.7219788E-4
-0.0030469059
0.0028203824
-4.6205477E-4
-0.010947581
-0.0037311784
0.0018366118
-0.002432287
-3.9770332E-4
0.0011257298
6.516038E-4
0.0012304733
-6.353885E-6
6.6894334E-4
0.0020695315
0.0021108587
0.0015480438
4.9001485E-4
0.0011653889
0.0014931671
-3.5593944E-4
-0.0017068109
-0.0014901893
-7.876508E-4
-2.638387E-5
0.001902077
0.0017067628