6.57766E-4
4.2860024E-4
-4.351338E-4
-0.0023430102
-0.0032517961
-3.9538E-4
-1.0025914E-4
-5.4144213E-4
0.0010842778
8.675066E-5
-6.1084924E-5
0.0014998874
0.0015665167
0.0010787351
5.311865E-4
0.0012277076
9.7193767E-4
-7.5060816E-4
-6.022524E-4
-5.6783453E-4
-2.997293E-4
0.0012082672
7.2714913E-4
-0.0012006346
-0.0014384983
6.1769056E-4
0.0011560215
-8.4785727E-4
-0.0013535671
-0.0010158774
-0.0012806748
-9.935815E-4
-7.2597683E-4
-4.679483E-4
-9.742943E-5
-2.473508E-4
-2.1153124E-4
7.94635E-4
0.0010928392
-1.9038063E-4
-6.3632155E-4
-1.3671692E-4
3.9149943E-4
0.0012107189
8.114487E-4
2.9483196E-4
6.813806E-4
4.9566984E-4
9.907022E-4
0.0013050137
7.3985965E-4
0.0011263612
7.170469E-5
-0.0015590539
-8.5036404E-4
-3.1643073E-4
5.860469E-4
0.0015163878
-5.990603E-4
-0.0013888287
4.987633E-4
4.5803783E-4
3.4262604E-4
0.0010701091
-6.107058E-5
-0.0011233421
-0.0012356199
-8.155319E-4
8.856789E-4
4.4009247E-4
-0.0018122892
-0.0012462599
1.9704646E-6
-4.2623982E-5
-9.178574E-4
-0.0016691557
-6.795671E-5
4.708359E-4
-3.380307E-4
8.259082E-4
0.0013110995
0.0013247228
0.001273997
3.3412268E-4
-3.2348198E-5
-0.0012469048
-0.0012797189
9.694639E-4
0.001974314
0.0018184362
7.463137E-4
-5.917389E-5
-3.0871131E-4
-0.0017539517
-0.0023199206
-9.272175E-4
5.0008635E-4
-5.027268E-4
-0.0022500802
-0.0018433807
-0.0012661703
-4.070199E-5
0.0013698434
0.0013981143
0.0014108606
7.5778575E-4
6.04107E-4
3.9703675E-4
7.2844914E-4
0.002742332
0.0015926746
9.768555E-4
0.0020435115
7.1344076E-4
9.73577E-4
7.906224E-4
-0.0011773895
-0.0024615345
-0.0011287786
0.0025526898
0.0018457987
0.0018823658
6.521115E-4
-0.0046043363
-8.345391E-5
-0.002565868
-0.014574482
-0.00804462
0.0022733645
0.0021345797
0.0013512721
-2.7345037E-5
-6.3095385E-6
9.065465E-4
0.0022581979
0.0030067714
0.0012029189
0.0014462816
5.227962E-4
5.174814E-4
0.0033812178
0.0015386376
5.617995E-4
0.0019912233
3.4490196E-4
-0.0016816452
-0.0018296065
5.3615205E-4
0.0017389657
0.0014809585
0.0018324753
2.023153E-4
3.7060192E-5
0.0012043612
3.1845924E-4
-0.0010992172
-0.003536794
-0.004669487
-0.0038057356
-0.0029056463
-0.0014443888
1.2005502E-4
0.0023508593
0.0027132868
0.0019873308
0.003945187
0.0031419506
-3.5000689E-4
-0.0023821737
-0.0036289112
-0.0016289608
0.0010195429
7.8415533E-4
8.1283686E-4
0.0013242591
0.0010293904
-6.943555E-5
-0.00146703
-0.0027393706
-0.0033388028
-0.0012947425
9.70733E-4
8.703958E-4
3.1626475E-4
-4.692265E-4
5.946748E-5
0.0019814316
0.0017149737
8.944199E-4
7.194294E-4
7.636694E-5
1.04681145E-4
-9.2291285E-4
-0.0019246151
-3.2522902E-4
8.187642E-4
0.001771709
0.0025189058
2.699759E-4
-0.0011632085
2.8418397E-4
6.947088E-4
-6.161106E-4
-7.3303096E-4
0.0010796724
0.0015803835
-5.701858E-4
-0.00258923
-0.0018887441
3.6601353E-4
2.700987E-4
-0.0010390595
-6.045196E-4
-5.8584033E-6
2.6677054E-4
5.114385E-4
0.0010337783
0.0016254917
8.6122553E-4
6.4957136E-4
2.1563203E-4
-0.00160999
-0.0011631942
-6.7292014E-5
-1.7019699E-4
3.2844313E-4
-2.705016E-5
-0.0011882327
-7.8816916E-4
9.931268E-4
8.197213E-4
-0.001078528
-9.2991727E-4
-5.140752E-4
-3.989763E-4
5.033972E-4
-7.874194E-5
-7.7567785E-4
-9.326463E-4
-8.9808955E-4
9.697477E-5
5.1571184E-4
0.0012134492
0.001702051
0.0017618875
0.0020760635
-5.721662E-4
-0.0016612333
0.0010733873
0.0014238248
0.0012324674
5.568939E-4
-0.002136895
-0.002333711
-8.259164E-4
3.2089875E-4
6.8975653E-4
1.8646359E-5
-4.1247353E-5
-5.859109E-4
-2.2914457E-4
0.0016836576
7.5344136E-4
-7.832844E-4
-1.7582614E-4
-3.40904E-4
-0.0012513323
-0.0014838441
-4.9020874E-4
0.0014118715
0.0020971852
0.0012468839
8.957156E-4
0.001820864
0.0017452849
4.4871363E-4
8.965135E-4
7.877789E-4
-0.0016560646
-0.0019860775
-0.0019590757
-0.0034779694
-0.002365983
-8.740662E-4
-9.854459E-4
-5.659811E-4
-2.5602884E-4
4.6853206E-4
0.0010289841
5.3276296E-4
-3.4364508E-4
-0.0013852124
-5.0277554E-4
7.640865E-4
0.001144372
0.0024166089
0.0016598611
-8.190088E-4
-0.0011457691
-6.591153E-5
-4.6770007E-4
-0.0011372499
0.0010832878
0.0012186178
-8.867941E-4
8.6833345E-4
0.002611465
0.0033157999
0.0026572666
-5.144653E-4
-2.1637208E-4
-2.144982E-4
-0.0017612268
-1.5693286E-4
-6.503076E-4
-0.0016038088
-2.9678133E-4
-1.5707336E-4
5.137009E-4
0.001379351
9.630985E-4
-4.6541894E-4
-0.0020972888
-0.0020138754
4.9476257E-5
0.002455776
0.0019729724
-4.6378947E-4
-0.0038359002
-0.00348989
0.0041275937
-1.3979994E-4
-0.011821148
-0.004565496
0.003936698
0.0017459576
0.002678628
0.0019843453
0.0011020126
0.002636205
0.0015438736
0.0019948143
0.0016556847
-2.5920093E-4
-2.1743868E-4
-2.3200593E-5
8.313334E-4
-2.9685776E-4
-0.0019296635
7.125577E-4
0.002746765
0.001798688
3.188121E-4
-2.1570385E-4
-3.6908867E-4
-0.002511025
-0.003215982
-5.062284E-4
1.8044117E-4
-0.0020358206
-0.003082768
-0.0019316694
4.1695745E-4
0.0015355193
-1.5082372E-4
-0.0012001413
-0.0010099474
-0.0018838869
-0.0010686372
0.0020879377
0.0043057217
0.004687449
0.004481817
0.0031030693
-4.6678478E-4
-0.001813929
-2.8278568E-4
5.740016E-4
7.7215716E-4
-0.0013797606
-0.0016818051
0.0019974306
0.0021388978
1.7892025E-4
-0.0024365063
-0.0055848607
-0.004078485
-0.0011589429
6.320564E-4
0.0013694421
4.613973E-5
-0.001652532
-0.0036786236
-0.0017377132
0.0012096757
-6.2071846E-4
5.72358E-4
0.0016680163
-6.7915086E-4
0.0012655831
0.0031549619
0.003746891
0.004011927
7.284396E-4
1.7764521E-4
0.0014946143
7.1687106E-4
0.0015668566
0.0014217391
-0.0013292352
-0.0021869685
-0.0013779115
-0.0025817987
-0.003055473
-8.9316186E-4
-0.0013821803
-0.0019627477
-7.610204E-4
-0.0011441915
1.617731E-4
6.500362E-5
-0.0014405613
0.0013728216
0.0015814874
-7.5802684E-4
-1.0181537E-4
-3.7251506E-4
-9.960182E-4
3.2971482E-4
0.0023099037
0.0028346358
0.0011054202
6.180562E-4
0.0012441583
0.0010550315
0.0014874329
0.0020823944
0.0017702925
0.0012101779
0.0013158997
0.0017232255
0.001154111
-0.0017205942
-0.004614063
-0.0028325326
-0.0011523543
-0.0032609366
-0.0023623696
2.9075023E-4
-6.8532804E-4
-0.002024314
-6.480529E-4
2.2407899E-4
-0.0015254671
-0.001546873
-2.1727357E-4
-4.921295E-4
6.907727E-4
0.001884685
7.8105147E-4
-6.251814E-4
-7.915046E-4
8.87384E-4
7.2176324E-4
-3.0461216E-4
0.0018274189
0.0027739322
0.0020813502
0.0031805444
0.0037501932
0.0033678901
0.0037827087
0.0022393023
-0.0015643707
-0.0033431875
-0.004187235
-0.0045012846
-0.0029274267
-0.002086348
-2.700322E-4
5.0365244E-4
-0.0014234488
-3.5852464E-4
-4.6458538E-4
-0.001296218
0.0016569002
0.0010815215
-5.894382E-4
-7.595462E-5
-0.001056229
1.7657666E-4
0.0015957748
7.6953653E-4
8.2446134E-4
6.2388676E-4
0.0010203649
0.0020767776
0.0017644229
3.8016657E-5
-0.0016983218
-0.0013422032
-0.0020357536
-0.0027998409
-6.1077904E-4
-0.0010357269
-0.0018099778
-2.6192726E-4
-0.0018994688
-0.0030409035
-3.3712882E-4
0.0027037964
0.0034562899
8.9211407E-4
-6.344109E-4
3.1084465E-4
0.0010150882
0.002251402
0.004004649
0.0051616556
0.0030996508
2.7988845E-4
0.00160783
0.0013268794
-6.3071534E-4
6.719554E-4
0.0012088286
2.9235255E-4
-0.001266325
-0.0026382701
-8.58841E-4
9.514064E-4
1.9084859E-4
-0.0017711603
-0.0033041406
-0.003342351
1.7646242E-4
0.0034096942
-0.0059959604
-0.015452727
-0.0060397303
0.0026521655
2.6445126E-4
3.7042424E-4
8.818476E-4
2.4235655E-4
0.0016935674
0.0017054336
0.0015411471
0.0017485328
-2.541486E-4
-0.0015360814
2.2456012E-5
0.0019425983
0.0023139764
0.0010189994
5.778795E-4
0.0015261605
7.829397E-4
0.0012758218
0.0034598254
0.0026724588
0.0032316896
0.0064973836
0.007365679
0.00635766
0.0047919885
0.0037242412
6.3609204E-4
-0.0071880952
-0.011072445
-0.007528954
-0.004652021
-0.0036018677
-0.0020488356
-0.0013785386
-6.74505E-4
-9.767663E-5
-5.528958E-4
-5.825733E-4
-0.0023648662
-0.004036967
-0.0017537037
-0.0020219923
-0.004986272
-0.004234747
-0.0026076587
-0.0015984864
3.6110534E-4
0.0018672755
0.002024087
0.0023363526
0.0053017032
0.007560864
0.0062645026
0.004847601
0.0029209752
3.4817628E-4
-3.1812402E-4
-6.6107896E-5
0.0013796238
0.0023095373
3.3162342E-4
2.684769E-4
4.9815915E-4
-0.00316171
-0.002969436
6.924417E-4
0.0014452814
0.0021681758
0.0014957591
-3.7687088E-4
-6.199478E-4
-0.002642526
-0.0039156238
-0.0026768164
-0.0014169556
-2.761204E-4
-0.001679151
-0.0030564894
-0.0023072378
-0.0022134776
-6.374196E-4
0.0011130804
6.2879577E-4
7.3352276E-4
0.0012568008
0.0011624744
0.0013912095
0.0019380955
9.78358E-4
-7.6041784E-4
1.4787557E-5
0.0012987662
9.2159805E-4
0.0011872171
0.0024273056
0.0026057356
9.942765E-4
-0.0010202957
-0.003407194
-0.0050806934
-0.0027373196
4.3346206E-4
2.7690295E-4
-1.3040425E-4
4.4358728E-4
-3.9008624E-4
-7.595598E-4
-3.0035054E-4
-0.0019784141
-0.0012866048
0.0029247352
0.0038913083
0.0037674292
0.004381203
0.00265059
8.7917293E-4
-0.0010573497
-0.0035321144
-0.0031539015
-0.0013949443
-0.0014218048
-0.0020358309
-0.0012796284
2.4711032E-4
0.002702234
0.0051570833
0.0045200866
0.0021054887
-9.282971E-4
-0.0041660517
-0.0042306674
-0.002201643
-0.0010134524
-0.0014921429
-0.002199632
-9.444058E-5
5.0118985E-4
-0.0021567268
-2.6968896E-4
0.003993009
0.0033120494
9.0927375E-4
-6.8774965E-4
-0.0015785566
0.0014049846
0.0042813467
1.8713762E-4
-0.005912979
-0.005414428
-4.3351355E-4
0.0011065371
-0.0014042847
-0.0030100725
-0.0022253713
5.8477624E-5
0.0024964826
0.0035352379
0.0039704856
0.0041844435
0.003456983
0.0034442043
0.0038331128
0.0014966846
-0.0018030446
-0.0016753305
3.4508776E-4
2.8916195E-4
-0.0010259843
-0.0019485762
-0.0020026003
-2.3196278E-4
3.3267323E-4
-0.0018163417
-0.0028328137
-0.0016520164
0.0010282263
0.0015286502
-0.00204117
-0.0029842134
-0.0021596414
-0.003186535
-0.002977695
-0.0026667907
-0.0012565538
7.2675815E-4
2.2561062E-5
0.0012697873
0.0036727602
0.003059322
0.0022365288
0.0031557255
0.0020872247
-0.0024864464
-0.001770668
0.0033250272
0.004639967
0.004323156
0.0017877722
7.306423E-4
-1.654608E-4
-0.005179063
-0.0013182773
-9.802643E-4
-0.0122190025
-0.006380196
0.008036151
0.010332037
0.008386571
0.0023553066
-0.0038964122
-0.004976082
-0.0055520665
-0.004484336
-0.0030562421
-0.0043913573
-0.0049015684
-0.0013024603
0.0035891936
0.005949845
0.005924252
0.005046589
0.0060040355
0.0041504935
-0.0031028811
-0.005051906
-0.0025207177
-0.0022205268
-0.0012406578
0.0010064278
0.004694214
0.00622132
0.0024402987
1.9410586E-4
0.0013967348
9.00141E-4
-0.0027763739
-0.0053588212
-0.0065777376
-0.010037226
-0.009360661
-0.0024330828
0.0029705053
0.005519878
0.004608377
-0.0012078066
-0.007031496
-0.0061157476
7.1178365E-6
0.0024170731
3.8514522E-4
-0.0016211668
-0.0033550465
-0.0020410402
0.005040846
0.01146275
0.010941107
0.010788699
0.015253567
0.016098106
0.010058169
-0.0030883923
-0.015972529
-0.015625736
-0.008432404
-0.002107421
0.005047778
0.007272096
0.0031914506
-0.0028606723
-0.0068383818
-0.0068332697
-0.0087699685
-0.008960535
-0.0026797825
-4.8712682E-4
-0.002850312
-0.004056698
-0.0057997927
-0.0047601652
-0.0013335786
-4.3136286E-4
2.7859892E-4
0.0013960531
0.0010674153
0.0020188675
0.004617182
0.005460934
0.004232216
0.0029810485
0.0050175143
0.009137537
0.008091095
0.005540514
0.0064987494
0.0023966692
-0.0041412553
-0.0022773421
0.0027937659
0.002923249
-1.176573E-4
-1.3823458E-4
0.0038701314
0.0063551785
0.005444123
0.0026499503
-0.0012889709
-0.0052195955
-0.008545204
-0.0123577695
-0.016068852
-0.015677605
-0.0138667235
-0.013954778
-0.0097075375
-0.0024786384
0.002114399
0.0043372884
0.0016420645
-0.003151717
-0.004788798
-0.0034720267
0.0035846469
0.013284739
0.016695162
0.012991154
0.006694018
0.0034623463
0.0037788707
0.003045172
0.004916591
0.012302249
0.01645183
0.015392211
0.014395126
0.008621597
-0.0040983516
-0.014100386
-0.017845726
-0.01984135
-0.020639895
-0.018161353
-0.012930681
-0.007462329
-0.0067240773
-0.0122262435
-0.013201834
-0.004640613
0.0023300783
0.0053574992
0.009505406
0.01207447
0.014545244
0.016646696
0.010763162
0.003687255
0.0046549723
0.005493751
0.0020313147
2.1469028E-4
4.584068E-4
5.2112896E-6
-4.4560008E-4
6.927535E-4
8.055193E-4
-0.00246641
-0.0069252998
-0.010243938
-0.008512326
-0.0016125252
0.0040639834
0.0050915848
0.0011871348
-0.0026245315
-0.0017161177
9.7549893E-4
0.003281828
0.0043989453
0.0080806725
0.014606718
0.01599735
0.016333528
0.016859522
0.010404901
0.0029161717
-0.00257238
-0.010754914
-0.019042509
-0.020239698
-0.018533207
-0.02733533
-0.039411146
-0.04187528
-0.03879929
-0.03208925
-0.021488408
-0.011993057
-0.007939255
-0.0023715636
0.011142389
0.023150193
0.037549425
0.064244635
0.08687139
0.08780318
0.07980254
0.07979966
0.06760553
0.035828564
0.006496836
-0.02764768
-0.056664243
-0.059805863
-0.06791327
-0.0929507
-0.11153953
-0.11256842
-0.09468721
-0.06816395
-0.036406767
0.0036434312
0.037749607
0.05641706
0.0617254
0.043016482
0.010130823
0.007846399
0.029034978
0.03446402
0.03317723
0.0397438
0.06636145
0.10477211
0.12394698
0.14508636
0.15442859
0.09486024
-7.502022E-4
-0.07111105
-0.10263257
-0.12650122
-0.17469849
-0.20201968
-0.17016977
-0.11818123
-0.08191984
-0.062197566
-0.04992724
-0.049576182
-0.049491122
-0.02695142
-0.009414104
0.007376645
0.0525128
0.09029803
0.12815954
0.16998924
0.17593959
0.19008586
0.1918272
0.1333051
0.085547805
0.024480345
-0.07877509
-0.14777839
-0.17149073
-0.12750115
-0.027947055
0.026504293
0.0255267
0.009387327
-0.009460337
-0.04722268
-0.10266531
-0.108323805
-0.05911731
-0.018495878
-0.025831759
-0.06951375
-0.07475866
-0.012967036
0.075114936
0.14252248
0.15164116
0.11248416
0.05283792
0.016642269
0.030407296
0.032595426
1.7177973E-4
-0.007588198
0.006771796
-0.0029110508
-1.9018572E-4
0.016262675
-0.041832417
-0.12925975
-0.18349813
-0.21677302
-0.15334019
-0.032537926
0.047984496
0.10242301
0.06710104
-0.007204946
0.013411467
0.04563764
0.042849384
0.051984016
0.06655028
0.08221747
0.076246016
0.067844756
0.07477167
0.04130022
-0.0013856785
0.009933406
0.0518231
0.087774314
0.08013068
0.021259317
-0.04024837
-0.08320156
-0.120011255
-0.1440269
-0.14025833
-0.110672615
-0.07682752
-0.054723777
-0.039858464
-0.027366973
-0.01513515
-0.0080814855
-0.005504132
0.007646274
0.017276596
0.019369435
0.03109643
0.033602335
0.033735227
0.04283489
0.04107822
0.05511522
0.09140661
0.11245461
0.11048847
0.095265396
0.08588398
0.059225626
-0.016464936
-0.089196265
-0.11664171
-0.107602015
-0.07747382
-0.051235694
-0.036534104
-0.029457299
-0.019736419
1.4173423E-5
0.004855231
-0.009523246
-0.020621343
-0.022210753
-0.014264367
-0.0045097615
2.486613E-4
0.0028119092
0.005493205
0.010573742
0.016175743
0.021415005
0.02354395
0.02003456
0.017279066
0.01502648
0.0113334
0.008233226
0.005285133
0.004025224
0.0028194129
0.0011489498
-4.7336047E-4
-0.004974014
-0.009489583
-0.009667859
-0.0055172853
-0.0016379423
-2.4728874E-5
0.0020288597
0.003609067
0.0045346674
0.0052004093
0.0072926665
0.009756891
0.008454904
0.0076435776
0.0053470274
-6.2201836E-4
-0.0048032324
-0.0069337203
-0.0036270802
-0.004857542
-0.016102321
-0.018350674
-0.014848141
-0.010725098
0.002659328
0.015027274
0.014461311
-1.7352996E-4
-0.0107410215
-0.008999233
-0.0147049725
-0.01436425
8.716434E-4
0.0041519837
0.0011216184
0.0027621323
0.0025783863
0.0036224318
0.0040989644
0.004181025
0.0057427385
0.004753724
0.0024363955
6.450038E-4
0.0016276437
0.0031263619
0.0025366019
0.0047911145
0.0067226635
0.006391862
0.0076035745
0.0074640713
0.0066066594
0.0052525005
-2.8156986E-5
-0.006040573
-0.009213914
-0.0099253515
-0.00924059
-0.0070684473
-0.0045714034
-0.0030146218
-0.0013135032
-0.0038587225
-0.00964115
-0.010230546
-0.009692545
-0.009806677
-0.0048968224
0.0024441853
0.009510401
0.014024248
0.016330492
0.018948678
0.014951345
0.0054778815
0.0020004401
0.003554252
7.2940846E-4
-0.006911877
-0.009110305
-0.0056249485
-0.0030713077
0.0030443766
0.00923323
0.008120191
0.0045583295
-2.0527764E-4
-0.0052115615
-0.010179368
-0.01746184
-0.01874372
-0.01344229
-0.009766766
-0.0061482233
-0.0012431593
0.0037642755
0.006291138
0.005118365
0.0045868917
0.0043525654
0.005904687
0.010004866
0.008724461
0.0039095464
-4.5178476E-4
-0.0046454943
-0.0029599401
0.001578556
0.0050822943
0.009173705
0.007120735
0.0020967808
8.40265E-4
-0.0029814544
-0.007199087
-0.007197479
-0.005436095
-0.001250564
0.0017357912
8.022278E-4
-4.5874316E-4
-4.7292124E-4
0.001986722
0.0046279626
0.0025284227
-0.0028580544
-0.0035123988
0.002236027
0.0035400132
-4.42227E-4
-0.0020721396
-0.003973253
-0.00480073
-0.002645109
-0.001809782
-0.0010203014
-0.0018980373
-0.004427713
-0.0023596096
0.0015024093
0.0010441557
-0.0024873286
-0.0031033088
-7.3859136E-4
-6.4864795E-4
4.715748E-4
0.0034991673
0.0035634919
0.0029333534
0.0027353158
0.0027754896
0.0035903377
0.003460692
0.0047838916
0.0059773233
0.0027812778
-9.230732E-4
-0.0027191855
-0.0030029123
-0.0015846464
-8.0848543E-4
1.0216087E-4
0.0019872223
-4.7526253E-5
-0.004826263
-0.00502937
-0.0029589068
-0.0027572124
-0.0018392272
-0.0022150248
-0.0030344168
3.0769184E-4
0.0016095035
-3.7375436E-4
0.0013272532
0.004157991
0.0046543437
0.0037385763
0.0018040909
9.942661E-5
-0.0012108521
-0.0012370639
-0.0014811509
-0.0032039948
-7.3627924E-4
0.0028066973
0.0020327365
0.003204859
0.0046734717
0.002280469
-5.0546596E-4
-0.0046100235
-0.0066725016
-0.003127854
-7.375991E-4
-0.0018128003
-0.0034185264
-0.0034913612
-9.869854E-4
0.001042694
0.0012120059
0.0014309203
0.0023938892
0.00351321
0.0025761789
-0.0011085576
-0.0038391857
-0.0022711095
0.0010157079
0.0021672521
0.0019755769
0.0016832243
0.0016144926
0.0022601339
0.0030863767
0.0036454776
0.0032986293
0.0017061371
-3.2575542E-4
-0.0020202876
-0.002719043
-0.00126508
4.0957576E-4
-0.0016513456
-0.0037021344
-0.0020944264
1.459003E-4
0.0022701963
0.0020314811
-1.2337882E-4
-0.0014852724
-0.002743385
8.4250286E-4
0.001189478
-0.0086896615
-0.009278939
-6.818688E-4
0.0021384242
0.0035334555
0.0036123577
0.001807406
0.002114102
0.0018572133
0.0012300801
0.0010984812
0.001179919
0.0017343565
0.001669701
2.0594758E-5
-0.0033344394
-0.0025718233
0.001396643
4.8663816E-4
-5.111007E-4
3.0375243E-4
-0.0017246177
-0.0019965793
-3.1933357E-4
-7.9082104E-4
-0.0011028638
-5.8195525E-4
-4.7057137E-4
-4.1578207E-4
-8.0451684E-4
-9.5530367E-4
5.252693E-4
0.0019469389
0.0014090345
2.875076E-4
-1.8977979E-4
2.2699281E-4
0.002433287
0.0038204186
7.873412E-4
-0.0013764146
0.0016196059
0.0028555822
5.027044E-4
1.1182078E-4
6.0466066E-4
-0.0012077317
-0.002531659
-8.71412E-4
-6.682743E-4
-0.0019632105
-1.4270659E-4
-5.9793476E-4
-0.0038385165
-0.0030999556
-0.0013062658
4.891684E-4
0.0020686537
8.990094E-5
-0.001159227
-2.971313E-4
1.7788139E-4
2.705175E-4
-8.803271E-4
-9.4672735E-4
2.326278E-4
3.624534E-4
0.0011072905
0.0014777102
0.0012321989
0.0015182722
-1.1654044E-4
-7.8838674E-4
0.001753852
0.002406789
0.0015772249
8.746867E-4
-0.0010495792
-5.9813965E-4
0.0012107152
6.120373E-4
1.8796846E-4
-7.8670064E-4
-0.002098631
-0.0011854612
-7.8122574E-4
1.5120288E-4
0.0021418538
0.0010887493
-0.001047708
-0.0015544919
-0.0012170578
-9.81899E-4
-9.019903E-4
-2.945953E-4
-7.057844E-4
-0.001088123
4.582149E-5
6.651001E-7
-2.0387722E-4
-4.252597E-4
-0.0019155062
-0.0010253417
0.0011492327
0.0020769692
0.0025961073
0.0012492898
5.14662E-4
0.0015379337
-1.8639553E-4
-0.0015507943
3.9281877E-4
4.5651788E-4
-4.2373332E-4
8.185696E-4
3.833644E-4
-0.0011123392
-6.0273544E-4
7.434683E-4
0.0025945415
0.0024067264
-2.2645312E-5
-4.0873906E-4
-8.8482874E-4
-0.0021390517
-0.001972212
-0.0013214926
4.74009E-4
-1.0053507E-4
-0.002342924
-4.7005402E-4
-9.933183E-6
-8.9071365E-4
9.746763E-4
-1.7637819E-4
-0.0016960547
3.0372586E-4
0.0022507764
0.0026368469
2.419011E-4
-6.893208E-5
0.0022007837
-3.7893854E-4
-0.0016059951
0.0013711988
5.538778E-4
-0.0010537555
-9.286663E-4
-0.0011543067
1.4266226E-4
3.8662585E-4
-8.979123E-4
4.1773118E-4
0.0015782039
0.0012033473
0.0016948498
9.5317187E-4
-7.68733E-4
-0.0011943943
-0.0012227647
-8.014658E-4
-3.5701855E-4
-2.6617094E-4
-1.2371797E-4
-8.863894E-4
-5.59333E-4
0.0010376237
2.3124389E-4
-5.280269E-4
0.0011336769
0.0013893723
-4.0964995E-5
-4.1388627E-4
-3.1855635E-4
-0.0012179977
-0.003031312
-0.0035268231
-0.0016753663
-2.6303696E-4
-1.1764202E-4
-6.0271577E-4
-9.83105E-4
8.591988E-4
0.0025059953
0.0022288195
0.0022555878
0.0021027739
0.0020214159
0.0015151141
7.8136724E-4
0.001647034
9.680539E-4
-4.4608169E-4
-1.4753782E-4
6.754052E-4
0.0010275607
-9.577453E-4
6.1808067E-4
0.0036218986
4.7855603E-4
7.8624085E-4
-5.095354E-4
-0.005516626
-6.160128E-4
-0.0037854023
-0.014473725
-0.007100001
0.0031269398
0.0040544346
0.0040152115
0.0017361131
8.925758E-5
5.5623055E-4
0.0011019767
8.5715373E-4
-6.5753184E-4
9.6908363E-4
0.0029151526
0.0018730758
0.001034262
4.4175188E-4
0.0014051012
0.0018631304
-5.085264E-4
-0.0012338363
-9.5310964E-4
-0.0018519536
-0.0019738341
-9.3191914E-4
2.6105196E-4
7.126896E-4
-8.997409E-5
-0.0018046355
-0.0020673445
-0.0012899673
-0.0014692801
-1.8398646E-4
0.0010962177
0.0011493962
0.0024237193
0.0015250575
-2.104258E-4
0.0010840375
0.0019177794
0.0024187358
0.0027293987
8.3986664E-4
-2.2444896E-4
8.830451E-5
-6.6680484E-4
-0.0015257087
-7.925835E-4
5.8485526E-5
-5.3302373E-4
-6.7203294E-4
1.5162492E-4
-9.0694736E-4
-0.0037239578
-0.003171662
-2.0655415E-4
-0.0014123083
-0.0018998673
0.0015376916
0.0010981135
-6.8846E-4
7.115039E-4
0.0018396401
0.0023508864
0.002153761
8.5321686E-4
-0.0016261373
-0.0030572794
-1.613999E-4
8.704828E-4
6.500154E-5
0.0026732935
0.0022421146
-7.1030176E-5
7.465257E-5
-0.0010893578
-0.001465655
-0.0012636737
-0.0016087536
-1.3790626E-4
-4.3979374E-4
-0.0012964313
3.456392E-4
0.0010585848
0.0011934147
0.001824188
0.0020143331
0.0012349463
-0.0011261032
-0.0017737512
1.4683822E-5
7.037515E-5
-7.4519916E-4
1.6155535E-4
0.0015378997
0.0015518198
1.2709037E-4
-3.5630388E-4
1.714836E-4
-4.1943826E-4
-2.838447E-4
2.4991596E-5
-0.0016419869
-0.0015498691
1.4202982E-4
-4.905419E-5
-6.467273E-4
-8.5421774E-4
-8.617452E-4
-2.9488496E-4
4.3361355E-4
6.890917E-4
1.3325369E-4
2.7321212E-4
-4.488956E-5
-0.0013023663
2.6892268E-4
0.002115757
0.0015257995
0.0012801286
0.0014884431
0.0015094418
3.6760152E-4
-0.0010720912
-3.0311407E-4
1.4557593E-4
-0.0010050067
-0.001743617
-0.0011404015
2.2323131E-4
-2.8318114E-4
-0.0022128
-0.0021808124
1.2034467E-4
8.207933E-4
-0.0010371497
-2.8766211E-4
0.0015265804
5.9221097E-4
-1.0431793E-4
-7.246703E-4
-9.712039E-4
1.260978E-4
-1.3578233E-4
-2.0156063E-4
8.281557E-4
6.494232E-4
2.1684436E-4
0.0019606948
0.0044590994
0.004233146
0.0033175105
0.002795866
5.9120904E-4
-0.0017872846
-0.0042504636
-0.004984442
-0.0021873377
-7.914849E-4
-0.0012054981
-5.978615E-4
3.7178866E-4
0.0010305465
7.022085E-4
-2.276423E-4
-0.0015575184
-0.0019589649
-0.0011575695
-0.0018353317
-0.0012697125
1.9412325E-4
-3.2450707E-4
0.0010543066
0.0022554346
0.001486518
0.0012971943
-2.591886E-4
-3.7672548E-4
9.0598676E-4
-4.3546144E-4
-0.0011140327
-7.7288726E-4
-1.003022E-4
0.0015944313
0.0020165637
0.001677431
0.0010519931
7.6968415E-4
9.7059837E-4
6.9575413E-4
0.0015407425
8.105599E-4
-0.0013395188
-0.0012876876
-0.0011340615
3.3213477E-5
3.694988E-4
-0.0010097694
3.4422174E-4
1.5379707E-4
1.2026249E-4
0.0018581336
-2.9676847E-4
-1.6336747E-4
3.3820732E-4
-5.7113194E-4
0.0016851999
-0.0055442513
-0.01186103
-0.0021681814
0.0024892348
0.0017252397
0.0038420167
5.335748E-4
5.158861E-5
0.00105173
-0.0013009498
0.0016406701
8.9288916E-4
-0.0030250102
2.4323334E-4
0.0020125078
0.0017358549
0.0021173833
2.812777E-4
-1.3108525E-5
6.381269E-4
6.176028E-4
-9.6037367E-4
-0.002160423
-2.1951315E-5
-0.0013572172
-0.0020684183
0.0022813687
0.0029691006
0.0030167666
0.0031876015
-3.051319E-4
-0.0032465144
-0.0041368576
-0.0017815669
-5.5687723E-4
-8.2027906E-4
0.0024584401
0.001841625
-6.77056E-4
0.0010270728
0.0018313456
0.001491184
0.0010131785
0.0010559945
-9.041613E-4
-0.003852846
-7.80326E-4
8.103094E-4
-1.4936482E-4
0.0013756264
-8.3080085E-4
-0.002642148
-0.0025115185
-0.0033051246
-7.747159E-4
0.0013234001
0.0018447445
0.0020896287
9.854658E-4
3.6697925E-4
-0.0011308457
-3.1649266E-4
0.0016468676
-5.189002E-4
-0.0013917194
-6.221202E-4
2.9757855E-4
0.0019311794
7.226042E-4
3.2672862E-5
0.0013142715
0.0010727381
-7.156419E-5
-0.0017052403
-0.0012673769
0.0016221196
0.0019239263
1.8975216E-4
-2.019738E-4
9.0092726E-5
-2.2825878E-4
-0.0013968829
-0.0020369
-9.99567E-4
-2.0554675E-4
3.710365E-4
0.0015031222
8.97462E-4
-4.5867372E-4
-0.001364787
-0.00192939
-6.388362E-4
-1.5331527E-4
-6.9045846E-4
3.6841673E-5
-2.7891295E-4
-5.7975587E-4
6.668233E-4
0.002348187
0.003069697
6.795943E-4
-0.0011540238
-1.265849E-4
3.953571E-4
8.225554E-4
0.0017758475
0.0021537964
0.0013627232
2.5095843E-4
5.5601937E-4
7.237119E-4
0.0011051315
0.002199953
3.459246E-4
-0.0027479904
-0.0035860406
-0.0034708544
-0.0024913503
-0.0012024237
-0.0013265485
-0.0013229431
-9.0833474E-4
-2.4972574E-4
0.0015680076
7.876837E-4
-0.0014881599
-6.6533295E-4
-5.6852336E-4
-7.2627154E-4
4.921307E-4
6.839294E-5
5.988003E-4
8.63204E-4
-8.5399675E-5
3.721368E-4
-5.7343417E-4
-1.4555117E-4
0.002445796
0.0024364872
0.0015090143
3.4309766E-4
7.7875025E-5
9.087183E-4
7.592097E-4
0.0013238683
5.43988E-4
-8.410546E-4
-2.8928547E-4
-0.0012565571
-0.0018250452
-1.6597728E-4
0.0013217535
0.0020820182
0.0023103033
0.0032584656
0.0017350649
-0.0017018056
-2.670435E-4
0.0012745282
-0.0021739772
-0.0047210352
-0.0030767599
-3.530318E-4
5.2485215E-5
-7.88929E-4
-0.0013309208
-0.0017919843
-7.4831786E-4
5.652307E-4
1.059807E-4
-7.534996E-4
-0.0011310189
-0.0012209069
-0.00121368
-0.0013336471
-0.0015337237
-7.381551E-4
8.171431E-4
7.616096E-4
6.057457E-4
0.0013174684
0.0014022335
0.002926023
0.003974007
0.0022895413
0.0013473287
0.0014599621
0.0020928083
0.0014684418
-6.9435773E-4
1.99371E-4
8.4980816E-4
-3.1649385E-4
2.3499365E-4
-3.6893794E-4
-8.8289456E-4
-3.0898378E-4
2.3240375E-4
0.0018712409
9.793607E-4
-5.943478E-4
-0.0026170285
-0.0042037987
0.0015259845
-0.0011267768
-0.013333134
-0.009224743
0.0010619417
0.0017352586
0.0029218958
0.004519363
0.0038008336
0.002845379
3.6841244E-5
-0.0015123292
3.0273647E-4
0.0015313736
6.080765E-4
-7.6001295E-4
-0.0019328602
-2.3973874E-4
0.0036274816
0.0029928398
0.0013609846
0.002647226
0.0014031233
-6.082617E-4
-0.0010752695
-0.0010998026
-1.1090835E-4
-0.0012113963
-0.0025041848