-2.3577228E-5
2.5282854E-5
-0.0016583804
-8.922393E-4
3.6080886E-4
-0.0017506544
-0.0015941161
-1.2884144E-5
-0.0014154352
-0.0016271269
2.0833292E-4
7.5678446E-4
-7.7006296E-4
-0.0031267782
-0.003097858
-5.154189E-4
8.4118586E-4
5.066435E-4
8.592578E-4
8.6528296E-4
-1.1315086E-5
5.2865193E-4
0.0016573681
0.0024434526
0.0025340742
0.0014417582
0.001258757
5.556873E-4
-3.2203842E-4
0.0016488704
0.0016900228
-1.9734523E-4
3.6565E-4
1.4641017E-4
-1.291E-4
0.0014376097
0.0015433284
3.572164E-4
-8.9257286E-4
-0.0019620636
-0.00262052
-0.0024324618
-7.340603E-4
-0.0010005602
-0.00230153
-4.1064483E-4
3.6982296E-5
-0.0019866908
-0.0012623994
6.504548E-4
7.4700685E-4
-2.609694E-4
-9.587566E-4
-9.657674E-4
-8.061536E-4
2.3829805E-4
0.0015858713
0.0013980396
3.4313978E-4
-1.1341882E-4
5.191285E-4
0.0012154231
8.801948E-4
3.8058686E-4
2.6212411E-4
3.7727883E-4
-1.8501341E-5
-0.0011911403
-0.0012382146
-4.892996E-4
2.1134202E-4
0.0011900308
2.1869814E-4
-8.614885E-4
4.5264514E-5
-8.545463E-4
-9.84451E-4
0.001632713
0.0022515296
0.0025626326
0.0027035868
2.2781019E-4
-3.1281947E-4
0.0015807598
0.0015611538
-3.990287E-4
-0.001257145
-9.554322E-4
-0.0010048889
7.261924E-4
4.847562E-4
-0.0028666554
-0.0013246516
4.6309215E-4
4.876589E-4
0.0022830986
-0.003445059
-0.0087906495
-0.0027897651
6.733605E-4
-8.8978716E-4
-3.6709436E-4
1.892174E-4
5.718689E-4
4.8585568E-4
0.0011764098
0.0026646352
0.0014044486
2.4449993E-5
-7.543321E-5
4.8485093E-4
0.002599861
0.002645589
0.0012230374
0.0015021416
0.0012391953
0.0010759049
6.356452E-4
-0.0015606321
-0.0011955076
1.710977E-4
-9.374572E-4
-9.656869E-4
-3.1025865E-4
-4.957166E-5
0.0010837439
4.7214743E-4
-0.0013815453
-0.0018724827
-0.0015299134
-9.815991E-4
-6.060375E-4
-1.1046433E-5
-2.8849056E-4
-0.0017077001
-0.0012338468
2.3236871E-4
0.0011307718
0.0018193718
9.4077905E-4
9.5798794E-5
3.39997E-4
-3.0311114E-5
-1.2283279E-4
-4.0538624E-4
-0.0021122617
-0.0025277273
1.3810526E-5
0.0017183785
4.268262E-4
0.0010201305
0.0039879954
0.0033817738
1.2938917E-4
-0.0015762761
-0.001603951
-6.592527E-4
-4.4378193E-4
-0.0011274904
-6.483048E-4
-3.9477594E-4
-7.802206E-4
0.0010575629
0.0024416707
4.522875E-4
-9.6318836E-4
-0.0011888966
-0.0020096428
-7.675579E-4
6.434047E-4
5.139074E-5
0.0013040509
0.0019995412
2.1638938E-4
-1.5166633E-4
-3.5877342E-4
-1.5210049E-4
5.7843776E-4
-5.9392914E-4
-3.569043E-4
4.627989E-5
-1.1567745E-4
0.001949544
8.326383E-4
-7.121043E-4
0.0011034259
-5.7779107E-4
-0.0022725007
-0.001157349
-0.00103294
-4.5630278E-4
-0.0011195285
-0.0015696168
4.5035465E-4
4.8801693E-4
-5.062544E-4
-6.912961E-4
1.1842425E-4
0.002425848
0.0026601134
0.0010449396
1.7418724E-4
-4.3368447E-4
-8.3115E-4
-3.873286E-4
5.9958344E-4
-1.3890769E-5
-0.0012525215
-0.0011687394
-1.2465626E-4
0.0023037049
0.001993757
-4.6598766E-4
8.297929E-4
4.512736E-4
-0.002126881
-2.3169086E-4
0.0010612208
-0.001127599
-0.001306086
9.4335043E-4
0.0018207711
6.339451E-4
-4.1556E-4
-8.292538E-4
-3.3357114E-4
0.0010041269
9.4665657E-4
-6.891574E-5
-6.491919E-5
-5.3979084E-4
-0.0023377202
-0.0018299728
5.577406E-5
-0.0013102277
-0.0023372883
-9.1314747E-4
-1.16054216E-4
5.80964E-4
3.506309E-4
3.7690473E-4
0.001688282
5.769782E-4
-7.334998E-4
-7.262737E-4
-5.635813E-4
9.1409497E-4
9.96792E-4
6.2058214E-4
0.0015520193
1.4551214E-4
-4.5824706E-4
0.0018257167
0.0016634011
7.8773976E-4
0.002131915
0.0016655907
7.744887E-4
0.0016169643
-1.955096E-4
-0.0017409201
-6.4490305E-4
-0.0017295358
-0.0018901075
-6.822429E-4
-0.0017592355
-8.9401397E-4
7.2472444E-4
6.539351E-5
-6.5119565E-4
-0.0020918262
-0.0028589987
-0.0018683182
-0.001123123
-9.807416E-4
-9.881529E-4
6.72951E-4
0.0016856968
2.7328124E-4
3.624464E-4
7.39659E-4
6.3109613E-4
8.586083E-4
1.792446E-4
0.0016952901
0.0028233898
0.0012946351
0.0020333882
0.0021896665
0.0012395614
0.0013371516
-4.524053E-4
-3.9635878E-4
7.1689487E-4
-8.814247E-4
-0.0015605635
-0.002698247
-0.0018012333
0.0017921447
0.0010703638
0.0012168204
-6.341153E-4
-0.00807382
-0.0054402323
0.0013493806
2.089192E-4
2.9233698E-4
3.7025945E-4
-0.0014781926
-6.9435016E-4
-1.0371486E-4
0.0016393013
0.0029774029
0.0012538228
0.0013395061
0.0014617523
3.3005007E-4
6.9188955E-4
-1.00310936E-4
-0.0017187538
-0.0012991414
-1.8740851E-4
0.0012347138
0.0034983815
0.002961881
-8.0092496E-4
-0.0016678934
-4.6047498E-4
-0.0016275236
-0.0018964421
-4.876673E-5
-4.6196477E-5
-0.0014030784
-7.942499E-4
0.0011710871
0.0019951267
0.0014353533
6.007522E-4
5.237384E-4
2.574015E-4
-9.373453E-4
-0.001666013
-0.0022102469
-0.0019671498
-1.8919149E-4
2.31071E-4
-8.7727903E-4
-9.0211164E-4
1.3231373E-5
7.3590357E-4
9.969033E-4
5.644396E-4
9.789069E-4
0.0013561083
-0.0021143758
-0.0027520226
0.0021463858
0.0020560839
7.8766135E-4
0.0022538456
-1.8235407E-4
-9.879802E-4
3.17211E-4
-6.006959E-6
0.0015366521
7.3363824E-4
-7.1096723E-4
6.5324176E-4
-7.466192E-4
-0.0013203024
8.765444E-4
0.0013074835
4.3064408E-4
-7.961911E-4
-5.263524E-4
1.5088497E-4
-8.8014733E-4
-0.0013723532
-0.0016918654
-0.0020662644
-0.0017412856
-9.2600763E-4
8.320587E-4
0.0015001765
0.0012442309
0.001401033
3.0625876E-4
-9.3398016E-4
-9.5883576E-4
-4.597979E-4
-1.4889795E-5
-3.274599E-4
-4.060866E-4
-1.338169E-4
-4.753393E-4
-2.211291E-6
8.3094335E-4
2.6190092E-4
7.7725475E-4
0.0025695318
0.0016767061
-1.3103151E-5
1.716575E-4
1.0286322E-4
0.0010013297
0.0026558696
0.0014766988
-9.228282E-5
-5.0152215E-4
-0.0013582497
-6.6751376E-4
6.5465945E-5
-0.0018524985
-0.0026247103
-9.915907E-4
6.916136E-5
5.488019E-4
9.849367E-4
7.997367E-4
6.0704402E-5
-0.0011994543
-0.0016734219
-3.3339413E-4
2.8194446E-4
-8.179745E-4
-0.0011409258
-5.8309664E-4
-0.0014385997
-0.003072549
-0.0016350818
0.0015909941
0.00201364
0.0011522791
9.286016E-4
0.0011545365
0.0019178548
0.0012750307
1.8053064E-4
2.557784E-4
1.9260007E-5
-1.3680868E-4
-2.5704296E-4
-8.005836E-4
2.9699143E-4
0.0027913046
0.0024964456
-1.03018334E-4
3.854773E-4
0.001373518
-4.8758922E-4
-9.759698E-4
-2.6668463E-4
9.274855E-5
2.034849E-4
-9.674091E-4
-0.0018655598
-0.0023407156
-0.0018556023
-2.8861253E-4
5.4505834E-4
0.0016118528
7.6578785E-4
-7.610947E-4
7.978178E-4
7.3321746E-4
-6.4887863E-4
-2.8902618E-4
-6.010292E-4
-0.0015510684
-0.0023740937
-7.113666E-4
0.0015952769
-8.3072996E-4
-0.0022753305
2.0939855E-5
-3.4769718E-4
-0.0013761957
2.2797329E-4
6.1624346E-4
-2.8973378E-4
2.5600588E-4
2.0931549E-4
-0.0012578093
-7.638566E-4
0.0014858969
0.0022316934
0.0020767068
0.0024636604
0.0021244946
0.0018628503
0.002572144
0.002196296
7.8658224E-4
6.6948775E-4
0.0022978596
0.0018349126
-9.59589E-4
-0.0013880306
-5.9197925E-4
0.0015141773
0.0017686497
-0.005137994
-0.006781125
-0.0012804822
1.0090559E-4
0.0015372249
-0.001016918
-0.009201934
-0.0080707595
-0.0012979845
9.187898E-4
0.0010426136
9.961161E-4
0.0020896646
0.0033315676
0.0023149096
9.4864366E-4
1.3078745E-4
-7.4197043E-4
-3.0846303E-4
6.187381E-4
2.3435004E-4
4.3572654E-4
0.0016280423
0.0025175558
0.0028378041
0.0021367404
0.0013769906
-5.3295003E-5
-0.0010710581
-1.1831934E-4
-8.9742284E-4
-0.0017213072
-8.613119E-4
-9.91994E-4
2.476536E-4
0.0010385311
-6.131062E-4
1.3263883E-5
0.0014385519
-1.04425395E-4
-8.3743036E-4
0.0012894808
0.0010505246
-7.1314984E-4
-3.607457E-4
-8.508749E-4
-3.3395388E-4
6.5715285E-4
-9.1972365E-4
-3.8411247E-4
3.8208877E-4
-3.3373397E-4
8.326028E-5
-3.361268E-5
8.9453725E-4
5.810434E-4
-9.974963E-4
7.779972E-4
-2.3124299E-4
-0.0035549076
-0.0032443395
-0.002018768
-5.943625E-4
-3.537373E-4
-9.066011E-4
-2.2180651E-5
-9.010794E-4
-0.001673932
-2.892129E-4
6.5192155E-4
0.0016266657
0.0021992284
0.0024933608
0.0027135385
0.0013602985
0.0012610615
0.0023097629
0.0013436663
6.5059826E-4
9.803071E-4
6.66641E-4
-1.2738021E-5
-6.0786237E-4
-2.7387933E-4
6.187904E-4
0.0014903197
0.0015644542
-2.0682006E-4
-0.0018096429
-0.002662261
-0.0027645004
-0.0020306318
-0.002575505
-0.002323479
-0.002215294
-0.003955495
-0.0022214742
3.712195E-4
3.7510443E-4
0.0014811722
0.0026524314
0.0024703948
0.0014705785
0.0014479808
0.0026329337
0.0026693225
0.0038398243
0.003480301
-2.8536058E-4
-0.0011880485
-0.001092676
-0.002383848
-0.0026420918
-0.0016383897
-4.1719584E-5
-2.474662E-5
7.4918487E-4
0.0011299531
-0.0018602586
-0.0015772118
3.5604977E-4
-4.2763213E-4
-0.0012658199
-0.0020078174
-4.997578E-4
2.509605E-4
-0.0015177561
-8.8816526E-4
-7.123694E-4
-1.7196077E-4
0.0010540795
-2.511588E-4
8.0134935E-4
0.0014814314
2.2139253E-4
0.0017790972
0.0018375893
3.5984846E-4
3.9502737E-4
0.0014762064
0.0027898245
0.0013827938
2.2608449E-4
3.452732E-4
-3.9143395E-4
-1.6959198E-4
-0.0019825913
-0.0031421306
2.1407501E-4
0.0014864652
6.1686244E-4
3.1223363E-4
8.6821776E-5
5.991866E-4
-6.771768E-4
-0.0018866513
-4.2763294E-4
-0.001161664
-0.0038279316
-0.003451609
-0.0018059949
-9.824012E-4
9.605488E-4
0.0020415103
0.0019277906
0.002947654
0.0019451992
6.841422E-4
0.0016330698
2.8748918E-4
-2.6577152E-4
0.0020781513
0.0012687233
7.396718E-5
0.0024661396
0.001966119
-0.001976854
-0.0029473924
-0.0027983682
-0.00366948
-0.0040341127
-0.0044759004
-0.0024907195
0.0013378655
0.0023123077
1.0869662E-4
-0.0020953035
-6.554754E-4
0.0010191851
0.0012160677
0.0033363744
0.0029209284
6.645081E-4
9.5909915E-4
0.0011142212
0.0010541203
5.10791E-4
8.902988E-4
0.0031280674
0.003104349
0.0016307032
3.821583E-4
9.0799405E-4
0.0022932207
7.699682E-4
-8.6843886E-4
-0.003246415
-0.005000438
-8.8151346E-4
0.0027931852
-2.979482E-4
-0.008962066
-0.012644283
-0.0045088152
0.0020775506
0.0028972703
0.00496345
0.006090092
0.0050947876
0.0013865664
-0.002436699
-0.0012555526
2.9847602E-4
-0.0017965065
-0.0038841509
-0.002365888
-1.2520407E-4
-2.739329E-4
7.876666E-4
0.0024483283
0.002481307
0.0026332107
0.0013598979
-0.0014364023
-0.0025682992
-5.762406E-4
0.0013062828
-2.840657E-4
-1.979457E-5
0.003411402
0.003125593
1.3119726E-4
-8.537254E-4
1.3368862E-4
0.0010892778
1.4406227E-4
-0.0010704788
1.6531096E-4
0.001218468
-3.415083E-4
-2.1170656E-5
0.0019872235
-4.237932E-4
-0.0031121778
-0.00245257
-0.0036466632
-0.0052912924
-0.004782432
-0.0025949236
2.518094E-4
-8.9090155E-4
-5.115284E-4
0.0040635834
0.001830284
-0.0011008652
0.002693604
0.0044025974
0.0037102082
0.0016491296
-8.3889987E-4
3.6836744E-4
3.4245563E-4
-6.4370036E-4
6.405326E-4
0.0014691888
0.0026201464
0.0027578978
0.002113777
0.0040657367
0.004347585
-8.923914E-4
-0.0052094343
-0.0016410724
0.0015003495
-0.0022465321
-0.0035590362
-0.0035742647
-0.0065438678
-0.0049044727
-5.4676266E-4
0.001895043
0.0043770755
0.004657522
0.0026284852
9.433324E-4
-8.705093E-4
-0.0030774677
-0.0056186104
-0.007646961
-0.0071757105
-0.0038446994
-1.3852105E-4
0.002396939
0.0048353937
0.004694669
0.002144121
0.0027529204
0.0030811625
1.1997381E-4
-0.0020177553
-0.0048356685
-0.005191431
8.831349E-4
0.005448278
0.0059863636
0.0043482394
5.79504E-4
0.0014312624
0.007456486
0.010260967
0.0073903077
0.001980892
-0.002351819
-0.004802489
-0.0057072737
-0.0031783811
-6.2171853E-4
-0.00344616
-0.005675673
-0.0031514936
-0.0024809705
-0.0021042537
2.2593139E-4
-0.0020951093
-0.0035741897
5.884514E-4
-9.602036E-5
-0.004539035
-0.0044489717
-0.00302575
-0.0019136817
1.08212735E-4
0.0013174829
9.6500496E-4
-4.6853395E-4
-4.2894034E-4
-4.190754E-4
-7.7261036E-4
0.0046797884
0.0077473894
0.0028596038
0.0027319645
0.0048329583
0.003276489
0.0029273177
-3.2389886E-4
-0.004697891
-0.0037640734
7.271768E-4
0.0061287186
0.006106821
0.001437624
-0.00105138
-0.0027065745
-0.003781612
-0.0027898184
0.001511624
0.005947571
0.0030434572
-0.0020567111
-0.0036668775
-0.004441936
-0.0035123692
-0.0032497998
-0.0048927777
-0.0025573946
0.0018845213
3.8824737E-4
-0.0028831626
0.0011025168
0.0052807336
0.0030638329
-1.445166E-4
-0.002280665
6.790666E-5
0.0058319326
0.004671805
-0.0030124502
-0.009290403
-0.011331987
-0.012108401
-0.011751273
-0.0049761343
0.0022805806
0.0035843865
0.004878842
0.0051411586
9.1675547E-4
-4.0575364E-4
0.0048837797
0.009028008
0.006700898
0.0024256937
4.504899E-5
-0.0026782053
-0.0058618775
-0.005812158
-0.0047857664
-0.0032021883
0.005151134
0.012626268
0.016163196
0.024019448
0.02283721
0.012861544
0.009354412
-5.190398E-4
-0.011683988
-0.008586757
-0.0070580523
-0.0090903165
-0.0074589117
-0.007490193
-0.007639408
-0.010437936
-0.015615012
-0.01685506
-0.018091166
-0.016676756
-0.008782791
-0.0029432855
1.5652891E-4
0.002330805
-0.006568161
-0.026438832
-0.040395264
-0.04307342
-0.041483764
-0.035541516
-0.02330569
-0.0070778686
0.014606248
0.042490598
0.063498884
0.070520364
0.07887078
0.09085497
0.09509588
0.09235336
0.079244524
0.053299237
0.023205297
-0.0064276564
-0.031186705
-0.045087755
-0.049773756
-0.053089738
-0.05467688
-0.042925227
-0.02409886
-0.019550974
-0.027113171
-0.0312501
-0.026533283
-0.016011646
-0.011359774
-0.0150100505
-0.015874716
-0.010912108
-0.003169966
-0.0062964684
-0.029729776
-0.048632856
-0.04188714
-0.0130979605
0.022118727
0.040979754
0.0405902
0.028331485
0.021902297
0.03969875
0.050240405
0.025044624
-0.02194835
-0.06338017
-0.077293664
-0.07761213
-0.07378375
-0.06537429
-0.06928639
-0.07469461
-0.059312757
-0.011443107
0.05149871
0.10244956
0.15802746
0.21181005
0.2576063
0.2803913
0.21268155
0.099469006
0.009920542
-0.07198314
-0.097326845
-0.05908231
-0.045597065
-0.08234338
-0.11832723
-0.08127986
0.03723075
0.14352207
0.11362224
-0.023095498
-0.089877725
-0.10150812
-0.1675882
-0.23700671
-0.2989098
-0.3388483
-0.27256984
-0.16315794
-0.08717542
-0.021555526
0.033386942
0.100174285
0.1913947
0.25011176
0.2508405
0.18763106
0.08396354
0.03176372
0.037832472
0.021740358
-0.012948413
0.027784275
0.17101075
0.27799603
0.2793964
0.25509527
0.17025535
0.01372462
-0.09623778
-0.1460468
-0.1584843
-0.14360742
-0.15120386
-0.17954612
-0.20948571
-0.20879483
-0.14106318
-0.05896646
-0.018557651
-0.008193234
-4.3339198E-4
0.0055268714
-0.013494263
-0.03748962
-0.026277997
-0.0087688025
-0.026111962
-0.04661439
-0.029917728
0.02830977
0.11691329
0.18873201
0.23064917
0.2532192
0.20728719
0.12806495
0.0712321
-0.03942765
-0.17307174
-0.20195727
-0.15004581
-0.099706784
-0.068443745
-0.03391093
0.01141138
0.043006483
0.06165296
0.061180163
0.012981867
-0.05578861
-0.08882121
-0.07260571
-0.039322514
-0.016846396
-8.487686E-4
0.010884724
0.015964435
0.01923866
0.020777259
0.020300739
0.018175527
0.01674757
0.015907919
0.013656589
0.015228917
0.017161278
0.016454607
0.015801145
0.008799013
-5.608984E-4
-0.006647453
-0.0109418575
-0.008694367
-0.0039542546
-1.4866656E-4
0.0046862345
0.005635956
0.005423942
0.008558508
0.010869715
0.010298
0.008854296
0.0053134104
-2.7463827E-4
-0.0031076765
-0.0073738415
-0.010338337
-0.005818929
-0.01126517
-0.023218464
-0.019994274
-0.013425777
-0.012030152
-0.0064441618
-3.3395027E-4
0.0019120354
0.0031619188
0.0044734725
0.0059611946
0.0088126995
0.01005853
0.0066017765
0.003773621
0.0015333063
-0.002434766
-0.0039462703
-0.0046187327
-0.004326036
-9.986749E-4
0.002137808
0.004212906
0.0046148407
0.0051090587
0.007874699
0.011559827
0.014387299
0.01198064
0.0058513926
-2.339112E-6
-0.0052320953
-0.0066871666
-0.0074261157
-0.009824439
-0.009053112
-0.007038634
-0.0067612883
-0.007202064
-0.007300117
-0.0067592626
-0.0070045353
-0.007727992
-0.008332839
-0.007627454
-0.0052326955
-0.0035062847
-3.8516812E-4
0.006641289
0.016109366
0.023200002
0.022542892
0.015516259
0.004817771
-0.0025498823
5.267232E-4
0.0047609843
0.004163376
0.0032743094
0.005152894
0.012601053
0.014875163
0.005451747
-0.0012573905
-0.0035700907
-0.008751127
-0.013505542
-0.012994996
-0.0082311835
-0.011311936
-0.02038087
-0.01767786
-0.009663332
-0.008129858
-0.0074118297
-0.0045187133
-9.430631E-4
0.0015525235
0.0039875107
0.007115298
0.007388729
0.006121954
0.0033225135
3.9393883E-4
0.00322732
0.0062755793
0.0049331817
0.0035539225
0.0028370281
0.0026554482
0.0028414382
0.0024356819
0.0017915309
0.0020799043
0.0030672043
0.0019358054
0.0015413768
0.0037185545
0.0023495937
-0.0013322034
-0.0020869425
-0.0025874604
-0.0052727475
-0.00522108
-0.0011945233
-6.0682406E-4
-0.0016612894
9.849288E-4
0.0026940936
0.0037892195
0.0059147696
0.0052583106
9.4610546E-4
-0.0064490987
-0.011909943
-0.010859849
-0.0070396475
-0.0045497473
-0.0033913394
-0.0022617572
-0.0022743628
-9.7359E-4
0.0040016687
0.0050290613
9.2241983E-4
-0.0024353275
-0.003282912
-9.0787804E-4
1.4336446E-4
7.546548E-4
0.0053458335
0.0067488872
0.0044425824
0.0023793099
-8.180639E-4
7.647892E-4
0.0077080014
0.012914799
0.013503527
0.007279038
0.0014270488
0.0018063259
2.3525799E-4
-0.0038590182
-0.008394804
-0.013656744
-0.012022958
-0.008108982
-0.008419011
-0.0050449367
-5.0777633E-4
0.001290912
0.0019387157
-0.0016474269
-0.0027522885
-5.280869E-4
-0.002676536
-0.003295488
-0.0020158105
-0.0022358003
1.7578532E-4
0.0016407765
0.0016142279
0.0036754191
0.0044655036
0.004441427
0.0047452003
0.0043280884
0.006259097
0.0080715725
0.00459647
5.576016E-4
-2.624856E-4
-4.6194016E-4
3.2430995E-5
5.76419E-5
-0.0022696967
-0.0035465588
-0.0020476172
-5.8373064E-4
-3.2760866E-4
8.615495E-4
0.0018790641
9.500477E-4
7.756921E-4
-3.6251382E-4
-0.0030443834
-0.004492606
-0.006147389
-0.0040534227
7.148694E-4
0.0012662187
9.491862E-4
-6.645559E-5
-0.002035169
-0.0026655477
-0.0033258966
-0.0018571535
-0.0013721362
-0.001822896
-1.4022258E-4
-9.6963526E-4
0.0010154829
0.003924928
0.0013167125
0.003443297
0.00647573
0.002786163
-3.9165426E-4
-3.3542077E-4
0.001746579
0.0016166451
1.8040423E-4
4.1922735E-4
-0.00244739
-0.002793944
0.0019099936
0.0017146792
-0.00113253
-7.5829285E-4
-3.667544E-4
-0.0016409162
-0.0020150784
-0.001872931
-0.0029869992
-0.0026189622
-5.6076207E-4
-2.8346214E-4
-0.0011325255
1.0899866E-4
0.0023205378
0.0017946754
8.6727564E-4
9.3373016E-4
-9.206704E-5
0.0012113121
0.004043704
0.003585458
0.0019445942
4.2042302E-4
-0.001395272
-6.8445934E-4
5.198115E-4
-0.0014940273
-0.0023397047
-6.22606E-4
1.2500954E-4
5.5789476E-4
-2.1669314E-4
-5.737128E-4
8.1069634E-4
-6.831588E-4
-0.0021402442
-0.0021606935
-0.0026349511
-0.0013455487
-0.002170133
-0.0024731236
0.0016421065
0.0032938886
0.0031726696
0.0021180946
-0.0012980818
-0.002643937
-0.002195117
-0.0017402625
-0.0011977642
6.2347495E-4
0.0024301445
0.0011935093
0.0016626392
0.0030883371
0.0012562347
7.9916E-4
8.884161E-4
9.447249E-5
4.9577E-4
-8.57189E-4
-0.0017313039
6.568891E-4
0.002130139
0.002660527
0.0023543031
-8.639705E-4
-0.002373154
-0.001749419
-0.0032771945
-0.003650093
-0.002675923
-0.0019951938
1.1122059E-4
-5.0626382E-5
-0.0019438018
-0.00169282
-5.1506626E-4
0.0011920163
0.002032167
0.0014931548
3.2095014E-4
-4.08478E-4
9.806977E-4
0.0011438625
0.0010854071
0.00239242
0.0016520396
0.0023575535
0.003052817
7.8271865E-4
5.8140155E-5
-7.892265E-4
-9.776881E-4
6.694079E-4
2.9615674E-4
2.7104758E-4
2.1390128E-4
-0.0010931006
-0.0015381328
-0.0029170455
-0.0035859556
-0.0024618877
-0.0016891436
-3.313269E-4
6.0451106E-4
4.1966065E-4
2.1693982E-4
1.0782368E-4
7.1082544E-4
8.424254E-4
-5.8375343E-5
-9.915447E-4
-0.001580927
-2.3199728E-4
0.0017944336
9.643522E-4
-0.0014869163
-0.0016060006
0.0011118965
0.0025669357
0.0011933707
3.559599E-4
5.449323E-4
-2.6546192E-4
-8.79066E-4
5.4761925E-4
0.0014792652
1.2654338E-4
5.568414E-6
6.0533424E-4
-4.348562E-4
-3.806626E-4
8.648568E-4
0.0023606822
0.0026904067
0.0010414091
0.0012325178
-4.1619598E-4
-0.0038595116
-0.0013348098
4.4410528E-5
-0.0023202973
-0.0012294811
4.637587E-5
2.3442753E-4
-3.984636E-4
-0.0020530776
-0.0012049248
-5.042871E-4
3.7577195E-4
0.0021151307
-4.1643652E-4
-0.002303303
4.0946476E-4
0.002053426
0.0013046118
-3.4251323E-4
-0.0014318469
-6.1183854E-4
-1.3108538E-4
-5.7774637E-4
-1.20517936E-4
5.0138216E-4
5.9486483E-4
-5.4818013E-4
-0.0018439421
1.9210574E-4
0.001486977
-5.777298E-4
-7.436199E-4
5.0010695E-4
0.0017262506
0.001868273
6.3886764E-5
5.1127083E-4
3.912327E-4
-6.9197005E-4
0.0015432722
0.0017103788
5.6665443E-4
0.0015475675
0.0011673816
0.0011922724
0.0027674716
0.0029469389
9.822237E-4
-0.0010845955
-0.0029256477
-0.004479308
-0.001976846
4.7097297E-4
2.4950795E-4
-3.4170045E-4
-0.0060935128
-0.007933662
-6.494672E-4
4.7373245E-4
-0.0017855192
7.0630544E-4
0.0017898491
5.6969246E-4
-2.5010257E-4
-3.183476E-4
-4.3449135E-4
9.3190663E-4
0.0031742847
0.0019511371
7.981305E-4
5.928402E-4
-1.0898939E-4
0.0018149334
0.0023064597
0.0018658056
0.003361084
0.0017219093
-8.932046E-4
-0.0014399091
-9.924812E-4
4.999323E-4
7.0308545E-4
3.558916E-4
-1.5307119E-4
-0.0018218237
-0.0015771074
-4.5260822E-5
1.3086443E-4
-7.786202E-4
-0.0014843121
-0.0012710076
-0.0015404212
-0.0012594293
-4.916222E-4
-0.001072999
3.3569022E-4
0.0023795308
0.0010275351
-5.15964E-4
-4.0858777E-4
9.1351185E-4
0.001503023
1.626061E-5
4.9347535E-4
0.0010841313
-3.8654412E-5
1.3320915E-4
-0.0023307903
-0.0042260843
-5.117965E-4
0.0014382531
8.381079E-4
4.1444125E-4
2.7669748E-4
0.0014650875
3.9817693E-4
-1.0051422E-4
0.0019806162
0.0011255355
-1.6605305E-4
-6.4041984E-4
-0.0014252233
-0.0012441803
-0.0014008086
2.6793592E-4
0.0015916453
3.2702656E-4
0.0011519606
5.9915445E-4
-0.0019375905
-0.0014201996
-5.454365E-4
2.8123803E-4
0.0013828516
7.092901E-5
-6.866396E-4
8.868424E-4
7.325767E-4
-8.1872806E-4
-4.7637644E-4
-4.561857E-4
-0.0010873263
-3.2796507E-4
6.9344346E-4
0.0027776926
0.0034923234
0.0011727103
8.40164E-4
6.79966E-4
-7.866483E-4
-7.5363685E-5
3.5761693E-4
-4.003977E-4
-0.0011690458
-0.001723057
-5.90447E-4
-9.38953E-4
-0.0027874834
-0.0013624381
-2.6641335E-4
-0.0015501851
-0.0014197096
-0.0018792553
-0.0020333885
5.7167065E-4
0.0013829978
8.307468E-4
8.8577793E-4
5.524991E-4
0.0012294936
9.89015E-4
-8.133979E-6
3.7421778E-4
0.0011002225
0.0024895251
0.0020474538
4.660156E-4
7.129529E-4
9.329339E-4
0.002198424
0.0017099902
-7.8686577E-4
6.0784685E-5
-2.0468177E-4
-0.0011854109
-6.723596E-4
-0.002403411
-0.0022485561
-7.3048845E-4
-6.723095E-4
3.1049157E-4
4.2836087E-5
-9.818241E-4
-0.0014384962
-0.001210311
2.1021196E-4
5.4231024E-4
0.0012056638
0.0014357823
-9.2904214E-5
1.471763E-4
2.5738616E-4
-6.228985E-4
-1.4683932E-4
7.402008E-4
6.2215154E-4
-8.530143E-4
-0.0010879427
-2.6722805E-4
-3.3810982E-4
6.696529E-6
-1.3761928E-4
-3.8211097E-4
-3.436511E-4
-0.0010897774
-3.2271046E-4
0.0011391451
0.0014084264
9.515994E-4
-3.8456047E-4
-5.422076E-4
7.646211E-4
6.896753E-4
3.5781463E-4
0.0015454026
0.001254609
-6.397365E-4
-1.6159756E-4
0.0013082669
0.001520718
0.0011379088
-2.7826935E-4
-0.0013557497
-8.0553524E-4
1.8885306E-5
-4.5955606E-4
-9.419476E-4
1.4678437E-4
-2.5904507E-4
-8.640631E-4
2.7504188E-4
-9.31348E-4
-0.0018515934
-5.6366326E-4
-4.5166758E-4
-2.892464E-4
-1.6913531E-5
5.3994722E-6
2.5688094E-4
-1.7772E-4
-2.6161523E-4
4.617558E-4
0.0015900931
8.3174254E-4
-0.0023334613
-0.0025902265
0.0017482294
0.0051976615
7.3694024E-4
-0.0063633886
-0.004163646
0.0017306312
0.0035114295
0.0036173747
0.0013133785
-6.6438067E-4
4.2075396E-4
4.5944392E-4
1.4358913E-4
3.5153548E-4
-0.0012562791
-0.0013760907
0.0012707585
0.0015566044
-6.5765483E-4
-0.0015963444
-9.5209107E-4
-8.9084206E-4
-0.0013149894
6.489066E-4
0.0013076229
-0.0010082311
7.895303E-5
9.582214E-4
3.3177758E-4
0.0025572923
5.821289E-4
-0.0028866758
-9.489184E-4
-4.4697642E-4
-0.0011682936
2.9764028E-4
9.40776E-4
-4.2937425E-4
-0.0017307993
4.2249096E-4
0.0022532847
9.5169235E-4
8.7186537E-4
6.704435E-4
-7.6983335E-5
4.2586402E-5
-0.00115527
-6.7206105E-4
0.0011859175
-1.5435742E-4
-8.007241E-4
6.673116E-4
2.9513164E-4
4.083241E-4
0.0013356379
-0.0010785846
-0.003618043
-0.0020113944
6.1587984E-4
0.0012111589
0.0014472145
0.0028314213
0.002773422
-2.28435E-5
-0.0021365131
-0.0019310205
-0.0016756468
-0.0023032324
-0.0017099084
-3.023199E-4
6.0246646E-4
0.0017175833
9.0493064E-4
-3.8501451E-4
6.117861E-4
-3.632116E-4
-0.0013504862
0.0012242213
0.0028689445
0.002540093
5.2026066E-4
-0.0015182797
-2.791334E-4
-3.2100073E-5
-0.0018654187
-0.0016227831
3.9459617E-4
0.0025198054
0.0017670281
-2.1922735E-4
0.001054798
0.0013572135
-6.8457634E-4
-0.0010883145
-0.0010681176
-0.0012221141
-8.2768896E-4
-2.6257403E-4
3.174821E-4
-3.0797423E-4
-9.100735E-4
-7.054931E-4
-0.0015296225
-0.001756833
-4.621186E-4
-1.2185791E-5
-1.8885886E-4
3.4860516E-4
8.6528575E-4
7.736808E-4
5.521851E-4
8.416591E-4
0.0016121941
9.186811E-4
-0.0011551571
-0.0016687425
-0.0010272858
1.5143308E-4
0.0013055957
6.304734E-4
0.0012974088
0.00219898
3.4146121E-4
6.8129454E-4
0.0012489416
-2.5914586E-4
4.42352E-4
5.674865E-4
-3.315562E-4
-7.954856E-4
-0.0025580868
-0.0021595813
-2.7936837E-4
-4.3749597E-4
-8.787793E-4
-5.2347634E-4
8.827679E-4
0.0014470716
-2.1584818E-4
-9.772911E-4
-1.7863656E-4
-2.1314411E-4
-0.0013402934
-9.95513E-4
8.926265E-4
0.0013432637
0.0010536126
0.0013877648
0.0010129813
-9.425418E-5
-2.0018863E-4
7.1503274E-4
5.292424E-4
1.6564576E-4
7.6631637E-4
4.7544872E-5
-0.0013879854
-0.0016783741
-0.0017874321
-0.0013017326
7.4475067E-4
0.0012884898
-5.5022596E-4
1.9423581E-7
0.0010621918
-0.0015221162
-0.0021186892
7.728437E-4
0.0019171893
8.7116164E-4
-0.0012073752
-0.0022552493
-9.019519E-4
3.5324047E-4
0.0012709433
0.0021728873
0.0011814758
1.6226175E-5
4.3928443E-4
4.8730468E-5
-0.0011176007
-0.0014338847
-5.4114277E-4
0.0015580943
8.281331E-4
-0.0015447097
6.785682E-4
0.002023186
-4.3402993E-4
2.7051553E-4
0.0015091726
5.5244578E-5
7.226793E-4
0.0021253661
9.933335E-4
-5.394912E-4
-0.0014350021
-7.75297E-4
2.0653213E-4
-0.001053737
-1.667478E-4
0.0021188231
9.1924594E-4
-8.6912286E-4
-0.003604025
-0.0041257446
-2.1232858E-4
4.7702563E-4
0.0013549716
-2.1843589E-4
-0.0075973556
-0.00513299
6.125428E-4
-1.4868015E-4
0.0019527002
0.001603621
-4.144057E-4
0.0015260302
0.0011372677
0.0014333469
0.0024436573
0.0023165846
0.0034101056
0.0017948857
4.1527417E-4
7.887113E-4
2.5331E-4
9.0380374E-4
5.3424085E-4
8.538282E-4
0.0020536
2.0049802E-4
-3.3506844E-4
-4.6171303E-5
-9.091034E-4
-0.001284949
-0.00244165
-0.0016300319
-6.7850284E-4
-0.002624607
-0.0029037045
-0.0023182624
-0.0018070937
-3.5538196E-4
-1.5302277E-4
3.564772E-4
0.0011347375
4.309538E-4
6.3801307E-4
0.0023441175
0.0025850933
-1.7139233E-4
-0.0014965076
6.905019E-4
0.0012424625
1.4508139E-4
-2.0161431E-4
-8.895205E-4
-6.709729E-4
3.340679E-4
-5.159678E-5
-7.338911E-4
-4.391469E-4
1.1663533E-4
0.001020414
0.0020599815