0.0028143479
0.0023790023
4.2259076E-4
-8.8989415E-4
-0.0019363365
-0.0015717392
-8.025768E-4
-6.84527E-4
-8.902209E-4
-4.326525E-4
5.728158E-4
5.0221362E-5
-6.2831707E-4
-4.126576E-4
2.2467085E-4
0.0012889324
6.612773E-4
2.782902E-5
7.720876E-4
1.2716527E-4
-7.7987136E-4
-9.3663845E-4
-4.526143E-4
0.0015432085
0.0021179644
5.932677E-4
3.2761515E-4
0.0010591215
7.0148445E-4
-0.0010750735
-0.0021898225
-0.0015371486
-0.0018876349
-0.0015094642
9.5528545E-4
2.5690344E-4
-0.0011854651
-3.9766447E-4
-5.140371E-4
6.717453E-4
0.001201471
-8.1473956E-4
-3.9083036E-4
6.5160544E-5
3.7094436E-5
0.0013961965
3.948928E-4
-6.79981E-5
0.0021239393
0.0028638756
0.0010507194
-0.0015383267
-0.0016427223
-5.6753008E-5
7.3818763E-4
5.695491E-4
-0.001030997
-0.0014753306
-6.773004E-4
-5.6098425E-4
-7.414209E-5
-6.401591E-5
2.2208614E-4
3.8286296E-4
-3.9776164E-4
-1.2403139E-4
-9.872701E-4
-6.7971123E-4
0.0013416809
-2.0453878E-4
-3.1394084E-4
0.0014264997
0.0013983501
0.001789099
4.6273784E-4
2.1954204E-4
2.472094E-4
-0.0016619235
0.0013374351
0.0021693588
-2.9471485E-5
0.001473241
-0.0014164373
-0.0029198914
-8.9379966E-5
5.5507757E-4
0.0034765825
-7.8624283E-4
-0.008230151
-0.0033239126
-1.8625961E-4
-0.0013559588
3.6881168E-4
-4.956519E-4
3.3542083E-4
0.0016940433
8.535925E-4
0.001856592
-2.2017652E-5
-0.00228369
2.4363796E-4
0.0021782033
0.0015418117
6.1246246E-4
5.551437E-4
2.57946E-4
2.2729712E-4
0.0014385532
5.1759375E-4
-5.063182E-4
-3.477801E-5
-0.0018274991
-0.0024248024
-7.4936874E-4
-4.1546876E-4
-4.832866E-5
-3.8706974E-4
-7.0271577E-4
8.52881E-4
8.467723E-4
6.996762E-4
0.0020647668
0.0022399826
0.002307194
0.0012321146
-0.001362636
-0.0010845396
0.0012211766
0.0017997305
5.781459E-4
1.721123E-4
6.6089747E-4
2.7583746E-4
3.0992288E-4
-3.6992593E-4
-0.0012029456
0.0010064964
0.0021615163
0.0012321179
0.0019304344
7.957943E-4
-0.00915175
-0.021141611
-0.014592314
0.0031060867
0.007114109
0.005346013
0.006055597
0.0019320446
-2.4208368E-4
0.0010338413
-2.755615E-4
-7.741087E-4
8.930854E-4
0.0020199362
0.0011207579
4.74787E-4
0.002030792
0.0019565064
8.28822E-4
0.001470621
0.0010249743
4.4220345E-4
0.0020861665
0.002140853
-4.7072423E-5
-8.738012E-4
-0.0012210384
-0.0019932373
-0.0017791629
-0.0013501191
-6.374801E-4
-3.8064365E-5
-3.5500638E-5
0.0010049748
0.001028792
-5.000463E-4
-7.8720995E-4
-3.2259154E-4
4.899303E-4
6.2103587E-4
6.0087736E-5
5.4788816E-4
5.6925154E-4
6.1609014E-4
1.618272E-4
-0.0019902415
-0.002115119
-0.0014224433
-0.0015863698
-0.0013597001
-0.0021692733
-0.001420248
1.1760232E-4
-9.989064E-4
-1.6230324E-4
0.0021151823
6.8491587E-4
-0.0019039391
-0.0013051936
0.0014648682
0.0025901597
0.0020057685
0.0019777338
0.0024719574
0.0019422094
2.2864726E-4
-6.255031E-4
-2.2844822E-4
8.026086E-4
0.0010360236
-1.9122989E-4
5.707052E-4
0.001233576
5.3381835E-5
4.4617167E-4
-9.5002045E-4
-0.002302136
-4.5321023E-5
-3.16346E-5
-0.0012902186
-0.0014207687
-0.0011023292
3.7973633E-4
-2.508062E-4
-4.4761936E-4
0.0015616189
5.5568403E-4
-7.0287666E-4
2.3497443E-5
2.648248E-4
2.1006115E-4
-8.601801E-4
-0.001116295
6.98589E-4
6.441583E-4
-0.0010097583
-4.2329292E-4
8.737494E-4
2.6754974E-4
8.416191E-4
0.0021158631
-8.968132E-6
-9.897072E-4
6.7224144E-4
-9.935672E-4
-0.0033570125
-0.0026104043
-0.0011474083
1.6325353E-4
0.0014454949
0.002447664
0.0022721984
0.0010208385
-1.5925399E-4
-0.0010243586
3.8181577E-4
0.00224815
8.9007616E-4
-6.6492E-4
-3.8766646E-4
-1.6358681E-4
-0.0013340238
-0.003007253
-0.002574271
-9.6160587E-4
-0.0011811177
-0.002580518
-0.0019271091
-3.780415E-4
-1.1090732E-4
9.077789E-4
9.489925E-4
9.155109E-4
0.0033953695
0.003362921
0.002133813
0.0023972867
0.0021671257
0.002418694
0.0021751137
0.001858782
0.0015739752
0.0021500788
0.0033927197
0.0014227711
0.0012744024
-9.267526E-4
-0.0042597377
0.0011131383
3.0944083E-4
-6.640959E-4
0.002547293
-0.0064034816
-0.006096667
-0.008472778
-0.023229228
-0.009053607
0.0032038107
-0.005823035
0.0017199913
0.0073773987
0.0036647322
0.0051234635
0.003434781
0.0038621107
0.0035596474
0.0013210223
0.0035056851
0.0023981936
3.95137E-4
4.8324052E-4
0.0022920733
0.0048102024
0.002727531
0.0021860753
0.0025347357
9.519149E-4
0.0016872807
-6.354916E-4
-0.0025358768
-4.9812323E-4
-0.0015935203
-0.0030694616
-0.0028915277
-0.0022794697
-6.643847E-4
-6.660926E-4
-0.002132205
-0.0025796627
-9.992514E-4
-5.4100565E-5
-3.7552856E-4
7.121034E-4
7.7488396E-4
8.4928813E-4
0.0020019708
8.577086E-4
3.136033E-4
3.971605E-4
-1.4460851E-4
1.3142943E-4
-0.0011087984
-0.0014915059
-0.0018564874
-0.0036084189
-0.0010883547
-1.4001924E-4
-0.0017231823
0.0010044695
5.128627E-4
-0.0019041989
6.1830226E-4
0.002408018
0.0029619683
0.0029638316
0.001226895
9.510764E-4
0.001826498
0.0024432729
8.3166664E-4
-0.002507328
-0.0018302111
0.0013543406
0.0013047004
-0.0010917098
-0.0010405795
9.084999E-4
2.7180318E-4
-2.7078338E-4
5.8039586E-4
-5.6327897E-4
-7.7697047E-4
3.2696614E-4
3.7901296E-5
-2.4005017E-4
-0.0010313196
-0.0018384455
-0.0013351813
-6.5097515E-4
4.116331E-4
6.7153695E-4
7.1292726E-4
0.0016384023
-6.4483524E-4
-0.0033339623
-8.947777E-4
0.0018038977
0.0014615376
3.4927737E-4
-3.8292742E-4
-1.5070701E-5
1.8613502E-4
-2.254895E-4
3.5892495E-5
-1.6850812E-4
-5.270945E-4
-2.6096037E-4
-2.051313E-4
3.7129223E-4
1.4992601E-4
-6.3727354E-4
0.0010019852
0.0022428657
0.0017923135
0.0012920342
-5.223299E-4
-0.0013395225
-3.999766E-4
-3.7513237E-4
-6.188208E-4
-6.033575E-4
6.3937576E-4
0.0018225051
5.4883317E-4
-6.068201E-4
-0.0017063653
-0.0024744866
-4.2132477E-4
0.0010391448
2.65501E-4
-6.7590206E-4
-6.864544E-4
-1.7930327E-4
-7.3641096E-4
-2.0551296E-4
6.1392726E-4
7.5791024E-5
0.001360413
8.4728136E-4
-9.226971E-4
9.4688305E-4
5.739453E-4
-0.0010737648
-4.6030595E-4
-0.0015939735
-0.0014745973
5.5508787E-4
0.0019594817
0.0034419089
0.0020143
-3.5865812E-4
-9.3168725E-4
-0.0013724529
-6.0805323E-4
-2.3947401E-4
-1.2306497E-4
7.2879525E-4
-2.597179E-4
-1.7229156E-4
9.660625E-4
-1.2257154E-4
-0.0011683314
-0.0019501694
-0.0016715106
9.7311183E-4
0.002949623
0.002823544
5.476554E-4
-0.0016598155
-9.779735E-4
-3.0092747E-4
-5.2422885E-4
4.1714526E-4
3.922376E-4
-1.9471697E-4
7.068465E-6
-0.0016426762
-0.0023399782
5.4016768E-5
6.3207786E-4
-4.69231E-4
-4.4252304E-4
-9.721952E-5
1.6587896E-5
5.9615023E-4
0.0011401866
-2.3195149E-4
-3.962205E-4
0.0019171527
0.0014372047
-3.016837E-4
8.472357E-5
0.0011519183
0.0010241602
4.946297E-4
0.0019700574
1.6688101E-4
-0.0027487788
1.976192E-4
6.6970446E-4
-1.3245552E-4
6.373267E-4
-0.0029962745
-0.002501696
0.0017579033
0.002872616
0.0019456103
-0.005322643
-0.008830913
-0.0016326895
0.0024018723
0.0019433002
0.001288541
4.0565332E-4
0.0013673507
0.0012059661
-1.4300129E-4
6.700308E-4
0.0010848707
-0.0011465125
-0.0017729633
4.3499444E-4
3.978732E-4
3.671269E-5
0.001291588
5.671754E-4
9.426892E-5
7.810276E-4
0.0012938106
0.0020194855
5.301532E-4
-0.0010863492
-6.08541E-4
-0.0012963661
-0.0015631637
3.04698E-4
9.825131E-4
3.3151562E-4
4.5617216E-4
2.912738E-4
-0.001357091
-0.0019327181
3.4491657E-4
0.0024843651
0.0023907148
9.989609E-4
-7.197019E-4
-8.1508665E-4
-9.8342534E-5
-0.0012080661
-0.0015474583
4.7317593E-5
5.1888113E-5
-0.0019228538
-0.0018420964
0.0012108888
0.001986176
0.0010494682
9.038718E-4
-0.0018820041
-0.002843328
-3.3160555E-5
-3.0834033E-4
-9.7006833E-4
9.929374E-4
0.0015026813
1.6938841E-4
2.1998498E-4
0.0015939538
9.075337E-4
3.8836306E-4
0.0010622693
-1.574512E-4
-3.8595108E-4
6.1198603E-4
3.609164E-4
-3.9041523E-4
-0.0011081257
-6.3482916E-4
-5.9210847E-4
-6.7980436E-4
2.4017904E-4
-8.041641E-4
-0.0011693292
-5.371186E-4
-0.0011352588
8.7861605E-5
9.163929E-4
4.556978E-4
2.8973084E-4
-0.001228246
-8.1313134E-4
0.0013646568
0.0014516263
9.749333E-4
3.198041E-4
7.852124E-5
0.0010638338
8.321222E-4
3.3391596E-4
0.0018336915
0.002402654
2.431433E-4
-9.866242E-4
6.922984E-5
8.5282855E-4
1.8854279E-4
-0.0011227501
-0.0012927807
-9.904222E-4
-0.0013483833
-3.4146558E-4
6.321323E-4
-7.1641174E-4
-0.0016882158
-0.0016034333
-0.0022319397
-0.0020312748
-2.0799297E-4
0.0011294407
0.0015499559
0.0010808463
8.8494315E-5
3.3185305E-4
7.564517E-4
-5.185296E-5
-0.0018838315
-0.0029462725
-0.0010477375
4.5430908E-4
5.872935E-4
0.0016232234
0.001639466
0.0017866186
0.0015116178
-2.688645E-4
3.1708757E-4
3.4764386E-4
-3.959407E-4
0.0014839855
0.0015286941
-9.30443E-5
-0.0014006356
-0.0020548324
2.3673815E-4
0.001483427
5.764708E-4
8.6397486E-4
0.0012864224
0.0017153439
0.001427489
2.9479474E-4
1.31991E-4
1.0687432E-4
4.127365E-5
-1.9468025E-4
-8.0706086E-4
-0.0013343397
-0.0021407742
-0.0020529642
-0.0011654091
-0.0016221076
-0.002762055
-0.0022151726
-5.1689707E-4
4.5642845E-4
0.0015721807
0.0016477777
2.9074805E-4
0.0017736899
0.0028997248
2.3927308E-4
-0.0010128873
-8.1091985E-4
-8.218042E-4
-3.5326852E-4
-9.843769E-4
-6.917653E-4
2.5271944E-4
-7.0038217E-4
-0.001080869
-0.0013462387
-9.317814E-4
0.0012459208
6.443284E-4
-3.5577593E-4
6.225213E-4
-6.810226E-4
-0.0018675721
-5.469885E-4
8.5308787E-4
0.0010156882
4.3227253E-4
0.0014110608
0.0027712455
0.00291672
0.0025904353
0.0018958262
0.0031087853
0.0044127954
0.0022947649
-0.0013805331
-0.0029119714
0.0018041154
0.006851697
0.003569786
-0.00234247
-0.004270459
-0.0047385376
-0.0067986427
-0.003960394
0.0018587573
-0.005314264
-0.012280345
-0.0029272966
0.003024857
0.0013696274
0.0019155571
1.1006763E-4
-5.869206E-4
0.0012222026
1.0108072E-4
-7.295726E-4
-3.2117162E-4
-9.394861E-5
0.0012130361
0.0025321722
0.0030594196
0.0024737925
6.445565E-4
1.0870059E-4
0.0012514633
0.0021497826
0.0023902117
4.0889086E-4
-7.4148475E-4
0.0012381799
-4.7612938E-4
-0.0025234688
-7.515724E-5
-7.353905E-4
-0.0018379356
7.835068E-4
0.002128563
0.0020658514
7.691894E-4
-4.4234257E-4
6.40974E-5
-7.477417E-5
4.4002003E-4
7.8877277E-4
-1.5630756E-4
6.823176E-4
0.0011347252
1.5637754E-4
4.6476233E-4
3.0630347E-4
-0.0012271382
-0.0012197737
1.7364252E-4
-8.929964E-4
-0.0032941971
-0.0025974968
-0.0012607608
-0.0022257492
-0.002651564
-0.0016864693
-7.9450203E-4
-2.4334008E-4
1.907955E-4
5.8489566E-4
2.2460388E-4
2.6977796E-4
0.0017020637
0.0011600514
-9.7047584E-4
-5.9316214E-4
6.129487E-4
6.700064E-4
0.0011760303
0.0018918844
0.0018623741
0.0013141347
1.8838364E-4
-3.5795185E-4
0.0012908737
0.0031461683
0.0027224573
5.945326E-4
-0.0016196504
-0.0022362766
-0.0013099603
-2.4948353E-5
8.8023517E-4
6.7118957E-4
3.9665235E-4
7.926955E-4
8.2861615E-4
-9.82973E-4
-0.0034964976
-0.0023981803
-0.0014077341
-0.003401495
-0.00200976
-5.2296126E-4
-0.0011598344
0.0015201579
0.0031681722
0.002140343
0.001724951
0.0013605439
0.002052553
0.0025522192
0.0016581886
-8.624973E-4
-0.0047077453
-0.0047717877
-0.0018874169
5.282618E-5
0.0018079308
0.0019883441
0.0015002601
0.002370269
0.0020487313
5.334492E-4
3.7179395E-4
0.0011760321
5.746903E-4
-0.0011754279
-6.099098E-4
0.002325076
0.0035686481
0.0021395506
1.3160794E-4
-0.0018258203
-0.002889709
-0.0020907095
-0.0012365748
-0.0018116797
-0.003101549
-0.0041132607
-0.004317475
-0.0038935386
-0.0028004465
-0.0011719018
-8.429057E-4
-0.0027938348
-0.003976456
-0.0024761767
-7.0358877E-4
0.0010264333
0.0025633904
0.0023476346
0.002950956
0.004967297
0.005698963
0.005751821
0.0070804143
0.009307323
0.008285685
0.005061167
0.0056253807
0.006491566
0.003916586
-7.360651E-5
-0.005466831
-0.0089319665
-0.007668746
-0.0052483487
-0.003768106
-0.0025128948
-0.0016058402
-0.001857986
-0.0020891097
-7.9771987E-4
-5.67412E-4
-0.002937623
-0.0049038907
-0.005273285
-0.0052244905
-0.0052814726
-0.005823691
-0.0051549627
-0.002365018
-3.7396981E-4
8.93784E-4
0.0024663683
0.0027638862
0.0031342008
0.0049809515
0.005203077
5.7036686E-4
-0.004992181
-0.00474581
-5.708799E-4
0.0021692999
0.0025853605
0.0038617104
0.0065134023
0.0060729557
0.0052476837
0.0065187695
0.0041669407
-6.569575E-4
-9.5002144E-4
0.0054729497
0.009646612
0.0057676747
0.0035525535
0.0032136694
-1.3215595E-4
-0.004401785
-0.009953314
-0.0101298615
-0.007548617
-0.007951881
-0.004139708
-0.008598808
-0.02057631
-0.016312255
-0.0063858014
-0.0030230612
-0.0013652928
-0.0033474162
-9.2111726E-4
0.004396233
0.0018248082
0.001710165
0.0072000874
0.010075347
0.011952945
0.012768647
0.013176138
0.014767292
0.0139256185
0.012083846
0.0099640945
0.005534114
9.3461626E-5
-0.007823192
-0.015191751
-0.01689522
-0.016664246
-0.017424947
-0.018501047
-0.0178876
-0.014003523
-0.007907409
0.0017897023
0.014508663
0.028668845
0.040662274
0.03897192
0.026175953
0.015061308
0.0047887987
-6.800839E-4
0.0055893427
0.009605422
-7.752594E-4
-0.015907848
-0.026879383
-0.03208
-0.025398264
-0.013259102
-0.013816099
-0.025239445
-0.03644905
-0.04520107
-0.047984153
-0.046433505
-0.04185916
-0.026852015
-0.0032786091
0.023503747
0.045855884
0.053730354
0.05602505
0.060803495
0.07144203
0.08768464
0.09144281
0.08771237
0.08108187
0.06417296
0.056682553
0.035875004
-0.019552778
-0.064340815
-0.08325476
-0.08947471
-0.10184711
-0.12594195
-0.12296997
-0.0920026
-0.061718464
-0.043280426
-0.03628253
-0.021670794
-0.0054934253
0.0019152785
7.0147857E-4
-0.01056872
-0.009886106
-0.007967039
0.008741327
0.08836348
0.17254442
0.19395745
0.1557952
0.08422708
0.04478545
0.04658465
0.016593486
-0.059007715
-0.10976787
-0.09083139
-0.034081247
0.014688754
0.034237117
0.03391313
0.037264325
0.027624479
-0.03694257
-0.14808816
-0.222202
-0.21709451
-0.1727475
-0.0938854
0.022627207
0.1371689
0.19283424
0.18143432
0.15733081
0.059012506
-0.10064578
-0.09249918
0.027303344
0.020835368
-0.042262994
-0.045497578
-0.024287533
0.01365013
0.06522401
0.07415462
0.0360509
0.013327168
0.03224116
0.06540359
0.04871775
-0.004329251
0.010269889
0.048554435
0.019039195
-0.054303084
-0.1356995
-0.13696738
-0.048670232
-0.0027513206
-0.004647347
-2.1205525E-4
0.004913245
0.011064986
-0.003608146
-0.026074259
-0.013679575
0.008574003
0.0035736142
-0.014090533
-0.01152568
0.0057146135
0.01255011
0.01210175
0.0084804455
-0.008707514
-0.026838167
-0.011440867
0.030404713
0.060712118
0.070948236
0.058776572
0.022020465
-0.026893392
-0.062259853
-0.05564281
-0.031700917
-0.02182458
-0.011487901
-0.0028908784
0.0018156978
0.007714424
-5.886845E-6
-0.0073500224
0.0025137744
0.0140446825
0.0293331
0.054209437
0.061349913
0.049372714
0.0628964
0.08431341
0.04185299
-0.041646317
-0.07204367
-0.034151543
-0.0019697668
-0.017803427
-0.046373986
-0.053018715
-0.039688475
-0.029595481
-0.037728067
-0.036945626
-0.020660447
-0.017279
-0.01733442
-0.009343125
-0.002654401
0.0044242586
0.0053058905
0.0031192768
0.011626394
0.017197205
0.013621909
0.01659366
0.028337613
0.036297005
0.029828371
0.01629964
0.010114281
0.01158671
0.013507329
0.009363298
0.003940102
0.003657311
3.6078174E-5
-0.007197774
-0.01006638
-0.0091805905
-0.005709676
-0.0032291834
-0.002732403
-0.0010094896
3.0145864E-4
0.002426847
0.005030966
0.0049493033
0.0049271663
0.004196593
0.0016757522
-9.5200434E-5
-0.0022444008
-0.0030983156
-0.0028132075
-0.0055596977
-0.0076904506
-0.006777576
-0.0063358746
-0.007241481
-0.008374772
-0.0068933107
-0.0042728307
-0.0052522845
-0.005991972
-0.0039850217
-0.0021824383
-3.4503286E-5
6.988617E-4
3.3703845E-4
0.00208041
0.0027081454
0.002460842
0.0033594572
0.0030900126
0.0020825244
-4.8253292E-4
-0.002625896
3.89304E-4
0.0021792075
-9.000806E-4
-9.326696E-4
0.0021757942
0.0031832906
0.004737155
0.007475348
0.007824719
0.008659318
0.011571176
0.012504979
0.011784428
0.010650522
0.0057659214
-0.0034435533
-0.011588487
-0.01533117
-0.015446171
-0.011658518
-0.0070267296
-0.0059378296
-0.0054590884
-0.004452239
-0.00560997
-0.0053561334
-0.003273258
-0.0041196295
-0.004654877
-0.0028633347
-0.0016514724
5.4779334E-6
5.579523E-4
0.0012430195
0.004718239
0.005387454
0.0067160344
0.011900911
0.01192088
0.009061154
0.008641844
0.0073504425
0.0041807843
-1.7486617E-4
-0.0030225406
-0.004260076
-0.0049050217
-0.0034229087
-0.0035757574
-0.0047211256
-0.004619025
-0.006904218
-0.006431667
-0.0020486035
-0.0019733992
-0.0037112455
-0.0032977501
-0.0022593827
-2.286633E-4
0.0016227093
0.002373724
0.0029979458
0.0037312796
0.0046351277
0.0036668847
9.0480375E-4
5.3024996E-4
0.0025850597
0.0058693564
0.009360299
0.0076009943
0.0019652683
-0.0016581116
-0.004360778
-0.0049743205
-0.003260746
-0.004112078
-0.0050501856
-0.003042677
-0.0019426364
-0.003048004
-0.0037033008
-0.0024295223
-0.0011779034
-0.0013925878
-0.0011102237
1.6244232E-4
0.0015331026
0.0030765224
0.004199476
0.0049384786
0.004916086
0.0023597304
-3.897523E-4
1.2640998E-4
0.0010964752
-2.1355243E-4
-0.0020916865
-0.003872763
-0.0049974686
-0.0038378926
-0.0015495564
3.1941486E-4
0.0027151094
0.004221591
0.0026307018
7.392818E-4
-4.5424723E-4
-0.0025626353
-0.0032342686
-0.003524298
-0.006172292
-0.0064188032
-0.0021688852
0.0019443451
0.005217364
0.009229772
0.011008429
0.008232784
0.0030540205
7.501269E-4
0.0051708217
0.0058886055
-0.0036369585
-0.0066163507
-0.0035210827
-0.009326637
-0.012271796
-0.0058903266
-7.16296E-4
0.0029508641
0.0049463115
0.005194164
0.0052940757
0.0023576987
-0.0017190358
-0.004374432
-0.004338146
-0.001327402
-1.6747929E-4
-9.827752E-4
-8.3652313E-4
2.7343992E-4
0.002673362
0.0034762728
1.4255682E-4
-0.0021130363
-0.0012373638
-0.0019357852
5.505651E-5
0.0030577409
-0.0051637115
-0.011743896
-0.0047625997
5.069218E-4
0.0011726985
0.0025198604
0.0023977896
0.0023313442
0.001694524
0.0017241787
0.0043536336
0.0067854812
0.0076484294
0.004962607
0.0012546425
4.6598224E-4
2.130026E-7
-0.0013062004
-0.0017673622
3.3825275E-4
0.002001905
9.083155E-5
-0.0018461669
-0.0038345284
-0.004841729
-0.0032802008
-0.0048069716
-0.006479041
-0.0035330574
-0.0012883091
-0.0016251523
-0.0031048942
-0.003576346
-9.5105567E-4
0.0020413147
0.003784172
0.0036326463
0.0016914207
0.0019768472
0.0031745108
0.002160954
0.0022812614
0.003153117
0.0023310794
0.0017465822
9.9202E-4
6.75873E-5
7.945774E-4
0.0013824438
4.0182643E-4
-0.0010948897
-0.0024934118
-0.004154356
-0.00428131
-0.0019491662
-0.0016685589
-0.0023060513
1.4829889E-4
0.0013726536
4.8532648E-4
2.1559738E-4
-8.381355E-5
5.0003047E-4
0.0010768631
9.854218E-4
0.0014725465
8.349851E-4
4.5295066E-4
9.264391E-4
-0.001452328
-0.0029936533
-2.4366149E-4
0.0018542594
0.0017481755
-4.472814E-4
-0.004422612
-0.004285643
-5.2051357E-4
0.0013980217
0.0018016066
6.276712E-4
-0.0011661637
-0.0012509233
-4.4138113E-4
6.197428E-4
5.9716566E-4
4.183344E-4
0.0013074117
0.0014174072
0.0016402106
0.0013779086
9.077147E-4
0.0011317475
-3.4212339E-4
1.8241916E-4
0.0011276682
-9.026981E-4
9.174021E-4
0.0022331122
2.2664474E-4
0.0012305189
-2.375421E-4
-0.00247997
-9.13545E-4
-0.0020513895
-0.0028971238
-0.0015430723
-0.001639104
-3.4122422E-4
6.962089E-4
3.8351218E-4
4.7480213E-4
-9.4278686E-4
-0.0010705256
8.0556364E-4
6.9319457E-4
-2.3382089E-4
-4.5282446E-4
4.6734957E-4
0.0021338016
0.0021321226
0.0010541859
-2.9485734E-4
-0.0016466938
-0.0011497992
3.9600575E-4
0.0011648926
1.2907159E-4
-0.0012472668
1.188569E-4
7.6921703E-4
-0.0010012843
-7.4258883E-4
-6.313529E-4
-0.0015840245
-2.1788827E-4
-1.6572388E-4
-0.0011304414
0.0010330756
0.0025937238
0.0018129166
9.4105944E-4
3.9505176E-4
5.3317327E-4
5.6638283E-4
2.3407229E-4
2.7654538E-4
0.0014173763
0.0022741375
-7.359094E-4
-0.002873812
-4.989647E-4
-3.8242713E-4
-0.0010494872
6.384425E-4
4.0440878E-4
-5.984003E-4
-9.7379E-4
-8.3481765E-4
-5.962749E-5
-8.6076825E-4
-0.0013352281
-8.693832E-4
-0.001044373
-3.5109872E-4
4.2912952E-4
3.1860374E-4
-6.2887826E-5
-2.5466448E-4
3.9341197E-5
3.2749787E-4
6.2167924E-4
6.3302205E-4
8.656705E-4
7.685933E-4
-2.0537218E-4
-6.0338696E-4
-0.0016188378
-0.0016448104
-4.7110394E-4
-3.397019E-4
0.0020368274
0.0022787796
-9.933072E-4
3.416462E-4
0.002249858
0.0014888665
0.0011669062
4.6877914E-5
-1.800082E-4
0.0016899024
0.0023407
8.2086003E-4
0.0010519294
0.001896355
7.6871E-5
-1.6303037E-4
-1.8470346E-4
-3.6672936E-4
2.8932624E-4
-0.0033955756
-0.004087012
-8.929284E-4
3.2048795E-4
0.0024971303
-0.003371282
-0.010040962
-0.0036416347
8.277373E-5
-7.993982E-4
0.0014022869
0.001401708
8.0931484E-4
2.4096471E-4
-3.5421792E-4
-4.2369615E-4
-0.0013475653
0.0011216279
0.0037726033
0.0028669024
0.00366456
0.0033398445
6.334194E-5
7.9444575E-4
0.0026498872
3.313662E-4
-7.185402E-4
8.412637E-4
0.0019468399
0.002050388
-1.3008261E-4
-0.0012552501
-7.917518E-4
-0.0023766188
-0.0037011916
-0.0031842089
-4.46732E-4
6.6090515E-4
-0.0019318789
-3.9939737E-4
0.0018033972
1.1920964E-4
2.8020376E-4
-2.38709E-4
-0.0018320726
-0.0013177437
1.12613794E-4
0.0021595056
0.0017677872
1.7610489E-4
5.926963E-4
1.3226135E-4
-0.0010446364
-0.0016641843
-0.0012413511
9.0800534E-4
0.0015111276
-5.892188E-4
-0.0016363628
-2.866911E-4
7.695775E-4
0.0010496605
8.515224E-4
-6.6916354E-4
-5.631495E-4
0.0012533775
0.0012133705
4.5289707E-4
3.016119E-4
-2.9705395E-4
-0.0014578026
-8.874442E-4
0.0014246658
0.0013134409
-1.2697607E-4
1.3659735E-7
-2.0314578E-4
-5.6382077E-4
-1.8089842E-4
1.9470905E-4
3.639602E-4
1.2423168E-4
-1.222707E-4
-0.001141161
-0.0019851986
-1.2443418E-4
8.376683E-4
-8.9926354E-4
-9.180039E-4
8.7728805E-4
0.0019641903
0.0022754974
0.0021697243
0.0014701684
3.4088068E-4
-1.6598651E-5
-5.743445E-4
-0.0013770655
-2.749101E-4
-5.3458603E-5
-0.0010708637
1.5035466E-5
6.3061423E-4
-9.616053E-5
4.5357426E-4
6.4965605E-4
-0.0010640075
-0.0014942002
-2.8834966E-4
-0.002134831
-0.003955087
-0.002299366
-0.0010021423
0.0018010801
0.0032110568
-1.3216355E-4
-8.62189E-6
0.0011328524
-9.314998E-5
5.7534885E-4
9.794906E-5
1.3676664E-4
0.0012840204
7.213296E-4
0.0015019102
9.759492E-4
5.2564393E-4
0.0012084417
-0.002011721
-0.0014014109
0.0026818535
0.0017901801
0.001210208
9.481971E-4
-9.643738E-4
-0.0012486564
-0.0017469815
-0.0017599922
-0.0013560712
-0.0018978884
-6.5708446E-4
2.345137E-4
-5.167522E-4
4.1772678E-4
0.0015839668
2.1486232E-4
-8.5549493E-4
7.403133E-4
4.6756674E-4
-0.0013917111
-1.7987951E-4
3.437718E-4
-6.426531E-4
-5.659508E-4
-7.564669E-4
5.302004E-4
0.0017839302
0.0010267965
0.001272845
8.100094E-4
-5.9375784E-4
-0.0012837445
-0.0017969084
-1.9275716E-4
0.0012109319
0.0013338721
0.0023409228
0.0013832448
4.4018938E-4
7.475498E-4
-9.840495E-4
-9.941853E-4
9.2635036E-4
5.37623E-4
-0.0012166663
-0.002572099
-0.0021491235
-0.0010862809
-8.988549E-4
-4.537635E-5
4.4151643E-4
-2.3703136E-4
-2.64014E-4
-2.4921255E-4
-0.0012814044
-0.0013697483
8.9909125E-5
7.222863E-4
4.1589834E-4
3.9893913E-4
0.00221329
0.003967739
0.0015358843
-2.1356915E-4
6.698255E-5
-7.642431E-4
0.001322573
0.0024102086
9.547261E-4
0.0014891485
-7.180401E-5
-6.440622E-4
0.0010617974
0.0012041716
5.656088E-4
-0.004210238
-0.0045612585
5.6870584E-4
-8.275909E-4
-4.7947452E-4
-0.0023324587
-0.00920136
-0.0038387734
0.0020787392
5.8999483E-4
0.002450823
0.0020972507
7.2663056E-4
0.0018900336
0.0019555278
0.0026649216
0.0021279764
1.1120607E-4
-9.522201E-4
-3.168489E-4
0.001953956
0.0016202981
-9.938923E-4
-0.0017186389
3.0313028E-4
0.0020755865
0.0014570714
0.0012547851
-2.7385264E-4
-0.0023174773
-3.270492E-4
2.7721858E-4
-0.0011546967
-0.0011169835
-0.002163104
-0.0018731086
4.657478E-4
8.129632E-4
-1.2239793E-4
-0.0010747113
-0.001234748
6.9803325E-4
0.0021167584
0.0015266124
0.0017659671
0.0011707006
-0.0015492679
-0.001774548
-7.7980856E-4
-0.001135171
1.261165E-4
0.001719718
8.568208E-4
1.7161755E-4
9.88409E-4
-3.9029725E-5
-0.0017930015
-0.0018633369
-0.002732716
-7.576144E-4
0.0034925214
0.0016997455
2.3282852E-4
0.0033538032
0.0024603398
-5.7354424E-4
-9.486833E-4
-0.001538774
-0.0018952764
-0.0010810449
-0.001553059
-0.0015547088
-3.8585134E-4
-5.670311E-4
4.0888763E-4
0.0018226566
9.572084E-4
6.5315876E-4
4.6325036E-4
6.712191E-4
0.0015340808
-5.5545056E-4
-0.0011152835
0.0015645594
5.1064277E-4
-0.0021785195
-0.0015331117
-1.4054014E-4
6.781075E-4
0.0015987026
0.0010678159
1.3079513E-4
1.783088E-4
-8.9989815E-5
1.3561324E-4
3.698279E-5
-6.578255E-4
-4.6083587E-5
-6.2727527E-4
-9.5282675E-4
1.5878878E-4
-8.194533E-4
-5.4986496E-4
8.444059E-4
4.964219E-5
-3.7224975E-4
-1.2491945E-4
8.958467E-4
5.9962197E-4
-0.001864598
-8.8387594E-4
0.001011142
3.0457356E-4
4.2910574E-4
0.0010203617
0.0011032695
5.6356407E-4
-0.001236311
-0.0028539184
-0.0025102335
-4.1923366E-4
7.022354E-4
0.0010221142
0.0014068539
6.716672E-4
0.0010278543
0.0018126778
1.05215135E-4
-0.0012287366
1.1213986E-4
9.0463035E-4
-8.343854E-4
-5.561612E-4
0.0011711001
-1.8014667E-4
-3.2845789E-4
2.9003679E-5
-0.001698205
-5.3324923E-4
0.0010226846
0.0011514947
0.0011253274
-0.0011306293
-0.0013915176
-1.848838E-5
-2.8651403E-4
2.6002506E-4
-3.124881E-4
-4.8989715E-4
9.785464E-4
4.018072E-4
0.001004372
0.0016140889
-9.992749E-4
-0.0014217078
6.9809286E-4
9.814894E-4
-6.4490613E-4
-0.0012676646
-5.500675E-4
-4.4425498E-4
6.493748E-4
0.0013426427
-3.377668E-5
6.894917E-5
2.387561E-4
-3.9696274E-4
-3.4072832E-4
-0.0011538168
-8.169012E-4
-1.804681E-4
-0.0014069527
-7.202966E-4
6.052934E-4
9.5821574E-4
0.002221147
0.0015020281
-2.866578E-4
7.1503577E-4
0.0010498321
-0.0016184481
-0.0029872789
-0.0013220976
-2.5334093E-4
-3.5891283E-4
4.0370264E-4
3.0515672E-4
7.7015153E-7
0.0022181778
0.0028853663
2.2557544E-4
-0.0012307239
-9.2512806E-4
-1.8850015E-4
-6.7259825E-5
-5.317057E-4
5.6622823E-4
9.680719E-4
7.316237E-4
0.0011504743
-4.7740826E-4
-3.2620356E-4
9.387127E-4
1.8141884E-4
0.0016042013
2.1088464E-4
-0.0025217545
4.7415905E-4
0.0023972308
0.0029089868
-6.8187393E-4
-0.009457105
-0.007907234
1.5081442E-5
0.0031331396
0.003931735
0.0015651797
2.5752667E-4
6.52978E-4
-9.0570725E-4
-3.9742482E-4
-3.8047277E-5
3.2738684E-5
0.0012635421
-4.112673E-4
-0.0015015936
-4.5753378E-4
-2.5389614E-4
-6.967055E-5
2.643831E-4
8.972438E-5
-4.8892887E-4
6.216166E-4
0.0014078448
-1.4577941E-4
3.6504914E-4
5.781497E-4
-0.0010007147
-7.320224E-4
-6.614625E-4
-6.181805E-4
-3.6792367E-4
6.6931796E-4
0.0034078273
0.0024011103
6.7566015E-4
0.0014175075
-1.1456971E-4
-6.772105E-4
-2.901873E-4
-9.277938E-4
5.1838864E-4
1.7041918E-4
-0.0011421703
6.59238E-4
0.001255609
6.2613364E-4
2.6265762E-4
-0.0010163969
-0.0012658025
-8.6794666E-4
-1.8755803E-4
5.7376147E-4
-0.0018437041
-0.003612289
-0.0011064854
-2.8235823E-4
-0.0015388151
-0.0012993059
-4.7430073E-4
0.0013686582
0.0018732167
2.2327586E-4
9.0145814E-4
0.0013942277
-2.1830191E-4