0.0014634698
0.0018942923
0.0032960803
0.0019018427
2.750854E-4
7.223805E-4
8.7553094E-4
7.6236593E-4
-1.1711506E-4
4.1105336E-4
0.0039551714
0.0048157233
0.0014740633
-8.551553E-4
-1.1385541E-4
-0.0014757299
-0.0057093217
-0.0056335144
-0.0032367934
-0.0028960723
-0.001974269
-4.6349258E-5
0.001978327
0.0013216055
-0.001286427
-7.383726E-4
4.5010992E-4
1.2893729E-4
-1.6316229E-4
-7.9395E-4
-6.284395E-4
-1.02776445E-4
-1.4062902E-4
-3.343951E-5
-4.974416E-4
-0.0013402448
-0.0011119259
8.5659686E-4
0.0021694796
9.962363E-4
2.491581E-4
6.2561425E-4
7.273913E-4
0.0015464998
0.0024752812
0.0017884995
-1.8442539E-5
-0.0011029234
-6.636327E-4
1.2208355E-4
1.0461451E-4
-5.521526E-4
-0.001048635
-9.1567123E-4
-8.790993E-4
-7.356378E-4
0.0011332062
0.0027014802
0.0011298101
-0.0010179591
-5.606703E-4
0.0016538157
0.0020163348
-1.11801244E-4
-9.841152E-4
-0.001215471
-0.002362273
-0.0020691955
-0.0012338329
-6.0681487E-4
-1.0090553E-4
-3.1533506E-4
0.0021644628
0.004449408
0.0017174811
4.6749684E-4
0.001154695
-0.0010302472
-0.0012675181
-6.748648E-4
-0.0025567503
-9.971904E-4
7.015861E-4
-0.0012558379
4.053203E-6
0.0016406123
-5.0374196E-4
-0.0016694478
-0.0018100481
-0.0012843442
-1.4045637E-4
-3.829991E-4
-4.8436814E-5
-2.5915982E-5
-1.08746695E-4
0.0013152187
-4.5057354E-4
-0.0014410535
0.0019610424
0.0011747045
-6.7284564E-4
0.0015298538
0.0014541837
6.676303E-4
8.7844057E-4
2.1308237E-4
0.0016339126
0.0021821654
0.0011261229
0.001186761
-8.554654E-4
-0.0014341194
-2.0604947E-4
-0.002315492
-0.0018838821
5.253514E-4
7.982729E-5
9.6334436E-4
0.0013186698
-8.619338E-5
3.6750137E-4
-1.447566E-4
-0.0016607038
-0.0014004154
-0.0013416825
-0.0019705626
-0.0011167873
0.0013770688
0.0022287017
5.412498E-5
-5.2418036E-4
0.0013172749
3.1829893E-4
-0.0020418277
-0.001113477
3.5744224E-4
7.4958947E-4
5.4191536E-4
-0.0018381979
-0.0032398573
-0.001239775
8.1613904E-4
6.6677784E-4
-3.405352E-4
-1.3090628E-4
6.193357E-4
0.0018929676
0.0037352182
0.0034391636
0.0013797227
-8.055149E-4
-0.0015478425
1.9350069E-4
1.9696787E-4
-0.0023205862
-0.0024319494
-0.0011851098
-0.0016209934
-6.5061264E-4
0.0010306417
4.0715575E-4
0.001020981
0.0010451472
8.9621666E-5
0.0021921778
7.6989597E-4
-0.0018217504
3.899228E-4
9.6476503E-4
5.7581626E-4
1.1369132E-5
-7.287851E-4
2.2794321E-4
3.08477E-4
0.0023682518
0.0017891447
-0.0010875805
0.0017644332
8.1896345E-4
-0.0014262103
3.3235853E-4
-5.217206E-4
0.0012992991
0.0017867028
-0.0024489406
-0.0043052463
-0.0019103299
0.0037307746
-0.0023428255
-0.011941546
-0.003962156
0.0020463683
4.241987E-4
0.0029139195
0.0024984197
0.0013643657
0.0013755497
-8.2529354E-4
-0.0027625172
-0.0023609672
7.8133994E-4
8.127912E-4
4.4528282E-5
0.0023259153
0.0014226377
3.7750727E-4
0.0010497696
0.0010461523
0.0017638279
1.2737799E-4
-0.0018302329
-1.593647E-4
0.0018129965
0.0018558629
0.002229662
0.0039893603
0.0033555876
0.0011548542
-4.134074E-4
-0.0027378784
-0.0028260082
-0.001204414
-0.0011860293
-0.001921248
-0.0019697428
-6.926128E-5
0.0015454809
0.0020338218
0.0020489835
2.911818E-4
-3.487751E-4
4.3457747E-4
-4.8665144E-4
-0.0024864518
-0.002891536
-9.4842585E-4
-4.1102272E-4
-0.0011607356
-6.803927E-4
-6.149289E-6
2.8533643E-4
-0.0018075159
-0.002492667
2.9535202E-4
-3.5175405E-4
-4.835307E-4
0.0019040465
0.0010431934
0.0011778276
0.0019701796
-1.1506126E-4
-0.0010404602
-8.975164E-5
4.946107E-4
-1.8483777E-4
-1.7878E-4
0.0015163805
6.8800146E-4
-0.0019541644
-0.0022634047
-0.0013823524
-8.503559E-4
1.8890215E-4
0.0013370304
0.0014835355
0.0023541537
0.0031366707
0.0012785963
4.7844203E-4
0.0013404608
3.6771438E-4
-5.740225E-4
5.1119394E-5
5.7049264E-4
-5.0500093E-4
-0.001047804
6.7281886E-4
0.001161889
0.0021359453
0.0048991563
0.0035555726
2.1256607E-4
-0.0013011425
-0.0035615412
-0.0040159184
-8.762157E-4
-7.5823447E-4
-0.004145941
-0.0038489513
-0.0022530733
-0.0031134444
-0.0015980882
4.5237536E-4
-6.9231226E-4
-0.0014736943
-5.962339E-4
4.9448316E-4
0.0010483282
0.001634246
0.0016480739
1.3169336E-5
-8.163301E-4
1.1016259E-5
0.0020966728
0.0031830322
0.0012924486
7.725396E-4
7.576815E-4
5.077243E-5
9.4130257E-4
-0.0010399908
-0.002737456
-6.572706E-5
0.0012920417
0.0014855933
0.0015307022
0.0019069345
0.0033051937
0.0021252008
8.314924E-4
5.264874E-4
-0.0012010493
-0.0010876257
2.7274587E-5
-6.115251E-4
-0.0015842346
-0.0014831438
-1.9917874E-4
-4.852929E-4
-0.0018506708
-0.0010008478
-2.8488558E-4
-7.2155683E-4
-1.6597431E-4
-6.243876E-4
-0.0012469755
0.0011299603
0.0024014085
0.0011537131
0.0010930642
8.166846E-4
-3.1337413E-4
-8.071665E-4
-7.8363036E-4
4.7648046E-4
6.780328E-4
4.2336166E-4
0.0030563923
0.0034830414
-8.7683955E-5
-0.0032213246
-0.0051432755
-0.0047777737
-0.0036674943
-0.0038325626
-0.0027902152
-0.0017535817
-0.0015140899
-0.0010165934
-0.002108084
-0.002740087
-7.8451785E-4
0.0022479675
0.0046850387
0.004253765
0.001950656
4.5576217E-4
0.001735579
0.004174546
0.0051778867
0.010286303
0.015384297
0.010322899
0.0022719172
-0.0030724723
-0.005799983
-0.0041979183
-0.0019231656
-8.232316E-4
-0.0015631034
-0.00427852
-0.0069095558
-0.0067591667
-0.0033643008
-0.0036179577
-0.003648156
1.04039595E-4
2.694739E-6
-1.6478631E-4
-0.0029635
-0.0059179044
1.2721558E-4
0.0028344523
0.0035511095
-3.062492E-4
-0.0112491455
-0.004705034
0.005682528
0.005891643
0.007823718
0.0037169307
0.004860302
0.005952278
-0.00825229
-0.006565039
0.0059193284
0.0043797623
0.0021567862
0.002458094
0.0018705801
7.79205E-4
-7.2000833E-4
4.5966296E-4
9.245363E-5
-6.2894245E-4
-0.00108776
-0.0026037078
-1.960161E-4
0.0012423798
-1.9579164E-4
0.0012024838
0.0020854298
-2.5627387E-4
-0.0026022226
-0.0018532765
-3.1011397E-4
-7.83595E-4
-1.4571947E-4
7.10121E-4
-0.001432045
-0.0020477541
9.7366056E-4
0.0015787398
-0.0012260189
-0.0026951956
-9.878926E-4
0.0012870322
7.375668E-4
-0.0013458491
-0.0036304188
-0.003934241
-0.0012878181
-0.0013390302
-6.095546E-4
0.001187667
9.726552E-4
0.0039245696
-0.0035360204
-0.013622326
-0.0021222471
0.00659901
0.0033380908
0.0039198934
0.0035455194
0.005312577
0.0068700924
0.0056604566
0.0056967544
0.001721754
0.0015866938
0.004269078
0.0028779607
0.0032124324
0.0026450548
0.0033381493
0.0032746654
0.0010808051
0.0013975725
-0.00953961
-0.024522942
-0.023005292
-0.010660549
0.0051055215
0.01103746
-0.0014890782
-0.00609226
0.0032220376
-0.00574229
-0.015635563
8.224664E-4
0.007296284
-9.4568846E-4
0.0020174845
0.0049863905
0.0014719628
-1.8171057E-4
0.0056406
0.004109746
-0.0029182737
0.009623037
0.015256491
0.010258456
0.011297085
-0.0028246671
-0.0055847284
0.0075727524
5.155225E-4
-0.012075771
-0.010476034
0.0038680742
0.0019649372
-0.01339019
-0.008444677
-0.0034925598
-2.0014409E-4
-3.46108E-4
-0.012341308
-0.0022642596
0.013766843
0.0166162
0.00919245
-0.0049763266
0.003367221
0.0057880967
-0.009254338
-0.009868478
-0.003658959
0.009631805
0.0064944834
-0.0053586992
0.0046634236
-0.0012870732
-8.8583864E-4
0.016116273
0.0031621852
-0.010475035
-0.0126358345
-0.012822944
-0.008993286
-0.008927259
0.006163529
0.007641184
-0.012268506
-0.0019144047
0.004928342
-0.01355013
-0.010334001
0.006668848
0.010964421
0.0094530545
0.008393564
0.007602024
0.007668852
0.0069315704
0.0053040935
0.003342596
5.645354E-4
0.0012155466
0.0020924222
-8.28393E-4
-0.0010485683
-7.753781E-4
-0.0026430949
-0.0026786905
-0.0011602273
5.674153E-4
3.7987845E-4
-4.7980715E-4
-0.0022714632
-0.0055040694
-0.005593731
-0.004681887
-0.0046544382
-0.004561884
-0.0046438035
-0.0028913037
-9.5977297E-4
0.001385692
0.0031933014
0.0024651745
0.0032960218
0.003673681
0.0030706602
0.003152825
0.0015501351
0.0020889093
0.0022658783
-0.0010266176
-0.0014860455
-9.568414E-4
-0.0014045794
-4.7867102E-4
8.660045E-4
0.001975928
0.0011304849
4.498407E-4
3.76762E-4
-0.0028537791
-0.0032005953
3.5447923E-5
7.741433E-5
2.7210687E-4
0.0016682781
0.001319939
4.3401212E-4
2.1642909E-4
0.0011959375
-4.2596742E-4
-0.0027426453
-3.8659657E-4
-1.434325E-4
-0.0020286369
-8.1879E-4
-1.777982E-4
7.869839E-4
0.0013159524
6.4788753E-4
0.0021125693
0.0013754277
3.8128038E-4
0.0017504233
-3.0550575E-5
-0.0022872586
-0.003121674
-0.0031603612
-0.0011388938
2.7294309E-4
0.0012567324
0.0017423865
0.0020291153
0.0027454824
9.783558E-4
6.620884E-5
2.1510059E-4
-7.554246E-4
7.3762465E-4
6.9821137E-4
-0.0017835173
-0.0024299845
-0.002619136
-7.968864E-4
8.248572E-4
-6.868566E-4
-8.2746113E-4
2.107497E-4
2.9802756E-4
-7.311628E-4
-0.0020392113
-0.001341891
-2.6915487E-4
3.7135129E-4
0.0010125742
3.5908836E-4
3.3242762E-4
0.0016138185
0.0022258922
0.002781277
0.0027479157
-3.1290046E-4
-0.0037115412
-0.0032658824
-8.7478064E-4
7.948342E-4
4.948797E-4
-7.1352004E-4
0.0015757461
0.0031892504
-0.0013205188
-0.0049446253
-0.004784754
-0.0041058147
-0.0011666775
0.0018507849
0.0029589424
0.005360964
0.0049123084
7.9995237E-4
-1.0814491E-4
-4.980318E-4
-0.0015895688
3.4291984E-4
0.001818106
0.0028841207
0.0047753844
0.0039977436
0.0019895125
5.636129E-4
-0.0019649558
-0.005458699
-0.0065473723
-0.004193609
-0.0020272706
-1.6006967E-4
0.0011739092
-6.4840895E-4
-0.002532166
-0.0028421893
-0.003481376
-0.0031964926
-0.0016927492
-2.3087836E-4
0.00225989
0.0043317555
0.0018846487
-1.9257779E-4
0.0025842013
0.0037564314
0.002932329
0.0027554692
0.0015255926
3.9726793E-4
-0.0011219315
-0.0013980265
4.9286627E-5
-4.223938E-4
-7.566588E-4
-0.0015062153
-0.0023946795
-9.378101E-4
-2.2843097E-4
7.019284E-4
7.430006E-4
-2.932691E-4
7.389096E-4
-4.6528523E-5
0.0010418291
0.0035479346
6.195538E-4
4.6251807E-4
0.0024561412
0.0016504772
0.0022435314
-4.665443E-4
-0.004921354
-0.004681553
-0.001506516
0.0029016642
0.0031864098
4.1999936E-4
2.3320851E-4
-5.215602E-4
-0.0017725885
-0.002573714
-0.0033640706
-0.0027947023
-0.0034354238
-0.0030297614
2.2092272E-4
6.058973E-4
-4.7543543E-4
1.2559669E-4
-3.468722E-4
-7.205847E-4
6.798311E-4
0.0018470255
0.0026101507
0.0023624718
0.0019701184
0.003755444
0.003651501
9.4220205E-4
-4.7042192E-4
-0.0025178574
-0.0042543374
-0.003030929
-0.0010304351
7.0488495E-5
-6.9087354E-4
-0.0013435006
3.6086084E-4
0.0027577917
0.0044404273
0.004525055
0.0050294353
0.006783492
0.0050016935
-7.0411677E-4
-0.0054562315
-0.006152887
-0.0047290106
-0.0037449137
-0.0012384941
0.0012887415
0.0018095835
0.0018290428
-3.0089513E-4
-0.00297229
-0.004253997
-0.005096297
-0.002995391
-8.596715E-4
-0.001159278
-6.6204154E-4
-0.001594374
-0.0029380543
-9.998393E-4
0.0015404773
0.002466208
0.0016550301
0.0015495811
0.0026540845
0.0021894784
0.002465099
0.0037963986
0.0039052234
0.00457532
0.0057800985
0.006071608
0.004543008
8.153644E-4
-0.004148584
-0.0054815477
2.2648157E-4
-0.0012398775
-0.01290453
-0.010902649
4.396169E-4
9.1684976E-4
2.660656E-4
0.0027788444
0.0012627133
6.370075E-4
3.2240184E-4
-0.0019674075
-0.002073137
-0.0016931611
-0.0015663692
-1.3622329E-4
8.378822E-5
-2.0826985E-4
0.0012467388
0.0024924965
0.0016186305
-4.6771405E-5
3.5967365E-5
9.338136E-4
8.4282126E-4
0.0012214585
0.0011552335
-6.2973246E-5
4.786747E-4
0.0013349365
4.5652458E-4
-8.157205E-4
-0.003162649
-0.0044363025
-0.0019069549
-1.3002472E-4
0.001021218
0.0050829668
0.0051992373
6.3368055E-4
-8.311244E-4
-0.0014406757
-0.0011719215
9.766371E-4
-0.0019247031
-0.005119878
-0.0022918293
2.4770855E-4
-0.001091672
-0.0036963045
-0.0028892283
-6.581179E-4
-0.0014065105
-0.0019686008
-0.004234971
-0.008315864
-0.008468874
-0.0055038594
7.503298E-4
0.00705662
0.008814908
0.009476696
0.008284461
0.005970483
0.005027061
0.0023624804
0.0013570769
0.0026415018
8.223702E-4
-0.0016235327
-0.0036857096
-0.0075008334
-0.009696325
-0.009190704
-0.009225583
-0.009330872
-0.007563212
-0.004025297
4.068735E-4
0.0038864294
0.007534553
0.011302404
0.01130193
0.01116825
0.013520255
0.013427413
0.011659655
0.009419702
0.0053168465
3.5439953E-4
-0.006542061
-0.014244734
-0.018795514
-0.020422138
-0.019692266
-0.015692301
-0.010763125
-0.0060542724
0.0017984917
0.011289545
0.017282763
0.020983635
0.022186283
0.017832678
0.010470714
0.0046637924
0.0030580442
0.0047479984
0.008136913
0.009121215
0.0021420582
-0.0018207945
0.0069943536
0.02123743
0.035573483
0.035913832
0.01028156
-0.02015596
-0.030312596
-0.025881404
-0.026884949
-0.030826043
-0.031562448
-0.041153166
-0.053083416
-0.061885953
-0.075189
-0.079691276
-0.06711536
-0.044353105
-0.027022395
-0.011788363
0.0360672
0.09823434
0.13462114
0.14761488
0.13300577
0.104848884
0.09691773
0.11385444
0.12186321
0.057983804
-0.071930535
-0.17647061
-0.20035084
-0.14746313
-0.042584263
0.057120834
0.08297192
0.043689433
-0.00791857
-0.055644114
-0.059295908
-0.028433288
-0.05325694
-0.110783994
-0.12818465
-0.11487385
-0.079596974
-0.01994157
0.036828782
0.06862341
0.096375495
0.12877084
0.15128651
0.1811615
0.19578731
0.16525653
0.117414005
0.06109971
0.01984028
-0.0018124152
-0.05873172
-0.1503071
-0.225034
-0.2225322
-0.15429655
-0.10468613
-0.065475754
-0.029772716
-0.0466829
-0.08497118
-0.099182434
-0.07199052
-0.012068653
0.0500689
0.11775904
0.15580122
0.12768987
0.057396434
-0.020959767
-0.03489053
0.020078266
0.08058101
0.13863334
0.16676657
0.19223201
0.22999643
0.16884038
0.043676056
-0.05348346
-0.1284041
-0.15720797
-0.1916297
-0.24546985
-0.23036145
-0.16592175
-0.084374584
-0.016136747
0.019668333
0.07056143
0.08363966
0.04415736
0.038611196
0.04096358
0.010737499
-0.02062748
-0.024618354
-0.006244122
0.009991547
0.019490149
0.009207207
-0.02255036
-0.03424005
0.01138565
0.091034204
0.13744909
0.15620866
0.157057
0.07743961
-0.07760648
-0.21164371
-0.21873814
-0.124307185
-0.06659843
-0.05966304
-0.040905055
0.0057198885
0.06197364
0.097188786
0.118186675
0.11826566
0.12608996
0.16669211
0.11540033
-0.040108904
-0.14465968
-0.15337646
-0.10812106
-0.06411545
-0.04755494
-0.030947179
-0.010839856
0.0038844545
0.009649142
0.006689893
0.0067826514
0.008094138
0.007103133
0.0053130086
0.005003704
0.004673226
-0.0024391832
-0.008555405
-0.0071385237
0.0014537327
0.010888604
0.012706507
0.014712819
0.017445486
0.020614974
0.028687997
0.0324251
0.030580256
0.02612489
0.018106654
0.007588391
-0.005064644
-0.013578429
-0.01668604
-0.02005146
-0.024017647
-0.024467874
-0.020962298
-0.01827531
-0.013999279
-0.009040016
-0.0066922456
-0.0012880953
0.0062801572
0.013613359
0.018530859
0.018264001
0.014676567
0.0053916606
-0.0037238528
-0.007983639
-0.012645694
-0.012916869
-0.010765074
-0.01187779
-0.012551849
-0.011658806
-0.007630382
-0.0034373435
0.004788524
0.020911396
0.024555335
0.01366329
0.0056576175
-8.7164E-4
-0.005543164
-0.0048903613
-0.0025808928
-6.342442E-4
-0.0011670117
-1.0064767E-4
0.003970318
0.003880654
0.0019792863
0.0014125396
6.3071353E-4
0.0017600993
0.0012221227
-0.002221164
-0.0023566613
-4.65381E-4
9.216575E-4
0.0034468623
0.008375195
0.013730607
0.012629798
0.00794704
0.006683793
0.004724575
-1.0073006E-4
-0.008200819
-0.017045818
-0.018697053
-0.016359847
-0.014481884
-0.010663083
-0.004327247
0.0012959618
9.5887174E-4
0.001218983
0.0041847187
7.148469E-4
-0.0018550531
-0.0010734145
-0.0042745695
-0.0060325805
-0.0034697764
0.002967649
0.009863821
0.0131599605
0.016770393
0.016852127
0.011833934
0.006542682
-0.0014948818
-0.00800437
-0.009114342
-0.0071993475
-8.103354E-4
0.0052401293
0.0074758558
0.0076217595
0.0029853967
-0.0035542774
-0.0063308883
-0.0068797464
-0.00921289
-0.0119737135
-0.009216194
-0.005267484
-0.0038540645
0.0025417418
0.008101186
0.0060601477
0.0045257956
0.004288731
0.0016348268
-0.0029089134
-0.008114717
-0.009284705
-0.0064005544
-0.0053403275
-0.005786542
-0.004194086
-0.0020723727
-2.2054964E-4
0.0016463307
0.0012687827
0.0017087815
0.0054094144
0.009006481
0.009980687
0.0072437045
0.005536102
0.006018191
0.0045364937
0.0033871382
0.0036040545
0.005234356
0.006604371
0.0059223687
0.004807235
-4.7176858E-4
-0.0021501398
0.0018492033
-0.004921208
-0.00929756
-0.0047427285
-0.011464635
-0.016328126
-0.010013077
-0.009060854
-0.009702848
-0.0021743055
0.005901283
-9.392077E-4
-0.014865275
-0.012157379
0.0023123801
0.011914627
0.007150936
-0.004061257
2.794998E-4
0.0030631183
-0.0013653035
0.014467745
0.025004145
0.013503444
-8.1070233E-4
-0.012611021
-8.682714E-4
0.011532704
0.0019452123
0.0126523
0.018524393
-0.0017071374
-0.008658669
-0.013839808
-0.014510653
-5.508682E-4
0.005205098
-0.0015257826
-0.01668292
-0.011683964
0.0013502239
-0.007829074
6.498001E-4
0.008460001
-0.0050085294
-0.002487387
-0.00215333
0.00392369
0.014041929
-0.008102084
-0.012800918
0.007705526
0.004951198
-0.0018994043
8.789261E-4
-0.0018569503
-0.0043434454
0.005043232
0.0137256775
0.011675626
0.013255668
0.0111019425
-0.0015675823
-0.009903015
-0.0111874975
-0.0048142998
8.1581133E-4
-0.0016857872
-0.008447066
-0.016388936
-0.008806819
0.0065481886
0.006069407
0.0027836456
0.0029065788
2.1909457E-4
0.0016394167
0.002704251
0.002126044
0.0054298136
-7.0535886E-4
-0.012928495
-0.0072091226
0.00452847
0.0044131004
0.0027537087
0.0013046197
0.0017840655
0.0062982766
0.004384333
4.4097018E-4
2.2146976E-4
-0.001127905
-0.0021565517
-0.0026440981
-0.0017403159
5.23905E-4
-6.1730883E-4
-0.002636188
-0.0021990996
-4.946928E-4
0.0015212536
0.0023612434
0.0014926322
-8.9181814E-4
-0.0028944896
-0.002584812
-0.0012945477
6.204509E-4
0.0023368832
0.0018072203
8.4579404E-4
5.722647E-4
3.7074028E-4
0.0010553185
0.001886328
0.0011152605
-0.0014814003
-0.0034261083
-0.0027552992
-0.002126463
-0.002738909
-5.817722E-4
0.0029009818
0.0018897108
-3.281932E-4
2.0607444E-4
5.9786544E-4
9.0385135E-4
9.149186E-4
-1.9115541E-4
-2.8095223E-4
-0.0014247175
-0.003335617
-0.0014810407
0.0014069761
0.0026051837
0.0029864435
0.002335704
0.0017085052
0.0011688621
9.402718E-4
3.3421183E-4
-0.0013200935
-7.019975E-4
4.7468606E-4
1.8729793E-4
1.0591358E-5
-0.0010271749
-7.393652E-4
-2.1175577E-4
-0.0019225101
-0.0011406845
6.640587E-4
-2.8854038E-4
-0.001701935
-0.0017611509
-3.9584652E-4
-3.7609343E-4
-0.0017958788
-0.0014544592
1.4843782E-4
0.0012651635
0.0012925569
0.0013818222
0.0011039659
2.8967293E-4
0.0010670609
7.5308984E-4
-6.43612E-4
-5.147335E-4
-5.766177E-4
-8.812167E-5
1.9323574E-4
-7.830778E-4
-0.0014315174
-0.001732722
-9.124059E-4
-9.3173975E-4
-9.367022E-4
6.542763E-4
-8.741931E-4
-0.0015370921
0.001041007
0.0010684343
0.0012497186
0.0025925068
0.002058419
7.534014E-4
6.8291713E-4
0.0020503388
9.764562E-4
-0.001063454
-3.326645E-4
6.4775813E-4
0.0016785136
0.0013496454
-0.0012405603
-0.0016415261
2.6620118E-4
0.001161148
-1.420822E-4
-0.0015703839
-0.0026287735
-0.0018782782
0.0032417134
8.576657E-4
-0.009774194
-0.0077402913
0.002036704
0.0028290448
4.5418157E-4
-2.8256566E-4
-6.3137576E-4
0.0013087519
0.0028735716
0.0017066511
4.6891085E-4
-1.5437273E-4
-3.9309636E-4
6.8309787E-4
7.862044E-4
-2.58822E-4
1.8774492E-4
5.164236E-4
6.2310946E-4
8.460052E-4
-2.0081375E-4
-2.488221E-4
-3.9912408E-4
-0.0024289943
-0.0023019426
3.0124723E-4
0.0020069578
0.0012608405
-5.679596E-4
2.4591303E-5
0.0017115596
0.0015338855
0.0016598442
0.0021612437
-7.475483E-5
-0.003324161
-0.003064282
-1.3849148E-4
7.751422E-4
1.1935986E-4
-3.9786162E-4
-0.0018696014
-9.174802E-4
0.0015210579
2.4288135E-4
4.127151E-4
0.0020269954
-9.859017E-4
-0.0026159014
-3.7820626E-4
5.638912E-4
1.4736371E-4
-0.0015849794
-0.002838391
-4.031659E-4
0.0020783152
0.001542618
0.0011073053
0.0013895412
3.1071127E-4
-5.8573594E-5
0.0012286257
0.001289458
2.2877204E-4
-0.0010382312
-0.0022077013
-8.5875945E-4
0.0015697127
0.0010189719
6.168709E-5
5.597763E-4
-0.0013547051
-0.0032486746
-0.0015438251
-1.5626507E-4
9.6640084E-5
9.10113E-4
0.0015690997
0.0015475419
7.2051433E-4
7.8884E-4
3.301836E-4
-0.002388284
-0.0024997387
-7.345319E-4
-6.54078E-4
6.9710764E-4
0.0015382968
-4.536021E-5
5.0003757E-4
0.0022426276
0.0016329167
4.8217556E-5
-7.2256524E-5
6.449956E-4
-2.9427744E-4
-4.3717737E-4
0.0011499692
-1.581697E-5
-0.001077776
3.0102454E-5
-0.0010134019
-0.0017544928
-6.023093E-4
-1.5165532E-4
4.9858284E-4
3.7886985E-4
-0.0011202149
-0.0014501513
-1.338697E-4
5.001919E-4
-4.7277074E-4
-4.8659588E-4
-2.862628E-4
-3.4588977E-4
0.0014667294
0.001403694
3.9744723E-6
9.2517823E-4
7.770005E-4
8.874511E-5
-2.0029867E-4
-0.0012631762
-1.1562791E-4
0.0015111464
0.0016734063
0.001483364
-0.0013081583
-0.0036355054
-0.001377231
0.0011485288
0.0013781439
3.665762E-4
-0.0010183657
-3.5574858E-4
6.693475E-4
-4.36122E-4
-5.006065E-4
5.312473E-4
3.719019E-4
-5.330221E-4
-0.0020140351
-0.0014152608
0.0012370546
0.0015611902
0.0013077784
0.0017779229
6.6967163E-4
5.171537E-4
0.0018799747
7.40424E-4
-0.0016750159
-9.993396E-4
1.8309288E-4
-0.0019679277
-0.002326843
-2.2264983E-4
-7.9266325E-4
-2.1216655E-4
8.3947624E-4
-9.5342123E-4
-7.0152695E-5
-1.6755017E-7
-0.0021538557
7.6055544E-4
0.0031699913
0.0016018454
1.1843545E-4
-8.7890885E-4
-6.229608E-5
-3.9869326E-4
-0.0012886408
-3.701917E-5
-0.0015603469
-0.0024330406
-3.437607E-4
-3.3278193E-4
-3.8473672E-4
8.334415E-4
0.002328875
0.0022190493
4.4270846E-4
7.596903E-4
3.3040752E-4
-9.176673E-4
3.5700348E-4
0.0013977044
0.0013995008
4.7396697E-4
1.998553E-4
0.0012382446
3.344629E-4
1.05640574E-4
0.0016260231
9.4646163E-4
-0.0014420025
-0.0012918649
0.0021213912
0.0024915405
-4.0023293E-5
-0.0011818142
-0.0038015847
-0.004579707
9.3327404E-4
0.0022296298
-0.007747138
-0.012182817
-0.0018966815
0.0032063809
5.2953535E-4
0.002228521
0.0019343946
0.0011639656
0.0030620643
0.0010845173
-5.030315E-4
-2.8550337E-4
5.7055368E-5
0.0016351105
0.0012211298
9.462398E-4
0.0016664094
7.9841324E-4
3.955197E-4
0.0013419334
0.0026940173
0.0015938502
-3.2799417E-4
4.7919084E-4
-6.255315E-5
-0.0012470122
-3.686802E-4
-1.3970606E-4
-7.39464E-4
-0.0011579241
-5.1593955E-4
-3.1985895E-4
-5.414453E-4
0.0010290634
4.7871427E-4
-4.3721215E-4
0.0011038054
-1.05881794E-4
-0.0018003603
-0.0013533501
-6.9819554E-4
-9.956453E-6
-0.0012156498
-0.0013605384
7.734937E-4
1.5719878E-4
-0.0012707919
-1.611163E-4
9.7319693E-4
-1.3162475E-4
-3.2967877E-5
0.0015487206
-0.0021654228
-0.0059837643
-0.002320388
0.0013095743
0.0010390541
2.3660674E-5
-0.0010577448
-5.6169956E-4
0.0012215915
0.002122251
0.002871108
0.0027623603
0.0012942125
0.0019508562
0.0021192392
-0.0012425183
-0.0018421105
3.9155097E-4
0.0014502836
0.001864295
8.0779067E-4
5.5307057E-5
1.6652496E-4
-2.02548E-4
1.51856E-4
3.2638988E-4
4.05708E-4
-5.2427757E-4
-0.0018330757
-7.971433E-4
-0.001003358
-0.0012146579
1.8787531E-4
-8.630509E-4
-0.0014056257
-3.6000845E-4
6.261158E-5
2.9020855E-4
-8.05557E-4
-0.0018660252
-0.0016863024
-0.001045242
2.2512191E-4
0.001370325
0.0011678488
-4.03916E-4
-0.001298892
-0.0011680791
-4.1134812E-5
0.0016556006
3.017898E-4
-0.0012687738
7.460823E-4
0.0022926638
0.0010667004
-2.2978843E-4
4.402251E-4
6.130031E-4
4.4140394E-5
-3.717159E-4
-0.0012748853
9.1788603E-4
0.0018007432
-8.542283E-4
7.935378E-4
0.0025990217
0.0027519458
0.0031683207
4.19866E-4
-8.3146343E-4
-0.0019656639
-0.0040251473
-0.0013717808
3.8081736E-4
-5.3738774E-4
-9.584578E-4
-8.898464E-4
5.6672737E-4
5.561206E-4
1.3644453E-4
7.905035E-4
-2.6819893E-4
-0.0016749869
-0.0020652493
-0.0011692698
-3.1092748E-4
-5.400392E-4
-3.4644068E-4
-1.0761301E-4
3.784587E-4
6.0300785E-4
0.0010529775
0.0021884837
0.001315922
6.144753E-4
3.6913026E-4
-4.5457383E-4
5.2982435E-4
5.804363E-4
6.2094943E-4
0.0014874631
-1.9804282E-4
5.929799E-4
0.0025485791
-4.5394266E-4
-0.002705725
-0.002121611
-0.0019683216
-7.6741364E-4
9.7136025E-4
0.0013214503
3.6674878E-4
-0.0020239193
-0.0038107235
-0.001918496
0.0014933669
0.0020984495
7.3700014E-4
2.0936353E-4
1.01245105E-5
-0.0011563007
-0.0018117896
-1.934397E-4
6.491221E-4
-0.0011630033
-0.0016812013
-5.152337E-4
8.295958E-4
0.002458899
0.0018946546
0.0014821271
0.0031924874
0.002736842
9.749706E-4
-1.1892838E-5
7.799827E-4
0.0025183405
9.7399985E-5
-0.002271328
-2.8201123E-4
0.0010283128
9.3806314E-4
1.7067321E-6
-0.0017843167
-0.0016254063
1.8154607E-4
2.3123548E-4
1.5589077E-4
0.002095842
-0.0011767191
-0.0039469246
0.0012908132
-0.0034061219
-0.0118877245
-0.003948336
0.0036173663
0.002057763
9.140578E-4
6.933499E-6
4.914704E-4
9.0067583E-4
-1.07750704E-4
4.5039246E-4
8.3886954E-4
5.5452145E-4
6.001521E-4
6.128687E-4
5.086119E-4
7.7677064E-4
0.0011830892
-9.257447E-5
-8.0504775E-4
4.3493748E-4
0.0010260813
0.0016085842
0.002813508
0.0025521538
-1.1072667E-4
-0.001285138
5.6898245E-4
6.2025903E-4
-7.75066E-5
6.0331004E-5
-8.4726774E-4
-5.10062E-4
-3.8989543E-4
-0.0010712835
3.0699623E-4
8.0117944E-4
3.891004E-4
8.6395774E-4
8.524753E-6
-5.574372E-4
8.245229E-4
6.0138834E-4
-0.0016370054
-0.0015483676
-5.2554073E-4
-0.0022670678
-0.002718332
-3.492657E-4
2.1748613E-4
-2.8246263E-4
2.762236E-4
-3.3625876E-4
-0.002360736
-0.0031154547
-0.0010514264
0.0012762835
1.02139325E-4
-8.08045E-4
0.0015183309
0.0015494294
3.4910603E-4
0.002031794
0.0019974015
1.613989E-4
7.169731E-4
4.1366243E-4
-0.0014289281
2.1056405E-4
0.0023130788
0.001884136
0.0030388471
0.0031399548
2.7863283E-4
-0.0011268827
-2.6174635E-4
0.0011324281
-0.0012757886
-0.003466281
-2.3142746E-4
-0.0011641141
-0.0031730167
2.8255323E-4
-4.1241784E-4
-0.001776936
7.046471E-4
7.0314895E-4
-5.036429E-4
-0.0016080637
-6.500781E-4
0.001294655
-4.790995E-4
-2.537653E-4
9.4817183E-4
-0.0010846705
-1.1997278E-4
0.0016363441
0.0015517492
0.0027607144
0.0013804708
-0.0012715306
-7.755996E-4
-4.0712286E-4
-2.8910534E-5
9.4705506E-4
-1.0651339E-4
-2.6882137E-4
7.436409E-4
-8.1665587E-4
-0.002076898
-8.733369E-4
3.443383E-5
-1.7992918E-4
-8.541869E-4
-0.0011139275
-5.642601E-4
2.7880963E-4
7.203866E-4
-7.0286216E-5
-3.6020044E-4
1.4565116E-5
-0.0011219796
-5.1279704E-4
0.001707351
0.001439636
0.0020610509
0.0033632424
0.0013905835
-4.7587467E-4
1.5882255E-5
6.311448E-4
-4.7370212E-4
-0.0011499189
2.8138935E-5
-7.730441E-4
-9.55412E-4
0.0012663036
0.0010656842
2.1568841E-4
-0.001307888
-0.0024788133
8.742699E-4
0.0021153737
-7.379761E-5
-9.40135E-4
-0.0016453838
-0.0012764854
-0.0014235254
-0.0020489185
-1.8982793E-4
7.100538E-4
6.2899536E-4
0.0012410978
6.5597706E-4
-3.2451085E-4
-7.906258E-4
-1.7068426E-4
1.5067037E-4
-6.349368E-4
4.6122042E-4
9.952866E-4
-7.735645E-4
-0.0013433399
-9.227648E-4
1.15466326E-4
0.0011075133
0.0012296267
0.002337159
0.0025330847
9.5939E-4
-5.6492922E-6
-0.0010961501