5.25705E-4
0.002063922
0.0010524364
-3.1035423E-5
3.618859E-4
8.56633E-4
0.0011891668
7.09695E-4
0.0012096126
9.83262E-4
-0.0013637418
-0.0016543942
-0.0025468355
-0.0038313973
-0.0013198839
2.8502644E-4
1.335413E-4
1.9333507E-4
-3.2560574E-4
-1.12357884E-4
-1.262911E-4
-3.1427178E-4
-9.5063256E-4
-0.0024462857
-7.3848263E-4
0.0013648923
2.6978907E-4
7.991879E-4
0.0021908008
6.7256205E-4
-6.241692E-4
7.1672686E-5
6.761864E-4
4.917581E-4
1.0029636E-4
0.0010735794
0.0018398574
5.1031745E-4
7.447548E-4
5.8044743E-4
-0.0015483247
-1.9764675E-4
9.754235E-4
2.7027293E-4
0.0010013168
-6.552564E-4
-0.0017878668
-1.090777E-5
-1.1395398E-4
-4.4048976E-4
-5.755709E-4
-8.093146E-4
6.326357E-4
2.0174132E-4
-0.0017637237
-6.749467E-4
0.0014367484
0.0013995765
0.0014295329
0.0012198373
-6.689362E-4
-0.0010133855
-0.0010566268
-0.0019482089
-0.0010355285
-3.5143894E-4
-3.7481377E-4
-7.971773E-4
-9.3614584E-4
0.0012110927
0.0014324572
3.7301178E-4
7.425747E-4
-3.2817473E-4
-4.296466E-5
0.0012025019
5.6359667E-4
5.1932206E-4
-4.2487646E-4
-0.0014935064
-1.4866744E-4
6.73795E-4
5.433635E-4
6.499153E-4
9.837018E-4
0.001554821
0.0014220871
-9.649717E-5
-0.0019547273
-0.00147576
3.282881E-4
8.4863114E-4
5.6141143E-4
-9.2449685E-4
-0.0013175256
3.3153358E-4
-1.18750446E-4
-9.512334E-4
-6.053668E-4
-0.0012031653
-0.0018790908
-0.002333135
-0.001266254
7.0589804E-4
0.0010618768
3.806383E-4
-0.0015976796
-5.097332E-4
0.0029130157
0.0013859886
0.001073624
0.002261279
-1.069509E-5
7.241097E-4
0.001540551
5.872567E-4
0.0015251639
0.0010402385
0.0011447392
4.5711576E-4
-0.0015921931
-3.63562E-4
4.918725E-4
4.7756915E-4
-8.5769815E-4
-0.0014850317
0.0013418874
4.6994843E-4
3.5003596E-4
-0.001222904
-0.006619617
-7.5645355E-4
-6.8289065E-4
-0.011743442
-0.0055918144
0.005099204
0.0045137936
0.0032614998
0.001550843
-6.100959E-5
-3.0289352E-4
-4.750507E-4
2.8782297E-4
0.0013827691
0.0027687813
0.002569602
0.002336101
0.0023835138
9.74133E-4
0.0013892275
9.991925E-4
3.2196447E-5
0.0015380126
4.7831418E-4
-0.0019216985
-0.001938147
-8.483012E-4
-5.10892E-4
-0.0014033029
-9.781643E-4
-0.0012869496
-0.002779709
-0.0014281293
8.955832E-5
1.1362105E-4
-3.1055424E-5
-8.4344135E-4
-8.4186345E-4
2.8470642E-4
5.5004575E-4
2.8526312E-4
7.996957E-4
6.0450024E-4
-4.107574E-5
9.3534426E-4
0.0015776994
6.5715733E-4
-7.1815867E-4
-8.3802047E-4
5.9625757E-4
4.410594E-4
-9.1636553E-4
-0.0011027965
9.143367E-5
8.47961E-4
-2.600765E-4
6.5403456E-6
-2.7679483E-4
-0.0012914789
0.0014784636
6.4396235E-4
-0.0027079526
-7.877973E-4
2.51017E-4
0.0010034561
0.0030512672
0.0012173227
-5.0414045E-4
-1.18736294E-4
-7.1715045E-4
-7.752778E-4
6.055255E-4
7.826359E-4
-3.6501186E-4
8.7864246E-5
7.631703E-4
9.1732934E-4
0.0014191375
1.0238264E-4
-7.7862974E-4
-1.787759E-4
-4.7407422E-4
-0.0010197931
-0.0015311415
-2.964451E-4
0.0013180109
9.2229113E-4
6.1884394E-4
-3.814537E-4
-7.131928E-4
5.3614876E-5
-3.995837E-4
3.0420311E-5
-4.4605587E-4
-0.0012432019
-6.196119E-4
-0.0016782447
-0.0010991705
-2.3335904E-5
-0.001062414
-8.048713E-4
-0.0014061087
-7.894454E-4
0.0010527293
3.458761E-4
0.0015720285
0.0019781864
6.760831E-4
0.0016145954
5.962008E-4
-1.12463116E-4
7.3043886E-4
2.5099496E-4
8.53614E-4
0.0013985104
0.0015147064
0.0010166359
3.5951237E-4
0.0013788594
5.096635E-6
-0.0012799336
-1.44611E-4
-5.4857734E-5
7.363256E-4
-1.429347E-4
-0.0018231152
-0.0011774293
-0.0015536371
-8.862606E-4
-8.560287E-4
-0.0023116637
-0.0013907928
-0.0022914317
-0.002692661
-5.638136E-4
3.5023264E-4
0.0022958051
0.0024394353
5.8882055E-4
3.835339E-4
2.7661737E-5
8.879833E-4
8.183739E-4
-1.5879012E-4
0.0025152366
0.0032167365
8.0746494E-4
2.1705613E-4
-8.419995E-4
-0.002252624
-0.0012556098
3.0255092E-5
-1.4614669E-4
-7.4634816E-5
2.4929424E-4
8.206689E-4
0.0020277123
9.812615E-4
-4.2107629E-4
-8.236106E-5
-0.0013754916
-0.0021495067
-8.390931E-4
-1.8391815E-4
-1.01688616E-4
-2.7781204E-4
2.1395885E-4
0.0011044969
8.641751E-4
5.4370414E-4
1.7900036E-4
-5.1647006E-4
-7.677849E-4
-6.7016896E-4
-1.256439E-4
5.8370887E-4
-4.3573885E-4
-0.0023772824
-0.0015213564
-6.7289016E-4
-0.0018589407
-6.5682357E-4
7.1117515E-4
5.914619E-4
0.0014138541
0.0016039714
0.0015168838
6.661022E-4
-5.8773556E-4
0.0014217271
0.0037389689
0.0020638616
-4.9877237E-4
6.029423E-4
0.0016347937
1.8056475E-4
3.6073217E-4
-2.605345E-4
-0.0012110686
-3.7252216E-4
-7.2620565E-4
7.4330845E-4
0.0022772548
0.0022869601
8.459856E-4
-0.004287177
-0.0017913015
4.9078185E-4
-0.011069762
-0.012631062
-0.001107202
0.0024907093
0.0021511512
0.0030589802
0.0026495107
0.0015790904
0.0011422137
0.0017704419
0.0011753214
0.0014704334
0.0016669953
-5.7298306E-4
4.2761082E-4
0.0016837774
2.8277363E-4
6.8288593E-4
4.6781672E-4
2.9965275E-4
5.056065E-4
-0.0012196623
-2.0645924E-4
8.35071E-4
-0.0012057719
-0.0011278738
-6.55733E-5
-1.8680269E-4
-0.0013572725
-0.0023387033
-7.641053E-4
3.5174383E-4
0.0010722015
0.0017414081
-6.74327E-5
5.4924586E-4
0.002526466
0.0010449472
3.673049E-4
8.415294E-4
1.564148E-4
4.011652E-4
9.025873E-4
-4.7769613E-4
-9.774521E-4
6.0171535E-4
6.118782E-4
5.240376E-4
-2.0530874E-4
-0.0018721216
5.608626E-4
-0.0034890764
-0.012457926
-0.0061231786
0.0030538808
0.0019887001
0.0020990323
0.002855603
0.0027868666
0.0023524554
-3.673659E-4
9.1675326E-4
0.0017812026
-0.0013977282
8.1169106E-5
0.0026597702
0.0014792009
4.33979E-4
-4.6264936E-4
-0.0016663176
-0.0027347072
-0.0016891991
0.0021903259
0.0032357762
0.0011474888
-1.3736387E-4
-8.3755184E-4
-7.763386E-4
-9.7030605E-4
-0.0016600739
-0.0013560737
-7.973895E-4
2.1164629E-4
0.0010802035
9.4575353E-4
3.2331282E-4
1.6376865E-4
0.001518351
0.0012454431
-1.3774417E-4
4.581475E-4
1.9656571E-4
3.2320336E-4
8.5541105E-4
-2.0347604E-4
6.4783206E-4
0.0012237693
-4.481434E-4
-0.0023522342
-0.0029256372
-2.2927718E-4
1.7501651E-4
-0.0017348515
-1.7465459E-4
8.8280253E-4
4.232532E-4
3.8454484E-5
-5.542445E-4
-6.174122E-4
-0.001006016
8.645218E-4
0.002097697
-4.765673E-4
-8.047854E-5
7.2196097E-4
-8.86085E-4
1.5009523E-4
4.0275033E-4
-2.5707882E-4
0.0015510529
-1.5173863E-4
-0.0042296797
-0.0028341725
4.2002826E-4
8.771733E-4
8.7286177E-4
3.7487622E-4
2.7513434E-4
0.0013523236
6.9320574E-4
5.580882E-4
0.0018181544
8.069676E-4
2.3229644E-4
6.370177E-4
-9.651691E-4
-0.0015178198
4.015189E-5
0.0017870183
0.0027932406
0.001629067
3.784341E-4
1.6814053E-4
-1.8006781E-4
3.718861E-4
3.6816075E-4
-3.5168912E-4
-7.3695526E-5
-3.8051297E-4
-0.0010861438
-0.0018283258
-0.0020299954
-7.3904E-4
-4.7893214E-4
-0.0014011561
-0.002356035
-0.0022144858
-8.450259E-5
6.558403E-5
-7.336827E-4
2.1187612E-5
-0.0012517802
-0.0013326665
0.0013466086
0.0010131369
-2.5747472E-4
3.8468846E-4
9.2190545E-4
0.001203691
0.0010388556
0.0012493427
0.0011292625
-0.0010811051
-0.0012821795
0.00170446
0.00320269
0.0023820077
0.0012366922
3.8927214E-4
-4.3551042E-4
-1.0548088E-4
0.001071372
6.956782E-4
-4.4526838E-4
-0.0021294986
-0.0024525006
2.5718112E-4
3.1210194E-4
-3.4335782E-4
8.550544E-4
-9.764064E-4
-0.0010561894
0.0011651301
3.0778645E-4
-4.972572E-4
-5.0517055E-4
-0.0016153093
-0.0032825458
-0.0014373882
0.001988194
0.0011622476
0.0014124892
-3.718996E-4
-0.0014523136
0.0049461904
-0.0025196932
-0.012817675
-0.0017824195
0.0051304726
0.002315726
0.002734264
0.0014090872
0.0022586077
0.002295787
9.7279786E-5
0.0017254793
8.0250134E-4
-5.552994E-4
0.0011050187
0.0010899759
3.4672383E-4
-1.5134792E-4
1.1617676E-4
-3.001096E-4
-0.001216969
-3.0776067E-4
-7.6290616E-4
-0.0010351666
-8.392755E-5
-6.793347E-4
-2.4904488E-4
-4.68374E-4
-0.0020276506
-0.0013966658
-0.0016167383
-0.0033216937
-0.003699932
-0.002878901
-5.9174775E-4
0.0013703177
0.0020209628
0.0026312952
0.0018330064
0.001004618
0.0017301033
0.0012303817
6.317842E-4
0.0021001545
0.002874185
0.0016506042
0.0016450037
0.0023829588
3.7503047E-4
-2.93741E-4
0.001214826
0.0013115067
0.0024081809
7.2454254E-4
-0.0026233583
-8.5398473E-4
-9.319551E-4
-0.0022234134
-0.0011372877
-0.0032599748
-0.004772179
-0.0041985083
-0.0025255615
7.084496E-4
-3.1472615E-4
-0.0012806277
9.4918045E-4
6.2550604E-4
-4.349347E-4
-8.2418724E-4
-5.6158175E-4
3.1560517E-4
-4.5590064E-6
5.4808124E-4
0.0012615961
3.6196387E-4
-2.838457E-4
6.3982926E-4
0.002241995
0.0015610708
3.065824E-4
0.0015803041
0.003249756
0.0029399472
5.1650754E-4
-8.1835646E-4
-4.36595E-4
-6.904459E-4
-1.882698E-4
3.4813804E-4
4.1277256E-4
0.0013312261
0.0010242607
-3.7111892E-4
-8.6347223E-4
9.78987E-5
2.2376758E-4
-0.0018969892
-0.0017830346
7.856743E-5
-2.3601484E-5
-7.472363E-4
-0.0012339229
-8.821496E-4
-8.621949E-4
-0.0016689401
-0.0010362389
-8.8214804E-4
-8.160226E-4
-1.4864295E-4
-0.0012388815
-7.0952077E-4
0.0010117497
0.0010359824
0.0023333628
0.0031863218
0.0011155346
-0.001440014
-0.0016751656
8.916619E-4
0.0014233065
4.497924E-5
8.38029E-4
5.6397566E-4
-2.5934653E-4
9.177558E-4
-1.541973E-5
-0.0017907183
-7.514153E-4
-3.9764267E-4
-0.0014102776
-8.188929E-4
-3.161642E-4
3.5780127E-4
0.0019280358
3.8845954E-4
-8.519084E-4
2.3110153E-4
-0.0016527472
-0.0017829922
4.6953148E-5
-0.0013782289
9.494046E-4
0.004217255
0.0016379242
5.618543E-4
0.0014340186
0.0015835383
0.002101029
-4.5974864E-4
-0.0026186674
-8.5541315E-4
-3.139143E-4
-5.024224E-4
1.4178976E-4
-6.1322155E-4
3.3424026E-4
0.0021695716
1.0304528E-4
-0.001034159
-2.4866418E-4
-0.0022786167
-0.0024173004
1.8938612E-4
9.430776E-5
-8.767942E-4
-3.3978204E-4
3.210207E-4
-1.6606404E-5
-7.923002E-4
-1.5582978E-4
5.116065E-4
-0.0013034217
-0.0016185784
0.0010112827
-4.498964E-4
-0.002854548
-3.38702E-4
5.982482E-4
4.1166833E-4
8.764007E-4
-0.0013835877
-3.9541486E-4
0.0039047843
0.0043876274
0.0018611555
4.37657E-4
0.001462019
0.0015396585
2.5753936E-4
-5.648877E-4
-6.837474E-4
0.0014907735
0.0027108975
0.0022855666
0.0016478084
-3.6991746E-4
-0.0016509139
-0.0035048486
-0.0029407656
-5.608258E-4
-0.0011728536
0.0021572341
3.7875265E-4
-0.0046224757
0.002655113
-0.0015930663
-0.013123543
-0.0038788295
0.0040389015
0.0016985697
0.002081602
0.0010731325
0.0011871157
0.0017382635
-1.1484207E-4
5.7387864E-4
0.0016585569
0.0013342106
-2.3324798E-4
-0.002472884
-0.0015549717
-1.5909279E-4
-9.277031E-4
8.7727886E-4
0.0024554892
-0.0012625249
-0.0026716962
-1.942035E-4
-5.317277E-5
0.0010745698
0.0029395206
0.0019356876
0.0011695534
6.083676E-4
-6.411546E-4
-5.3419324E-4
5.9991796E-4
0.0014785829
0.0025312786
0.0029586605
0.0023780444
0.0033744287
0.003366494
0.0013247463
7.688488E-4
-0.0012882438
-0.002857469
-0.0017518828
-0.0033247436
-0.005369771
-0.0065157358
-0.0066634426
-0.0026428795
0.0018161056
0.0033880393
0.0015947439
-2.2767928E-4
-5.2788097E-4
-0.004465682
-0.0054275715
-3.9343754E-4
0.001093223
4.8241563E-4
-3.9748967E-4
-0.001301961
0.0014283957
0.0038565237
0.005207122
0.0056546545
0.002799924
0.0029409053
0.0055685327
0.0017204925
-0.004480387
-0.004652416
-0.0014693679
-6.496083E-5
-2.1828168E-4
-4.839882E-4
-3.560558E-4
2.018067E-4
4.574393E-4
9.887209E-4
0.0015075976
2.0328005E-4
-6.5246783E-4
-9.372298E-5
-0.0012893844
-0.002068556
-6.7192945E-4
-0.001214742
-0.002709864
-0.002018691
1.2263304E-4
0.0024489248
0.0017417445
-1.592075E-4
0.00212785
0.004230581
0.0028571482
0.0014022561
-9.984701E-4
-0.0034209485
-0.0013341447
0.0026684464
0.0026108928
-3.6614397E-4
-0.002882594
-0.0051069455
-0.004308554
3.9797957E-4
0.0034897
0.003118942
0.0015120468
6.8114663E-4
1.621587E-4
-0.0028708093
-0.0068301633
-0.008214574
-0.006904211
-0.005186728
-0.0035675396
3.25742E-5
0.0032686123
0.0053718085
0.00806724
0.007457001
0.005650481
0.0061136745
0.0028422074
-0.0037201878
-0.006450163
-0.0048229676
-0.0011834176
0.0043012495
0.0079278005
0.0065673827
0.005063543
0.0031376088
-0.0011412329
-0.00326017
-0.0058806413
-0.008565075
-0.0050530895
9.196784E-4
0.0040445053
0.0012370773
-0.005516887
-0.008331089
-0.007221309
-0.0042611132
-1.2819844E-4
4.3061035E-4
-6.448606E-7
0.003753259
0.0045588086
-9.774687E-5
0.0012856653
0.0069432748
0.006656296
0.007223194
0.008349814
3.8169618E-4
-0.007976683
-0.008555644
-0.0045192703
-4.2806435E-4
-0.0010887928
-0.0027157725
-0.0021180823
-0.0023072727
-0.003148615
-0.0044306586
-0.0040014395
-0.0032391741
-0.0032411183
0.0012740301
0.002378985
-0.003131131
-0.004219132
-0.004020498
-0.004807678
-0.0022672552
9.6290687E-4
0.0049851304
0.0084667755
0.009489183
0.010687305
0.014495211
0.02210163
0.026108587
0.019949067
0.009838691
0.0019655295
-0.0067339255
-0.019449169
-0.027984949
-0.029309276
-0.031536076
-0.030167943
-0.01980083
-0.010813557
-0.008849403
-0.0060064686
-4.1167837E-4
0.002386776
0.005395429
0.0077176676
0.011975944
0.026749928
0.03083197
0.022457886
0.032772463
0.04525133
0.035558436
0.013865553
-0.010025054
-0.021102445
-0.016824232
-0.009130405
0.0028285333
0.015183627
0.014793186
0.0010711286
-0.0043341196
0.0051659737
0.009945908
0.012633127
0.016112832
0.0058801854
-0.019632926
-0.054668844
-0.080046035
-0.078690946
-0.057864197
-0.033237636
-0.014068807
0.013635071
0.0489121
0.06399917
0.057601057
0.04548656
0.040267505
0.030333674
-0.012668241
-0.07110013
-0.106098495
-0.11014575
-0.106677674
-0.11572179
-0.11342921
-0.06483029
0.036865152
0.14237972
0.18486881
0.19373919
0.19813684
0.1515137
0.08914837
0.061633427
0.008102069
-0.08302524
-0.14109427
-0.143893
-0.09380199
-0.0053644152
0.08216952
0.15522903
0.19012612
0.16853344
0.10060512
-0.016156375
-0.1150282
-0.17437062
-0.27484527
-0.3247795
-0.2379569
-0.11587692
0.009166753
0.0900892
0.059300683
0.02382499
0.04652577
0.039294906
-0.026206348
-0.05878302
-0.021872824
0.017474372
0.054205284
0.089049995
0.09921672
0.12914054
0.1643802
0.15450302
0.07536819
-0.06586702
-0.13778214
-0.09224005
-0.03845455
-0.014039751
-2.1540187E-4
0.026776941
0.07004842
0.08888278
0.062089514
0.0027948178
-0.036379367
-0.050944295
-0.0779439
-0.089656405
-0.087046884
-0.074059725
-0.031567544
-0.006609213
-0.017660562
-0.04478938
-0.044145476
0.030010179
0.09241184
0.07970893
0.056027368
0.04097039
0.015382588
0.008620047
0.04496374
0.063850105
0.0068538412
-0.07087293
-0.10759933
-0.101334535
-0.06168016
-0.0034560296
0.053029172
0.08451588
0.0928582
0.08756715
0.06774701
0.042145308
-0.01828062
-0.10812361
-0.13325027
-0.080159746
-0.03197233
-0.026314396
-0.03050609
-0.009311209
0.015561753
0.020801337
0.027359808
0.034403395
0.0289363
0.033039678
0.04585552
0.030380497
-0.0038779627
-0.01443523
-0.0037404587
0.0016153224
-0.0051077767
-0.016503444
-0.02031213
-0.010488112
0.002743855
0.008045484
0.0086770635
0.008452995
0.00674371
0.0059136297
0.0042853104
9.1188215E-4
-5.1144423E-4
-8.188995E-4
-0.0030815674
-0.006228991
-0.0074207755
-0.006428807
-0.0029823678
0.0013966392
0.0011374474
6.326106E-5
0.00421019
0.0073944107
0.006099993
0.0045397026
0.0035955322
7.4297085E-4
-0.0028607738
-0.0037859918
-0.0032521957
-0.0036402924
-0.005118912
-0.0050879903
-0.0019061646
-0.0015934696
-0.0052622873
-0.0054773437
-0.0018728818
8.0739846E-4
0.002578478
0.0059744357
0.008702693
0.0077418564
0.0055425772
0.0037708979
5.3071155E-4
-0.0049896915
-0.0068307226
-0.003519298
-0.003046654
-0.0029925872
-0.0013669471
-0.0011324645
2.3313648E-4
-0.0024703932
-0.0020821516
0.0042218403
-0.0039361105
-0.010731797
-8.7436655E-4
0.002668305
0.0013990024
0.002609832
0.001779392
0.0039352654
0.0047429423
0.004948286
0.009488253
0.011489377
0.009250673
0.0023716704
-0.004494655
-0.005322345
-0.005740733
-0.0053211474
-0.0032117509
-0.0032042055
-0.0023758905
-8.0206746E-4
-2.1059516E-4
-1.8005756E-4
-0.0011388797
-0.0014643115
-0.0013042653
-0.0012747537
-0.0015764929
-0.003923306
-0.0062114815
-0.0058650756
-0.0038445352
-9.191138E-4
0.0027858228
0.0062648393
0.0068909517
0.004364606
0.0028161567
0.004519676
0.006331508
0.003721358
-0.0024134123
-0.0067454185
-0.006105286
-3.4660596E-4
0.00706761
0.01168003
0.011856805
0.0074975365
0.0026701903
-0.0013685082
-0.008954721
-0.015034869
-0.01454031
-0.011723096
-0.006490658
-8.7086007E-4
-0.0013542575
-0.004807062
-0.004042402
0.0011531393
0.005145187
0.0035400572
-0.0021582823
-0.004809005
-2.617917E-4
0.0044264365
0.0051337564
0.005537148
0.0065424796
0.007847529
0.006825202
0.0039589754
0.0022299944
-6.312861E-4
-2.2599E-4
0.0025849382
5.732785E-4
0.0025206364
0.006427481
0.0021212196
-4.4885257E-4
-3.2127526E-4
-0.00362512
-0.0038873274
-0.0039964793
-0.00879729
-0.011382458
-0.010236931
-0.008418854
-0.005483305
-0.0022992888
-1.2394138E-4
0.0011736841
0.0023239693
0.004384831
0.005330506
0.004400779
0.0041028806
0.0024050546
-0.0013989192
-0.0030218891
-0.0017542016
4.3115698E-4
0.0017547942
0.0026167808
0.0035450654
0.002239128
7.821792E-4
0.0020668001
0.00463309
0.0070277164
0.0067311637
0.0039413525
9.92256E-4
-0.002410757
-0.0050752615
-0.0057221763
-0.00498631
-0.0042450624
-0.0039460403
-0.0026175813
-0.0016171169
-0.0015222128
-5.393592E-4
6.141402E-4
0.0013921083
6.2176085E-4
-0.0012402954
-0.0016093935
-0.0015068862
-7.1522815E-4
4.385114E-4
8.2664355E-4
0.0027389158
0.0034035011
0.0015505928
0.0019707787
0.003111677
0.0012589453
-9.4772776E-4
2.6325652E-4
4.1100988E-4
-0.0035307112
-0.0032321033
-5.1613628E-5
-0.0012014172
-0.0020582343
-0.002027991
-0.0020528713
-1.9786125E-5
6.6602355E-5
-7.161189E-4
-7.332659E-4
-0.0019924652
-0.0021889468
-0.0018858699
-1.5283265E-4
0.003629162
0.0057535386
0.0074797976
0.007123668
0.0041893506
0.0030795927
0.0011687643
-6.0118764E-4
4.1398892E-4
-4.124889E-4
-0.0027880548
-0.0030860591
-0.0023412777
-0.0026261855
-0.0027366937
-0.0016903951
-8.5092505E-4
-1.8904293E-4
-5.5003224E-4
-0.0016122829
-0.0022308207
-0.0028987653
-0.0013846451
-1.0974214E-4
-0.0016184747
-0.0010689466
0.0010044277
0.0018168769
0.0020249565
0.0022069216
0.0028150452
0.0021303087
0.0012075893
0.0022847422
0.0024190648
7.814935E-4
2.3085185E-4
-7.5006706E-4
-0.0024557651
-8.7909444E-5
0.0018404921
6.844478E-4
7.015805E-4
-0.0038316755
-0.0038132777
0.0037810176
-0.0044179996
-0.01195987
-3.7221666E-4
0.0037438734
5.00583E-4
0.0034285446
0.003957203
0.0030993319
0.0030970697
5.8082293E-4
-0.0014649758
-7.514772E-4
-2.1969658E-4
-0.0016109102
-0.0019719328
-0.0018250266
-0.001208173
6.237861E-4
-3.8055461E-4
-0.0011404057
3.9841843E-4
8.053692E-4
0.0013689017
4.4933354E-4
-5.483612E-4
4.98802E-4
-8.511334E-4
-0.0016343114
-0.0012445917
-0.0018218412
0.001418224
0.0035369063
0.0013201548
0.0010116887
9.7214547E-4
0.0014234299
0.0033401214
0.002403867
0.001464198
0.0016062465
4.782369E-5
-0.0010695894
-0.0014636851
-0.0018773748
-0.0019657584
-0.0018321633
-0.0021214187
-0.0025262167
-6.2823686E-4
-2.4126207E-4
-0.0017580792
-5.6888734E-4
-0.0027755292
-0.0051722657
-1.0654894E-4
0.0029971057
0.001623687
8.140741E-5
-0.0013696203
-6.163354E-4
1.7270984E-4
8.842159E-4
0.002066296
0.0014411571
0.002035252
0.003166922
0.0024519875
0.0011710838
-4.0281523E-4
-1.538672E-4
0.0010480518
5.3733017E-4
3.0504416E-5
5.3352857E-4
6.420635E-4
-5.0274597E-4
-0.0011670253
-0.0017338973
-0.003001801
-0.0019821776
-8.011047E-4
-0.0010274486
2.5606406E-4
0.0010562359
4.8441652E-4
-1.8777735E-4
-4.4283448E-4
6.948743E-4
0.0012777124
7.9858874E-4
-6.426823E-4
-0.0020541346
-4.9607155E-5
0.0014707359
6.278654E-4
0.0010555919
3.694803E-4
-2.360116E-4
0.0014449273
0.0015677495
0.0012637397
9.898158E-4
-0.0011903216
-0.0016188716
-9.668054E-4
-0.0022702701
-0.0013505868
0.0015059747
8.2096306E-4
-0.0012526036
-0.0011707032
-4.4616283E-4
9.013495E-5
8.5365196E-4
0.0012990505
2.4766315E-4
-5.343446E-4
8.092229E-4
2.5357323E-4
-0.0021357706
-0.001773618
-0.0011336749
-0.0014100317
6.778242E-4
0.0026857597
0.0014183916
4.5727033E-5
8.209106E-4
9.473571E-4
-3.0986575E-4
-0.0011116272
-0.0015837916
-0.0011270333
0.0012757281
0.0034638578
0.0023675014
-8.325644E-4
-0.0019136806
-8.924307E-4
-8.501345E-5
5.8737927E-4
9.1106433E-4
9.2507334E-4
9.839719E-4
3.3015804E-4
-4.5538144E-4
-1.2831985E-4
6.877764E-4
0.0010079556
7.6460314E-4
1.975377E-6
6.400542E-5
4.884044E-4
-0.0013149007
-0.0028168766
-0.001723815
-3.6013074E-4
9.6464995E-4
0.0010164278
-0.001438587
-0.0023954364
-5.2967557E-4
7.3675957E-4
3.8352443E-4
-8.304636E-5
-1.6842486E-4
-6.8682386E-4
-8.861015E-4
1.7580665E-4
2.666342E-4
-5.928837E-4
-1.2806583E-4
1.0209003E-4
-5.3696378E-5
1.1627983E-4
-9.06748E-4
-0.0013183608
-5.332019E-4
5.052886E-4
0.0023430104
0.0022180895
3.399903E-4
4.4137816E-4
0.0012632966
5.524194E-4
3.2625554E-4
0.0019625078
0.0020711792
6.9680845E-4
8.069485E-4
5.837927E-4
-2.5832313E-4
-2.1767519E-4
9.1082323E-4
0.0012871749
-5.4317975E-4
-0.0010825841
-0.002016239
-0.0029169375
2.008046E-4
0.0013356631
5.434208E-4
-0.0015890939
-0.003031271
0.003019804
-8.489969E-4
-0.012540991
-0.0066964566
0.0018793094
0.0013594718
0.0018927193
0.0021545638
0.0034735359
0.0036470338
8.981686E-4
4.0727117E-4
5.464935E-5
5.563574E-4
9.0791594E-4
-8.831624E-4
-4.2802116E-4
5.640806E-4
0.001208905
0.0019145565
2.545927E-4
-0.0010385202
-1.9682584E-4
0.0011359655
0.0010866795
-1.3213609E-4
-5.199904E-4
-0.0011281752
-0.0018781684
-0.0021866404
-0.0016185252
9.73528E-4
0.001449402
1.2355455E-4
0.0012818456
7.2313816E-4
-0.0011379975
-2.164533E-4
2.1614673E-4
7.45485E-4
0.001334761
-5.4962846E-4
-2.1465379E-4
0.0010724984
-1.7186578E-5
3.3345562E-4
5.999319E-4
-3.1325046E-4
-8.234811E-4
-0.0016615454
-0.0012901942
-5.338056E-4
2.6394945E-4
7.8207505E-4
-0.0016118395
-0.0018699557
0.0010637001
5.0674396E-4
-0.0016157228
-9.7454106E-4
3.9197368E-4
6.589191E-4
0.001355441
0.0011225335
-8.319073E-4
-3.3960273E-4
6.839721E-4
5.8610446E-4
0.0017129248
4.9771095E-4
-0.0014097026
4.962685E-4
0.0013203205
-6.885586E-4
-8.2016096E-4
4.28142E-4
6.040043E-4
0.0014102667
0.0010683426
-0.0011456988
-8.1199466E-4
-3.6304843E-4
-5.488434E-4
8.259871E-4
4.3783005E-4
4.451234E-4
0.0012460628
1.227072E-4
-1.0664983E-5
-9.794479E-5
-5.528313E-4
-0.0010002161
-0.0018880155
-4.1256612E-4
-6.254237E-5
-9.851886E-4
5.426778E-4
7.847427E-4
6.000309E-4
9.67373E-4
4.895651E-4
5.6786655E-4
-9.600049E-4
-0.0016369948
-1.9373419E-4
-7.0767134E-4
-2.918006E-4
7.262672E-4
7.503606E-5
-2.3838367E-5
-8.994122E-4
-9.334362E-4
7.8420964E-4
3.8511062E-4
-9.4664225E-5
0.0011135587
0.0019657412
0.001924454
4.071054E-4
-8.619815E-4
-6.7582726E-4
-0.0016118983
-0.0025396922
-8.098068E-4
0.0011447343
0.0014156225
0.0013698749
0.0013548079
8.655721E-4
4.7320835E-4
6.1934587E-4
2.0147311E-4
-0.0011014942
-0.0013021115
-5.1984953E-4
-4.954334E-4
8.394257E-5
9.5635233E-4
-1.9592344E-5
-4.6161143E-4
8.690515E-4
7.3738385E-4
-7.8191806E-4
-9.3789434E-4
-5.709484E-4
-6.078031E-4
6.0176925E-4
6.6508626E-4
-0.0020431327
-0.0022653372
-1.6839479E-4
2.4251988E-4
6.730961E-4
0.0010903605
6.478804E-4
-3.167255E-4
-0.0015069974
-7.1612105E-4
-2.1169602E-4
-3.2216168E-4
0.0017460401
0.002018579
0.001263214
0.002210169
0.001703387
0.0010256699
9.101811E-4
4.7883578E-4
0.0010476668
4.8550373E-4
-7.798842E-4
-7.009414E-4
-0.0017195407
-0.0030773159
-0.0023208621
-9.866003E-4
-5.282724E-4
-0.0017734536
-0.003101221
-0.0012852364
-1.4795811E-4
-0.0010079333
1.1982871E-4
-5.4177624E-4
-0.0015065481
0.0016825201
0.0030219376
0.002773677
0.0031417434
0.0021921392
0.0019078325
0.0012911621
0.0014680937
0.0028314812
8.037828E-4
-0.0012124412
5.519293E-5
8.562179E-4
-1.872268E-4
6.481135E-4
0.0019408206
3.0211531E-5
7.991849E-4
-3.5986095E-4
-0.0048624827
-4.6385435E-4
-0.0025501603
-0.01330043
-0.007771508
0.0015899643
0.0014142913
0.0018294156
0.0017039572
0.0011052839
0.0010063014
6.8429387E-7
9.780462E-4
0.0016657592
8.7789755E-4
5.164457E-4
7.8095426E-4
0.0018088715
0.002262166
9.053375E-4
-8.375301E-4
4.2354278E-4
0.0023023318
0.001042402
6.289E-5
3.7311416E-4
0.0010180459
0.001959722
9.327246E-4
-0.0015611791
-0.0027198151
-0.0019236496
-0.001400891
-6.481606E-4
6.421234E-4
-2.3153404E-4
-1.3490516E-5
0.0010734738
2.9194527E-4
2.5423703E-4
-7.604588E-5
4.0512902E-4
1.6791117E-4
-0.0020920194
-6.180807E-4
-3.5680376E-4
-0.001262392
0.0010741748
3.1420914E-4
-3.9529588E-4
3.7860466E-4
3.345825E-5
7.1400794E-4
-6.2138E-4
-4.8555614E-4
2.1910151E-4
-0.0025217035
-0.0010516664
0.0014893494
0.0010813678
9.708883E-4
-6.343019E-4
-0.0012247156
3.0199613E-4
0.0011796153
8.555796E-4
9.854254E-4
0.002142327
4.686026E-4
2.3120092E-4
0.002613717
3.2451522E-4
-0.0017148528
-0.0011561789
-0.0013492315
-0.0010639672
-9.792084E-4
-5.9802787E-5
-1.8987461E-4
-5.839591E-4
0.0014389461
2.5858919E-5
-7.257569E-4
0.0015063693
-3.1485772E-4
-0.0016602763
-0.0014355251
-0.0017423603
4.777673E-7
4.937087E-4
2.7949827E-5
1.0817131E-4
-2.3120761E-4
0.0013783863
0.0026720949
0.0016290132
4.897481E-4
-1.2454056E-4
1.326337E-4
5.119182E-4
6.174845E-4
0.0010119652
9.4058766E-4
6.380913E-4
8.178945E-4
0.0011443935
8.7550003E-4
-3.5728033E-5
-0.0013111429
-0.0026758118
-0.002624192
-0.001372067
-0.0010345472
-0.0016278812
-0.0015400412
-6.466108E-4
-5.1626825E-4
-3.122425E-4
5.038092E-4
1.7926643E-4
3.9757942E-4
0.001195916
3.5326774E-4
-4.064315E-5
-2.843891E-4
-8.584944E-4
7.4388226E-4
0.001605206
1.1918128E-4
-1.8684586E-5
7.792486E-4
4.0626028E-4
3.657579E-4
0.001473868
0.0021245077
0.0014680667
-3.9193244E-4
-0.0014023107
-4.6119632E-4
-5.45041E-4
-5.6713365E-4
2.6156986E-4
-9.600401E-4
-1.4367458E-4
0.0023880494
0.0014458034
5.1110145E-4
1.1032767E-4
-0.0011474991
-8.3672616E-4
-4.992833E-5
-2.5333857E-4
-0.001461391
-4.2262694E-4
0.0023841353
9.82511E-4
-7.4740616E-5
8.764471E-4
-0.0010560695
-0.0013066864
-1.7168804E-4
-0.0011163276
-0.0010122738
-5.1664613E-4
-7.167129E-4
-6.124193E-4
-3.759144E-4
-3.9672208E-4
-4.9937965E-4
0.0014240269
0.0029138906
9.74862E-5
-0.0027351428
-0.002278471
-0.0011480028
-2.7157692E-4
0.0010458587
0.0017396107
5.6411105E-4
-0.001198819
-0.0012650458
-0.0010696871
-0.0017857208
-5.475826E-4
0.0014231899
0.002075445
0.0024622777
0.0017485619
0.002757298
0.0044634165
0.002106633
0.001101724
0.0010343621
-0.001959529
-0.0018626407
2.4090697E-4
1.02666396E-4
-1.894507E-6
0.0010022623
0.001101352
-5.120492E-4
-5.35357E-4
4.875168E-4
0.0015621536
9.115705E-4
-0.0047845487
-0.0030336643
0.0016011959
-0.009381573
-0.013653374
-0.0014254568
0.0026823909
0.001661819
0.0034949647
0.0022351122
7.969458E-4
2.459389E-4
4.5552684E-4
0.0019274922
0.0013962677
0.0010836049
0.0017833102
4.149392E-4
5.117911E-4
0.0027750477
0.0021358232
8.070771E-4
0.0011725595