-0.0010828672
-0.0012235059
9.830869E-6
6.9209875E-4
7.4763753E-4
1.6627646E-4
-7.8985817E-4
-0.0018811452
-0.002060999
-1.5421392E-5
3.5449816E-4
-5.7200546E-4
-1.5765926E-4
-0.0011888049
-0.0012884396
2.922267E-4
0.00132565
0.0023208174
0.0021238483
0.0025611422
9.2535536E-4
-0.0016963342
-1.9766352E-5
-0.0045477566
-0.00807279
0.0015472986
0.0048896614
5.8889337E-4
0.0011020781
0.0010714432
9.966764E-4
7.826952E-4
-7.4611313E-4
-6.1812886E-4
-0.0021052202
-0.001376401
0.0020072544
-1.4067075E-4
-0.0019202839
0.0022075798
0.0036252127
-2.506554E-4
-0.0016127784
-9.402075E-4
-0.0022362014
-0.0012972343
2.7984276E-4
4.789828E-4
0.0018355768
-4.6742723E-5
-0.0013808127
0.0019349775
0.0016383737
-3.7634227E-4
-2.2006393E-4
-1.3992489E-4
8.465898E-4
4.5842098E-4
3.0846387E-4
0.0012243168
-0.0011609477
-0.002398126
-0.0015256605
-0.0010548861
2.4224831E-4
-1.8021087E-4
5.838408E-4
0.0021720997
-9.8664685E-5
-6.901195E-4
2.0906373E-4
-5.255123E-4
-2.3419183E-4
1.0404603E-4
3.8709273E-4
2.2600271E-4
1.7783586E-5
8.3205395E-4
-2.857377E-4
-0.0017039314
-0.0010157377
0.001574272
0.0028737357
3.3988073E-4
8.536903E-4
0.0013964451
-0.0020259065
-6.9133705E-4
2.8886102E-4
-0.0017310248
-1.0488277E-4
5.5898377E-4
2.3659051E-4
-5.2235224E-5
-0.0017707475
-9.044684E-4
3.791373E-5
-7.655665E-4
-0.0011650444
-0.0014612812
-0.0010505357
-7.307093E-4
9.7033277E-4
0.0037284445
0.0033982473
0.0026166565
0.0034522181
0.0029654803
1.9525267E-4
-0.0015638327
-1.0582375E-4
-1.15043185E-5
-0.0012008323
-9.058235E-4
-0.002316878
-0.002634771
7.8618143E-7
5.309257E-4
4.354885E-6
-2.2389703E-4
-0.0011536448
-9.362727E-4
-3.8053535E-4
-0.0010191174
-0.0018124327
-0.0019078334
-7.821984E-4
-4.8677434E-4
-0.0015708519
-1.2990464E-4
0.002042412
0.0015980361
0.0010961789
0.0014838055
0.0021125756
0.001810488
0.0011593823
0.0022278419
0.0016993566
0.0010737113
0.0029041597
0.0012829624
-0.0022620445
-0.003066942
-0.0022744476
-0.0014290328
-0.002496697
-0.0016697661
0.001867073
0.0011426175
-0.0016448346
-0.0021537861
-0.0028216168
-0.0020969945
0.0019205539
0.0030710227
7.848285E-4
0.0016556742
0.0018426507
-6.376965E-4
-8.924699E-4
-0.0010283943
-6.071895E-5
0.0024280716
0.002569311
8.6892355E-4
-9.551618E-4
0.001413897
0.003145592
-2.2139761E-4
-7.637109E-4
-0.0027071575
-0.0043906136
2.8214557E-4
2.1962522E-4
-7.6630805E-4
-0.00113582
-0.00762477
-0.005536451
0.0022877485
0.0022779147
0.0017488758
0.0018798065
0.0018720732
0.002688296
0.0013890958
0.0025274404
0.0035719918
5.4256816E-4
-0.0013798627
-0.0020122093
-9.350481E-4
3.7381263E-4
-4.7031723E-4
6.503059E-4
0.0012214949
-9.526446E-5
-5.7189417E-4
-0.0015935134
-8.3825033E-4
-6.364231E-4
-0.0024682204
-0.0017949567
-0.0022593415
-0.0027773816
-7.4343494E-4
-6.173197E-4
2.2220182E-4
0.002276042
0.0025611727
0.0024873498
0.002492849
0.0029402582
0.0019699447
-1.5225305E-4
-4.3465875E-4
-5.013163E-4
5.7445523E-5
0.0015810817
0.0014038987
0.0011110457
0.0015083132
-1.8457981E-4
-0.0010925883
8.859874E-4
-6.408363E-4
-0.0015512874
7.7133445E-4
-0.005764501
-0.0095338505
-4.4845257E-4
0.0013829839
-0.0018160925
0.001529077
0.002618349
0.001367177
7.966672E-4
-0.0013556378
-0.0021004996
-8.444468E-4
-1.1153478E-6
5.8184925E-4
5.8761693E-4
-3.8039288E-4
0.0010301837
0.0035870501
0.0028790275
0.0014378801
1.18825745E-4
1.507193E-4
0.0024331482
0.0011616332
-0.0012003258
-0.0011494794
-0.0014063255
-0.0010492264
-9.6247677E-4
-2.4550269E-5
0.0020643694
5.546438E-4
-0.0013598368
-1.5162649E-4
0.0012391206
0.0010730174
-1.0512308E-4
-8.2184334E-4
-9.334108E-4
-3.0430083E-4
-3.325243E-5
-0.0016004987
-0.0030039388
-0.0024347506
-8.5465505E-4
-0.0016208338
-0.0021098163
0.0013097784
0.0027783124
0.0033604598
0.0042005447
4.229358E-4
-7.392085E-4
5.2351307E-4
-0.0021649112
-0.0020706626
-5.298135E-6
1.4310524E-4
0.001144961
6.00293E-4
-2.9692543E-4
0.0013294744
0.0015961292
0.0011499916
0.0027399056
0.0029985928
0.001808519
0.0019020151
3.3236126E-4
-0.0033615641
-0.0054165106
-0.0044270973
-9.069757E-4
-2.319896E-4
-0.0026499077
-6.476254E-4
0.0018738481
-1.8081165E-4
-0.001337307
-4.3510314E-4
7.374702E-5
-2.9346826E-5
-3.4049232E-4
3.2885466E-4
9.0978196E-4
-1.4037918E-4
-5.070534E-4
0.0015243859
0.0023280473
5.313833E-4
-9.575498E-5
3.0991266E-4
1.5137107E-4
-3.6797582E-4
-6.281256E-4
7.993231E-4
0.0015529854
7.3354563E-4
5.200944E-4
4.6576752E-4
3.1110906E-4
-0.0012645436
-0.0018239882
-6.3511085E-5
-0.00163662
-0.002178643
9.254841E-4
8.5860444E-4
-3.9974242E-5
1.369898E-4
-6.9520305E-5
4.832513E-4
6.8711746E-4
0.0010632994
0.0012052458
3.9193637E-5
-6.471853E-4
5.975822E-4
0.0026824872
0.0014023707
-6.86441E-4
-6.401512E-4
-0.0022343064
-0.0026732415
-0.002247806
-0.0035776165
-0.0023813278
-0.0012617817
-6.094251E-4
0.0022176686
0.0026819813
0.0015840073
5.173065E-4
-4.4679074E-4
7.85159E-4
6.209867E-4
-3.2318634E-4
9.692495E-4
0.0014233235
0.0021431928
0.0032345282
0.0019507143
4.5898647E-4
-6.512074E-4
-3.300065E-4
0.0016267032
0.0011625042
-4.0687984E-4
-0.0032736433
-0.005807268
-0.0014390065
0.0011140588
-2.3430158E-4
0.0015519299
-0.004119546
-0.009141454
-9.862494E-4
0.0015255746
-0.0015115822
0.0013471369
0.002612915
0.002099462
8.8501803E-4
-5.0413582E-5
0.0027320758
0.0036485144
0.002623484
0.0012402071
-3.0185745E-4
0.0011665063
3.437245E-4
-0.0020387152
-2.4989708E-5
0.001195615
-3.0278426E-4
-7.4067974E-4
5.791026E-4
0.0012380693
-2.5427758E-4
-5.2627583E-4
-2.3245424E-4
-0.0017866879
-0.0014449974
1.0915456E-4
-0.0014203003
-0.0024700388
-5.0185487E-4
-2.9464613E-4
-8.4723934E-4
0.0010156576
0.0015660644
0.0010844852
0.0019635665
0.0016870241
9.789929E-4
0.0014935193
6.0059613E-4
-6.893147E-4
-1.0485127E-4
-0.0020365187
-0.0045586037
-0.002619125
-0.0030099838
-0.0040637366
-7.0634815E-6
0.0011365397
0.0010816178
0.0039538257
0.0028912537
1.778032E-6
-3.8093884E-4
6.217782E-4
0.0015956404
9.628961E-4
3.5239264E-4
4.411964E-5
5.4667756E-4
0.0020895263
0.0012566469
-4.6300114E-4
-8.229782E-4
-1.0403747E-4
3.6513244E-4
-9.95613E-4
-5.876886E-5
0.0016826672
-3.5508676E-4
-0.0011570365
-5.436057E-5
-9.89345E-4
-0.0025632386
-0.0026340992
-0.0025002523
-0.0029234579
-0.0010220874
4.96444E-4
2.1918562E-4
0.002569232
0.0030284282
0.0013493833
0.0028974405
0.0029747284
0.0012536016
0.0012749453
0.0013930951
0.0013009894
1.0364578E-4
-0.0014028919
-0.0010367611
-0.0010853551
-0.002152123
-0.00232694
-0.0016628505
-3.741631E-4
5.123658E-4
-3.1532682E-4
-6.6660624E-4
-1.7146803E-4
-0.0011816381
-0.0010726493
-2.7765404E-4
-0.0020127774
-0.0017250514
1.1674256E-4
-7.8662945E-4
-3.8759926E-4
0.0017834511
0.0025235473
0.0024407627
0.0017361263
0.0019515362
0.0031666833
0.0017928244
-7.985344E-4
-4.2044936E-4
4.3129918E-4
-6.727342E-4
-3.3758162E-4
-6.408498E-4
-0.0026198616
-3.1633134E-4
0.002391765
0.0016325807
7.5356115E-4
-0.0012570765
-0.0021812713
-0.0022881876
-0.0030443687
2.2210593E-4
0.0011775412
-0.0017254691
1.7723722E-4
0.0022234397
0.0017791545
0.0013454863
-4.966366E-4
-0.0011593152
-6.7723315E-4
2.8129798E-4
0.001490997
4.7462434E-4
6.763334E-4
0.001986887
6.480698E-4
-7.018493E-4
-0.0010967723
-0.0018517807
-0.0021757109
-0.0018605364
-0.0012947601
-1.8081002E-4
0.0011635323
0.0012634997
1.894979E-4
-0.0012186901
-0.0020771294
-8.2033547E-4
9.890919E-4
7.6224044E-4
1.1456407E-4
0.0014258351
0.001982186
4.9840123E-4
0.0018030684
0.0033761493
-2.6764365E-5
-0.002365237
-0.0010705808
-4.4758315E-4
7.6200126E-4
0.002210111
0.0013672962
0.0012312963
0.00166476
-3.2551293E-4
-9.904443E-4
-6.009028E-4
-0.0039476124
-0.0050673336
-0.0010606289
6.0818903E-4
3.581212E-4
5.9892534E-4
-6.147418E-4
-6.7170744E-4
0.0010172591
0.0020386092
0.00100244
-0.0024895505
-0.0022720657
0.0010794065
3.296989E-4
-6.7547575E-4
-0.0019399963
-0.0028162145
0.0023668269
0.0034140754
0.0016507971
0.005211296
0.0015186887
-0.00502735
-0.0035137776
-0.0017639339
7.848267E-4
0.0038679386
0.002268844
3.1414023E-4
-1.2439137E-4
-0.001021576
-0.0019821592
-0.0014859914
-5.4466515E-4
-5.9264705E-5
0.0015446275
0.0023834268
0.0026230875
0.0027068965
0.0018198055
0.0020927656
-4.426167E-4
-0.004494069
-0.003567644
-0.001580937
-4.014815E-4
-6.2818674E-4
-0.002201519
-8.9151826E-4
-7.71152E-5
-0.0010561921
-9.691144E-4
-1.8534643E-4
0.0010780857
9.689751E-6
-0.0010931292
3.8057598E-4
-1.758045E-4
-5.6530983E-4
0.0011404499
0.0015812309
9.67597E-4
-6.794915E-5
2.3198388E-4
0.0015285084
0.0013488657
0.0014769306
0.0017865436
0.0011571542
3.7712042E-4
-0.0014918217
-0.0028736861
-0.0014615698
4.7213363E-4
4.8304838E-4
-3.4380547E-4
7.145221E-5
4.3861908E-4
-8.858328E-4
-0.0010419359
2.2395825E-4
-1.978687E-4
-1.0352292E-4
0.0014153823
0.0017083959
0.002137225
0.0018269389
-6.517787E-5
-3.2454816E-4
-4.3299602E-4
-4.7971323E-4
0.0011598695
9.0598344E-4
-5.0582585E-4
-9.801984E-4
-0.0014879016
-0.0010632139
-9.6975657E-4
-0.0011971506
-0.0011059125
-0.002646495
-0.0025920596
-4.321324E-4
-7.745005E-4
-0.0016321964
-4.6467886E-4
7.079106E-4
0.001530051
0.0021058111
6.895682E-4
-1.4804733E-4
0.0021395138
0.0018659446
-8.0686907E-4
-7.732724E-4
-0.0011869745
-0.0014071461
0.001588378
0.0039037403
0.0033767554
0.002786463
0.0046660486
0.004337643
6.432442E-5
-0.0024315466
-0.0051114415
-0.00702621
-0.004033782
-0.0013419815
3.5271642E-4
0.00195266
0.0021112761
0.003480084
0.0041181343
0.0025566977
3.63889E-4
-0.0025032018
-0.003674274
-0.0034515886
-0.0025106366
8.178091E-5
3.9536785E-4
-0.0017409904
-0.0020446503
-0.001049022
4.658974E-5
6.714927E-4
-7.120899E-4
-0.0025239969
-0.0025377225
1.7637176E-4
0.004061321
0.0037389088
0.0015849271
0.002023319
4.4123796E-4
-6.1455305E-4
0.0012123619
-8.777412E-4
-0.0039777434
-0.0039961226
-0.0020427036
0.0029007718
0.00698833
0.00822502
0.0070205275
0.002317444
2.1747257E-5
1.691346E-4
-0.0033770173
-0.0057250285
-0.004132574
-0.0040951828
-0.004196726
-0.0013619959
3.9184204E-4
-1.6494874E-4
-4.0113664E-4
-0.001210044
-0.0014669113
8.9324184E-4
0.002185105
0.0010567192
7.742099E-4
0.0015386494
0.0017673585
0.0015018691
-3.8980477E-4
-0.0034766323
-0.0028924579
-4.6673245E-4
-0.0014729801
-0.0017040679
6.3937646E-4
0.0019288992
0.0032145719
0.003899575
0.0016717474
-5.1794454E-5
0.001999169
0.0029994387
-2.8773278E-4
-0.002539957
-0.0030677977
-0.0031872434
-6.4857793E-4
7.747214E-4
-5.19469E-4
-6.8494206E-4
1.7974761E-4
8.2523323E-4
0.0017100462
0.0047309655
0.007032963
0.002727305
-0.003759293
-0.0047950856
-0.0015643549
2.947181E-4
-4.1536076E-4
-0.002267104
-0.0054437467
-0.0049713827
-7.0495857E-4
0.0015317131
0.0038314888
0.0015038573
-0.0049305526
-0.0021185416
0.0020983499
9.795602E-4
0.0041354857
0.0057025906
0.0012706618
-0.0011846052
-0.0020519057
-0.0036612945
-0.0038637638
-0.002195924
3.3579918E-4
0.0031278862
0.004109921
0.0015366443
-0.0019371042
-0.0029713733
-1.3366232E-4
0.0029106438
0.0013411223
-5.0891173E-4
-4.7877294E-4
-0.0017492814
-0.002346408
-0.0011561828
0.0010058852
0.0017743453
-4.518931E-4
3.723117E-4
0.004541481
0.005198222
0.002442215
0.0014736127
0.0047840974
0.0045433966
-0.0025577561
-0.004780828
-0.0021227095
-0.0028333177
-0.0035175716
-0.0016986527
2.030203E-4
-6.87575E-4
-0.0024848524
5.6477985E-4
0.002111671
-0.0023885146
-0.004890172
-0.0050154016
-0.0047477656
-0.0033551685
-0.0034305644
-5.8381195E-4
0.0065537486
0.008899335
0.0055471924
0.0016760285
-0.002009336
-0.004809328
-0.005507798
-0.004019711
-1.0541658E-4
0.004462413
0.0053699017
0.0018111913
-0.0011471513
-9.7515644E-4
-0.0015417979
-0.0026730127
-0.002003481
-0.004266231
-0.0089373505
-0.009043825
-0.0061130906
-0.004203615
-0.0015892258
0.0020784107
0.0017509122
-0.0022580882
-0.0029942885
-0.0019570587
-0.0022123493
-5.3458184E-4
7.9371186E-4
5.2692514E-4
0.0037194109
0.008729356
0.0101842545
0.010353315
0.012521635
0.013297113
0.010222593
0.0058206483
0.00437158
0.004915235
0.0014208546
-0.0013853952
0.0021662288
0.005847731
0.0067951675
0.0040922062
-0.001484966
-0.0044185813
-0.0043860967
-0.0024600995
-0.0021091949
-0.0032738673
-6.3100684E-4
0.0017721609
0.004417492
0.007352411
0.0028718556
-0.0018439628
-0.0014723379
-0.0023384725
-0.006085797
-0.010906675
-0.0148953935
-0.023309054
-0.03567206
-0.041275676
-0.04087281
-0.037496794
-0.030582706
-0.023405557
-0.017951326
-0.009000686
0.010816565
0.03509695
0.05398163
0.058872525
0.045281947
0.030000756
0.02507291
0.031851012
0.042837027
0.036828306
0.02397926
0.025599299
0.043312214
0.065938495
0.055841114
0.01566023
-0.009938908
-0.016100695
-0.01617385
-0.031584773
-0.06830258
-0.09080547
-0.09241912
-0.08106341
-0.046353545
-0.011990893
-0.0041613956
-0.008178678
-0.016053325
-0.029434303
-0.046264533
-0.07573837
-0.09464994
-0.07591635
-0.037634168
0.0119148595
0.046654947
0.05343003
0.07263572
0.09127699
0.121321075
0.18531452
0.1811508
0.08917685
0.010933873
-0.017443566
0.0022215387
0.025593625
0.0042583505
-0.008902133
0.021268832
0.05166946
0.081206545
0.10012645
0.039946027
-0.057603683
-0.10301403
-0.13865115
-0.20297846
-0.24823646
-0.22648335
-0.15034269
-0.08267166
-0.030212892
0.0026971211
-0.017928777
-0.040802374
-0.01804438
0.025695542
0.053988762
0.06337633
0.09539266
0.13061939
0.1108338
0.04328416
0.0015918924
0.07769821
0.19627424
0.19677867
0.12229591
0.10163778
0.14700976
0.13643928
-0.02924306
-0.2135611
-0.25671428
-0.20281114
-0.12903738
-0.07176867
-0.04564527
-0.011432961
0.039838806
0.06464859
0.049891803
0.012167649
-0.027730957
-0.057782523
-0.0838255
-0.10134278
-0.09544063
-0.044084124
0.048249763
0.10798263
0.12548268
0.15472664
0.13155696
0.015166064
-0.08319668
-0.09957515
-0.07588298
-0.04757537
-0.019944763
-0.004163592
-0.0035533977
0.003946618
0.0054021776
-0.016245024
-0.027368952
-0.017393282
0.0012795631
0.021336852
0.026593575
0.024743654
0.02751516
0.034272544
0.045322664
0.046602644
0.03752039
0.027050707
0.012115867
5.6008145E-4
-0.0048339674
-0.010564878
-0.0172663
-0.024382204
-0.026951564
-0.026908984
-0.02599336
-0.019370446
-0.012300753
-0.0058141756
0.0017513387
0.004852019
0.004004244
0.0027620455
0.0035680456
0.0046394244
0.004518588
0.0062054563
0.0062522385
0.0034147613
0.0014205683
2.620487E-4
-3.325952E-4
-0.0016052718
-0.0035808878
-0.005722965
-0.00650285
-0.004925079
-0.0051944847
-0.0049181147
-0.0025001294
-0.002371328
-0.0028431364
-0.0041728877
-0.0034928292
0.0013014305
0.0023682255
0.003628507
0.007482885
0.0062208455
0.0030759668
8.8139094E-4
-3.2693564E-4
7.627953E-4
0.0014192418
0.0027606725
0.004983771
0.0056257253
0.0043599224
0.0017371548
0.001835966
0.004444598
0.0059767053
0.0070501617
0.005586731
2.0057955E-4
-0.00384858
-0.004230267
-0.003670921
9.778757E-4
0.010599132
0.01444715
0.009767916
0.0010255697
-0.010494643
-0.01685059
-0.014631807
-0.010320663
-0.007844206
-0.0076501328
-0.0068566008
-0.005696647
-0.004922147
-0.001188151
0.0015679864
1.5913957E-4
-0.0010683704
-6.483236E-4
5.7153276E-4
0.001181689
5.206998E-4
3.6799232E-4
0.0017603536
0.0031776472
0.0019302142
7.7681994E-4
0.0051027755
0.0129455505
0.016675828
0.011548763
0.0013517151
-0.0065185325
-0.008130141
-0.0057792906
-0.0039192066
-4.3040552E-4
0.004712188
0.0063698376
0.0050645582
0.0035669284
0.002431479
5.037658E-4
-0.001947195
-0.0036411618
-0.0057035033
-0.005919142
-0.0034939523
-7.603603E-4
0.0018086405
4.1108739E-4
-0.0031814945
-0.0035905805
-0.0038252901
-0.0043096747
-0.0025417183
-4.5209832E-5
0.0018476787
0.0017512327
-7.632209E-4
-0.0014551627
-2.351844E-4
-0.0031707012
-0.005200756
-0.0019467124
-0.0014586083
-0.002089668
-7.1697886E-4
3.27622E-4
0.0031602902
0.0041160006
0.0035532766
0.005138057
0.004410427
0.0031315433
0.0028045583
0.0013883731
0.0012159912
0.0012012505
0.0010237191
0.0010144382
-0.0010578784
-0.001883441
9.110445E-4
0.0029628815
0.0022951795
4.5591968E-4
-4.1263364E-4
0.0028686328
0.004277898
-0.0022646969
-0.006774797
-0.006405372
-0.005334329
-5.8836915E-4
0.0017587116
-0.0010873337
-0.002575322
-0.0026476497
-0.00187188
-0.0017571644
-0.0017461539
-2.5465843E-5
-5.5066554E-5
1.4544665E-4
0.0010988584
1.588827E-5
1.6084599E-4
0.0011096689
7.6877093E-4
9.25612E-4
0.001680502
7.282677E-4
-0.0015044644
-0.00100404
0.0014028983
0.0027028392
0.002541547
0.0011689684
5.817883E-4
8.773564E-4
0.0011473348
8.594097E-4
8.124844E-4
0.0015334188
-7.2402804E-4
-0.0017305843
1.5895661E-4
-0.001842125
-0.0023449196
-0.0010072001
-0.0027436118
-0.002381308
-0.0012942769
-9.835812E-4
-4.5565735E-5
-5.1338394E-4
-9.88119E-4
-0.0012489096
-6.7624863E-4
8.714713E-5
-4.9795717E-4
-6.603041E-4
-0.0014896429
-8.0977473E-4
6.831393E-5
-9.065326E-4
0.0022532283
0.0035939235
0.0011797494
0.0025456063
0.0039700856
0.004554907
0.0029661998
-4.8342205E-4
4.3915925E-4
3.9719226E-4
-7.774084E-4
5.025792E-4
9.091666E-5
4.975849E-5
-0.0012841866
-0.0044675623
-0.004647285
-0.0041088695
-0.0023299514
-8.864918E-4
-0.0016908246
-4.947716E-4
-4.152098E-4
-0.0011313589
4.6847583E-4
9.3973865E-4
0.0010090163
2.4037266E-5
-0.001574177
-3.3176795E-4
-3.419356E-4
-0.002388075
-0.0018633208
0.0015189721
0.0036203645
0.0014368133
-3.026067E-4
4.6016014E-4
7.31428E-4
0.0017040796
0.0011898904
-0.0015767986
-7.948294E-4
0.0012282686
2.6619123E-4
-1.7772581E-5
3.5262946E-4
-9.895628E-4
-0.0014144606
-4.6795787E-4
4.1755813E-4
0.0017694951
0.0025658105
0.0023734956
0.00157644
1.2799143E-4
-6.133042E-4
-0.0011502792
-0.0017041485
-9.7161764E-4
-1.5874222E-4
2.5359663E-4
-2.6697313E-4
-0.0017564052
-0.0016963939
-8.40636E-4
-4.8236572E-4
-6.039442E-4
-0.0015309027
-8.7048317E-4
3.6158803E-4
-3.1909248E-4
-4.8160783E-4
-3.8523006E-4
-0.0010600485
-8.700827E-5
0.0019836836
0.0022966315
0.0012935826
0.0016156788
0.0021346447
6.725398E-4
-6.8088697E-4
-8.269964E-4
-5.943536E-4
-7.701679E-6
3.0602273E-4
5.007477E-4
8.323689E-4
3.7726926E-4
-2.6770317E-4
3.3104708E-4
0.0011270923
-4.6455878E-4
-0.003822225
-0.004359894
-0.0013165171
-9.440558E-5
-5.2316685E-4
1.9928093E-4
-0.0010058425
-0.0018423346
6.648619E-4
0.0019445308
0.0016674733
0.0019095103
0.0013410607
-4.731238E-4
-1.3295129E-4
0.002735856
0.001044956
-0.0022953562
-3.0086676E-4
0.001235274
6.1188726E-4
2.755891E-4
-9.8961E-5
8.253221E-4
1.3057447E-4
-7.295639E-4
0.001124356
8.1276917E-4
1.3247396E-4
0.0011007781
-7.93722E-4
-0.0034019921
-0.0028409937
-0.0011362521
2.2140951E-4
0.0014978967
7.298914E-4
-8.045655E-4
1.36981E-4
0.0015365898
0.0024626232
0.0017350985
-7.302914E-4
3.0946967E-4
7.495253E-4
-0.002406359
-0.0014130273
2.041397E-5
-0.0016708341
4.580713E-4
0.0013240067
-0.002209678
-0.0011271881
0.0012011318
0.0013011537
0.0027712942
-0.0023727943
-0.008863889
-0.0026676224
0.0025297971
-0.0011826829
-0.0011608414
9.181616E-4
3.8397027E-4
0.0014753779
0.0017500011
-6.3024915E-4
-0.0011259184
-2.679557E-4
4.5940225E-4
0.0027464202
0.0024555137
1.1306178E-4
0.0017827833
0.0026102553
0.0010642861
0.0017224589
0.0021446948
0.0022656547
0.0024027273
0.0014810758
5.767111E-4
-0.0016568481
-0.002399121
-8.5979595E-4
-0.0011325933
-0.0011862281
-0.0012204872
-0.002254941
-0.001983349
-0.0019428985
-0.0026057202
-0.0025978452
-4.332945E-4
0.0013482787
-0.0017852519
-0.0036782695
-0.0015250354
-6.958607E-5
0.0010927188
6.970943E-4
9.808277E-4
0.0032619066
0.0015417489
-6.203671E-4
-3.60008E-4
-3.868534E-4
9.21516E-4
0.0018936509
0.002495491
0.0027253975
9.332938E-4
3.8771195E-4
-0.0011685197
-0.0029374168
7.006999E-5
0.0017681123
-4.860279E-4
-0.0022833785
-0.001227582
0.0012026913
-1.2250713E-4
-0.0010535966
0.0017632283
0.0019803126
7.207332E-4
2.1803808E-5
-0.0016822475
-0.0020483448
-0.0011189037
2.7806984E-4
0.0016030802
0.0014918437
0.0015464085
0.0012615232
-1.4824966E-4
1.2453119E-4
0.0013190407
2.6998762E-4
-0.0025322943
-0.0039127884
-0.0020844701
1.4434328E-4
5.7517827E-5
-2.6954495E-4
3.0369512E-4
9.962945E-5
-2.540485E-4
4.6736808E-4
0.0011212305
6.3137244E-4
-3.8356637E-4
-5.341991E-4
3.5924104E-4
0.0010197285
8.834279E-4
0.0010369394
0.0014026603
-6.538561E-5
-0.001674158
-6.6440436E-4
2.3939306E-6
-7.546711E-4
-1.7129473E-4
3.3440324E-4
-2.3595904E-4
-2.3409427E-4
-3.9642374E-4
6.888594E-5
9.916846E-4
-4.1424434E-4
-7.4384426E-4
6.0834055E-4
-9.976068E-4
-0.0016501101
-1.2820383E-4
-2.5775895E-4
0.0010367074
0.0022920696
8.2097726E-4
4.956208E-4
7.324272E-4
5.6757824E-4
8.0324715E-4
1.0087114E-4
-2.95945E-4
3.4608725E-5
1.8004711E-4
4.849549E-4
-2.8902807E-4
-0.0011507785
9.123175E-5
6.029174E-4
-0.0011270299
-9.7271934E-4
0.0010689064
0.001255058
9.64754E-4
9.1173797E-4
-8.852009E-4
-0.0020467327
-9.1573206E-4
-5.954936E-4
-0.0011133162
-1.285621E-4
1.6507875E-4
2.54192E-5
0.0015035635
3.89856E-4
-0.0016040324
-3.8418733E-4
-2.8627625E-4
-0.0011817374
-6.395606E-4
4.3092127E-4
9.834382E-4
-4.4176754E-4
-2.022767E-4
0.0017354751
7.118975E-4
-6.885185E-4
-6.740139E-4
7.6863234E-4
0.0023500535
1.0777676E-4
-0.0020732617
-6.407684E-4
6.273483E-4
5.9805106E-4
0.0010732012
0.0013550855
-3.265993E-4
-0.0014874601
-0.0010031316
-0.0013161527
-6.6170894E-4
6.574764E-4
-2.2506197E-4
-2.4857384E-4
0.0017718163
0.001965418
0.0014376005
0.0025586546
0.0019714122
2.4036664E-4
2.6115208E-4
-5.750542E-4
-0.0016391489
-4.0057374E-4
4.5910466E-4
-0.0016455582
-0.002609175
9.5966377E-4
0.0023328278
9.1751077E-4
-4.736969E-5
-0.0033918277
-0.0015995927
0.0031052406
0.0011928633
2.6997397E-4
-0.003817862
-0.010525457
-0.0054022446
0.0010923753
0.001331343
0.0015559428
0.0013324297
0.0024200114
0.0026938398
0.0020004984
0.0028538175
0.0014166791
3.8841326E-4
3.6920948E-4
-6.62489E-4
-1.0128038E-4
4.1870873E-5
2.7171546E-4
5.4057874E-4
5.98536E-5
0.0016025368
7.7608397E-4
-9.771485E-4
5.546182E-4
-1.8558993E-4
-0.0013279092
-3.020958E-4
-2.2501136E-4
-2.1239581E-4
-1.592788E-4
1.349291E-4
5.370043E-5
-7.76603E-4
-1.9251715E-4
1.01244535E-4
3.1542723E-4
8.5508905E-4
-3.371594E-4
-2.659462E-4
0.0010735793
0.0010067463
1.1840873E-4
-8.940136E-4
-4.5925687E-4
-2.1964156E-4
-0.0012391033
-0.001224599
-0.0015957587
-0.0013289996
6.044757E-4
2.3097747E-4
-0.0011246139
-8.996558E-4
-0.0016111255
-0.00167288
0.0014258006
0.0023120753
3.5444618E-4
5.510466E-4
7.3865295E-4
8.368787E-4
0.0021025785
0.002213029
0.0016316482
-7.5644144E-4
-0.001613015
5.7396694E-4
-6.7948335E-4
-0.0011479413
8.51545E-4
8.0081134E-4
3.0436798E-4
-0.0013225231
-2.46074E-4
0.0017575461
-0.0010474524
-6.6057325E-4
9.524011E-4
-6.483857E-4
-4.5954075E-5
4.8630318E-4
1.9285387E-4
-7.954027E-4
-0.0017535279
6.1093236E-4
0.0014654918
0.0011651838
0.002039001
8.303703E-4
-4.555978E-4
-0.0011938841
-0.0018861365
-0.0016184965
-6.1203353E-4
5.94317E-4
-5.236132E-4
-9.034311E-4
9.834397E-4
4.2456563E-4
-7.3677953E-4
-0.0012400821
-0.0013207584
6.1600463E-4
9.2163624E-4
-8.8560715E-4
-0.0012559275
-3.9100418E-5
0.0010919665
9.1216166E-4
7.265191E-4
-4.2920336E-5
-0.0013495386
2.3260436E-4
0.0016147149
0.0010244172
0.0019329892
0.0018885199
0.0011135169
0.0022047164
0.001335866
-4.149733E-4
-6.1462086E-4
-0.0021518546
-0.0026606484
-8.560477E-4
-7.0290617E-4
-0.0013541905
-4.946525E-4
7.754546E-4
7.803401E-4
5.4979953E-4
8.834206E-4
-7.063771E-5
-9.5111015E-4
-5.477178E-4
-5.2754814E-4
-7.8186963E-4
-0.0012558068
-0.0014230746
-0.0013358378
-0.001364996
-4.5794772E-4
5.0635636E-4
0.0021017203
0.0033998806
0.0019525706
8.8593614E-4
0.0010241497
7.7006244E-4
2.3222055E-4
-7.0134294E-4
-8.6245395E-4
-5.8278773E-4
8.438544E-4
0.0017774195
-2.2807902E-4
-3.8745835E-5
5.4622686E-4
-5.898644E-4
3.7036356E-4
-6.187148E-4
-9.249732E-4
0.0014406869
2.7912785E-4
8.167788E-5
2.6595494E-4
-0.0025765237
-0.0020854024
-0.0011101234
-0.0023103966
-7.2837004E-4
8.0315495E-4
-2.3729188E-4
-8.4468E-4
-8.190423E-4
-7.534166E-4
-6.049965E-4
-3.556558E-4
6.2819786E-4
2.2551462E-4
-9.6111215E-4
6.777265E-4
0.001719659
9.799966E-4
0.0014341082
0.0011967006
0.0010260966
0.0020658195
0.002316003
0.0020679997
0.001875583
0.0013277223
-8.0587843E-4
-0.0020812014
-4.051851E-4
3.1518063E-4
8.990336E-4
0.0015308994
1.694586E-4
-5.00248E-4
-0.0017807358
-0.0018372141
3.869595E-4
-6.0697837E-4
-7.959317E-4
-0.0016134997
-0.0075420234
-0.0076672942
-7.2819495E-4
0.0036110678
0.002695792
-5.4797536E-4
4.0607993E-4
0.0023970513
-1.2959144E-4
-1.6929809E-4
0.0024262357
0.0019392475
0.0010901889
8.0908276E-4
-1.3193821E-5
-6.517729E-4
-0.001641088
-0.0011598634
0.001015797
0.00191232
0.0014485044
2.9650924E-4
6.3731667E-4
0.0023885136
7.516138E-4
-0.0018711487
-0.0018611698
-0.002154552
-0.0025235182
-0.0016060928
4.6403872E-4
0.0019877783
8.308019E-4
0.0014473755
0.003166115
5.337184E-4
-3.4736257E-4
0.0021458995
7.300651E-4
-0.0014496424
-4.0719574E-4
-2.3998882E-4
-6.462939E-4
7.292132E-4
7.4324885E-4
-0.0010698786
-0.0012718021
-8.6487085E-4
-9.757011E-4
-5.084426E-4
-7.0589816E-4
-0.0013972933
-0.0020515863
-0.0020587146
2.9534724E-4
5.471611E-4
-0.0020958877
-0.0021071318
-0.0015385693
-0.0012051436
-6.674085E-5
2.7895859E-4
0.0025291923
0.0035690267
0.0011926692
0.0013635497
0.0020313829
0.0017543107
0.002331722
9.057906E-4
-5.445752E-4
5.5534637E-4
0.0015086074
-7.343194E-4
-0.0021594404
0.0014607242
0.0019743764
4.4196442E-4
0.002759867
4.981913E-4
-0.0024521835
-9.6518337E-4
-0.0031309098
-0.0036191153
-1.638504E-4
-3.6709476E-4
-7.376266E-4
4.762922E-5
-0.0010843008
-0.0012295727
9.8556695E-5
-3.6781433E-4
-0.0012692133
3.50667E-4
0.0011099057
1.5346688E-4
7.335348E-4
2.7959645E-4
-4.5852162E-4
8.795397E-4
3.351226E-4
-3.9028918E-4
6.758187E-4
6.900642E-4
8.8859483E-4
-3.875049E-4
-0.0019526407
0.001242136
0.0022476413
-2.206148E-4
7.5663644E-4
4.2202932E-4
-0.0013606708
-6.450318E-4
-7.8532647E-4
4.7786275E-4
0.0017055792
-7.3618116E-4
-6.5182545E-4
2.3969756E-4
-0.0016099821
-9.304326E-4
0.0010361633
8.271595E-4
2.435767E-4
4.5601162E-4
4.2095207E-4
-6.4444984E-4
-4.976583E-4
0.0012591658
0.0019186888
0.0012850058
3.3871474E-4
-6.1361905E-4
-0.0010635413
-5.993724E-4
-8.4135355E-4
-0.0016029555
-1.0542934E-4
5.6950806E-4
-4.259696E-4
3.1272467E-4
-3.241111E-4
-0.0013773722
-4.4546232E-5
-3.5255856E-5
-3.358115E-4
3.3604342E-4
4.897144E-4
4.2807584E-4
-5.3607783E-4
-6.8605837E-4
-1.15000315E-4
-2.168845E-4
0.0012762074
0.0018493498
-2.3284288E-4
-7.7482354E-4
0.0011114187
0.0021692698
6.15899E-4
-6.9928507E-4
-4.1990972E-4
-2.3620286E-4
-5.5965135E-4
-0.0019468045
-0.001825075
-9.272839E-5
-4.5698884E-4
-5.940218E-4
-7.8390393E-4
-0.0019096449
-2.9834895E-4
9.0548524E-4
-2.3935335E-4
-4.048481E-5
9.736837E-4
4.424134E-4
-1.7911603E-4
0.001974146
0.002979775