-0.0033756453
-2.8268443E-5
-0.00707658
-0.00958339
-0.0014606543
0.0031383054
0.0023666986
0.0024292546
0.0028512604
0.002320662
0.0020202613
0.002139462
0.0018727761
0.0016288299
0.0020906762
0.0012419616
-9.4758347E-4
-2.3668025E-4
0.0011609362
-7.126111E-5
-2.580518E-4
7.0421334E-4
0.0011270505
4.9244514E-4
-5.872005E-4
5.229385E-4
2.265868E-4
-0.0011714783
-1.7412465E-4
-0.0014106935
-0.0025549193
-5.0745247E-4
5.431602E-4
-1.9771504E-4
-0.0022843068
-0.0021575855
-1.5039448E-4
1.3302853E-4
0.0015622539
0.002041852
0.0019363851
0.004011801
0.0032004202
0.0018639291
0.0015779999
-0.0013151396
-0.0031594164
-0.002398193
-8.8870164E-4
-3.6326845E-4
-9.1391447E-4
-4.7989356E-4
2.6323213E-4
5.513938E-4
-0.00240242
-0.0054013426
-0.0020049552
-3.996012E-5
-0.0017332583
-0.0013459857
-6.115528E-4
0.0013538824
0.002210261
1.394501E-4
-1.5371895E-4
-4.0792415E-4
-2.0062737E-4
0.0017848402
0.0020185306
0.0024993997
0.0034875064
0.0017945021
-4.32511E-4
1.5984982E-4
0.0020350397
0.0017402549
0.0016398556
0.0025610141
6.475555E-4
-0.0010749294
-4.5159337E-4
-7.7813875E-4
-9.992511E-4
-8.603948E-4
-0.0013448745
-5.124142E-4
-9.5599797E-4
-0.0033390725
-0.0023317907
1.7987719E-5
4.185417E-4
9.909774E-4
4.1746016E-4
-8.1913034E-4
-7.449218E-4
-0.0013568142
-0.0019109825
-0.0013913439
-6.205055E-4
5.2915525E-4
8.5882534E-4
2.7466586E-4
1.8971128E-4
4.4954492E-4
3.736501E-4
7.199108E-4
0.0011927333
1.3614816E-4
2.5466667E-4
0.0015162172
-1.0407189E-4
-0.0013079046
-7.294218E-4
-6.540471E-4
0.0014863795
0.003385456
9.796656E-4
-0.0017625662
-9.649942E-4
9.059302E-4
8.5771346E-4
0.0011727685
0.0016813461
-5.910133E-4
-0.0015655895
-2.061876E-4
-3.2800122E-4
-5.3983767E-5
3.8395126E-4
-1.770767E-4
4.405911E-4
5.2860874E-4
-2.5110312E-5
3.4049628E-4
1.3660594E-4
-6.372585E-5
-9.4168074E-4
-0.0028845384
-0.0024014276
-3.6561087E-4
5.8642385E-4
8.39338E-4
6.7303114E-4
-1.3922452E-4
-0.0017092023
-0.0016185512
6.3822547E-4
0.0014690646
0.0014005699
0.0019319183
0.00155725
-3.309224E-4
-0.00234505
-0.0022671386
-0.0011797671
-5.4783623E-6
0.001141343
3.881657E-4
4.1649793E-5
7.0111494E-4
-2.0949701E-5
-2.7567855E-4
0.0010690856
0.0027389096
0.0016076252
-0.0015914923
-0.0012984072
2.5880357E-4
-1.6732028E-4
-3.641155E-4
-3.62504E-4
-6.7626627E-4
-5.60276E-4
4.4197286E-4
6.952306E-4
-1.3151905E-4
3.989006E-4
4.2985546E-4
-0.0010947799
-0.0013166517
-4.1971196E-4
-5.308534E-4
-0.0013217913
-8.369124E-4
-2.1445392E-4
-2.6525636E-4
4.741918E-4
0.0015211533
0.0026939902
0.0033719523
0.0032417218
0.0021437705
1.9907622E-4
-5.14454E-4
-0.0020755965
-0.0019554496
0.0013333785
-1.3570991E-4
-0.0017182694
-1.4947854E-4
-3.0439493E-5
0.0016683365
0.0014841534
-4.906031E-4
-0.002090225
-0.0031847458
0.0026432443
1.446041E-4
-0.012149202
-0.008250259
0.0015716569
0.0031067566
0.004028329
0.0028739013
0.0014792565
0.001149533
1.4660068E-4
0.0011782406
0.0010757433
-3.4884142E-4
3.713459E-4
0.002107175
0.0017008202
-7.085047E-4
-6.647152E-4
2.2724835E-4
4.9214825E-5
4.6492086E-4
-3.6258413E-4
-8.1670436E-4
5.135986E-4
0.0015004927
7.4099906E-4
-0.0013680555
-7.498735E-4
5.099329E-4
-0.0011053866
-0.0021432051
-0.002099335
-4.1689313E-4
0.0020764638
9.882735E-4
-0.001876115
-0.0018883855
0.0017325395
0.0032346258
-2.151605E-4
-0.0012296118
0.0013870749
0.0022613127
0.0010048954
-5.367208E-4
-0.0012811188
-0.0021761702
-0.0018878933
9.132935E-4
0.0015925633
1.2709339E-4
1.752479E-4
-1.6372972E-4
-0.0018521618
-0.002063143
3.0665123E-4
0.0024419874
0.0022888386
6.9892843E-4
-0.0014456577
-0.0016492256
1.3275004E-4
6.287486E-4
0.0010357022
0.0014832185
-6.9593027E-4
-0.00296911
-0.002595948
-9.4885845E-4
2.6367308E-4
8.382353E-4
5.667614E-4
-6.2589033E-4
-2.706364E-4
0.0010792661
2.8984237E-4
7.690573E-5
0.0015312427
0.0010823614
-3.8934413E-5
-1.4118201E-4
-5.058907E-4
-9.313484E-5
9.928287E-4
8.9787744E-4
-1.2839299E-4
-0.0016051362
-0.0016627596
1.9189155E-4
6.004462E-4
2.3387435E-4
7.6645316E-4
0.0013015833
0.0025340314
0.0022500192
3.0256057E-4
6.8124814E-4
-7.3074705E-5
-0.0033541
-0.0027468305
4.00481E-5
6.8220915E-4
0.0017949481
0.0016078218
-6.8603706E-4
6.490984E-4
0.0016403627
-0.0012053224
-0.0012092787
-4.7971465E-4
-0.0024952542
-0.0029566633
-0.0015868583
-4.1201583E-4
-0.0012117103
-0.0027952248
-0.0018461033
-5.9354084E-4
-7.3517195E-4
-7.880859E-4
6.0303014E-4
0.0024287195
0.0018308675
0.0011195439
9.614747E-4
7.6747907E-4
0.0028895943
0.002516713
6.064354E-4
0.002642518
0.002713008
7.5007667E-4
9.547885E-4
0.0011524359
0.0018768378
0.0025539761
0.001569519
-3.7428725E-4
-0.0020718798
-0.0020171949
-0.0017984764
-8.9361763E-4
7.2875345E-4
-5.9693505E-4
-0.0019221813
-0.001911989
-0.0035578266
-0.0041554896
-0.0027851586
-0.0016224724
-0.0010572765
-9.0445025E-4
-4.3789172E-4
-4.701895E-4
-4.5883085E-4
4.798623E-4
2.4270978E-4
-4.262352E-4
-4.9135485E-4
-0.0010573198
-5.8989425E-4
6.58618E-4
0.0014473804
0.003991495
0.005858884
0.0037378368
0.0029665635
0.0041131834
0.0018224166
-5.9247896E-4
-9.865616E-4
-0.0025653492
-0.002896298
-0.0011033745
-3.559836E-4
8.133007E-4
0.0026962087
0.002172901
3.0735732E-4
-0.0018315903
-0.0041516707
-0.0034573858
-0.0018195102
-0.0016784804
1.2200909E-5
0.0010334299
6.7867426E-4
7.234038E-4
-3.476927E-4
8.0528605E-4
0.0022808174
2.650663E-4
-5.364528E-4
-5.249377E-4
7.8865836E-5
8.7900565E-4
-7.5396855E-4
3.149859E-4
0.0024981638
0.0020238124
0.0016720317
1.6398798E-4
-0.0027102537
-0.0038482023
0.0019530152
0.004327318
-0.008604227
-0.011100484
0.0016681891
0.0022568784
-9.5623155E-4
5.4108846E-4
-7.816174E-4
6.0310855E-4
0.0019801485
0.0012144132
0.0013594591
-1.6423683E-4
-9.206965E-4
-4.2242915E-4
8.530533E-4
0.0019517854
7.336501E-4
0.0012930114
0.00154282
1.108877E-4
5.9960224E-4
7.14081E-4
0.0011130555
0.0012096612
5.939503E-4
0.0016955313
0.001187776
2.4399844E-4
-2.0043331E-4
-3.9582932E-4
0.002212297
0.0015185692
-0.0010060802
9.2882186E-4
0.0019735328
9.5718616E-4
-0.0012582323
-0.004246091
-0.004144852
-0.0024154938
-7.6938386E-4
-5.290409E-4
-0.0020921964
-0.0027432148
-0.0027956925
-0.0013288533
-7.237267E-5
-0.0022099358
-0.0028379662
-3.6666487E-4
0.0013638041
0.0014037195
9.409484E-4
7.974833E-4
-2.1446521E-4
-5.36948E-4
0.0016227724
0.0032149167
0.0026477177
0.0013621164
0.0013250466
0.0027687342
0.0038804882
0.003861456
0.0026670252
7.791192E-4
-5.062097E-4
-3.3042557E-4
-2.0304114E-4
-0.0012573898
-0.0014032493
-0.0014051954
-0.0021733418
-0.0023641512
-0.002602184
-0.0011093597
7.748384E-4
-2.777446E-4
-9.283073E-4
-6.6105777E-4
-2.735102E-4
7.70736E-4
-3.6696787E-5
-0.0014863595
-0.0019920897
-0.002222783
-0.0019607597
-0.0019347497
-0.0014005309
2.6100953E-4
0.001691369
0.0011724045
2.5409854E-5
0.0017172807
0.0023247108
5.2183826E-4
0.001642006
0.0022354154
9.5905573E-4
0.0018699795
0.002212767
0.0019429327
0.0028820506
0.001791434
-0.0015533452
-0.0037016247
-0.0026462742
9.29073E-4
0.0035410463
0.0022753507
1.5021075E-4
8.156499E-5
-7.265555E-4
-0.001715867
-0.0017475926
-0.0030267301
-0.0032423087
-0.0019820537
-0.002162843
-0.002659321
-0.00179224
1.4943569E-5
4.457715E-4
-1.0747468E-4
4.3721625E-4
-2.8862598E-4
-0.0014069618
-1.5219537E-4
7.681082E-4
7.2633364E-4
0.0016035638
0.0020438961
7.3017494E-4
4.229376E-4
0.0016426261
0.001124398
8.8106905E-4
0.0011554197
-7.1335357E-4
-2.7460323E-4
0.0017280994
9.33312E-5
-0.0012484866
6.912687E-4
0.0019587036
8.369152E-4
-5.6789697E-5
1.3528034E-4
7.8794034E-4
0.0012579733
2.4720905E-5
-7.32342E-4
-9.827394E-4
-0.0013894205
0.0012231485
0.0015393347
-0.0024018362
-0.0026068198
-9.8117795E-5
8.5401244E-4
0.0010234556
0.0012454872
8.849002E-4
-5.7296106E-4
-0.0014971991
-0.0017305575
-0.0015560442
-0.0017921579
-0.0025348538
-0.0010026568
-2.2680848E-4
-9.846782E-4
-1.2516776E-4
-2.1219792E-4
-6.730776E-4
-9.406905E-4
-0.001013521
3.1433307E-4
3.5637233E-5
9.580743E-4
0.0031407175
0.0014634337
3.0278947E-4
0.0011507005
4.6567808E-4
-5.18269E-4
-6.23892E-5
0.0010086347
0.0014622336
0.0017066902
0.0017543427
0.0018714201
0.0013488431
8.641553E-4
0.0022796404
7.9014053E-4
-0.0016876692
-5.334103E-4
-4.8943993E-4
-2.6705113E-4
5.821562E-4
-8.2182884E-4
-0.002134162
1.5030376E-4
0.0037729193
-0.004116244
-0.012692835
-0.0043225754
0.001080966
-2.9942842E-4
0.003915715
0.004699263
0.0020641643
-1.8798387E-4
-0.0017094238
-9.3418895E-4
-9.964241E-4
6.50532E-4
0.0014066192
-1.21051344E-4
8.238993E-4
2.931974E-4
-6.96528E-5
0.0010468288
0.0012090971
0.0023400462
0.0010999425
-2.9297755E-4
5.36841E-4
6.0756065E-5
6.349037E-4
-4.693255E-4
-0.0036656924
-0.002493057
-3.5937116E-4
-0.0012725882
-0.0024745618
-0.0024398584
-0.0017767586
-9.4831584E-4
2.200704E-4
0.0023308855
0.0034774286
2.0650592E-4
-0.0019114421
0.0015245391
0.002700421
0.0013112368
0.0015140155
7.93731E-4
0.0013490336
0.0033236141
0.0026154048
0.0016792447
0.0014900137
8.728377E-4
0.0016579813
0.0012602973
-0.0013801095
-0.0017355401
-0.0019808444
-0.003287546
-0.0014789097
-0.0013655985
-0.004720598
-0.0049862093
-0.0036683336
-0.0023147368
-1.9704748E-4
-1.2667559E-4
2.4329011E-4
0.0015440779
4.9059745E-4
-2.218325E-4
8.647219E-5
-3.4511177E-4
-4.4355472E-4
-3.1179417E-4
0.0011816714
0.0037226032
0.00406575
0.003369387
0.0033601387
0.0029945518
0.0019739193
-3.2793873E-4
-0.0030060592
-0.002987267
-0.0014979516
-0.0012600828
-4.3430863E-4
5.841712E-4
-4.033851E-4
-7.258494E-4
5.9763767E-4
0.0014570481
0.0019399588
0.0023030767
0.0010921868
-0.0011697615
-6.3911057E-4
8.79102E-4
-2.4616686E-4
-0.0010005209
-0.0019455473
-0.0030453762
-0.0017197357
-0.0010407636
-2.1536759E-4
4.4641556E-4
-4.161602E-4
0.0014916052
0.0020170186
-0.0012512435
-0.0028710205
-0.0030485005
-0.0020156994
-8.087677E-4
-9.959152E-4
-0.001099969
-7.0396776E-4
0.0016158923
0.0036168213
0.0047593573
0.00776121
0.007395744
0.004058219
0.0019487728
-0.0014603459
-0.0028024581
-0.0014541136
-0.0029292312
-0.0038323007
-0.0017552705
-7.6472847E-4
-6.151797E-4
-4.2696367E-4
-0.0013850409
-0.0010700773
2.9671684E-4
-9.2355744E-4
-0.0031620534
-0.004360922
-0.0038481746
-0.0015829795
-6.367765E-4
-9.852186E-4
-5.8073935E-4
0.0012840083
0.0037187901
0.00420135
0.0039517567
0.002547027
-4.5553075E-5
6.937634E-4
0.0018691797
0.002013447
0.0034915642
0.00282086
0.0012033888
8.6586695E-4
-0.0013482947
-0.004068078
-0.0030704506
-3.371055E-4
2.5593524E-4
9.649114E-4
5.6548434E-4
-0.0028255582
-0.0032800885
-0.0025581755
-0.0023718185
0.0015815556
0.003909088
0.001329639
-0.0018968197
-0.0020080335
5.908964E-4
-8.251886E-4
-0.0037602566
-0.0022235094
-0.0017124567
-0.0031416104
-0.002256977
-4.4902327E-4
1.4935495E-4
-2.4155958E-4
8.2884746E-4
0.0032155646
0.003783114
0.004474566
0.006007828
0.0049277954
0.0038839767
0.0036041306
0.0014329989
-5.5484405E-5
-0.0022175692
-0.0036882523
-0.0013194823
-7.504033E-4
7.674862E-4
0.0040976442
0.0030986713
0.0034524193
0.0045975596
-9.097795E-5
-0.006489108
-0.005985389
-0.0014972419
-0.008453288
-0.015744029
-0.008139771
-0.003561419
-0.0029029257
0.0021726303
0.003371016
0.0033212553
0.0033781228
0.0022995449
0.0012002197
-0.0017933465
-4.899338E-4
0.0034818035
0.005538465
0.008603387
0.010363348
0.009806546
0.003511842
-0.0035486186
-0.002382177
-0.003683206
-0.005350756
-7.575292E-4
0.0019049069
0.006681573
0.0064492724
-0.0054491432
-0.010117074
-0.008268232
-0.008475342
-0.0062104813
-0.005479049
-0.006165552
-0.00600424
-0.0062587643
-0.0033215876
-8.899587E-4
-0.002418919
-0.003996309
-0.0016007577
0.00727637
0.016401546
0.020072581
0.018040475
0.009175636
-0.0027925198
-0.012250666
-0.014333145
-0.0097112795
-0.0011777615
0.013108495
0.020742703
0.014004492
0.0051994827
-0.0037482579
-0.005818067
0.0072726244
0.014971416
0.008723699
0.003969341
0.0032851924
0.0023526172
6.0248476E-5
-0.004852366
-0.0075568557
-0.004651887
-0.002467694
-0.007838802
-0.021072436
-0.030366767
-0.027819559
-0.024042672
-0.020555956
-0.0135216545
-0.008110364
-0.0015681122
0.0036360784
0.0048402934
0.008366141
0.011483968
0.01867232
0.02575424
0.013685105
-8.437888E-4
0.0020309894
0.006257262
0.0032023755
0.0018322362
0.0030023921
-1.3529517E-4
8.414367E-5
0.015415923
0.029283766
0.03053441
0.031737536
0.024748435
8.2471815E-4
-0.026122782
-0.05243616
-0.06673163
-0.05220415
-0.029607335
-0.018301005
-0.010691188
-0.005446852
8.579771E-5
0.013351645
0.030099235
0.041361935
0.039851736
0.023129199
8.054519E-5
-0.008923442
0.004747373
0.02487047
0.037139244
0.03737761
0.028387774
0.01803224
0.005467
-0.003990299
-0.0052213063
-0.0072480063
-0.008403838
-0.0070880908
-0.008627591
-0.010061132
-0.017306888
-0.03317476
-0.040293932
-0.037905384
-0.0391455
-0.03348486
-0.015327991
1.6158921E-4
0.003500622
-0.0069602276
-0.013452751
8.903654E-4
0.022609299
0.0343234
0.031438414
0.024133755
0.014249267
0.003849893
0.01656364
0.051974308
0.08771765
0.08411735
0.028352693
-0.027391996
-0.07592879
-0.11459146
-0.11552687
-0.1069344
-0.0956655
-0.08428679
-0.062490407
-0.0034118453
0.030379537
0.036431562
0.06602475
0.10332256
0.13699782
0.113741726
0.03489102
-0.014641967
-0.037174247
-0.052780777
-0.066364005
-0.05580757
0.012469712
0.07927684
0.11849711
0.16583236
0.21069483
0.20484193
0.14164521
0.08241927
-0.008387105
-0.13959819
-0.16563456
-0.1214753
-0.14033473
-0.1850078
-0.20878711
-0.20340768
-0.15045747
-0.057436872
0.049646888
0.1204121
0.10474948
0.028620793
-0.0387992
-0.098926395
-0.14531985
-0.12926634
-0.08270679
-0.017651308
0.07101415
0.113100216
0.12161327
0.13629912
0.124525234
0.089100406
0.044166517
0.024148209
0.05377399
0.07886744
0.09305189
0.107083924
0.08887325
0.04384879
-0.01942887
-0.048905365
-0.0011554671
0.02017023
-0.043429356
-0.110264026
-0.11761335
-0.08144035
-0.054658122
-0.056098185
-0.07435485
-0.069428414
-0.029330729
-0.009949295
0.023575028
0.08250369
0.09780721
0.12703688
0.15214613
0.07224159
-0.065195434
-0.18200134
-0.19659589
-0.10665676
-0.030469997
0.003298075
0.017235218
0.021851772
0.028295755
0.032243058
0.04549394
0.039425466
0.0064387424
-0.0043378337
6.184786E-4
-0.005481737
-0.027652893
-0.04641362
-0.044102482
-0.03163843
-0.005306936
0.02353111
0.04126553
0.048855793
0.042850938
0.048536792
0.057728607
0.047719434
0.03540189
0.017749405
0.0025309932
-0.003676321
-0.01563935
-0.02339416
-0.02952525
-0.035066847
-0.030876474
-0.026722882
-0.019392764
-0.00950563
-0.0023102553
0.008612982
0.01719329
0.021277154
0.021959538
0.01567001
0.011292499
0.009485677
0.0022039968
-0.0053919423
-0.011145273
-0.01762782
-0.019515738
-0.019326212
-0.02176354
-0.019488025
-0.01336887
-0.009553728
-0.005409277
-0.0010828634
0.0014980927
0.0041487496
0.007112858
0.009081465
0.011932954
0.013193193
0.008264841
0.008609406
0.02355036
0.03722684
0.027434457
-0.0037472672
-0.026434364
-0.024805373
-0.014844379
-0.010524138
-0.009141043
-0.0043245926
-3.45078E-4
-0.0012795199
-5.7118165E-4
0.0025458816
0.0052490635
0.006218264
0.006108577
0.0064371903
8.693809E-4
-0.006874476
-0.008928482
-0.009191737
-0.004670645
0.0027564552
0.00497949
0.0058955923
0.0067350543
0.007332232
0.008997394
0.007742915
0.0036117511
-0.0011354669
-0.003936556
-0.0031961082
-0.0032632088
-0.0047976887
-0.0037154253
-0.001381146
-0.0034705212
-0.0086354
-0.009062197
-0.0044425456
-1.0704115E-4
0.0021291208
0.0039073946
0.006415444
0.0067977333
0.004168811
0.0016518158
-3.2092523E-6
-0.0024032816
-0.0052656536
-0.0052020308
-0.0035884886
-0.0043593924
-0.0035925186
0.0012299855
0.0055258838
0.008397476
0.010700428
0.007466228
-0.0010890171
-0.006022621
-0.0056448565
-0.003628079
-0.0016462913
-0.0017396614
-0.0021927452
-0.0019791306
-0.0014018728
0.0016542017
0.0041794553
0.004312873
0.00428457
0.0046639917
0.0074012075
0.009788435
0.006849016
9.0379175E-4
-0.003498529
-0.0035493493
-0.0024557896
-0.0037518174
-0.004278685
-0.006698302
-0.011440581
-0.010054553
-0.0055794017
-0.0035238578
-0.0016120041
-0.0018446404
-0.0033275578
-0.0037452802
-0.0049270573
-0.003610423
-2.1490669E-4
4.9897726E-4
4.0766288E-4
4.9069116E-4
6.922876E-5
0.0025271378
0.007131517
0.0070058834
0.0056786216
0.008036015
0.0056909863
0.0071246796
0.017981635
0.013921797
0.001753786
0.0035612667
0.004832888
9.90527E-4
4.3659736E-4
-0.0014712568
-0.0048119863
-0.008031149
-0.010602685
-0.010216347
-0.004939723
0.0026185662
0.001193275
-0.0061160903
-0.008084731
-0.00785269
-0.0073928004
-0.0081362715
-0.009804661
-0.005677465
-4.4887062E-4
5.0028256E-4
0.0015794069
0.005684989
0.008702176
0.0035292378
-0.0012533696
0.0011039771
-2.9243116E-4
-9.6114224E-4
0.003886299
0.003416455
0.0011275344
0.0020790794
0.002783439
0.0046123257
0.0070130355
0.008294881
0.007393101
0.0038961614
2.2658163E-4
-0.002450084
-0.004170361
-0.006634298
-0.00728059
-0.0036753397
-5.502505E-4
0.0031638667
0.0051572225
0.0015021532
-2.1872639E-4
-0.0016328122
-0.0056540635
-0.0063250153
-0.004148981
-8.1505976E-4
6.2361814E-4
5.1474257E-4
0.0022956282
0.0016810066
0.0013305086
0.0024890725
1.2874517E-4
-0.0013482313
-0.001964339
-0.0026239739
-0.0012561223
-0.0021150778
-0.0027166419
-4.4663157E-4
4.5327158E-4
-0.0012684935
-0.004424321
-0.003851393
0.0010665336
0.0026615057
5.242261E-4
5.389751E-5
0.001948284
0.0037712536
0.0031750323
1.101054E-4
-4.7976786E-4
0.0023675156
0.0012240016
-0.002123645
-3.600336E-4
0.002693335
0.00386135
0.005289083
0.0061630844
0.0057785027
0.003763562
-4.7854727E-4
-0.0040184287
-0.003971691
-0.0038489685
-0.0062104985
-0.00607988
-0.0030236628
-0.0016567074
-0.0012615151
-4.3418046E-4
-2.854215E-4
-0.0011142226
-0.0017865916
-0.0021393578
-0.0020102067
1.5128232E-4
0.0012243226
8.958605E-4
0.0032933538
0.0033529347
4.2409642E-4
7.244984E-4
6.3256914E-4
-5.5095355E-4
6.976918E-4
0.0011325073
8.913884E-4
0.0014942386
8.475698E-4
0.0010053312
0.0020788668
4.2766996E-4
-0.0011691612
-9.861684E-4
-0.0023389473
-0.003130443
-0.0011779154
7.203235E-4
0.0013493907
0.0010028657
6.62393E-4
3.9793333E-4
-3.9793944E-4
-1.2339532E-4
6.378762E-5
-0.001428294
-0.0013055474
0.0012770576
0.0022689207
4.4070583E-4
-5.684497E-4
1.10533154E-4
-1.2779623E-4
-6.667224E-4
-5.161445E-4
-9.3410653E-4
-0.0010795289
2.1612295E-4
1.850617E-5
-0.0017268672
-4.2967324E-4
0.0010222364
-4.8301884E-4
4.3388986E-4
0.002333158
2.9156628E-4
-9.4747165E-4
0.0013288285
0.0020171506
5.5928674E-4
8.100574E-4
0.001299541
-3.636104E-4
-0.0024883873
-0.0027969421
-0.0010921652
-4.1902318E-4
-0.001184109
-0.0012549367
-0.0014261293
-0.0013694286
-0.0011510284
-0.0011157562
-2.758066E-4
9.241709E-5
7.764225E-4
6.402456E-4
-0.001949959
-0.0010171274
0.0028842404
0.0035180927
0.0021037867
0.0010223722
0.0014563953
0.0029876386
0.002770523
0.0013935397
0.0014190002
0.002709851
0.0018462461
-0.0020077187
-0.003742704
-0.003136239
-0.0029804374
9.141246E-5
0.0028351261
0.001061277
9.554747E-4
-0.0017248157
-0.0064620543
-9.475577E-4
-4.9712585E-4
-0.010974528
-0.008396975
0.0013350032
0.0029434527
0.0020843202
0.0016747415
0.003450303
0.0040807948
0.0021219896
0.002835394
0.0019230813
0.0013344694
0.0033021437
0.0011732917
-9.0235553E-4
-7.5238844E-4
-4.6264767E-4
0.0011770749
4.552098E-4
-0.0015958147
-0.001544653
-0.0012774791
-0.0015844306
-0.0015329268
-7.1835733E-4
-0.0016151267
-0.0024691585
9.764398E-5
8.2384265E-4
-1.7833618E-4
0.001125504
7.381608E-4
-0.0010253824
-3.6739383E-4
3.0396308E-4
-5.241181E-5
6.6041196E-4
0.0011654985
8.437395E-4
0.0020266282
0.003107155
0.0013351642
-7.364301E-4
-2.147894E-4
0.0010821117
0.0013300203
8.49125E-4
-0.0010400311
-0.0022800346
-0.0014208868
-8.7109057E-4
-6.16869E-4
-0.0019711175
-0.0023458141
0.0013856799
0.0013487434
-8.0427586E-4
-2.8572886E-4
-0.0017146262
-4.544361E-4
0.0026355528
0.0011754994
3.3487735E-4
3.9482987E-4
-7.3004235E-4
-0.00151478
-0.0015862728
8.180013E-4
0.002282425
3.3071247E-4
-0.0013172291
-3.7383026E-4
0.0016779861
6.76934E-4
-6.2444154E-4
9.718565E-4
0.001048401
5.4804972E-5
-4.2128882E-5
-2.5596685E-4
-8.783796E-4
-0.00203332
-0.0012929918
0.001465886
0.0031564478
0.0019306915
-8.0890727E-4
-0.0012669576
-0.0012635294
-0.001730733
3.0936336E-4
0.0012056858
-2.8963858E-4
3.3141897E-4
0.0020500475
0.0018063531
7.453332E-4
9.078265E-4
0.0013287957
2.024766E-4
-0.0011443859
-0.001183074
-0.0014563565
-0.0012573913
4.1019727E-4
2.59218E-4
-4.5365057E-4
-4.2343094E-5
-8.4497593E-4
-6.4905867E-4
2.6174966E-4
-3.8326292E-5
-8.104994E-4
-0.002340281
-0.0011939924
9.567251E-5
-0.0018614844
-8.164251E-4
0.0010264606
4.966442E-4
9.0259494E-4
5.682743E-4
-1.0520278E-4
6.408186E-5
3.953433E-4
0.0010392143
0.0011880506
0.0015408178
4.207068E-4
-0.0014186411
-1.8100564E-4
8.2304137E-4
3.5899243E-4
2.8871602E-4
-1.9488431E-4
1.721844E-4
0.0012283537
0.0012829205
7.925345E-4
2.7941263E-4
-3.8329524E-4
-7.8061933E-4
-3.9866075E-4
-8.06438E-4
-0.0015877775
-3.504943E-4
0.0013789666
0.0020902916
0.00164504
-5.37153E-4
-0.0012745997
0.0012432989
8.3067996E-4
-0.002090687
-6.518993E-4
-1.0463387E-4
-0.0021575147
-0.0010553286
-4.3473227E-4
-5.7985913E-4
-4.543693E-4
-0.0013185776
1.2879589E-4
1.9216044E-5
-0.0018741043
-6.2216393E-4
3.1257738E-4
4.6824326E-4
-5.651754E-4
-0.002116316
6.037987E-5
7.9397234E-4
-9.94574E-4
-3.712829E-4
5.216146E-4
9.82298E-4
0.0012352829
4.7315823E-4
7.2251103E-4
0.001033293
-2.1858227E-4
-2.997042E-4
0.0017456862
0.0031748333
0.0030280345
0.002945832
0.0027497697
5.7949394E-4
-0.0014797831
-0.0015856005
-0.0010285594
0.0011049659
0.0024936951
0.001991552
0.0012877318
-0.0022759936
-0.0034598138
-0.0012768231
-0.0010879984
0.0016479394
0.0014308187
-0.0017731627
-0.001355007
-0.004486281
-0.002146697
0.0014457473
-0.009156711
-0.010701775
-4.8531473E-4
9.624181E-4
1.20204786E-4
9.301242E-4
0.0015293423
0.0018842696
2.233716E-4
5.9112895E-4
0.0013514746
4.512405E-4
-5.3619524E-4
-0.0010013571
0.0026077647
0.005594017
0.0024911552
7.08469E-4
0.0030820516
0.0034074837
0.0027786999
0.0036148115
0.0024558054
0.0022195359
0.0029914076
6.0642045E-4
-1.2860737E-4
2.501453E-4
-3.9612272E-4
3.332766E-4
-5.0844834E-4
-0.002568876
-0.0039432636
-0.0031474475
-0.0016822038
-0.004102798
-0.0032623971
-3.430905E-4
-0.0028546148
-0.0032198615
-0.001847941
-0.0011816901
0.001305997
3.7970694E-4
-7.5283344E-4
3.2123676E-4
-8.2674547E-4
-7.3958485E-4
2.963881E-4
4.5941438E-4
0.0012377347
4.57427E-4
-4.649066E-4
-6.202592E-5
7.401192E-4
0.0027374933
0.0027116484
0.0011233627
0.001887128
0.0013191383
-3.6433816E-4
4.2663212E-4
0.0010034301
3.898145E-4
-9.976804E-4
-0.0011974045
0.0012152496
0.0015303273
9.764543E-4
0.0020961734
0.001108286
-3.7501837E-4
-9.4010704E-4
-0.0022705854
-0.002172909
-2.2519144E-4
0.0011052641
8.180943E-4
1.2175092E-4
4.1683324E-4
0.0011874621
3.7249946E-4
-0.0016379813
-0.0014144791
-8.780497E-4
-0.0012474903
-2.9017345E-5
-9.376381E-4
-0.001913455
1.18026146E-4
-8.8895677E-4
-0.0017673132
7.255017E-4
0.0013776819
4.8791475E-4
3.3377373E-4
4.8389228E-4
-0.0011078457
-0.0024347664
-0.0018435544
-0.0023962513
4.9072165E-5
0.0031160605
8.308844E-4
4.7912687E-4
0.0012042527
8.095749E-4
0.002467138
7.104901E-4
-0.0016560187
-6.5430213E-4
-4.5822404E-4
4.6098977E-4
7.6377235E-4
-3.062772E-4
3.7929197E-4
4.0332472E-4
-5.5178016E-4
-0.0013337837
-8.036027E-4
0.0015665934
0.0010965152
-8.108044E-4
-6.090033E-4
-4.1584639E-4
-1.464437E-4
-6.780943E-4
-7.163414E-4
0.0015648186
0.0014282885
5.825948E-4
0.0029285874
0.004456169
0.0024411357
-8.9998293E-4
-0.0012477218
-5.896341E-4
-0.002303967
-0.002273621
-0.0011952865
-0.0010736788
-1.4950357E-4
2.4090716E-4
3.5958536E-4
4.1033232E-4
5.556819E-4
-5.6445962E-5
-0.0026690299
-0.0022948543
-0.0010628687
-0.0021688445
-0.0010762819
-0.0011165208
-0.0024054484
-7.7268976E-4
0.0010061089
0.0023863136
0.002805489
0.0019398627
4.900159E-4
-8.717175E-4
1.654577E-4
-2.2525917E-4
-0.0016079248
-2.2072355E-4
-6.90218E-5
4.4802058E-4
0.002204913
0.0016579826
0.0010483216
6.9722347E-4
-1.7099464E-4
-0.0011433086
-0.0018543738
-8.1157085E-4
4.045499E-4
6.2703347E-4
6.9045124E-4
8.5923454E-4
0.0010558484
0.0014603353
0.0027354653
0.0019318623
-0.0010095047
-0.0012444874
1.9612884E-4
6.241318E-4
-1.9091043E-4
-8.817777E-4
1.7037871E-4
4.4413944E-4
-5.799923E-4
-0.0016157052
-0.0018485241
-7.4447395E-4
-0.0025233945
-0.0035448093
0.001195555
0.003238627
0.0019765454
3.211768E-4
-0.0028424452
4.47963E-4
0.0018244848
-0.00873057
-0.010225721
1.12083E-4
0.003473798
0.002976506
0.002995822
0.0020278066
0.002679652
0.0021647853
6.3890085E-4
-5.3178635E-4
-0.0010391682
0.0019181212
0.0027055468
-2.1673158E-4
-1.6225268E-4
0.0012554455
0.0017913039
2.0959754E-4
-0.0030115412
-0.0013649545
0.0016796294
7.519356E-4
2.3894566E-4
2.0255124E-4
9.365494E-5
1.8561084E-4
-0.0016877275
-0.002035291
-3.9694534E-4
1.5592575E-4
6.431295E-4
1.8959977E-4
-0.0010805576
-0.0015486339
-0.0012353666
1.9657862E-4
0.0013813598
0.0010293251
-4.2305145E-4
-9.384049E-4
-2.1254797E-4
5.7855934E-5
0.0010634864
0.0010115331
-1.5708325E-4
6.828374E-4
8.1665517E-4
6.969664E-4
3.9152705E-4
-0.0011188539
-0.0014117805
-0.004057082
-0.00508823
-8.117725E-4
8.887542E-4
0.0026230577
0.0036020905
-5.544642E-4
-0.0016784968
1.5668596E-4
0.0015145275
0.0029094531
0.0016282474
1.5537378E-4
-1.7271929E-4
-3.8588897E-4
1.3063547E-4
-0.0011524274
-0.0013722605
0.0015479892
0.0013282096
-8.868366E-4
-7.997101E-4
-6.942966E-4
-1.4943189E-4
4.3616892E-4
-6.5096456E-4
-9.905149E-5
9.02847E-4
3.692336E-4
7.5076846E-4
9.276533E-4
3.241351E-4
-9.086721E-4
-0.0018833684
-0.0010947855
-0.0017222104
-0.0016068586
3.7183825E-4
-3.67081E-4
3.1018077E-5
0.0012271379
-3.9091745E-5
7.3092093E-4
0.0019246831
0.0016213356
0.0013744889
-4.1672902E-4
-0.0014539058
-0.0011194615
-0.0013611149
5.6868044E-5
0.0010068339
-1.5563502E-4
8.2347397E-4
0.0013453705
-2.9815905E-4
-3.2232385E-4
-0.0014352559
-0.001064564
0.0027986043
0.001977952
-6.358129E-5
6.210133E-4
-2.616746E-4
-6.6370226E-4
-6.3066365E-4
-9.2124275E-4
-0.0019477241
-0.003099112
1.9735903E-4
0.0013502961
-0.0012012485
4.645173E-4
9.5929345E-4
-0.0016590889
-0.0020090214
-4.8521775E-4
6.903014E-4
8.1855185E-5
0.001143933
0.0023482523
-4.1620884E-4
-0.0011689864
2.185231E-4
5.672554E-4
0.0019991004
0.0013664474
-7.162041E-4
7.4146903E-4
0.0024181611
0.0020446302
0.00187975
-5.3294054E-5
-0.0025012787
-6.2446395E-4
0.001608961
9.408514E-4
4.2417986E-4
-3.3510485E-4