0.001607646
3.2294373E-4
7.281133E-4
0.0014570295
0.0014855596
-4.081741E-4
-0.0016313591
-0.0018274267
-5.730525E-4
0.0024540627
0.0013692431
-9.448357E-4
-0.0029367509
-0.0028779004
0.00295287
-0.0033513724
-0.014395982
-0.005355573
0.003509993
0.0018306153
0.0022453978
4.479153E-4
-7.6933973E-4
2.4129437E-4
-9.285398E-4
4.11405E-5
0.0014282048
0.0013021268
0.0012782553
0.002132072
0.004024894
0.0031201232
0.00207992
0.0024304164
4.130413E-4
-9.2166086E-4
-0.0018144156
-0.0021705423
1.9091048E-4
-1.4739427E-5
-0.0022236386
-0.0021076715
-3.702061E-4
0.0010033527
-6.546454E-6
3.108077E-5
9.893851E-4
-0.0011084058
-3.516994E-4
0.0032510604
0.0017519762
-0.0020693305
-0.0028176503
-9.915981E-4
0.0010889926
0.001768065
0.0018511686
0.001906726
9.493612E-4
-0.0012087774
-0.0021872967
-7.232781E-4
3.240582E-5
6.6973844E-5
1.342255E-4
-0.0013605548
-4.2012904E-4
6.710528E-4
-0.00333297
-0.0033899776
8.2945265E-4
9.385491E-4
0.0011741458
0.0013771856
-3.630461E-4
-3.0789033E-5
-6.575414E-4
-0.0012097062
5.959863E-4
3.4769767E-4
-3.6685608E-4
-4.7517117E-4
-7.8087463E-4
7.2706514E-4
0.00150883
5.7053263E-4
-2.988769E-4
-0.0010975613
-7.4459123E-4
7.611715E-4
0.0015520686
6.064314E-4
5.9088785E-4
0.0017629375
4.7837148E-4
4.6364393E-4
0.002994738
0.00210255
-4.4605255E-4
-7.1633153E-4
-3.4205473E-4
-8.4795774E-4
-0.0013549974
-0.0013676442
-0.00150468
-5.3671596E-4
0.0010673413
7.72008E-4
-0.0012133428
-0.0022615688
-9.76484E-4
-7.496561E-4
-0.0015066686
-3.8896652E-4
-2.5315E-4
-1.002751E-4
9.4488624E-4
5.716523E-4
0.0018597664
0.0027802053
9.202182E-4
-2.3589902E-4
-0.001480464
-0.0013824845
3.594392E-4
-4.244513E-4
-3.5488198E-4
0.0019851672
0.0019409371
1.2230662E-4
-0.0012631594
-0.0010886212
6.8533845E-4
8.926981E-4
-4.6547115E-4
-0.0010377027
-0.0010735779
-8.044471E-4
-9.3381567E-4
-4.7644816E-4
0.001747025
0.0020147797
-8.1677135E-5
-8.1086886E-4
1.9298877E-4
7.538068E-4
-5.509E-4
-0.0012359665
-5.4727145E-5
4.6314954E-4
-3.7508953E-4
-0.0013221684
-7.642246E-4
-1.5681592E-4
-1.374053E-5
0.0016884034
0.002062212
8.246922E-4
-3.9351443E-4
-0.0012069448
0.0012499812
0.0014379591
-0.0021832315
-0.001245638
9.230377E-4
0.001108515
0.0023260498
0.0012971999
-8.2840514E-4
5.5418134E-4
0.0018835797
-9.6653955E-4
-0.0035738787
-0.0026079568
-0.0017297646
-4.1916344E-4
9.087273E-4
1.8865104E-4
0.0019471459
0.003690437
0.0020950648
0.00111952
-2.345334E-4
-0.0012378206
-0.0012651653
-0.0021184317
-0.002221617
-0.0036857442
-0.0034691135
3.995053E-4
5.3009583E-4
3.1966614E-4
0.0021845957
0.0013943696
9.960352E-5
-0.0011148689
-7.521937E-4
7.899648E-4
-5.2696903E-4
-0.0011037573
-1.935556E-4
7.3405675E-4
0.0013480772
3.179609E-4
0.0019466984
0.003898
0.002632598
0.0018481822
2.9063836E-4
8.3120016E-4
0.0038221984
0.0018618458
-3.5967887E-4
2.7258813E-4
-0.002030757
-0.0033860244
-0.0023971172
-0.006111143
-0.005184186
0.0034616578
-0.0020432791
-0.011870379
-0.0037604887
0.003735725
0.0031601635
0.0030341987
-2.77406E-4
-5.5406324E-4
0.0016795147
0.0012762855
0.0027761445
0.002855637
0.0015536239
4.0905472E-4
-0.0012072178
0.0012211166
0.0035095515
0.0032476203
0.0033096443
0.0021951967
9.341344E-4
-0.0010940564
-0.0022227403
-0.0012249388
-0.0025402554
-0.0030520775
-0.002574802
-0.0035128437
-0.0015076332
2.827842E-4
-2.8911684E-4
-9.917258E-5
-5.4994266E-4
-5.7559897E-4
2.838197E-4
7.5167464E-4
0.0014357761
0.0012108356
8.040373E-4
2.0600547E-4
-0.0010756558
-4.685266E-4
6.9139525E-4
7.9666654E-4
5.7556696E-4
-3.876084E-4
-0.0015449583
-0.0022017332
-4.1504775E-4
0.0020184955
0.0012929341
0.001000834
6.400628E-4
-0.0011361708
-1.703216E-4
5.734608E-5
-4.4403423E-4
9.2948944E-4
-0.001085092
-0.0022328175
0.0011079193
0.0016826567
6.9458364E-4
0.0020694453
0.0032195684
0.002348069
3.7364525E-4
5.057417E-4
0.0022363174
2.5926766E-4
-0.0028360372
-0.0014970021
-0.0010266117
-0.003918959
-0.0038787308
-0.0015877198
-7.733027E-5
8.944175E-4
4.0777738E-4
8.2508574E-4
0.0020712814
9.832854E-4
-4.5158723E-4
-0.0015243375
-0.0027985452
-0.0025740128
-8.332313E-4
6.756837E-4
1.3951385E-4
3.1316245E-5
0.0024391133
0.0026486563
-2.5354055E-4
-9.696702E-4
0.0012934711
0.001991311
3.3926129E-4
3.9900772E-4
0.0013932762
0.001348883
0.0014786954
-1.3929063E-4
-0.002436507
-0.0023287684
-0.0020461783
-0.0011387812
8.8991824E-4
0.0010252189
9.264416E-4
0.0012637376
4.8319905E-4
7.232912E-4
8.639472E-4
1.7670294E-5
7.9445034E-4
0.0011281186
5.43177E-4
2.9801162E-5
-0.0020626255
-0.0023907686
-5.435908E-4
-7.20074E-5
5.252006E-4
8.1644836E-4
1.7410029E-4
-9.3683007E-4
-0.003121767
-0.0030540302
-0.0016084212
-0.0013077101
-2.4164412E-5
4.3446914E-4
9.632922E-5
1.8845219E-4
-7.5462466E-4
7.625113E-4
0.003272097
0.0025675532
0.0024998449
0.0024261177
6.2422873E-4
9.892825E-4
0.0020275197
0.0015371467
0.0011835708
4.0010083E-4
-0.0015763603
-0.0034689186
-0.0033457486
-0.0017026492
-6.2890426E-4
-4.5042357E-4
-0.001080147
-3.5302117E-4
0.0010775231
-1.7450159E-4
-9.6993486E-4
-9.874786E-4
-0.0020625957
-0.00104799
1.495185E-4
-1.393604E-4
4.307204E-4
0.001626605
0.002859168
0.0029578041
0.0025076657
0.0019322389
-3.349824E-5
-5.6351424E-4
6.6683703E-4
4.2964602E-4
-0.0011152322
-0.002695271
-0.004299993
-0.004770579
-0.0015454435
0.0017352734
5.69302E-4
-0.0013891509
-0.0018748689
-6.999655E-4
0.0015847641
0.0013289056
4.666801E-4
0.0027330418
0.004815587
0.004220825
0.0037341476
0.0031255996
0.0011408315
3.468075E-4
6.780259E-4
6.6667335E-4
-8.9868484E-4
-0.0023568415
-0.0011119674
-0.002179444
-0.0034640708
-0.0018597429
-0.0012340981
0.0016489257
-4.6857097E-4
-0.004771605
0.002142665
-8.5614924E-4
-0.012436979
-0.006088539
0.0020592716
2.7492852E-4
4.5804746E-4
0.002483638
0.004022299
0.004090494
0.0031641193
0.0027770135
7.921666E-4
-0.0013217439
-2.1508208E-4
0.0012855916
2.3693618E-5
0.0012176061
0.0023489057
-0.00217193
-0.0022842912
7.6244795E-4
-6.3762267E-4
-2.1658771E-4
-1.16148425E-4
-0.0020171576
-5.927084E-4
7.5035286E-4
-1.9271896E-4
-6.766594E-4
0.0011356458
0.0028203737
0.0024865163
0.003642266
0.00361247
0.0012986131
0.0016871342
2.3851093E-4
-0.0036929203
-0.0026857865
-5.505807E-4
-0.002222279
-0.0041495515
-0.0046236655
-0.0032157395
-1.2906645E-4
0.0019257142
0.0023500149
0.0018136924
6.4241834E-4
-8.380047E-4
-0.0017972693
-0.001121214
-0.0011404499
-0.0024327126
-0.0017577666
3.6383726E-4
0.002105481
0.002859676
0.003056476
0.0036486785
0.002620007
2.0806602E-4
-8.6273707E-4
-4.1721112E-4
8.624044E-4
3.2785893E-4
-0.0021129104
-0.0020928108
-1.9993052E-4
3.982431E-4
8.6086337E-4
9.582285E-4
-7.619246E-4
-0.0016377056
-0.0012078085
-7.2971225E-4
8.801264E-5
-9.5424085E-4
-0.0017695563
2.5925614E-4
0.0013499969
0.0015121466
8.297475E-4
-0.0011075303
-6.965935E-4
-4.2878604E-4
-0.0017721121
-6.424486E-4
0.0012304407
0.0019779508
0.0024394416
0.0013847685
4.8673735E-4
5.4461585E-4
-7.7189616E-4
-5.2642456E-4
0.0012337032
-5.77214E-4
-0.0019858656
2.0203564E-5
0.0014110559
0.0019586207
9.898808E-4
-8.659365E-4
-9.4614306E-4
-6.102512E-4
2.8282977E-4
0.0012618118
0.0018549071
0.002006981
-6.636297E-4
-0.0012047214
-2.5027784E-4
-0.0038461124
-0.003648547
-6.5500055E-5
-0.001115644
-0.0012555561
-5.2249274E-4
-0.0017983993
-0.0025965404
-0.0031780528
-3.7706707E-4
0.00444649
0.005748549
0.00503393
0.0023889875
-0.0017393285
-0.004975295
-0.0062730336
-0.0034720658
-8.218319E-4
-0.0010742059
-6.5424965E-6
9.7259413E-4
0.0019750253
0.0046552136
0.0056212223
0.0055512614
0.005007611
0.0038120092
0.0032164156
-2.241611E-4
-0.0039780973
-0.0031040017
-0.0017352743
-3.4043717E-4
0.0013848507
-2.536101E-4
-0.0014930085
-7.994405E-4
-0.0012281564
-1.09509645E-4
0.0017050708
0.0012476448
0.0019995149
0.0032088407
0.0011486711
-0.0015031085
-0.003019886
-0.005246865
-0.006375123
-0.0036698629
2.8204123E-4
0.0014241688
2.4153979E-4
-0.001237252
-0.0017533748
-3.9572868E-4
8.409365E-4
5.7783414E-4
0.0013332076
0.0019536137
9.776435E-4
7.7552587E-4
5.5899605E-4
-0.0015158358
-0.002994122
-0.0014091906
-0.0015406912
-0.004967274
-0.0040157335
-5.420471E-4
9.667212E-4
0.0031291905
0.00385677
0.004220953
0.005090842
0.0034808186
0.0015420822
-9.558083E-4
-0.0024212566
-3.1814747E-4
0.0035828305
0.0052464893
0.002798535
0.0020414987
6.1209255E-4
-6.7592517E-4
0.0011827204
-8.1866304E-4
-1.8467211E-4
-0.0021867047
-0.0065372908
0.0015471786
-0.0025501596
-0.01402552
-0.0023596368
0.010329003
0.0086982995
-0.0021540083
-0.012257097
-0.0030131491
0.0043558567
-0.010551602
-0.01099161
0.010071075
0.0037847855
-0.008775444
0.011781728
0.015803413
-0.0020652907
-0.0010214731
0.002284557
-3.2018448E-4
-5.01534E-4
0.0011769778
0.0034019588
-0.0028507423
-0.010818034
-0.0052104574
0.013963724
0.018396894
-0.0019523804
-0.011927951
-0.0077671763
-0.004362418
-0.008277447
-0.015926095
-0.0022898796
0.009530586
0.0016870743
0.0016750984
0.0027027342
0.0021098354
0.0039786776
2.862611E-5
-0.006110972
-0.011457346
-0.0038911647
0.007227468
0.011448103
0.015780838
0.0061694793
0.005049704
0.012674408
-0.0060195616
-0.0068354346
0.012291383
0.0018092303
-0.009514205
-0.00481332
0.0021980454
0.0088783195
-1.23824E-4
-0.005137406
0.0056605926
0.0012502712
-0.005609281
-0.005878451
-0.014275194
-0.008997116
-0.0012154265
-0.0065378873
-0.0073829303
-0.016383428
-0.014997342
0.0074670417
0.009318348
0.00401135
0.0057909577
0.0019755494
0.0029368366
0.0029715612
0.0017948062
0.0021489065
2.611816E-4
0.004055839
0.0035789341
-2.7165707E-4
0.001505565
0.0025932044
0.0050385864
0.0059528034
0.0057364446
0.0069455723
0.0039449697
0.0010976146
-8.856396E-5
-2.2469868E-4
-0.002003762
-0.007851106
-0.008437805
-0.0057562776
-0.0046560513
-0.0020475711
9.3342894E-4
0.0023025144
0.0015493054
0.0035807576
0.0054252413
0.0024866932
0.0015458652
0.0012441427
-9.851818E-4
-0.0036492178
-0.005425985
-0.0047269827
-0.004459504
-0.0024979322
-6.212906E-4
-2.4310488E-4
0.0023357454
0.001069418
0.0019553115
0.003177819
-0.007453772
-0.008405557
0.002434723
0.002977355
4.2585027E-4
-5.803365E-4
-7.782188E-4
5.3237815E-4
-9.2392374E-4
8.433187E-4
0.0017317745
-9.790205E-4
0.0026241643
0.00634794
0.008341074
0.010874781
0.0061009624
-8.7169034E-4
-0.0040965597
-0.005210882
-0.0028096621
-0.0012636924
-0.0041909097
-0.0065954253
-0.004980052
-0.0016878879
-4.8497948E-4
-0.0015088842
-9.844322E-4
0.0019683924
0.0021650044
-9.145153E-4
-0.0011325777
0.0014531047
0.0022211636
0.0010611201
5.2149E-6
-2.9671594E-4
4.1604938E-4
0.0010916522
0.0011496054
0.002493759
0.0032654298
0.002759908
0.0051269648
0.006799296
0.004147968
0.0018865104
3.7412357E-4
-0.0026959763
-0.0060977396
-0.008035167
-0.0071949977
-0.005966764
-0.0063546165
-0.0049187643
-0.0015739121
6.004306E-4
0.0021531316
0.0019886454
-1.3998045E-4
-0.0018870683
-0.0043561487
-0.0038628827
0.0021891638
0.006082959
0.0058994708
0.004436596
0.0017272054
-7.6777005E-4
-0.0021201351
-0.0017034503
-4.7329057E-4
0.0018488391
0.0042961068
0.002310378
9.5823285E-4
0.002772705
0.0040232297
0.005406538
3.635646E-4
-0.008001096
-0.0078037353
-0.0033811491
2.0932296E-4
3.109099E-4
-8.175246E-4
0.0033602214
0.0050937836
0.0017805416
-1.0936544E-4
0.0011561809
0.004264029
0.0012341408
-0.0046158745
-0.00458298
-0.0035434293
-0.0015697744
0.0014129673
0.0011796737
-1.7754908E-4
-0.0010604395
1.9171661E-4
0.0018555649
-3.403411E-4
-0.0032781803
-0.0020085105
0.003799701
0.007261936
0.0040234653
6.2774174E-4
-8.3913334E-4
-0.0036022547
-0.0052813133
-0.0074702897
-0.0115157245
-0.008307358
-7.4639736E-4
0.0016795335
0.0050719525
0.008436657
0.00808283
0.0073665464
-0.0021289175
-0.015181635
-0.016743176
-0.013818908
-0.010140499
-0.0022383446
0.0041328426
0.0077867075
0.013393653
0.018590758
0.016184444
0.006644269
-0.0032697052
-0.005263667
0.0021038165
0.0053192894
0.0018791477
0.0018599306
0.0023680571
3.74113E-4
-0.0014728423
-0.005971361
-0.015148247
-0.020492548
-0.014017591
-0.0056419037
-0.0021708433
0.001672915
0.0044994773
0.0072539635
0.012090788
0.016203389
0.020804001
0.023404662
0.019329349
0.009668809
-0.0010946626
-0.007173926
-0.010959133
-0.016988948
-0.020449433
-0.019672953
-0.01605537
-0.009617505
-0.006381794
-0.005319519
-0.0019044866
-0.002458525
-0.0045033228
-0.0016173453
0.0021712712
0.0079353545
0.013356566
0.011079398
0.0067309462
0.00538686
0.0047256453
0.0047804876
0.0049944255
0.004636283
0.002762592
-0.0044114175
-0.011718042
-0.0059408075
0.00659278
0.0075400798
-2.8413933E-4
-0.00955326
-0.024051119
-0.03497837
-0.031800024
-0.024823187
-0.016922612
0.0028001692
0.029383527
0.054686457
0.07207149
0.06974374
0.057021428
0.046741165
0.037302293
0.03721995
0.043585636
0.024601031
-0.033440754
-0.09318717
-0.11755693
-0.112718746
-0.08836058
-0.058016498
-0.043615717
-0.03179947
-0.0019143486
0.041165315
0.071419045
0.066260196
0.04509769
0.027938293
0.021860803
0.033332217
0.027774407
-0.013417058
-0.053359058
-0.06993734
-0.07171363
-0.05347446
0.0026802125
0.065336116
0.09916347
0.11480954
0.09654736
0.052677814
0.030467989
0.022246443
0.005445096
-0.025863497
-0.07558651
-0.1502941
-0.22721589
-0.24578561
-0.21170172
-0.13146642
0.005554891
0.12911485
0.22069353
0.27035388
0.24812832
0.23325205
0.2224458
0.14649361
0.041986007
-0.065817356
-0.17518663
-0.2763958
-0.3287075
-0.26309872
-0.113750815
0.033846863
0.1415346
0.191116
0.18326639
0.15036288
0.12005257
0.062982604
-0.024109054
-0.092807576
-0.12869444
-0.14466938
-0.18182619
-0.21563372
-0.16947529
-0.07879794
0.009600637
0.0692402
0.093929835
0.14996287
0.19465458
0.16893506
0.12766553
0.075321965
0.023174977
4.5569014E-4
-0.038788233
-0.10149406
-0.11071476
-0.038857147
0.012281746
-0.017792903
-0.045982584
-0.0032249403
0.08573
0.11892649
0.04791455
-0.03918909
-0.078018025
-0.062247675
-0.005448981
0.030857421
0.013078692
-0.03202259
-0.07043657
-0.09322897
-0.08550148
-0.03850814
-0.011472466
-0.011438502
0.021226618
0.06861892
0.102992594
0.10805457
0.06420342
0.020859659
-0.0025205263
-0.027959734
-0.02706946
-0.0017697781
0.00591499
-0.005176042
-0.011853583
-0.011800119
-0.013390182
-0.014407311
-0.023008646
-0.023451796
0.008676157
0.02283677
0.0056934333
0.013703062
0.021746658
-0.00942782
-0.039168414
-0.02561024
0.021954374
0.04997198
0.02807794
-0.0073227347
-0.017664852
-0.011034544
-0.009604783
-0.009932787
-0.0059740953
-0.006101762
-0.009198218
-0.010800514
-0.010320398
-0.008925747
-0.010457331
-0.011195272
-0.007866036
-0.0030524589
0.0028912167
0.009700815
0.014057651
0.01599173
0.020831347
0.023591176
0.01896999
0.0149127375
0.012447192
0.009491236
0.0063430443
8.5687113E-4
-0.003380932
-0.0052909
-0.0067983544
-0.007974549
-0.009590794
-0.009070457
-0.005779978
-0.0031129743
-0.0032088745
-0.0033911585
-7.621393E-4
0.0012390093
0.0017725605
0.002133522
0.0036115432
0.007000775
0.006514719
0.004249136
0.004168846
0.0020483388
-3.9894477E-4
-0.0038093938
-0.008510164
-0.010548371
-0.012959633
-0.013847482
-0.0108539285
-0.007113318
-0.0032286893
-0.0027161073
-0.0030130094
9.252436E-4
0.0045913868
0.005752615
0.0045251003
0.0020400127
0.0016820633
0.0024744836
0.0020590415
0.0012511115
0.0037370261
0.008018503
0.009661306
0.009722018
0.0073933103
0.0028740729
3.6181914E-4
0.0040109633
0.011025567
0.008416423
-3.068471E-4
-0.0037322047
-0.007288325
-0.010287753
-0.009454286
-0.0069745122
-0.0039040428
-0.0064150817
-0.008216419
-0.0038659105
-0.004498917
-0.008874015
-0.009271259
-0.0029779368
0.00719128
0.011587488
0.011360985
0.010957914
0.00954587
0.0045855376
-0.0021666382
-0.0017862298
-0.0017799704
-0.0070220456
-0.0061006355
-0.0033110138
-6.8374875E-4
0.0046057324
0.006183235
0.0072122714
0.006901602
-2.6095884E-5
-0.0059556393
-0.006201534
-0.0040941234
-0.0018836067
-7.9443475E-4
-0.004294337
-0.0066963146
-0.0014681899
-5.8857264E-4
-0.0046291985
-0.0034259444
-0.0018295374
-0.0032840476
-0.003574765
0.0015604144
0.007224189
0.0077279536
0.008478531
0.009081882
0.008509424
0.008207839
0.0048555788
3.5696707E-4
-0.0043254555
-0.008391452
-0.009380941
-0.0056547667
0.0021863943
0.0055698804
0.005782517
0.004243912
-0.002153348
-0.0050352504
-0.004750691
-0.0024365273
0.0011199696
0.0016195973
0.001461417
-0.009413859
-0.021251487
-0.014233686
-0.0023587048
0.0058056503
0.0106995115
0.011450349
0.0021747076
-0.010081849
0.002779197
0.011112273
-8.864208E-4
0.0029615348
0.0025284304
-7.424E-4
0.011326071
0.008014077
-0.0014944599
-0.004809225
-0.006576594
-1.6097618E-4
-0.003024215
-0.006345455
0.0074207145
0.012695123
-3.4079704E-4
-0.008667292
-0.0064960425
-0.0071786777
-4.4969568E-4
0.002755815
-0.01255719
-0.0015212304
0.015763666
-5.223617E-4
-0.002068677
0.0027392367
-0.009888776
-0.011374919
-0.0051253666
0.008878144
0.009949359
-0.0052101417
0.01188547
0.016091213
-0.0104452865
-0.0023827641
0.0054329657
-0.0063320235
5.4345954E-5
0.0022334605
-0.006070314
-0.007622481
0.004022393
0.015527416
0.001253586
-0.0033748322
0.004857051
-0.008477933
-0.0033158392
0.009687305
-0.0066666957
-0.006419141
0.0064985687
-0.0035557467
-0.0090597365
3.9561375E-4
0.007837955
0.014490526
0.006400722
-0.016851038
-0.013672419
-1.3127325E-4
-0.01023153
-0.004340727
0.014723181
0.012699623
0.008991691
0.004968143
-0.002916293
-0.0027410083
-0.0028310365
-0.0037067533
-0.0031926353
-0.0027698153
-0.0010350739
-4.938859E-4
5.10555E-4
6.709215E-4
7.9200853E-4
0.0013812355
-7.0955364E-5
0.0010448018
0.002405542
0.0014797568
-4.858039E-5
-0.0020301107
-0.0013656908
-0.0014642412
-0.0020010504
-0.0010723341
-0.0027847255
-0.0032305836
-0.0027610452
-0.001929173
0.0021854206
0.0039698817
0.0034004273
0.0032346065
0.002172814
0.0010079793
0.0014460202
0.001399349
-4.4539117E-4
0.0016927205
0.0028409744
-9.379014E-4
9.1522044E-5
0.0017404876
-2.6835522E-4
-9.736362E-4
8.42962E-4
0.0032214264
0.0013687921
0.0010985346
0.0010866873
-0.0025592623
-0.0014962847
-0.009149331
-0.017489059
-0.0037487296
0.0052105295
0.0012948888
0.0019052086
6.8158226E-4
-7.0363184E-4
9.3422634E-5
-6.76595E-4
-2.0405272E-4
6.411559E-4
0.0014969866
0.0015096396
0.0022910899
0.0032701024
2.8780036E-4
2.7722138E-4
0.0024319068
6.3887925E-4
8.391353E-4
0.0026981768
0.0010750724
-0.0012007144
-4.4446441E-4
4.1611397E-4
-3.0097718E-4
7.042923E-4
9.7654905E-4
-9.6838485E-4
-0.002290114
-0.0025244649
-0.0012714232
-8.6399534E-4
-6.602243E-4
7.9008826E-4
3.7620196E-4
1.7186515E-4
0.0011355621
0.0010991618
-1.1884833E-4
-0.0016939564
-0.0016117819
-0.0022165754
-0.0026413966
-9.385841E-4
-5.703292E-4
7.4270234E-4
0.0018650095
6.488751E-4
-5.2815286E-4
-0.004177908
-0.004615454
-4.65308E-5
1.6354395E-4
-3.922667E-4
0.0015943573
0.002600492
0.004670934
0.0068043233
0.0048473114
5.650472E-4
1.02782156E-4
0.0024473916
7.9685723E-4
-0.0039060118
-0.0055252304
-0.0021112354
8.217618E-4
-2.4265079E-4
-4.938862E-4
8.793703E-4
0.0013324592
0.0010204647
7.113247E-4
0.0017320296
0.0018581464
-4.1585346E-4
-0.0022077227
-0.0026905022
-0.0043092943
-0.0058208695
-0.0018023384
0.0013763708
-0.0013703853
-2.3230595E-4
0.0021608544
0.0016168489
0.0031532652
0.0019830258
-1.03045284E-4
6.074979E-4
-9.988307E-4
-0.001298265
6.4731354E-4
4.036711E-6
-0.0011412775
-7.3017436E-4
-4.4170534E-4
-9.222618E-4
1.126018E-4
0.0014028783
0.0013556703
0.0017914309
7.321324E-4
-5.3058615E-5
0.0013994965
0.0019083245
0.0028515866
0.0020213644
-0.0012976433
-8.5832895E-4
2.154738E-4
-8.502073E-4
-5.214213E-4
-4.6763758E-4
-6.971529E-4
6.2832005E-5
-8.6383254E-4
-0.0015595024
-3.68147E-4
-7.938998E-4
-0.0012982854
-3.5697434E-4
-7.4677827E-4
-0.0010938528
-4.72774E-4
-6.6793256E-4
-0.0013988151
-9.1673015E-4
-2.9092768E-4
-0.002940713
-0.0030698027
0.0021836858
0.0033728306
0.0023394474
0.0034318683
0.0016306881
-4.8241546E-4
5.964685E-4
0.0020351468
0.0013926552
-8.847435E-5
4.897023E-4
0.0012496349
0.0022419586
0.0033190036
0.0012541225
-7.2768057E-4
-0.002614816
-0.0045412984
-0.0016228616
0.0012395404
-2.5874385E-4
-0.0019744337
-0.0019392656
-0.0014374377
-0.0016038225
-9.7658E-4
-7.886568E-4
-0.0015322291
2.7557925E-4
0.0014332647
1.5163004E-4
-4.926814E-4
-8.858486E-4
-1.6062299E-4
0.0010549113
0.001126424
9.188165E-4
1.4458038E-4
5.5680703E-4
0.0019603819
0.0016551738
0.0013031216
0.0015815753
0.001361178
7.0906535E-4
-2.671593E-4
-7.401188E-4
-7.187783E-4
7.749784E-5
0.0011276208
-4.2631663E-4
-0.002215152
-2.9824913E-4
0.0014021668
-4.2899707E-4
-0.0018668117
-3.3658452E-4
5.183429E-4
-0.0010133135
-0.001086537
5.560658E-5
-1.9267846E-4
4.5295645E-4
9.981015E-4
-7.649019E-4
-0.0018804104
-0.0015540977
4.712615E-4
0.0035002388
0.0024843055
-9.3797606E-4
-0.0013876171
-9.646065E-4
-0.002000387
-0.0017730915
4.7271184E-4
0.0013347055
6.370164E-4
6.318493E-4
5.2408254E-6
-6.798023E-4
-4.856093E-4
-6.3562463E-4
9.805133E-4
0.0024955464
7.9663744E-4
-1.6496466E-4
9.496743E-5
8.091887E-5
2.3791021E-4
-7.849767E-4
-9.691004E-4
4.1490028E-4
8.848729E-4
4.7026787E-4
-3.9756118E-4
2.9122116E-4
0.00154066
-1.14179704E-4
-0.0012255312
5.150308E-4
0.0015310664
3.1117196E-4
-2.9650953E-4
0.001075253
0.0010682989
-4.598169E-4
-0.0017289663
-0.0024459602
-0.0010453793
-1.4641826E-4
-7.0403033E-4
3.4356848E-4
4.9528724E-4
-8.5832307E-4
-8.366505E-4
1.811549E-4
5.7780585E-4
1.8433073E-4
9.356855E-4
4.2149477E-4
-0.0020988104
-4.345624E-4
0.002681129
0.0016185939
-3.4712657E-4
-6.213486E-4
-3.425799E-4
-0.0012333277
-0.002233653
-0.0017393971
-6.978102E-4
1.9326566E-4
-9.1593683E-4
-0.0015104908
7.6266535E-4
7.6241087E-4
-5.774097E-4
-4.148413E-4
-4.7891182E-5
8.3164417E-4
0.0011450627
0.002031404
0.0019581893
-3.6444173E-5
0.0015733731
0.002660159
9.815327E-4
9.166468E-4
8.3348143E-4
0.001980892
0.0017299368
4.349295E-4
0.0033291643
0.0030878691
7.4580783E-4
-8.232401E-4
-0.0033226712
-6.9362175E-4
-0.002342723
-0.004590882
0.0028718808
-0.0041055907
-0.015745457
-0.005932592
0.002300772
0.0010445808
0.0018926123
3.8367385E-4
-6.141923E-4
6.6403055E-4
5.579309E-4
4.266295E-4
0.0010045428
0.0016073675
7.0748496E-4
7.9205126E-4
0.0021616481
0.0012438034
5.1742414E-4
0.0011354063
0.0023217932
0.0029861552
9.6688746E-4
-6.3826545E-4
-6.1278127E-4
1.0507725E-4
0.0012681311
2.172767E-4
-0.0010886267
-6.873195E-4
-5.055062E-4
-2.0343019E-4
-5.924187E-4
-0.0016859839
-5.7412277E-4
0.0014267975
7.5274665E-4
-5.348654E-4
5.6072767E-4
0.0013993166
6.8839645E-4
2.1409882E-5
-6.6676614E-4
6.769615E-5
0.002464877
0.002429657
-7.683331E-4
-0.0031836121
-0.0034651177
-0.0023252543
-8.4166566E-4
-0.0012553916
-0.0016119567
1.9628099E-4
0.0013103418
0.0016674361
0.0012620596
-0.0013898575
-0.0026082403
-8.764558E-4
2.592176E-4
-1.3229832E-4
-6.781159E-4
-4.224705E-4
7.304175E-4
0.0013111109
8.188136E-4
0.0013222856
0.002097666
8.916819E-4
-7.0978596E-4
-0.0011595619
-6.89955E-4
-6.3021114E-5
-4.3782254E-4
-7.130677E-4
4.7362238E-4
0.001099307
-2.661191E-4
-6.717138E-4
0.0011326524
0.0019734893
0.0015670953
0.0017182755
0.002343116
0.0028928781
0.0018894381
-3.509949E-4
-0.0013070285
-0.0020521563
-0.0039362498
-0.003071387
5.433687E-4
0.0013783851
0.0012435812
0.0020655016
2.8821445E-4
-0.0015637559
-0.0018453783
-0.0019145311
-8.5778E-4
-6.6986645E-4
-2.0656757E-5
8.2092785E-4
-0.0021792317
-0.0032216941
1.11592935E-5
0.0010231566
-7.685838E-4
-0.0012109013
9.132236E-4
0.0013747035
5.7113724E-4
0.0013380332
1.2802925E-4
-7.443284E-4
8.3406334E-4
0.0013187963
0.0019557572
0.0013211523
-9.939296E-4
-0.0015120618
-9.774031E-4
0.0014206077
0.003240251
5.473891E-4
-6.619592E-4
0.0016950337
0.0011530917
-0.0010459028
-3.4913835E-5
2.3863417E-4
-0.0019772078
-0.0015556413
3.890143E-4
7.232046E-4
-2.2153938E-4
-0.0016373704
-0.0011192199
-1.7098631E-4
-3.7647405E-4
6.5762765E-4
0.0010970334
-1.7481041E-4
-8.645861E-4
-8.441572E-5
9.452755E-4
-8.2597404E-4
-0.0023547993
1.703309E-4
0.0015904029
8.575648E-4
0.001320353
0.0012060507
8.1846677E-4
6.7624805E-4
-0.0010927538
-0.0015637862
-0.0010561855
-0.0023769166
-0.0014001799
1.6410343E-4
-0.0013109572
-8.5030356E-4
8.7185274E-4
0.0017138964
0.002542884
4.5822866E-4
-0.0014648288
-8.930312E-5
0.0012482149
0.0010779278
-0.0014090382
-0.0030582242
-0.001179197
4.971068E-4
8.1746513E-4
8.988273E-5
-2.964832E-4
0.0011366471
0.0016336598
0.0016328578
0.0019181409
7.2161265E-4
3.4154876E-4
0.0011550515
-1.5455644E-4
-0.0015557945
-1.7446633E-4
1.6963764E-4
-6.258709E-4
0.0010834538
0.0011296272
-4.4777113E-4
3.033156E-4
-2.8930735E-4
-2.6470053E-4
0.0020098477
0.0012177948
1.6530124E-4
-3.1708027E-4
-0.0023625444
2.7590248E-4
0.0051163803
0.0011430612
-0.008538247
-0.010311958
-0.0028949438
0.0014012015
1.2363914E-4
-3.3846646E-4
-0.0013703939
-0.0027033803
-0.0010655929
6.066364E-4
0.0012320235
0.0022825305
0.0026600112
0.0017943328
9.96778E-4
8.3202077E-4
-1.0242881E-5
2.5223315E-4
0.0022980138
0.0023219562
7.105837E-4
-0.0012378321
-0.0011575206
0.003055906
0.004468005
0.0023055212
0.0014003676
-5.4241973E-4
-0.0017025234
-3.8785435E-4
1.1895951E-4
-6.042064E-4
-0.0010038051
1.7082787E-4
2.602637E-4
-3.0238554E-4
-2.9564E-4
-0.002959721
-0.0031286466
-7.228795E-4
-0.0010050136
5.8942416E-4
0.0012951902
-4.810453E-4
2.8352483E-4
6.489307E-4
8.352187E-4
7.312655E-4
-0.0011747988
-0.0021008705
-0.0017962238
6.532717E-4
2.043598E-4
-0.0037012529
-0.0018482654
3.8232366E-4
-2.1988615E-4
6.311593E-4
-6.911402E-4
-0.0010372418
0.0013196438
0.002141541
0.0016039546
-4.0670412E-4
-3.7064086E-4
0.001740652
0.0011866668
8.277936E-5
-3.375039E-4
-7.474783E-4
-4.6371104E-4
6.687106E-4
0.0021180743
0.0014581218
2.2032773E-4
5.6663645E-4
8.7022485E-4
0.0014374416
0.0015175651
-4.171657E-5
-4.6702652E-4
7.009034E-4
7.8198056E-5
-6.5718516E-4
6.874311E-4
-3.8940998E-4
-0.0015933111
-2.711858E-4
-0.0019833562
-0.0021303615
7.6423876E-4
-7.629688E-4
-0.0017018948
1.8301266E-4
3.2132346E-5
3.6472793E-5
5.238097E-4
1.6338275E-4
-4.6481658E-4
-0.0011846604
-5.7815074E-4
3.1882132E-4
-1.2271278E-4
-4.587578E-4
3.654767E-4
0.0012930373
0.0011616807
2.456585E-4
-0.0011521609
-0.0021777987
-0.0015743814
4.1911408E-4
0.001773475
9.207716E-4
3.4692002E-4
1.9100613E-4
-0.0010688386
6.073433E-4
0.002716679
1.7923939E-4
-0.001342962
-5.3129066E-4
-0.0012538965
-7.089148E-4
0.0011425753
3.549057E-4
-8.7245164E-4
-2.4100674E-4
-5.64843E-4
-1.9682848E-5
0.0030909555
0.002743109
-2.8443921E-4
-4.5609698E-4
3.268081E-4
-1.674078E-5
-0.0010256337