-0.0013382123
-0.0017242195
-9.2393585E-4
-7.75094E-4
3.3579938E-4
4.664603E-4
-4.7356333E-4
-2.3128388E-4
2.7727836E-4
8.6048443E-4
0.0011481873
7.606394E-4
9.693658E-5
-8.3138864E-4
-0.0015601151
-0.0021564797
-0.0012056605
4.1932796E-4
-2.1720771E-4
-3.5074388E-4
6.944289E-5
-0.0012704942
-0.0011756183
5.815276E-4
0.001573919
0.0011473756
4.3807112E-4
9.5564174E-4
4.8958755E-4
6.943959E-4
0.002698313
7.233875E-4
-0.0013312331
0.0016103183
0.0023992888
3.8514493E-4
1.390112E-4
-0.0013367931
-0.0019494437
4.791136E-4
-8.81445E-4
-0.0011930744
0.002469575
0.001379827
0.0017341622
0.0013441781
-0.0071865628
-0.007932259
-0.0017481257
-7.066493E-4
-4.5445646E-4
1.099838E-4
0.001891272
0.0025213861
5.643306E-4
0.002016296
0.0014739288
-6.9064356E-4
7.423546E-4
1.9467075E-4
-9.785378E-4
-5.7320803E-4
5.4176315E-4
0.0020693934
0.001035969
2.8248414E-4
8.963215E-4
0.0013348241
0.0018972456
2.7327114E-4
-0.0011414988
-8.793804E-4
-0.0010420486
-0.0011802063
-0.0019099576
-0.0017281905
-2.4176473E-4
1.6750941E-4
5.0960865E-4
0.0012562909
9.730315E-4
-4.25597E-4
-5.5759517E-4
2.6035172E-4
-6.304604E-4
-0.0010385632
-7.800293E-4
-0.0013213091
-6.797317E-4
3.4713032E-4
7.0787006E-4
8.646965E-4
9.578555E-4
0.0011675437
3.4922402E-4
-1.7684425E-4
0.001049673
0.0011995233
-9.915448E-4
-0.0024073839
-8.0471695E-4
0.0011023282
0.0014687517
0.001323707
6.96064E-6
-7.9697906E-4
8.259199E-4
0.0014490469
-3.895264E-4
-0.0022057288
-0.002246718
-8.07773E-4
-4.5167527E-4
-3.5359868E-4
0.0010175116
6.300537E-4
1.0299957E-4
9.787197E-4
-3.961873E-5
-6.7995046E-4
-2.3624027E-4
-6.3012063E-4
2.1377059E-4
0.001227751
0.0015092979
8.6424965E-4
-8.467978E-4
-8.1734516E-4
-3.2861848E-4
2.959606E-4
7.831627E-4
-0.0011961923
-0.0016961438
-0.0010989145
-9.583614E-4
8.6335227E-4
3.4125522E-4
-0.0012266278
-3.423964E-4
5.8209003E-5
-1.1762605E-5
8.0138634E-5
8.535908E-4
0.0011942748
-4.4740376E-4
2.1084837E-5
0.0017965804
7.3083636E-4
-5.3413765E-4
9.0884825E-4
0.003097812
0.0031081024
0.0014732654
-7.169654E-4
-0.0014679028
9.869284E-4
0.0017301941
-8.0119725E-4
-0.0019041045
-0.00175037
-0.0021049937
-0.0021900635
-0.0019044073
-0.0016776407
-0.0012567653
-0.0010980923
-0.0011344173
2.4399422E-5
5.945055E-4
-4.4170037E-4
-7.4154796E-4
1.2801049E-4
0.0013193224
9.14575E-4
-1.864336E-4
4.200075E-4
1.2871416E-4
-1.1925511E-4
0.0017005795
0.0022068257
0.001475941
0.0012322001
0.0013462097
0.0015477745
0.0016731671
0.0018924986
8.36412E-4
-5.262024E-4
-0.001133224
-0.0013690685
-9.8384284E-5
-4.690807E-5
-8.933041E-4
-4.5971244E-4
-7.279009E-4
1.6084328E-4
1.5187674E-4
-0.0020498375
-0.0021259256
-0.002168308
-8.219788E-4
0.0015749374
-1.4886324E-4
-0.0014460465
-0.0010569316
-5.401901E-4
9.117085E-4
-2.5231196E-4
-0.0013015219
-3.558106E-6
-3.303218E-4
-6.4222777E-4
4.729849E-4
1.1446311E-4
-0.0016381895
-5.0392543E-4
0.002620245
0.0024008425
0.0012985481
0.0016707598
9.938402E-4
2.8410793E-4
4.2318532E-4
3.489463E-4
2.6177397E-4
8.2169735E-4
7.573375E-4
-7.01061E-4
-0.0010469321
-8.1649853E-4
-5.033412E-4
0.0015917248
0.0026873837
0.0018576754
8.802138E-4
-1.1458464E-4
-6.084821E-4
-9.613263E-4
-6.674785E-4
-5.0982344E-4
-0.0017677249
-0.0019800863
-0.0014443175
-5.1710184E-4
5.126926E-4
-0.0019497176
-0.0027316967
0.0012233225
0.0016855277
7.886359E-4
1.7785109E-4
-0.006295571
-0.007491447
0.0014600053
0.0046609193
0.0021008367
0.0016391121
5.104822E-4
-6.30009E-4
1.0526305E-4
0.0012467938
0.0011197092
2.8574085E-4
0.0012270185
0.00240217
0.0028394947
0.0021608628
1.098121E-5
2.4010846E-4
9.146694E-4
-4.2929436E-4
-0.0011356103
-0.0021118294
-0.0018084501
1.3338307E-4
7.067105E-5
-7.924225E-4
-0.001037395
-0.0014372257
-0.0024434316
-0.0014511824
0.0018917529
0.0023828952
0.0014565809
2.157993E-4
-0.0022596698
-0.0015761178
-7.447399E-4
-0.0014415362
1.0497279E-4
0.0016704345
0.002273359
0.0014199803
5.6456175E-4
5.449997E-4
-0.0018193275
-0.0011545556
0.0020611933
0.0016542672
8.291016E-4
-0.001096062
-0.0017823123
1.9874569E-4
-0.0024243065
-0.0037311977
-4.942624E-4
-3.326685E-4
-0.0010069433
-7.664731E-4
-6.567048E-4
3.366232E-4
0.0012106823
0.0024095543
0.002224001
5.752903E-4
3.154172E-4
-1.9128538E-5
1.0563661E-4
6.22481E-4
-2.946209E-4
-1.1592878E-4
8.101503E-4
9.205105E-4
0.0016350236
0.002480107
0.0023980078
0.0014630108
7.4847316E-4
-1.6319656E-4
-0.0023773753
-0.0026228575
-0.0010020705
-0.0016577063
-0.0019685084
2.0801192E-4
0.0010183782
-3.795545E-4
-0.0014600939
-0.0011328782
-7.495075E-4
-0.0012421882
-7.179834E-4
2.801733E-4
-4.6746738E-4
-0.0011479411
-1.235378E-4
0.0010921471
6.8624184E-4
-2.592402E-4
5.5541977E-4
0.0013377394
2.9132835E-4
-8.65482E-4
-5.876251E-4
0.0013357946
0.0023909416
0.0013091868
5.7737133E-4
7.788341E-4
4.513836E-4
-0.0015288292
-0.0027482235
-7.257802E-4
7.3097163E-4
7.7299954E-4
0.0019384206
0.0024502273
9.962977E-4
-0.0011766918
-0.0014475279
-7.516176E-4
-0.0013710278
-3.2576447E-4
6.369121E-4
-4.897922E-4
2.8921477E-4
0.0015130508
0.0013252469
6.054676E-4
1.9117408E-4
9.4720547E-4
-1.5779112E-4
-0.0012995652
-2.679707E-4
-0.0013362347
-0.0023606108
-0.0017057844
-0.0017798288
-4.18581E-4
0.0011219273
3.4899393E-5
-0.0013188958
-0.0013245833
-9.796381E-4
2.9546782E-4
0.0021638488
4.416975E-4
-0.0016252346
0.0012450542
0.0029641627
0.0019113481
0.0019067926
7.836992E-4
-9.622472E-4
-5.507186E-4
4.246609E-4
1.1091327E-4
4.073563E-4
0.0014867239
0.0013483278
0.0021903599
0.0019284651
-0.0012435343
-0.0014825321
-9.7276527E-4
-0.0020517246
-0.0014578019
-0.002984567
-0.004701387
-0.0011815798
0.0012656461
4.7768834E-5
2.8013194E-4
6.402526E-4
-4.8122727E-4
-6.4993685E-4
-0.0010941623
-0.0011024177
6.633928E-4
9.373551E-4
0.0011774745
0.002808244
0.0033564998
0.0028316288
0.0012671982
2.0418719E-4
2.6448624E-4
2.3478678E-5
-1.6301306E-4
-5.504905E-4
-1.6858286E-4
1.5082357E-4
9.241331E-5
0.0012361343
-5.0438213E-4
-0.0028388784
-0.0010560396
4.6371543E-4
-4.610649E-5
-0.0017292248
-0.0019207357
-7.288314E-4
-4.4007055E-4
0.0021974556
2.2700524E-5
-0.00769424
-0.0054189903
0.0018572715
0.0028481788
0.0017616428
0.001820645
0.0025298542
0.0021526606
0.0012982372
0.0017004913
0.0022001697
0.0017582818
-8.344938E-4
-0.002617171
-0.001548352
-2.6255622E-4
6.614456E-4
6.4067735E-6
5.1866922E-5
9.989713E-4
-9.1586285E-4
-9.523656E-4
-4.443897E-4
-0.0023013598
-5.453193E-4
9.3796704E-4
-6.330666E-4
-8.760728E-4
-6.9752353E-4
-2.831896E-4
-3.5905224E-4
-2.748229E-4
0.001271922
7.818445E-4
-9.171919E-4
-0.0018013385
-0.0013958676
3.9605054E-4
0.001432969
0.0037086795
0.004813596
0.0011846544
-0.0010962727
-9.783842E-4
-4.2862984E-4
8.3058194E-4
0.001444804
0.002525218
0.0015456324
-0.0015853535
-0.0015253687
-9.775035E-4
-0.0025259433
-0.0031552298
-0.0022675004
-0.0013789044
2.2747157E-5
0.0016100587
-3.5365367E-5
-9.2834793E-4
0.0012651506
5.4007996E-4
-6.477249E-4
-4.5577166E-4
-1.1685405E-4
0.0010868302
-3.8874673E-4
2.4427215E-4
0.0026163468
-8.5514615E-4
-0.00189894
8.85921E-4
8.332469E-4
8.776227E-4
0.0012962605
6.908128E-4
-4.2877826E-4
-2.3537528E-4
5.938095E-4
-4.7673035E-4
-7.290691E-5
1.5231043E-4
-0.0012795504
-9.522659E-4
-9.912285E-4
-9.489504E-4
-0.0011434346
-0.0015475155
2.5776535E-4
2.8589575E-4
3.7651276E-4
0.001872737
0.0014668268
0.0018066288
0.0011139034
-3.291523E-4
4.2627502E-4
-1.7118952E-4
-0.0013255769
-6.431385E-4
8.960449E-4
0.0014194995
0.001276185
0.0018862478
-3.5211816E-4
-0.0026160334
-7.080809E-4
1.0255462E-4
-4.7322604E-4
8.6944245E-5
0.0014484207
0.001788459
-8.415166E-4
-0.0018104068
-4.7930077E-4
-5.148462E-4
-7.628786E-4
-0.0018447933
-0.0026702643
-0.0011291964
4.3829298E-4
9.3088025E-4
3.468205E-5
-9.399276E-4
4.1138273E-4
0.001860551
0.0013852211
5.34334E-4
1.1765342E-4
-4.195036E-4
-4.4404494E-4
0.0010508028
0.0014911317
-4.7131488E-4
-4.7003888E-4
0.0014468709
0.002286667
0.0037139312
0.0032168967
-6.770304E-4
-0.0028959597
-0.0036433677
-0.0037974657
-0.0034893674
-0.003442387
-1.1235858E-4
0.0023143003
2.525303E-4
-5.133821E-4
-6.937506E-4
-4.0370802E-4
0.0016071603
0.0010815542
-7.7164476E-4
-0.0014089505
-0.0014689106
-0.001105162
-2.2195076E-4
0.0021838613
0.0039139222
0.00297794
0.0022491112
0.003081086
0.0037063388
0.002983042
0.0018595328
8.7199063E-4
-1.4000444E-4
-3.043712E-4
-6.935997E-4
-0.0021803565
-0.0020324443
7.918659E-5
1.2571564E-4
-0.002274756
-0.0034892655
-0.004277651
-0.0062404214
-0.004513595
0.0013285362
0.0029879285
0.0017539558
0.002973159
0.0014388183
-8.572642E-4
0.0011158145
0.0015888326
1.00540165E-4
-9.6766057E-4
-0.0019718774
-0.001560043
-5.9371645E-4
6.491704E-4
5.556324E-4
-0.0011848855
-0.0026344734
-0.0037111654
-0.0013463316
0.0019227293
0.0035349862
0.003606367
-6.624877E-4
-0.0016216893
-0.0010803794
-0.002740772
0.0010798449
-0.002777041
-0.009142714
9.6388214E-4
0.008299956
0.0073921834
0.008977105
0.0068175877
0.0029312975
0.0015355332
0.0013598077
2.2160201E-4
-0.0020192324
-5.802135E-4
0.0017796623
0.0036884644
0.005592076
0.0024835172
-0.0043215626
-0.010920777
-0.012140773
-0.0073596034
-0.0038129743
-0.0012697661
7.718831E-4
-9.294949E-4
-0.003457264
-0.0028642388
-0.0011052315
-0.0012942959
-3.3552348E-4
0.0018340097
0.0021605785
0.002942263
0.0032339885
0.0015874872
4.0245152E-4
6.314622E-4
4.1634074E-4
-8.593858E-4
0.0015145368
0.0044414904
0.003236672
0.002847103
0.001571863
-1.8495094E-4
3.2199424E-4
-4.902015E-4
3.0374626E-4
-2.6321868E-4
-0.0020079084
0.0021723246
1.9954392E-5
-0.0073861293
-0.004143144
0.0018823005
0.002623468
0.0012631048
0.0010818738
0.0037293572
0.0037002522
6.071676E-4
-0.0010893787
-0.0013188794
-7.440174E-4
-0.0018154184
-0.00320986
-0.002881889
-0.002500255
-3.508669E-4
4.899812E-4
-0.002405879
-0.0018092418
8.88197E-4
-9.792205E-4
-0.0021637538
8.3526876E-4
0.001685659
0.0011008743
0.0026990627
0.0021857864
0.0011827125
0.002820373
0.0019854025
-3.0449821E-4
-2.4085428E-5
1.858479E-4
1.6549749E-4
0.0017699158
0.0014344217
-9.602999E-4
-9.826561E-4
-0.0017558831
-0.0035533744
-0.0021925746
-0.0018532529
-0.0028616167
-0.0022893504
-1.5685991E-4
0.003365746
0.0023717051
-8.9202804E-4
-5.085686E-4
-7.420002E-4
-3.994203E-4
-2.2328789E-4
-0.0016310521
0.0013080873
0.0027745615
7.084036E-4
0.0026331614
0.0031690104
8.337537E-4
0.0029058722
0.0043212273
-9.7382214E-4
-0.0055437353
-0.0044318913
-0.001020291
0.002915862
0.0040029394
0.0017570342
2.2556391E-4
-0.0029642137
-0.0066593727
-0.0058737304
-0.0030139147
-8.147404E-4
4.4496584E-4
0.002494051
0.00436691
0.002707708
8.2574645E-4
-9.0678746E-4
-0.0013301536
0.0034756616
0.0038992714
-0.0013197568
-0.0011291129
0.0010122433
9.466828E-4
2.8560485E-4
-9.513672E-4
1.3695913E-4
0.0016368087
0.0026555618
0.003442026
-0.0010693289
-0.004591703
-0.0037809003
-0.0056804614
-0.004827277
-1.5634565E-4
0.0019724965
0.0028657792
3.2925225E-4
-0.0018294867
2.8803753E-4
-0.0014731503
-0.003519881
-0.0020617177
-0.0025142662
-0.0011665492
0.0024360712
0.005169778
0.0071105817
0.0059271497
0.0045492416
0.0037539476
2.6064538E-4
-0.0025978389
-0.0021244176
9.133622E-4
0.0026494584
3.8872505E-4
-0.0014971835
-0.0017785718
-0.002713575
-0.0025000751
1.14962146E-4
8.762045E-4
-0.0021905566
-0.0036663183
-0.0033933802
-0.00327872
-6.687639E-4
0.0016101394
0.001797633
3.3593172E-4
-0.0030088548
-0.005059419
-0.008050775
-0.011981735
-0.011795726
-0.01078333
-0.012715467
-0.012749073
-0.0062224125
-4.706303E-4
0.0018213256
0.005647193
0.0064510764
0.010943023
0.017462596
0.011474514
0.008087096
0.00576976
-0.0055153402
-0.005059629
-0.0014053467
-0.0067065796
-0.0069618616
-0.0071040797
-0.010597307
-0.007917382
0.001749871
0.0066254074
0.0025655262
0.005723734
0.01375112
0.015222606
0.015611552
0.016907053
0.021194983
0.02435645
0.020939728
0.015271712
0.004929873
-0.0014516257
0.0040562325
0.0076692537
0.006680073
0.0036747984
-0.003541203
-0.006117757
-0.0017068845
-0.0025946356
-0.009845868
-0.012235677
-0.011563082
-0.013283748
-0.014966709
-0.01498382
-0.00791011
-0.0012032714
-0.007975086
-0.016207628
-0.017000007
-0.01835937
-0.018842464
-0.01012611
0.005121019
0.02236139
0.043019876
0.05096242
0.0370245
0.022354474
0.012683904
0.004541902
-0.0077953185
-0.04873512
-0.10786834
-0.1448523
-0.14592771
-0.11791542
-0.08219845
-0.06097788
-0.040729005
0.008067334
0.07581474
0.12812173
0.15219606
0.14550331
0.112133145
0.069565564
0.03915742
0.043632463
0.05310331
0.025031084
0.0167822
0.068567306
0.12417108
0.14961556
0.13610701
0.08945582
0.044805985
0.011678976
-0.009323536
-0.018299269
-0.017997455
-0.026616909
-0.10927348
-0.23784159
-0.31241983
-0.31243008
-0.23237273
-0.13695826
-0.10150019
-0.054334324
0.001751118
-0.013762072
-0.04437052
-0.00935611
0.04807801
0.042880185
0.023550417
0.05457926
0.076423734
0.08358896
0.09889978
0.10800089
0.13620895
0.1651872
0.14066508
0.07167057
0.03400235
0.049799263
0.043993946
-0.0016408529
-0.0668234
-0.0984283
-0.04373958
0.0055789957
0.03923563
0.10611085
0.11510506
0.072279744
0.0284344
-0.051116645
-0.13199212
-0.14909968
-0.11210929
-0.10721809
-0.13876376
-0.10527029
-0.018838864
0.032769714
0.04243685
0.095638104
0.18752417
0.16875745
0.03914541
-0.08760803
-0.13084209
-0.075021
-0.08269252
-0.16039741
-0.12828724
-0.05069384
-0.026204031
-0.007660577
0.027987087
0.06676526
0.08460447
0.111027524
0.12545139
0.055635866
-0.004874243
0.024279315
0.07455724
0.088627376
0.030345729
-0.0694536
-0.11076976
-0.08589558
-0.0503483
-0.018037077
-0.0010516072
-0.0016105514
0.009687853
0.027733257
0.04112278
0.049677175
0.03674498
0.02293239
0.011133716
-0.009516554
-0.002720989
0.0042927396
-0.005250925
0.0068906825
-0.005512699
-0.046707835
-0.053324357
-0.03735496
-0.014653937
0.012374264
0.027501399
0.03434592
0.030993307
0.019531947
0.007011785
-0.010467761
-0.025554623
-0.032515418
-0.034890898
-0.03496184
-0.032100733
-0.022979788
-0.010889025
1.385118E-4
0.010743896
0.021406686
0.03283894
0.042393435
0.04431672
0.036878422
0.029428216
0.024580924
0.014078971
0.0066520562
0.0015142185
-0.015122151
-0.027176967
-0.025396163
-0.026196139
-0.026818901
-0.020433825
-0.017215952
-0.01632122
-0.010903283
-0.0047118766
0.002014073
0.008935832
0.013327236
0.016091168
0.01456665
0.011583301
0.010434418
0.0060271225
0.0012606675
-8.9220534E-4
-0.0014990953
0.0017450417
0.0041979663
0.002747674
7.899836E-4
-0.0021087201
-0.005135279
-0.0073749507
-0.009969484
-0.009300646
-0.00446411
4.7989676E-4
0.005443783
0.008590209
0.0077235
0.00491169
3.297983E-4
-0.0029820395
-0.0032565496
-0.0028089655
-9.334619E-4
9.743388E-4
0.0035052274
0.004245815
-0.0017643329
-0.0071457564
-0.010925016
-0.015080446
-0.013509825
-0.0085832
-3.6491486E-4
0.008266311
0.010223991
0.010883884
0.011450094
0.012036562
0.012468965
0.008211956
0.0026637365
-0.0061918064
-0.01414264
-0.013600019
-0.012704988
-0.009522275
-0.0025834031
0.005405792
0.018808218
0.03040209
0.03700362
0.034016818
0.014593531
-0.006456064
-0.01841567
-0.020583257
-0.019136824
-0.021293834
-0.019359337
-0.01621507
-0.014948621
-0.010977055
-0.008904307
-0.004000704
9.555381E-4
-0.002023206
-0.0037115987
-0.0020027834
-6.294472E-5
2.8239377E-4
-1.0425005E-4
0.003676766
0.0064663435
0.0067177494
0.007020896
0.008109854
0.010872078
0.009091846
0.0073794425
0.008463757
0.0052101114
0.0043359413
0.005034308
0.003605117
0.0041547706
0.0031639738
0.0052012033
0.0089194
0.0042553158
-0.0034206116
-0.011070007
-0.016507905
-0.016167205
-0.016806656
-0.016767718
-0.010424375
-0.002642392
0.0013487724
0.0012196281
0.0013335433
0.0038674246
0.00632879
0.008058964
0.008158911
0.006234513
0.0038660245
7.209608E-4
-0.0024057569
-0.0040176967
-0.0056207078
-0.005656444
-0.0015413221
0.0020787388
0.0018401964
0.0017535621
0.004167312
0.0054689734
0.003592406
0.002921421
0.003205649
-6.769615E-4
-0.004748051
-0.0054063834
-0.005936242
-0.006138052
-0.0057027666
-0.004192986
-5.2139698E-5
0.002616899
0.0019267123
0.0015261095
8.733602E-4
-0.0011319848
-1.0956275E-4
0.0032025177
0.0033919462
0.0037932284
0.0050150733
0.0019744893
-4.241381E-4
-0.0019777515
-0.005700905
-0.0028872965
0.0028673338
0.0027809066
0.0029879187
0.003052397
-3.959607E-5
-0.0018712597
-0.0027070628
-0.0023757545
-0.0010198826
-0.0014873267
-0.002423674
-0.003079752
-0.0027375913
3.8573775E-4
0.0040093362
0.0050918898
0.0028305154
-8.2759507E-4
-0.0017325813
6.525029E-4
0.0012703731
-9.894952E-4
-0.0016346404
-0.0011756634
-0.0013555855
-0.0015560183
-0.002477032
-0.002170102
-0.0010328002
-0.0011718317
1.5006201E-4
0.002811596
0.0037620787
0.002692036
0.0015805607
-7.589443E-4
-0.004715085
-0.004463808
-0.004619545
-0.0071242666
-0.0017089008
0.0039446913
0.004614761
0.0044154483
-0.0037913586
-0.009325489
-0.0015425003
0.00684347
0.010867153
0.010635569
0.006278129
6.6784216E-4
-0.0038794985
-0.0031120428
-0.0027290427
-0.0058199894
-0.0051997695
-0.0012065029
0.002988518
0.0046600006
0.0043956405
0.0035795276
1.8255968E-4
-0.0013833502
-0.002267709
-0.005034873
-0.0043850704
-0.00366403
-0.0040050307
-0.0023453687
-9.164669E-4
3.674766E-4
-1.9426203E-4
-7.787431E-4
0.0019212783
0.0020575775
-6.940843E-4
-0.001184703
-6.1948325E-5
5.707104E-4
1.7801707E-4
-4.0347737E-4
8.159008E-4
0.0032732221
0.0039987676
0.004322875
0.0044775857
0.0022728436
6.288702E-4
-3.05802E-4
-9.404527E-4
-0.001137345
-0.0021180946
-0.0010611626
-0.0035562252
-0.0073624607
-0.0013862334
0.0027042653
0.0012307076
0.0021206327
9.799692E-4
9.983644E-4
7.735183E-4
-0.0028890155
-0.0031041305
-0.0031543092
-0.0022503878
7.450848E-4
-2.0637074E-4
1.2749237E-4
0.0014964918
7.1255834E-4
0.0027369664
0.004262234
0.0028038414
0.002193443
0.0023486642
0.001481109
-3.0899525E-4
-0.0013346311
-0.003116372
-0.005835381
-0.0044855154
-8.521068E-4
-2.712186E-4
-2.5938902E-4
0.001204283
0.0015466412
0.0013522977
8.7908265E-4
-0.001177803
-0.00247245
-0.0026831818
-0.0016550771
0.0012870609
9.506122E-4
-0.0011470788
9.3874574E-4
0.0025171353
8.601676E-4
4.471707E-4
0.002210693
0.003738219
0.0034042979
0.0020923142
6.4181176E-4
-0.0011233125
-0.0012354943
0.0012059322
0.0027282508
0.001659817
5.2722877E-5
-0.0028221847
-0.0054949257
-0.0031128365
3.8476256E-4
-8.7761255E-5
-0.002036146
-0.0028401094
-0.0016571208
-2.3929484E-4
1.3837675E-4
2.6939827E-4
-7.947141E-4
-0.0012128493
-1.1619996E-5
5.067245E-4
0.0011705022
8.725831E-4
-0.0016314349
-0.002751184
-8.8211533E-4
0.0012079627
0.0010965796
8.128089E-4
0.0012836623
0.0011852427
0.0017771458
0.0013486914
9.1835085E-5
0.001523063
0.0027959682
0.002693557
0.0026764348
0.0012082352
-7.796685E-4
-0.0010680498
-4.1185197E-4
-0.001281092
-0.002286387
-0.001044823
3.3806276E-4
0.0019652732
0.0035326397
0.0026256691
9.456796E-4
-3.3461794E-4
-0.0011557145
-6.541436E-4
4.0081152E-4
1.6958041E-4
-0.0013407903
-0.0017126425
-0.0018972626
-0.0032635913
-0.0037248074
-0.0025965734
-9.931645E-4
-0.0017981991
-0.0032434068
-0.0012444579
3.4530283E-5
-9.5989555E-4
-0.0017044902
-0.0025891962
-0.0018442328
2.451703E-6
-1.5021604E-4
-4.2618145E-4
0.001550604
0.0029354207
0.0019732297
7.797999E-4
5.4085563E-4
0.002523112
0.0036230213
0.002123364
0.0034189594
0.0046132067
0.004175032
0.0053022117
0.005419165
0.0069860043
0.0065922826
0.001043548
-1.11937974E-4
2.822925E-4
-0.0028687555
-0.004298119
-0.003754663
-0.0037727877
-0.0043264595
-0.0036436075
-0.004068125
-0.005617763
-0.0044894735
-0.0026050066
-3.2626226E-4
-0.0018835417
-0.0043952796
-1.8204967E-4
-0.0028902579
-0.007951934
-0.0012422485
0.002431712
0.0020966441
0.0038282494
0.0024255738
0.002366276
0.0027657116
0.00164758
0.002521035
0.0032383644
0.0034069736
0.0027306497
7.8485673E-4
-7.407304E-4
-0.0016757092
-0.0016713591
-7.7689544E-4
4.2527486E-4
4.1683644E-4
1.9829924E-5
-1.0564617E-4
-0.0022278973
-0.0028297505
-5.570391E-5
0.0025650049
0.0034982474
0.0018758952
0.0011636221
0.0025529382
0.0018451388
9.6522376E-4
0.0018658768
0.0016177968
4.900138E-4
9.622533E-4
0.0014938393
0.0013619101
0.002782885
0.002489079
-0.0011241138
-0.0044519594
-0.006638487
-0.006432949
-0.005599812
-0.0060987636
-0.0041519147
-0.0018746465
-0.0025793172
-0.00275582
-0.0023150116
-0.0025396326
-1.7468803E-4
0.00287793
0.0026680517
0.0036863214
0.0050516557
0.0025309369
0.0015600065
0.0020841511
0.001614265
0.0024791807
0.003033816
0.003428203
0.0026584386
7.683283E-4
0.0012308642
5.764376E-4
-2.7634608E-4
3.824588E-5
-0.0012768225
1.266752E-4
6.6901237E-4
-0.002970378
-0.0032877543
-0.0019098673
-0.0017307433
-0.001088139
-9.610891E-4
-0.0010510408
-0.0015709512
-9.3759556E-4
0.0014933881
0.0023433417
0.0013110085
2.3706772E-4
9.674257E-4
9.073606E-4
-0.0014134307
-9.719399E-4
-1.4032896E-4
-5.0292484E-4
0.0010183956
4.4899675E-4
-4.594227E-4
0.0010661234
-3.3224883E-4
-0.003344383
-0.0034871781
-0.0013629857
1.4307775E-4
2.1131709E-4
0.0011986381
0.0018958193
0.001532217
0.0018411201
0.0013841804
8.06391E-4
0.0012754364
9.2731987E-4
1.7900733E-4
0.0012165499
0.0033606354
0.0026657756
-3.5569788E-4
-0.0013670764
-0.0014483924
-0.0013144453
4.776005E-4
7.566619E-4
-8.7176E-4
-2.9988718E-4
6.099302E-4
-7.175662E-4
-7.826961E-4
-5.166988E-4
-0.0021203354
-0.0022068182
-0.002359181
-0.0035949424
-0.0028106319
-0.0022298628
-0.0015625424
-2.6085073E-4
-0.0012340994
-0.0014022847
-1.2165382E-4
1.5141431E-4
0.0015528301
0.0032209288
0.0033736548
0.003254829
0.0024429795
5.9780537E-4
4.4820228E-4
0.0027460712
0.0032199959
0.0021251792
0.0021620817
0.0016617669
0.0024382377
0.003640891
0.0017859752
5.3315493E-4
4.1653222E-4
8.1613456E-4
0.0019599875
-1.7872566E-4
-0.0026747675
-0.002585794
-0.0040739947
-0.0062511372
-0.0060074124
-0.005141865
-0.0051447535
-0.0031282387
-6.2946364E-4
-7.258372E-4
4.448411E-4
7.7530905E-4
-0.0010188909
-3.5106027E-4
-6.4231775E-5
7.7391625E-4
0.0025091178
0.0010240348
1.970813E-4
0.0013331032
0.0036523645
0.0043857354
0.0012700002
0.001419181
0.0032610735
0.0029119833
0.0021355741
-5.236165E-4
-8.5925194E-4
7.779492E-4
0.0014683845
0.0028919678
7.757498E-4
-0.0025060733
-0.0023365044
-0.0017503176
-0.0035777623
-0.0061153364
-0.0035681732
-0.0011386948
1.0837531E-4
0.0059114606
0.006946635
0.004752793
9.7445125E-4
-0.008583654
-0.008525387
-0.0026536868
-0.0025012195
1.1762021E-5
0.0021582
0.0029410834
0.0036939748
0.0016304537
0.0019773564
0.0015271886
-4.2048874E-4
1.2985898E-4
-0.0011535663
-0.0012832
2.0785768E-4
-8.343095E-4
-0.0013304554
-7.7217683E-4
6.154629E-4
0.0016930219
2.6503397E-4
1.5719228E-4
0.0019432011
6.0261734E-4
-0.0026218256
-0.002107939
-3.837778E-5
-5.8757374E-4
-0.0014219922
-8.024146E-4
9.881151E-4
9.774758E-4
-0.0012901191
-6.18754E-4
8.003462E-5
-0.0015581247
-0.0010943158
-9.6147436E-5
7.067081E-4
0.0016631245
0.0017042174
0.0025215659
0.0021016325
0.0011190653
0.0018791349
7.992174E-4
-9.141328E-4
-7.1126735E-4
-3.1554684E-4
6.534295E-5
4.3021093E-4
3.7159427E-4
-6.24528E-4
-5.614369E-4
0.0019684439
0.002466841
3.3175317E-4
-0.0013914194
-0.0023809876
-0.0023179764
-0.0015330367
1.18529206E-4
1.2326639E-4
-0.0023822186
-0.002258276
-0.002172878
-0.0034919502
-0.0016782621
-0.0010193775
-0.0013970844
0.0010510939
0.0032290616
0.004291438
0.002939188
0.0010988888
0.0019588983
5.515265E-4
-0.0016010978
-9.828219E-4
-0.0010930977
-7.032467E-4
7.6893263E-4
0.0013367648
0.001878455
0.0018515611
0.001622877
0.0018253219
0.0014537674
8.0211926E-4
-1.9217435E-4
-0.0013180895
-0.001521465
-3.822025E-4
3.649869E-4
-5.2324863E-4
7.978589E-4
0.0025457658
-3.7435128E-4
-0.0023186235
-0.0015729953
-0.0010202659
0.0012973159
6.557075E-4
-0.0018197461
1.8520228E-4
-3.662706E-4
-0.003296023
-0.0030673572
-0.0037509783
-0.0030113608
-2.954682E-4
-4.9538177E-4
-7.782892E-4
-4.556824E-4
-9.3048275E-6
9.028342E-4
-5.891358E-4
-7.904438E-4
0.0024836233
0.0040761908
0.0029222073
0.0012343565
0.0021424214
0.0043586376
0.003068776
0.001549028
0.0016490225
5.4857053E-4
3.3707032E-4
2.350696E-4
1.4494229E-4
0.0032270493
0.0037174998
-9.3510165E-4
-0.003423288
-0.0027298913
-0.002440492
-0.0028588434
-0.003179658
-0.0022262158
-8.573339E-4
-0.0012611871
-0.0015618671
-9.161221E-4
-0.0016651452
-0.0013613077
6.6566555E-4
8.4604416E-4
8.221818E-4
8.1088336E-4
-1.3865582E-5
6.84233E-4
4.6498483E-4
1.6352401E-6
0.0018398371
0.0012138122
-8.8608975E-4
-0.0012368413
-0.0017831244
-6.3897774E-4
0.0015059822
0.001181016
4.0085896E-4
6.550857E-4
1.1716407E-4
-0.0017459434
-0.0016695028
8.7891874E-4
0.0017379653
7.4095686E-4
-0.0010892404
-0.0032211707
-0.003399856
-0.0012384373
0.0023492884
0.0046432815
0.004628069
0.0031970951
7.971235E-4
6.45314E-4
0.0010458197
0.0012853667
0.0031945696
7.5202074E-4
-0.0025244264
-0.0015018978
-0.0016014865
-0.0014569331
-0.0017185652
-0.0019335533
0.0014530474
4.8333776E-4
-0.003070258
-0.0013487234
7.615529E-4
5.9270766E-4
6.9480174E-4
9.540594E-4
-0.0016211831
-0.0033311618
-9.281115E-4
-0.0010817824
4.8294966E-4
0.0025975879
-0.005157412
-0.007955277
5.436626E-4
0.0046361284
0.0037216023
0.0021670766
6.7531277E-4
6.343021E-4
1.4242309E-4
1.4601336E-4
2.2905463E-4
-0.0012025716
-8.24041E-4
8.3343236E-4
3.7565953E-4
-2.3335389E-4
2.6481747E-4
1.8607944E-4
4.7763356E-4
5.8019673E-4
-2.6019267E-4
-2.809787E-4
-9.721586E-4
9.204614E-5
0.0044355015
0.0049139247
0.0028252553
0.002120114
3.9627336E-4
3.5102206E-4
0.0013673095
-0.0010545726
-0.004018298
-0.00454724
-0.0030230402
-0.0014858845
-0.0015186858
-7.7611423E-4
0.0013003866
0.0030141927
0.00243017
-7.2486745E-4
-0.0012328348
-8.08404E-4
-0.0033174313
-0.002146266
3.991565E-5
-0.0017782144
-0.0014139417
-4.734574E-4
4.8862206E-4
0.0035456175
0.0016537285
-0.0018075865
-1.6925528E-4
0.0011472625
2.7811635E-4
2.0061938E-4
0.0010389007
0.0017079947
0.0016008602
5.833762E-4
-6.4330164E-4
-0.0010639451
-9.6080755E-4
-3.7892692E-4
-7.805911E-4
-0.0021537663
-0.0014861877
8.547181E-5
0.0017990201
0.002308247
5.9800135E-4
0.0015696203
0.0030700348
0.0020017575
6.870675E-4
-0.0010155624
-1.8463108E-4
4.7829523E-4
-0.0016723743
7.3382456E-5
0.0017885201
-7.5521355E-4
-0.0016912487
-9.2128856E-4
-1.8594938E-4
8.4422703E-4
5.8260036E-4
-7.6402153E-4
-0.001378699
-0.00247426
-0.0033864758
-0.0013690195
-9.044487E-4
-0.0016579961
6.790334E-4
4.8710883E-4
-0.0010927458
-1.6634961E-4
-7.2763406E-4
-8.9821604E-4
1.1876557E-5
6.210737E-5
0.0014164542
0.0035539411
0.0049101408