-0.001384931
-0.0019909148
-2.414123E-4
0.0013123812
5.972709E-4
-0.0026796313
-0.0030431764
-0.0013186516
0.0012405152
0.0010257196
-0.0020955391
7.0400385E-4
-0.0011877548
-0.008443037
-0.0032422836
0.0044312393
0.005820541
0.006351818
0.004139477
0.0016269917
-6.5170886E-4
-0.0023590631
-4.1415097E-4
0.00148994
9.940839E-4
1.024144E-4
0.0016034266
0.0013999245
-0.0017323792
-0.0010114538
-6.727441E-4
-6.8794104E-4
0.0021744664
8.582311E-4
-1.4036204E-4
0.0011164587
-0.0012299175
-0.0013689674
3.0026765E-4
-0.00166586
-0.0024992975
2.477017E-4
0.0016869382
7.427746E-4
4.343856E-4
4.6230544E-4
5.140112E-4
-3.791952E-4
-0.0018368474
-6.9386954E-4
-2.9689475E-4
-7.328894E-4
2.5070715E-4
-6.973743E-4
-0.0010318758
-7.0348434E-4
-0.0019539658
-0.0018765506
-0.0014918408
-8.569E-5
0.0019696865
0.001323023
1.0481458E-4
-3.1381432E-4
-4.3233857E-4
-0.0014105928
-8.684163E-4
0.0025728378
0.0020543141
6.613874E-4
0.0023895612
0.0025238767
0.0026292657
0.0010565539
-1.7052516E-4
0.0028425416
0.002096736
2.597439E-4
2.5599424E-4
-0.0024147392
-0.0019195526
-7.6435856E-5
-5.8441726E-4
3.1536538E-4
6.057331E-4
0.0012775065
0.0014027988
-0.0013145613
-0.0021423574
-0.0019641595
-0.0022411745
-0.0016155994
-0.001297116
-0.0018994896
-0.0029508776
-0.001340337
2.1135312E-4
-9.627203E-4
8.063837E-4
0.002109191
2.472347E-4
-1.2810863E-4
-0.0010874193
-0.001447451
9.500734E-4
0.002166961
9.000369E-4
-7.156269E-4
-2.1253219E-4
5.152852E-4
0.0012645421
0.0037107598
0.0029604002
6.158525E-4
3.8149068E-4
-6.436096E-4
-4.8875874E-5
0.0012892075
2.3789365E-4
6.466036E-4
0.0015962966
0.0014501673
0.001883833
0.0012202092
5.097972E-5
-4.7520653E-4
-0.0013985852
-0.001531383
-0.0020127275
-0.0038988306
-0.0031968083
-4.2147056E-4
6.676511E-4
8.250619E-4
3.1769156E-4
-5.198057E-4
-7.1475125E-4
-0.0018211731
-0.0029476595
-0.002443709
-9.012212E-4
0.0010073527
0.0018003158
0.0015657981
7.7040587E-4
-2.5903006E-4
2.1957909E-4
6.632215E-4
3.4928595E-4
9.835727E-4
0.0011287513
5.6654925E-4
1.5185041E-4
-2.3458786E-5
0.001522406
0.003120943
0.0027149878
0.0019735782
7.1966083E-4
-8.67601E-4
-4.056549E-4
7.124824E-4
3.9784302E-4
-5.9594907E-4
-0.0013395027
-0.0014391519
-0.0013139735
-6.8484416E-4
-5.329651E-4
-0.0014457374
-1.5729663E-4
1.6246614E-4
-0.0026658503
-0.0014860895
0.0014202851
6.701768E-4
-8.9516555E-4
-0.0021422212
-0.0015258995
-2.1906017E-4
-0.0013159176
-0.0014023617
-2.8062947E-4
3.4570419E-6
9.7435486E-4
0.001546791
0.0010678761
0.0013392282
0.0016519931
4.9785204E-4
-5.757127E-4
-4.4089206E-4
3.3217977E-5
0.0015072076
0.0033811822
0.003082823
6.272116E-4
-5.895465E-4
6.208782E-4
8.2259806E-4
7.7094353E-4
0.0016818698
0.0011634792
9.883835E-4
-5.8658035E-5
-0.0021930456
-0.0014100985
-0.0016725957
-0.0028829216
-0.0015321845
-0.0020455853
-0.0038921377
-0.0022488385
0.0014653075
0.0025553955
0.002830368
0.0022464504
-0.005674861
-0.009084506
-7.69805E-4
0.0022104396
0.0010476606
0.0036662363
0.003781466
0.0026649516
0.001715235
-1.2302128E-4
-0.0013697933
-0.0011923622
0.001685571
0.0023190873
7.2702585E-4
0.0011815181
-8.2319246E-5
-0.001856343
-0.0018981958
-0.0017673933
-0.001067541
-9.090213E-4
-0.0010280383
-0.0015672744
-0.0010142955
0.0012316426
8.898663E-4
6.418742E-4
6.8423594E-4
3.8897804E-5
0.0022651819
0.0017943535
4.1537022E-4
0.0013832313
-9.644622E-4
-2.0019322E-4
0.0019704907
-5.9769227E-4
6.6121144E-4
0.0026072273
0.0014752841
0.0021524236
0.0014043873
-3.03584E-4
-0.001085565
-0.0031977794
-0.0041370885
-0.0015575486
1.2563265E-4
-0.003259423
-0.004295138
-5.951085E-4
-0.0011383442
-0.001787531
0.0013103192
9.4591524E-4
-8.222255E-4
1.9531861E-4
0.0013398879
5.832531E-4
-5.5717054E-4
3.2733926E-5
9.397342E-4
0.0016120434
0.0023456716
0.0023117375
0.0014856842
-5.474744E-4
-9.563946E-4
0.0010062857
9.923371E-4
-2.4595644E-4
-5.487303E-4
2.2330073E-4
0.0019453098
0.0014524175
-9.5526583E-4
-0.00162817
-0.0015213746
-0.0021528811
-0.0025726329
-0.001983493
-2.9178688E-4
4.926822E-4
3.5660004E-4
0.0018713974
0.002082819
2.971261E-4
6.297463E-4
9.522844E-4
0.0010689534
0.0018689893
-3.1738124E-5
-0.0015790588
-0.0010314239
-7.096401E-4
-2.4952207E-4
-4.6823893E-4
1.9303261E-4
6.990496E-4
-6.371869E-4
1.741818E-4
8.169441E-4
3.052496E-4
8.624306E-4
-1.4988158E-4
-4.7889724E-4
-4.1447434E-4
-0.0013818254
-1.7176592E-4
-6.054034E-4
-0.0019319047
-6.965415E-4
-8.5025793E-4
-5.537362E-4
2.1269692E-4
-9.838567E-4
3.7129255E-4
0.0029071867
0.0028044356
0.0016332995
2.6601774E-4
-1.917975E-4
7.8592035E-5
-3.0343092E-4
-5.619095E-4
-0.0014181271
-0.0032132673
-0.0029870803
-0.0011419721
-2.8827536E-4
0.0015546884
0.0029373937
4.1802978E-4
-7.2580535E-4
2.380819E-4
-6.279144E-4
3.7115277E-4
0.0017836109
2.7939965E-4
4.993855E-4
0.0014919568
-1.8296026E-4
-6.5564906E-4
0.0011550607
0.0010120763
6.3704756E-5
0.0018481684
0.0034163208
0.0029258851
0.0013104727
-9.58363E-4
-7.1425404E-4
1.00326295E-4
-0.0023711326
-0.0043116133
-0.003111226
3.541067E-5
0.0014718343
-9.320424E-4
-0.0019379613
-9.3688496E-4
-0.0012990348
-0.0011222115
-6.736867E-4
-0.0018275576
-0.0036510976
-0.0035138396
-4.7769112E-4
0.0018516997
0.0023917789
0.002583204
0.0018965583
6.14945E-4
-0.0012404777
-0.0018031999
0.0010147003
0.0025628407
6.353002E-6
-0.0018849163
-4.7560415E-4
0.0017307014
0.003290535
0.004007018
0.0030331283
0.0018620968
0.0018651099
0.0013848995
6.350995E-4
0.0010977496
0.001270903
5.040712E-5
-0.0013060316
-0.0022877916
-0.0013853314
4.7519288E-4
-0.0018036825
-0.0039862
-0.001940436
-0.0029213273
-0.0027647906
0.003316665
0.0031412353
-0.0010645641
-3.1155144E-4
-0.004613371
-0.010874183
-0.005468705
0.0012760791
0.0013298731
0.002010565
0.0017734467
-5.151276E-5
9.786002E-4
0.002328689
0.0027929824
0.0037426872
0.0038204088
0.0025890523
0.0016339367
0.0014295471
4.0952847E-4
2.9737796E-4
0.0020100803
9.91386E-4
-0.0012345751
1.7584318E-5
5.3507544E-4
-0.0021036216
-0.0017617006
6.022863E-4
-9.814022E-4
-0.0016922959
4.1736432E-4
-7.0329016E-4
-0.0023009228
-0.0011576182
3.4141404E-4
0.001833247
0.0012279882
-0.0014994637
-0.0025203542
-0.002917052
-0.00339509
-0.0015998079
-4.3569837E-4
-5.380543E-4
0.0013389629
0.0020823437
0.0016294509
0.0012429776
-8.657773E-4
-4.8294105E-4
3.9071496E-5
3.7240225E-4
0.0042214724
-0.0010685361
-0.008555783
-0.001840228
0.0023327027
-7.0682616E-4
0.0011554721
0.0032061401
0.003248575
0.00390806
0.005516878
0.0068300297
0.0035218685
-0.001281916
-0.0027491548
-0.002595432
-0.002708551
-0.0026468511
-0.0012365088
5.973098E-5
-1.0863614E-4
-7.1236666E-4
1.9978911E-4
0.0016146168
-5.4162845E-4
-0.0019027223
-3.0528643E-4
-0.0024686696
-0.0045649735
-0.002859372
-0.0018877045
-7.877374E-4
-6.489838E-5
-8.644931E-4
8.5124053E-4
0.0024703431
-7.079102E-4
-0.0030805483
-0.0011034679
6.701645E-4
0.0014196426
0.0012152239
6.0031685E-4
0.0027303738
0.003537324
0.0013873717
0.0012680577
0.0022623644
0.0026543443
0.002129667
0.001174253
0.0011253142
-2.5326794E-4
-7.103651E-4
0.0010562057
8.897535E-5
-0.0012056023
-0.0010137649
-0.0014204702
-2.4992475E-4
-8.3403406E-4
-0.0040397393
-0.0036344656
-0.002929925
-0.0028729723
8.3387556E-4
0.0014144642
-8.170874E-4
0.0014960597
0.002427568
-3.2471702E-4
-0.0015017483
-0.002256572
-0.003080096
-0.0027829362
-0.0014896777
0.0011565334
0.0033911392
0.0044829114
0.0058712536
0.0065999757
0.00441893
2.514948E-5
-0.0034642504
-0.004351728
-0.0029996464
-0.0018653733
-0.0019188435
-5.257606E-4
0.0015830316
0.0023733699
0.002829742
0.002086245
-3.8849135E-4
-0.002067232
-9.272613E-4
9.444736E-4
3.6713158E-4
-6.464791E-4
-0.0012905817
-0.002507694
-0.0017411659
-8.98059E-4
-0.0011095557
3.28112E-4
9.668022E-4
9.3147566E-4
0.001221169
-7.042155E-4
-0.0010569404
0.0013508864
0.0016880647
0.0019911488
0.0024232888
-3.5156775E-4
-8.965658E-4
0.0012916917
7.03403E-5
-0.0012777563
-0.0015670429
-0.002701716
-0.0020927512
-0.0022417782
-0.0023431224
1.2982034E-4
6.793653E-4
1.389799E-4
-8.482755E-4
-0.0018882989
5.8127654E-4
0.0016852594
7.191035E-4
8.922415E-4
-7.113097E-4
-0.0016099863
-5.836674E-4
-4.7300148E-4
-5.2691024E-4
5.593116E-4
0.0045982944
0.007722565
0.006472444
0.005625299
0.0047249827
0.0026897897
0.0026476616
0.0013823458
-0.0020903978
-0.0035346977
-0.0049374974
-0.005234178
-8.23378E-4
-0.0012020983
-0.004207159
6.8084797E-4
-0.0016477838
-0.0089270845
-0.0027075105
0.0014621555
-0.0011368886
-9.831166E-5
-0.0021282036
-0.0033085826
-0.0024357066
-0.0040553305
-0.002056802
-2.3844429E-4
2.9665278E-4
0.0017499101
1.6264703E-4
4.0021454E-4
0.002601125
0.004197265
0.0059740148
0.0040321765
0.0027859453
0.0043582176
0.0023813513
-0.001712744
-0.0032849002
-0.002021568
-7.336394E-4
0.002559508
0.007450074
0.0062822355
0.0018764423
-9.580075E-4
-0.0015403272
7.5494946E-4
-2.3362064E-4
-0.002331478
-3.2560588E-4
8.929848E-4
0.001133709
9.1427553E-4
-3.8941845E-4
-0.0012940258
-0.0033627704
-0.0045838812
-0.0044387975
-0.0051569627
-0.0047214776
-0.0039438684
-0.002364409
5.428624E-4
-1.7854174E-4
-0.0016423013
-2.4258596E-4
-3.995925E-4
-3.9913482E-4
7.19293E-4
-9.998739E-5
7.852123E-4
0.002360126
0.0012198108
7.925976E-4
0.0010576311
0.0012774932
0.0019383617
0.0017657581
0.0020500338
0.0030557064
0.0037323725
0.003624491
0.003322342
0.00387313
0.0022072815
-0.0016425239
-0.0036953962
-0.0026546542
5.22504E-5
2.7227149E-4
-3.440553E-4
6.5934774E-4
1.3425438E-4
-8.7760866E-4
-0.0012755389
-0.0013721542
-0.0040952708
-0.009903061
-0.00793253
3.273592E-5
0.0035853044
0.004594856
0.0041089375
0.002876803
0.0011864032
-0.002007182
-0.0025582304
-0.0016905627
-0.0018283759
-0.001661204
-6.6519337E-4
9.6638565E-4
5.4424815E-4
0.0013324815
0.004186077
0.0031128072
0.0017113385
0.0010043863
-0.0018139555
-0.0015589581
3.762031E-4
5.227753E-4
0.0024816624
0.0019405497
-0.0046625515
-0.006866354
-0.0034971894
-0.00213181
4.4614045E-4
0.0028042851
0.0022759584
0.0030577523
0.002470688
0.0015699093
0.0022182823
0.001391983
9.24142E-4
-0.0012861848
-0.0033292358
-0.001172003
-6.441246E-4
-7.403759E-4
8.654099E-4
0.0020274904
0.0026233813
5.2725145E-4
-0.0010319859
-0.0011149361
-0.0032238485
-0.002845689
8.030415E-4
0.0032292008
0.0021386137
-9.7222533E-4
-0.0015670026
-0.0017156235
-0.0020769415
-5.1348197E-4
-0.0015901541
-0.0035211311
-0.0021072156
-5.2167935E-4
9.6707384E-4
0.0019696371
7.837391E-4
-2.137453E-4
2.3109054E-4
0.0017151607
0.002456571
0.0019913907
0.0030485352
0.0027915332
4.7384823E-5
5.6860596E-4
0.0011930994
-0.0019134334
-0.0034047768
-0.0033512972
-0.0025927743
0.0015070984
0.0048662988
0.005525819
0.007294913
0.009164357
0.005794118
-0.0032556597
-0.009994741
-0.009241838
-0.0052745533
-0.0038635838
-0.0052770358
-0.0055961227
-0.004319942
-0.0021023853
3.9954967E-4
-0.0018979707
-0.0071465136
-0.0079102
-0.0041668112
4.7628803E-4
0.0036585876
0.0057782987
0.006282191
0.005392312
0.0076654786
0.009522955
0.005535085
4.4497388E-4
-0.0010562309
6.2656676E-4
0.0031510675
0.0064327684
0.008699463
0.007884866
0.008370656
0.008708845
0.0044059926
-0.004202027
-0.013494486
-0.013516089
-0.007247243
-0.0046323235
-0.0031088095
-0.0044639744
-0.0071248286
-0.004912805
-0.0028346928
-0.002592326
-0.0025505943
-0.0015825537
2.6153374E-4
-0.0019793722
-0.0051470343
-0.00584071
-0.004614614
8.21042E-4
0.004592463
0.0048770607
0.007066954
0.007590764
0.004852297
0.0028500634
0.0018164769
1.1947651E-4
-0.0016454662
-0.001538568
-6.029468E-4
-5.3170655E-4
5.6766105E-5
0.0028874525
0.005002243
0.0032559917
0.002855176
0.005052527
0.005106567
0.004764648
0.0027031933
-0.002685217
-0.005987288
-0.00663844
-0.0048399335
-0.0012972361
-4.2870743E-4
0.0013760355
0.0042376537
9.0909714E-4
-0.0032103139
-0.003210642
-0.0056119016
-0.009628991
-0.008404917
-0.0020564676
0.0026795135
0.0029386608
0.0026243725
-2.3314975E-4
-0.006386078
-0.0077444995
-0.004323122
-0.002356972
-0.0030913043
-0.0036023594
-2.1648491E-4
0.0026492828
1.367266E-4
3.3503128E-4
0.00713974
0.010254998
0.009404415
0.012844553
0.012473216
0.0046940604
-1.07712236E-4
-0.0038565104
-0.006230424
-0.0016408036
0.0013014176
-9.4677514E-4
-0.003985438
-0.0076520555
-0.008957395
-0.0064474535
-0.0031026665
-0.0010883592
3.199389E-5
0.0029525477
0.005869203
0.004313866
-9.431565E-4
-0.0027041535
0.0037248335
0.008933247
0.007750447
0.007939744
0.008216307
0.005580298
0.0018368385
-0.003357687
-0.0071586743
-0.011432433
-0.01519061
-0.014743338
-0.017642304
-0.021597285
-0.023033403
-0.024201324
-0.018037872
-0.00959463
-0.0015372273
0.012018882
0.024686644
0.038202982
0.04678007
0.04278328
0.042313855
0.042870127
0.036008265
0.027285099
0.008443264
-0.016627211
-0.029243097
-0.028892098
-0.030171478
-0.041352812
-0.05107254
-0.05235471
-0.053831186
-0.056919314
-0.053300984
-0.04045989
-0.023147264
6.3649844E-4
0.029405525
0.049576648
0.057370856
0.058599245
0.051744554
0.03909549
0.037337575
0.0454241
0.0526976
0.06697787
0.07481093
0.06487554
0.056310944
0.05272528
0.055345103
0.045398943
-0.0045168907
-0.055395134
-0.07485913
-0.082912095
-0.09665852
-0.11900726
-0.13165882
-0.12934959
-0.12777132
-0.1313604
-0.14406817
-0.14051744
-0.092663236
-0.033552434
0.006287495
0.055373736
0.13828196
0.19972469
0.19936094
0.19122097
0.17548266
0.12195683
0.06135699
-0.020823829
-0.096680865
-0.09782425
-0.0791433
-0.057598792
0.01137765
0.107215635
0.19380365
0.19216795
0.114795044
0.092497915
0.08341758
-0.016289072
-0.1529699
-0.24216591
-0.26916832
-0.2275696
-0.1170792
-0.0490773
-0.058251508
-0.014320452
0.059320644
0.08258542
0.08659383
0.07523031
0.047294233
0.005790796
-0.0032872753
0.026232129
-0.015899127
-0.073925816
-0.060739223
-0.048093602
-0.023835195
0.028031763
0.045548078
0.027758015
0.02203273
0.05478242
0.0885972
0.0831667
0.015548315
-0.08694581
-0.10954983
-0.048338175
0.00432861
0.034753498
0.050559975
0.041068997
-0.001919201
-0.050767027
-0.06300862
-0.04296996
0.0047739805
0.06775164
0.09750162
0.06865816
0.011739312
-0.025588145
-0.018661601
0.034516446
0.06859662
0.033788797
-0.009581634
-0.0320459
-0.022729078
0.027658539
0.032786526
-0.034540903
-0.1048741
-0.13046409
-0.094869524
-0.03794459
0.0035074821
0.03577938
0.044920843
0.015515446
-0.02757701
-0.03845666
-0.009983942
0.018179318
0.021593368
0.014354379
0.015606986
0.024351243
0.03365098
0.029434564
0.018967338
0.032797217
0.040142413
0.011752323
-0.017762225
-0.034353968
-0.032069836
-0.011329794
8.671751E-4
0.0035863055
0.002573247
-0.00336487
-0.008447743
-0.012693059
-0.012624282
-0.0089934515
-0.005481505
-0.0015753513
-2.3348427E-4
0.0014700037
0.0057477993
0.009797212
0.012199672
0.013245259
0.014588029
0.013885358
0.012393134
0.011466252
0.0070688054
0.0013296884
-0.0028457213
-0.0041037127
-0.0038065114
-0.005836646
-0.008182629
-0.010170491
-0.0111200055
-0.009691536
-0.0076892744
-0.0040129987
-0.0016512456
-0.0019646918
7.664155E-4
0.005394273
0.007453462
0.0059947553
0.004118174
0.002415744
-0.001096416
-9.314048E-4
-1.0549955E-5
-0.004006913
-0.003182405
9.283484E-4
-3.0327166E-4
-4.5105157E-4
1.5354478E-4
-0.0031018897
-0.003158627
4.8395927E-4
0.001264223
9.034887E-4
0.0022736113
0.0032393264
0.002348544
7.924996E-4
0.0010536661
0.0033034715
0.0049106902
0.0052306517
0.0042156046
0.0031136263
0.003182899
0.0013105536
1.6923441E-4
0.0029652435
0.0033353358
0.001245112
-0.0010246718
-0.0070114615
-0.013628599
-0.016050536
-0.012740463
-0.005904559
-0.002699691
-0.002753917
-8.376202E-4
0.0038871153
0.0080429325
0.0066473563
0.005441182
0.009839961
0.009767845
0.0015441674
-0.006741489
-0.00944495
-0.0068330644
-0.0064939293
-0.009414571
-0.006845176
0.0019416594
0.013228143
0.023023961
0.026475275
0.023340369
0.011323826
-0.0044184155
-0.011141074
-0.0148736825
-0.020808231
-0.016401108
-0.004937097
-0.0023755967
-0.0062542195
-0.0048424616
6.9742196E-4
0.002427837
0.0016152739
0.0031236624
0.004460396
0.001676189
-0.0030845273
-0.0057399627
-0.0060374904
-0.005719349
-0.0048450716
-0.002239382
9.877575E-4
0.0042744954
0.0085951
0.008671497
0.0035626339
0.0017187608
0.0031006243
0.0050565987
0.009836532
0.013156229
0.009428656
8.774818E-4
-0.007883619
-0.013298273
-0.01038761
-0.0035912383
-0.003222947
-0.0021716203
0.002336973
0.002036362
0.0030264964
0.002456818
-0.0030838528
-0.002447868
-0.0040324666
-0.008378951
-0.0011310248
0.0030101098
-0.0036230881
-0.0046511916
-7.5348525E-4
0.001435748
0.003689333
0.0031630774
9.3215605E-4
0.0015472689
0.0010788599
-9.941774E-4
-4.3787568E-5
0.0011116517
5.655547E-5
8.3705375E-4
0.0031924963
0.0011382501
-0.0028803044
-0.0019513932
-7.96399E-4
-0.0024681524
-0.0025205128
-0.0021029005
-8.893158E-4
0.001822788
0.0027462814
0.0031066597
0.002983422
8.6359744E-4
-3.638178E-4
2.6405032E-4
0.0012168344
0.002162385
0.001980816
7.352377E-4
0.0011710043
0.0023702504
0.0022841133
0.0014571216
-7.374702E-4
-0.0021719171
-0.0012774257
9.819913E-5
0.0010459947
-5.537229E-4
-0.00197664
-0.002003324
-0.0033266458
-0.0024012353
-0.0033240695
-0.0066461917
-0.0037578912
-9.866162E-4
-0.0012957583
-0.0011146795
-0.0027234722
-0.0020201309
0.0012454063
0.0029962547
0.0030761054
0.0018642776
0.0025423886
0.0029777836
0.001795552
0.0017556509
4.7283902E-4
-8.782165E-5
6.122237E-4
-4.923727E-4
6.016693E-4
0.002852139
0.0023668897
0.0016274382
9.231524E-4
-2.8343892E-4
-6.880034E-4
-2.2149585E-4
0.0010180117
0.0013485071
-1.8853102E-4
-2.5555067E-4
0.0012666343
2.0419748E-4
-0.0019204904
-0.0011497716
-7.037237E-4
-0.0028095895
-0.0015622465
0.0018259402
9.019306E-4
3.4993244E-4
6.843956E-4
-0.0021185002
-0.0017901334
1.1216065E-4
-0.0017884877
-0.0013939447
0.0016182649
0.0017418271
7.162468E-4
5.108036E-4
-0.0010384772
-0.0021656244
-8.749036E-4
-5.552471E-4
2.0615415E-4
0.0018488226
9.5504266E-4
3.6962068E-4
-7.5247337E-4
-0.0019142632
8.701207E-4
0.0014461464
-7.2032114E-4
3.561267E-5
0.0015731092
9.6055167E-4
-0.0010950932
-0.0012191203
-6.482907E-4
-0.0012921779
-2.8343167E-4
-1.6759353E-4
-6.6635467E-4
4.7009933E-4
-6.1757956E-4
-0.0014234538
-1.2725117E-4
-4.6124082E-4
-0.001154917
-4.5841187E-4
0.0012593323
0.002859085
0.0028963059
0.0014159841
-6.443846E-4
-0.0017233405
-0.0013936003
5.0473405E-4
0.0017914971
-5.950994E-5
-3.9192222E-4
0.0015639007
0.0014195492
0.0018070713
0.0036009208
0.003126369
9.677936E-4
-0.0018295646
-0.0051430343
-0.0046095843
-7.8526384E-4
-5.7598937E-4
-0.0013824074
-4.201974E-4
-0.0011976885
-8.1146404E-4
1.3628873E-4
-0.001311178
-8.3224894E-4
4.845082E-4
-1.5758512E-4
1.5203067E-5
5.727676E-4
-4.366758E-4
-7.564696E-4
2.4277909E-4
-4.97598E-4
-9.355177E-4
5.092914E-4
-8.455068E-5
-3.18283E-4
0.0018104872
0.0017254254
3.6284153E-4
9.0753904E-4
0.0015802033
6.69842E-4
-5.953346E-4
-7.768539E-4
8.33294E-5
9.3602034E-4
7.052821E-4
-7.0269096E-5
-6.2321697E-4
-2.4058064E-4
0.0011721639
0.001319612
6.3334906E-4
9.5846114E-4
6.3995906E-4
-9.033872E-4
-5.412116E-4
0.0020923174
0.0014062903
-0.0011604998
-7.9622277E-4
-0.0012811611
-0.0017138311
-6.8492384E-4
0.0010613629
0.0038841474
-0.0020729448
-0.010061221
-0.0048517617
7.6669984E-4
8.626271E-4
0.0016537736
2.9008334E-6
-0.0016399428
-0.0011945283
-5.5344062E-6
0.001598321
0.0019113855
0.0021635033
0.0014601796
3.6324165E-4
9.665773E-4
0.0011917917
0.0010543232
5.4323504E-4
8.1178645E-4
0.0015291723
-4.4487938E-4
-0.0011593662
-2.034437E-5
1.8295714E-5
0.0012178473
0.0014551413
-9.0156955E-4
-0.0013142872
9.22957E-4
0.0014484435
2.754673E-4
2.7484813E-4
-7.6198136E-4
-0.0020654858
-9.5933897E-4
-5.5684283E-4
-0.0010939668
-0.0010525841
-0.0010664715
-6.1626645E-4
8.608794E-5
3.6182176E-4
2.416758E-4
2.2288205E-4
4.3477197E-4
6.5353414E-4
7.126891E-5
-0.0011349289
-9.580213E-5
6.788172E-4
-8.4036373E-4
-8.657905E-4
-0.0012167179
-9.296627E-4
0.0014320277
5.641467E-4
-2.586282E-4
0.0011866961
0.0012390696
0.0011184466
4.0861865E-4
2.9206355E-4
0.0016924466
9.3301537E-4
-2.874561E-4
5.1628784E-5
-1.9278679E-4
-7.848753E-4
-3.8068584E-4
2.601152E-4
-2.8075807E-4
-9.2772255E-4
-6.1451865E-4
-5.5649165E-5
9.305687E-4
0.001650981
0.0014456765
6.540652E-4
-9.522717E-4
-0.0013337649
-1.355575E-4
-7.872392E-4
-0.001985386
-0.0013892754
-0.0010974488
-7.353145E-4
-1.9802514E-5
-9.013448E-4
-0.0011083215
1.17820484E-4
2.5061204E-6
-2.8108686E-4
9.4228727E-4
0.0019582892
0.0015820693
6.8276265E-4
-3.4484096E-4
-1.7846328E-4
0.0019368273
0.0019903001
7.0114987E-4
0.001370676
2.9872303E-4
-0.0014874787
-0.0011908164
-2.0369125E-4
0.001572234
3.731028E-4
-0.002000554
-8.425215E-4
-0.0010124593
-8.888024E-4
6.404288E-4
-9.0938574E-4
-9.525956E-4
-1.7638162E-5
-5.6920893E-4
0.0011373821
0.0011714171
-8.7554957E-4
-6.744053E-4
-8.519094E-4
-9.2958263E-4
5.098095E-4
0.0010544917
0.0011530812
6.8274175E-4
-5.587578E-4
8.569811E-4
0.0030275027
0.0012686924
-2.79726E-4
4.1586187E-4
-7.024212E-4
-0.0011857774
-3.5630437E-4
-0.0011122773
-7.358568E-4
1.3504832E-4
-7.121092E-4
-0.0012665162
-0.001435007
-2.1478158E-4
0.0022322938
0.0019941432
3.4211326E-4
1.16402865E-4
-6.0054703E-5
1.7284427E-4
9.79027E-4
-6.512157E-5
-0.0011206361
2.6354022E-4
9.613223E-4
2.7940885E-4
7.855315E-4
7.820124E-4
-5.8591046E-4
-7.0400676E-4
-5.6142604E-4
-8.781657E-4
4.8496522E-4
0.0011125016
-2.3786839E-4
-1.946555E-4
-4.7832288E-4
-0.002367267
-0.002212641
-9.000555E-4
-3.9479404E-4
8.5144927E-4
0.0017995771
4.943802E-4
-0.0012503355
-0.0012005918
-3.1461692E-4
-2.5792266E-4
-5.254502E-4
-8.6390553E-4
-0.0013508907
-6.034857E-6
0.002364567
0.0019438767
3.717294E-4
9.000447E-4
0.0014169586
6.560734E-4
5.376655E-4
0.0016669626
0.0024452275
8.54981E-4
-0.0012190706
-9.7587385E-4
-7.767945E-4
-8.139826E-4
0.0011946837
0.0019822335
5.1697117E-4
-3.583377E-4
-3.4814188E-4
8.198647E-4
1.1845129E-4
-0.0010976455
0.0034446316
0.0017969069
-0.010132646
-0.01025851
-4.570377E-4
0.0010741038
-1.5944124E-5
0.0013868207
6.108484E-4
-4.1357815E-4
2.2678747E-4
0.0014122889
0.0019248871
0.0013871184
9.1234193E-4
5.2290794E-4
4.4247604E-4
7.140629E-4
9.4569684E-4
0.0011597096
-2.0787726E-5
-5.833591E-4
7.0087105E-4
-4.0097814E-4
-4.200339E-4
0.0024747825
0.0016347844
6.4179365E-4
0.001089202
-0.0011242776
-4.5900265E-4
8.715458E-4
-0.002381278
-0.0033568423
-9.919778E-4
3.5524456E-5
-7.831483E-4
-0.0010068052
7.876029E-4
4.682439E-4
-0.0012598103
-3.8633015E-4
-4.9967886E-5
-6.6079566E-4
1.5862736E-4
7.286201E-4
4.4967557E-4
3.2985868E-4
2.576387E-4
5.0968595E-4
0.0011699363
0.0013346877
0.0020488868
0.0019339995
-0.0018482445
-0.0035203106
-5.612487E-4
7.490901E-4
1.799838E-4
1.4994625E-4
3.576988E-5
-2.5177252E-4
-6.394899E-4
-0.0012132118
-0.0011726236
0.0010360186
0.0020863614
-1.8910621E-6
5.778453E-4
0.0023751464
6.224312E-4
-2.6095455E-4
0.0010861589
4.926769E-4
-0.0013277577
-0.0012403125
-5.074873E-4
-8.401592E-4
-8.2023215E-4
-5.2268466E-4
-2.3139188E-4
4.3615102E-4
8.662585E-4
0.0015529903
0.0013683207
-2.0338736E-4
-5.1943917E-4
-8.4702065E-4
-0.0023258107
-0.001957006
-7.6799764E-4
-4.906259E-4
4.912843E-4
7.031914E-4
-2.328916E-4
-1.04427774E-4
-1.1320481E-4
1.9447901E-4
0.0018264197
0.0014460493
-6.3058623E-4
-3.7823847E-4
9.322624E-4
1.7046963E-4
-5.8149424E-4
3.2966083E-4
9.952832E-4
7.7876716E-4
3.0824656E-4
5.7974143E-4
-5.5942106E-5
-0.0021828702
-0.001064216
0.001179935
0.0015814973
0.0024260662
6.7498686E-4
-6.025764E-4
0.0011593176
-0.0010756204
-0.0027255022
1.0428013E-4
0.0012291612
5.1472307E-4
-0.0014144763
-0.002931782
-0.001708328
-5.3770974E-4
4.8420367E-5
1.605847E-4
-5.724268E-4
-9.0648944E-4
-9.874103E-4
-3.9530013E-4
5.937573E-4
7.020748E-4
7.014394E-4
0.0014286748
0.0017451748
7.625987E-4
2.870023E-4
2.2676908E-5
-0.0011673734
-3.2696623E-4
0.0012958649
3.8228568E-4
-5.829919E-5
0.0012564883
0.0019477493
0.0014458379
4.5937722E-4
2.4159174E-4
5.51543E-4
-4.3097258E-4
-0.002094529
-0.0018187102
-1.7360249E-4
-3.7699726E-6
-4.527532E-4
3.9448983E-5
-7.2759035E-4
-0.0024059978
-0.0015738441
-3.317946E-4
-0.0012360369
-6.1675365E-4
9.5081603E-4
-3.172743E-4
-9.5523114E-4
2.456099E-4
-1.4592575E-4
-1.6109855E-6
0.0011512644
4.1393217E-4
3.0158152E-4
0.0012432297
5.752901E-4
6.9390744E-4
0.0013999498
-5.5925106E-4
-0.0024621033
-9.501908E-4
0.00154372
0.0018416396
0.0017228739
0.0012688163
-0.0010976391
-3.7142794E-4
0.0020559528
0.0010994185
0.0011051106
0.0010345344
-2.4188176E-4
0.0010158924
8.220947E-4
-0.0010767183
-0.00217576
-0.0021611578
9.9454184E-5
2.333535E-5
-5.89076E-4
7.51135E-4
-8.820662E-4
-0.0017059245
-6.347378E-4
0.0013182693
0.0028181912
-0.004853048
-0.009583807
-0.0013859168
0.002549573
7.956189E-4
7.2042324E-4
-2.9405946E-4
3.027441E-4
4.4598812E-4
-0.0015853501
-4.7847803E-4
0.0021075427
0.0027434449
0.0014144437
-5.5383047E-4
-6.299647E-4
6.6640606E-4
0.0011117803
9.113558E-4
0.0015766476
0.0017160453
6.1921E-4
4.901688E-4
-3.8141003E-4
-0.001311815
5.6285906E-4
0.001195559
0.0011439922
0.002571948
0.0017563117
9.496179E-4
8.3016633E-4
-0.0013711198
-0.002333389
-0.0018917122
-0.001347809
-2.0675112E-4
-2.7380648E-4
-0.0013895773
-0.002493375
-0.0015957457
4.885924E-4
2.7143207E-4
-1.1538485E-4
-8.8921614E-4
-0.0023081326
-0.002059336
-0.00253644
-0.0019088148
-1.9172444E-4
-2.5972046E-4
0.0010190713
0.0011095877
-3.1031863E-4
5.82871E-4
5.25125E-4
4.1003604E-4
0.0016356969
0.0024596069
0.0035582369
0.0031664714
0.0021219407
0.0017051982
5.168919E-4
4.2940315E-4
0.0011984832
0.0014668762
0.0020645328
0.001988811
-3.2736392E-5
-0.0020371862
-0.0016668659
-0.0016161379
-0.0028854767
-0.0023468493
-0.0011164573
-8.1929186E-4
-0.001114122
-0.001491036
-0.0012393744
-0.0010998907
-0.0012727759
-0.0021998372
-0.0018086188
0.0011809513
9.955262E-4
-0.001157936
-9.441939E-4
-5.5651995E-4
0.0012509952
0.0028007857
0.0015606667
7.6733687E-4
7.9841506E-5
2.1599075E-4
7.403326E-4
-4.5751675E-4
8.3376264E-4
0.0024447313
0.0010397576
0.0016258676
0.0026491922
4.0215568E-4
-0.0015400372
-3.2222996E-4
0.0015778379
5.3701457E-4
-0.001219702
-5.912954E-4
2.219241E-4
-1.1435875E-5
-6.6073076E-4
-7.6602004E-4
9.016197E-4
0.0013479289
-0.0011987891
-0.0017589974
4.0459543E-4
1.2341293E-4
-0.0017836678
-0.001274574
2.7823498E-4
1.7701554E-4
-8.6433854E-4
-0.0014634251
-0.001654142
-0.0016099212
-0.0013663203
-5.805729E-4
9.121745E-4
0.0015266137
8.804456E-4
4.239574E-5
-0.001092684
-0.00110132
3.5179497E-4
3.424534E-4
-1.9897716E-4
0.0010144025
0.0022973674
0.0028819083