9.338607E-5
4.6710644E-5
-6.2743895E-4
-0.0016931853
-0.0014530874
4.1804506E-4
-7.343886E-4
-9.316514E-4
-5.474072E-4
-0.0025218346
-6.554246E-4
6.233823E-4
-6.1617495E-4
0.0010855745
0.0013806708
-4.3712844E-4
-7.114294E-4
5.216373E-4
0.0013194598
7.8363804E-4
9.92176E-4
7.380781E-4
7.2770167E-6
-1.011733E-4
-4.6877185E-4
5.110458E-4
0.0012358975
0.0014352628
0.0015521175
5.736272E-6
4.412593E-4
0.0014150557
8.053433E-4
-3.9222973E-4
-0.003824254
-0.003469656
-6.914788E-4
-0.0019476091
-3.676227E-4
0.0025924286
0.0013777746
1.8856648E-4
-4.3972695E-4
-5.524599E-4
5.069529E-4
4.5824944E-4
-9.864088E-4
-0.0026721118
-0.0027798638
-0.0010952228
1.12232054E-4
1.21108955E-4
1.5351035E-4
5.5543426E-4
0.001223041
0.0025227303
0.0016652135
-0.001298393
-0.001115028
6.130907E-4
2.5361983E-4
-7.606336E-5
7.980319E-4
0.0010064393
1.9661475E-4
5.919079E-4
5.9044425E-4
-6.4018945E-4
2.8684197E-4
8.857821E-4
-6.327479E-5
8.716683E-6
1.4806402E-4
9.4099046E-4
7.1335986E-4
-0.0017825832
-0.002023276
-2.7110634E-4
2.9151008E-4
-8.401191E-4
-0.0012855695
6.7906163E-4
0.0012889376
0.0010666309
0.0020399739
8.1780704E-4
-0.0012242926
-0.0016665086
-0.0014541124
-9.1054937E-4
-0.0010093951
-1.7085299E-4
0.0022073342
0.0016067392
-0.0010977223
-2.2460638E-4
0.0012409472
-9.526035E-4
-0.0013905513
4.180048E-4
1.6119066E-4
2.0655524E-4
-3.4115041E-4
-0.0015653234
-2.78193E-5
7.068476E-4
7.243985E-4
0.0016832867
1.5933087E-4
-0.0018964973
-0.002355975
-7.664068E-4
0.0018319428
0.0011718743
3.5338974E-4
5.174722E-4
-9.688499E-4
-3.9926913E-4
-1.7905599E-4
-0.0016274783
-7.736982E-5
0.0010185664
9.882448E-4
0.0021838022
0.0016500764
4.3349562E-4
6.5986736E-4
8.809496E-4
-4.3031623E-4
-0.0025164536
-0.0019106029
0.0012242158
0.0021914002
4.9688322E-5
-1.9960302E-4
0.0015712802
5.141591E-5
-0.0017401963
-7.453036E-4
-2.4260391E-4
1.1662953E-5
2.511867E-4
5.088473E-4
1.2966144E-4
-0.001351184
-4.949184E-4
-0.0011149835
-0.003912923
-0.0019092342
5.9737044E-4
4.7599393E-4
4.5767459E-4
-1.4453146E-4
4.540394E-4
3.7675945E-4
-0.0016674757
-0.0015299683
-4.7463927E-4
5.417855E-4
0.002041314
0.0020342888
0.0013435688
0.0011665487
0.0010038808
4.1940997E-4
2.300448E-4
4.1791168E-4
9.0712645E-5
0.0010412412
0.001970745
9.726669E-4
2.2096328E-4
7.906362E-4
0.0023168637
0.0012498028
-9.960358E-4
-3.8071818E-4
-0.0015990986
-0.0019454242
-8.464164E-4
-0.0040720487
-0.0030148802
2.1235787E-4
-6.233125E-4
0.0014982903
-0.0010018329
-0.0065086125
-0.0024652174
0.0012447848
6.5366237E-4
0.0011176408
6.1705254E-4
7.7347213E-4
0.001314775
8.560851E-4
6.142799E-4
8.208005E-4
0.0021776792
0.0028147285
0.0022840968
0.0011843238
2.000956E-4
0.0012492193
9.649279E-5
-0.0021539372
-2.2496778E-4
2.8036244E-4
-0.0010383651
-1.6119338E-4
-5.159842E-4
-9.729422E-4
-1.1775603E-4
-0.0010590559
-0.0019355639
-8.075105E-4
-1.3820089E-5
-4.663093E-4
-3.6929047E-4
7.079677E-4
9.44213E-4
-1.6233188E-4
-5.044297E-4
8.8819774E-4
8.4064057E-4
-7.663915E-4
2.5044935E-4
0.0018409261
7.481128E-4
-1.2928122E-4
6.929514E-4
5.8578246E-4
-0.0014025094
-0.0015276357
4.893662E-4
1.4476496E-4
-0.0014651321
-0.0019589933
-0.0016403178
-9.00058E-4
-5.0313503E-4
9.3954423E-4
0.0015854134
7.606495E-4
0.0021064815
0.001387896
-0.001189314
-2.8697023E-4
4.21387E-4
0.0011382187
0.0023807534
0.0012022656
4.2607184E-4
-2.1475505E-4
-4.8360912E-4
2.3849432E-6
-0.0016295299
-0.0012107432
2.2086671E-4
-0.0015140492
-0.0012889013
-2.5327658E-4
-7.235838E-4
8.6201285E-4
0.0018899482
9.961631E-4
-2.778938E-4
-0.0023349011
-0.002493986
-0.0010077985
-1.3977257E-4
6.803315E-4
1.1236757E-4
-1.7679723E-4
0.0012355517
6.091037E-4
-3.699401E-4
1.8177858E-4
3.0791978E-4
0.0017885491
0.0027330345
4.2354636E-4
-5.242809E-4
4.2662653E-4
-6.067588E-4
-0.0017267271
-7.186735E-4
-2.8655885E-4
-2.0057787E-4
0.001259339
6.7157764E-4
-0.0010412509
-3.235557E-4
-5.6478346E-4
-0.0019015159
-9.180751E-4
8.118494E-4
0.0011928598
2.3098873E-4
3.2727772E-4
0.0013963508
-4.8891717E-4
-0.0019326615
-1.2468407E-4
5.7826214E-4
0.0011599488
0.0015670748
1.0359505E-5
-5.2606913E-5
-3.9506762E-4
-0.0010494932
8.7672594E-4
3.667368E-4
-0.0010561899
4.7621166E-4
5.40774E-4
-1.9071038E-5
5.4411223E-4
4.9972977E-4
1.3045021E-4
-8.8653906E-4
-0.0011640163
-6.487053E-4
-7.0424454E-4
6.909402E-5
-1.9594528E-4
-0.0020580979
-0.0020081126
1.1122523E-4
0.0020220007
0.0012422063
-7.836102E-4
-2.1421656E-4
5.145983E-4
-4.6658117E-4
5.551512E-4
0.002071207
9.875526E-4
0.0010328224
0.0017801624
4.492785E-5
-9.0713124E-4
-0.0011694323
-0.0020017924
-6.165607E-4
0.0013630962
0.0017608376
7.190145E-4
-9.725856E-4
-0.0013292582
-7.091897E-4
4.4690876E-4
0.001337247
0.001186456
8.2669227E-4
-6.163443E-4
-0.0017412207
-0.0015222906
-0.0011209003
-7.7981246E-4
-0.0016811455
-5.0916703E-4
0.0011869485
-0.0018115613
-0.0020453455
0.0012488649
0.0016699469
7.360952E-4
-4.9279886E-4
0.001125109
0.002747421
-6.831855E-5
-3.4759988E-4
7.0754834E-4
2.8623364E-4
0.0014057248
0.0016676559
0.0012500864
2.4192738E-4
-1.0170605E-4
6.891899E-4
-0.0010817001
-2.7380174E-4
0.0024172424
0.0022672596
0.0010424191
-0.0024569335
-0.00200929
2.2330147E-5
-0.0015046417
9.3323214E-4
-0.0043452927
-0.012196423
-0.0033391437
0.0013871785
-0.0017432031
0.0019258357
0.0017749285
-4.208304E-4
9.414979E-4
0.001275022
0.0027494738
0.0026132069
2.502772E-4
7.691895E-5
8.331408E-4
0.0013567444
0.0014042335
0.0014736328
0.001835828
0.001496356
0.0010986122
0.0013411306
0.0013038968
9.775908E-5
-5.3766597E-4
-4.9707555E-4
-7.4608746E-4
8.033527E-5
3.424728E-4
3.3933168E-6
-5.532733E-4
-0.0033519883
-0.003909715
-0.0012212307
-2.951598E-4
-1.0540243E-4
3.6210602E-4
1.13092516E-4
1.4466072E-4
1.4998418E-5
-6.816609E-4
-3.395224E-4
3.8357585E-4
-4.8739734E-5
1.2430747E-4
9.505885E-4
7.412524E-4
1.2844738E-4
7.75181E-5
1.8464297E-4
-0.0010727182
-0.0010327343
9.6310343E-4
-3.640541E-4
-0.0015842651
6.948052E-5
2.374287E-5
2.438837E-4
7.8133954E-4
-5.808839E-4
-6.2875234E-4
7.2655943E-4
0.00132867
9.3660527E-4
2.3620616E-4
-1.4624707E-4
-1.1314288E-5
-1.4891392E-5
-0.001487341
-0.0022002752
-2.682238E-4
0.0017079753
0.0016345758
8.812136E-4
0.0018189467
0.002355527
0.0017010608
9.298991E-4
-0.0019416765
-0.0029696806
-0.001718109
-0.002728201
-0.0020224946
-3.584259E-4
1.6712413E-4
0.002339746
0.0032730896
0.0024529232
5.176877E-4
-0.0018279472
-9.027926E-4
-3.0029213E-4
-0.0014222927
-8.662887E-5
0.0013757424
0.0011387231
7.274062E-4
-4.3176563E-4
-0.0012910092
-6.703832E-4
-7.6862E-4
-0.0015225231
-0.0011737065
1.9704911E-4
0.0022013583
0.0011134289
-0.00228569
-0.0019357003
-8.900277E-4
-8.598627E-4
8.085723E-4
9.2033E-4
2.4881327E-4
6.151871E-4
-3.8457708E-4
-0.0012901517
-6.835407E-4
4.320698E-4
0.0016301388
0.0019412275
0.0014714167
0.0010914819
2.099946E-4
-4.0540384E-4
4.0596692E-4
8.726927E-4
0.0010055916
0.0012832928
-4.8354402E-4
-0.0027004944
-0.0019439518
4.668788E-4
7.745602E-4
-3.8586505E-4
7.471095E-5
3.4141197E-4
-3.1867912E-5
-1.3364003E-5
-8.2431233E-4
-4.9748295E-4
3.9308437E-4
5.487701E-4
7.317388E-4
-3.8746363E-4
6.686923E-5
0.0011358473
-4.5009647E-4
-6.9291185E-4
-4.0663255E-4
-4.0241622E-4
6.4904283E-4
-2.279874E-4
-6.5325515E-4
5.3529383E-4
-1.5068072E-4
-0.0016682355
-0.0011998023
8.730083E-4
1.924174E-4
-0.0018418588
-7.819633E-4
-1.6647472E-6
-1.4899367E-4
4.988357E-4
3.2428023E-4
-4.345766E-4
-0.0014379511
-7.502612E-4
0.0014926587
0.0013529272
6.874561E-4
0.0015317335
0.0019115278
9.903719E-4
-6.622009E-4
-8.935803E-4
-6.5236754E-4
-0.0011925179
-9.910369E-5
9.6060813E-4
1.4529117E-4
-5.587716E-4
-3.7882736E-4
7.7034696E-4
0.0014478088
3.138449E-4
-6.126818E-4
-1.22063306E-4
5.003732E-4
0.0013044201
0.0023825688
0.0015510678
4.5053274E-4
6.2034646E-4
-0.0010400149
-0.0021657
-8.987664E-4
-1.0333021E-4
7.223602E-4
6.7167316E-4
-7.3490135E-4
-0.0015997759
-8.702312E-4
7.255109E-4
-2.5353374E-4
-1.8360769E-6
-3.0214695E-5
-0.0074828267
-0.009031667
-5.753699E-4
0.0030542589
0.0019336472
6.280894E-4
3.6429774E-4
0.0012684389
1.9288229E-4
-4.117837E-4
8.0671534E-4
0.0027052464
0.0033125882
4.0486228E-4
-8.066101E-4
5.611574E-4
8.802362E-4
0.0011268068
0.0012410656
0.001899331
0.0021391078
7.96813E-4
2.940705E-4
-3.1507585E-5
-2.7329783E-4
-3.830234E-4
-0.0014502582
-9.1729616E-4
4.6314098E-4
1.0642548E-5
-0.0012886964
-0.0026966296
-0.00224464
2.4602198E-4
1.7364945E-4
-0.0013897285
-2.5156126E-4
9.749687E-4
2.603201E-4
-9.517014E-4
-0.001074764
1.4099364E-4
-2.7263898E-4
-3.882843E-4
0.0010209917
-3.986759E-5
-3.762734E-4
2.5876876E-4
-8.826527E-4
2.4966503E-4
0.0016432636
8.407435E-4
-1.8578672E-4
-0.0016238405
-0.0011698785
1.567137E-4
-7.692954E-5
7.5439166E-5
3.7023405E-4
0.0013667918
0.0027447343
0.0012316223
-9.431844E-4
-0.0012718763
-0.0021899184
-0.002132084
-3.6161106E-5
-2.3247662E-4
-4.408504E-4
0.0016378659
0.0016198418
5.47067E-4
4.0971398E-4
6.090719E-4
6.552206E-4
-2.1155935E-4
7.732565E-4
0.0020238382
0.0012055081
5.804563E-4
-0.0012670507
-0.0013850491
0.0016116804
0.00173838
-1.0941596E-4
-0.0011273801
-0.0010445052
-7.5799675E-4
-0.0015261804
-0.0017658992
-0.0020311598
-0.0011709154
5.798974E-4
-0.0014270092
-0.0031111913
-5.6377554E-4
0.0011650247
-1.6771197E-4
-0.0011736132
-3.3366552E-4
4.974589E-4
0.0015151406
0.0013300224
-1.3332866E-4
0.0011332367
0.0020803611
0.001712001
0.002548389
0.0014973148
3.378062E-4
9.634931E-4
0.0014606693
0.0013498398
-3.698674E-4
-9.87706E-4
-6.273573E-4
-0.00133119
-8.564584E-4
-7.986908E-4
-0.0010754854
-9.5189665E-4
-0.0017544319
3.6769543E-5
0.0028795549
0.002238379
-3.7429607E-4
-0.0015975967
-3.134099E-4
-5.83772E-4
-0.001498249
5.9666083E-4
8.006534E-4
-0.0012641904
-0.001213115
-4.3654843E-4
-0.0013466122
-0.0024927957
-0.0010596088
2.8162936E-4
-2.945877E-4
-3.3599144E-4
-5.6914304E-4
3.0759265E-4
0.002125236
0.0019267736
0.002130865
0.0016663405
-3.1911768E-4
5.634134E-4
0.0022379793
0.0024154473
0.002927412
0.0020608313
-3.806507E-4
-0.0012946815
-0.0012825594
-0.0022745954
-0.0024810908
-7.193682E-4
7.6020847E-4
-2.552507E-4
-0.0025142983
-0.002738272
-0.0014636
-3.7835585E-4
0.0010224847
0.0014343201
-1.003485E-4
-0.0024339817
-0.0030808973
-9.869649E-4
7.776466E-4
0.0017263346
0.0031388465
0.0037775538
0.003830715
0.004039863
0.0049623926
0.005578323
0.003074399
-9.855726E-4
-0.003213856
-0.0037963074
-0.004172816
-0.004195293
-0.003745636
-0.004052479
-0.0042664697
-0.002869728
-0.0019751831
-0.0027827895
-0.0011952537
0.0018807879
2.3478888E-4
-0.0015038163
5.11053E-4
0.0019182794
0.0031565614
9.2537387E-4
-0.0029285522
-7.19685E-4
0.0020233716
0.006064557
0.008929078
0.0015398426
9.550662E-5
0.0068124044
0.002577256
-0.0049908874
-0.005250358
-0.0029964142
-1.315744E-4
0.002571726
0.003028104
-1.4537974E-4
-0.0037598743
-0.0036545694
-0.0020574727
-0.00141969
-9.629442E-4
3.8005563E-4
0.0011098147
9.674035E-5
6.5644906E-4
0.0029071872
0.0024156678
-1.8869164E-4
-5.819641E-4
-1.684356E-4
-0.0013296659
-0.0011497424
4.55262E-4
0.0013702117
-2.3821947E-5
-0.0029787498
-0.0029519044
-0.0038048027
-0.0059623234
-0.0029074764
-0.0014059504
-0.0018873435
0.0017364988
0.0040322025
0.0049698097
0.004478719
9.5992355E-4
-3.2392162E-4
-0.0018773588
-0.004526317
-0.0044346536
-0.00412989
-0.002534422
-2.2071571E-4
-0.0011392209
-7.727923E-4
0.0030171736
0.0041228565
0.0033137342
0.006655363
0.009138022
0.0049429955
-3.6249103E-4
-0.0050223907
-0.010474378
-0.011605827
-0.008341558
-0.007483896
-0.008651254
-0.007181342
-0.004825548
-0.0028715087
-0.0018689611
-0.0043425504
-0.004899927
-0.0018799537
5.507398E-6
0.004368953
0.010414636
0.012795942
0.01417533
0.016473591
0.016736083
0.012834295
0.008116683
0.0048720115
3.0082825E-4
-0.003130147
-0.0024347864
-0.0020453632
-0.0054098703
-0.0101831835
-0.012756043
-0.009954347
-1.1162229E-4
0.009076291
0.011337492
0.01276033
0.015816776
0.017275177
0.015161569
0.011446138
0.009096591
0.0030761953
-0.003684638
-0.0031912548
-0.0011135375
-4.581398E-4
-5.9136446E-4
-0.001363652
0.0029407488
0.00885728
0.010010224
0.0056985985
-0.008513646
-0.027604472
-0.038627837
-0.04779343
-0.06451209
-0.076756306
-0.0745125
-0.05528277
-0.023546124
0.0012522016
0.019791018
0.036229238
0.041037392
0.052064855
0.0649632
0.05569799
0.047320813
0.048243307
0.042050563
0.028771333
0.01449416
0.0142512545
0.013199719
-0.0030890233
-0.0135770235
-0.026011541
-0.028992467
-0.0079280585
-0.0010832504
0.0035770435
0.0231304
0.022956353
-1.1176023E-5
-0.04398415
-0.09878518
-0.11354443
-0.0639166
0.012909325
0.06493927
0.0891207
0.1040505
0.10766218
0.07837584
3.504606E-4
-0.08224352
-0.1381711
-0.15483269
-0.08804672
-0.0046239593
0.02089476
0.042454287
0.05643319
0.03961364
0.026685866
0.011819871
-0.0063725733
-0.015863862
-0.020089809
-0.010115988
0.01119724
0.024290983
0.024624277
0.04411621
0.07757781
0.06457033
0.014931153
-0.034971174
-0.070392706
-0.048051164
0.005374601
0.023502458
0.004171509
-0.049398173
-0.10331182
-0.10796874
-0.075180575
-0.03181588
-0.012922896
-0.020001613
-0.012681742
-0.003167213
0.0053311833
0.015548823
8.529184E-4
0.0035954956
0.06031663
0.13571475
0.1785666
0.18144941
0.19550103
0.18563218
0.13074017
0.08975203
-0.010667171
-0.15839359
-0.21605691
-0.21223688
-0.18113849
-0.13004552
-0.10463114
-0.07003078
-0.018808307
0.022220656
0.06901923
0.09277783
0.026751846
-0.09828459
-0.15209877
-0.13252307
-0.11096373
-0.057113856
0.009300059
0.060167823
0.123437464
0.16727203
0.1709011
0.13294053
0.06668582
0.029182103
0.030156665
0.037528597
0.024068523
0.009749259
0.010156819
-0.028131448
-0.07386256
-0.059691623
-0.027356746
-0.025547571
-0.05496687
-0.06635743
-0.03557692
-0.014215886
3.0782225E-4
0.02009622
0.010175143
-0.0035845896
0.008687968
0.01958331
0.017840847
0.01615066
0.01717894
0.0133560775
6.895464E-4
-0.010550846
-0.0096178735
-0.00517083
-0.0048156246
-0.0024492277
-8.938884E-4
-0.0014029403
0.0010872991
0.0031125052
0.004818016
0.006869748
0.006137952
0.0038692288
0.0010538971
-8.587557E-4
-0.0013358974
-5.2901113E-4
0.0010374513
-3.3840607E-4
-0.001103567
0.001620694
0.0010827535
-0.0017392639
0.0011386499
0.0066807447
0.006649089
0.003687937
0.0013683803
-0.0031976057
-0.007652778
-0.008580657
-0.006906852
-0.005596039
-0.0051668165
-0.002118364
-3.880832E-4
-0.002569207
-0.0025071374
-0.0013804162
-6.1962905E-4
0.0034156092
0.006951263
0.0064263074
0.0042205225
0.0014425239
-1.0464227E-4
0.0013935444
0.0033170562
0.0034156286
0.0014059365
-0.0016403551
-0.0036200415
-0.0059922067
-0.0077996943
-0.0057415026
-0.002834383
4.635301E-4
0.004578485
0.0044328803
0.0012939429
-3.7134436E-4
-0.0010771182
-0.001281031
-3.383138E-4
0.0010869011
0.0017968541
0.0023704518
0.003623896
0.006633389
0.01085703
0.010865593
0.0070616063
0.004035312
2.46997E-4
-0.0036710354
-0.0053705694
-0.0058851116
-0.005582219
-0.005107592
-0.0054490273
-0.005643799
-0.0037353975
-0.0019276699
-0.0033823783
-0.0048253937
-0.004039691
-0.0017473196
4.237656E-4
-6.359115E-4
-0.001325575
8.2607375E-4
0.0016434415
0.0012207289
0.001094774
0.0015204342
8.564174E-4
-0.0020606273
-0.0010318165
0.0030916908
0.0025871666
0.0012628827
0.002130594
0.0013405952
3.2287472E-4
6.3613075E-4
0.0026431098
0.0062760958
0.008420931
0.008344979
0.00408793
-0.0019479408
-7.508593E-4
0.0029711423
0.002527694
0.0026812714
0.002444515
-0.0016880544
-0.0069739013
-0.006558227
4.015906E-4
0.0021120268
-0.003919099
-0.009671669
-0.012506521
-0.011008606
-0.008516485
-0.0069424165
-0.003983883
-0.0031117066
-0.0023332117
-9.6555316E-4
-0.0028196017
-0.0016749399
8.167805E-4
1.2201254E-4
0.0022425847
0.0048888028
0.0075367717
0.012221549
0.012100669
0.010455843
0.010816947
0.0074728434
0.0018748888
-7.823879E-4
0.0025269913
0.0052571306
0.001994126
-5.141849E-4
-0.0037227026
-0.0073368233
-0.009572549
-0.014289773
-0.010694363
-0.0025162136
8.314331E-4
0.0061440235
8.1102405E-4
-0.008915915
-0.0025327501
0.002865963
0.0025289087
0.003427071
8.3062693E-4
6.0386804E-4
3.0185757E-4
-0.0019202571
-3.8823386E-5
0.0013018873
0.0026699458
0.005157903
0.0041702036
0.0017391171
-1.1309484E-4
-0.003222035
-0.005643152
-0.0032548832
-0.0014070538
-0.00307897
-0.0024924658
-0.0021220183
-0.0023343195
-8.060958E-4
-0.0010146505
-8.886368E-4
1.7888786E-4
9.44826E-4
0.0018323045
7.684687E-4
0.0011118735
0.002676633
0.0010705668
8.254665E-4
0.0032818897
0.0035452396
0.0015880723
-0.0010573424
-0.0025723262
-0.0010643902
-0.0013647774
-0.0034666667
-0.0016181987
-8.155824E-4
-7.1401877E-4
0.002556667
0.0039720386
0.0050726463
0.0012335394
-0.0065142615
-0.002833804
0.00367065
0.0046705585
0.0055088345
0.003127074
3.0346276E-4
-0.0029738855
-0.004917661
-8.777553E-4
-4.6228463E-4
-0.0010620956
0.0019047183
0.0027218498
0.002934102
-0.0011649618
-0.0063922945
-0.005385578
-0.004220653
-0.002984649
-0.0016787255
-0.002489876
-0.0029597075
-0.003428422
-5.776701E-4
0.002946802
0.0017821868
0.0018985296
0.0030811077
0.0013213931
3.5935928E-4
0.0013158908
0.0010429639
6.688728E-5
7.485913E-4
0.0015359207
0.0028096957
0.0047553475
0.003932972
0.0026198472
0.0019530841
-1.527698E-4
-3.0411594E-4
0.0017687579
0.0020374586
0.0010363435
3.920295E-6
-0.0025402575
-0.0040895063
-0.002622209
-0.0021038703
-0.0014680921
1.2312173E-4
-0.0012955123
-0.0023905435
-0.0016067649
-0.002742664
-0.0029682785
-2.8431095E-4
4.355403E-4
-0.0014669709
-0.0011326114
-4.9247545E-5
-0.0012018154
-0.0013930209
-2.0234645E-6
0.0013004835
0.0014473152
3.306889E-4
0.0011534372
0.0021484606
4.9797556E-4
2.1255304E-4
0.0022079498
0.0027646162
0.0015597269
0.0013738226
8.1851706E-4
-0.0017012177
-0.0018048568
-4.9773563E-4
-9.093874E-4
2.2683381E-4
0.0015720022
6.4112194E-4
-7.1689785E-5
-1.943527E-4
1.5659867E-4
4.3186752E-4
-7.2665565E-4
-4.0205749E-4
0.0016889138
0.001116488
-7.395253E-4
-7.2524964E-4
-3.3822106E-4
-6.1643304E-4
-0.0014055693
-0.0015671354
-4.6836893E-4
1.740987E-4
5.145822E-4
0.0011853172
0.0011075141
-2.5448995E-4
-6.3687033E-4
0.0010229576
-3.6826075E-4
-0.002938227
-0.0011394972
-3.5659422E-4
-9.3209185E-4
-6.351639E-5
-7.656345E-4
-2.163828E-4
0.001350182
0.0013020056
0.0013049314
-5.843339E-4
-0.0011610341
0.0018368007
0.0011799784
-0.0010752811
3.7079607E-4
-2.9515164E-5
-0.0026069258
-0.0010118169
0.001289886
5.867621E-4
3.812818E-4
-1.6332074E-4
-8.87047E-4
-2.701837E-4
-3.8413686E-4
3.893809E-4
0.0010844605
4.5814042E-4
0.0012019285
0.0010223569
1.369293E-4
-1.13175745E-4
-1.974544E-4
0.0015589276
0.0014698238
1.859557E-4
0.0010000766
-2.063754E-4
-7.9397706E-4
9.928922E-4
-6.51945E-4
-0.003563738
-0.0022120697
3.8332737E-4
-3.9891645E-4
-0.0010023026
-3.245906E-4
-4.1068197E-5
0.0012451449
-3.2807855E-4
-8.9670466E-5
0.0023404998
-0.005348051
-0.0083615985
0.0015116764
0.0046400465
0.0032842038
0.0035365701
0.0010332578
-3.2187902E-4
-4.0404128E-5
8.443016E-4
5.660886E-4
-0.0010744941
-1.5891893E-4
2.3195741E-4
0.001425493
0.003545421
8.418988E-5
-0.0028522634
-9.5495867E-4
4.3697332E-4
2.580505E-4
-9.975007E-4
-0.0027700523
-0.0034331211
-0.0012901761
0.0010000566
-9.796175E-5
-4.4976993E-4
1.3313329E-4
-0.0012324478
-0.0010962404
7.131566E-4
0.001517812
4.5853513E-4
-2.1870557E-4
0.0021215023
0.0025465116
2.6289918E-4
1.1291256E-4
4.9224746E-4
0.0013272748
0.0027053757
0.0019524506
5.799605E-4
-8.97225E-4
-0.0017663047
-5.4882665E-4
6.695825E-4
6.811657E-4
-5.2945607E-4
-0.0010962853
-6.2562525E-4
-5.38341E-4
0.0010710792
0.0010636537
-0.0017229667
-0.0022816071
-0.0020996628
-0.0014545849
-9.64881E-4
-0.0021413427
-6.47743E-4
8.376722E-4
-7.102885E-5
-1.7309419E-4
1.6276348E-4
0.0018961418
0.00256269
2.4623744E-4
-5.6144944E-4
3.7280578E-4
0.0010858419
7.8431965E-4
-4.0253828E-4
-0.0010124011
-4.1435214E-4
7.838453E-4
0.0010286786
0.0015499032
0.0018236475
5.478343E-4
-1.4776697E-4
-0.0015174485
-0.0011804792
7.133881E-4
-0.0011609838
-0.0015228312
-1.8619352E-4
-6.9456035E-4
2.4230763E-5
-0.001024835
-0.0017307638
8.452888E-4
9.969731E-4
-1.4084789E-4
6.261598E-4
0.0016056753
7.058016E-4
1.6351379E-4
0.0015844953
2.3182761E-4
-0.0013916681
-3.1862484E-4
-3.5216447E-4
8.285272E-5
0.0012173207
0.0018513355
9.900783E-4
-0.0018000724
-8.6800265E-4
6.4204464E-4
-9.6553616E-4
-6.6326075E-4
-0.0016059375
-0.0025554416
7.628865E-4
0.0014492534
-6.101329E-4
-8.94545E-4
-6.601115E-4
1.6454213E-5
6.091569E-4
5.9931324E-4
4.7841837E-4
9.532817E-5
2.770101E-4
4.4477443E-4
-9.703658E-5
-5.2603055E-4
-7.734237E-4
-6.357035E-4
5.3743894E-5
9.841628E-4
0.0010636955
1.8476383E-4
3.7604288E-4
9.3259395E-4
6.672972E-4
-5.2712272E-5
-0.0019493722
-0.0019635025
0.0015376165
0.0028654793
8.127574E-4
5.4748914E-5
0.0011439411
0.001572124
0.0018322825
0.0019311304
-2.1736637E-4
-0.00218182
-0.0027169879
-0.003548544
-0.0012780632
0.0014633635
-5.0222146E-4
-0.001113162
1.4234468E-4
-3.8198417E-4
3.704334E-4
-1.15597475E-4
-0.0021553226
-0.0013274465
-2.5738866E-4
3.234494E-4
6.7077164E-4
-5.61682E-4
-0.0010859944
-7.022102E-4
3.3313793E-4
3.20394E-4
-0.0015270058
1.4257345E-4
0.0024285798
7.094086E-4
6.248001E-5
0.0014401422
0.0016817896
4.4974964E-4
9.380223E-5
0.0012164004
8.211899E-4
5.7695206E-4
0.0017943329
0.0019557618
0.0013502128
0.0012276131
0.0011039549
-0.00126323
-0.002289387
-3.395088E-4
-9.570423E-4
-8.06431E-4
-4.1413834E-4
-0.0017581679
6.392356E-4
0.0014935046
0.001390287
0.002044335
-9.7163365E-4
2.18129E-4
-0.001961089
-0.010767577
-0.0070008244
6.4237986E-4
-1.5028934E-4
5.1963216E-5
0.0017409164
0.0016556587
9.54105E-4
3.546686E-4
-2.3451028E-4
1.288553E-5
0.0019414023
0.0026191948
0.0021336402
0.0013496592
3.0649087E-4
3.8343594E-5
-2.859232E-4
0.0011788161
0.0011121015
-0.0021774191
-6.927354E-4
0.0022105675
7.967243E-4
-1.03833234E-4
0.0012740442
0.0016094563
-2.1132184E-4
-6.049414E-4
-4.1960593E-4
-0.0016018867
-5.3995755E-4
0.0015245514
0.0012648166
-0.0012195056
-0.0018221097
6.633001E-4
5.3680764E-4
-4.9469803E-5
4.6776663E-4
-2.3099665E-5
0.0010010726
3.7471027E-4
-0.0011815226
-9.569797E-4
-0.0013838626
-3.0670996E-4
5.0440384E-4
-4.6099318E-4
-0.0015379485
-0.0021712948
-8.806113E-4
-0.0030958762
-0.00526747
-5.61962E-4
0.0021030093
0.0011809279
2.8044038E-4
3.7639932E-4
0.0030170511
0.002538841
5.26725E-4
0.0010586254
0.0011609812
0.0010257539
-4.914777E-4
-9.0342324E-4
0.0014101953
5.435052E-4
-6.45389E-5
0.0016901767
6.854751E-4
5.0837663E-4
0.0021757921
0.0011990281
-3.8213586E-4
-8.654206E-4
-0.0011176557
-7.541792E-4
-7.755621E-4
-0.0012841793
-0.0018485152
-0.0017208664
2.1081322E-4
4.4868633E-4
-8.015389E-4
1.2297221E-4
1.8846814E-4
-5.5265875E-4
1.4212541E-4
2.931425E-4
6.08508E-4
4.950009E-4
-0.0012440112
-0.0011292299
0.0010519988
0.0014909582
3.4930604E-4
-2.7552035E-4
-7.178158E-4
1.16843185E-4
8.989298E-4
-6.944676E-4
-1.8178497E-4
0.0013544346
1.6962147E-4
-2.5643542E-4
-1.339191E-4
-5.3325685E-4
-4.7381752E-4
-1.9262604E-4
1.570178E-4
-8.285832E-4
-4.2971037E-4
0.0014631583
2.7406518E-4
-9.2346803E-4
-2.384875E-6
1.8238917E-4
-0.0010162089
-0.0011809038
5.596766E-4
1.7032214E-4
3.9029986E-4
0.0029889776
0.0012276635
-9.021918E-4
3.9968436E-5
-4.7454576E-4
2.216511E-4
0.0015397775
6.0437684E-4
7.8816694E-4
8.322743E-4
-0.0012974427
-0.0021405283
-8.888101E-4
6.213335E-4
6.776937E-4
-0.0011591788
-4.3977256E-5
0.0030064743
3.7018876E-4
-0.0021758976
7.209069E-5
-4.7364287E-4
-0.0017398258
3.6783775E-4
0.0017498509
8.4149855E-4
-0.0015191132
-0.0022213382
-7.516692E-4
-6.0489913E-4
-1.8805603E-4
7.126763E-4
-1.3929326E-4
-2.3052872E-4
0.0010078592
0.0015603545
0.0012821757
3.991125E-4
-6.3530606E-4
-0.0013446707
-5.195888E-4
5.911755E-4
-9.475822E-4
-0.0017679824
-6.548735E-4
-6.474244E-4
-3.3287605E-4
-5.538635E-4
-7.5513724E-4
0.0012880861
0.0017240354
0.0011666813
0.001048407
5.86006E-4
0.0015604874
0.0012631799
0.0011723639
0.0027018555
8.06523E-4
-6.297852E-4
7.1486563E-4
0.0010241977
5.921131E-4
-3.952346E-4
-0.001078847
-0.0015128731
-0.0013569709
-4.1894976E-4
-5.418742E-4
3.7314167E-4
5.7764055E-4
-7.01502E-4
-0.0016202505
-0.0041699936
-0.002869037
-1.129441E-6
4.8060683E-4
0.003031342
-0.002722022
-0.009002713
-0.0013913986
0.0015586666
-5.38478E-4
0.0021198713
0.0016918257
0.0014327435
0.001834908
0.001628954
0.0034181874
0.0023140241
0.001986771
0.00197153
-9.445701E-4
4.2400727E-4
0.0022751593
9.2451804E-4
-3.1121532E-4
-0.0012832765
2.457151E-4
7.040937E-4
-0.0011465477
-0.001516196
-0.002498919
-0.001351311
0.0010977793
4.0462557E-5
-3.9341545E-4
-3.7336356E-6
-5.5373726E-5
5.320416E-4
1.866779E-4
-4.2528936E-4
-0.0019069472
-0.0027709568
-0.0014283377
-9.618687E-4
3.638493E-4
0.0017837666
0.0011947654
0.001434669
6.262368E-4
-4.4977755E-4
6.218401E-4
7.8049634E-4
4.5440983E-4
7.660286E-4
2.9369004E-4
-0.0011325855
-9.82681E-4
7.381864E-4
-6.9542933E-4
-0.002311057
-0.0012368882
-0.00124229
-1.7867406E-4
0.0013083845
7.1647647E-4
0.0013458524
0.0018927931
0.0010112065
4.829033E-4
1.2871197E-4
5.613982E-4
5.2523334E-4
-0.001375588
-0.0021061136
-7.01605E-4
6.103653E-4
0.0021280546
0.0024758133
-1.6433871E-4
-0.0021075692
-0.0017415537
-3.359697E-4
3.054706E-4
-6.77747E-4
-8.520449E-5
-1.4730998E-4
-0.0015499312
1.3189627E-4
5.167231E-4
-0.0012747861
-9.824615E-4
-2.153372E-4
-4.830078E-8
-1.6064684E-4
2.7425782E-4
-1.5385558E-5
-5.4864783E-4
0.0022533596
0.0029790432
9.015934E-4
5.324082E-5
-0.0012116294
3.6688705E-4
0.0026853913
0.0020532294
0.0022632915
0.0015530185
-2.1249023E-5
-6.2581804E-4
-0.0010334585
-2.3499421E-4
-4.2666265E-4
-0.0010945019
-0.0015199853
-0.002673272
-0.0010519616
2.347531E-4
-0.0015187481
-0.0011519942
-3.3477386E-6
-0.0014648176
-0.002446584
-9.875379E-4
-3.997585E-5
-5.4041715E-4
1.2561532E-4
0.0018282628
0.0022159303
7.1464165E-4
-1.9886911E-4
6.1526784E-4
8.8321866E-4
1.463311E-5
-7.68124E-4
-1.9920421E-4
2.5401142E-4
-3.35149E-5
0.0013403739
0.0010255818
-1.0148369E-4
0.0018380526
0.0010668274
-4.3679238E-4
0.0012046687
7.2613056E-4
-1.0889149E-4
-2.0611538E-4
-0.0012668539
-2.4136549E-4
9.89815E-4
5.0738425E-5
-4.141315E-4
8.391039E-4
0.0010176281
-0.0012899053
-0.0012724291
0.0010759699
6.224228E-4
-9.5484144E-4
-9.690485E-4
-3.488463E-4
4.1112732E-4
9.1025565E-4
5.8807625E-4
-0.0011049206
-0.0027375247
-0.0024793982
-0.0023907614
-0.0020358649
-1.7881986E-4
-4.444991E-4
-5.1202404E-4
0.0014397068
4.1906946E-4
-3.4224262E-4
7.7554607E-4
2.7505893E-4
0.0015882864
0.00248969