-1.8906378E-4
0.0011105179
6.357159E-4
-2.701292E-4
2.716668E-4
0.00121658
7.3675415E-4
-8.356022E-4
-0.0010697478
-4.0375706E-4
-6.140055E-4
2.9876299E-4
0.0013795833
9.438655E-5
-0.0012622045
-0.0025418107
-0.0029033388
-0.0011792845
-6.311559E-4
4.4905095E-4
0.0024688977
0.0024209404
0.0022673102
7.6657685E-4
-0.0022639818
-0.002269093
-3.5199878E-4
4.310417E-4
7.18515E-4
0.0011709303
4.308156E-4
-2.6522095E-5
0.0011334522
4.1508672E-4
-9.983554E-4
-9.2107645E-4
-6.523311E-4
0.00119468
0.0022721842
5.3667935E-4
1.4168987E-4
0.0012839955
-1.3354472E-4
-0.0035751797
-0.003463842
-0.0011175433
-0.0011293637
-2.2535943E-4
5.308165E-4
-0.0013393121
-2.3711308E-4
0.0027151208
0.0021864453
7.220184E-4
0.0010253729
7.65737E-4
-5.3336617E-4
1.6250246E-4
0.0010216807
-0.0010351513
-0.0020361368
-5.882908E-4
-3.5255376E-4
9.617684E-6
9.212934E-4
-5.128424E-4
-7.017209E-4
9.269755E-4
-1.9490067E-4
-9.201958E-4
-7.478544E-4
-0.0021550332
-8.9273276E-4
0.0014251482
0.0013468364
9.6613244E-4
-3.7269935E-4
-0.001888991
-0.0013031114
9.534246E-4
0.002495901
0.0013879805
4.1352407E-4
7.880184E-4
0.001093126
0.002129281
0.0028432412
0.0020347508
8.829267E-4
9.893496E-4
0.0011160553
-0.0020459238
-0.0055541964
-0.004771893
-0.0022134683
-0.0017044498
-0.0015049339
9.682291E-4
0.0018586116
-3.2041763E-4
-2.556793E-4
0.0015810424
6.626798E-5
-0.0030744367
-0.0023791615
-6.632159E-5
-8.484013E-4
-0.0011946018
0.0011705211
0.0023098867
0.0014575198
0.0012293727
0.0013034292
9.026276E-4
0.0014924363
7.708109E-4
-1.5828178E-4
0.0023633777
0.0017205469
-0.0011143824
9.3347835E-4
0.0016432421
-9.911933E-5
7.766765E-4
8.085042E-5
-0.0028906192
-0.001707477
0.001061722
0.0010128365
0.0014130425
-0.002921984
-0.0055220793
0.0051608216
0.00236241
-0.013735212
-0.007995397
0.0030930089
0.001637111
0.0022196958
0.0025985842
9.22722E-4
0.0010690695
2.6762093E-4
-1.7223356E-4
7.3482806E-4
0.0017417279
0.0014124241
0.001015552
0.0018500562
0.001959183
0.001135523
-5.3565396E-4
-1.9728267E-4
9.832295E-4
-8.741155E-4
-0.0011189455
-7.532069E-4
-9.1022206E-4
6.993418E-4
-6.882147E-4
-0.0019895593
-9.837479E-4
-0.0016207552
-0.0011385661
-2.9966835E-4
-3.243105E-4
3.0233702E-4
2.2471838E-6
-3.5426306E-4
6.249167E-4
0.0019564275
0.002103652
0.0016455322
5.9592887E-4
-0.0015266702
-6.543819E-4
0.0015726471
8.496438E-4
1.6401103E-5
4.6027737E-4
6.1314926E-4
-3.5766483E-4
-2.1691553E-4
9.893631E-5
-0.002091575
-0.0026069353
-0.0039547607
-0.005713731
-4.3991898E-4
0.0038977866
0.002513316
7.918738E-4
7.720543E-4
0.0018985614
-1.0347614E-4
-0.0010962856
9.641622E-4
-2.4114738E-4
-7.7267404E-4
-2.7993524E-6
2.7796394E-5
0.0010301094
4.719681E-4
9.0546283E-4
0.0013769567
-3.2824388E-4
2.82956E-5
1.7472685E-4
-1.613493E-4
0.0010112805
0.0021404317
0.002003253
-0.0013508702
-0.0035970786
-0.002358817
-8.583342E-4
7.287214E-4
8.62298E-4
2.2077542E-4
-5.248258E-4
-0.0011593237
-1.2479542E-4
-6.503587E-4
-5.9475255E-4
0.0011513814
8.522429E-4
0.0011940167
5.9857994E-4
-0.0011034508
-6.110348E-4
-5.386157E-4
-1.3879649E-4
-2.753253E-4
-0.0012688843
-4.5421606E-5
2.3831344E-4
2.5790482E-4
0.0012023931
3.2534316E-4
-3.4239134E-4
-2.943768E-4
7.7174243E-4
0.0021650975
-6.887294E-5
-0.002073251
-4.2621524E-4
1.5669092E-4
-0.0011617842
-0.0011287507
-3.2528445E-5
4.3105238E-4
9.956334E-4
0.0014475577
-2.258634E-5
-0.0010861771
4.7610782E-4
0.0014431961
0.0011617399
0.0011339418
-1.6891527E-4
-6.415151E-4
3.1884047E-4
-7.9358305E-4
-0.0010169116
3.462718E-4
-3.1415562E-5
-1.03789185E-4
3.1656263E-4
3.672746E-4
7.9527136E-4
2.0918282E-4
-0.0012789867
-0.00205103
-9.861115E-4
1.0506279E-4
-7.446035E-4
-0.0010289917
-1.1899542E-4
8.4551534E-4
0.0012262809
2.4118496E-4
-1.6950672E-4
-3.3344073E-5
-5.5010157E-4
-6.223657E-4
-3.4064407E-4
8.8289584E-4
0.0026463666
0.0019839292
2.469566E-4
4.1859737E-4
6.122313E-4
2.1586468E-4
0.0010652875
0.0011389815
2.2143135E-5
-5.1293307E-4
-0.0015027468
-0.0016821972
-2.6863668E-4
-1.3810203E-4
-0.0010626956
-8.7422726E-4
-9.4101083E-4
-0.0028570187
-0.0029880332
1.879048E-5
8.9056726E-4
-8.209366E-4
-9.276733E-4
-2.8280063E-5
-6.601096E-4
-0.0015464062
-4.1759125E-4
0.0017346017
0.0022174674
9.5150876E-4
0.0012998668
0.0026849438
0.0024974216
0.0031579437
0.00368539
0.002401428
0.0014883431
5.016017E-4
5.167559E-4
5.418102E-4
-6.1817E-4
-1.6491897E-4
-0.0010292649
-0.0029480176
-0.0020204391
1.6537428E-4
0.0015581136
2.6891482E-4
-0.0025797857
-0.005526052
-0.0028495223
0.003925538
-0.004845135
-0.014982931
-0.0031706637
0.0051849918
9.853939E-4
6.782838E-4
0.0017903214
0.0029454639
0.0030609905
0.0014393886
0.0018143321
0.0012228622
9.0106466E-4
0.0012767628
3.4099468E-4
6.937797E-4
0.0012978755
0.0018798881
0.002090734
5.222832E-4
-3.773345E-4
-2.0128324E-4
5.711305E-4
5.3302076E-4
-0.0010999183
-6.245025E-4
8.005569E-4
-4.1818598E-4
-0.0010570387
8.2717557E-4
0.0015673952
5.574986E-4
-4.6166268E-4
-0.0010105795
-7.724108E-4
-0.0023835923
-0.0035326658
-1.8905682E-4
0.0010194279
-4.1439888E-4
3.8038724E-4
-1.1800321E-4
-0.0019799105
-0.0024962309
-0.0017313494
-2.9014883E-4
3.657276E-4
7.239632E-4
4.115898E-4
-3.019023E-4
5.553787E-4
0.0011798551
-0.001025778
-0.0040474604
-0.002017053
0.0024182561
0.0028622902
0.0028819928
0.0021995727
4.1037874E-4
0.0021586975
0.0029168534
0.0017397058
0.0016703715
1.7795428E-5
-9.255172E-4
-1.555057E-4
-0.0011383547
-0.0022771119
-0.0013109283
3.95925E-4
7.470132E-5
-0.001592228
-9.3682355E-4
0.0013083065
0.001390482
-5.321412E-4
-0.0012113965
-4.392499E-4
-1.0397166E-4
-2.553038E-4
1.5015246E-5
3.299402E-4
-8.69881E-4
-0.0018600248
-0.0010533537
-2.9694865E-4
6.7421206E-4
0.001486406
0.0015856503
0.0014604444
3.9184766E-4
-9.984959E-5
-0.0011922953
-0.0029634412
-0.002179308
-0.0016719617
-9.260842E-4
0.0017070633
0.0022314098
8.9223037E-4
-5.243773E-4
-2.8549955E-4
0.0012224929
0.001471137
0.001256237
-4.3238024E-4
-0.0014084375
-2.0404517E-4
-7.5382594E-4
-2.5740324E-4
0.0014464371
0.0010873555
7.23967E-4
6.9874374E-4
4.1144682E-4
-8.694078E-4
-6.334523E-4
0.0018880466
9.074874E-4
-4.2343585E-4
3.7681122E-4
-3.5452555E-4
-4.970064E-4
-0.0011085087
-0.0017407001
1.2101426E-4
3.9164373E-4
-4.3881056E-4
-6.052212E-4
-9.337562E-4
-3.3656682E-4
1.5909686E-4
7.080226E-4
0.0013417721
5.130566E-4
-1.0423734E-4
-1.728544E-5
-4.3194336E-4
-0.0012101408
-0.0012804295
-2.6970836E-5
5.920305E-4
-2.9450319E-5
1.2631911E-4
0.0013067084
0.0017131899
9.1891596E-4
4.6345277E-4
-6.189426E-4
-0.0014500148
8.252464E-4
0.0014655379
-6.551304E-4
2.6953124E-4
0.0012272589
-2.3229171E-4
1.0034683E-4
2.0548249E-4
-0.00182883
-0.0024876806
-0.0016386191
-0.0013921672
-0.0011775934
3.276895E-4
0.0015457711
0.001288084
0.0015718817
0.0017524778
0.0011170629
0.0012607779
0.0010519135
-6.9816975E-4
-0.0039293547
-0.004959098
-0.0018348544
-9.5574436E-4
-8.365095E-4
0.0018580691
0.0015098625
7.182425E-4
0.001945093
0.0014752967
6.910487E-4
4.277793E-4
4.9101014E-4
1.7008606E-4
-1.7276953E-4
0.0010753769
9.014196E-4
3.6263613E-5
0.0011972027
0.003370508
0.0036215077
1.3727209E-4
-0.0010874576
-0.0013734741
-0.0024797244
0.0014920698
0.0022950904
7.209549E-4
0.0016225115
-0.0024524007
-0.0013484821
-5.043542E-4
-0.011339624
-0.010715946
-4.2990095E-4
0.0012561433
0.0013725461
0.0015462539
0.0012380634
0.0021241833
6.6570065E-4
-4.766318E-4
2.1721418E-4
9.781278E-4
0.0013946721
0.001610428
0.0027366728
0.0036902616
0.0021817633
-0.0014077446
-0.0017662251
0.0015920579
0.0020002874
5.2976445E-4
-7.7367533E-4
-0.0027723743
-0.0013081252
2.881376E-4
-0.002312224
-0.0014278125
0.0012571565
-0.0015493797
-0.002628602
-7.273666E-4
-0.0013137957
-7.3821517E-4
-1.7971806E-5
-1.3357047E-5
0.0011748726
2.6619833E-4
4.2380526E-4
0.002376371
0.0023970923
0.0022249587
0.0017465573
0.0016152768
0.001164041
8.001712E-4
0.0021923624
0.0017589243
0.0027550994
0.0025082072
-0.0022512956
-0.0022333749
-0.0050751045
-0.010716162
-0.0049068304
9.449436E-4
3.600725E-4
5.844556E-4
9.3708295E-5
9.5039344E-5
0.0010197096
0.0017991534
0.0019224515
-3.9406295E-4
-0.0011728156
-8.70628E-6
-0.0012078983
-0.0026864724
-0.001514389
5.713231E-4
0.0019704385
0.0021074926
4.9977563E-4
-5.4715412E-5
0.0010335153
0.0020703494
0.0037086124
0.0027536878
2.2173945E-4
2.2041348E-4
-4.1660087E-4
-2.629685E-4
0.0011214493
-0.0014469938
-0.0037545012
-0.0013293318
9.570897E-4
-2.6497265E-4
-0.0012048612
-5.1165607E-5
4.916537E-5
6.100831E-4
0.0023674262
0.002180116
5.2216375E-4
-0.0018000155
-0.0032915184
-0.002667361
-0.0013292141
-3.1559632E-4
-0.0012297696
-0.002083481
-2.431874E-4
9.294994E-4
1.2489659E-4
-3.1891518E-4
7.1988575E-4
0.0016382266
9.813387E-4
6.3754286E-4
3.8107837E-4
3.1928348E-4
0.0024375576
0.0041993833
0.0043614553
0.00393684
0.002136597
-3.338337E-4
-0.0028169742
-0.004954916
-0.005582001
-0.0042608515
-0.0010621554
0.001614718
0.002002407
0.0015033557
8.920568E-4
7.2278007E-4
-6.1789533E-4
-0.004625944
-0.00538339
-0.0026729119
-0.0032899876
-0.0020945652
0.0021664328
3.6707256E-4
-0.001582778
0.001973489
0.003263552
0.0027125722
0.0033639518
0.003375024
0.004146809
0.0049599046
0.0023794957
-0.001464051
4.2504525E-5
0.0033870486
2.6585054E-4
-0.0024328264
-7.529288E-4
-8.767664E-4
-6.7481876E-4
0.001162672
9.858565E-4
-0.002079275
-0.0045967815
-0.0021482497
-1.5256346E-4
-0.0020037831
-0.0025425144
-0.0031687173
-0.0035698772
-6.9705147E-4
0.0013623093
0.0019769005
0.003541787
0.0035225383
0.0012421861
7.060932E-4
0.0016495971
-6.3443003E-4
-0.0040435204
-0.0042669163
-0.0035113774
-0.0026110094
-0.0013362175
-0.002170616
-0.0026680268
3.083882E-5
0.0025780022
0.0038816517
0.004251816
0.0019809392
-7.805226E-4
-0.0014959767
-3.7510504E-4
0.0018063964
0.0022772134
0.0014192413
0.003258314
0.0052737757
0.0030873064
0.0014103663
0.0050140554
0.008878567
0.0055591995
-0.0015396599
-0.0023193865
-9.207222E-4
-0.0019255335
-3.9767256E-4
-0.0038350348
-0.0063311253
-7.219307E-4
-0.01036927
-0.02102632
-0.00712609
0.0032053872
0.0015317977
0.0019365976
6.761638E-4
5.699349E-4
4.1293315E-4
-0.0010243568
3.0803152E-5
-0.0011127975
-0.0013736014
0.001039863
0.0026628294
0.0041029104
0.0035152214
0.0037012142
0.004394698
0.002956225
0.0027555986
3.9758565E-4
-0.0015982027
0.0012757272
1.5022847E-4
-0.002339485
8.886758E-5
-3.6623274E-4
-0.002298474
-2.6932327E-4
5.735947E-4
-8.6639164E-4
-0.0019914368
-0.0012765318
0.0018404326
0.0030402495
0.0033307665
0.0053358683
0.0040003466
-9.71871E-5
-0.0011498429
5.1200355E-4
-1.9470793E-4
-0.002770814
-0.0023302182
-0.0016942701
-0.0032136918
-0.004613351
-0.0045211418
-0.001721499
0.0010986574
0.0027001814
7.572828E-4
-0.004031278
-0.002723375
-0.0015572564
-0.0044014305
-0.0018769237
0.001017758
0.001461943
0.002085576
0.0016007002
0.0032898644
0.0036614172
0.0011343767
7.755359E-4
0.0014721683
0.0012038923
-2.5207442E-4
-3.9139215E-4
0.0010089579
0.0015946367
0.0020278846
3.918967E-4
-0.0011580139
1.7792829E-4
9.591909E-4
0.0019233447
0.0030132297
0.0011261002
-0.0034146418
-0.0058252797
-0.0036958575
-0.0026480302
-0.0023746332
-0.001138819
-3.2720377E-4
0.004621498
0.008479833
0.007339892
0.0068112016
1.4746262E-4
-0.009540676
-0.00806885
-0.0017667607
-7.510833E-5
-0.0015091143
-0.004551693
-0.006319477
-0.0047642738
-0.0017210462
0.0011098814
0.0018830673
0.0019809564
0.005423707
0.008454064
0.006834465
0.0032212627
-0.002068784
-0.0065318183
-0.0055219526
-0.0034546521
-0.0032126345
-2.5052438E-4
0.0041441554
0.0057998444
0.0072791944
0.008619635
0.0064927866
0.003664444
2.846283E-4
-0.0049583972
-0.0073867366
-0.008706667
-0.010329784
-0.006579379
-7.560508E-4
0.0021718016
0.0026672967
-6.347906E-4
-0.0030644953
-0.0012595158
-0.0016834539
-0.003884724
-0.0046318113
-0.0072384286
-0.008831539
-0.0052472856
-5.88428E-4
5.7976483E-4
-0.0017415736
-0.0025680177
-5.0766E-4
-3.364409E-4
-6.3083804E-4
0.0010017665
0.0014161753
0.0012906861
0.0036082894
0.007184406
0.008076797
0.0048204577
-4.938582E-4
-0.0044406755
-0.0048331744
-0.0069036405
-0.012847486
-0.013865434
-0.008949418
-0.0028068644
0.005139164
0.011860195
0.015948232
0.020627704
0.023987113
0.023953533
0.022114515
0.019040506
0.014982584
0.010602796
0.007299735
0.0061499584
0.006621834
0.008097914
0.008414108
0.0073581524
0.008768081
0.0101861935
0.007903562
0.0029944833
-0.004624248
-0.008497921
-0.0069227847
-0.01022359
-0.016814524
-0.021520164
-0.02714673
-0.03394034
-0.04195607
-0.04809922
-0.04209403
-0.023382196
-0.011883834
-0.015581257
-0.01906268
-0.01629817
-0.004508001
0.016045276
0.03573173
0.04473177
0.03133416
0.016080998
0.007746473
-0.021113377
-0.048864584
-0.06864334
-0.09420416
-0.0853749
-0.04866336
-0.022676097
0.0023152533
0.037719112
0.074949406
0.10546166
0.13345098
0.13281237
0.09746897
0.07480112
0.04550645
0.0027617498
-0.011723134
-0.007784403
0.012457387
0.035208415
0.06547615
0.14032318
0.20265657
0.19550021
0.101362415
-0.059522323
-0.17268468
-0.20361798
-0.20500372
-0.19425535
-0.19069614
-0.17887641
-0.12315811
-0.0517553
-0.024877181
-0.044952646
-0.065372996
-0.09188506
-0.12779705
-0.1270331
-0.083751895
-0.009718608
0.08036915
0.1485408
0.18645245
0.20476153
0.20905302
0.20877649
0.1869206
0.12814826
0.06699584
0.011208168
-0.06126275
-0.10566144
-0.088756785
-0.055206865
-0.03078121
0.0042782514
0.05659449
0.092779234
0.07521738
-0.009230858
-0.14175338
-0.24424689
-0.23751879
-0.144795
-0.05840619
0.0068459096
0.09191236
0.1471992
0.13867661
0.118109144
0.10395731
0.109141596
0.12109977
0.0847495
0.009237834
-0.050304007
-0.05210334
-0.03819171
-0.05984629
-0.04754565
-0.003180475
-0.0056915833
-0.026719041
-0.045303635
-0.07348065
-0.098953456
-0.1291666
-0.14762944
-0.1278658
-0.08312874
-0.039913405
-0.01828614
-0.0019313849
0.035940267
0.06947088
0.07162942
0.071491145
0.07486614
0.06335036
0.083681144
0.12415968
0.09631397
0.043420874
0.025813524
0.003645664
-0.008376864
-0.004003926
-0.017797425
-0.016696863
0.0043200436
0.012855909
0.008565825
-0.0025982023
0.014971456
0.044826735
0.0114542255
-0.04622799
-0.06277488
-0.06791519
-0.06973688
-0.047746267
-0.0187403
0.0021854814
0.014222194
0.018289715
0.021085301
0.018953087
0.007015923
-0.004213372
-0.0084933685
-0.007312453
-0.004295481
-0.004203098
-0.005281004
-0.0074882493
-0.009471601
-0.006454961
-0.0035064074
-0.0021863005
0.0016531058
0.0050315135
0.0063538
0.009603831
0.014542756
0.015451192
0.013668278
0.0127613265
0.012510297
0.013441275
0.008825563
-1.2261476E-4
-0.0041655926
-0.008847108
-0.011902464
-0.007085668
-0.0040848786
-0.0051653767
-0.005111305
-0.004084974
-0.0030778279
-1.7509892E-4
0.004570799
0.0049388735
0.003034052
0.0016545181
-0.0022248016
-0.0026160446
-0.0013517347
-0.0032186273
-0.0032465959
-0.0052229287
-0.0080838455
-0.0055666165
-0.0026821517
-5.5613765E-4
0.0026732986
0.004696871
0.0048619327
0.0049837665
0.006510583
0.007017961
0.0056607365
0.004124254
0.002978448
0.002260551
5.7711365E-4
-8.1532623E-4
-0.0023780933
-0.0047461456
-0.0039352337
-0.0032937166
-0.004679177
-0.00393041
-0.0017748883
8.7380264E-4
0.0010511699
-0.0013598241
-0.0017256708
-9.945196E-4
8.49835E-4
0.0037279355
0.0031502594
-0.0011150246
-1.8774344E-4
0.00478376
-0.0025225002
-0.009789699
-0.0010067101
0.0031049184
0.0016567856
0.0060036047
0.0065498296
0.0053067743
0.00407393
0.0020353117
0.005095756
0.004548847
-0.0017772133
-0.0030429675
-0.001984462
-0.0058433115
-0.010971744
-0.011408297
-0.008642717
-0.005432274
-0.0040136906
-0.004487533
-0.0010433714
0.0053135827
0.0085041765
0.008922432
0.010326663
0.011877848
0.0070921853
-0.0020112307
-0.009178006
-0.013635389
-0.012590658
-0.007720488
-0.0031937603
9.824241E-4
0.003031828
0.0025163963
0.0022303793
0.0032999075
0.0023332655
0.0024275433
0.0070673525
0.0059759463
0.0028451488
0.005559216
0.0039807484
-2.4516677E-4
-0.0026133016
-0.0056691896
-0.005736805
-0.0028748065
0.002389461
0.006958347
0.006997699
0.0053297537
0.002161045
-7.9885934E-4
-0.0042932727
-0.0071834484
-0.0055125314
-0.007066456
-0.008632942
-0.0054084067
-0.0061984817
-0.006352978
-0.0039783865
-0.0037969293
-9.571537E-4
0.002495198
0.0030918438
0.0026325441
0.0019151699
0.0015188485
0.0032804476
0.008964169
0.009489452
0.0029592055
0.0020976136
0.0047707455
0.004156525
0.0011056871
-0.0025051204
-0.0017238309
0.0017081007
0.004114413
0.00460969
0.001028979
-0.0016055714
-0.0015243903
-0.0014933372
7.555143E-4
5.410953E-4
-0.0051512076
-0.008618902
-0.0076051196
-0.0047223377
-0.0016316208
-6.6316896E-4
-0.0012602159
-0.0027654136
-0.003878079
-0.001533692
8.617552E-5
-0.0012005
-3.307437E-4
6.573466E-4
2.6867114E-4
0.0012670571
0.0016981408
0.0024118347
0.003022157
7.375281E-4
2.9380308E-4
0.0021688892
0.0020310213
0.0021621105
0.0029818006
0.002494271
0.0025306672
0.0026836449
0.0018874122
9.335604E-4
-0.0011854081
-0.0019887015
2.871303E-4
6.9245877E-4
-0.0017854797
-0.0036745751
-0.0023432088
1.8384872E-4
-8.9374464E-4
-0.0012964864
7.245085E-4
1.6604808E-4
-1.8092988E-4
5.122155E-4
0.0011742183
0.0019954639
4.085282E-4
-3.9397157E-4
-0.0013514364
-0.0034976962
-0.001429572
-2.5660114E-4
-8.3302724E-4
2.3897886E-4
-0.0011661391
-0.0010617875
8.7882375E-4
5.3969372E-5
2.1828931E-4
8.212188E-4
2.8468572E-4
-4.414405E-4
-7.7131484E-4
5.693163E-4
6.9489575E-4
2.8279008E-4
6.8323995E-4
-1.8424507E-4
-2.5129139E-5
2.5496184E-4
-3.7094383E-4
2.6939245E-4
7.386545E-4
9.671155E-4
7.417168E-4
-9.47625E-4
-0.0021922358
-0.0011608816
4.1548553E-4
2.2401711E-5
1.00767065E-4
-4.700605E-4
-0.0025726224
-0.0016225331
-0.0010740922
-7.0243137E-4
0.0018477073
0.0014652826
0.0018031932
0.0027716456
5.7778845E-4
4.4709383E-4
0.0011984368
0.0015750652
0.0030004012
0.0031651752
0.0026812823
0.0019678087
0.0016714423
9.363358E-4
-2.1851879E-4
-2.1986013E-4
-0.0027506438
-0.004219164
-0.0020026523
-0.0018664126
-0.001617798
4.1577595E-4
8.680329E-4
-0.0025901056
-0.0040634247
5.3486315E-4
-0.004265882
-0.012656605
-0.005257376
0.0017614253
9.2370337E-4
0.0031428826
0.0036526313
0.0023817576
0.0023574543
0.001594412
0.0015657712
0.0010165275
5.816888E-4
0.0020128926
0.0023738428
0.0013614693
9.192401E-4
3.534214E-4
-3.0832773E-4
0.0015234554
0.0033821121
0.0013464171
-2.5868448E-4
4.414655E-4
-2.3554493E-4
-0.0017107687
-0.0024346507
-0.0018143443
5.8477954E-4
0.0013586623
-8.9043204E-4
-0.001727425
-2.9672022E-4
-1.3862825E-4
-0.0013645383
-0.0018041272
-7.663467E-4
2.0500232E-4
3.0902436E-4
0.0012743456
0.0015224763
-0.0013620979
-0.0031346253
-3.800282E-4
0.0015476091
-2.7497348E-4
-8.346094E-4
-9.657127E-4
-0.0026112671
-9.488341E-4
0.0017366704
0.0013073636
-2.2741841E-4
-0.0017179676
-5.2874745E-4
0.0021359092
0.0018277962
5.832497E-4
3.2660947E-4
0.0011855282
0.0019904429
7.4132375E-4
-5.217302E-4
-0.0011624742
-8.605858E-4
5.723375E-4
9.8329656E-5
-0.0015401216
-0.0018556361
-1.3252177E-4
0.0019912173
0.0018865342
0.0020509723
0.0020100307
-3.7188537E-4
-0.0012441637
-0.0012272474
-0.0018793694
-8.867727E-4
6.5896485E-4
0.0011932487
2.3609637E-4
-8.7600795E-4
-9.0526206E-5
1.488437E-4
-0.0012958767
-0.0012547856
7.28548E-4
0.0012596388
3.020325E-4
5.2043144E-4
2.0732264E-4
-0.001711929
-0.0025394484
-6.7248265E-4
0.0013285599
-4.7019075E-6
-0.0012041281
7.2906123E-6
6.032316E-4
8.4294623E-4
-3.2630537E-4
-0.0023073205
-0.0013966482
6.373457E-4
0.0018459964
0.0022111635
0.0025448129
0.0031076665
0.0024887875
0.0014501761
-0.0010391934
-0.0030446686
-0.002450745
-0.0031630606
-0.0013043612
0.0024748277
0.0012497049
5.871011E-5
-1.5839981E-4
-5.4735946E-4
0.0014203531
0.0010568418
-0.0012283139
-0.0022105677
-0.0019022054
5.896575E-4
0.00166112
7.2665024E-4
1.2050518E-4
-0.0010417349
-0.0013943274
-6.675032E-4
-4.6894746E-4
-7.8803085E-4
-4.179894E-5
0.0012238292
-1.280321E-4
-7.9011783E-4
7.5949985E-4
2.667221E-4
5.3063233E-4
0.0022824134
0.0018254924
0.0012429695
8.3709136E-4
-6.364205E-4
-0.0011536311
2.6869713E-5
0.0015096202
6.3577597E-4
-0.0011798121
-1.6979905E-4
7.1773294E-4
-2.0016068E-4
-6.981051E-5
-8.524421E-4
-0.002328764
-8.323623E-4
0.0011901148
0.002021182
0.0016629703
-5.7053834E-4
-0.0011778927
-0.0011520132
-0.0025899806
-0.0015801592
2.931212E-4
2.2894352E-4
-7.32825E-5
-4.327271E-4
-3.726146E-4
2.5336185E-4
2.9924526E-4
-3.875472E-4
-7.050265E-4
-7.9055195E-4
-0.001284945
1.8983174E-4
0.001388951
-7.0291E-4
-0.001087411
0.0014099748
0.002613014
7.0345897E-4
-5.8141985E-4
0.0014633277
0.0014503539
6.456588E-4
0.0018824787
0.0013564953
0.0010401761
0.0012993553
0.0016055962
0.0019851294
-3.489423E-4
-0.0020296462
-0.0020972274
3.032375E-4
0.0038316643
0.0023153867
7.5793796E-4
-0.0029206753
-0.005100406
0.0028725117
-0.002087074
-0.014123908
-0.0059944987
0.0014172038
-8.614264E-4
7.8126974E-4
0.0019120857
0.0029038943
0.002842932
1.3460989E-4
-2.310731E-4
-0.0012032898
-0.0010571444
0.0017665353
0.001323772
-2.226282E-4
4.8215486E-4
0.0014779763
0.0019922364
0.001827309
1.7363096E-5
-0.0012933307
9.6049235E-4
0.0026434697
0.0011746994
4.1442877E-4
2.498588E-4
-9.502532E-5
3.6812297E-4
5.35987E-4
-4.9946095E-5
-0.001383238
-0.0021492774
-8.3409104E-4
5.012287E-4
8.602503E-4
0.0010331323
2.4170435E-5
-9.6775906E-4
-1.5201583E-4
9.355799E-5
-3.0829062E-4
3.3501434E-4
-1.2790487E-4
-9.0418215E-4
-1.7025264E-4
-2.9117704E-4
-8.5927546E-4
-9.1608113E-4
-0.001674029
-0.001424838
2.3429004E-4
-3.8873247E-4
-0.0029750036
-0.0023803548
7.278439E-4
0.0016005245
0.0012173611
0.001879056
0.0025293725
0.0013107765
-7.082926E-4
-6.324649E-4
-2.6922786E-5
3.7850352E-4
0.0010187232
-7.2591956E-4
-0.0010626664
0.0020665217
0.0015845649
-0.0014215687
-0.0013914916
-2.1597253E-4
3.4111098E-4
6.472178E-4
7.75637E-4
9.724294E-4
8.361414E-4
0.0010846645
8.597841E-4
-0.0019806079
-0.0028355361
5.057367E-4
0.0010279336
-7.5316353E-4
1.9265492E-4
0.0012599183
7.695582E-4
-1.8263342E-4
2.235016E-5
4.6613385E-4
-0.0011998136
-7.761313E-4
3.301752E-4
-0.0010852967
2.0271433E-4
0.0010162335
-6.8514055E-4
-5.0721376E-4
-0.0011015126
-8.583731E-4
0.001236931
0.0011512607
0.0010782952
0.0013160068
5.9509877E-4
-5.0064675E-5
-4.8343217E-4
2.1244994E-5
-4.990683E-4
-0.0014430989
-2.036094E-4
-5.87156E-4
-0.0020674793
-7.7240006E-4
-6.987619E-4
-0.0017689754
7.935085E-4
0.0016590583
-0.0014172638
-7.0117734E-4
0.0015323751
2.7870495E-4
8.66398E-5
0.0012985518
0.0011245726
9.162966E-4
4.2914524E-4
-9.984222E-4
-5.7410466E-4
0.0020053938
0.0027427045
0.0019015408
0.0010615619
-7.299346E-4
-0.0011289748
-3.7076802E-4
3.2125972E-4
0.0024544862
0.002131572
-3.2462383E-4
-8.3263265E-4
-0.0027520023
-0.0043916744
-0.0012398604
0.001283048
-7.168529E-4
-0.0019898054
-3.3713196E-4
-3.4286728E-4
-7.446221E-4
0.0012194591
0.0013750709
6.161313E-4
0.001107765
2.1758942E-4
-6.196737E-4
-5.815139E-4
-3.3456355E-4
3.6277997E-4
3.3289808E-4
0.001285753
0.0019766882
5.844611E-5
-1.1509783E-4
7.394658E-4
-8.6227094E-4
-0.0017828376
-8.459949E-4
-8.524707E-5
-4.5329896E-5
-9.2170824E-4
-0.0021421516
-0.0018664877
-7.134761E-4
-5.561125E-4
-1.20831464E-4
-5.593551E-5
-5.06248E-4
9.771569E-4
7.4161927E-4
-7.012042E-4
8.836848E-4
4.7301126E-4
-6.9459266E-4
0.002348474
0.0037856372
0.0020991445
0.001140622
7.242848E-4
0.0015217088
0.003321524
0.0029874851
-1.0237226E-4
-0.0023110074
-0.0013766704
-7.675639E-4
-0.001875571
-0.0010103538
5.3043047E-4
7.953803E-4
0.0022451275
2.363626E-4
-0.0036356812
5.742096E-4
2.2968584E-4
-0.0104090255
-0.010194009
-0.001479311
0.0016019631
0.00343081
0.0041120052
0.0022959465
0.0010123873
-2.7457866E-4
-6.646934E-4
-9.2847346E-5
3.290499E-4
2.5253615E-4
5.828E-4
0.0018871421
0.0010432226
8.1848106E-5
0.0013947701
0.0011014598
-1.20316385E-4
-7.4089E-4
-5.7854166E-4
0.001330226
0.0017037947
9.796244E-5
-9.007861E-4
-0.001503228
-0.0014140606
-6.926555E-4
-6.920135E-5
8.074061E-5
-4.9420533E-4
-9.55408E-4
-4.049266E-4
0.0014050166
0.0027097508
0.0022308554
0.0010769911
-1.7979345E-4
-2.1594785E-4
3.5482034E-4
-4.2897253E-4
-1.837728E-4
6.546453E-4
-8.215501E-4
-0.002180674
-0.0015018055
1.4889975E-4
0.0016460264
0.0015828571
3.8829952E-4
-9.1717136E-4
-0.002363785
-0.0024901794
-9.302164E-4
0.0010702362
0.0023144486
5.746775E-4
-0.0017089389
-0.0018651355
-0.0021072582
-7.846286E-4
6.9429073E-4
-1.2962548E-4
7.1130827E-4
2.6355477E-4
-0.0014456976
6.3066743E-4
0.0013307953
4.478062E-4
0.001319806
0.0015371961
0.0019117739
0.002102994
0.0014619884
5.2061956E-4
-5.1342236E-4
4.242282E-4
5.8250246E-4
-4.1701953E-4
-6.135497E-5
-0.0015800181
-0.0028249407
-5.223517E-4
0.0011931267
4.1192554E-5
-0.001099227
1.2821097E-4
9.4302814E-4
7.4930536E-4
9.376774E-4
3.8009012E-4
0.0010528354
0.0013628096
-6.4367754E-4
-0.0012888827
-0.0012384771
-7.0123654E-4
5.782459E-4
4.3862965E-5
-6.742022E-4
-1.7722482E-4
2.4508376E-4
-5.4571155E-4
-9.925457E-4
-4.2632266E-4
-0.0023881048
-0.003973261
-0.0022659868
-6.88838E-4
1.995417E-4
-3.077879E-4
-3.5318025E-4
8.195674E-4
-8.3008537E-4
-0.001722587
-2.1816965E-4
5.714229E-4
0.0025367313
0.0042755683
0.0039793593
0.0048128315
0.0076450226
0.0077548707
0.0037566966
0.0013634005
-0.001064024
-0.005509572
-0.0061156424
-0.0038556166
-0.0019697542
-0.0015763384
-0.0022841117
-0.0010379844
-9.374815E-4
-0.0026459785
-0.0026563478
-0.0018894646
-0.0011127794
-0.001606244
-0.0015502129
-7.550366E-4
-0.002132869
-0.0011387394
4.4145712E-4
4.2480612E-4
0.0036196543
0.0040810825
0.0021014344
0.0043088906
0.005044826
0.0032775633
0.0021824546
4.5145937E-4
-0.0013577141
-0.0018361143
-1.7053637E-4
7.49937E-4
-6.3418865E-4
-8.257743E-4
-5.0788117E-4
-0.0012607743
-6.021416E-4
0.0011451156
-1.9318263E-4
-0.003288263
-0.0027599449
-5.4193236E-4
2.2347103E-4
-2.0961564E-4
-0.0015720631
-0.0020512699
-0.0019360064
-3.1687392E-4
0.002177717
0.001373148
3.019097E-4
-2.7679722E-4
-0.0016338668
-4.5196913E-4
3.5094187E-4
-5.285546E-4
-2.0650675E-4
8.272043E-4
0.0017090129
9.4951753E-4
3.1022224E-4
0.0014244514
0.0016444382
0.0011815506
0.0013624108
0.0014924734
1.3436329E-4
-0.0012679563
-5.5284693E-4
-5.370135E-4
-0.001498437
2.7387316E-5
0.003160973
0.0041052834
0.0037376455
0.0023156994
-0.0028038525
-0.0019123262
0.002289144
-0.007206444
-0.0128553305
-0.00322104
0.0011862322
0.0014365122
0.0032634654
0.0021950132
0.0021363962
0.0015228163
-6.073997E-4
-7.7198556E-4
-2.2972666E-4
-4.918988E-4
-0.0011585169
-9.999243E-5
4.0325418E-4
-1.2693042E-4
3.4316545E-4
-0.0010246915