4.7991564E-4
-7.5804227E-4
2.725461E-4
0.0016998895
-0.0012028596
-0.0034217483
-0.002475929
-0.0016938316
-0.0014004473
-0.0015829557
-0.0014558582
-0.0013751152
-0.0027473862
-0.0021306376
2.868437E-5
-8.916539E-4
-0.0022070894
-9.473897E-4
1.0129116E-4
6.0641434E-4
0.0020060223
0.0018024453
4.512788E-5
3.117628E-4
0.0017721002
0.0021238264
9.20447E-4
5.4892956E-4
0.002074327
0.0013263361
9.0174004E-4
0.003429359
0.0037617222
0.002008472
1.1125753E-4
0.0014842586
0.004983466
0.0033227953
0.0012708249
-4.953311E-4
-0.001795497
0.0030849755
4.2783556E-4
-0.007894717
-0.0073089628
-0.007156074
-0.0051204558
0.0019429701
0.0024482266
9.435756E-4
5.4100034E-4
-0.0018659434
-0.0027226615
-0.0021783896
-0.0019818684
-0.00233602
-0.0016794492
-6.189612E-4
-3.3721575E-4
0.0015758275
0.0017244199
-1.3518197E-4
1.2561024E-4
2.5745676E-4
0.0014317674
0.0036651385
0.0033953483
0.0017783958
4.8152398E-4
0.0019108969
0.0034404667
8.880814E-4
-3.5685967E-4
5.101576E-4
1.8153795E-4
4.7214018E-4
6.3329097E-4
0.0010454532
0.0021073162
0.0020520817
0.002189413
5.802875E-4
-0.0014411714
9.007245E-5
-1.4173932E-4
-0.0016017591
-2.3463227E-4
-4.2507338E-4
-0.0022428168
-0.0033434064
-0.0029634954
-6.229788E-4
8.699952E-4
8.1043877E-4
-7.409151E-4
-0.0012860157
-7.9797246E-5
-0.0029335218
-0.004664097
-6.5772387E-4
0.0011344735
1.8535083E-4
-4.684951E-5
0.0011989716
0.0023409068
5.959359E-4
6.578974E-4
0.0030020326
0.0023371747
1.592939E-4
-5.744964E-4
1.5026826E-4
8.190002E-5
-7.302352E-4
-9.496181E-4
-0.0017622682
-0.0011500412
2.920852E-4
-4.139689E-4
-8.055179E-5
0.0025063816
0.0036874954
0.0019421027
1.870826E-4
-5.8042514E-4
-0.0016955627
-9.4962766E-4
-0.0010778619
-0.0035322246
-0.0016710138
0.0017893787
0.001286728
-5.419376E-4
-6.4704474E-4
0.0011053456
5.43608E-4
-0.0021886614
-0.0023223313
-8.634873E-4
-3.1407812E-4
-6.483015E-4
-2.3265176E-4
-2.3769471E-4
-0.0013265009
1.0437201E-4
6.2678027E-4
-6.9416204E-4
2.5681558E-4
-6.0812733E-4
-0.0011865242
0.0010254539
2.6267004E-4
1.2977402E-4
0.001604734
-5.8088626E-4
-0.0018157676
-7.643979E-5
7.1014167E-4
0.001181185
0.0013434339
5.560005E-4
5.418633E-4
-4.2765536E-5
-0.002167692
-0.002848846
-9.616375E-4
0.0017553836
0.001958034
-5.8116193E-4
-0.0011525315
4.2589213E-4
0.0010692963
5.361879E-4
-3.1219205E-4
-8.1107125E-4
-0.0017591172
-0.0012396576
0.0015955104
0.0014012858
-4.7705995E-4
6.633807E-5
-2.1208837E-4
-0.0011543827
-0.0012514194
-0.0026922426
-0.0026058583
5.1279867E-4
0.0010841456
-1.9866267E-4
7.366919E-4
0.0011754397
7.202064E-4
3.1403077E-4
-0.0015767798
-0.0019426226
-3.8676296E-4
-1.6812613E-4
-6.2407274E-4
-0.0012928644
-5.768058E-4
0.0013953974
3.882835E-4
-0.0010199801
2.989745E-4
9.001889E-4
6.129662E-4
8.1424287E-4
6.0420134E-4
6.345804E-4
0.0011522272
0.001036724
6.938345E-6
-3.6621754E-4
0.0011187543
0.0015122191
2.4213266E-5
-6.090671E-4
-0.0018011593
-0.0023677773
1.8953223E-4
3.1121663E-4
-0.0022260845
-0.0013837809
6.6029024E-5
-7.494458E-4
-7.020288E-4
7.2532894E-5
-9.143356E-5
-0.0014341761
-0.0029614358
-0.0019013011
2.0496348E-4
6.341037E-4
1.4674214E-4
-8.4379496E-4
3.5853265E-4
0.0018352156
4.1815848E-4
9.148757E-4
-2.6271734E-4
-0.0024109965
0.0024692896
0.004491967
0.0016751577
3.563675E-4
-0.0025250833
-5.0902116E-4
0.0038261674
0.0033676075
0.0028556157
-0.0033246444
-0.008399733
-0.001048858
0.0037683086
0.0021925531
0.002814932
0.0034014285
0.0026101042
6.148453E-4
-0.0012892083
-0.0010566938
2.579445E-4
8.829852E-4
4.5440695E-4
8.688744E-4
-1.7426943E-4
-0.002193555
-3.6845918E-4
-5.482443E-4
-0.0034663451
-0.0028676707
-0.00276693
-0.0028967026
-0.0018802965
-0.0032213165
-0.002540296
-5.57082E-4
-8.9997204E-4
3.4574186E-4
0.0010444549
-1.8153017E-4
-5.575532E-4
-0.0011537259
1.7922223E-4
0.0022626964
0.0010184499
1.1296952E-4
0.0012172288
0.0022587248
0.0031550587
0.0035177772
0.0036064975
0.00413164
0.0037611467
9.945674E-4
-4.6768E-4
0.0013974087
7.509074E-4
-0.0012653384
8.552665E-5
9.453588E-4
3.3140264E-4
-0.0014483974
-0.005434434
-0.0049802475
3.4592042E-4
0.0018312559
-2.733078E-4
-0.001161314
-1.6347891E-4
3.7652632E-4
-0.0012516399
-3.5467703E-4
0.0021398698
-3.8475968E-4
-0.0021878344
-2.3469802E-4
-4.3006273E-4
-7.197255E-4
4.781113E-5
-3.023106E-4
-2.7671613E-4
-4.89804E-4
-8.535696E-4
-3.1400713E-4
-0.0011615183
-0.0032228227
-0.0025900719
-9.8698474E-5
-2.539937E-4
-0.0014460575
-0.0010769267
-8.680608E-4
-7.646726E-4
-6.5122347E-4
-0.0015102589
-0.0017206797
6.629554E-5
6.7944475E-4
-4.1006468E-4
0.0015573772
0.002750385
3.2557154E-4
0.0013250192
0.003938271
0.005378998
0.007999425
0.008795296
0.0083361445
0.007659669
0.005240749
0.0020435178
-0.0031492265
-0.007936412
-0.008096359
-0.004677701
-0.0013280514
-0.0017607032
-0.0025011182
1.5510528E-4
0.0027281595
0.0036289804
0.0011018243
-0.0052718655
-0.009727074
-0.010003479
-0.008117002
-0.0050856844
-0.002637373
-0.0018001712
-0.0013683428
-5.583659E-4
8.6446264E-4
0.0020707373
0.0022446858
0.0029388352
0.0034367035
0.0032334658
0.0036660268
0.0024492994
8.1801467E-4
0.0014058797
0.0020897891
0.0028857249
0.0030282743
0.0022504802
0.002252388
6.3700444E-4
-0.0012487575
-3.8325365E-5
9.286688E-4
-8.058849E-4
-0.0027291526
-0.001856561
0.0010121834
0.0021157956
8.6491345E-4
-2.82321E-4
-6.8009476E-4
-8.3730795E-4
-6.240001E-4
-0.0010155268
-0.0022668922
-0.0026525294
-0.0019628438
-0.0012971103
-9.1565016E-4
-7.702189E-4
-1.8089669E-4
0.0019338643
0.0030714222
3.992463E-4
-0.0013920863
7.2047836E-4
0.0017778951
4.9094163E-4
-6.7751657E-4
-0.0013996335
-7.59957E-4
8.218808E-4
0.001258336
5.824629E-4
-9.1902236E-4
-0.001577856
7.728893E-4
0.001638071
1.14189446E-4
0.0017610589
0.0020738398
-0.0013036003
-0.0017021707
-0.0010323436
-0.00164897
-0.0016940465
-0.0019540978
-2.362239E-4
0.0024702288
0.0019222654
0.0012116074
0.0021899652
0.0016142811
0.0010000106
0.0019190515
6.082166E-4
-0.0015954975
2.9821153E-4
0.003583105
0.0026723081
6.5176246E-5
1.8336574E-4
-0.001043043
-0.0024521071
7.2951143E-4
0.0016885529
2.0172907E-4
3.8477E-4
5.6759524E-4
0.001628923
-0.0035132016
-0.011079733
-0.0064579495
2.7097744E-4
0.0011578354
0.0017513619
5.031194E-4
-0.001146006
-0.0019862498
-0.0014076845
0.0013438497
9.0434134E-4
-5.6528504E-4
3.774602E-4
2.8187566E-4
3.387848E-4
0.00116823
7.8192644E-4
0.0011399644
0.0028973748
0.0044465526
0.0044190907
0.0021859966
0.0020721713
0.003278646
1.6456748E-4
-8.677336E-4
5.3090806E-4
-0.001634561
3.946919E-4
0.0036930626
1.4118371E-4
-0.0026898931
-0.003156641
-0.0038823714
-0.0026633595
-0.0013197339
-0.0016734002
-0.0013930309
-9.310026E-4
-0.002757546
-0.0028566986
-0.001403949
-0.0015871032
-2.3066018E-4
-5.2404136E-4
-0.0010342501
0.0014383323
6.852716E-4
6.6610036E-4
0.002536172
0.002960053
0.0028695886
-7.5459364E-4
-3.7174698E-4
0.0041966774
0.004203901
0.004023488
0.0019331091
-6.8683975E-4
-3.7429918E-4
-0.0017218486
-8.876581E-5
0.001806999
-1.10315465E-4
-2.5800115E-4
-3.2289137E-4
-3.949566E-5
6.463213E-4
2.3960587E-5
2.3937451E-4
-1.07133346E-4
-3.5458134E-4
9.693154E-6
-1.6728554E-4
-9.897999E-4
-0.0018112174
2.656492E-4
-1.7265118E-4
-0.0033787494
-0.0012727237
1.1538938E-4
-0.0011360885
9.731405E-4
0.0023057198
7.590625E-4
2.0091058E-4
0.0013894612
0.0013940645
-2.9288713E-4
-8.8986766E-4
-2.2879746E-4
5.918494E-4
2.8252709E-5
-9.009995E-4
5.9467755E-5
1.336785E-4
-5.915732E-4
1.7900857E-4
8.722828E-4
9.3067816E-4
0.0015921359
0.0026376995
0.0018335443
7.991402E-4
9.2509127E-4
-3.8512435E-4
-4.505785E-4
2.875311E-4
-6.936664E-4
3.4078205E-4
7.4197067E-4
-7.0551864E-4
-3.5182928E-4
-5.1335077E-4
-2.301681E-4
0.0010955213
8.90157E-4
-1.590828E-4
-0.0020142267
-0.0010602634
0.0019004453
8.0031436E-4
-7.688653E-5
4.5781146E-4
-7.4878347E-4
-0.0012080559
-0.0010343151
8.4550993E-4
0.0020449224
-7.267314E-4
-0.0010217475
2.9727982E-4
3.2000363E-4
0.0014110464
6.717979E-4
2.0257945E-4
8.257677E-4
-2.8035967E-4
1.4215823E-4
-2.778807E-4
-9.0515864E-4
0.0020150072
0.0014780776
-0.0019297767
-0.001299052
6.8229274E-5
-9.966603E-4
-0.0013380481
6.87257E-4
0.0015932336
7.7279564E-4
0.0019294167
0.003928252
0.0036776506
0.002334887
0.0022386608
0.0021599287
4.9424934E-4
-8.454545E-4
-9.754547E-4
-0.0014195575
-0.0028594502
-0.0031002793
-0.0013175809
-5.324355E-4
-9.207733E-4
-0.0020322516
-0.002781272
-0.0013225604
-0.0012169149
-0.0017760925
-0.0010558313
-0.0012780902
2.5262733E-4
0.0021331494
0.0013341885
7.693986E-4
9.101254E-4
0.0013307545
0.001363416
0.0020116544
0.0029878465
9.660192E-4
-7.20828E-5
5.607503E-4
-4.1001642E-4
-1.0906029E-4
0.0018329212
0.0034553474
0.0016659386
-0.0015978947
-9.0518815E-4
4.897946E-4
0.0018074369
8.576803E-4
-0.0032281724
-0.001440794
0.0013275463
0.002440538
0.0052315197
-0.0019909432
-0.009793084
-0.002464587
0.0045015016
0.0038239313
0.0029000235
1.0141718E-5
-0.0039676507
-0.004029554
-0.0014815109
-5.4860814E-4
-7.7301014E-4
-4.7848E-4
-8.7249326E-4
-0.0011263391
-9.931278E-4
-0.0018941102
-0.0014488591
5.2491704E-4
-4.0498236E-4
-0.0027413974
-0.0020703804
-3.1642918E-4
0.0010072432
0.003722273
0.0070227208
0.008408856
0.0073699094
0.0059217163
0.004724588
0.0017523541
-0.003192388
-0.0055400194
-0.0032802105
-0.0031502594
-0.0043012956
-2.998917E-4
9.25189E-4
-0.002522297
-0.0018509362
2.1455818E-4
0.0011624269
0.0020997217
0.0017448869
0.0020021172
0.0012259932
-8.8236417E-4
-5.2997953E-4
-2.4592085E-4
-0.0017324704
-0.0026145293
-0.0031400123
-0.004151025
-0.0035028476
-2.0932998E-4
0.002086251
0.002671131
0.002926507
0.0023836286
0.0032070295
0.0028464159
-0.001228114
-0.0018661286
1.7495082E-4
-0.0014006919
-0.0024156014
-5.4625625E-4
0.0010966017
0.0022277827
0.0022114422
0.0019179988
0.0021003108
8.283253E-4
-4.1169167E-4
-2.30379E-4
0.0016380061
0.0038483941
0.0019686597
-1.5528446E-4
3.2606447E-4
-0.002410393
-0.0052109566
-0.0043810043
-0.004045107
-0.0039046216
-0.0030351758
-0.0026394282
-0.0024695627
-0.0016066589
4.3255443E-4
0.0021571675
0.003779988
0.005815219
0.0057258136
0.0039745276
0.0029808085
0.0016704315
2.9406206E-6
6.909528E-4
0.001653013
-3.4856208E-4
-0.0021700077
-0.0011260804
0.0013617636
0.0015365302
-6.5132954E-5
0.0018725065
0.0027391203
-0.0011283831
-0.002440268
-0.0018579137
-0.0037065821
-0.0052230144
-0.003763909
-0.0015977381
-0.0024066914
-0.0023421142
4.7494826E-4
0.0011470483
0.0010564644
0.0021363974
0.0029591855
0.0027286382
0.0011830033
4.3646226E-4
-1.04415405E-4
1.1813662E-5
0.0019472155
0.0013210061
-3.2695456E-4
-2.8623972E-4
-9.877254E-4
-9.4734627E-4
-1.5676885E-4
4.0631156E-4
0.0017170085
0.0020529244
0.0013063002
6.5772934E-4
8.6774335E-6
-8.1423525E-4
-0.0020511239
-0.0021571673
-4.1796322E-4
0.0011645278
5.8644055E-4
-9.5600955E-4
2.7993217E-5
0.0018239487
0.001158717
2.8887746E-4
4.5097826E-4
-6.83702E-4
-0.0026407908
-0.0023185236
-8.913572E-4
-6.945323E-4
-0.0011391456
-0.001751527
1.035949E-6
0.0025592868
0.0019516991
0.0020667203
0.002429703
0.0012013062
0.0015949438
0.0010903551
5.8047386E-4
9.514691E-4
-0.002122736
-0.0035585484
-6.1287417E-4
3.002445E-4
-0.0020582355
-0.00278492
1.4751329E-4
0.0011186554
-0.0017596799
-0.004609332
-0.005798372
-0.0023786088
0.0031730407
0.0046186587
0.0035535875
0.0021097464
0.0013731992
0.0023308115
0.0017958101
1.4550966E-4
0.0011050134
0.0028700829
0.0037867688
0.005259979
0.0035635298
-0.001974154
-0.00430461
-0.0021652742
1.3589955E-4
-8.4178953E-4
-0.0027674935
-0.0030971242
-0.005040803
-0.0024601223
0.001731794
-0.0054791593
-0.008885583
-9.194798E-4
0.0020709205
8.1176945E-4
-5.382894E-4
-0.0015178524
5.256718E-4
0.0016260501
0.0019703447
0.001425319
-3.5567276E-4
0.002108127
0.006202672
0.007607692
0.008905425
0.010980739
0.008077619
-0.0018935833
-0.00617795
-0.0014248659
-0.0017402815
-0.007182099
-0.009546648
-0.011169139
-0.011721167
-0.009428725
-0.008675938
-0.008633953
-0.0056393426
-5.422178E-4
0.0038814815
0.0054511526
0.0075140544
0.010804561
0.012139534
0.013155006
0.011874196
0.007588832
0.0039385795
-2.2887399E-4
-0.005837361
-0.01204247
-0.014970976
-0.013938223
-0.011055177
-0.00412719
0.0014361492
0.0060432977
0.01117004
0.01097481
0.018559601
0.028872967
0.025568033
0.0244789
0.019274406
-0.0019722744
-0.016487297
-0.019054435
-0.020342447
-0.022865461
-0.025357507
-0.023439435
-0.021584878
-0.02187341
-0.018027801
-0.012016314
-0.009141169
-0.008584084
-0.0052391854
-8.8180165E-4
-0.002949449
-0.007238854
-0.007675588
-0.010415679
-0.015893586
-0.013604336
-0.0021873328
0.010261508
0.01913095
0.030112093
0.04819926
0.06048324
0.06259982
0.06807554
0.07235683
0.06633248
0.053517655
0.032212064
0.005602189
-0.013075616
-0.02513227
-0.048396718
-0.081687495
-0.09747528
-0.08285884
-0.052433953
-0.025205
-0.0023956834
0.026854876
0.055350717
0.062248796
0.041123103
0.016491465
0.012909
0.0056759804
-0.02512184
-0.047198053
-0.04098351
-0.027627906
-0.026799604
-0.03857202
-0.06197416
-0.08652692
-0.090133145
-0.0755843
-0.04692512
-0.0036370354
0.035572186
0.07847632
0.12708166
0.14466858
0.1365714
0.117529415
0.058058437
-0.011729935
-0.022440406
-0.029489225
-0.116058566
-0.2081321
-0.20145357
-0.09822069
0.039038837
0.14966713
0.22017694
0.2538752
0.26883852
0.25621864
0.11522539
-0.10661328
-0.23036596
-0.27674064
-0.29835743
-0.2526228
-0.1770975
-0.089015156
0.024242485
0.10773187
0.15931524
0.20923722
0.21470408
0.15942569
0.11420758
0.091915816
0.029664297
-0.05255382
-0.11201945
-0.1553924
-0.15905423
-0.1361637
-0.12257861
-0.096628025
-0.06294755
-0.022176987
0.0426025
0.09066584
0.0988907
0.08374093
0.061711963
0.037946086
-0.014813109
-0.093092255
-0.15316102
-0.1499641
-0.07318934
-0.0114232935
-0.007132691
0.015792416
0.061386246
0.09119559
0.12366357
0.1464774
0.13590851
0.124608465
0.12737964
0.09742488
0.015712528
-0.06276748
-0.088725746
-0.075899065
-0.040094703
0.016840182
0.03821281
0.023320064
0.03784673
0.012944663
-0.079543784
-0.1270999
-0.12816943
-0.1026225
-0.038814705
-0.011460355
-0.022024477
-0.008989253
1.8344737E-4
-0.027377885
-0.045526467
-0.014861879
0.0053597623
-0.0026571986
0.027770245
0.058198344
0.036781367
0.021612074
0.039035384
0.060453292
0.06905575
0.05324862
0.015919127
-0.019371213
-0.0347396
-0.032358397
-0.02194109
-0.012658705
-0.0090477485
-0.009084597
-0.0101354355
-0.011778596
-0.016671833
-0.020066524
-0.015618249
-0.0102189295
-0.006712705
1.8115403E-4
0.010139199
0.018769722
0.025762381
0.031547103
0.031047367
0.028665118
0.030398095
0.03177409
0.03153345
0.02120244
2.6522658E-4
-0.012472514
-0.016059546
-0.01846819
-0.020716054
-0.025417643
-0.030072685
-0.030872654
-0.026743075
-0.020056104
-0.013939252
-0.007218536
-9.556438E-4
0.0043856204
0.009444572
0.013177961
0.014296255
0.011294253
0.008144698
0.0072898236
0.0060898904
0.0045706835
0.0022084273
2.813148E-4
6.6160475E-4
0.0010619058
6.497749E-4
-0.0013031685
-0.0039771697
-0.0041073277
-0.002280908
-1.21146506E-4
0.0014482974
0.0014897732
0.0012242943
0.001374617
0.0019209766
0.0032320835
0.0022966156
-0.0015272497
-0.0029657278
-9.459032E-4
0.0017789415
0.0024214701
6.483119E-4
0.0011718237
0.0020464964
5.34301E-4
0.0010906884
5.576693E-4
-0.0027917512
-0.0037377188
-0.0030427363
-0.0017260318
3.7170033E-5
-3.3321898E-4
-0.0028482522
-0.003984546
-0.002188001
-0.0013102031
-0.0014712989
-6.7982357E-4
-1.7853334E-4
7.153444E-4
6.905079E-4
-1.4906233E-4
-3.0941895E-4
-0.0019522181
-0.0023301018
-0.0012040299
-0.0015568379
5.0374185E-4
0.0044417838
0.0059206006
0.006420605
0.008221764
0.009376732
0.0073154564
0.004067104
9.519387E-4
-0.002711263
-0.0054166433
-0.005469585
-0.00267841
3.1677197E-4
0.0031454486
0.0048215725
2.417463E-4
-0.0055973213
-0.00586326
-0.004514932
-0.0044472907
-0.004956931
-0.004459729
-0.0027857698
-0.0020120712
-0.001855769
-0.001969509
-0.0016379993
-8.9219736E-4
-6.518539E-4
0.0013157767
0.0037302505
0.0034752586
0.0013902033
-2.3385447E-4
9.761089E-4
0.0015139207
-6.8888505E-4
-1.6420374E-4
0.0012247179
1.96877E-5
5.973775E-4
0.0021631026
0.0010571625
-2.1064661E-4
1.4853952E-4
7.1825547E-4
3.9414596E-4
-3.0460765E-4
-1.071035E-4
5.19726E-4
7.448168E-4
8.2257204E-4
8.7378174E-4
6.4861303E-4
6.363062E-4
0.0013714833
0.0010916177
-2.9275822E-4
-0.0016519115
-0.003163417
-0.0016017237
0.0013677569
6.8672955E-5
-0.0015641256
-7.0824655E-4
-8.667782E-4
-0.0025442115
-0.003069384
-0.0013199139
-7.588543E-4
-3.9853255E-4
0.0015046682
6.7496125E-4
2.552187E-4
0.0012476883
-6.442235E-4
-7.74258E-5
0.002922552
0.0020102554
3.7970959E-4
0.0010489691
0.0014220253
8.4010494E-4
-5.0678494E-4
-0.0022193452
-0.0013041733
4.7553654E-4
6.4603204E-4
0.0018877321
0.0017100794
-3.3827746E-4
-0.002266761
-0.004515383
-0.002248188
-4.5324446E-4
-0.0010529917
0.0023864915
-0.0027477187
-0.010682943
-0.0032433511
0.002979253
0.0012719847
0.0024253258
0.002755107
0.0028247503
0.0034395177
4.3247172E-4
-0.0017561509
-6.872056E-4
1.8450688E-4
0.001430813
0.0044013322
0.0041182884
-2.4802083E-4
-0.0012617216
2.6078345E-4
-3.897042E-4
-3.8554013E-4
4.2988476E-4
-9.739345E-5
6.0055056E-4
0.0017674606
2.3922289E-4
-0.0012151196
-0.0019859655
-0.0040420387
-0.0035467243
-0.0010811036
-0.001229957
-0.001076205
7.6948316E-4
0.0010376995
3.494787E-4
6.149472E-5
-2.110508E-4
-1.6509346E-4
1.8578817E-4
8.867194E-4
0.0011758007
3.2836988E-4
4.8353654E-4
8.7093445E-4
-4.8557957E-4
-0.0011824358
-2.5341194E-4
0.0013930927
0.001573289
5.296408E-4
0.0018491194
6.249501E-4
-0.003063815
-0.0012269882
7.460788E-4
5.1642855E-4
0.0024921866
0.0025307466
0.0011944791
5.135134E-4
-0.0016494208
-0.0024461083
-9.6192054E-4
-2.3318129E-4
-3.5865183E-4
4.130757E-4
0.0010619073
-1.1858721E-4
-0.001871037
-0.0024605757
8.693162E-8
0.002915536
6.2246766E-4
-0.003175937
-0.002395746
4.304756E-4
0.0012982793
9.6954254E-4
0.0012318278
0.001229675
6.048806E-4
3.8222419E-4
7.5927464E-4
0.0012447273
0.0015107263
0.0017033429
5.6452065E-4
-4.6602057E-4
9.6500554E-4
8.461904E-4
-9.4746513E-4
-9.5348735E-4
-0.001602545
-0.0023797073
-0.0012667304
-8.0718455E-4
-9.3916047E-4
-2.9489043E-4
-7.669872E-4
-0.0019407797
-8.0541515E-4
6.4649095E-4
3.8767466E-4
8.357735E-4
0.001060428
3.186102E-5
-3.508642E-7
0.0014332864
0.0028580206
0.0018376599
-6.2399637E-4
-6.441497E-4
0.0012049974
0.002089297
0.0022664485
0.0033008906
0.0025418545
-0.002192617
-0.005717836
-0.004200361
-0.0010142897
-5.146029E-4
-0.0018046865
-0.0015784414
-6.719022E-4
2.7554476E-4
0.0016264538
0.0015843684
4.5099415E-4
1.531375E-4
0.0011430414
0.0011254862
-5.890675E-4
-4.8691445E-4
5.283557E-4
6.445048E-4
0.0010596737
-1.7810709E-4
-0.0015748347
-5.944157E-5
0.0016421372
0.0019121716
8.891544E-4
5.925551E-5
5.262695E-4
-0.0010995235
-0.0031894562
-0.0021689616
-0.0012505105
-3.3649744E-4
0.0011847782
4.093396E-4
-5.980941E-4
-1.7045152E-4
1.07801585E-4
2.143339E-4
3.8297006E-4
7.4331654E-4
8.4265106E-4
3.6342104E-4
-1.8383423E-4
-2.667E-4
-3.7673E-5
-2.4381974E-4
6.1742065E-4
0.001213261
-7.517662E-4
-0.0011800666
3.4731333E-4
7.9659425E-4
6.4423465E-4
1.3574774E-4
-5.1341864E-4
-0.001397515
-0.0010642915
7.074094E-4
6.544421E-4
1.8998011E-4
7.382253E-4
7.5592595E-4
9.474919E-4
0.0010905206
3.7933877E-4
1.4634074E-4
0.0012020756
0.0011559473
-1.0640268E-4
-9.5880876E-4
-0.0017607681
-2.215653E-4
0.0015501254
0.0012565326
3.509849E-4
-0.0027190794
-0.001755628
0.0010480263
-0.0010428379
-1.16421594E-4
-7.0897915E-4
-0.002551246
2.3422243E-4
-3.7378754E-4
0.0018389323
1.0797599E-4
-0.009231938
-0.0025458692
0.0054706107
5.577538E-4
3.1059833E-5
0.0011913199
0.0017795591
0.0028449004
8.303476E-4
9.441489E-4
0.0013321321
0.0012110882
0.0012473093
-4.7755224E-4
1.2954314E-4
2.478654E-4
-4.8527386E-4
0.0017076725
0.0015295066
7.6255924E-6
0.0017057818
0.0025539151
2.570754E-5
-0.0018052169
-0.001028798
-9.2153676E-4
-0.0014286475
-9.1548654E-4
-0.0010211314
-0.0015571063
-0.0014212045
-9.2183007E-4
4.734515E-4
0.0017383326
7.484145E-4
-4.891218E-4
-5.086337E-4
-6.080359E-4
2.1980339E-4
0.0016691654
0.0022403337
0.001094711
-0.0012746658
-9.5126726E-4
3.9296897E-4
-9.743348E-5
2.506617E-4
2.2689447E-4
-5.0295255E-4
2.4781335E-4
0.0014028094
0.0015418964
6.2320963E-4
4.334237E-5
-0.001215531
-0.0020988013
2.3713616E-4
0.0012557217
-2.5269206E-4
-0.0013670113
-0.0014108944
0.0011742988
0.0028124058
0.0012572126
-5.9595704E-4
-0.0013325807
4.9385254E-4
0.001600391
-3.4666195E-4
-8.075604E-4
7.140326E-4
8.3124184E-4
-6.285953E-4
-1.8321711E-4
0.0011570272
-1.6749767E-4
-7.6217606E-4
-9.387713E-4
-0.002608082
-0.0014880302
1.3626296E-4
-7.351594E-4
-8.181656E-4
-4.3036134E-4
-8.5592363E-4
-5.9248614E-6
0.0021885121
0.0019384004
-4.0553362E-4
-6.9364836E-4
2.644544E-4
0.0016510615
0.002688153
8.312302E-4
-3.2670615E-4
5.734683E-4
5.0704624E-4
6.378243E-4
5.242098E-4
1.9640496E-4
7.6529343E-4
-2.802998E-4
-8.8848744E-4
0.0011560376
0.0020102628
4.6053436E-4
-0.0013782011
-0.0014338988
-1.2427379E-4
2.2162329E-5
-7.293528E-4
-0.0011365116
-9.777902E-4
-7.91237E-4
-0.0011073537
-0.001284084
-0.001530805
-0.0011400636
-1.4816812E-4
1.8111213E-4
0.0015693444
0.0022450474
3.8329756E-5
-0.0014547883
-0.0012638833
-4.8388346E-4
6.6257385E-4
0.0015814344
0.0011965198
-0.0011153617
-0.0013917555
0.0011594158
0.0021663914
0.00217117
0.001829439
9.104842E-6
-8.039526E-4
3.3406587E-4
-1.586596E-5
-6.479625E-4
0.0020148836
0.002636582
8.834254E-5
-1.6006998E-4
-2.958336E-4
-6.637612E-4
-4.0729175E-4
-3.4978755E-5
0.0014690425
-4.974389E-4
-0.0028777965
-0.0014223051
-9.786852E-4
-3.1029872E-4
-5.8685994E-4
-0.0012889919
0.0010751677
2.7403096E-4
-0.0014365171
6.35681E-5
8.5803145E-4
0.0019782763
0.0024539996
4.7819395E-4
-0.0018388333
-0.001819245
-1.3406653E-4
-7.899743E-4
-7.82366E-4
5.9176644E-4
-6.698918E-4
-0.0011769922
6.6811667E-4
0.0011188245
-6.292978E-4
-3.3624863E-4
4.6238326E-4
-0.0020972355
-0.0015123003
3.8589843E-4
-1.4302247E-4
0.0024260415
0.0025941525
-6.3662423E-4
-9.822092E-5
0.002142642
0.003478146
0.0021568981
2.0999156E-4
9.535474E-4
0.0020485034
0.0024205684
0.0018524281
4.6125535E-4
-0.0017065955
-0.0020295316
4.1305154E-4
2.063527E-5
-4.7367145E-4
-6.5253035E-4
-0.0039555645
-0.0036767789
-8.252227E-5
0.0022356526
-0.002106657
-0.011361595
-0.0076933578
0.0030138546
0.0040858416
0.0019695133
6.388193E-4
-2.4793594E-4
4.604617E-4
7.053204E-4
9.834559E-4
9.216705E-4
5.369047E-4
2.6978293E-4
4.394884E-4
0.0017856524
0.0024631547
0.0022713921
0.0015011026
6.676362E-4
6.587876E-4
0.0015018653
0.0027325829
5.716671E-4
-0.0019205364
-1.8604712E-4
7.034476E-4
-1.59909E-4
-0.0011309327
-0.0012215297
1.1819622E-4
-6.793283E-4
-0.0020029612
-0.00217535
-0.001691667
-2.4136943E-4
1.6277007E-4
0.001723492
0.0025040617
-1.3942107E-4
-0.0011216776
-0.0012731584
-0.0012266706
2.890839E-4
0.0013586154
0.0020921906
5.740646E-4
-0.0011271825
-9.6149545E-4
-0.002624813
-0.0022469605
8.7512325E-4
9.297784E-4
3.5324623E-4
6.5682153E-4
2.464043E-4
7.6990086E-4
2.792703E-4
-8.055028E-4
0.0011192483
-9.302042E-4
-0.0061688684
-0.0026871704
0.0022782662
0.0019111788
0.0027516102
0.0020768314
2.6067236E-4
6.7960884E-4
1.7793618E-4
6.534922E-4
0.0012852709
3.194373E-4
6.593389E-4
3.8260335E-4
-7.9760165E-4
-3.4690773E-4
8.4488414E-4
5.8067805E-4
-3.4112643E-4
0.0011715473
0.0013363276
-0.0015612984
-0.0017990859
-9.5551525E-4
-7.152351E-4
6.7925255E-4
9.711616E-4
2.9160574E-4
-9.460652E-4
-0.0015694118
7.5277494E-5
-1.3164511E-4
-0.0016453846
-0.0015861336
-0.0019250028
-0.0014583688
2.4688573E-4
0.0016355555
0.0019709365
4.896268E-4
5.57642E-5
4.0825421E-4
-4.7521564E-4
-4.6612785E-4
-3.6401118E-4
-1.9171131E-4
7.206299E-4
0.0011893124
0.0021903506
0.0020286846
0.0011357941
7.891044E-4
-0.0011029909
-1.7833558E-4
0.0024787646
0.0016747868
0.001551574
1.5262634E-5
-0.003360029
-0.0023383643
-0.0016236254
-0.0023918857
-0.0011283021
-0.0013340861
-0.0016308022
-1.0424448E-6
6.6731824E-4
2.268602E-4
-4.967126E-4
-8.084212E-4
-0.0010317847
-0.0017156975
-0.0015085869
-2.3753477E-4
0.0019353374
0.0027334958
0.0017263094
0.0034616932
0.004521407
0.0018124665
1.8680893E-4
-7.930813E-4
-5.8894226E-4
9.172693E-4
6.012183E-4
0.0015611396
0.0015194932
-0.0013205555
-0.0011267693
-4.280852E-4
-0.0015839783
-0.0031962616
-0.004094414
-0.0014104826
4.9589685E-4
3.09081E-4
6.7254883E-4
-2.1982128E-4
-5.121842E-4
-0.0012214668
-0.001305456
0.0015170063
0.0014378987
5.259078E-4
4.0290676E-4
-6.1612396E-4
8.5261156E-4
0.0011473912
3.8829978E-4
4.8575588E-4
-7.7905465E-4
-5.64957E-8
-7.2582107E-4
-0.0028419143
6.255087E-5
0.0012764656
-8.425852E-4
-5.268601E-4
3.6425126E-4
-1.1843453E-4
-1.5883033E-4
0.0010921498
0.00129102
7.9915544E-4
9.630868E-4
3.3302896E-4
8.1812235E-4
0.0023317265
0.0014109695
-3.962904E-4
7.279953E-5
7.883999E-4
-1.8828236E-4
-5.5628095E-4
-0.0015570079
-0.001636215
9.0855965E-4
6.1726704E-4
8.2943315E-4
7.422666E-4
-0.00322048
-0.0025481174
2.8208835E-4
0.0029062452
0.0021819829
-0.00807168
-0.0086363945
3.1542915E-4
5.63942E-4
0.0015250315
0.0034263711
0.0018223735
0.0022599804
0.0013774593
8.2315376E-4
-5.5135875E-5
-0.0021223465
-9.624336E-4
-0.0010955366
9.759617E-5
0.0035120188
0.0014759299
-0.001087788
-6.366083E-4
-3.3107508E-4
8.9081295E-5
3.5893737E-4
7.377289E-4
0.0013276908
5.050161E-4
-0.001276795
-9.2717947E-4
-6.365927E-6
-0.0010102132
1.3606991E-4
0.00138232
4.1326573E-5
8.764767E-4
0.0014358117
-2.2855695E-4
-6.3260726E-4
-4.6882674E-4
7.300092E-5
0.0010248909
0.0013546767
5.010129E-4
-0.0013897619
-0.0017151425
-0.0010731076
-7.750383E-4
3.675178E-4
1.001523E-4
-0.0015047444
-0.0014944545
-0.0013729073
-7.198361E-4
0.0015439821
3.6967575E-4
-0.003183413
-0.0023691275
-2.5810134E-5
7.529161E-4
0.0015234912
0.0010644712
0.0012538391
0.0018296817
4.9292494E-4
5.5461586E-4
6.740613E-4
-1.9570689E-4
-3.0062665E-5
-0.0011907958
-5.671846E-4
0.0016514654
-4.597713E-5
-1.6375401E-4
0.001721273
1.7822608E-4
-4.40443E-4
1.8097533E-4
-3.737482E-5
0.0013648228
7.72411E-4
-0.0020688209
-0.0012323093
2.6087434E-4
-6.1139505E-4
6.872544E-4
0.0024375592
9.138476E-4
-2.8454397E-6
-2.725402E-4
-0.0019652497
-0.0014464842
-4.66885E-4
-0.0014279248
-4.5931822E-4
1.6612369E-4
-0.0011806701
-7.496324E-4
-6.3935306E-4
-7.444746E-4
3.771E-4
-9.942056E-4
-0.0017932272
5.349464E-5
1.5064824E-4
2.2225847E-4
0.001529146
0.0017885496
0.0013507127
0.0010541569
0.0018489364
0.0026942072