0.0033273778
0.0023244896
8.1686035E-4
-0.0011578809
-0.0023749927
-0.0047992165
-0.0050658104
-0.0035876636
-0.003217146
-0.003658999
-0.0047632228
-0.005389817
-0.0019169287
-9.192993E-4
4.830713E-4
0.0036949243
0.0042091478
0.0028986305
0.004372854
0.0029523363
-8.900342E-4
-0.002277146
-0.004118999
-0.01353167
-0.0123496
-0.0125399
-0.01210783
-0.0122657595
-0.008191836
-0.008507913
0.0024091993
-0.0042550243
-0.007818731
0.0040731225
0.0058420873
0.008068164
0.00790187
0.0067832056
0.006824541
0.005431135
0.0051577296
0.0038295826
0.0033790648
0.0030085475
6.40918E-4
-0.0016838233
-0.0039656763
-0.005734641
-0.0050912355
-0.0049278294
-0.0012525708
-6.25708E-5
-0.0021896826
-0.004293906
-0.0018386474
-0.0016133887
-0.0020605004
0.0014942407
0.006515576
0.008161653
0.0064429883
0.0052695824
0.003109065
0.0029585473
0.001120918
8.932886E-4
-3.5671142E-4
-0.0022438231
-0.002390935
-0.002558047
-0.0027375293
-0.002364641
4.577295E-4
0.0021148412
0.0028343238
0.0039861766
0.0038680297
0.005144624
0.005903589
0.0025007008
-0.0017440405
0.0011507007
0.0011030713
-3.9929932E-4
-6.416699E-4
-0.0013164112
-0.0018611524
-0.0031106349
-0.0042848582
-0.0025919701
-0.0016067114
-0.0025238232
-0.0029733058
-4.1567627E-4
0.0010066943
0.0017314355
0.003120918
0.003752771
0.0030122534
0.0037041064
0.0021512182
0.00261833
0.0027378125
2.678125E-4
-3.7455812E-4
-0.0010269287
-7.092993E-4
-0.0016440406
-0.003023523
-0.0010958936
-0.0013006348
0.0013341064
0.0014088476
-6.93523E-4
-0.0031630055
-0.012533305
-0.007929382
0.005277212
0.004973806
0.006382771
0.0066941064
0.0033235888
0.0021907007
0.0010330713
0.0012978124
0.0012025537
1.0255371E-4
-1.0744629E-4
-0.0014521875
-0.0018469287
-0.002706411
-0.0018011524
-0.0013158936
-0.0011606348
1.19365235E-4
0.0033988478
0.005495442
0.0048696655
0.0043538893
0.0040157423
0.001952854
-1.97146E-4
-0.0011318872
-0.0017966285
-0.0032661108
-0.0026855932
-0.001962705
-0.0033021874
-0.0053387815
-0.005345376
-0.00554197
-0.0027914527
-0.0011661939
-3.0619383E-4
-4.8856443E-4
0.0010038061
5.361768E-4
0.001630918
0.004082771
0.0031522533
0.0011469946
5.393652E-4
9.817359E-4
-1.3826416E-4
-0.001925376
-0.0010277466
-0.0021848583
-0.0040467116
-0.0057656765
-0.0043798997
-0.0029293823
-0.002626494
-0.0038083473
-0.002525459
-0.0011702002
0.0026469117
0.002696394
0.0022735058
0.0022206176
0.0015953588
0.0014901
0.0018972119
0.0026666943
6.3906494E-4
-0.0011333057
-0.0024304176
-0.0028398999
-0.0047941236
-0.002643606
-0.0017583471
-0.0037002002
-0.0041544237
-0.0032739062
-0.0010162769
-2.2627685E-4
0.0016284643
1.2846435E-4
0.0026479468
0.0032274292
0.002364541
0.0027740235
0.0018087646
0.0017235059
-1.0649414E-4
-0.0017312353
-0.0028007177
-0.0033102003
-0.0031996826
-0.004916277
-0.0038781299
-0.003939983
-0.0023270948
-0.0019842065
-0.0012989477
7.1342284E-4
0.0012581641
0.0013329053
0.0034047584
0.0039766114
9.0898195E-4
4.6135255E-4
1.2135254E-4
-8.1101805E-4
-0.0016657592
-0.0016305005
1.2949952E-4
-0.0014552417
-0.0042794654
-0.0037013183
-0.0018884302
-0.0011531714
-0.0016479125
-0.002737395
-0.0018121363
-0.0014468775
-2.2687744E-4
0.0010954932
0.0035773462
0.0032668286
0.004171052
0.002248164
0.0017529053
0.0010052759
-3.9709473E-4
-0.0010094653
-0.0034813185
-0.004595542
-0.004779766
-0.0016645069
-0.001549248
-0.0012639893
-0.002051101
-0.0032705835
-0.0011329541
-1.2954101E-5
0.0015417871
6.541577E-4
0.0016888989
0.0021060107
0.0032454932
0.003407346
0.002204458
4.468286E-4
-5.75542E-4
-0.0016602832
-0.0028397655
-0.0024768775
-0.0051634717
-0.0039653247
-8.076953E-4
-0.0011924366
-0.0011371777
-0.001161919
-0.0016166602
-0.0015814013
7.4096926E-4
-4.2140138E-4
-3.4140138E-4
9.0096926E-4
-0.01103459
-0.010617779
0.0040640747
0.001208816
9.0118655E-4
-2.1881348E-4
-0.0018735547
-0.0024106666
-5.230371E-4
-0.0011877783
-0.0019748902
-0.0027043726
-0.0022914843
-2.0148438E-4
6.208862E-4
0.002207998
0.0022751098
0.0046693333
0.003278816
0.003850669
0.0053872634
0.0041291164
0.0016138575
1.4385743E-4
1.1385742E-4
-2.6142578E-5
-0.0015708838
-0.0022179957
-0.0018951074
-0.0024122193
-0.002449331
-0.003471184
-0.002088296
-1.982959E-4
-1.682959E-4
0.0020788158
0.0024059277
0.0025730396
0.004114893
0.0047191163
9.714868E-4
0.0021085986
0.0020557104
0.0022228223
5.4519286E-4
-0.0013595483
-0.0030390308
-0.0025361425
-0.0019932543
-0.0025403663
-0.0028698486
-0.0020069603
-0.0015517017
7.9066894E-4
-7.1170164E-4
-0.003041184
-8.835547E-4
-1.0355469E-4
0.0012611866
0.0012659277
8.9829834E-4
3.4829834E-4
-4.170166E-5
-0.0011564429
-0.0014911841
-0.002018296
-0.0021554078
-0.0027848901
-0.0033967432
-0.0033562256
-0.0024933375
-0.0018580786
-0.0010604492
-0.0012551905
2.4809571E-5
3.1480956E-4
0.0021919215
0.0019490332
0.0038108863
0.0050374805
0.0054040747
0.0045182984
0.0026477808
6.5015134E-4
2.4015136E-4
4.0151368E-5
-0.0021569605
-0.0029064429
-0.0022335546
-0.002873037
-0.0029225196
-0.0026096313
-7.8200194E-4
-0.0018667432
-0.002133855
-8.162256E-4
0.0033232567
0.0030227392
0.0044869627
0.003768816
0.0022059276
0.0025030395
0.003352522
0.0030420043
0.001114375
-2.05625E-4
8.567456E-4
9.991162E-4
1.8911621E-4
-4.932544E-4
-8.35625E-4
-0.0011403662
-0.001987478
-9.798487E-4
2.6015137E-4
5.62522E-4
0.0014972632
-2.8273682E-4
0.002254375
0.0033638575
0.00296334
0.0029328223
0.002379934
8.523047E-4
-0.0019048072
-0.0035866601
-0.0047508837
-0.005187478
-0.0050840722
-0.0030135547
-0.003333037
-0.0030625195
-0.0071962257
-0.01623601
7.8636233E-4
9.587329E-4
0.0014334741
0.0027029566
0.00453718
0.006296145
0.004057998
0.0053745923
0.0034664453
0.0013311865
7.435571E-4
-2.9644286E-4
2.1355713E-4
-0.0010488135
-0.0011535547
-0.0026730371
-0.0033225196
-0.002642002
-0.0025491137
-0.001483855
-6.9622556E-4
-6.8859616E-4
-6.009668E-4
0.0014637744
0.0019508862
0.0021379981
0.0025551098
0.0034069628
0.0028064454
0.0028459278
4.1829835E-4
-5.940723E-4
-4.5644288E-4
-0.0016011841
-0.0020982958
-7.506665E-4
-0.0020577784
-0.0038996313
-0.0038914843
-0.0036933373
-0.0014780787
6.0429197E-4
7.166626E-4
8.66626E-5
4.690332E-4
5.714038E-4
0.001796145
4.985156E-4
1.8851562E-4
-7.148438E-5
-0.0031509667
-0.0030104492
-0.0015051904
-0.0022823024
-0.003914155
-0.0032036377
-0.004940232
-0.0023673438
-0.001622085
-0.0033415675
-0.0015163086
0.001016062
-3.3937988E-5
0.0014708032
0.0043950267
0.0024121387
0.0017068799
0.0027363624
0.0024334742
0.002620586
3.2058594E-4
-0.002596526
-7.788965E-4
-0.0014636377
-0.0025707495
-0.0033002319
-0.0024373438
-0.0024644556
-0.0030639379
-0.0017186792
2.913208E-4
0.001356062
6.584326E-4
0.0020055445
0.0029450268
0.0035368798
0.0026863622
0.0018811035
0.0023682152
0.0019353272
0.0035771802
0.0010195508
-0.0014051904
-0.0015999316
-0.0018346729
-0.001279414
-0.0010617847
-0.0021388964
-0.0015436377
-5.3637694E-5
2.163623E-4
4.187329E-4
0.0015834741
0.0030029565
0.005169551
0.0030190332
0.0013237745
0.0034456274
0.0036174804
0.0022245923
6.869629E-4
-0.0034348902
-0.0073685963
-0.01871786
-0.006929197
-9.1156736E-4
1.4843262E-4
5.208032E-4
-3.2919677E-4
-0.0020763087
-0.0022834204
-0.0012681616
0.0031213209
0.0045655444
0.0065568797
0.005995845
0.004180068
0.0051966626
0.003396145
0.0026456274
0.0024927394
4.8510986E-4
-0.001992002
-0.003673855
-0.003395708
-0.0046499316
-0.0048241555
-0.00631312
-0.0051197144
-0.0041215676
-0.0024886793
-9.010498E-4
-4.8342042E-4
0.0013013209
0.001756062
0.0022831738
0.0012779151
0.0029973974
0.0010497681
3.7976805E-4
1.6976807E-4
-0.0012049731
-0.0017197144
-0.0010620849
-0.0018168262
-0.002533938
-0.0032334204
-0.0019105322
-0.002137644
-0.0031271265
-8.9949707E-4
-0.0012042383
2.576172E-5
0.0019228735
0.0020599854
0.0023970972
0.0027665796
0.0023736914
0.0029431737
8.3554443E-4
-5.868262E-4
-0.0012915673
-0.0035834203
-0.0021605322
-0.0014452734
-0.0025723854
-0.002349497
-0.00344135
-0.0042955736
-0.0040774266
-0.0032469092
-0.002244021
2.75979E-4
0.0027654613
0.004819685
0.004916279
0.0028757618
0.0021328735
2.2287354E-4
-8.7126464E-5
-3.6712646E-4
-0.0018218677
-0.0022489794
-0.0020660914
-0.0033455738
-0.0014403149
-0.0021274267
-0.0028169092
-0.0016316504
-0.0013063916
1.636084E-4
-1.863916E-4
0.0011583496
0.0021054614
0.0040573142
0.004521538
0.0049581323
0.0029776148
0.0028070973
0.0038289502
0.0021660621
0.0024531737
0.0021102857
6.8265625E-4
-0.0039091967
-0.008987644
-0.02029165
-0.004415874
5.164966E-4
2.1649658E-4
3.9886718E-4
5.212378E-4
0.001135979
0.0019530908
0.003524944
0.005241538
0.0037333912
0.0043076146
0.0035394677
0.0031289503
0.0026784325
0.0018331738
0.0011355444
7.5544434E-5
1.5544434E-5
-0.002663938
-0.0027234205
-0.0015481616
-9.3053223E-4
-4.1290282E-4
-7.290283E-5
-0.0013076441
0.0015470971
0.002284209
0.003656062
0.005452656
0.0038245092
-5.4907227E-6
-0.0018702319
-0.0010126026
2.6739747E-4
-6.049731E-4
-0.002192085
-0.0016068262
2.3173829E-5
-7.791968E-4
-0.001843938
-9.763086E-4
-0.0017710498
-0.001235791
3.74209E-4
0.0011365796
0.0024136915
0.0016484326
4.408032E-4
0.002497915
0.0031173974
0.00306688
0.0018416211
9.439917E-4
0.0017787329
0.0016534742
-3.465259E-4
-9.4889646E-4
-0.0015636378
-0.0011160083
-1.060083E-4
-0.0015507495
-0.0023978613
-1.7786132E-4
0.0015868798
5.692505E-4
0.0017539917
0.0011063623
0.0026958447
0.0015305859
0.0018553272
9.6769776E-4
8.3006837E-4
0.0026795508
0.0030890333
0.0032385157
0.0020856275
5.9799803E-4
-8.3437253E-4
-0.0023914843
-0.005700449
-0.0036323022
-0.002539414
-0.0029088964
-5.2126707E-4
0.0019258447
0.0022029565
0.0010253271
0.0028048095
0.004639033
0.0043832567
0.0033727393
0.0054593333
0.0048535573
0.00403541
0.002392522
0.0021196338
0.001474375
-9.779956E-4
-0.0023051074
-0.0046393313
-0.007343037
-0.0040848902
-0.0037067432
-0.0029262255
-2.762256E-4
0.0017285156
0.0022756273
0.0039474806
0.0019945924
0.0040664454
0.0037782984
0.0021054102
0.0015901513
7.015136E-5
2.0151367E-5
3.2015136E-4
-0.0020769604
-0.0011193311
0.0011954102
0.0010377808
4.4015137E-4
-7.722192E-4
-5.2458985E-4
0.002002522
0.0033220043
0.002941487
0.0041033397
0.0060523045
0.0060612694
0.0041031227
0.002922605
-3.739502E-5
0.0015073462
0.0014520874
1.820874E-4
3.320874E-4
1.220874E-4
-0.0019950245
-0.0019821362
-0.0018468774
-0.0026663598
-0.0033982128
-0.0033276954
-0.0017124366
-7.5480714E-4
0.0025923047
0.004716528
0.0038683813
0.0036502343
0.005829199
0.0044234227
0.0030429054
0.002360017
-5.998291E-5
2.100171E-4
-0.0013347241
3.152759E-4
-9.770948E-4
-0.001621836
-0.0010842065
-6.7657715E-4
-0.0013913184
-0.00202843
-0.002345542
-0.0033250244
-6.8739505E-4
0.0018673462
0.0031168286
0.0042710523
0.006482388
0.004556611
0.0033860938
0.0042203176
0.0020274292
2.774292E-4
3.997998E-4
5.821704E-4
-7.402002E-4
1.2979981E-4
-0.002027312
-0.0038591651
-0.0030786474
-0.0040905005
-0.0036223535
-7.747241E-4
0.0028747583
0.0034466113
0.004510835
0.0056574293
0.006568765
0.005505359
0.0030848414
0.0037166944
0.0039385473
0.0020356593
0.0034375123
-0.001537229
-0.0045614527
-0.0045856764
-0.0032651587
-0.0038370118
-0.0035088647
-0.005165459
-0.010348648
-0.019940283
-0.005859248
0.0012254931
0.0037273462
0.00459157
0.004013423
0.0038652758
0.0018600171
0.0032394994
0.0024366113
9.989819E-4
0.0022060939
5.3846434E-4
-0.0015062769
-0.0028057592
-0.0039376123
-0.002264724
-0.002361836
-0.0019989477
-2.4894776E-4
8.1342284E-4
0.0019505346
0.0017552759
0.0027047582
0.0018694996
0.0040713525
0.0026508349
0.0026903173
0.0035821705
0.002701653
0.0011340234
-2.4597655E-4
-8.383472E-4
-9.7071775E-4
-0.0023978297
-0.0022049414
-0.003014424
-0.003906277
-0.00393813
-0.0049147243
8.527588E-5
0.0044094995
0.005226094
0.0043103173
0.004664541
0.004096394
0.0024535058
-8.649414E-5
-6.9886475E-4
-0.0024459765
-0.0015007178
-0.001765459
-0.0019825709
-2.825708E-4
-0.0033020533
-0.0040139062
-0.0015486474
-0.0016833887
-6.257593E-4
-0.0013605005
0.0011642408
3.1424072E-4
0.001298982
0.003460835
0.0045450586
0.004729282
0.0053458763
0.005092471
0.0044366946
8.0906495E-4
-0.002428047
-0.0022551587
-0.0024222706
-0.0021393823
-0.0031288648
-9.012353E-4
-5.93606E-4
-0.0012083472
1.8165284E-4
3.7402342E-4
9.26394E-4
-7.5597654E-4
-2.0597657E-4
0.0024211353
0.0031706176
0.005247212
0.005603806
0.0054704
0.0039022535
0.0033317357
6.9410645E-4
2.4106444E-5
-0.003095376
-0.0045295996
-0.0072733057
-0.008449382
-0.008045459
-0.005784424
-0.0023315356
-0.0029010181
-0.0026705004
-0.004694724
-0.002461836
-0.0025389479
-0.012499248
0.005107346
0.0068886816
0.01047187
0.0108950585
0.009233505
0.007587212
0.007820918
0.007874624
0.0019217358
-0.0036101171
-0.004164341
-0.0035961939
-0.0069975294
-0.010148347
-0.006779683
-0.0034215357
-0.003041018
-0.0018881299
-2.2812988E-4
-0.001532871
-0.0024899829
-0.0023370946
-0.0020942066
7.0816407E-4
0.002145276
8.376465E-4
-0.00868843
-0.027966142
-0.027973855
-0.011951785
0.0029576977
0.011543257
0.009041704
0.010524892
0.018814158
0.026919499
0.035340916
0.03778945
0.04007509
0.047584437
0.042829562
0.042934686
0.049228776
0.05493183
0.04934592
0.033480227
0.011615786
-0.014289255
-0.04288438
-0.067175366
-0.061829753
-0.0478991
-0.017473625
0.013619046
0.038879946
0.05064878
0.036814936
0.12760557
0.26732478
0.36312503
0.39506486
0.36575222
0.2799617
0.11484205
-0.055693373
-0.14495853
-0.13558523
-0.0067165745
0.07062389
0.041444276
7.566455E-4
-0.06773671
-0.1260426
-0.15124673
-0.16577588
-0.18051246
-0.1738477
-0.12547122
-0.08050487
-0.09330883
-0.14279687
-0.116031945
-0.02869203
0.008204048
-0.008332029
-0.021138405
-0.048630126
-0.07384244
-0.098992996
-0.13206784
-0.19046524
-0.1888879
-0.13668697
-0.09618804
-0.07903695
-0.066515565
-0.06577181
-0.08230021
-0.097236015
-0.08599626
-0.064417765
-0.038178664
-0.0041305176
0.041229866
0.057650033
0.03594382
0.012011751
0.014526792
0.039520063
0.067571044
0.11022715
0.14313757
0.17421518
0.19475679
0.21384768
0.2279836
0.22950427
0.19126403
0.08601428
-0.040071364
-0.0837845
-0.04894859
-0.052152164
-0.10000508
-0.07544214
-0.07875869
-0.12848169
-0.161859
-0.1721995
-0.14839414
-0.077588305
-0.03779684
-0.045629073
-0.05422976
-0.032049324
-0.024005184
-0.016527336
0.015892446
0.061394464
0.10088213
0.1676884
0.20064898
0.20702852
0.2450666
0.23183438
0.12896976
0.02044376
-0.031435806
-0.107532434
-0.1622021
-0.15041386
-0.14348428
-0.13895047
-0.10546235
-0.060692
-0.009360449
0.026312523
0.046447128
0.06183152
0.050360348
-0.028579734
-0.04355723
0.017737295
0.049573753
0.03285569
0.01176362
0.010526809
0.010199998
-0.008676079
-0.029900903
-0.027116245
-0.04477611
-0.05918102
-0.05271696
-0.042609714
-0.030646909
-0.015334321
-0.0011790625
0.01721546
0.031082656
0.026675627
0.01774015
0.0017948926
-0.007036443
-0.003588296
0.00759541
0.011410969
0.008909416
0.0074731223
0.004217346
0.002554458
0.004658682
0.007812388
0.008128464
0.008876911
0.009175359
0.010688547
0.0105817355
0.008770183
0.010141001
0.009279449
0.007853154
0.0075168605
0.0071781958
0.0028976782
2.6767823E-4
-6.846924E-4
-4.27063E-4
-0.0020641747
-0.0032836571
-0.002300769
-0.002037881
-0.0012226221
1.7737794E-4
-0.0012073633
-9.736328E-5
0.0032321191
0.0015368604
0.001029231
0.002406343
0.0031858252
0.0054224194
0.0060613845
0.009462202
0.0114877615
0.013840432
0.012700733
0.010863921
0.008279998
0.0037318505
-0.0038200025
-0.009800821
-0.011256379
-0.011794309
-0.011179868
-0.008065945
-0.0019730567
0.0078106495
0.01366332
0.017117845
0.01938948
0.02388534
0.022796458
0.008874904
-0.008111171
-0.02328466
-0.044264525
-0.032306463
-0.032348398
-0.029100852
-0.019250117
-0.015007529
-0.009608347
-9.007178E-4
0.0018140235
0.002653506
0.0023606177
0.0075943237
0.009132771
0.010365959
0.0076496657
0.0040215184
0.0075252247
0.011430784
0.014958195
0.013860866
0.015028278
0.01332095
-0.0035609032
-0.0142359445
-0.014720987
-0.021829734
-0.027085075
-0.027842788
-0.023998648
-0.018857913
-0.013420584
-0.00801666
-0.002133772
0.004910452
0.010996011
0.013648681
0.013591353
0.00850743
-2.125708E-4
-0.013515241
-0.02207399
-0.022272738
-0.01621252
-0.013835191
-0.011350749
-0.0089591965
-0.0047434205
-4.1579103E-4
0.0027636914
0.009402139
0.007645845
0.0036476979
-0.003974155
-0.0074278614
-0.013740532
-0.015560315
-0.011125874
-0.010951433
-0.010334621
-0.008120698
-0.008729146
-0.009427593
-0.00937604
-0.007399746
-0.0064310813
-0.006762417
-0.007496123
-0.0065674586
-0.0036393115
-0.004183535
-0.0049901293
-0.0032696119
-0.001334353
9.480176E-4
0.0010403881
9.427588E-4
0.0010051294
0.002402241
0.0030717237
9.7409426E-4
-7.6827634E-4
-2.6827637E-4
0.0019388355
1.1883545E-4
2.4883545E-4
-1.6116456E-4
-6.9353514E-4
-7.9590577E-4
-0.0018930176
-0.0014677588
-7.758789E-6
0.0019093531
0.0016940943
0.0036059474
0.0052525415
0.004576765
0.0047709886
0.0044352124
0.0036770655
0.0022541774
7.6654786E-4
4.9891847E-4
7.8918456E-5
-0.0038229346
-0.002812417
-0.0028318993
-0.0025590113
-0.001936123
-0.0030156055
-0.0020927172
-0.0025198292
-3.921997E-4
0.0012125415
0.0016472827
0.0029167652
0.002283877
2.8387696E-4
0.0012886182
0.0017533593
0.0013081005
0.0013728418
0.001267583
7.7583005E-5
0.0011423242
-9.300464E-4
-0.0020271582
-0.00219427
-0.0021013818
-0.0030308643
-0.0034727172
-0.004376941
-0.0056235353
-0.0031130177
-1.0301758E-4
9.6982425E-5
-1.3301757E-4
5.49353E-4
1.2935302E-4
2.8935302E-4
-6.2301755E-4
-9.4538816E-4
-0.0021325
-0.0028019825
-0.0017167237
-0.0022138355
-0.002763318
-0.0043875417
-0.0047717653
-0.0030312475
-6.7361817E-4
0.0021034935
0.003252976
0.0036148292
0.0047890525
0.0038609058
0.0033203883
0.0052569825
0.0041488353
0.0036706885
0.0017554297
-0.0020516822
-0.0069330176
-0.01684517
-0.0059541357
-0.0017088769
1.11230465E-5
-3.0887694E-4
-0.0018036182
-7.4598874E-4
5.463818E-4
0.0019734937
6.8586424E-4
0.0039777174
0.0050343117
0.0053809057
0.0064098705
0.0057088356
0.0057178005
0.004542024
0.0026415063
0.0031809888
0.0031804712
7.628418E-4
3.628418E-4
-7.158203E-6
-0.0018818994
-0.0018766406
-0.0023937523
-0.0014684936
-8.6086424E-4
2.7913574E-4
5.9135742E-5
-5.832349E-4
0.002333877
0.0019109888
0.004142842
0.005179436
0.003891289
0.004073142
0.0026826246
0.0034544775
0.0016392188
0.0021063306
8.7870116E-4
-0.00147604
-0.0019931518
-9.955225E-4
-3.5552247E-4
-0.0017802636
-0.003119746
-0.0012944873
-0.0011792285
7.331421E-4
2.731421E-4
2.1314209E-4
0.002040254
0.0035721068
0.0031215893
0.0013863306
0.0017810718
0.001185813
4.981836E-4
-9.44187E-4
-0.0019712988
-0.0042255223
-0.0036173754
-0.0035692286
-0.003328711
-0.0020458228
-6.3819333E-4
0.0020489185
0.0016736597
0.0024307715
0.003010254
0.0025973658
0.0030568482
0.004128701
0.0050752955
0.004159519
0.0038913721
0.0032708545
0.003060337
0.0015350782
-0.0017796631
-0.0013544043
-4.6677492E-4
-6.691455E-4
-0.0011638867
-0.0020209986
-0.0013757397
4.4663085E-4
0.0017613721
0.0018984838
0.0034203369
0.0044145607
0.0053711548
0.0052277492
0.0042919726
0.0043861964
0.0046104197
0.0022175317
0.001772273
8.6464355E-4
-0.002794839
-0.0056938035
-0.0033332861
-0.002090398
-0.0027498803
-0.0017146216
-0.002754104
-0.0020412158
6.011548E-4
0.0029206371
0.0028701196
0.004154343
0.003916196
0.0034680492
0.0054246434
0.0018793847
0.001564126
0.0015188672
2.9886718E-4
-4.7350343E-4
-0.0013582447
-0.0023653565
-0.0015800977
-0.0018548389
-0.0027343214
-0.0030138036
-0.0015385449
-2.8854492E-4
1.4145508E-4
2.1455078E-5
0.0018761962
0.0023133082
0.0030827904
0.003292273
0.0019293848
0.0024064966
3.7649658E-4
2.864966E-4
-0.0019406152
-0.002487727
-0.0029472094
-0.0037990625
-0.0033985449
-0.0018332861
-0.0029227685
-0.0015875098
-0.0015222509
0.0015824903
0.0016972314
0.0023043433
0.0031138256
0.003393308
0.0026627905
0.004949385
0.0060783494
0.004692573
0.0034544263
0.0015391675
1.8916748E-4
4.115381E-4
2.4153809E-4
-0.0020955738
-0.0013303149
-0.0023274268
-0.0037392797
-0.0020863917
-0.0011811329
-8.435034E-4
-0.0016282446
-2.5824463E-4
0.0019588673
0.0039807204
0.004152573
0.0051091677
0.0025962794
0.0030657616
8.9813233E-4
0.0017228735
8.552441E-4
-0.0028942383
-0.0025713502
-0.0015560914
-0.0038179443
-0.0036197973
-0.0018345385
-0.0010869092
-3.7690919E-4
-7.792798E-4
-6.416504E-4
6.307202E-4
0.0031602026
0.0049467967
0.0045010205
0.004805244
0.0033747265
0.0019818384
0.0013965796
-5.9579103E-4
2.74209E-4
-5.381616E-4
-0.0011529028
-0.0019100147
-0.003169497
-0.0029089795
-0.0021160913
-0.0010184619
-7.508325E-4
-0.0018155738
-0.0048397975
-0.0145348385
-0.003826692
0.004457532
0.005364126
0.007517832
0.003469685
7.5205567E-4
-0.009658762
-0.008314839
-0.0066761742
1.2382568E-4
-0.011581734
-0.004265957
-3.9832763E-4
-4.8327638E-5
-2.1832764E-4
-5.4069824E-4
0.0012940429
0.0021911548
0.0026606373
0.0010330079
0.0033524903
0.004466714
0.0054133083
0.0052099023
0.0050964965
0.003345979
0.0021730908
0.001437832
-4.3453858E-4
-0.003124021
-0.0028635035
-0.0016582446
-0.0019253565
-0.0024024684
-0.00201958
-0.0040314333
-0.005408027
-0.0011527685
3.6723143E-4
0.0020743432
0.002271455
0.0031709375
0.005537532
0.004421755
0.0024288672
0.0014236084
0.001095979
-1.24021E-4
-7.263916E-4
-0.0017211328
-0.0043253563
-0.0055519505
-0.0050685448
-0.0046927687
-0.0041246214
-0.0040464746
-0.004180698
-0.0016454394
-3.4543945E-4
-2.2543945E-4
0.0017093017
0.001614043
-3.5595702E-4
3.8641357E-4
0.0035782666
0.003277749
0.0026348608
0.0017596021
-0.0013951391
-0.0015298803
-0.0029193629
-0.0026888452
-0.004873069
-0.0031025512
-0.004486775
-0.0030962573
-0.004320481
-0.003702334
-0.0014970752
1.729248E-4
6.752954E-4
0.0013800366
0.0023371484
0.0039390014
0.0035308546
0.0016855957
3.255957E-4
9.55957E-5
-0.0015391455
-0.0022362573
-7.5862795E-4
-0.0017233691
-0.0033928517
-0.0062018163
-0.0054984107
-0.005615005
-0.0030944874
-8.068579E-4
-0.0011292285
-0.0016139697
0.0010784009
0.0022055127
0.002804995
0.002612107
0.0027315894
0.0020287011
0.001925813
0.0025029248
0.001157666
-3.62334E-4
-1.4233399E-4
-0.0015970751
-0.0014818164
-0.001014187
-0.0019512988
-0.00176604
-0.003837893
-0.0032573754
-0.003026858
4.314209E-5
8.855127E-4
-0.004448711
-0.008034787
0.005784177
0.0053407713
0.0054973657
0.0045815893
0.002358701
0.0016934423
-5.9892825E-4
-0.00255604
-0.0030855224
-0.002945005
-0.0030544873
-0.0019115991
-0.0020787108
-0.0033081933
-0.0022353053
-0.0012100464
-3.2004638E-4
0.0020570655
0.0036089185
0.0025460303
0.004107883
0.004812107
0.0034739599
0.0019710718
-2.0892822E-4
4.1071777E-5
-1.7892823E-4
-9.4129884E-4
-0.0023684106
-0.0021855223
-0.0033250048
-0.0038368579
-0.0042810817
-0.004885305
-0.0037271583
-0.0014318994
-0.0019990113
-0.001896123
-4.7849366E-4
-1.7849365E-4
8.0387696E-4
0.0022609888
0.0022681006
0.002957583
0.0017923242
3.8469484E-4
-3.3530517E-4
-0.002282417
-0.002009529
-0.0041013816
-0.004023235
-0.0043174587
-0.003316941
-0.004048794
-0.003410647
-0.0037625
-0.0013072412
7.851294E-4
0.0019522412
0.0030817236
0.0038635766
0.0036854297
0.003254912
0.0037367651
0.0022038769
-1.9612304E-4
-0.0026556056
-0.0020427173
-0.0036045704
-0.0033440527
-0.0039359056
-0.0061048707
-0.0061038355
-0.0060528005
-0.005841765
-0.0032512476
-0.0017959888
-6.598877E-5
4.4638183E-4
0.003608235
0.0030277174
5.000879E-4
0.0012148292
0.0013295703
-0.0012651709
-8.6754153E-4
-6.599121E-4
4.524585E-4
-0.0022146534
-0.0038965063
-0.0043507298
-0.003712583
-0.003804436
-0.0032939184
-0.0017686597
-5.1103026E-4
0.001243711
0.0015184522
0.0034403051
0.0037421582
0.005681123
0.0048853466
0.0044995705
0.003931423
0.0025585352
0.0010509058
-4.8146484E-4
-0.0026185766
-0.0032180592
-0.0014928003
-0.0028222827
-0.0033217652
-0.0043659885
-0.0037078417
-0.0024249535
-0.0016196949
8.030517E-5
4.0267577E-4
0.0023797876
0.004754011
0.0029434937
0.0016882349
0.0027177173
0.0026871997
5.795703E-4
-9.428003E-4
-0.0015175415
-0.0022246533
-0.0029241357
-0.0035159888
-0.0031854713
-0.0068168067
-0.0073105125
-0.0071842186
-0.008180295
-0.0040621483
-0.0019492602
-0.0017840015
-8.063721E-4
0.0019107397
0.005117334
0.005293928
0.00248104
3.8104004E-4
1.1040039E-5
-8.6133054E-4
-0.0010637011
-0.002230813
-0.0025579247
-0.0024350367
-0.0033245191
-0.0031840014
-0.0037558544
-0.003395337
-0.0010677075
4.246631E-4
8.070337E-4
1.07033695E-4
0.0013017749
0.0023988867
0.0037207399
0.0043249633
0.0027944457
-0.0078192605
-0.009620078
0.0016946631
4.170337E-4
-5.953369E-4
-0.0013500781
-0.0023971898
-0.003649043
-0.0055756373
-0.0038474903
-0.0036093432
-0.0035511963
-0.0018059375
-0.0023530493
-0.0027225318
6.0983887E-4
0.0030793212
0.0037011744
0.0040630274
0.0011977686
0.0017425098
0.0015672509
0.0011196216
-4.9274904E-4
-4.0511962E-4
-0.0013898609
-0.001844602
-0.0024717138
-0.0023488256
-0.0046730493
-0.0035849023
-5.0727295E-4
-0.0010696435
-6.7201414E-4
0.001732727
0.0023098388
0.0030693214
0.0027288038
0.0041930275
0.0033025097
0.001867251
0.0022143628
3.867334E-4
0.001009104
-2.70896E-4
1.2910401E-4
-9.632666E-4
-0.0022103784
-0.002889861
-0.0029093432
-0.001906455
-0.0038983081
-0.003950161
-5.9253175E-4
6.0983887E-4
0.0018245801
0.0034364332
0.004680657
0.0040025096
0.0035543628
5.867334E-4
0.0011314746
9.147461E-5
-0.0018032666
-0.0031027491
-0.005671714
-0.005598308
-0.003960161
-0.0028896437
-0.005066238
-0.0037280908
-0.0031975734
-0.0028370556
-0.003236538
-3.165381E-4
0.0016582031
0.0015429443
0.0027624269
0.0034342797
0.003756133
0.0023232447
0.0013179858
0.0013427271
0.0013674683
-1.6253174E-4
2.3746827E-4
-3.1253175E-4
-0.0021996435
-0.0023767555
-0.0026762378
-0.0025133495
-0.0023704614
-0.0020275733
-0.002514685
9.0768555E-4
0.002697168
0.0014219092
8.190918E-5
0.0018466504
0.001039021
9.413916E-4
-0.011816538
-9.289087E-4
0.0019182031
5.605737E-4
-0.0016341675
-6.465381E-4
-0.00206365
-0.0023707617
-0.0029902442
-0.0029097265
-0.0019768383
-6.4920896E-4
0.0011031616
0.0014979028
0.001502644
0.0026297558
6.0212647E-4
0.0016568677
0.0033663502
0.004480574
0.0020676856
6.6005613E-4
-4.8231444E-4
-8.846851E-4
-0.0017494262
-0.0016241674
-0.0018389086
-0.0024660204
-0.0022831324
-0.0033526148
-0.0021497265
-0.0021768385
5.2553223E-4
0.002232644
0.0027221264
0.002861609
0.0030710914
0.0037029444
0.0032424268
0.0034942797
0.0025713916
0.0013861328
-0.0014286084
-7.80979E-4
-0.002338091
-0.0043123146
-0.0058212793
-0.002218391
-0.002365503
-0.0033349853
-0.004279209
-0.0028086915
2.4130859E-4
6.936792E-4
3.736792E-4