0.0022665088
9.788794E-4
5.1125E-4
2.6125E-4
6.036206E-4
6.059912E-4
0.0012307324
-4.516382E-4
-0.0017163794
-0.0025934912
-7.558618E-4
-8.8823243E-4
-0.0015929736
-0.0019100854
-0.0015148267
-7.8719726E-4
0.0020599146
0.0035617675
0.0047959913
0.0053525856
0.0032720678
1.7206787E-4
0.0018668091
3.568091E-4
-0.0019203027
-0.0026997852
-0.0029692675
-0.0039911205
-0.0045253444
-0.004027197
-0.004631421
-0.0031109033
-0.0035527563
-0.0039646095
-0.0022217212
-3.417212E-4
6.827881E-5
0.0027477613
0.0039196145
0.004533838
0.0033733202
5.3320313E-5
0.0013480615
9.604321E-4
-2.1956787E-4
-0.0020266797
-0.0023337915
-0.0026632738
-0.0042674975
-0.0018522388
-0.0018993506
-0.0023464623
-0.0051330565
-0.005469651
-0.0011643921
0.0014803491
0.0025774608
0.0014622022
0.0030116846
0.004865908
0.0043901317
0.003491985
0.001736726
-2.5327393E-4
-0.0018180151
-0.001935127
-0.0025722387
-0.0030117212
-0.002188833
-0.0015935742
-0.002060686
-0.004002539
-0.0041243923
-0.0027638746
-0.0016386157
2.2138428E-4
0.0021684961
0.0030179785
0.0024950902
0.0029645727
0.0038064257
0.0023035377
0.00294302
0.0014977612
6.101318E-4
-0.0026793506
-0.0037612037
-0.0035530566
-0.00428728
-0.0037991332
-0.0046233567
-0.008841804
-0.011217363
-0.0037892163
-6.715869E-4
-0.0022486988
0.0015160425
0.0026655248
0.0032050074
0.0032944898
0.003093972
0.0030134546
-0.013689216
-0.01647137
0.0016833716
5.357422E-4
0.0013104834
2.104834E-4
-4.218872E-4
-4.9425784E-4
-0.001708999
-0.0022361109
-2.7611083E-4
6.8625977E-4
-0.002480852
-0.0026503345
4.5203613E-4
0.0029615185
0.002961001
0.0024181127
0.0025752245
0.0010275953
0.0014823364
-3.1766357E-4
-3.5766358E-4
-7.900342E-4
-0.0012847754
-0.001007146
-0.0017118872
-0.0033513696
-0.004355593
-0.0038774463
-0.00455167
-0.0030011523
-0.0012058936
-0.0014006348
3.8173585E-4
0.0029712182
0.0028907007
0.0037625537
0.0013972949
9.0966554E-4
8.220361E-4
-6.003345E-4
-0.0024174463
-0.0025145581
-0.00210167
-0.003683523
-0.0030130055
-0.0024401173
-0.0039319703
-0.0026414527
-0.0011361939
-0.0028456764
-0.0037975293
-7.098999E-4
1.8010009E-4
0.002217212
0.005726177
0.0029556593
0.002412771
0.0017775123
0.002084624
8.8699465E-4
3.8936525E-4
-0.001705376
-0.0060343407
-0.0046385643
-0.0025956763
-0.0029751586
-0.0023122705
-0.0040541235
-0.0018688648
-0.001423606
-0.0023607179
-1.10717774E-4
0.002066394
0.0021235058
0.003445359
0.0033348412
0.002181953
0.0028014355
0.0028509179
7.4328855E-4
-2.9671143E-4
-0.0014114527
-0.0012061938
-0.0021533056
-0.0053099
-0.0025270118
-0.0015217529
-0.0025888646
-0.0018859765
-0.0035178296
-0.002857312
-2.47312E-4
0.0016174292
0.0015621705
0.0025292821
0.0030887646
0.0025158764
0.0016006177
0.0024077294
6.601001E-4
-0.0022170118
-0.0016617529
-0.0026612354
-0.0028607177
-0.0020978295
-0.0034596827
-0.0023767943
-0.0016115357
-0.0020786475
-0.0035705005
-0.0026176122
-9.799829E-4
0.001907129
0.0030466113
0.0034484644
0.0038403175
0.001957429
0.0017721704
0.0020392821
0.0011016529
0.0010140234
9.0639404E-4
-5.159766E-4
-0.003005459
-0.0026749414
-0.0040767943
-0.0038586475
-0.0035905004
-0.0039423537
-0.0026094653
-0.001041836
-6.1420654E-4
9.081641E-4
0.0031176466
0.0035594995
0.0037413526
0.002780835
-1.1916504E-4
0.0010132056
-0.0010991651
-0.002456277
-0.001621018
-0.0020081298
-0.004079983
-0.0046942066
-0.0035460596
-0.0037379125
-0.0036597657
-0.0039616185
-0.0039734715
-0.003082954
-0.0019800658
-8.3243655E-4
1.7756347E-4
0.0026446753
0.0040265284
0.0038183813
0.0039602346
0.002939717
0.0022468285
0.0024039405
5.46311E-4
-7.2605954E-4
-0.0025631713
-0.0038750244
-0.003034507
-0.00396636
-0.0042005833
-0.0013253248
-0.0021824364
-0.0016671778
-1.6717773E-4
0.002099934
0.0011746753
0.002431787
0.0017965283
0.0028960106
0.0035578639
0.0030573462
0.0010797168
0.001134458
0.0010068286
-5.3171385E-5
-7.75542E-4
-6.679126E-4
-0.0019650245
-0.004209248
-0.0043134717
-0.0031829542
-0.0031324364
-0.0015471778
-4.6954834E-4
7.045166E-5
-7.5191894E-4
6.7045167E-4
0.0024075634
0.0035494165
-3.3058348E-4
-5.834961E-7
-2.2058349E-4
-6.429541E-4
-0.0014076954
-0.0013624366
-0.003281919
-0.0051585133
-0.005365107
-0.004859331
-0.01143489
-0.027612602
-0.0045568263
2.2317383E-4
9.6554443E-4
0.0024926562
0.0017973975
0.0037392506
0.0039411034
0.0038029565
0.00466718
0.004019033
0.0035708863
0.0012656274
0.0011803687
6.9273927E-4
2.1273925E-4
-0.0017220019
-0.0032814844
-0.0034033374
-0.0021004493
-0.001977561
-0.0022246728
-4.6704346E-4
3.2956545E-5
-3.6704345E-4
0.0016576977
0.0041495506
0.0033890333
0.002246145
0.0020232568
0.0019903686
0.0020574804
-2.6251952E-4
-4.9489015E-4
-0.002072002
-0.0021991138
-0.001823855
-0.0015085962
-0.0015333374
-0.0015580786
-0.003247561
-0.003579414
-0.002166526
-0.0016012671
-9.036377E-4
1.463623E-4
0.0016611036
0.004315327
0.0056219213
0.006040886
0.0031803686
9.4273925E-4
6.0510985E-4
-8.6726074E-4
-9.896314E-4
-0.0030891139
-0.0035209667
-0.00347282
-0.0027723021
-0.0044665257
-0.0037683789
-0.0031178612
-0.0018826026
7.397681E-4
0.0011545093
4.168799E-4
0.0017016211
0.0027411035
0.0038229565
0.003092439
0.003604292
0.0020014038
-0.0010409668
-8.733374E-4
-1.533374E-4
-0.0012880786
-0.002747561
-0.004069414
-0.002076526
-0.0036083788
-0.0028478613
-0.0015026026
-6.9497316E-4
3.4502684E-4
-0.0016197143
1.6028565E-4
0.0025473975
0.0021145092
0.0036063623
0.0031958448
8.182153E-4
0.0013829565
-3.7941406E-4
-0.0016741552
-0.0013088965
-0.0012936377
-0.0026107496
-0.003150232
-0.0033297143
-0.0023368262
-0.0034886792
-0.002305791
-0.0020329028
8.0946775E-4
0.0020365797
0.0015713208
0.0025984326
0.0041202856
0.0023873975
0.00275688
0.0017116211
0.002408733
0.0019758446
2.5844727E-5
-0.001981267
-0.0036131202
-0.002330232
-0.0024173437
-0.005413938
-0.005360532
-0.0036723854
-0.0034142383
-0.0036560914
-0.0033055737
-0.0023926855
-0.003042168
-2.5216796E-4
0.0033573145
0.0037891674
0.004223391
0.0027928734
0.0018899854
3.6998536E-4
-0.0012147558
-0.0031042383
-0.0029237207
-0.0035955738
-0.0039074267
-0.001592168
-0.0031516503
-0.0033711328
-0.0024782447
-8.7061524E-4
-0.0013653565
-8.27727E-4
0.0010946436
0.0013893847
0.0030888673
0.004263091
0.0046573146
0.0041191676
0.0010015381
-3.184619E-4
4.839087E-4
1.539087E-4
7.390869E-5
-3.1609132E-4
-0.002113203
-0.0029126855
-0.006434021
-0.0069053564
-0.005111951
-0.0034838037
-0.0033956568
-0.002795139
-2.513916E-5
0.0015296021
0.0030390844
0.002728567
0.0031980493
0.0018227905
-1.7720947E-4
2.0279053E-4
-0.0016219507
-0.0019590624
-0.0019161743
-0.0026556568
-1.7565674E-4
6.067139E-4
-0.002200398
-0.0025175097
-0.0022946217
-0.0011269922
-0.002054104
5.782666E-4
0.0037901197
0.004444343
0.004848567
0.0045627905
0.0036746436
0.0010370142
0.001894126
0.0020212377
5.536084E-4
-0.0018935035
-0.0023906152
-0.0029400976
-0.0023072094
-0.003146692
-0.0021838038
-0.0015385449
-0.0017132862
-0.002480398
-8.427686E-4
7.1960205E-4
0.0025367138
0.0036585669
0.00407042
0.0020975317
0.0018122729
0.0010746436
-1.3535644E-4
-0.0016200977
-0.0017048388
-0.0018695801
-0.0026790625
-0.0033685449
-0.0031380274
-0.0015827685
-0.003272251
-0.0027317335
-0.0018464746
-0.0011812159
-1.7121583E-4
-2.1215821E-5
0.0029782667
0.00491249
0.0063714553
0.0052680494
0.0039299023
0.0030493848
0.0018864966
5.988672E-4
6.8867186E-5
4.7123778E-4
-0.0028982447
-0.0040600975
-0.00339958
-0.0030290624
-0.0024261742
-0.0033756567
-0.0034375098
-0.0031569921
-5.393628E-4
0.0014753784
0.0024624902
0.0017772315
0.0036790844
0.004543308
0.003635161
0.0014899024
0.001102273
-0.0012724682
-0.0013072095
-0.0024943212
5.7804934E-4
-0.0019390625
-0.0017238037
-0.001748545
-0.0024356567
-0.001740398
-0.0023875097
-0.0023546217
-9.769922E-4
9.153784E-4
6.17749E-4
0.0010001196
0.0027596022
0.003971455
0.0025185668
5.509375E-4
7.833081E-4
-7.190625E-4
-9.714331E-4
-0.002068545
-0.0017532861
-9.2565676E-4
-0.0026551392
-0.0029346216
-0.0043688454
-0.0038906983
-0.00208781
-2.7781006E-4
-7.3018065E-4
7.9819336E-5
-0.0012149218
1.0507813E-4
0.0017698193
0.0030693018
0.003861155
0.003823008
0.0029624903
-0.001442251
-0.0011346216
-0.002764104
-0.003525957
-0.0033954394
-0.0021725514
-0.002069663
-0.0025067749
-0.0023438868
-0.0013286279
-5.009985E-4
0.0012537427
0.0015984839
0.0016932251
0.0027927074
0.0032221898
0.004958784
0.0042830077
0.0033324903
0.0013172315
-4.2768555E-5
-3.7513915E-4
4.9723143E-4
2.7723145E-4
8.723145E-5
-4.3513917E-4
-2.2513916E-4
-0.0016998803
-0.0029693628
-0.003991216
-0.0024083275
-9.4069826E-4
0.0010416723
0.002038784
0.002615896
0.003597749
0.0042319726
0.0039438256
0.0034756786
0.002775161
0.0017799024
0.0012946435
-2.1535644E-4
3.9701417E-4
1.3701415E-4
2.3701416E-4
0.002084126
7.064966E-4
1.8649659E-4
3.2649658E-4
-0.0011882447
-0.0017329858
-1.4298584E-4
0.0015617553
0.0024288672
0.002245979
5.4834964E-4
-6.64021E-4
-0.001981133
-0.0057900976
-0.006751433
-0.0052380273
-0.0054346216
-0.0035864746
-0.002695957
-0.0056225513
-0.007033887
-0.00394574
-0.001450481
4.1188966E-4
3.5188964E-4
4.8426026E-4
0.0016390014
0.0022261133
0.002403225
0.002260337
0.0024574487
0.0016121899
0.0012569311
1.7693115E-4
-5.1543943E-4
-0.00105781
1.9218994E-4
0.0013869312
1.2693115E-4
0.0011716724
0.002218784
-0.001785957
-0.0023330688
-8.054394E-4
-0.003024922
-0.0012496631
-1.8966309E-4
-0.0047338866
-0.025924487
-0.0029539696
0.0048802537
0.003532107
0.0023492188
0.00176396
0.0012987012
8.0107176E-4
-9.612988E-4
-0.0027207811
-0.0014555225
1.9447754E-4
-0.0014402637
-0.0015750049
-0.0026444872
-0.0023615991
-0.0012263403
5.060303E-4
0.0018307714
0.0015155127
0.0024026246
0.0035944774
0.004678701
0.004772925
0.0062218895
0.0041537425
0.0034655957
0.0021627075
0.0010350781
0.0010074488
1.5744873E-4
-8.049219E-4
-0.0027044043
-0.0013091455
-5.815161E-4
1.8848389E-4
0.001623225
0.003735078
0.005381672
0.006523008
0.006331973
0.0059709377
0.005667532
0.004984126
0.00524072
0.005949685
0.003641538
-8.508325E-4
-0.0025679443
-0.0036597974
-0.004264021
-0.003615874
-0.005864839
-0.006916174
-0.00664751
-0.006778845
-0.0053354395
-0.0024725513
7.5981935E-4
0.0022869313
0.002214043
0.0042682667
0.005484861
0.0042390847
0.0038909374
0.0043951613
0.004459385
0.005025979
0.003727832
4.8020264E-4
-0.0012545385
-0.003174021
-0.003855874
-0.0027153564
-0.0035872094
-0.006246174
-0.00699751
-0.0042617335
3.82666E-5
0.003047749
0.005324343
0.005793308
0.005379902
0.0065312376
0.006462573
0.0035844264
-9.579443E-4
-0.004282168
-0.0048663914
-0.0063153566
-0.007136692
-0.0066780276
-0.004592251
-0.004316475
-0.0040883278
-0.00338781
-0.0018425513
-5.649219E-4
0.0012498193
0.0010621899
0.0027516724
0.0052482667
0.003277749
-0.0019893628
0.0012353784
-9.462158E-5
-0.0021417334
-0.0038835865
-0.005150181
-0.0037920338
-0.0020991454
-0.002868628
-0.0018433691
-0.0013481104
-0.0037099633
-0.0050965576
-9.4892824E-4
0.0027905542
2.905542E-4
0.002447666
0.00424189
0.006633225
0.003765078
1.9507813E-4
-0.0012196631
-0.0023767748
-0.0021238867
3.7611328E-4
0.0032155956
0.0030150781
0.0019021899
2.9218994E-4
9.145606E-4
0.0021816723
1.2167236E-4
-9.506982E-4
-0.0013354395
3.4560548E-5
0.0017393017
0.0021464135
0.002895896
0.0030353784
0.004909602
0.0068609375
0.005417532
0.0024046435
-0.0013600977
-0.0053466917
-0.027412035
-0.014497075
-0.009947893
-0.011473452
-0.0046876757
-9.6004637E-4
-1.5004638E-4
-0.0028795288
0.002457583
0.017202107
0.019503742
0.013296413
0.0063153785
-0.0024217335
-0.009832552
-0.008910999
-0.010314187
-0.0145692285
-0.013331899
-0.014096941
-0.014691982
-0.0097628
-0.002029912
0.0026495703
0.008315647
0.0069969823
7.6982426E-5
-0.0050796117
-0.008165688
-0.004349912
-0.0038317651
-5.241357E-4
-2.3413575E-4
1.0586426E-4
0.004900088
0.0066514234
0.010494612
0.020790989
0.027136331
0.032278266
0.037094425
0.038315326
0.034152005
0.026334975
0.020398982
0.012599282
0.0051058764
-6.7649415E-4
-0.0054830885
-0.009051535
-0.015781319
-0.021790067
-0.023053555
-0.01922282
-0.01367549
-0.012905791
-0.015393203
-0.017900098
-0.021406475
-0.034063153
-0.042575907
-0.035949696
-0.026802666
-0.019554302
-0.0122422315
0.011533327
0.044613194
0.06599943
0.076328866
0.08100252
0.07574958
0.06835531
0.05227888
0.02715422
0.0067855567
-0.0049210377
-0.018940303
-0.03545172
-0.05124292
-0.05163412
-0.050672956
-0.046599932
-0.044319797
-0.044269662
-0.040015306
-0.033249613
-0.031066807
-0.033461113
-0.03198068
-0.019542314
0.007983762
0.041151773
0.08074543
0.118005246
0.13525958
0.12443073
0.094157055
0.072644636
0.05085347
0.010014284
-0.028515799
-0.045518033
-0.048389755
-0.06649837
-0.0891881
-0.09191731
-0.08647756
-0.08538544
-0.07483013
-0.055353183
-0.040328827
-0.026491797
-0.010954985
-0.0021920973
-0.017768992
-0.015918775
0.0035830785
0.05173428
0.11066276
0.16371718
0.19506879
0.19524041
0.1824541
0.18418252
0.17957672
0.1418724
0.08570028
0.031057479
-0.029072605
-0.030577429
-0.01436247
-0.027970184
-0.06953828
-0.08726327
-0.046730246
0.028519837
0.07823638
0.028346462
-0.05180711
-0.028837193
0.03974845
0.047557797
-0.017686727
-0.07605616
-0.17961036
-0.27084142
-0.27880615
-0.20160912
-0.15605983
-0.08671245
0.027462892
0.114793226
0.17669794
0.23185572
0.18676126
0.032283198
-0.139333
-0.23344551
-0.25599915
-0.22567795
-0.17479557
-0.12888093
-0.084566444
-0.02887653
0.0053800633
0.015217476
0.012405405
0.010288593
0.010441782
-0.015578001
-0.05797054
-0.043428034
0.0048161913
0.027401533
0.039334804
0.049198896
0.052494835
0.046319444
0.042392198
0.019983834
0.012844133
0.03496318
0.058375716
0.0670967
0.06191109
0.050087553
0.017692076
-0.008534001
-9.963721E-4
0.0028831104
0.0055197044
0.009158152
0.014855564
0.021754311
0.026067283
0.028527366
0.022838484
0.008776931
6.693018E-4
0.001274043
4.2641358E-4
0.0051430077
0.023086496
0.046963476
0.053971786
0.053017728
0.042150483
0.0020975953
-0.03261434
-0.032978646
-0.024646878
-0.001109248
0.039434023
0.059218932
0.044918798
0.001965908
-0.0334184
-0.030563222
-0.016275376
-0.01672753
-0.020471536
-0.018600801
-0.017085325
-0.017599849
-0.019401485
-0.016543638
-0.010396826
-0.0033263087
-0.0034881616
-0.003057644
-0.0014223852
0.0021847265
0.003254209
0.0027136914
0.0036855445
0.0039773975
0.0016021386
0.0024092505
0.0030487329
0.0023758446
0.001860586
4.2295654E-4
6.653271E-4
-6.3704344E-4
-0.0019341552
-0.0013088965
-9.1126707E-4
-0.0023283788
-0.0016231202
-5.754907E-4
-0.0017902319
-0.0025173437
-0.0033868263
-0.002533938
-0.0014186793
9.736914E-4
0.0018384326
4.908032E-4
9.080322E-5
-7.8156736E-4
-0.0027810498
-0.0029305322
-0.0019376441
-0.003439497
-0.0048337206
-0.0041879443
-0.002135056
-0.0019021679
-0.003864021
-0.0021411327
-0.001305874
-0.0052524684
-0.004476692
-0.0019938038
-1.638037E-4
3.5619628E-4
0.0020333081
0.0011880493
2.8049317E-5
-0.0012066918
0.0010556787
-0.0017490624
-0.0077827685
-0.0057217334
-0.003191216
-0.0039830687
-0.0038849218
-0.006566257
-0.0067475927
-0.0038094458
-0.0041936697
-0.0033955225
0.0011292187
0.0028887012
0.004602925
0.0044571483
0.0034190014
0.0014437427
2.3374267E-4
6.061133E-4
0.0014108545
-6.315161E-4
1.4848389E-4
-4.138867E-4
-0.0027633691
-0.0033628515
-0.003152334
-0.003674187
-0.0033336694
-0.0026631518
-1.03151855E-4
5.5921875E-4
0.00180396
0.0018187012
0.002125813
0.0027452954
0.0037771484
0.0039090016
0.0014437427
7.061133E-4
-1.2388671E-4
-0.0021909985
-0.0022781102
-0.0040099635
-0.0055365576
-0.006547893
-0.0046921168
-0.0024192284
-0.0020763404
-9.687109E-4
9.5365965E-4
0.0015684009
0.0057473658
0.0058063306
0.0072600367
0.008848484
0.005887449
0.0064987843
0.0049253786
-1.8462159E-4
-0.0018793627
-0.0021064747
-0.0036683276
-0.0043425513
-0.004716775
-0.0026138867
3.161133E-4
0.002223225
0.00640219
0.0071035256
0.00578249
0.009090938
0.0086993845
0.005125979
0.0028654614
6.4783206E-4
-0.0013269092
-0.0013816503
-0.0019087623
-0.004090615
-0.0053072097
-0.006608545
-0.008404622
-0.009193069
-0.010516257
-0.008452334
-0.005901299
-0.005237893
-0.007261599
-0.006160564
-0.0056571583
-0.0051837526
-0.0018184937
-1.8493653E-5
-0.0016832348
-0.00717457
-0.021603318
-0.0012380591
-0.008464136
-0.003615989
0.009544829
0.010115647
0.0071669826
0.0025140943
-3.7827637E-4
-0.006007241
-0.0054338356
-0.0059628002
-0.006191765
-0.0029812476
-0.0035931007
-0.0021402123
5.621582E-4
9.345288E-4
7.868994E-4
0.0014916406
-3.0835936E-4
-0.0014131006
-0.0013978418
-4.702124E-4
-3.202124E-4
-6.32583E-4
-0.0018373242
-0.0051139183
-0.0045581423
-0.003959995
-0.0021071068
-6.6947757E-4
3.0052246E-4
4.4289307E-4
-0.0010594776
-4.6184813E-4
0.0023152637
0.005071858
0.0046260813
0.004972676
0.0056916405
0.0038734938
0.0016182349
9.106055E-4
0.0017553467
0.0022224586
-9.75415E-5
0.0021795703
0.002026682
-8.656885E-4
-0.0023728004
-0.0020999121
-0.0021270239
-0.0014117651
-0.0011765064
0.0011158643
6.582349E-4
6.506055E-4
0.0023877174
0.004281941
0.0047761644
0.0041580177
0.004152241
0.0028317235
0.0014564649
6.988355E-4
6.31206E-4
-0.0011635352
-0.004347759
-0.0029872411
-0.002174353
-0.0018914648
-0.004998059
-0.0028375415
4.4482911E-4
-9.575415E-4
-1.675415E-4
9.048291E-4
0.0013695703
0.0034714234
0.0021985353
0.0023956469
2.8564697E-4
-0.0014590942
-0.0015838355
-0.0012685767
-0.0012533179
-0.0026528004
-0.004134653
-0.0036665064
-0.0028959888
-0.0041602124
-0.0040020654
-0.0041239182
-0.0053905128
-0.0013752539
0.002481858
0.0020289698
0.0032184522
0.0029379346
-0.0015068066
4.8556397E-4
0.0021026758
6.250464E-4
-1.5495361E-4
-9.473242E-4
-0.0032168066
-0.0026439184
-0.0039657713
-0.0038476244
-0.0046618483
-0.006410813
-0.007654519
-0.0070058545
-0.0037377076
-0.0021448194
0.0010375513
0.002524663
-0.01633749
-0.009055938
0.004838286
0.0039901393
0.0033796215
0.0035614746
0.0023285865
0.0020156982
0.0023128102
0.0013275513
0.0016422925
2.2924805E-6
-0.0011100781
-0.0018248194
-0.0016895606
-0.0013043018
-9.4667234E-4
7.6569826E-4
8.1806886E-4
0.0019351806
0.0025722925
0.0039241454
0.004618369
0.004292593
0.0027020753
0.0015668164
9.39187E-4
3.7918703E-4
-0.0015255542
-0.0029650365
-0.003004519
-0.003936372
-0.0036782252
-0.0010005957
-0.0018153369
-0.0026748194
-0.0010171899
5.8518065E-4
0.0014799219
0.0025670337
0.0026441454
0.0021112573
0.0029807398
0.0010731104
3.9548095E-4
-0.0010668896
-2.2688965E-4
2.8311036E-4
-0.0023240014
-8.8637206E-4
-9.0874266E-4
-0.0012234839
-0.0013682251
-0.0031777075
-0.004581931
-0.004003784
-0.0016485254
-2.3852539E-4
-1.0852539E-4
0.0017762159
0.0047904393
0.0034522924
0.0034041456
0.0061431103
0.004637334
0.003419187
0.0046234108
8.057812E-4
-2.1421874E-4
0.0013905225
-9.947754E-5
-8.7184814E-4
-8.3421875E-4
-0.0022213305
-0.003100813
-8.731836E-4
-0.0019902955
-0.0016850366
-4.7740721E-4
-2.3740722E-4
0.0022397046
0.0024568164
0.001089187
0.0015539282
0.0020310401
9.104004E-5
-0.0014737012
-8.5607177E-4
-0.001590813
-0.0013555542
-0.0026450367
-0.0040068896
-0.0035587426
-0.004130596
-0.0022777074
-3.0770752E-4
2.2924805E-6
-9.770752E-5
0.0021894043
0.0016841455
4.965161E-4
0.0050931103
0.0057920753
0.00631104
0.0031105224
0.0022976343
-1.2236572E-4
1.7763428E-4
0.0012823755
-0.0010299952
-0.0013547363
-0.0021018481
-0.0027113305
-0.0023184423
-0.0026579248
-0.0019450366
-8.2740723E-4
-0.0011097778
3.5022217E-4
0.002617334
0.0010697045
7.5207517E-4
4.144458E-4
-0.0010679248
0.002309187
0.0027486694
0.0030581518
7.9052243E-4
-0.0013742187
-5.5658934E-4
-0.0018937011
-0.0016184424
-2.4844237E-4
-0.0023355542
-0.0032650367
-0.0018921484
-5.64519E-4
-1.5451905E-4
0.0014702221
0.002087334
0.0030068164
0.00490104
0.0046752635
0.0038971168
0.003306599
0.0016413403
0.0015060815
1.6608155E-4
-8.362891E-4
-9.628906E-5
7.2608155E-4
-0.0017486596
-0.002718142
-0.0045323656
-0.0031418481
-0.00200896
-0.0016537012
-0.002030813
9.1870115E-6
5.715576E-4
0.0027010401
0.0040528933
0.0036947462
0.002411858
0.003413711
-0.0044105127
-0.019312149
0.0018949633
8.0733397E-4
8.5970457E-4
-0.0018750366
-0.0020721485
-7.24519E-4
0.0010078516
0.0013025928
-0.0012921485
3.8022216E-4
7.0222166E-5
0.0016249634
0.0038568163
0.004943411
0.0026628932
0.0049094874
0.005848452
0.0034603053
0.0016550464
0.0034768994
0.0013616406
-0.0015431006
-0.0011578418
-7.702124E-4
-0.0015049536
-0.0019820654
-0.0020291773
-0.002006289
-0.0015910303
-7.434009E-4
3.5659914E-4
0.0017913403
0.0025484522
0.0040103053
0.004274529
0.0026440113
0.0030734937
0.0040453468
0.0036771996
0.0015319409
8.3431153E-4
-6.568847E-5
-0.001118059
-4.104297E-4
-9.728003E-4
-6.651709E-4
-0.0015999121
-0.0029493945
-0.0023165063
-0.002343618
-1.5361817E-4
-3.4361816E-4
-9.5598877E-4
0.004418235
0.0039900877
0.0055766823
0.005293276
0.002642759
0.0011575
0.0025046119
0.0023617237
0.0010440942
-4.4827638E-4
-0.0023453883
-0.0023425
-0.0034443531
-0.003926206
-0.003558059
-0.002085171
-0.0020722826
9.800879E-4
0.0011024585
0.0020995704
0.0032890528
0.0038509057
0.0049475
0.0051840944
0.0038259472
0.002403059
0.002060171
5.01709E-5
-0.0010821997
-0.0026516821
-0.0046759057
-0.021664653
-0.013727324
0.001287417
4.797876E-4
-8.62583E-4
-5.249536E-4
9.77417E-4
0.0024845288
0.005341123
0.0052577173
0.0064590527
0.00808513
0.0053517236
0.005168318
0.0031878003
0.002584912
0.002042024
0.0017067651
-8.056055E-4
-0.0021627173
-0.0027921996
-0.002741682
-0.0035435352
-0.002480647
-0.0018877588
-0.0013525
-5.648706E-4
-5.472412E-4
6.251294E-4
0.0021622411
0.004044094
0.004808318
0.0030478004
0.0029572828
0.0019743945
0.0014491357
0.0014038769
0.0014186181
-4.3375243E-4
-0.0020608644
-0.002417976
-0.0029774585
-1.7458497E-5
-5.398291E-4
-0.0017645704
-0.0026540528
-7.405273E-5
-6.4052736E-5
7.0831785E-4
0.0034101708
0.0041743945
0.0037662475
0.0036881005
0.0046723243
0.003994177
0.0010665478
8.0891844E-4
-0.0016658227
-0.0022729347
-9.353052E-4
-0.0017400464
-0.0013847876
-0.00274427
-9.866406E-4
-0.0026561231
-0.0013908643
-8.2323485E-4
-9.356055E-4
0.0015591357
0.0023062476
0.004128101
0.0038199537
0.003069436
0.0028389185
0.0021260302
0.0021631422
0.0013278833
3.478833E-4
-8.844873E-4
-0.0010868579
-0.0013015991
-5.639697E-4
-0.001578711
-0.0020658227
-0.0043200464
-0.003319529
-0.00119427
-4.427002E-5
5.881006E-4
0.002977583
0.002004695
0.001239436
0.0026465477
0.003458401
0.0025355127
-7.868579E-4
-0.0020439697
-4.0634032E-4
8.1603025E-4
2.8603026E-4
-0.001348711
-0.0029081933
-0.0029576758
-0.0042318995
-0.004316123
-0.0026132348
0.0015615063
0.0016762476
0.00292573
0.003777583
0.0047418065
0.0048460304
0.004600254
0.0056068483
0.005895813
0.0045600366
5.824072E-4
-3.1759278E-4
2.2407226E-5
-0.001732334
-5.647046E-4
-0.0024018164
-0.0038436695
-0.0033331518
-0.0023802638
-0.005026858
-0.0048910817
-0.004395305
-0.002222417
0.0019046948
0.0032641774
0.0041560302
0.0057649952
0.0050315894
0.0035134424
0.0011781836
1.481836E-4
9.005542E-4
4.529248E-4
-0.0011294459
-7.318164E-4
-0.0023589283
-0.0049131517
-0.0019902636
-8.5263426E-4
-0.0010550049
0.0015197364
7.2210695E-4
0.0018568481
0.0033563306
0.0044305543
0.0027200365
0.0063390015
0.005085596
0.0023827075
0.0016274487
4.4981934E-4
2.9981934E-4
-8.8255125E-4
-0.0011672925
-0.0011720337
-0.018288929
-0.01474634
5.460303E-4
9.0840086E-4
0.0014431421
0.0010955126
0.0013202539
0.0022773657
0.0041715894
0.0049481834
0.005664778
0.006796113
0.006577449
0.005054043
0.0030035253
0.0028830077
9.853784E-4
-0.0019817334
-0.006503069
-0.0017978101
-6.6018064E-4
2.7981933E-4
-0.0016849219
-0.0032244043
-0.0030038867
1.1611328E-4
1.9611328E-4
3.461133E-4
0.004057966
0.00474219
0.0044064135
0.006417749
0.0051043434
0.0043385667
0.0026480493
0.0023351612
7.2753173E-4
-0.0010948388
1.6516114E-4
-1.4483886E-4
-0.00148958
-7.119507E-4
-0.0014866919
-8.890625E-4
-6.914331E-4
-3.0143312E-4
4.009375E-4
-7.014331E-4
0.0022356787
0.0021027906
0.0040446436
0.0039564967
0.002665979
0.0019230908
9.654614E-4
5.1783206E-4
-0.0017969091
-0.001954021
-0.0013387622
-0.0011435035
-0.001055874
-0.0018206153
-0.0027400977
-0.0035319508
-0.0012566919
1.433081E-4
-4.290625E-4
5.133081E-4
0.0016980494
0.0033999023
0.0052864966
0.007087832
0.005706797
0.00401865
0.0017933911
0.002480503
0.0014152442
-5.475586E-5
-0.0043189796
-0.002668462
-0.0021755737
-9.579443E-4
-5.003149E-4
-0.003492168
-0.0033816504
-7.64021E-4
-0.0012287622
-0.0015335034
0.0011812377
0.0033007201
0.0037225732
-9.742676E-5
-0.01734195
-0.010122769
0.0023743433
6.6671387E-4
0.0034985668
0.004925161
0.0035070141
4.7938476E-4
-6.7298586E-4
-5.3535646E-4
5.170142E-4
-8.053564E-4
-3.0535646E-4
6.170142E-4
0.0029764965
0.003225979
0.0042002024
0.005426797
0.0054233912
0.005019985
0.00582895
0.0052955444
0.0025726561
0.0016973974
7.8976806E-4
-2.1023193E-4
-0.0014249731
-0.0030944555
-0.0036063085
-0.0038381617
-0.002967644
-0.003689497
-2.2949708E-4
5.2287354E-4
1.7287354E-4
8.6524413E-4
0.001952356
0.003484209
0.002211321
0.001166062
0.0029255445
0.0036373974
0.0024045093
0.002211621
6.439917E-4
-0.0015607495
-0.0017254907
-0.0010478613
-0.002544973
-0.002452085
-0.0020291968
-0.0023263085
-0.0023634203
-8.2579104E-4
-0.002322903
-1.02902835E-4
0.0029465796
0.0046108034
0.004245027
0.0031345093
0.0021016211
0.0037534742
0.002230586
0.0026800684
9.824389E-4
-1.3756103E-4
-0.0021546728
-0.0031541553
-0.0013288965
-0.0018236378
-0.0025007494
-0.0024978614
-0.0037897143
-0.0012144556
5.27915E-4
0.0013826563
0.0027521388
0.0032416212
0.0038634741
0.006362439
0.003514292
0.0045785154
0.0051951096
0.0026545923
2.5459228E-4
-0.0010077783
-6.1014894E-4
-0.0016548901
-0.0032743725
-0.003393855
-0.0029433374
-0.0018780786
-0.0015528199
-8.351904E-4
-0.0029046729
-0.009605491
-0.021331867
0.0017228735
0.0076865796
0.008252656
0.0077363625
0.005745327
0.004189551
0.0035914038
-1.885962E-4
-1.385962E-4
5.837744E-4
-0.0019433374
-0.0021504492
-0.002587561
-0.0018023022
-0.0024094142
-0.0021465258
-6.788965E-4
2.511035E-4
0.0014058447
0.003145327
0.0027748095
0.0047690333
0.0050656274
0.0055522216
0.005458816
0.003870669
0.0029601513
0.0013448925
0.0014496337
-5.0366212E-5
-0.0015751075
-0.0033645898
-0.0042588133
-0.0037906666
-0.0017354077
-0.0036272607
-0.002706743
-8.2911376E-4
9.5325685E-4
0.0047774804
0.005244075
0.0059630396
0.0057320045
0.004256228
0.0030057104
0.004349934
0.0027094164
6.1178714E-4
-0.0015229541
-2.229541E-4
-2.929541E-4
-0.0014176953
-0.0030071777
-0.0025242895
-0.002823772
-0.0015785132
-0.0013132544
-0.0013479956
9.24375E-4