-0.0015610456
6.878376E-4
4.5871735E-4
-0.0027120113
-0.001511097
-1.5616417E-4
-0.0014208555
-7.222891E-4
9.716749E-4
0.0013713837
1.4257431E-4
-9.860992E-4
8.2051754E-4
6.184578E-4
-0.002417922
1.411438E-4
0.0035464764
0.0014539957
4.607439E-4
0.001014471
7.607937E-4
1.21712685E-4
-0.0016787052
-0.0011043549
-2.6988983E-4
-0.0015691519
1.21712685E-4
0.0014892817
1.6522408E-4
4.388094E-4
0.0015273094
0.0013053417
1.5199184E-4
0.0013090372
0.0015200377
-0.0023423433
-0.0011569262
0.0019798279
-5.135536E-4
-9.96232E-4
8.1539154E-5
-0.0010687113
-9.441376E-4
-0.0013270378
-0.002141118
-9.788275E-4
-5.1009655E-4
-3.837347E-4
0.0014737844
0.0015524626
-1.3709068E-4
-4.0888786E-5
-0.0016564131
-0.0034148693
-0.0011149645
-3.5488605E-4
1.7368793E-4
0.0024653673
6.90341E-4
-0.0015983582
-7.8487396E-4
3.7407875E-4
0.0013769865
0.0017238855
0.0017384291
0.0018903017
0.002573371
0.002572894
5.3727627E-4
1.7011166E-4
2.1290779E-4
-0.0012636185
-5.633831E-4
1.7249584E-4
-2.7668476E-4
-3.5643578E-4
-8.509159E-4
-2.681017E-4
-1.2981892E-4
-0.0012198687
-3.3926964E-4
9.6952915E-4
3.8266182E-4
-6.4861774E-4
2.5629997E-5
0.0018341541
0.0020079613
-5.065203E-4
-0.0035345554
-0.0045130253
-0.0053747892
-0.0057287216
-0.0022714138
0.0018533468
0.0037499666
0.0031894445
0.0025242567
0.004597187
0.003539443
-3.1673908E-4
-0.001018405
-0.0017411709
-0.0022047758
-0.0011264086
-0.0012494326
-0.0021166801
-0.0018004179
0.0014830828
0.0026849508
7.148981E-4
0.0020605326
0.0024451017
0.0013488531
0.0021870136
8.9788437E-4
6.096363E-4
9.3626976E-4
-0.0011714697
-5.3942204E-4
4.1425228E-4
-8.9752674E-4
-0.0012669563
-0.0019130707
-0.0027241707
-0.0011652708
0.001514554
0.0013751984
5.232096E-4
0.0021525621
0.0022999048
0.0016131401
-6.198883E-6
-0.00410223
-0.0037286282
-0.001516819
-0.0018663406
-7.4493885E-4
-0.0017808676
-0.0022987127
0.0016874075
0.0014537573
-0.0016021729
-0.001650095
-1.8072128E-4
0.001932025
0.0016000271
6.2453747E-4
9.769201E-4
-0.0014042854
-0.0015785694
0.0016319752
7.2312355E-4
-1.5461445E-4
0.0021903515
0.001675725
-2.2292137E-4
9.865761E-4
0.0019669533
8.2695484E-4
0.0010126829
0.0012937784
5.9723854E-5
-3.3020973E-4
-0.0012592077
-0.0016744137
0.0011410713
0.0024546385
2.887249E-4
-0.001083374
-6.41346E-5
6.9129467E-4
-8.261204E-4
-0.0022550821
-0.0023190975
-0.0019043684
-0.0013084412
-0.0016577244
-0.0017521381
-0.001016736
-5.942583E-4
5.9199333E-4
3.5822392E-4
-0.0011866093
7.2801113E-4
0.0024741888
4.1639805E-4
-7.222891E-4
5.1283836E-4
0.0016227961
0.0012681484
3.209114E-4
6.8068504E-4
7.196665E-4
4.2760372E-4
0.0031598806
0.0049835443
0.0018026829
-4.6479702E-4
-1.7392635E-4
-0.0012732744
-0.0013209581
-4.7636032E-4
-0.0023282766
-0.003982663
-0.0037318468
-0.0026165247
3.8290024E-4
0.0023151636
0.0012663603
0.0010944605
8.842945E-4
-0.0018075705
-0.0027503967
-0.0015515089
-0.002324462
-0.0014218092
0.0025280714
0.0027850866
0.0010682344
0.0022156239
0.0038905144
0.0041718483
0.0013574362
-0.0017062426
-5.156994E-4
8.4388256E-4
0.0013847351
4.2700768E-4
-0.0036321878
-0.0036594868
-0.002419591
-0.00355649
-4.1806698E-4
0.0012305975
-6.6399574E-4
2.939701E-4
5.9223175E-4
-1.0371208E-4
-8.378029E-4
-7.03454E-4
0.0019744635
0.001488328
8.138418E-4
0.0022678375
1.4781952E-4
-8.8095665E-4
2.901554E-4
8.238554E-4
0.0014485121
-4.9829483E-4
-5.9986115E-4
0.002475977
0.001835227
-3.5512447E-4
-1.2218952E-4
6.715059E-4
-9.075403E-4
-0.0030692816
-0.0036822557
-0.004679203
-0.0029557943
-9.9778175E-5
-4.9972534E-4
-2.8073788E-4
-1.20043755E-4
4.8673153E-4
0.0020797253
5.9485435E-4
-3.2901764E-5
6.239414E-4
9.3102455E-4
0.0016582012
-6.824732E-4
-9.860992E-4
0.0017200708
0.0011191368
0.0010607243
0.001914978
0.0021613836
0.0028380156
0.001496911
4.940033E-4
3.144741E-4
-8.1050396E-4
-3.0386448E-4
2.2625923E-4
-0.001080513
-8.020401E-4
0.0012756586
7.522106E-4
-8.125305E-4
-7.915497E-5
-3.6120415E-4
-0.0018086433
-0.002257824
-9.787083E-4
0.0011217594
-5.6004524E-4
-0.0021835566
-7.709265E-4
-0.0019755363
-0.0028470755
-6.8974495E-4
8.046627E-5
-0.0016435385
-0.0019733906
6.7806244E-4
-9.1671944E-5
-0.0020519495
0.0010564327
0.0034384727
0.0037829876
0.0030862093
7.605553E-5
-2.1672249E-4
0.0017222166
0.0019140244
0.0015081167
9.878874E-4
1.5485287E-4
-4.3559074E-4
-2.4080276E-4
4.3022633E-4
6.942749E-4
3.1089783E-4
8.261204E-5
5.6004524E-4
4.9710274E-4
7.095337E-4
9.499788E-4
-8.6057186E-4
-0.0019959211
-0.0016685724
-0.0020606518
-0.0023021698
-0.0017998219
-0.001962781
-0.0028609037
-8.326769E-4
0.0024900436
0.0029981136
0.0032801628
9.42111E-4
-0.0024358034
1.6868114E-4
9.109974E-4
-0.0029765368
-0.0029340982
-2.1541119E-4
0.0018724203
0.0030405521
0.0027213097
0.0020446777
2.7441978E-4
-0.0024533272
-0.002022028
0.0015407801
0.0021106005
-0.0010180473
-0.0028493404
-0.0027524233
-0.002071023
-0.0014871359
-0.0016380548
-6.453991E-4
7.072687E-4
-4.9066544E-4
-0.0010448694
0.0016679764
0.0033717155
0.0027008057
0.0023012161
0.0017735958
5.1760674E-4
-5.7578087E-4
1.0693073E-4
0.002214551
0.0026574135
0.0028352737
0.0032391548
8.5425377E-4
-1.1527538E-4
0.0020502806
6.3967705E-4
-0.0020968914
-0.0013890266
-0.0030331612
-0.0055377483
-0.003553629
-0.0023981333
-0.0018728971
-7.4374676E-4
-0.0018355846
-0.001842618
-0.0024766922
-0.0017217398
0.0026037693
4.684925E-5
-0.003474474
-2.9921532E-4
0.0013059378
0.0027323961
0.0042284727
0.003103137
0.0018470287
-7.406473E-4
-2.0051003E-4
0.0035068989
0.002497673
-2.3460388E-4
-6.5529346E-4
-1.7130375E-4
3.0076504E-4
-4.0829182E-4
-0.001671195
-0.0012538433
7.030964E-4
0.0017184019
0.0020126104
2.1529198E-4
-0.0042089224
-0.0042937994
-0.0020589828
-0.002381444
-2.4068356E-4
0.0014640093
-5.2559376E-4
-2.4914742E-4
0.0020561218
0.0021964312
4.6873093E-4
4.5347214E-4
0.0023177862
0.0018911362
7.278919E-4
0.0016198158
0.0017328262
9.2220306E-4
4.618168E-4
-0.0013782978
-0.0025382042
-0.001183629
-0.0011575222
-0.0017983913
-8.82864E-4
-9.099245E-4
-6.953478E-4
6.6435337E-4
9.820461E-4
-1.5950203E-4
-0.0033825636
-0.0044720173
-7.8701973E-4
1.9848347E-4
-0.0021073818
-0.0013132095
8.7594986E-4
9.980202E-4
0.0010572672
0.0032662153
0.0051960945
0.00458014
0.003938079
0.00342381
0.0016880035
8.083582E-4
-5.7399273E-4
-0.0026499033
-0.0011572838
7.944107E-4
-9.9778175E-5
-5.4848194E-4
-5.184412E-4
-2.6655197E-4
-5.328655E-4
-0.003162384
-0.0038189888
-0.0028728247
-0.003492713
-0.0012686253
8.672476E-4
-0.0013661385
-0.0018651485
-9.2840195E-4
-0.0021401644
-0.0013995171
0.0014024973
0.0020564795
0.0021687746
0.0031744242
0.0026006699
0.0025994778
0.004388094
0.003730297
0.0023893118
0.0027768612
0.0012300014
-0.0012408495
-0.0013407469
-4.0721893E-4
-1.1265278E-4
-5.617142E-4
-0.0010682344
-0.0013295412
-0.0013253689
-6.906986E-4
-5.223751E-4
-0.0016108751
-0.0025763512
-0.0028936863
-0.0031036139
-0.0027825832
-0.0016304255
-1.8966198E-4
-5.6266785E-5
-0.0014628172
-0.0011489391
5.2571297E-4
9.772778E-4
0.0014497042
7.162094E-4
-0.0010533333
-7.829666E-4
-4.1127205E-5
3.809929E-4
3.5715103E-4
0.0010899305
0.004301548
0.0048639774
0.0027595758
0.0020109415
0.0015785694
0.0019433498
0.001790762
9.7334385E-4
4.401207E-4
-0.0010079145
2.8336048E-4
0.001137495
-0.0019738674
-0.0019397736
-8.4888935E-4
-0.0016386509
2.193451E-5
6.957054E-4
-0.0011080503
-0.0018552542
-0.003911495
-0.0061229467
-0.0031030178
-1.654625E-4
-0.0014766455
-0.0010049343
-3.7789345E-4
-0.0016722679
-7.368326E-4
0.0015608072
0.0047647953
0.0046516657
1.1110306E-4
7.585287E-4
0.0031529665
0.001554966
0.0013561249
0.002175331
0.0021409988
0.0012712479
-2.3913383E-4
-0.0017153025
-0.0045422316
-0.0048776865
-0.0016001463
-4.5096874E-4
-6.9737434E-4
4.2533875E-4
0.0013645887
5.776882E-4
-4.428625E-4
4.9221516E-4
0.0026352406
0.0038586855
0.0012345314
-0.0030884743
-0.0034155846
-0.0017257929
-9.146929E-4
6.3049793E-4
0.002257347
6.0653687E-4
-0.0031985044
-0.0033415556
-0.0016236305
-0.0013591051
4.6396255E-4
0.001360178
8.443594E-4
0.0025441647
0.0030409098
0.0019029379
0.0014522076
6.477833E-4
7.534027E-5
-2.5129318E-4
4.1651726E-4
0.002845645
0.0041900873
0.0029375553
9.303093E-4
0.0015375614
0.0037471056
0.0026336908
-6.432533E-4
-0.0022953749
-0.0031098127
-0.004161477
-0.004057169
-0.0031408072
-0.004594326
-0.008242607
-0.009988427
-0.008665562
-0.005795598
-0.0016765594
0.0017828941
0.00282979
0.0045853853
0.0069155693
0.0076913834
0.0084319115
0.0057085752
8.69751E-4
0.0011245012
0.0016709566
1.9729137E-4
0.0013691187
0.0020028353
5.7041645E-4
1.5091896E-4
8.211136E-4
3.322363E-4
-0.0013659
-0.0013477802
-0.0015894175
-0.0028463602
-4.7898293E-4
0.0023608208
5.828142E-4
-0.0026592016
-0.0037437677
-0.0028926134
-0.001339674
-9.5415115E-4
-0.0022127628
-0.0017114878
-5.9604645E-7
3.5905838E-4
0.001876831
0.0025527477
0.0013048649
0.0018128157
0.0015871525
2.4139881E-4
-3.682375E-4
-6.9475174E-4
4.7791004E-4
-1.3685226E-4
-0.0027413368
-0.0025428534
-0.0018028021
-0.0019803047
-5.1665306E-4
0.0019421577
0.0029809475
0.0022528172
0.0014981031
0.0010457039
9.676218E-4
0.0020483732
0.0037311316
0.0033874512
-5.108118E-4
-0.003347516
-0.003584385
-0.004088521
-0.0023430586
-6.496906E-5
-0.0012687445
-0.0021989346
-0.0011675358
4.826784E-4
0.0022137165
0.0026872158
0.0031104088
0.0040653944
0.002999425
-4.6491623E-6
-0.00195539
-0.0017650127
-2.5689602E-4
9.7441673E-4
-0.0011888742
-0.0048857927
-0.0043736696
-0.0029329062
-0.0042569637
-0.0031728745
6.8223476E-4
0.0027434826
0.00190413
-4.3535233E-4
-0.0012032986
-7.6651573E-4
4.4369698E-4
0.004927516
0.007423997
0.003721714
-5.618334E-4
-0.0019389391
-0.0010213852
6.084442E-4
0.0017840862
0.0031273365
0.0054368973
0.0073361397
0.0046430826
4.389286E-4
-4.8935413E-4
-0.0029851198
-0.0053436756
-0.0039049387
-0.00440979
-0.0057524443
-0.0044966936
-0.0035409927
-0.0027967691
-0.0014952421
-0.0015575886
-0.002305746
-0.0017170906
-0.0022722483
-0.0034432411
-4.0459633E-4
0.0024119616
0.0019913912
0.0031466484
0.004747987
0.005471945
0.005687237
0.0036386251
0.001745224
0.0016778708
0.0014050007
-2.0694733E-4
-0.0018537045
-0.001408577
-7.324219E-4
-0.001429081
-0.0012295246
7.456541E-4
0.0026842356
0.002477765
0.0012966394
7.2169304E-4
-4.975796E-4
-0.0017557144
-0.0022329092
-0.0027365685
-0.0036574602
-0.0044909716
-0.0033761263
-0.0024974346
-0.0038820505
-0.0034880638
-4.7457218E-4
0.00430274
0.007995129
0.0048897266
6.9761276E-4
5.776882E-4
-5.5933E-4
-9.4783306E-4
7.940531E-4
2.5355816E-4
-8.4269047E-4
7.047653E-4
0.0035607815
0.0032651424
6.1154366E-5
5.031824E-4
0.002273798
4.9829483E-5
-0.0013576746
-2.1648407E-4
-0.0012180805
-0.0031861067
-0.003037095
-0.0028083324
-0.0019680262
0.0010505915
0.0021939278
0.0015794039
0.001008153
-0.0011394024
-0.0014380217
-8.7344646E-4
-0.0033351183
-0.0053987503
-0.0066666603
-0.0042915344
0.0034624338
0.007180929
0.006756544
0.0061861277
0.0026119947
2.026558E-5
9.1922283E-4
0.002225995
0.0019388199
7.772446E-5
4.1019917E-4
3.2675266E-4
-9.3472004E-4
0.001657486
0.0016999245
-0.0021579266
-0.0033892393
-0.003793478
-0.0038814545
-0.004556775
-0.0052503347
-0.002409935
8.380413E-5
0.0019036531
0.0031565428
-2.0706654E-4
-0.0034476519
-0.0037164688
-0.003177762
-3.3640862E-4
0.0029730797
0.0029768944
0.0015069246
0.0019015074
0.0028750896
0.004281044
0.006709099
0.006136775
0.0042601824
0.0044054985
0.0035459995
0.0024147034
0.0018054247
-7.483959E-4
-0.0035524368
-0.0041025877
-0.0028414726
-0.0021568537
-0.0040438175
-0.0053243637
-0.0039588213
-0.005675435
-0.007461071
-0.002003193
8.9120865E-4
-0.0019021034
-0.0018339157
-0.0019050837
-8.9740753E-4
0.0038005114
0.0051938295
0.003988385
0.0026164055
7.4994564E-4
0.0015895367
0.0044662952
0.00536716
0.0039241314
0.0033692122
0.003133297
0.0015500784
7.6556206E-4
-7.480383E-4
-0.0020543337
-9.3102455E-5
2.1970272E-4
-0.0032194853
-0.006396055
-0.007370949
-0.00588727
-0.0018203259
0.001198411
-0.0011808872
-0.0037429333
-0.0033988953
-0.0048480034
-0.004869461
4.3797493E-4
0.0063437223
0.0077215433
0.006997347
0.009267926
0.010708332
0.011136055
0.013489008
0.010848999
0.004655838
9.5152855E-4
-0.0029970407
-0.0066286325
-0.009685278
-0.014631033
-0.01751399
-0.015277743
-0.012504339
-0.010628104
-0.006616473
-0.0028648376
-9.095669E-5
0.0064173937
0.01563096
0.021337152
0.023539186
0.025631309
0.024247289
0.018822074
0.014618635
0.011322379
0.0062543154
-4.0245056E-4
-0.0085378885
-0.018660307
-0.028758526
-0.032214046
-0.02557838
-0.015949488
-0.012678742
-0.0140401125
-0.012801647
-0.007746339
-0.0012675524
-9.9658966E-5
-0.008524299
-0.020340443
-0.02990973
-0.031539083
-0.021622896
-0.008789659
-8.940697E-6
0.007560849
0.012862444
0.01287663
0.023551583
0.052030325
0.07591534
0.08346665
0.070034504
0.044363976
0.008286834
-0.06458604
-0.11821103
-0.10075891
-0.081077576
-0.07898474
-0.0636611
-0.03737974
0.010736227
0.072363615
0.1170181
0.12321901
0.116241336
0.14245176
0.16439891
0.15436125
0.11004627
-0.0020834208
-0.09010756
-0.063307166
-0.01355505
-0.026681185
-0.10508597
-0.18101788
-0.17370379
-0.14025748
-0.11315465
-0.0154675245
0.09292781
0.0891217
-0.026294231
-0.17336404
-0.23399842
-0.20623505
-0.16582143
-0.06864166
0.030272603
0.025916934
0.026747942
0.08283782
0.16182089
0.2668531
0.2845341
0.22887361
0.22502196
0.16405976
0.011602879
-0.06085539
-0.020235062
0.07403529
0.15644538
0.12934566
0.024680614
-0.04392588
-0.06729329
-0.10877168
-0.19917572
-0.28082287
-0.29915524
-0.27876556
-0.21636033
-0.10350025
0.010259032
0.10621488
0.20127535
0.27462757
0.25033033
0.112775564
-0.02398169
-0.103325605
-0.17848778
-0.23582661
-0.20042992
-0.07540524
0.08132088
0.2117877
0.2027421
0.079221606
0.058514237
0.10426688
0.08003116
0.10454273
0.13862503
0.050269604
-0.038986325
-0.09889388
-0.17188048
-0.17930043
-0.14586222
-0.121813774
-0.089745164
-0.024498224
0.094751954
0.15553749
0.10978615
0.06960583
0.033584595
1.4042854E-4
4.7516823E-4
0.0047465563
0.012964249
-0.04130113
-0.12753725
-0.103313684
-0.04014349
-0.0026931763
0.0021458864
-0.078781724
-0.117152214
-0.021199942
0.115710616
0.19637275
0.15545797
0.06931281
0.040723324
0.045546293
0.043189883
5.5229664E-4
-0.047948837
-0.05211079
-0.050478697
-0.045241952
-0.02094698
-0.0015505552
0.0077701807
0.005934119
0.0039019585
0.008708596
0.008477688
0.0064365864
0.001770258
-0.007590413
-0.016604304
-0.024938583
-0.031575203
-0.03612435
-0.036205053
-0.033460975
-0.029589653
-0.021419406
-0.011151552
-6.1428547E-4
0.008046746
0.015042663
0.020924807
0.022899747
0.024399877
0.02425623
0.020378709
0.01631391
0.010509014
0.002878666
-0.0027952194
-0.0035583973
-0.00385952
-0.0073937178
-0.0062049627
-0.0031479597
-0.0029782057
-7.665157E-5
0.0020860434
0.0035277605
0.0077393055
0.009415507
0.009091258
0.009367704
0.009171605
0.007532716
0.0037447214
0.0011664629
4.9352646E-5
-0.002936244
-0.0063529015
-0.0074415207
-0.0051442385
-0.00364995
-0.004938841
-0.005360484
-0.005769253
-0.0044573545
-6.393194E-4
9.702444E-4
0.0016150475
-5.530119E-4
-0.004753351
-0.0029497147
8.4125996E-4
0.0027350187
0.0039680004
0.0021300316
0.0011848211
0.002492547
0.0018879175
2.1767616E-4
-0.0021373034
-0.0048372746
-0.006610632
-0.008314848
-0.009280443
-0.007766366
-0.006596923
-0.008292317
-0.0061757565
1.02996826E-4
9.229183E-4
-0.0017882586
-0.0028765202
-0.0023509264
9.6297264E-4
0.0021013021
-4.3118E-4
6.0367584E-4
0.0035119057
0.004606366
0.007809758
0.011914015
0.014392614
0.01851952
0.021766305
0.018624902
0.015215635
0.022634625
0.03127861
0.01715827
-0.011303425
-0.027581692
-0.03361714
-0.032531857
-0.020597339
-0.010466933
-0.006274581
-0.003703475
-0.0056939125
-0.008045554
-0.0060317516
-0.0039948225
-0.004219055
-0.004048586
-0.004809141
-0.006711364
-0.003841877
-4.8279762E-4
-3.2413006E-4
0.003606677
0.00773263
0.009454846
0.012127519
0.010834575
0.007300377
0.0073281527
0.0087195635
0.00824964
0.0057246685
0.0040813684
0.0027173758
1.3589859E-4
-0.0021088123
-0.0048052073
-0.00577724
-0.004595518
-0.0047385693
-0.00428164
-0.0023304224
-4.0900707E-4
7.9631805E-5
-7.7211857E-4
5.7578087E-5
4.8971176E-4
-4.6777725E-4
-5.220175E-4
-7.3730946E-4
6.890297E-5
3.7550926E-4
-0.0013518333
-7.892847E-4
1.5306473E-4
-0.0020709038
-0.004140377
-0.002465129
1.7261505E-4
-8.442402E-4
-0.0015619993
5.481243E-4
0.0019454956
0.0028711557
0.0028021336
0.0016069412
9.329319E-4
8.904934E-4
0.0030162334
0.004211664
0.0012340546
-0.0015310049
-0.001090169
8.249283E-5
-8.736849E-4
-7.225275E-4
8.785725E-5
-0.0028373003
-0.0027451515
-4.6765804E-4
-0.0018348694
-5.3215027E-4
-4.3475628E-4
-0.002995491
-6.08325E-4
3.0875206E-4
-3.515482E-4
6.351471E-4
-0.0018510818
-0.0023554564
0.0012110472
0.0030449629
0.0021121502
2.259016E-4
8.991957E-4
8.499622E-5
-0.0016559362
9.6189976E-4
2.7358532E-4
-6.890297E-5
0.0043388605
0.0027842522
9.955168E-4
0.0032902956
0.0012325048
-0.0012249947
-2.683401E-4
8.5151196E-4
4.7278404E-4
-0.0010210276
-0.0016644001
-0.0015363693
-1.4090538E-4
0.0018020868
0.0014178753
-3.517866E-4
-0.0016789436
-0.0024706125
-0.00337708
-0.002763629
-7.249117E-4
-5.069971E-4
1.0621548E-4
1.3422966E-4
-0.002328515
-0.0017853975
2.6762486E-4
5.096197E-4
5.3310394E-4
1.6391277E-4
3.1602383E-4
4.787445E-4
-6.198883E-6
3.9863586E-4
0.0023579597
0.004100442
0.0024490356
9.1671944E-4
0.0013107061
4.4190884E-4
2.8133392E-4
8.72612E-5
-2.2816658E-4
1.6713142E-4
-9.446144E-4
1.01685524E-4
7.522106E-4
-0.0021768808
-0.002899766
-0.0021870136
-0.0010997057
-1.8131733E-4
-3.310442E-4
0.0012214184
8.071661E-4
-0.0012202263
-0.0010623932
-6.108284E-4
1.5616417E-5
-5.532503E-4
-9.828806E-4
-3.143549E-4
-3.222227E-4
0.0013412237
0.001080513
-6.918907E-4
1.1730194E-4
-4.490614E-4
6.0784817E-4
0.0025873184
4.916191E-4
-3.1673908E-4
5.632639E-4
5.773306E-4
-2.2900105E-4
-0.0012248755
-1.1396408E-4
-1.4972687E-4
-0.0010591745
1.1277199E-4
0.0014592409
0.0035492182
0.0027087927
-0.0011019707
3.566742E-4
0.0021083355
-0.0014058352
-0.0021717548
8.337498E-4
0.0013394356
-8.678436E-4
-0.004078388
-0.004642129
5.3048134E-5
0.0021795034
-0.0015337467
-0.002907753
-2.1076202E-4
0.0017695427
0.0010188818
3.1280518E-4
0.0016036034
6.890297E-4
-0.001621604
-8.6808205E-4
3.026724E-4
-5.527735E-4
-0.0012253523
2.8550625E-4
0.0018358231
0.0013587475
9.536743E-4
0.0012331009
0.001496911
9.5927715E-4
-5.4883957E-4
-8.57234E-4
-3.1900406E-4
-4.5466423E-4
-0.001994133
-0.0030019283
-6.275177E-4
8.714199E-4
3.1590462E-4
8.468628E-4
5.353689E-4
-2.7513504E-4
-6.6936016E-4
-2.1147728E-4
0.0011829138
4.7135353E-4
6.5612793E-4
0.0016486645
-1.5938282E-4
2.5475025E-4
0.0017108917
5.159378E-4
-1.8298626E-4
-1.6069412E-4
0.0011702776
0.0024536848
0.0012549162
5.6505203E-5
-0.0015567541
-0.0030308962
-0.0027139187
-0.003243208
-0.0026150942
0.0010130405
0.0027647018
0.0011800528
-5.207062E-4
-0.0011479855
-0.0020854473
-0.003047943
-0.0014855862
2.8038025E-4
-0.0014233589
-0.0016745329
0.0010521412
0.0013799667
0.001715064
0.0026140213
6.2072277E-4
8.559227E-5
0.0015300512
0.0013716221
-6.6399574E-5
-0.0015949011
8.738041E-5
0.002364874
0.0013782978
0.0022530556
0.003664732
0.0015450716
-3.0040741E-5
-3.914833E-4
-7.326603E-4
-9.380579E-4
-0.0018924475
-9.85384E-4
0.0010937452
1.4555454E-4
-0.0011678934
-0.0010170937
-0.0015510321
-9.7203255E-4
6.997585E-5
-0.001380086
-0.002806306
-0.0023335218
-2.001524E-4
0.0021291971
0.0014004707
3.707409E-5
3.798008E-4
-1.4722347E-4
-0.0012071133
-0.0022804737
-0.002665639
-2.0635128E-4
0.0028370619
0.003090024
0.0010519028
5.3441525E-4
0.0015769005
5.0902367E-4
4.6610832E-4
0.0020376444
4.4572353E-4
-1.0538101E-4
0.0019173622
8.690357E-4
-6.2024593E-4
-2.490282E-4
-6.6125393E-4
2.38657E-4
0.0011742115
-5.866289E-4
-4.1389465E-4
0.0010662079
4.094839E-4
-7.9512596E-5
-7.683039E-4
-9.996891E-4
-5.0735474E-4
-0.002466321
-0.0031924248
-0.001954317
-0.0021847486
-9.4270706E-4
3.670454E-4
-7.939339E-5
8.240938E-4
9.88245E-4
-3.207922E-4
-5.891323E-4
-1.9907951E-4
5.5491924E-4
5.221367E-4
2.6106834E-5
0.0014265776
0.0031383038
0.0030093193
0.0012429953
2.8812885E-4
0.0017570257
3.6144257E-4
-0.003599763
-0.0019028187
0.0015351772
5.6552887E-4
1.3113022E-6
0.0011168718
0.0012298822
4.0900707E-4
-2.1266937E-4
-1.2588501E-4
-8.70347E-4
-7.042885E-4
0.0011126995
1.0061264E-4
-0.0024803877
-0.0030515194
-0.0017106533
9.663105E-4
0.0013748407
-0.0011240244
-8.5151196E-4
0.001945138
0.0013403893
-0.0010079145
-1.3673306E-4
0.0012567043
0.001009345
2.9706955E-4
-0.001059413
-8.405447E-4
9.346008E-5
-7.041693E-4
7.9512596E-5
0.001439333
2.8669834E-4
-2.3496151E-4
0.0013494492
0.002288103
3.0207634E-4
-0.0014808178
4.464388E-4
5.759001E-4
-0.0030156374
-0.0030083656
5.1546097E-4
0.0013405085
6.6149235E-4
0.001149416
-0.0014047623
-0.004173279
-4.1162968E-4
5.763769E-4
-0.0036360025
-0.0015922785
0.0022331476
0.0028072596
0.0028835535
2.9301643E-4
-2.3460388E-4
0.001490593
5.520582E-4
3.9613247E-4
2.4318695E-5
9.6845627E-4
0.0029827356
7.8880787E-4
0.0011204481
0.0013991594
-0.0026135445
-0.0017033815
-6.9642067E-4
-0.001922965
5.710125E-4
6.0105324E-4
-3.6156178E-4
0.001588583
3.4081936E-4
-0.0013480186
9.119511E-5
-9.3972683E-4
-0.0030593872
-0.0025129318
-0.0027496815
-0.0023536682
6.3097477E-4
0.0029040575
0.0043058395
0.0036668777
0.0013759136
-2.502203E-4
-0.002141714
-0.0019309521
6.4611435E-5
3.4081936E-4
-2.0098686E-4
-3.736019E-4
4.0352345E-4
0.0010772943
9.750128E-4
-3.8564205E-4
-0.0035352707
-0.0036878586
-8.2182884E-4
4.669428E-4
6.508827E-5
-0.0017005205
-0.0016795397
0.0017923117
0.004347682
0.0030112267
-5.7017803E-4
-0.0016866922
-7.2968006E-4
-5.453825E-4
6.018877E-4
0.001934886
0.0019840002
0.0018358231
9.717941E-4
2.4199486E-5
1.1634827E-4
-8.0132484E-4
-0.0018173456
9.891987E-4
0.003342867
0.0012658834
-5.8412552E-5
-2.0360947E-4
-0.0013360977
-0.0012960434
-6.5004826E-4
-7.418394E-4
-7.889271E-4
8.940697E-6
6.0629845E-4
5.9604645E-5
-1.6844273E-4
-1.718998E-4
-5.968809E-4
-0.0011126995
-0.0018079281
-0.0025874376
-0.0022543669
2.771616E-4
0.0020986795
0.0024887323
0.0020250082
-8.159876E-4
-9.3483925E-4
1.3196468E-4
-0.003247857
-0.0039856434
-6.9630146E-4
0.0020081997
0.0030320883
0.001553297
0.0018135309
0.002726674
4.7969818E-4
-7.4088573E-4
9.6559525E-5
2.8455257E-4
-0.0014858246
-0.0025119781
-5.6266785E-5
0.0014785528
8.684397E-4
4.4429302E-4
-3.736019E-4
-3.1781197E-4
3.7312508E-4
-3.9374828E-4
-9.663105E-4
-5.649328E-4
-7.6186657E-4
1.9729137E-4
0.0020825863
0.0014683008
3.2269955E-4
2.3126602E-4
3.1590462E-4
9.250641E-5
-0.0010838509
3.7550926E-5
0.0012997389
4.6372414E-5
9.5140934E-4
-5.197525E-5
-0.0030311346
-0.0011501312
0.0012731552
0.002536893
0.0018354654
-0.0024585724
-0.0025497675
3.592968E-4
1.3709068E-5
-0.0010762215
-0.0027549267
-0.0029351711
6.6423416E-4
0.0010222197
-0.0015341043
-2.6214123E-4
0.0018204451
0.00224936
0.0023422241
0.0011751652
2.3949146E-4
2.2923946E-4
-3.3688545E-4
-0.001296401
-4.9710274E-5
0.0026743412
0.001136899
-7.7688694E-4
7.685423E-4
2.6786327E-4
-8.7702274E-4
-0.0012981892
-0.0011874437
5.3167343E-5
-8.0287457E-4
9.071827E-5
0.001830101
3.1363964E-4
4.105568E-4
-4.196167E-4
-0.0020307302
-3.8182735E-4
5.7423115E-4
4.51684E-4
-0.0011441708
-0.0019925833
3.8206577E-4
8.9883804E-4
6.841421E-4
2.9742718E-4
-6.414652E-4
0.0010477304
8.90851E-4
-2.168417E-4
0.0018841028
0.0020751953
1.0550022E-4
0.0010396242
0.0021420717
-0.0012611151
-0.0031661987
-0.0012545586
-0.0010885
2.0134449E-4
6.707907E-4
-0.001371026
0.0011570454
0.0024739504
-1.9311905E-4
-9.753704E-4
-0.0021862984
-0.0025877953
-0.0012477636
-7.7319145E-4
-5.776882E-4
-0.0011382103
-6.3967705E-4
1.9335747E-4
4.017353E-5
9.943247E-4
-4.0912628E-4
-0.0015873909
0.0012533665
0.0014219284
4.771948E-4
0.0014783144
0.0013439655
0.0017621517
0.0013508797
1.8060207E-4
-1.1920929E-7
-0.001557231
3.772974E-4
0.0029485226
-2.707243E-4
2.1874905E-4
0.002233982
-7.560253E-4
-2.1898746E-4
0.0012147427
-9.623766E-4
-0.0011096001
3.874302E-5
8.274317E-4
5.9759617E-4
-0.0013530254
-0.0017865896
-0.001062274
-0.0013620853
-0.0014426708
-6.0892105E-4
-7.4636936E-4
-0.0017763376
-5.578995E-4
7.7950954E-4
-0.0012098551
-0.0021921396
-3.3140182E-5
0.0010471344
0.0010732412
0.0012938976
-4.3177605E-4
-9.6035004E-4
0.0014237165
0.0010639429
2.6786327E-4
0.0027855635
0.002847433
4.683733E-4
8.6045265E-4
0.0017462969
2.7811527E-4
-5.221367E-4
4.4703484E-5
-3.1542778E-4
-7.5900555E-4
-8.482933E-4
-1.5878677E-4
9.703636E-4
-4.6777725E-4
-0.0018106699
-0.0012792349
-0.0019454956
-0.0021407604
-0.0011916161
-7.339716E-4
-4.557371E-4
-9.1040134E-4
-0.0012381077
-4.7051907E-4
5.977154E-4
9.263754E-4
2.0444393E-4
-2.580881E-4
-2.4676323E-4
6.494522E-4
0.0017613173
9.139776E-4
4.3010712E-4
0.0011518002
0.0012266636
0.0013234615
9.319782E-4
1.9741058E-4
-3.3259392E-4
-8.6414814E-4
4.492998E-4
0.0020776987
9.907484E-4
-5.697012E-4
-7.6270103E-4
-0.0012663603
-8.420944E-4
0.001752615
0.0017112494
-9.255409E-4
-5.450249E-4
6.2942505E-4
-3.3450127E-4
-0.0013240576
-0.0021891594
-0.002508998
-0.0017552376
-0.0014717579
-8.214712E-4
7.083416E-4
0.0011328459
0.0014169216
0.0015010834
-6.7579746E-4
-0.0015039444
3.8146973E-6
-4.6753883E-4
-0.0013537407
-2.616644E-4
0.0011261702
0.0013046265
4.1103363E-4
5.480051E-4
0.0019305944
0.0021311045
3.7765503E-4
-8.816719E-4
-3.0875206E-5
5.4872036E-4
-5.054474E-5
-3.9350986E-4
1.4305115E-5
5.1629543E-4
1.733303E-4
1.02996826E-4
-9.237528E-4
-0.002741456
-0.0011440516
0.0013380051
0.0024231672
0.0027387142
0.0015463829
0.0017855167
0.001786828
3.736019E-4
2.1874905E-4
-0.0018012524
-0.0032086372
-0.0017801523
-8.393526E-4
7.176399E-5
-4.67062E-4
-2.824068E-4
8.9514256E-4
-5.2297115E-4
-2.514124E-4
-4.990101E-4
-0.0021830797
-7.87735E-4
-0.0017354488
-0.0029718876
-0.0013375282
-0.0017595291
-7.4255466E-4
0.0012590885
6.88076E-4
0.0016570091
0.0027065277
0.0016591549
0.0015660524
2.5391579E-5
-0.00214684
0.0012844801
0.003489852
4.272461E-4
6.862879E-4
0.0016049147
3.1411648E-4
-2.462864E-4
-0.0012934208
-1.8179417E-4
5.954504E-4
3.33786E-6
0.0015977621
7.801056E-4
6.914139E-6
9.1576576E-4
1.385212E-4
-7.2824955E-4
-0.00288105
-0.0015199184
0.0017437935
9.214878E-4
9.54628E-4
-0.0024237633
-0.0042842627
0.0014567375
0.0018808842
-4.4119358E-4
-0.0049091578
-0.010769367
-0.0034970045
0.0033637285
4.4977665E-4
9.974241E-4
0.0011203289
-0.001975894
-0.0023190975
6.6280365E-5
0.001896739