-6.311011E-4
-0.002128213
-0.0036300658
-0.0032195484
-0.001071919
-0.0022890307
-0.001563772
-0.0019108838
-0.001835625
-0.0019527369
-0.001527478
0.0020096337
0.003771487
0.0024285987
0.0044628223
0.004527046
0.0044012694
0.003230752
6.5312255E-4
-0.0025639893
-0.0042082127
-0.0032776953
-0.0026471778
-0.0027366602
-6.790308E-4
-1.3903076E-4
-8.014014E-4
-0.0028408838
-0.001605625
2.94375E-4
0.0031538573
0.0024409692
0.0022180812
0.0011004517
0.0034023046
0.0035541577
0.0010365283
0.0012212695
0.0017860107
1.2601074E-4
3.7601075E-4
-0.0016287304
-0.002778213
-0.0023253248
-0.0022324366
-0.0020095482
-0.0036514013
-0.0053379955
-0.0058469605
-0.016529113
-0.017613638
-0.018190533
-0.01002135
-0.016643504
0.006537832
0.008613909
0.0062428736
0.004727097
0.0047813207
0.0035531737
7.7554444E-4
-1.3445556E-4
8.2791504E-4
-4.2445556E-4
5.7791505E-4
1.3791503E-4
-0.0023591968
-0.0020163085
-0.0013210498
-2.5104982E-4
0.001886062
0.0025931739
0.001447915
0.002095027
0.0020821388
0.0018468798
3.668799E-4
3.2687988E-4
-0.0012178613
-0.0015226025
-0.002942085
-0.0044463086
-0.004860532
-0.003992385
-0.0040842383
-0.0025113502
-0.0041655735
-0.005452168
-0.003984021
-0.0018487622
-6.211328E-4
8.712378E-4
0.0010536084
0.0016983496
0.0022454613
0.0035973145
0.003236797
0.0021139088
2.339087E-4
0.0019110205
0.0025581324
0.0014928735
-0.0014718677
-0.0011866089
-0.0019037207
-0.0010160913
-0.0018808325
-0.0011332032
9.679687E-5
6.1916746E-4
0.0012739087
4.762793E-4
0.0020533912
0.0030428735
0.0036747265
0.0034365796
0.002856062
0.0055426564
0.0039045094
0.0016792505
-7.231201E-4
-0.0012378613
-0.0026473438
-0.001822085
-0.0027615675
-0.0025086792
-0.002125791
-0.0029652733
-0.0020323852
-8.7475585E-4
1.2524414E-4
0.0017399853
4.4235596E-4
0.0015270972
0.0038389503
0.004713174
0.0014279151
7.6028565E-4
3.2028565E-4
-0.0019268262
-9.891968E-4
-0.0011215673
-0.0019286792
-0.0031181616
-0.003057644
-0.002164756
-0.0028142382
-0.00246135
-0.0050479444
-0.001985056
9.773144E-4
0.0012920557
0.0019891674
0.0038610206
0.002890503
0.0020476147
0.0036094678
0.0027189502
0.0016736914
0.001036062
-3.33938E-4
-0.0012686792
-0.002355791
-0.0011305322
-7.229028E-4
-0.0023100146
-0.004304238
-0.0021113502
-0.0028008325
-0.0010532031
0.001831538
0.0022986499
0.0021457616
0.001810503
-0.0010418677
2.8813232E-4
4.2050294E-4
-0.001976609
-2.766089E-4
7.3391115E-5
-5.889795E-4
-0.0018860913
-0.0031355738
-0.0042797974
-0.0023869092
-0.0033663916
-0.0034582447
-0.0024053564
-0.0023024683
-0.0013672095
4.951611E-4
0.0014099024
3.4990234E-4
0.0012746436
0.0017093847
0.0021164967
0.0017512378
0.0018059791
8.883496E-4
-2.316504E-4
-9.0402097E-4
-6.063916E-4
-0.0025935033
-0.0027129857
-0.0027024683
-0.00253958
-0.003921433
-0.004825657
-0.0037375097
-0.005514104
-0.022282852
-0.01083604
0.0028334423
0.0055900365
0.0063990015
0.0058779665
0.0040498194
0.0031493017
0.0020264136
1.16413576E-4
0.0019435254
8.85896E-4
6.482666E-4
0.0010106373
-0.0038412157
-0.0041654394
-0.0029349218
-0.0027344043
-2.844043E-4
5.379663E-4
4.6033692E-4
0.0016750782
7.274487E-4
-0.0016072924
-0.002786775
-0.0025938868
-0.0010162573
-1.4625733E-4
-0.0019733692
-0.003995222
-0.0027547046
-0.0026118164
-7.14187E-4
-0.0021912989
-0.0021884106
-0.003097893
-0.005014487
-0.004518711
-0.0030281933
-0.0019553052
-0.0026547876
-0.0014695288
0.0015252124
0.0021623243
0.0019394361
0.0017841773
0.0033736597
0.0017784009
4.3077147E-4
0.0016655127
0.001290254
-7.9746096E-5
-0.0018968579
-0.0020839698
-0.0030834521
-0.0028629345
-0.003102417
-0.0044666408
-0.0035784936
-0.003097976
-6.903467E-4
-0.0024574585
-0.003376941
0.002460171
0.0033296533
0.002046765
0.001933877
0.0010762475
9.886181E-4
6.309888E-4
-6.613818E-4
-0.001536123
-0.003477976
-0.002625088
-0.0020621996
-0.004074053
-0.0035559058
-0.0020830175
-0.0038348706
-0.0010572412
2.3275879E-4
0.0015675
0.0024846117
0.005151206
0.003603059
0.0030225415
0.0019596533
0.0012643945
7.767651E-4
-0.0013879761
-1.7797608E-4
-0.0011203467
-0.00486457
-0.004778794
-0.0049753883
-0.004007241
-0.0045414646
-0.0029609473
-0.002498059
-0.002275171
-3.351709E-4
4.771997E-4
0.0012919409
0.0028014234
0.0034832763
0.0027627589
0.0017275
0.0033669823
0.001019353
5.417236E-4
4.5409423E-4
-0.0020030176
-0.0034548705
-0.0040967236
-0.0036385767
-0.0016533178
-0.0021304297
-0.005337024
-0.003838877
-0.0024459888
-0.0010283594
6.0401123E-4
1.3401124E-4
0.002001123
0.0028506054
0.0039724587
0.0041343113
0.0021414233
8.7379396E-4
7.4616453E-4
0.0011285351
-5.0383544E-4
-0.0023509474
-0.002348059
-0.0029575415
-0.002967024
-0.0027165064
-0.0026336182
-0.0034454712
-0.002592583
-0.0020296948
1.2030517E-4
0.002207417
0.00363927
0.0052458644
0.0040377174
0.0017824585
-0.0018422827
0.002044829
7.3719973E-4
1.5719971E-4
5.395703E-4
-0.0014151708
-0.001399912
-0.0021270239
-0.0020841358
-0.001868877
-0.0011112476
-0.00333073
-0.003462583
-0.0026820654
-5.94436E-4
0.0023726758
0.0020797877
0.0037916405
0.005338235
0.003420088
0.004091941
0.0030414234
-5.309473E-4
-0.002038059
-0.0011628002
-0.001919912
-0.0016446533
-3.046533E-4
-0.0016693946
-0.002888877
-0.0021459889
-0.0020531006
-0.0020502124
9.021582E-4
0.0018068994
0.0041387524
0.004342976
0.0055995705
0.004303794
0.0028932763
0.0025703881
0.0033598705
0.0021969825
0.002866465
0.003618318
0.0020354297
-1.7457032E-4
-0.0011993116
-0.0020864233
-0.0036182764
-0.0030977589
-0.0021148706
-0.0016996118
-8.719824E-4
7.3038816E-4
0.0026598705
0.003259353
0.0020864648
0.0021435767
0.0011059473
0.002273059
0.0021301708
0.0011125415
9.449121E-4
3.449121E-4
0.0015696533
-0.0018350879
-0.0032145702
-0.0012593116
-0.0022064233
-0.0026759058
-0.0014706469
-0.0030401293
-0.004554353
-0.0024614648
4.5090576E-4
-0.0027785767
-0.021464953
-0.0039168065
0.0032426757
0.0042468994
0.004531123
0.0030906054
0.0035224585
0.003341941
1.1940918E-5
-0.0019551709
-7.075415E-4
-0.0016822827
-0.0021893946
-5.1176513E-4
-1.9176514E-4
2.0823487E-4
-5.241357E-4
-0.0018788769
-4.1124757E-4
0.002728235
0.003950088
0.0035119408
0.0042761643
0.003235647
0.0023327589
0.0017375
2.975E-4
-4.648706E-4
-5.472412E-4
-0.0012419824
-0.0026290943
-0.002196206
-0.002273318
-0.0033528004
-0.0031822827
-0.004084136
-0.0011588769
0.002328235
0.0019453467
0.0030348292
0.003686682
0.004800906
0.0020580175
0.0028775
0.0026469824
2.3698242E-4
0.0016317236
3.0172363E-4
-0.0016830176
-0.0022101293
-0.0020472412
-0.002394353
-0.0026638354
-0.0070951707
-0.003917024
-0.0016317652
8.823486E-5
0.0011429761
0.0019300879
0.003991941
0.0048461645
0.004900388
0.0033698706
0.0034117235
0.0036335767
0.0014783179
0.0010906885
-0.0010516822
-0.0014764233
1.4357666E-4
-5.4879393E-4
-0.0016135351
-0.0031830175
-0.0034948706
-0.0035767236
-0.0016114649
-7.7383546E-4
9.616455E-5
0.0022732764
0.0034251295
0.0028846117
0.0028740943
0.0037959472
0.0030954296
0.0040172827
0.004441506
0.0024186182
0.0014533594
-6.390112E-4
-0.0015237525
-0.0018384936
-0.0021056056
-0.003225088
-0.003476941
-0.0029064233
-0.0019135352
-5.8590574E-4
5.0646486E-4
-0.001990647
5.8172364E-4
0.0034535767
0.0039754296
0.0022025416
0.0018372827
0.0010596534
-3.827173E-4
-1.2717285E-5
-0.0026921998
-0.0020893116
-0.0020064234
-8.7879394E-4
3.1120607E-4
-0.0025759058
-0.0032753882
-0.0025225
-0.0014572412
0.0014975
0.0029469824
0.0012717237
4.6409425E-4
0.0033335767
0.004950171
0.003492024
0.0015767651
-6.323486E-5
7.6765136E-5
-7.323486E-5
-0.0020303468
-0.0035521998
-0.003291682
-0.0029611646
-0.0038030175
-0.0027225
-0.001959612
-0.0027190943
-0.0016138355
4.2853516E-4
0.002115647
0.0034075
0.002294612
0.001769353
0.003491206
0.0035830592
0.002580171
0.0015249121
-3.3508788E-4
-4.3745848E-4
-0.0015521997
-0.0022093116
-0.0013940528
-0.0012787939
-0.0018735351
-0.0011359057
-0.0029053881
-0.0013301293
-4.725E-4
-6.448706E-4
6.275E-4
5.098706E-4
0.002789353
0.002046465
0.001801206
0.004063059
0.004207283
0.0023443946
0.0018491357
2.2913574E-4
0.0011315064
-0.0017232349
-0.003985088
-0.0018798291
-0.0012745704
-0.0033964233
-0.0027959058
-9.782764E-4
-6.7064696E-4
-9.5301756E-4
9.09353E-4
8.2172366E-4
0.0024788354
0.0040906887
0.002910171
0.0021272828
0.0021843945
0.002703877
0.0023809888
-2.4901124E-4
-5.713818E-4
-0.0013661231
-0.003887976
-0.0033974585
-0.002896941
-0.0028864234
-0.0028759057
-0.003295388
-0.006394353
-0.0042985766
-4.4094727E-4
0.0015537939
0.0018485351
0.0010209058
-8.614648E-4
-0.007205171
-0.02251629
-0.0012210303
0.0031284522
0.002505564
0.0046297875
0.0022068995
-8.310059E-5
4.9927004E-4
1.6927002E-4
-0.0023278417
-0.0024449537
-9.2732423E-4
1.1267578E-4
0.0025097877
0.0016245288
0.0019916405
0.0028711231
0.0037529762
0.0032924586
0.0034243115
9.366821E-4
-6.2568847E-4
4.5668212E-4
4.8905273E-4
-0.002618059
-0.0037899122
-0.0044741356
-0.0043183593
-0.0025054712
-5.278418E-4
-2.678418E-4
-9.702124E-4
-0.0024373243
-0.0030168067
-9.691772E-4
8.431934E-4
0.0026826758
0.0030621581
0.003914011
0.0029634936
0.0016182349
0.0033577173
0.0032671997
0.0036190527
0.0027185353
2.8535156E-5
-0.0015362061
1.2379394E-4
4.3616456E-4
-0.0012185767
-0.0018033179
-0.0028028004
-0.0072565065
-0.008292583
-0.004316807
-0.002916289
3.4371094E-4
0.0027431934
0.0026626757
7.750464E-4
8.77417E-4
0.002344529
0.00124927
1.9270019E-5
2.9927003E-4
9.7164063E-4
2.2164063E-4
-0.0016131006
-0.0021602125
-0.0017049536
-0.003174436
-0.00463866
-0.005455254
-0.0028247363
-6.171069E-4
0.0018176343
0.0019747461
6.671167E-4
0.003306599
0.0050631934
0.004847417
0.0024145287
2.445288E-4
-5.7784177E-4
-0.001882583
-0.003594436
-0.0037562891
-0.0046205125
-0.0034223658
-0.003351848
-0.0029413307
-0.002860813
-0.0032202953
-0.0034321484
-0.003051631
7.3073973E-4
0.0036925927
0.0036544458
0.0033339283
0.0029934107
0.0018281519
0.0023752637
0.003004746
0.0017894873
0.0037713402
0.0031608227
0.0011031934
-0.0021739185
-0.0051905126
-0.008356589
-0.008472666
-0.003804519
-0.0019916308
-0.0025787426
-9.511133E-4
1.7888672E-4
0.0013836279
0.0023607397
0.004997334
0.005796299
0.0048405225
0.0039723753
1.5237549E-4
-4.899951E-4
3.600049E-4
-3.5999512E-4
0.0021971166
0.0020442286
-0.0017305127
-0.0040523657
-0.004154219
-0.0041460716
-0.0048502954
-0.0024874073
-0.0026568896
-0.0016316308
0.0013031104
0.0027125927
0.0056815576
0.005218152
0.0043923757
0.0051089698
0.003980823
0.0021879345
0.0018426757
0.0022497876
0.0017145288
7.868994E-4
0.0017416406
1.8164063E-4
-0.00108073
-0.0016354712
5.452881E-5
0.0026316405
0.0048158644
0.0065471996
0.009255647
0.005552241
0.0036440943
0.0013088355
1.883545E-5
-0.0011559058
-0.0032253882
-0.0016901294
-4.225E-4
-8.348706E-4
0.0012298706
0.0023169825
0.0015017237
0.0014264649
0.0023835767
0.0044478
0.0030072827
0.001372024
9.7439456E-4
6.467651E-4
4.0913574E-4
-5.9323484E-4
1.8676513E-4
0.0033562477
0.005072842
0.0047170655
0.004681289
0.005317883
0.0029573657
2.8736572E-4
-0.0013373755
-0.003046858
-0.0016415991
2.0840087E-4
-6.639697E-4
-0.0017087109
-4.3108154E-4
-0.0020181932
-0.0028076759
-0.0022947877
-0.0025218995
-0.005980864
-0.0054974584
-0.0036693115
-0.0021164233
-7.7879394E-4
4.8357667E-4
-0.0020135352
-0.0068448707
-0.018894136
0.0013506055
0.0077243117
0.006865647
0.0066669825
0.004481206
0.0013559472
-6.9642335E-4
-0.0027059058
-0.0052025
-0.0053390944
-0.002416206
2.7379394E-4
0.0019709058
0.0018656469
8.880176E-4
8.403882E-4
5.327588E-4
-0.001964353
-0.003636206
-0.00416043
-0.0025975415
-0.0012022827
4.3008788E-4
0.0046543116
0.011742241
0.015852025
0.014749436
0.010632625
0.004536848
0.0014815894
0.0017563306
-0.0018284107
-0.004692634
-0.0055492283
-0.0043934523
-0.0023805639
-0.0022676757
-0.00499427
-0.0064356057
-0.0048598293
-0.0042740526
-0.007970129
-0.016272282
-0.019443918
-0.015483702
-0.0070950366
-1.1503662E-4
0.0018797045
0.0042739282
0.0030234107
4.7578124E-4
-0.0022113305
-0.0048155542
0.001459187
0.0039110403
0.003742893
0.0032023755
0.0053489697
0.0076426757
0.012040606
0.015990388
0.0153078
0.015185213
0.015082625
0.011990555
0.009861372
0.011106932
0.01161249
0.009613308
0.0042775315
-0.005821433
8.509375E-4
0.01718546
0.027000804
0.03170037
0.027578082
0.01116364
-0.009447178
-0.024393037
-0.033197343
-0.037855875
-0.03104307
-0.015942851
-0.00953367
-0.010979229
-0.0093676755
-0.009478494
-0.0036403467
0.013199953
0.022038702
0.028498784
0.04572339
0.06074304
0.067294024
0.05740419
0.045096427
0.039469697
0.031749263
0.023502752
6.275147E-5
-0.025327848
-0.034866896
-0.027042238
-0.018339133
-0.02011314
-0.03895641
-0.06049606
-0.05049489
-0.048606608
-0.052932553
-0.04624716
-0.016629312
0.020987066
0.04156745
0.053815763
0.06703675
0.07451144
0.0829022
0.07311215
0.04624676
0.011894687
-0.0153427245
-0.040820736
-0.05433142
-0.07100426
-0.08152028
-0.08753528
-0.056933068
-0.012703369
0.029119084
0.052432656
0.047492005
0.03202157
0.044331435
0.08645169
0.14792633
0.15990889
0.1414522
0.17104796
0.1757203
0.08962241
-0.03004242
-0.080596074
-0.111114554
-0.15819001
-0.19479163
-0.22025384
-0.23366636
-0.21355724
-0.1271155
-0.11161635
-0.1171238
-0.0053203907
0.14627951
0.20775142
0.21555704
0.21556267
0.18572584
0.14741811
0.1335777
0.09332166
0.034078334
-0.024689894
0.04679708
0.113152675
0.050209135
-0.112804085
-0.20305178
-0.2919792
-0.35543576
-0.31323957
-0.23672156
-0.1098753
-0.018332193
0.06332694
0.116412014
0.12653027
0.11884246
0.04066047
-0.042052284
-0.038183182
-0.028643267
-0.035804685
-0.04710166
-0.066067904
-0.0744826
-0.07416491
-0.066783525
-0.04208628
-0.017290806
0.008585271
0.017149795
0.036313582
0.08798858
0.122292615
0.11953717
0.09618823
0.082919
0.048933093
0.02489132
0.026866663
0.0323486
0.0043328223
-0.025787778
0.007143557
0.04248631
-0.011119248
-0.023030367
-0.013060667
-0.04342579
-0.04942988
-0.03755841
-0.034285087
-0.03909836
-0.068584085
-0.048858173
-0.04244093
-0.047680277
-0.037046436
-0.0186057
0.0012590406
0.0238949
0.04959136
0.07114419
0.07576126
0.047972977
-0.0049736183
0.007057717
0.048219435
0.061011456
0.05649925
0.032801185
0.035934977
0.01872424
-0.0077794655
-0.037947997
-0.034487043
-0.037945572
-0.039671216
-0.037187375
-0.029289829
-0.015859611
-0.008958059
-0.008574136
-0.00546073
-0.004142583
-0.0032120654
0.0020250464
0.0024321582
0.0038040113
0.0071353465
0.008431423
0.0076251295
0.0076588355
0.0071925414
0.005529136
0.0073728417
0.007766548
0.0060855127
0.0027949952
0.0010473657
0.0020244776
0.0010968482
4.5921875E-4
-8.731519E-4
-0.0028226343
-0.004436858
-0.006225823
-0.005252417
-0.0028718994
-0.0018466406
-0.020530647
-0.005909612
0.005859353
0.0067706886
0.0056372825
0.0032567652
8.391357E-4
2.5913573E-4
0.001183877
0.0026933593
0.0036552125
-0.0015095288
-0.0047537526
-0.0072574583
-0.0072511644
-0.0044353884
-9.477588E-4
0.0029517235
0.002971206
0.0010935767
0.0022406885
0.0059296535
0.0073733595
0.0076470654
0.008243142
0.0034949952
0.0045292187
3.3921874E-4
-0.008236858
-0.008052935
-0.008861382
-0.010996941
-0.01049013
-0.010803318
-0.013715989
-0.008944436
-7.8680663E-4
0.004857417
0.0066487524
0.0058877175
0.0039195702
0.0028390528
0.002878535
0.0041627586
0.0034246119
0.0010969824
-4.6538818E-4
6.469824E-4
-0.0010753882
-0.0015701294
-0.0038919824
-0.0032414647
-1.3146484E-4
-0.0010738354
-0.0037056885
-0.004579912
-0.0054665064
-0.0036583594
-0.0012031005
-5.8547116E-4
-1.8547119E-4
-3.878418E-4
0.00219927
0.006398235
0.0059471997
0.004721423
0.006010388
0.006721724
0.004305947
0.0010483179
-0.0026911646
-0.0059701293
-0.006279094
-0.004773318
-0.0034451708
-0.004017024
-0.0013517651
-0.002188877
-0.00356073
-0.003782583
-0.0015373242
0.0020597875
0.0040216404
0.0037034936
0.0015082349
0.0031377173
0.0054243114
0.007990388
0.009871206
0.010172024
0.008638101
0.0057570655
-6.5530516E-4
-0.008873752
-0.013256423
-0.013499094
-0.010842282
-0.00931073
-0.0083168065
-0.0024439185
3.8845214E-4
0.0027779345
0.004812158
0.0054787523
0.004452976
8.053467E-4
-0.0029241357
-0.0042283596
-0.0056773243
-0.0074910303
-0.005909995
-0.0041942187
-0.0025713306
-0.0024584425
-0.0023655542
-0.0045097778
-0.0030992602
5.7311036E-4
0.0049897046
0.0057286695
0.006067634
0.0076813404
0.0096221585
0.0071034934
0.006914829
0.005511423
0.0013861646
-3.7620607E-4
9.961645E-4
-0.0018485767
-0.0039604297
-0.0069117653
-0.0064631007
-0.0070244363
-0.008660513
-0.0087789595
-0.007995036
-0.008141113
-0.007032449
-0.0035443017
-0.020628309
5.440625E-4
0.005540657
0.0011130273
4.7539794E-4
0.0022825098
0.0026819922
5.743628E-4
-0.0012803784
-2.1037842E-4
4.5199218E-4
6.743628E-4
2.6436278E-4
-7.0800784E-4
-0.001792749
-0.0015674903
-0.0011322314
-9.7460207E-4
3.2539794E-4
0.0032348803
0.0052314745
0.0036033276
0.0039751804
0.0038970336
0.003076516
0.0029559985
0.0019831103
9.2548097E-4
0.0010078516
8.3022215E-4
2.0022217E-4
-0.0013145191
-6.468897E-4
-0.0010492603
-0.0022463722
-0.0026334838
-3.734839E-4
-6.358545E-4
2.3414551E-4
0.0020812573
0.0028807397
0.0038525928
0.005609187
0.00350104
0.0017557812
0.0017405224
0.0034323754
0.002931858
0.0034013402
8.3371095E-4
-5.286597E-4
-0.0012834009
-0.0018481421
-0.0011628832
5.994873E-4
4.8185792E-4
-2.681421E-4
-3.814209E-5
-6.605127E-4
0.0018742285
0.0034860815
0.002785564
5.8793457E-4
-0.0014168066
-0.0011415478
-0.001356289
-0.0013210303
-3.310303E-4
0.0016037109
-5.086597E-4
2.1134033E-4
-9.810303E-4
-0.0050176247
-0.0059765894
-0.006657925
-0.00622689
-0.0048811133
-0.0036629664
-0.002240078
-0.0013448193
5.7755125E-4
0.0020546631
0.0031641454
0.0036459984
0.0056849634
0.004569187
0.0030786695
0.0032481519
2.5815185E-4
-0.0015665893
-3.1658934E-4
2.6341065E-4
-0.0011813305
-0.0018260718
-1.1607178E-4
-0.001160813
-0.0016255542
-0.0012802954
1.1970459E-4
-0.0026997777
-7.2214846E-4
0.0043920754
0.00567104
0.0061200047
0.0069513405
0.0051479344
0.002937417
9.097876E-4
0.0022868994
0.0020540112
-1.4598877E-4
-6.383594E-4
-1.1835938E-4
-0.0017431006
-0.002742583
-0.002559695
-0.0035415478
-0.0020786596
-0.0018434009
-0.0033028834
-0.0011476245
7.4474607E-4
0.0013294873
0.0022165992
-0.0022205126
-2.005127E-4
0.0030989698
0.003228452
2.0845215E-4
6.908228E-4
-0.0018239184
-0.0017486596
-0.0020757716
-0.0039476245
-0.0019847364
-0.0026218481
-5.6421873E-4
0.0027752637
0.0042194873
0.0020665992
0.0018713403
0.0034031933
0.007074529
0.0067758644
0.0037277173
0.0038195704
0.0049861646
0.0026232763
0.0031127587
0.0020798706
6.2224123E-4
-0.0014725
-0.0020296117
-0.0010919825
-7.1982424E-5
2.1801758E-4
-1.4198243E-4
8.403882E-4
0.0013951294
0.0016298706
0.0035317237
0.0037935767
0.0048478004
0.004432024
0.004063877
0.0057128416
0.003984695
0.0028841773
0.002051289
-2.4871095E-4
2.3128906E-4
-8.610815E-4
-3.9345215E-4
-2.8345216E-4
-1.7345215E-4
-0.001900564
-0.0016353051
0.0011170654
0.0013018067
0.002701289
0.0019084009
0.0026478833
0.0034597362
0.0026892188
0.0046134423
0.004125295
0.0034871483
7.39519E-4
-4.8285155E-4
-5.5522216E-4
-0.0013099634
-5.32334E-4
0.0017424072
7.947778E-4
-0.0011899634
-0.0015347046
-0.002724187
-8.6655765E-4
7.35813E-4
0.0020129248
0.0024400365
0.0038518896
0.002841372
-0.0067399633
-0.018649228
0.002740254
0.0050068484
0.0049434425
0.004960037
0.00444426
0.0013490014
0.0020561132
0.002223225
8.955957E-4
-7.767749E-4
-0.0023138868
-0.0013386279
-0.0018833692
8.990015E-4
0.0034708546
0.0013455957
0.0039774487
0.0041193017
0.005535896
0.0058248607
0.0039467136
0.0030961963
0.001983308
0.0025804199
0.003842273
0.003704126
0.0023412379
6.6360837E-4
-2.963916E-4
2.836084E-4
0.0013483496
0.0025154615
5.0783204E-4
4.2020265E-4
8.625732E-4
0.0035644262
0.0034462793
0.0027657617
0.003977615
0.002967097
0.0030865795
0.0014113208
-4.810498E-4
-0.001545791
-3.7579102E-4
-0.0017905323
-7.429028E-4
-0.001177644
2.6235596E-4
-0.0022047558
1.1524414E-4
-0.0042489795
-0.0032284618
-3.3846192E-4
0.0018462793
0.0036081322
0.004912356
0.0058813207
0.006742656
0.005991621
0.005990586
0.0046348097
0.0043490333
0.0016437744
0.0010261451
-1.5385498E-4
-9.962256E-4
-0.0018309668
-0.0025280786
-0.0023451904
-0.0017499316
-0.0020570434
-0.003236526
3.9584472E-4
5.0821534E-4
0.0016029566
0.0039348095
0.003936663
0.0048008864
0.0050074803
0.0048217042
0.0044359276
0.00312541
0.0016301514
0.0014748926
-8.0747803E-4
-0.00204459
4.4778077E-4
7.6015136E-4
-4.3221924E-4
-0.002259331
-0.0016040723
-9.064429E-4
-3.7644288E-4
-0.0012611841
0.0014035571
0.0047177807
0.005624375
0.00616334
0.0020604515
-0.005808513
-0.023824373
-9.5674314E-4
0.0037851098
0.0029145924
0.0039964453
0.0027859278
7.3829835E-4
-5.7407224E-4
-8.5644284E-4
-2.0644287E-4
-2.0644287E-4
0.0013082983
3.2829834E-4
0.0018430395
0.0025401514
0.0034220044
0.0035938574
0.00315334
0.0025304516
0.0036223046
0.003251787
2.6178712E-4
-0.0027676953
-0.0034495483
-0.0020966602
-0.0028561426
-0.02174489
-0.020538896
-0.017825792
-0.018805057
-0.0055416506
0.0038002026
0.005296797
0.00407865
0.0045328736
0.0053594676
0.008135544
0.008943992
0.007930068
0.006289033
0.005225627
0.0054322216
0.004024075
0.0035359277
0.0034177809
7.101514E-4
1.0015137E-4
1.9015136E-4
5.72522E-4
0.0010948926
0.002694375
0.003836228
0.0011509692
0.002038081
0.0036499342
0.003711787
0.004426011
0.004210234
0.0040120874
0.0039939405
0.0033634228
9.6579344E-4
2.1579345E-4
-0.0011365771
-0.0012513184
-0.0016560595
-1.0605957E-4
-8.4843015E-4
-0.0016331713
-0.0028826538
-0.0022197657
-0.0018345069
-0.0030339893
-0.0011163598
0.0011483814
0.0020854932
0.002482605
0.0031420875
-2.7912598E-5
0.0015568286
0.0018815699
0.0020786817
-9.7368896E-4
4.8868166E-4
2.5868163E-4
-0.0021884302
-5.408008E-4
-0.001535542
-0.0027750244
-0.0018197657
-0.0015145069
-9.0687745E-4
-8.79248E-4
0.0018254932
0.0018302344
9.4260497E-4
0.0012473462
0.00453157
0.0038234228
0.003525276
8.776465E-4
-0.0013170948
5.552759E-4
1.9527588E-4
-9.6709473E-4
-0.0013518359
4.8164064E-5
1.8164063E-5
-9.942065E-4
-9.165772E-4
-0.0015613184
-8.3368894E-4
5.0868164E-4
0.0019357934
-0.0010265772
-7.2894775E-4
0.0027505346
0.004604758
0.0038766114
0.0035584643
0.0037603173
0.0018650586
0.0011497998
9.821705E-4
-1.0782959E-4
-9.302002E-4
-0.0028396826
-0.0026367945
-0.0038786475
-0.0055752415
-0.001309983
0.0010823878
0.0023094995
8.818701E-4
0.0013566114
0.004350835
0.0062797996
0.005026394
0.0036882472
0.0047324705
0.004516694
3.2669434E-4
6.8906497E-4
0.0013038062
-1.06193846E-4
7.380615E-5
-7.085645E-4
-2.3856445E-4
-9.309351E-4
-0.001978047
-0.0038798999
-0.003461753
-0.0026088648
-0.013099165
-0.015488948
0.0053176465
0.008223723
0.0064450586
0.003916912
0.0024640234
0.0015387647
0.0018135059
0.0021006176
0.0016153589
0.0013901001
1.001001E-4
-6.522705E-4
-0.0019493824
-0.0015241235
-0.0010464941
8.258765E-4
-6.1649416E-4
-0.0013012354
-7.1360596E-4
0.0012111353
0.0026606177
0.004484841
0.006203806
0.0050704004
0.0053269947
0.0044412185
0.0017359594
2.0595947E-4
6.9833006E-4
-2.716699E-4
-4.5404054E-4
-6.4641115E-4
-0.0010987817
-0.0023458935
-0.0025130054
-0.001125376
-0.0018201172
-0.0014748584
5.51416E-5
0.0015598828
0.001404624
0.0019117359
0.0037935888
0.0029030712
0.0024401832
0.002537295
0.0025444068
0.0020815185
3.6151856E-4
-0.0035003345
-0.0021674463
-0.0011521875
-0.0011245582
-0.0016092993
-0.0010916699
-0.0015364111
-0.0015911524
-7.635229E-4
-4.2589355E-4
0.0013188476
0.0023059596
0.0032554418
0.0036472948
0.004049148
0.0026486304
0.002025742
1.2574218E-4
3.7574218E-4
3.881128E-4
-0.0014466284
-0.0010389991
-0.0011537402
-0.0036155933
-0.0037674464
-0.0028269286
-0.002946411
-0.0032558935
-0.0010782642
3.4173584E-4
0.0027112183
0.0018659595
0.002945442
0.0029149244
0.0014296655
0.0021167772
0.0014215185
-9.80852E-4
-3.3085205E-4
-3.8085206E-4
-0.0012055932
-4.4796386E-4
-9.7033445E-4
-0.0024974463
-0.0037392993
-0.0036811524
-0.0029706347
-9.130054E-4
3.2699463E-4
-0.0021901173
-0.0013248584
-0.0025219703
0.0022951416
0.003364624
0.003826477
0.002333589
0.00184833
0.002085442
-0.0012392993
-2.3929932E-4
7.630713E-4
-9.092993E-4
-7.816699E-4
-9.940405E-4
-0.0012287818
-0.0031782642
-0.0015030054
-4.2537597E-4
-3.5375975E-5
-4.5375975E-5
0.0010269947
0.0017817358
0.0018364771
0.0020535889
0.0017483301
0.0026454418
0.0023925537
6.249243E-4
0.0020920362
0.002229148
-0.0010932226
-0.0029227051
-0.0022998168
-0.0023569288
-0.003196411
-0.0026558936
-0.0033753759
-0.0046395995
-0.0037914526
-0.0014161939
4.380615E-5
-0.006335159
-0.021301536
0.0030079468
0.004914541
0.0046987645
0.0036606176
0.0026501
0.0031895826
0.0017543237
0.0010466943
-6.2567624E-4
-0.002562788
-0.0017975293
-0.0016522706
-0.0021393823
-0.0013841236
-0.0010764941
-2.7649413E-4
0.0011882471
0.0030277295
0.004231953
0.006260918
0.0048851417
0.003324624
0.0026941064
0.0019012183
8.7358884E-4
2.3588867E-5
-0.0011711523
-6.93523E-4
-0.0011382642
-0.0029677467
-0.0022948585
-0.0025419702
-0.0030114527
-0.0055880467
-0.004984641
-0.0035264941
-0.0011288647
-6.3123537E-4
-3.123535E-5
0.0020958765
0.0029353588
0.0026124706
0.0023695824
0.0016943237
0.0022414355
0.0017861768
0.001690918
-0.0018138232
-0.0016985645
-0.0015533057
-0.0026927881
-0.0013275293
-0.002094641
-0.0012193823
-0.0022164942
-0.0030759766
-0.0026130883
2.0691162E-4
0.0014416529
0.0024987645
0.0023758765
0.0032453588
0.0027948413
0.0021619531
0.003423806
0.0014685474
-2.9145263E-4
-8.638232E-4
-0.0017685645
-0.0025256763
-0.0020827882
-0.0025598998
-0.0032993823
-0.002196494
-0.0028659767
-0.0018807178
-2.0717773E-5
-5.0717772E-5
5.1165285E-4
0.0016363941
0.0017911353
0.0027606178
0.0027801
-0.0012346411
-0.0033341236
2.6587647E-4
2.5876465E-5
2.2587646E-4
-8.264941E-4
-0.002263606
-0.003515459
-0.0039773122
-0.0032967944
-0.0038286475
-0.0019757592
-0.0029952417
-5.176123E-4
-8.099829E-4
9.423877E-4
0.0028518701
0.0036937231
0.0041055763
0.0021226879
0.0023497997
0.0019769117
1.9691163E-4
-0.001125459
-0.0018925708
-0.0020096826
-0.002659165
-0.0043633888
-0.0046776123
-0.004691836
-0.003613689
-0.0028531714
-0.0024002832
0.001734458
4.268286E-4
9.591992E-4
0.0014039404
9.66311E-4
0.0022334228
0.0025905347
0.0020976465
7.700171E-4
-3.5998292E-4
-5.623535E-4
-0.0019594654
3.7053466E-4
-2.8946533E-4
-0.0017942066
-8.565771E-4
0.0012781641
7.2053465E-4
0.0013552759
-8.270947E-4
-0.001541836
-7.183594E-5
9.905347E-4
-2.0946533E-4
3.4053467E-4
0.002980017
0.004664241