9.934934E-4
0.001550441
0.003209717
0.0015813553
5.606062E-4
2.402239E-4
-0.0016103671
-6.2341924E-4
0.0010016493
4.0396056E-4
-3.4227085E-4
1.6404969E-4
9.818327E-4
2.0737838E-4
-1.6664207E-4
-3.3673234E-4
-9.653827E-4
5.983533E-4
9.543499E-4
-0.0020224266
-0.00439362
-0.003216
-7.750474E-5
-2.809182E-4
-0.0013551604
1.7393186E-5
8.112157E-5
-2.156827E-4
-1.1290435E-4
5.132915E-4
0.002333758
0.0011058399
-1.9623927E-4
0.0014082914
0.0012783218
0.0014775782
0.002794826
0.0010333459
-8.5724954E-4
-2.0993086E-4
-4.6718793E-4
-9.0557255E-4
0.0013877553
0.0022968485
0.001008008
0.0011803575
3.002659E-5
-0.0012329287
3.9829247E-4
-3.623161E-4
-0.0023501916
-8.7782025E-4
6.3806096E-5
-5.392334E-4
-6.387232E-4
-0.00188888
-0.0013941746
0.001341092
-4.989138E-4
-0.0033683414
-0.0013873522
-1.9899833E-5
-4.2457416E-4
5.559102E-4
0.0013037166
-3.2458428E-4
-0.003279874
-0.002479729
6.654447E-4
6.857151E-4
9.2294696E-4
0.0026854416
0.0020073305
-2.5565515E-4
8.845637E-5
0.002499948
0.0018907287
1.6045698E-4
5.2340253E-4
2.4352956E-4
2.0018934E-4
0.0011130485
7.7748555E-4
-3.906565E-4
-6.3275365E-4
6.7354034E-5
-8.627504E-4
-0.001485899
4.8688677E-4
5.0959445E-4
-0.0012408335
-8.9624507E-4
-2.5230058E-4
-7.1962026E-4
3.7663085E-5
0.0010918793
-4.191496E-4
-0.001282697
3.878393E-4
0.0016225512
0.001346928
-7.0827256E-4
-0.0013416613
7.8594586E-4
7.1552646E-4
-9.3572325E-4
-3.984308E-4
0.0014214097
0.001673183
5.4106856E-4
-2.9619527E-4
-0.0025278414
-0.0039863125
-0.0020344793
-1.09875466E-4
9.2269777E-4
7.9136266E-4
-1.9854118E-4
-6.3041155E-4
-7.8956236E-4
2.4907672E-4
-3.9905694E-4
-0.001753455
5.3753355E-4
0.0014724738
0.0011144151
0.0021437786
0.0019080077
0.0026450453
0.0026561397
-5.3132337E-4
-0.0021826765
-0.0019724846
-0.0013341682
-6.4270914E-4
-8.467985E-4
-3.873086E-5
0.0016078975
0.0021357308
0.0014419439
1.06644664E-4
-2.6016054E-4
-6.2148133E-4
-0.0018786185
-0.0014138136
-8.494204E-4
-0.0015493771
-4.3808413E-4
7.2812155E-4
5.0498865E-4
6.8095746E-4
7.6810096E-4
0.0013326919
0.0018650901
0.0015861491
0.0010967684
-7.42725E-4
-0.0015665134
-8.399274E-4
-0.0011167817
1.816087E-4
0.0011993152
-0.0014683891
-0.0033497575
-0.0018689223
5.8409764E-4
0.0015179609
0.0010680021
5.3690976E-5
-0.0016532727
-0.0014187105
4.6900907E-4
4.2531674E-4
-8.2627674E-5
7.5848325E-4
5.9679325E-4
-0.0018089918
-0.0020329184
0.0013807752
0.0020524221
3.9210496E-4
8.449945E-4
0.0018809715
0.0023917998
5.5713434E-4
-0.0019166248
-6.579498E-4
-8.015193E-5
-2.1033936E-4
0.0020572492
0.0014473955
-1.913034E-5
8.334038E-4
-8.592138E-4
-0.002941446
-0.0023211762
-9.223977E-4
6.399916E-4
5.177424E-4
-2.963559E-4
9.75382E-4
0.0012867103
-0.0011585932
-0.0016700065
7.972422E-4
-1.0916272E-5
-0.0029764976
-0.0017056715
4.6722702E-4
0.0012789064
0.0024841253
0.0011805713
-0.0012774535
-0.0013022169
-7.445589E-5
0.0010648234
0.0017944407
0.0019439671
3.2248447E-4
-0.002082355
-0.001856154
1.03057486E-4
0.001059656
5.3946243E-4
1.6940173E-4
4.139575E-4
-7.9114E-4
-0.0011161569
5.669144E-4
3.5965588E-4
-1.7769978E-4
2.3042416E-4
-8.2384836E-4
-0.0011048205
3.8101157E-4
0.0012342157
7.693511E-4
-9.766578E-4
-0.0020337037
-8.1568805E-4
5.2812643E-4
0.0014488274
0.0027657375
0.0021321643
-0.0010932653
-0.002480288
-5.82834E-5
0.001873755
0.001043227
-4.3961086E-4
-0.0014819374
-6.095034E-4
0.0011951762
3.747168E-4
-0.0011033104
-0.0013696344
-0.0010710928
6.999338E-4
0.0016208366
-3.3675347E-5
-0.0022335788
-0.0022037316
-2.4880221E-4
-0.0019674853
-0.0040808753
-2.6188083E-5
0.0035549472
0.0026357945
4.6291514E-4
-2.271678E-4
0.0012144356
5.4854323E-4
-5.51676E-4
6.1871094E-4
8.751045E-5
4.5936653E-5
0.001531394
0.0020019913
0.0023534019
5.5196846E-4
-0.0015546362
-3.478289E-4
1.8490742E-4
-8.9517515E-4
-6.9164543E-4
1.9262655E-4
2.061659E-4
-2.4021152E-5
8.199731E-4
9.034596E-4
-5.078053E-4
-9.921173E-4
-0.0014965612
-0.0028298728
-0.0029924226
-0.001892087
4.8404696E-4
0.0024440426
0.0015892056
7.572945E-4
2.7762487E-4
-0.0018181591
-0.0028144799
-0.0018452251
-4.8571088E-5
0.0018189336
0.0030654334
0.0029013075
5.343619E-4
2.3412876E-4
0.0012671469
-0.0010133999
-0.0012492288
7.1865757E-4
3.0824833E-4
-6.411189E-4
-6.940995E-4
0.0014445914
0.0017549878
-1.323523E-4
0.0014524678
-1.5342154E-4
-0.00421345
-0.0023087978
-9.450339E-4
-0.002179665
-4.596125E-4
0.0022549925
0.0026013535
0.001575436
4.7901433E-4
-5.124664E-4
-6.434693E-5
-5.171846E-4
-0.001608479
-1.91451E-4
-7.224052E-4
-9.526824E-4
0.0013601494
2.2673254E-5
-5.419545E-4
0.0017478366
0.0021386878
0.0015726119
-5.2795815E-4
-0.0025199754
-0.002270421
-0.0014994377
-2.879534E-5
7.7213475E-4
-3.3536056E-4
-8.535838E-4
5.538987E-4
2.2761192E-4
-0.0016171494
4.288557E-4
0.003025488
0.0032261722
0.0024672616
2.3440503E-4
6.4537255E-4
0.0020890879
0.0011621859
5.208272E-4
-0.0015131044
-0.0021656733
-3.902193E-5
-6.453391E-4
-0.0022731707
-0.0023624054
-0.0015862464
-9.3172456E-4
1.6769259E-4
0.0018492213
1.17157986E-4
-0.0019312584
-0.0013076416
-0.0013599506
-8.584802E-4
-6.2178617E-4
-0.0010437106
-1.653585E-4
9.953268E-4
0.002381346
0.001156176
-6.462232E-4
0.0010193145
0.0010523488
5.473463E-4
0.0016939417
6.3313317E-4
1.3759527E-4
0.0017701593
0.0019046722
6.3793646E-4
1.7781262E-4
-5.4792623E-4
-0.0020428333
-0.0019886692
-0.0021743507
-0.0023626934
-3.8784964E-4
1.461723E-4
3.4772555E-4
0.0010186068
5.592565E-5
4.4301123E-4
-4.3240728E-4
-0.0018706823
0.0016055639
0.0035979655
0.002255757
0.0016448888
-6.217535E-4
-0.0022813287
-9.80208E-4
4.3356576E-4
2.874097E-4
-0.0018264526
-0.0024253465
-0.0016007669
-0.0020120793
0.0010682768
0.005107737
0.0033899834
0.0015528884
0.0020245665
2.1990608E-4
-0.0010389105
4.66203E-4
-1.80979E-4
-0.0023757867
-0.0018425254
-0.0016815136
-0.0018478727
1.9801108E-4
-2.1612072E-4
-0.0012489955
1.5179349E-4
-1.3447978E-4
-2.0772764E-4
1.7165752E-4
-8.2470744E-4
-2.450166E-4
1.3288124E-4
-4.9818027E-5
-7.5331474E-5
-0.0020132011
-0.0026248451
-0.0014399763
-6.5935374E-4
5.899834E-4
8.688201E-4
0.0010304129
0.0030394718
0.004580108
0.004300503
0.003921808
0.0033173792
-0.0013811243
-0.0059067006
-0.0017707809
0.0040669497
0.004328685
0.002265053
-0.0029943767
-0.0063570463
-0.0017997694
-4.5784228E-4
-0.0038560163
-0.0010990712
0.0023927046
5.656276E-4
-2.4385049E-4
0.0017964471
0.0021930365
-4.7495824E-4
-0.00279993
-0.004274998
-0.0061405823
-0.005220067
-0.001668379
0.0018927199
0.005629752
0.008280684
0.007092374
0.0015726436
-0.0021629932
-0.0011749642
-0.0017078421
-0.0028156587
-3.5239544E-4
0.0013324197
-1.2646204E-4
-0.0015100631
-6.29156E-4
0.0011898718
0.0018267932
9.969925E-4
3.3646057E-4
0.0010877482
6.00252E-4
-0.0016244233
-0.0031674458
-0.0039315834
-0.0026618782
-7.524524E-4
-4.1155267E-4
4.726315E-4
0.0013718213
0.0016117196
0.0019328736
0.001868252
9.973343E-4
-0.0015900726
-0.0018009937
0.0023074269
0.003151891
1.7614441E-4
-6.921945E-4
-0.0011749512
-0.0026775205
-0.0017093418
-2.5587762E-4
-6.3061377E-4
0.0011603163
0.004037448
0.004465073
0.0029530965
-1.8843869E-4
-0.0014344716
-1.3049014E-4
-1.0336118E-4
-0.0010223348
-0.0026085593
-0.0036214548
-0.0023915216
5.715549E-4
0.0043302267
0.004602801
0.0023688849
1.5561642E-4
-0.0036155207
-0.0028981431
4.601099E-4
-0.0018516113
-0.003875086
-0.0029854241
-0.0024212254
-0.0020930402
-0.004251978
-0.003913429
0.0018717967
0.0024886439
-0.0022190632
-0.002654825
-6.8986276E-4
2.3999564E-5
0.0022782916
0.005957321
0.008037621
0.007924828
0.006296515
0.0017289999
-0.0033120732
-0.002234243
9.3751313E-4
6.782068E-4
0.0016312969
0.0031636055
0.003660475
0.006244396
0.00584635
-6.8673224E-5
-0.0043429085
-0.004622682
-0.004590465
-0.0066198856
-0.008878113
-0.006861004
-0.001089524
0.0011963992
-0.00203366
-0.0053370427
-0.0062168394
-0.0036826732
8.825521E-4
0.0020081769
0.0013561917
0.0018959114
0.0011927884
0.0015790508
0.005028957
0.00666704
0.004099724
9.838954E-4
-8.7628374E-4
-0.001492528
0.0017628239
0.0031585472
-0.0018299577
-0.0023119862
0.0016226972
0.0012510475
2.6480926E-4
-2.9027328E-4
-0.0010417168
-3.433498E-5
1.4578667E-4
-5.400904E-4
-0.001306813
8.277247E-4
0.006462579
0.005653181
-6.0059037E-4
-0.0033532816
-0.0040892074
-0.0027050523
0.0023930392
0.0062746345
0.004956472
0.0022243035
0.0018322477
2.947366E-4
-0.0010671339
-0.001021378
-0.0038035037
-0.0048545655
-0.0031687377
-0.003851437
-0.004941143
-0.0048498027
-0.0024547456
-0.001892798
-0.0066105635
-0.0061702044
-0.0022986853
-0.00451037
-0.004969831
-0.0010136968
8.4391015E-4
0.0020508084
0.0041678404
0.005758509
0.006347117
0.0056918086
0.0050455215
0.004672633
0.0030870677
0.0014184262
9.19589E-4
0.0016758038
0.004681662
0.0069220145
0.0073497673
0.009938139
0.011475728
0.0083337985
0.0016184391
-0.007266638
-0.012241592
-0.012486347
-0.011203906
-0.006776019
-0.0037743961
-0.0036441414
-0.0017931956
-7.277759E-4
5.7344115E-4
0.0018513781
-0.0018818021
-0.003892323
-0.0011612967
-0.0017007355
-0.004767043
-0.005255192
-0.0036190215
-0.0023594468
-0.00157347
0.001507625
0.00477738
0.0043870797
0.002454173
0.0013723719
0.0012517349
8.249566E-4
8.6959876E-4
0.003216345
0.003985349
0.0030877548
0.0033386273
0.0017820759
-6.886157E-4
-0.0022021893
-0.0025608502
-9.7054447E-4
6.1685976E-5
0.002377076
0.004879525
0.004393419
0.007128788
0.009812153
0.007278245
0.0058080596
0.0046916096
-2.9710916E-4
-0.008794637
-0.014699533
-0.012759328
-0.008885682
-0.005196443
-0.0017839136
-0.0010477979
7.071129E-4
8.2084216E-4
-0.0014164386
-0.0020338704
-0.0049491236
-0.006037768
-0.0026957218
-0.0025700696
-0.0019744695
0.001728635
0.001315627
-1.5184624E-4
0.003074045
0.0042689154
0.0013451467
0.001648316
0.0028933391
0.002217371
0.005248759
0.0092711365
0.008796577
0.00710874
0.0050520436
0.0011636016
-0.0011835232
-0.0023575488
-0.004596513
-0.0042158747
-0.0015559649
-8.8439934E-4
-0.0019393173
-0.0027164475
-0.0022336864
-0.0028648947
-0.0046491385
-0.0034323889
-0.0011620696
-6.0914684E-4
7.909769E-4
0.0027118279
7.065211E-4
-0.002862107
-0.0012070533
0.0011189438
2.0203156E-4
0.0013117837
0.0028040367
0.002087343
0.0011288782
0.0011816578
0.0017939018
-0.0012942813
-0.0045785154
-0.003146423
-0.0026859909
-0.0033388122
-0.0023266664
-0.0013702826
1.1735445E-4
0.0021030032
0.0035453418
0.0029550334
0.0011576947
8.643297E-4
-1.7979137E-4
-0.0016063417
-6.798293E-4
6.0043443E-4
0.0020509067
0.003438645
0.0029544537
0.0034870275
0.0062877266
0.0072315633
0.005791175
0.0043845647
0.0025508972
0.0013113443
0.0013225847
-0.0018922902
-0.0075478298
-0.008927317
-0.0072904723
-0.006533377
-0.0050865286
-0.0042147003
-0.0042523593
-0.002679618
-0.0026365616
-0.0048863846
-0.0058419914
-0.004774857
-0.0029533561
-0.0030884643
-0.0028470324
1.4749242E-4
5.5935764E-4
-9.1983075E-4
5.8007956E-4
0.0037669577
0.007622087
0.010786142
0.009899149
0.0074729933
0.007865236
0.008273981
0.0074844006
0.007924864
0.007985005
0.008754273
0.010052614
0.0066840746
-9.1199E-6
-0.006314162
-0.010803227
-0.012180674
-0.011072023
-0.008858963
-0.006755116
-0.0051923245
-0.005993338
-0.0072332653
-0.004625543
-0.0029200548
-0.0028826871
-0.0019211873
-0.0034356464
-0.004203507
-0.0026455026
-2.542264E-4
0.0043560145
0.004706472
2.936892E-5
-0.0018950953
-0.0021941585
-0.0029475645
-5.99759E-4
0.0034832777
0.0035537397
4.1985614E-4
-0.0019086504
-3.2295732E-4
0.0064714043
0.011024442
0.011160137
0.01091651
0.0071150535
0.0033048927
0.0022592577
-0.0019674234
-0.006037665
-0.0056758597
-0.0014532276
0.006596758
0.013155922
0.013232296
0.008798871
0.0048982613
0.004412978
0.0041119144
-0.0031090498
-0.014095187
-0.016901229
-0.01503796
-0.01549277
-0.0143885845
-0.015054193
-0.017134856
-0.015636167
-0.01642206
-0.019000044
-0.017130211
-0.012263231
-0.007646653
-0.0015724432
0.0066711577
0.009741367
0.009272914
0.013072553
0.018912494
0.025026284
0.026813742
0.023832753
0.022504322
0.01549618
0.0053188023
0.0040382124
0.0068124826
0.012043483
0.020364242
0.025729831
0.026223315
0.023182113
0.021242583
0.016455563
7.741602E-4
-0.019981043
-0.036521126
-0.04335775
-0.04383202
-0.043687917
-0.040849287
-0.038096514
-0.032991473
-0.022955906
-0.020424617
-0.022116434
-0.018816615
-0.016337132
-0.009082124
0.0057460465
0.015050504
0.017140882
0.01601833
0.012722037
0.008233179
0.00453537
0.012989631
0.025507372
0.01832072
0.0056603802
0.00645008
0.010395725
0.017512552
0.02978048
0.032672934
0.019748839
0.0034266608
0.002521904
0.01800068
0.036354177
0.04900827
0.05316072
0.052050654
0.03960904
0.012383627
-0.010012935
-0.0202809
-0.027843287
-0.032551695
-0.03057889
-0.028300146
-0.035748895
-0.046932228
-0.054896668
-0.05914532
-0.057698198
-0.061190315
-0.071802765
-0.08025172
-0.08040653
-0.05405847
7.8672654E-4
0.061401542
0.10818731
0.12685496
0.11931337
0.102226585
0.09050764
0.07926147
0.052952934
0.017152438
-0.019762333
-0.04393606
-0.043203987
-0.058433823
-0.116022535
-0.16094957
-0.14066428
-0.09196518
-0.07448901
-0.05197681
0.0048296438
0.031008614
0.017703217
-0.0030535928
-0.03300622
-0.030905508
0.012882953
0.043790057
0.058185883
0.08560278
0.15985596
0.28203705
0.38591585
0.44989148
0.47748744
0.40237132
0.21539323
0.015892196
-0.16495927
-0.35730687
-0.46696997
-0.42137232
-0.3641898
-0.38472623
-0.37124538
-0.28300214
-0.21984708
-0.22151755
-0.24034326
-0.25219378
-0.23133288
-0.1529313
-0.05089373
0.057673126
0.17169906
0.27735472
0.36514232
0.38672468
0.35743728
0.36024183
0.38795003
0.41194957
0.42494997
0.4087584
0.3869955
0.35151082
0.21975675
-0.0123498365
-0.22560617
-0.3469948
-0.39690328
-0.39982042
-0.40768787
-0.43926555
-0.42369574
-0.3683639
-0.34244016
-0.3119136
-0.23783343
-0.1570824
-0.06685728
0.03422924
0.09816818
0.1430857
0.18627597
0.21235974
0.2600334
0.3115663
0.34283736
0.39722875
0.41410023
0.3310253
0.22526844
0.14242032
0.024167616
-0.1491348
-0.27788478
-0.3163426
-0.32714754
-0.28983372
-0.2040544
-0.16192713
-0.14157793
-0.09853201
-0.060134225
-0.021596935
-0.023672493
-0.09200949
-0.13893452
-0.12522867
-0.053337764
0.07099215
0.1798838
0.25151607
0.32067445
0.38015166
0.38211107
0.31085235
0.21541795
0.10306214
-0.028590387
-0.12642069
-0.17904717
-0.18484446
-0.1676793
-0.18111874
-0.17955577
-0.13117269
-0.088551536
-0.073444135
-0.07230622
-0.07404521
-0.08675825
-0.09280863
-0.067310125
-0.03823951
-0.007164629
0.030738065
0.051190227
0.06699388
0.0862676
0.09534228
0.09330656
0.089401215
0.090287745
0.07926465
0.058210485
0.04372034
0.022678986
-0.00530653
-0.02492519
-0.032104887
-0.029585576
-0.025996648
-0.021425415
-0.015582779
-0.013498299
-0.009276509
-0.0029410378
-0.0021723197
-9.776382E-4
0.0061742687
0.012503449
0.015508581
0.017503524
0.017293254
0.013891532
0.008154143
0.002578334
-0.003341009
-0.011667169
-0.02044693
-0.028516004
-0.033452436
-0.034151237
-0.033198155
-0.029934902
-0.025081635
-0.018794095
-0.011233825
-0.0056273877
5.483664E-4
0.0062708827
0.0072040944
0.00827831
0.010854671
0.011401516
0.0115956655
0.01305563
0.0138230575
0.011850613
0.010630896
0.011644245
0.010120794
0.008627256
0.00930114
0.007663095
0.0052410504
0.003701199
0.003060685
0.003681017
0.001684759
-5.128215E-4
1.7271926E-4
-6.932002E-4
-0.0025247198
-0.0034603432
-0.004888953
-0.007242194
-0.0099452045
-0.009083768
-0.0057439334
-0.0066153156
-0.010388728
-0.010000959
-0.0030308464
0.0033736646
0.0022609206
-0.0015654598
-8.521772E-4
0.0017708901
-4.419175E-4
-0.0021478503
0.0020989983
0.00464638
0.0068545127
0.0106087215
0.0089541385
0.0064766584
0.003929081
-4.5368195E-4
-2.2099384E-4
-6.274301E-5
-5.6969846E-4
0.0028201463
0.002475572
-6.7066535E-4
-2.8321284E-4
4.1016063E-4
4.3104985E-4
0.0018943639
0.001058965
-0.0035009685
-0.0037199915
-9.1060146E-4
-0.002157826
-0.0022393633
-8.317922E-4
-0.0020822429
-0.0035714284
-0.004197975
-0.003310382
-0.0033184707
-0.0038881158
-0.0019039515
-0.002334668
-0.004275994
-0.0054614586
-0.0067904396
-0.0027516147
4.7879628E-4
-0.0014803936
6.245337E-4
0.0028235235
0.0026066839
0.005332313
0.0057855723
0.0026463433
3.5466868E-4
0.0023692094
0.008840795
0.008802038
0.0036560404
0.0079130875
0.014979514
0.012348429
0.0044204523
8.631088E-4
0.0059546237
0.008885085
-0.0023294196
-0.015681913
-0.015713876
-0.008658855
-0.0049274266
-0.001549836
0.0029050314
-6.9158195E-5
-0.009470281
-0.014986621
-0.014873212
-0.011428858
-0.004677063
0.0021744003
0.0030478803
-6.4149307E-4
-0.0010781153
-2.0503999E-4
-0.0015391506
-2.7094733E-5
0.0030153922
0.0035097324
0.0033839096
0.004087357
0.004937937
0.0036874893
0.0028828215
0.0053776624
0.005486829
0.0026386096
0.001691209
0.002283111
0.0018493639
2.9755346E-4
7.67588E-4
3.6134393E-4
-0.0027127736
-0.0016943958
0.0012126914
0.0016511161
0.0010249643
-4.9791095E-4
3.1428946E-5
5.601905E-4
-6.627005E-4
-6.4923556E-4
-0.0037325593
-0.0064630546
-0.0023802812
0.001041532
6.13761E-4
-4.734874E-4
-0.001695175
-0.00214632
-0.0023676944
-0.003440456
-0.0036451595
-0.0018898539
-0.0015419652
-0.00152342
0.0011955337
0.001712441
0.0010836476
0.0019414823
6.7887845E-4
6.816731E-5
2.2046258E-4
-5.975482E-4
-4.1908745E-5
9.181417E-6
3.9619333E-4
0.0012959003
0.0028970432
0.006094956
0.0017219778
-0.0052609434
-0.0026074424
-4.0048413E-4
-0.0020601016
-8.220811E-4
-1.2708199E-4
9.7725104E-5
0.0010372736
7.572216E-4
3.3123966E-4
-7.0302177E-4
-0.0012349267
-2.1718832E-5
8.3801866E-4
5.9597316E-4
-2.3972656E-4
1.3499067E-5
-1.6202555E-4
-0.0022367118
-0.0013277255
0.0015212381
0.002320736
0.0018540582
-2.247435E-4
-0.0010191852
-8.282937E-4
-0.0021334167
-1.3057729E-4
0.0019779836
4.677009E-4
5.345865E-4
9.903132E-4
5.9641636E-4
-2.456137E-4
-0.0018377664
-6.585384E-4
-5.9691283E-5
-0.0019244716
-0.0012153634
-2.942621E-5
2.7205414E-4
9.183015E-4
3.7166126E-5
-4.52135E-4
2.1427103E-4
7.5587456E-4
0.0021283037
0.0014335803
-0.0022551767
-0.0035799027
-0.0014545979
-8.7386936E-5
-0.0010622103
-7.364903E-4
0.0017153494
0.0022726678
0.0021784657
0.002090968
3.9277293E-5
-8.109229E-4
-0.0016163619
-0.0033462255
-0.0017535975
0.0014554248
0.003627258
0.002684228
8.231958E-5
7.020094E-4
-2.4212522E-5
-0.0021447442
-0.0017913649
-0.0022281876
3.9435187E-4
0.005469054
0.006374649
0.0059148315
0.004078013
3.5107808E-4
-0.002301628
-0.0037014433
-0.0032303154
-0.0023939577
-0.0019081479
-0.0016061006
-0.0022805415
-0.0015989203
-0.001163962
-0.0012420339
0.0011366697
5.314627E-4
-0.0035277847
-0.003660241
-0.001310986
-3.402339E-4
4.6439686E-7
-2.2946125E-4
-7.1338547E-4
-8.346463E-4
-5.698313E-4
8.2131155E-4
0.0017948209
9.921113E-4
2.9534183E-4
0.001120235
0.0035633047
0.0038188044
0.0014403415
0.0025483973
0.0036445777
0.0010212424
-2.1029536E-4
-5.45344E-4
-5.7094917E-4
3.375814E-5
-5.158603E-4
3.9838027E-4
7.1210164E-4
-0.0013378569
-5.57466E-4
9.412577E-4
-1.8701365E-4
-8.1303634E-4
-0.0012992009
-0.0023289446
-0.0012165615
-3.0858344E-5
-7.727946E-4
1.4178628E-4
9.694022E-4
-0.0015915202
-0.0029931685
-0.0014198545
2.5413575E-4
0.0013293595
9.046699E-4
-0.0014387378
-0.0024840264
-2.2155404E-4
0.0016377761
0.0014822026
0.0018024808
0.0013354345
5.7942216E-5
3.1867523E-5
-1.4524857E-4
2.271424E-4
0.0013259557
2.550333E-4
-0.0012517609
-9.53802E-4
2.447638E-4
0.001921419
0.0013694996
-0.0011817047
-4.548236E-4
0.0017629146
0.0015793932
7.909129E-4
-3.2361026E-4
-0.0017736186
-0.0020833914
-4.679471E-4
0.0016027805
0.0011177527
4.5483277E-4
1.7196528E-4
-0.0010996507
6.4833247E-4
0.0010635199
-0.0011374163
0.0010061173
2.5146827E-4
-0.0034783552
-5.9351325E-4
0.0014787767
-0.0014608639
-0.0037673302
-0.0038612161
-7.768563E-4
0.0025131477
0.0024165967
4.4687124E-4
-2.2508243E-4
0.001124817
4.4408676E-4
-0.0010478924
-1.00828125E-4
-1.7146177E-4
4.9070244E-5
0.0021433672
0.001938186
6.1951095E-4
7.694877E-4
8.8230026E-4
5.285014E-4
5.481504E-4
6.4520416E-4
7.584547E-5
-5.4982904E-4
-1.7129778E-4
7.381311E-4
8.6005067E-4
2.1947832E-4
-7.5653946E-4
-0.0019818537
-0.0022168898
-0.0014023137
-2.3207902E-5
0.0016954525
0.00147851
-3.7559372E-4
-7.499216E-4
4.8285766E-4
6.982394E-4
-1.1652373E-4
1.4148491E-4
2.3944545E-5
-1.6825329E-4
-2.3774523E-4
-0.0017475195
-5.574366E-4
-8.130039E-5
-0.0018199559
0.0016812396
0.0017771916
-0.0015008438
0.0012687278
3.8140253E-4
-0.0012463997
0.0017281405
4.1933646E-4
-1.5654585E-4
3.2274227E-4
-0.0021976323
-8.3069364E-4
9.957374E-4
-9.159832E-5
4.7822425E-5
1.7195808E-4
1.01250705E-4
7.7333255E-4
5.663604E-4
-0.0010883277
-0.0015797854
8.2587043E-4
0.0016773184
-3.7490574E-4
-7.758263E-4
-6.2383886E-5
-2.8807888E-4
1.5286497E-4
4.3144534E-4
-6.447272E-4
-0.0012186032
-2.1863749E-4
0.0012736775
9.2465454E-4
2.2411946E-4
0.0019553099
0.0018029808
-9.789242E-4
-0.001194079
-3.1850772E-4
-2.6059384E-4
3.9229039E-4
5.4573553E-4
-8.642401E-5
-7.237408E-4
-0.0012121439
-5.8109564E-4
5.877913E-4
0.001023254
0.0014051603
0.0011352784
-6.3963176E-5
-7.801935E-4
-0.0015439729
-4.5598714E-4
0.0017814442
2.588405E-4
-6.421643E-4
0.0010441043
1.0436509E-4
-0.0011448981
-0.0013831789
-0.0018718125
-0.0010398602
-8.137745E-5
-5.368373E-4
-0.002051978
-0.0016582854
0.0011026068
0.0017038536
8.486043E-4
0.0010907381
0.0016932307
0.00125905
-8.958712E-4
-0.0018843947
-8.311604E-4
6.211199E-4
0.0014434928
-3.3154828E-4
-0.0012133229
0.0012944125
0.0019316411
4.3242265E-4
7.850145E-4
0.0020303726
0.0013641459
-7.108094E-4
-0.0013363161
-4.927637E-4
-1.2283027E-4
5.4352445E-4
0.0010607037
-5.952654E-4
-0.0013809178
-1.315384E-4
-3.6230884E-4
-6.207183E-4
-2.3138343E-4
-1.62325E-4
0.0011747394
8.4576284E-4
-6.1909616E-4
4.6101333E-5
-5.1274814E-4
-0.001069698
-5.0254696E-4
-0.002002769
-0.0019554305
-1.2390174E-4
-3.5192916E-4
-4.037024E-4
2.950462E-4
4.1551763E-4
4.961789E-4
9.085751E-4
0.0013150336
8.202563E-4
0.0014828707
0.0014190578
-0.0024865642
-0.0030996327
-3.2599553E-4
3.6081948E-4
0.0019338595
0.002244447
4.1592863E-4
4.3366963E-4
6.650795E-4
0.0013837469
0.0011992434
-4.7070262E-4
-3.132616E-4
-7.38896E-4
-7.840786E-4
4.293325E-4
-2.2753418E-4
-5.1006453E-5
7.3702534E-4
3.272075E-4
1.7511281E-4
-0.001026341
-0.0024925189
-6.974946E-4
0.002616094
0.0022493356
9.1264193E-4
0.0013752169
-0.0012040463
-0.0036293252
-0.0026281495
-0.0017797921
-5.1818945E-4
-3.8021678E-4
-5.297754E-4
0.0018977318
0.0012722523
-0.0034628452
-0.0047768997
-5.951077E-4
0.0022688194
0.001908658
0.0022414257
0.0011361914
-4.5505774E-4
2.5738847E-5
8.310611E-5
0.0012452764
0.0035778543
0.0036415157
1.4065184E-4
-0.0030143915
-6.656747E-4
0.0014395919
1.407942E-4
1.2327456E-4
3.4737863E-5
-3.9509003E-4
4.2997507E-4
0.0013669502
4.889863E-4
-0.0021654568
-0.0024242033
-8.789673E-4
0.0010578631
0.0028859295
1.4205004E-5
-0.0034878065
-0.0035103546
-0.002565192
3.1255273E-4
0.0014079671
2.4900134E-4
0.0018031438
0.0021213514
8.0876524E-4
0.0013617285
0.001395138
3.0454837E-6
-0.0019451126
-0.0023726262
-0.0015210818
-0.0018189604
-2.0483516E-4
0.0016461421
2.906707E-4
2.9501176E-4
0.0012087054
5.7169684E-4
-6.1956426E-4
-0.0020492615
-7.2041777E-4
7.747342E-4
-4.057995E-4
0.0010354281
0.0027646741
9.965366E-4
-2.2150735E-4
-5.942311E-4
-0.0014584801
-0.0010594985
3.592138E-4
4.392439E-4
6.3154125E-4
0.0015675641
-2.8587642E-4
-9.4552233E-4
0.0014553613
0.0010643712
7.7448686E-4
0.0013292836
-6.7201117E-4
-5.4366316E-4
4.4038123E-4
-0.0013795038
-0.0021839193
-0.0023113505
-0.0022439726
1.3042871E-4
9.2612416E-4
-9.250013E-4
-1.2286127E-4
0.002381676
0.0015373394
-8.114549E-4
-9.1702346E-4
-3.545626E-4
-1.12721544E-4
1.6800068E-4
-8.0826227E-4
-2.7697743E-4
0.0020850392
0.001129228
-5.7282776E-4
-4.61905E-4
-1.5667974E-4
0.002019825
0.0024537526
-4.7482885E-5
-4.553569E-4
-3.2972352E-4
-4.7708175E-4
-2.7652687E-4
-2.1409414E-4
7.6289795E-4
-6.635054E-4
-0.002873212
-0.0011953308
3.7316218E-4
2.8851276E-4
-9.7799326E-5
-6.9509225E-4
8.7037066E-4
0.002258802
4.093652E-4
-5.2070135E-4
5.339743E-4
4.313378E-6
-5.325406E-4
1.8528033E-4
-6.3521334E-4
-0.0018968786
-0.0013460983
5.0818606E-4
0.0019726965
0.0015423887
9.0351625E-4
1.4510726E-4
-8.220123E-4
4.6944516E-4
4.256742E-4
-0.0016698936
-5.2344747E-4
8.451894E-4
2.1898304E-4
7.446585E-4
7.3757523E-4
6.195765E-4
0.0015042361
-1.0236647E-4
-0.0017101236
-6.4668304E-4
-3.9717997E-4
-4.8546688E-4
-1.9763818E-4
-9.055014E-5
5.123421E-4
-5.535075E-4
-0.0015119277
-6.895681E-4
-0.0010768995
-6.82671E-4
0.0014138242
0.0024474445
0.001142145
-0.0018348974
-0.0022019125
-2.9883286E-4
3.903381E-4
4.119409E-4
-2.4174727E-4
-6.00952E-5
9.604758E-4
6.928962E-4
0.001345587
0.0022648515
0.0011789635
2.6745306E-4
8.3849556E-4
0.0010498322
-7.893191E-4
-0.0023835648
-0.0023097708
-0.0021453972
-0.0011779626
3.272853E-4
0.0010615191
5.758876E-4
-9.925786E-4
-0.0013653619
-9.071105E-4
-2.612382E-4
0.0013788322
0.0018447858
0.0017455323
0.0020185611
9.3847176E-4
-2.2488147E-4
-8.367725E-4
-8.207316E-4
2.1963369E-4
0.0010527757
0.0015802325
2.7022418E-4
-0.0013784285
4.6237852E-4
0.0013258739
3.9618913E-4
5.756692E-4
-0.0020244592
-0.002843138
0.0012193113
2.0090814E-4
-0.004340431
-0.0050821844
-0.0026529413
0.0014518413
0.0016326321
-6.949808E-4
0.0010037535
0.0016977637
2.4307186E-4
-1.4206802E-4
-7.8678725E-4
8.336027E-5
0.0010477212
9.0005156E-4
0.002420168
0.002880925
0.001574167
4.416053E-4
-0.0016879494
-0.0020366374
9.808372E-4
0.002249991
8.0863957E-4
2.5762734E-4
-1.7836824E-4
-0.0011917448
-4.6414862E-4
6.929625E-4
2.511837E-4
2.4904907E-4
6.37876E-4
-0.0010737643
-0.0020877263
-7.537353E-4
-0.0010370653
-0.0015317384
-2.576314E-4
4.1755044E-4
0.0011813262
0.0010372981
-3.814821E-4
-1.12974994E-4
1.7607112E-4
-7.8350963E-4
-0.0015022971
-0.0014866635
-5.235865E-4
7.2541914E-4
8.5297413E-4
-0.0011946906
-0.0015860718
0.0013775355
0.0018697793
6.474153E-4
1.7112668E-4
-5.251103E-4
0.001465829
0.0027054038
8.277249E-5
-0.0011261
-0.0011178944
-0.0013554181
-6.4435235E-4
-1.3859673E-4
7.175585E-5
-1.6963917E-4
-1.1631838E-5
0.0016732279
0.0016991595
1.6781384E-4
4.905875E-4
0.0010386818
7.9476467E-4
9.383082E-4
-1.8303895E-4
-0.001964973
-0.002024939
-6.190645E-4
7.8312046E-4
-6.905103E-4
-0.0029222404
-9.615061E-4
0.0013832178
0.0010383091
0.001075089
0.001576202
0.001534638
7.752348E-4
-3.4401903E-4
-9.667912E-4
-7.2607026E-4
5.1608856E-4
-9.863407E-5
-0.0016736169