0.0020815458
0.0011614986
7.9196E-4
0.0020169439
0.0012691366
0.0014111445
0.0023777937
0.0010505124
-5.045691E-4
-0.0017902448
-9.2139986E-4
-7.5368534E-6
-3.3026282E-4
6.786196E-4
-8.260484E-4
-0.0034187483
-0.002578086
-6.947046E-5
0.0010918096
1.6147806E-4
1.6862286E-4
-1.8244147E-5
1.5664476E-4
0.0028881757
0.0016811833
-0.0014229015
-0.0011433632
-0.0012129248
-5.6654686E-4
0.0012803378
0.0012511477
6.416928E-5
-5.9646124E-4
1.3867111E-4
0.0010517277
7.3712604E-4
-3.1494047E-4
-0.001390936
-0.0023383119
-0.0011707457
0.001326858
-0.0013750197
-0.004538116
-0.0016684163
-7.836863E-5
6.894819E-4
0.0026352827
0.0015156181
7.70311E-4
3.3573568E-4
-4.1449952E-4
0.0011968953
0.0020745555
0.0021371758
0.0014045304
-4.1257586E-5
8.7691104E-4
8.740926E-4
-3.8728502E-4
-8.313225E-4
-0.0022235361
-0.0014170593
8.0935366E-4
-6.913548E-5
-0.0010690336
-0.001315933
-0.0019421196
-0.0012713535
-0.0013659465
-0.0019467297
-3.0831576E-4
6.0626015E-4
8.048029E-4
0.0014857447
1.8713133E-4
-9.183717E-4
-8.7965967E-4
-3.557544E-4
0.0018649524
0.0020907994
0.0013028131
0.002506562
0.0018711031
0.0017737696
0.0033074918
9.158772E-4
-0.002047284
-0.0018409371
-0.0011137966
-3.7875414E-4
-3.6129155E-4
-4.6667387E-4
7.6551974E-4
2.7388913E-4
-0.0015621185
-7.540633E-4
4.3805043E-4
-0.0010497232
-0.002509289
-0.001699783
-5.116561E-4
-1.9541546E-4
-1.5869543E-4
-5.3951575E-4
-5.625728E-4
-1.00761485E-4
-5.334525E-4
-6.46562E-4
2.1411355E-4
0.0014144843
0.00237975
0.0018833674
6.950848E-4
-7.2196434E-4
-0.0010361874
2.3012949E-4
-2.107862E-4
-2.611843E-4
4.4141343E-4
-5.5801525E-4
2.2539339E-4
0.0010002888
0.001180228
0.002176893
-5.928088E-5
-7.135021E-4
4.4903642E-4
-0.0019216498
-0.0011547904
0.0013173345
-3.8098183E-4
-0.0014219015
1.9242924E-4
0.0016906054
0.0012066861
9.1065693E-4
6.211248E-4
-0.001971988
-0.0013644228
8.427155E-4
-6.807234E-4
-0.0010346009
-1.9059973E-4
6.6784423E-6
7.3221425E-4
3.5069862E-4
-1.3674142E-5
-7.1284175E-4
-0.0017875037
-4.78201E-4
9.486933E-4
0.0010557906
8.3207624E-4
-9.093077E-5
-0.0010089353
-0.0011758156
-9.20992E-4
-0.0011129447
-6.561966E-5
0.0023290073
0.0018890504
-1.3689272E-4
-0.0015667117
-0.0029832616
-0.00208278
-6.70627E-4
-0.0010124609
-1.8761051E-5
0.001250195
8.415253E-4
0.0012389591
0.0013291804
-2.557692E-4
1.4761585E-4
0.0012522875
8.7682606E-4
0.0015480604
0.0017771746
0.0017310561
0.0011689477
-8.9440186E-4
0.0015760601
0.00350907
2.2940645E-4
-5.0110876E-4
-0.0011906411
-0.001451651
0.0010964577
0.0015824154
0.0012628302
-0.001808448
-0.003412962
-0.0019952732
-0.004559405
-2.2172037E-4
0.0013941863
-0.010513175
-0.008598911
0.0025969648
0.003217784
0.001967409
6.968499E-4
8.1197347E-4
0.0028114473
0.0019638475
0.0010691292
-1.8546949E-4
2.8283417E-4
0.0016039206
3.6904565E-4
8.488821E-4
5.010915E-4
4.7614542E-4
0.002461044
6.4422184E-4
1.1025386E-4
0.0013728992
6.1557104E-4
8.430676E-4
-3.9748364E-4
-0.0010929953
-4.401094E-4
-0.0019533585
-4.701593E-4
8.401878E-4
-0.002274162
-0.002846373
-7.376902E-4
0.0014960986
0.0025983134
2.288404E-4
-0.0015008217
-6.5464753E-4
-3.9917036E-4
-3.932043E-4
5.428446E-4
0.0014700902
7.857668E-4
-8.274615E-4
-0.0011958571
-6.859915E-4
-7.51692E-4
-0.0015677954
-7.9506985E-4
0.0017412275
0.0018103716
3.395083E-4
2.4862638E-5
5.335437E-6
4.7172135E-4
-6.33908E-4
-0.0017672839
8.724969E-4
0.0016901226
-7.7341765E-4
-0.0012928249
1.1435439E-4
0.0017038618
0.0016408933
6.139705E-4
9.7782766E-5
-9.86081E-4
-7.685421E-4
3.4984398E-6
-0.001306538
-0.0022455829
-0.0013425968
8.372047E-5
5.22862E-4
0.0010420129
0.0018204136
5.4480708E-5
-9.907038E-4
8.535242E-5
2.7666285E-4
0.0014527127
0.00124535
-0.0011825558
-8.2930515E-4
-4.1340152E-4
-0.0010465194
3.8959776E-4
0.0013251659
0.00118516
0.0014518689
4.2842314E-4
-6.988732E-4
-3.89979E-4
-0.0013264114
-0.0021401672
-0.0014887236
-0.0025435104
-0.0010311462
0.0027921263
0.0012915336
7.3525443E-4
0.003039895
7.258962E-4
-0.0012300782
-0.0011529454
-0.0021407497
2.7653967E-5
0.0024967797
0.0010381371
7.382426E-4
0.0022807317
0.0010693634
-0.0010886774
-0.0012334572
-0.0015545503
-0.0011804256
0.0010008373
5.2936794E-4
-0.0020441234
-0.002033379
-0.0012185501
-0.0012721141
-5.6180426E-5
1.9233202E-4
-3.620034E-4
0.0014107084
8.2236156E-4
-0.0011515969
1.612181E-4
4.7793268E-4
4.106777E-4
7.2297774E-4
-6.339533E-4
-7.6988555E-4
-5.0838984E-4
5.40503E-4
0.0014012047
1.9105096E-4
0.0017099525
0.0019492548
1.6841122E-4
0.002234982
0.0019788062
-7.321999E-4
-0.0014796583
-0.0019484641
-0.0018435265
-0.0015398565
6.2056474E-4
0.001513675
-0.001482736
-9.5126673E-4
1.06665095E-4
-0.0013979167
-8.074924E-5
9.62757E-4
8.577884E-4
0.0015110195
7.109551E-4
-4.7174378E-4
-6.260774E-4
-5.354559E-4
-8.2655734E-4
-4.4554897E-4
4.4692348E-5
-6.414902E-4
4.6369816E-5
0.0010302716
5.313654E-4
5.0284294E-4
5.9943245E-4
4.966432E-4
-5.8516883E-4
-0.002274957
-0.0028069394
-0.0024215183
1.0128571E-4
0.0019715247
7.644105E-4
3.7470213E-4
4.8433273E-4
-5.659185E-5
-6.4926055E-5
0.0011147339
0.0024470007
7.4880524E-4
-6.5203465E-4
5.757608E-4
0.0013805794
0.0019390885
4.1491463E-4
-9.0432644E-4
7.658638E-4
3.835683E-4
1.06366046E-4
3.5612946E-4
-0.0021460042
-0.0014132693
0.001293528
8.8224735E-4
-8.949426E-4
-0.003541681
-9.663306E-4
0.006104009
0.0011485134
-0.011495348
-0.010928213
-0.0013226926
0.0037652135
0.0048315045
0.0031845495
0.0011268362
7.025932E-4
-0.0012211432
-0.0014968349
0.0012082619
0.001929019
0.0015831623
7.682791E-4
-2.0746764E-4
3.852078E-4
5.4477446E-4
0.0013293898
0.0023777755
0.0012754453
9.326365E-4
6.5895886E-4
-0.0010149762
-0.0013295426
-6.5268594E-4
-3.0133565E-4
-4.970001E-4
-0.0016155283
-0.0028392344
-0.0024098197
-9.518456E-4
-7.020687E-4
-6.6591444E-4
-4.1622683E-4
5.337941E-4
0.0024569342
0.0019065678
9.297158E-4
8.7974925E-4
-4.4309226E-4
-4.5739472E-4
-9.2705124E-4
-0.0011501579
8.6502364E-4
2.987256E-4
7.2956225E-4
0.0019610722
3.0049736E-5
3.274284E-4
3.5844123E-4
-6.4613816E-4
3.8109618E-4
8.991287E-5
6.594543E-4
3.6813184E-5
-0.0029303345
-0.002856616
-0.002498219
-1.3853167E-4
0.0025991923
-9.332278E-4
-0.0025748594
-6.464126E-4
4.3007123E-5
0.0021938644
0.002490667
2.6038473E-5
5.37788E-5
0.0018974738
0.0025347606
0.0010556063
-4.1681045E-4
4.0525524E-6
5.803083E-4
-9.4800926E-4
-0.003530075
-0.002933043
3.1291298E-4
0.0016129062
0.0013495362
0.0010464395
4.129138E-5
-7.770223E-4
-7.5489987E-4
-7.84734E-5
0.001136497
5.679935E-4
-0.0011350266
-5.280973E-4
-1.9815838E-4
-4.208818E-4
0.0019393666
0.0026327341
-4.2510226E-5
-0.0023916627
-0.0029437076
-0.0014171371
-1.2723712E-4
3.475136E-4
8.6755474E-4
2.7915018E-4
4.1954935E-4
0.001665958
0.0026272791
0.0032806017
0.001807972
-0.0015491713
-0.0043909624
-0.004489761
-0.0024623044
-0.0013964981
3.4472006E-4
0.0024416633
0.0023387622
0.0023912985
0.0031893796
0.0035819116
0.0012932369
-0.0031405739
-0.003402634
-0.0011625136
-0.0013678892
-0.0016169286
2.906131E-4
0.0012125701
-0.0017757715
-0.00281418
-5.279956E-4
-0.0013098337
-0.0015400059
4.229608E-4
9.7260316E-4
0.001674225
0.0011332126
6.763945E-4
0.0024052665
0.0014278468
-0.0010135911
-6.911594E-4
1.7114237E-4
0.0010436105
0.0038125722
0.004751143
0.0025552786
0.0023997414
0.001221513
-0.0031023414
-0.0031699461
-2.86196E-4
-3.0731776E-4
-0.0019770744
-0.0020901181
-0.0014799999
-0.0027975324
-0.0029864935
-0.0017786513
-0.0028725015
-0.0024428305
-1.524602E-4
-2.949885E-4
-4.2866974E-4
-2.6944746E-5
-3.295341E-4
7.162285E-4
0.0012745847
0.0011435656
0.0023602173
0.0024899016
0.0025874546
0.0026344121
0.0012663911
0.0027829139
0.0036760701
0.0012114586
2.0453936E-4
-0.0017076443
-0.0035177015
-0.0014370987
0.0012486438
0.0010278597
-0.0028891054
-0.0038865143
3.715587E-5
0.0014927632
0.0013154752
0.0013130101
3.7774994E-4
5.217543E-4
-3.855084E-4
-0.003272752
-0.0024163483
0.001253498
-3.0218478E-4
-0.00319795
-0.0015118679
3.355961E-5
0.0013607321
8.810564E-4
-0.0016024993
-7.25101E-4
-9.237601E-4
-0.0022321644
-0.00318625
-0.0024669175
0.0027431436
-0.0019712152
-0.008796193
-3.5149933E-4
0.0050077164
0.0039198482
0.0044068075
0.003047163
0.0056962343
0.007190339
0.0035138787
0.0010384988
-9.887497E-4
0.001239253
0.0051928065
0.0056616124
0.0065043527
0.0052111433
0.001528005
-9.28913E-4
-0.003658907
-0.008115052
-0.01227223
-0.011287142
-0.00722216
-0.0042984392
-0.0017038238
-0.0012364399
-0.0021892558
-0.0024254443
-0.003145477
-0.0025290507
-8.2552544E-4
-0.0019733368
-0.0031331817
-3.4281216E-4
0.0011947064
-5.639674E-4
-3.8740333E-4
0.002934487
0.00800306
0.010191471
0.0080469055
0.0077588195
0.0076526804
0.0054912902
0.0044742287
0.0015159597
-0.0030794428
-0.0043126433
-0.0039912537
-0.003599149
5.524752E-5
0.0020829984
-0.0036998931
-0.0064309905
-0.0020980504
-0.00142552
-0.0013554848
0.0014425666
0.0010288997
-0.0012517874
-0.0018139065
-0.001112663
-0.0024323387
-0.0035056246
-0.001795685
-0.00300671
-0.0036010619
-0.0010875674
-0.0011010505
1.2332556E-4
0.0015525363
0.0010324271
0.003341062
0.005529733
0.0066323113
0.0064507276
0.0029000654
9.827185E-4
0.00222784
0.004344287
0.005743929
0.004870059
0.002061019
-4.7372556E-5
0.0012120041
-3.9220825E-4
-0.0040335893
-0.0019688886
-0.003190722
-0.007069865
-0.0047863205
-0.0041762916
-0.0055321045
-0.0052190735
-0.0052052136
-0.0026376424
-2.803376E-4
-0.0012260395
-0.0036517226
-0.005662239
-0.0027868657
0.0017706071
0.0011520842
-9.4064284E-4
5.7232747E-4
0.0033455621
0.0048452765
0.0075655975
0.010900841
0.01065664
0.007765363
0.0040889694
0.0010880381
3.318566E-4
-0.0010290566
-0.0042004087
-0.007830774
-0.010279251
-0.0096191615
-0.009984066
-0.010408945
-0.0041879117
0.0014460828
0.0014690495
0.0033396345
0.006369573
0.005729269
0.0038503218
0.0056689642
0.0090423105
0.0072778314
0.0046698917
0.0044587087
4.6455028E-4
-0.0031901477
-1.7911635E-4
0.0044782646
0.0058507523
0.004702721
0.0027541104
-3.006739E-4
-0.0030400264
-0.003737599
-0.003949242
-0.0030455526
-9.844933E-4
-0.0015719992
-0.0069145346
-0.013832321
-0.015961824
-0.013507927
-0.0109213935
-0.0080969585
-0.0032716
0.0032466338
0.0068431715
0.0063492744
0.008196175
0.012022007
0.0123165
0.010405194
0.009082347
0.008185271
0.007542141
0.0067263935
0.005818252
0.004375873
-4.230363E-4
-0.0060272478
-0.009197813
-0.0154307475
-0.025162747
-0.03122022
-0.028502442
-0.017637432
-0.006178107
0.004442712
0.015531694
0.023317201
0.028632313
0.027736926
0.018352196
0.008707733
-8.424082E-4
-0.007972314
-0.0030621223
0.008637123
0.014186341
0.01535247
0.017161287
0.013566842
0.007778856
0.0038559418
-0.0047558034
-0.012926047
-0.020931287
-0.031257812
-0.034493607
-0.03323886
-0.029379508
-0.026553921
-0.024150899
-0.008253426
-0.0023745382
-0.017666418
-0.020350024
-0.011095773
-0.0010496323
0.013762429
0.028494729
0.04105929
0.044689924
0.04592486
0.056029055
0.058394372
0.04253677
0.017052367
-0.002123741
-0.009010361
-0.014678343
-0.021164764
-0.026232056
-0.02401735
-0.015827276
-0.019028092
-0.026035108
-0.025110312
-0.020266376
-0.010215863
-0.0017210455
9.0729713E-4
-7.887617E-4
-0.0011073528
0.008630307
0.011588722
-9.353087E-4
-0.009817971
-0.007099563
0.0011469607
0.0062006004
0.007824419
0.011747442
0.016826922
0.017380053
0.011428409
0.006013999
-5.239618E-4
-0.009812409
-0.018366586
-0.032708447
-0.036905587
-0.022160964
-0.009899879
-8.9110347E-4
-0.0020196883
-0.015764033
-0.013982742
-0.0030514821
-5.0231174E-4
0.0076528084
0.019808535
0.021037942
0.02466345
0.0483768
0.07561693
0.08327492
0.07236732
0.052648593
0.022353077
-0.013645509
-0.032410245
-0.04125088
-0.055642992
-0.06343842
-0.07326998
-0.07902799
-0.055094447
-0.019171743
0.006024151
0.019545574
0.035541333
0.04714334
0.022441186
-0.01444414
-0.033987224
-0.039997958
-0.02313446
-0.0018740284
0.014050121
0.041880958
0.063989565
0.072223924
0.08267896
0.09088154
0.06390584
4.115875E-4
-0.044741012
-0.07221218
-0.10149676
-0.10138038
-0.09635932
-0.10485306
-0.08401637
-0.043838233
-0.012986579
-0.0011537394
-0.020285007
-0.044968665
-0.043295678
-0.008091378
0.047403373
0.08168808
0.09257657
0.11851899
0.14062418
0.1323198
0.12986676
0.14368568
0.13201037
0.07991193
0.025874104
0.012220659
0.0038222591
-0.048005052
-0.09607737
-0.120015085
-0.15848985
-0.17585278
-0.13963662
-0.08157499
-0.04855498
-0.072873734
-0.08341676
-0.028875053
0.0053068507
6.068937E-4
0.0070706503
1.2855885E-5
-0.031402163
-0.029675206
0.031278335
0.10484292
0.1467004
0.13938524
0.10721675
0.11198467
0.12709834
0.105259776
0.061402705
-0.030836675
-0.13592258
-0.15824766
-0.118366525
-0.067139976
-0.022632554
-0.005008174
-0.020845637
-0.056171957
-0.059329323
-0.024698779
-0.0013136034
0.017017983
0.035030853
0.044769406
0.06733836
0.079506315
0.057925206
0.050351594
0.08605596
0.089575395
-0.0056464165
-0.11586503
-0.1674545
-0.1784314
-0.1280592
-0.044540945
0.017301673
0.06686259
0.07170554
0.05420271
0.069870286
0.064033136
0.013985236
-0.05928094
-0.105971895
-0.06622659
-0.023305414
-0.036185578
-0.04099693
-0.0035482983
0.081903175
0.17737043
0.22630665
0.22865163
0.20636407
0.13878466
-0.017940214
-0.17842261
-0.22289833
-0.17930561
-0.114324756
-0.08482232
-0.07521203
-0.01152143
0.045912407
0.036949728
0.014609739
-8.035881E-4
-0.013094051
0.0011437278
0.037661687
0.031421646
-0.035773087
-0.09467384
-0.10983856
-0.08153549
-0.03677658
-0.014969609
0.009424958
0.041611657
0.042995185
0.022001287
-0.0011528084
-0.016983993
-0.010942018
0.0019413036
0.0045748046
0.01748562
0.035348617
0.04694007
0.07370969
0.10077948
0.12099638
0.11175025
0.046387877
0.031487916
0.058180455
-0.008729839
-0.08708476
-0.07866326
-0.023719136
0.028202727
0.03486497
0.03344487
0.019303087
-0.05309427
-0.08329628
-0.04795456
-0.04608876
-0.06738358
-0.060847573
-0.03138365
-0.02365321
-0.044338595
-0.04274412
-0.03075221
-0.0258317
0.00275217
0.038510997
0.060061246
0.06666373
0.05064778
0.022776706
-0.015388711
-0.049108107
-0.04302328
-0.02161275
-0.02010669
-0.02032174
-0.013484804
-0.008831585
0.0014966677
0.01573967
0.022823974
0.031651963
0.043577727
0.042820305
0.02994885
0.015373413
0.008701229
0.016813846
0.030593881
0.038536612
0.03777357
0.031996273
0.026326241
0.014525137
-7.0051174E-4
-0.009402807
-0.021164624
-0.03523439
-0.039460033
-0.037535198
-0.031820644
-0.02576253
-0.022978099
-0.018123897
-0.01511206
-0.014362091
-0.01046689
-0.0071716653
-0.004138649
-8.232599E-4
7.4659265E-4
0.001580733
0.003097413
0.0076493304
0.01019982
0.010462862
0.014005964
0.014049287
0.011752243
0.012327759
0.009524701
0.0053876424
0.0040723667
0.0026324086
2.1888406E-4
-0.0030305663
-0.006005713
-0.0077297725
-0.00968326
-0.011463578
-0.009990677
-0.0064289477
-0.004627222
-0.0032239368
-0.0018996925
-0.0023909623
-0.0022305904
-8.69431E-4
2.5323275E-4
0.0010058591
0.001272734
0.0010381393
-4.3656235E-4
-0.00126759
1.086765E-4
0.002383753
0.0042614215
0.0026802823
6.762341E-4
0.0027742314
0.0043495614
0.0060214214
0.010274582
0.011322329
0.00868743
0.007836322
0.009077506
0.0067101996
0.0016135301
0.0016279377
0.0024021426
-0.0018598312
-0.003954339
-0.003181604
-0.004959029
-0.005068846
-0.0026075759
-0.0048407153
-0.008518209
-0.007816216
-0.0077793435
-0.009255183
-0.008816149
-0.008442282
-0.008482614
-0.0071184887
-0.0046282434
-0.0029722885
-0.0027950574
-0.0021801116
-0.0011873561
2.6374415E-4
0.0026222616
0.0034480256
0.002967391
0.002025667
0.001283279
0.0031891158
0.003804005
0.0018014576
0.0030649449
0.005128255
0.0040326803
0.0013556762
-8.642233E-4
1.1898488E-4
0.0011934626
6.583559E-4
0.0023130479
0.0040768287
0.0049758083
0.005166924
0.0038597153
0.0031891568
0.0021489412
0.0024936732
0.0037989449
0.0023881074
0.0014883553
-4.379943E-4
-0.0014333695
5.5227E-4
-0.0016832837
-0.0026886137
-0.0017494776
-0.0031067843
-0.0018670437
-0.0035336495
-0.004985832
-0.0029169137
-0.003164329
5.386394E-4
-0.0029546458
-0.013242524
-0.006761828
0.0015840289
-9.4793635E-5
-1.4452207E-4
-0.0011554862
-0.0015823129
-2.679778E-4
-1.4357311E-4
0.0011873584
0.001686062
0.0011419242
-1.15000956E-4
4.3556068E-4
0.0034193962
0.0024965927
0.0020164575
0.003374045
0.0020745196
0.0023442341
0.0027762125
0.0016082275
8.084883E-4
1.1244423E-4
0.001112861
0.0018140713
0.0015030592
0.0014842749
9.236779E-4
9.7463327E-4
0.0010243925
0.0021810133
0.0044427044
0.003874633
0.0015332757
-3.0354175E-4
-2.6133208E-4
3.1500438E-4
-7.9491525E-4
-0.0022056417
-0.0039273743
-0.003165981
-0.0018750383
-0.0046496084
-0.0045043314
-0.002156646
-0.0027699487
-0.003292014
-0.003727109
-0.0025982987
-8.544403E-4
-7.1275135E-4
-1.5811253E-4
-0.0018171952
-0.0029362286
-2.2180207E-4
0.0010081748
2.0239457E-4
1.2369125E-4
0.0013461257
6.8385847E-4
-0.0012391089
4.6419748E-4
0.0015313096
0.0020728966
0.00413587
0.0028222306
0.00195322
0.0013454391
-9.793973E-4
9.359206E-5
0.0010643608
0.0010533764
7.4836833E-4
-8.7980874E-4
0.0011290486
0.001908568
3.2619544E-5
0.0015165274
0.0010942996
-8.8933366E-4
-3.857663E-4
1.05311796E-4
5.7802733E-4
-2.2333473E-4
-0.0016128188
-0.0013809799
-0.0018223803
-0.0022939644
-0.0010358078
-2.154292E-4
-0.0013169381
-0.0021998826
-0.0015952575
-6.0939183E-4
-1.7717385E-4
-0.0021200515
-0.0036438105
-0.0015837837
3.3842426E-4
0.0020319798
0.0029996564
0.0012148945
0.001131439
0.0015534387
-3.0645E-4
-5.8462983E-4
1.8439382E-4
3.352388E-4
0.0010177579
0.0011608733
4.1921532E-5
-4.2969457E-4
5.715361E-4
4.8043742E-4
-0.0012104668
-0.0016016535
-6.067236E-4
-0.0011908907
-0.003101196
-0.0025975758
-0.0011200459
-0.0012913164
-1.8479144E-4
0.0012154854
2.944156E-4
-6.028793E-4
-0.0011503162
-0.0016102892
4.1790836E-4
0.002841304
0.0016362368
5.622593E-4
0.0026138325
0.0029488243
0.0012095049
0.0011828602
0.0024960511
0.003586408
0.0033772136
0.0019033086
9.4463147E-4
0.0012874897
0.0012116947
3.096385E-4
3.3648225E-4
-2.6887274E-4
-0.0018341329
-0.0015344841
-3.9648573E-4
-2.7798797E-4
-0.0011388486
-0.0018855811
-0.0011370847
-5.700041E-4
-9.852616E-4
-3.2916278E-4
0.001176411
6.820471E-4
-0.0016128571
-0.0016585819
-1.929369E-4
-0.0010067243
-0.0027588864
-0.0032909014
-0.0028436484
-0.0022350235
-0.002516575
-0.0034993761
-0.0040541305
-0.0036150252
-0.002092095
-8.126638E-5
0.0011924286
0.0018052214
0.0033317963
0.005135178
0.0047305953
0.004312523
0.006684033
0.006531296
0.0030896377
0.0031310455
0.0047198036
0.00548481
0.007017776
0.007412933
0.008102395
0.008882138
0.0088002505
0.008618824
0.0014545604
-0.010392447
-0.0150391245
-0.013759911
-0.0121816415
-0.009389795
-0.0055124997
-0.003715669
-0.0043458818
-0.006459306
-0.005826906
-7.850239E-4
-0.005649281
-0.013757996
-0.003804163
0.0049086935
0.0016641853
0.0034396646
0.0051914784
0.0042138277
0.005137172
0.0048129736
0.0054593137
0.0055870414
0.0050086007
0.0049287933
0.003538217
0.0040969537
0.0034879271
1.7112582E-4
-0.0015825544
-0.002105356
-5.3145166E-4
-2.687878E-4
-0.0025066002
-0.0027799187
-0.0028313585
-0.0024774133
-0.0022576938
-0.003221092
-0.0014833556
1.396997E-4
-5.6478044E-4
-2.7763183E-4
8.4745005E-4
0.0013801155
0.0013868143
0.002284994
0.002507807
4.8214104E-4
-6.122388E-4
3.2358737E-5
0.0011152701
0.0014487598
0.0010333807
5.498254E-4
-0.0015806919
-0.0016316678
3.9490988E-4
-0.0022664808
-0.0036416883
4.976191E-6
0.0018770106
0.0018179042
7.67169E-4
-2.2073528E-4
4.033491E-5
-5.713896E-4
-6.039097E-4
-4.2009787E-4
3.3452138E-4
0.002213721
-3.6410484E-4
-0.00293937
-9.239593E-4
-3.0447033E-4
-2.7514613E-4
-6.8227696E-4
-0.0015815162
3.5777275E-4
4.3175695E-4
-7.117034E-4
3.5675243E-4
-5.639783E-4
-0.0016594557
-5.503512E-4
6.731403E-4
0.0012828385
6.9596624E-4
6.58047E-4
6.024921E-4
-5.877253E-4
-5.40846E-4
-2.7294797E-4
7.848008E-4
0.0027917454
0.0024146922
0.0015534216
0.0013337154
0.0012041478
0.0021409958
0.0017657438
1.1404356E-5
-8.3604257E-4
-3.5353628E-4
7.638713E-4
4.8621363E-4
-9.000164E-4
-0.0022301353
-0.001785713
9.5216813E-4
0.0019307467
0.001774401
0.0014836385
-4.7961026E-4
-9.445695E-4
-0.0013235837
-0.0022151426
-9.6506893E-4
-0.0011862981
-7.0220314E-4
0.0015239231
-1.6415483E-4
-0.0014679965
4.335129E-4
0.0013629015
0.0019084609
0.0024267177
0.0015540288
5.7829573E-4
3.9424296E-4
-0.001131294
-0.0030535676
-0.0014885241
0.0011199561
0.0012540029
-3.2593438E-4
-0.0012136347
5.0157926E-4
0.0011165683
-0.0010932822
-0.002266802
-0.0012221338
6.2883866E-4
-4.9146696E-4
-0.0030308191
-9.955406E-4
0.0011381266
-6.643216E-5
6.8561686E-4
0.0022194306
0.0010712459
2.6250813E-5
-4.955291E-4
-0.0012917236
7.725689E-4
0.0031676115
0.002618886
0.0023082418
0.0014309397
2.8437434E-4
3.2231252E-4
2.2098868E-5
0.0010336391
3.7859754E-5
-0.0015615101
1.0881938E-4
-0.002409981
-0.0039024113
-4.1506978E-4
-8.53895E-4
-2.1692377E-4
0.0027515893
0.0029789873
0.0021974756
-4.422037E-4
-0.0020325738
-0.002228942
-0.0022234004
-1.3299534E-4
-9.0465223E-4
-0.0013245355
0.001472126
0.0010562082
0.0010737653
0.0010541403
-0.0017729664
-9.480709E-4
3.1304482E-4
-6.8016E-4
1.1965889E-5
-5.4376404E-4
-0.0013814331
7.043849E-5
5.072291E-4
1.4371474E-4
-4.705519E-6
4.9038266E-4
0.0022167799
0.0024798103
0.0011744464
-4.0073257E-5
4.0730217E-4
0.0016772697
-2.1745123E-4
-3.7616867E-4
0.0017805214
-4.3563334E-5
-5.328547E-4
-1.1645053E-4
-8.033612E-4
0.0011712421
6.3942565E-4
-3.9631393E-4
-0.0019108269
-0.0049518077
4.6225803E-4
4.992844E-4
-0.00942245
-0.0062505575
0.0021505326
0.0025469696
0.0019414298
2.7974186E-4
-7.91709E-4
9.3824166E-4
0.0019656771
9.010979E-4
-0.0010397192
-5.728588E-4
-9.236127E-5
-6.0602406E-4
0.0016661301
0.002180891
4.5364932E-4
0.0011952346
3.094414E-4
-0.0016352605
4.3969936E-4
0.0027631563
0.0024001186
0.0012248764
8.79208E-5
-5.7340506E-4
-0.0015331332
-0.001895163
-6.128808E-4
-1.4681049E-4
5.992285E-4
0.0016319022
1.4583615E-5
-2.3869696E-4
0.0017181116
9.4546337E-4
-5.798676E-4
-5.063019E-4
-9.3184854E-4
-0.0011124256
-3.6190887E-4
-0.0014009797
-0.0034567697
-0.0032686328
-0.0014800034
3.055231E-4
6.015083E-4
-2.1186228E-5
0.0014003234
0.002842731
0.0014433659
-0.0011701544
-0.0010384147
0.0012305459
-0.0016588748
-0.004326634
8.0223585E-4
0.0025710175
4.6171524E-5
0.0018249239
0.002178845
-2.1294935E-4
-2.8740262E-4
1.6172354E-4
-2.8244508E-4
-2.9691611E-5
9.5710706E-4
1.2228526E-4
-9.59338E-4
4.475825E-4
2.065021E-4
-8.94974E-4
1.0183912E-4
-1.0548505E-4
-1.20028846E-4
5.959607E-4
2.9081941E-4
0.0012541607
8.9408475E-4
-0.0010048153
9.716255E-5
0.0021607063
0.00194066
-6.060334E-4
-0.0018501843
-6.206587E-4
-8.525153E-4
-3.6782655E-4
0.001407956
2.9570796E-4
-0.0012877668
-3.415894E-4
0.0013201571
3.85386E-5
-0.0026861676
-0.0017207327
5.939109E-4
0.001093607
7.70966E-4
3.74089E-4
7.822145E-4
4.560337E-4
-0.0016107411
-0.00251013
-3.2656576E-4
0.0019957076
0.0014675211
6.426807E-5
-0.0012686932
-0.0016643986
-7.4034516E-4
-8.1648247E-4
7.608857E-4
0.0026033767
6.055307E-4
-4.8813323E-4
4.1572133E-4
3.6703784E-4
-3.423929E-4
-2.9306218E-4
1.0851685E-4
-0.0014722622
-6.3005224E-4
0.0026032021
0.0010230675
-9.694127E-4
-6.702115E-5
1.2344916E-5
3.702801E-4
0.001572254
0.00236846
0.001647818
-3.3809923E-4
-0.0015441233
-0.0012193399
-2.7659244E-4
-6.164171E-4
-8.6621166E-4
-4.484589E-4
-0.0014646277
-0.0017422473
5.588405E-4
0.0032413783
0.0018275217
-0.0014605642
-4.4485775E-4
-2.2438672E-4
-0.0010111923
0.001448079
0.0012805751
-4.098449E-4
-0.0012300141
-0.0023363815
-0.0011713055
-6.8041636E-4
2.691971E-4
0.002722182
0.0012269699
-2.50616E-4
6.729146E-4
4.4621297E-4
-1.5557282E-4
-4.6781014E-4
-2.478124E-4
-2.0844718E-4
-0.0010090168
-0.0014732222
-4.933491E-4
6.813029E-4
-0.0010046648
-0.0012805515
0.0017119595
0.0010258956
-0.0012957306
-7.8068796E-4
-3.06108E-4
-6.3183357E-4
3.9682684E-5
0.0012564252
0.0010068987
0.00106706
0.001944065
6.871057E-4
1.1523196E-5
6.7864294E-4
6.6553353E-4
0.0012795904
0.0011041514
4.2223156E-4
3.4353511E-6
-0.0010777804
1.2010338E-4
0.0015791551
-2.7231273E-4
-8.7995024E-4
0.0010435211
-3.1244676E-4
-0.003118661
-0.001123967
2.8934635E-4
-8.555773E-4
-4.1424943E-4
-0.0018336523
-4.1468264E-4
0.0016016896
-0.0064197523
-0.0090309195
-6.6912844E-4
0.0030193562
0.003669354
0.0030786917
3.0363115E-4
6.8618415E-4
0.0010782123
-4.4568902E-4
-0.0010408969
5.591487E-4
0.0033999681
0.0030861087
7.7157584E-4
-3.789129E-4
-4.2185865E-4
0.0010828823
0.0015353806
-1.155638E-4
-0.0011102533
-1.6776544E-4
0.0012078396
3.567118E-4
-5.6819327E-4
5.595394E-4
0.001680424
0.0015356931
-9.222037E-4
-0.0029245724
-0.0018146879
-0.0011187327
-8.5519016E-4
4.5298063E-4
-3.7583377E-4
-0.0026266004
-0.0015165173
0.0015559692
0.0012620433
-0.0011287219
-0.0010240794
4.7755867E-4
3.8304704E-4
-4.2599677E-5
2.1243021E-4
1.458202E-4
2.9938488E-4
-6.172774E-4
-0.0019240803
-3.839477E-4
0.0011543953
0.0018235024
0.0014472259
-0.0012710094
-4.615731E-4
0.0013970825
3.5816303E-4
0.0012894026
0.001028609
1.346003E-4
0.0010183678
-2.8158285E-4
7.501791E-4
0.0026207473
-7.522058E-5
-0.0018871299
-0.0012023884
-3.2964206E-4
-6.809262E-4
-0.001184462
4.1311746E-4
8.35225E-4
-5.1033976E-6
-7.2750996E-4
-0.001113387
1.4461373E-4
-8.8790036E-4
-0.0019121867
4.96655E-4
4.5852485E-4
1.4516782E-5
0.0010262069
-4.7687735E-4
-9.1796234E-4
-4.6345045E-5
-9.635233E-4
-8.155506E-4
9.945688E-5
1.7569574E-4
0.001329419
0.0023218803
0.0014065489
-3.6383275E-4
-0.001510578
1.6784824E-4
0.002066781
4.9104786E-4
-0.0012985263
-0.0011749712
5.607107E-4
0.002122975
9.034252E-4
-1.451817E-4
-4.211314E-4
-9.050119E-4
1.676435E-4
6.336454E-4
5.411726E-4
6.452869E-5
-0.0011484891
5.08994E-4
7.703903E-4
-0.0018668186
-0.0010128473
4.4126698E-4
2.7880585E-4
2.9790733E-4
-8.5270463E-4
-0.0012126701
-4.1950025E-4
-4.7699938E-4
-5.27595E-4
-6.0574326E-4
-2.6273567E-4
8.5332314E-4
6.190164E-4
-4.8181147E-4
-1.4705739E-4
6.566533E-4
0.001026937
8.501519E-4
-3.63204E-4
-9.15853E-5
6.0405786E-4
-5.678485E-4
-7.435188E-5
-1.4840469E-5
-0.0011576613
9.6073E-4
0.0015288435
7.545248E-5
0.0012649865
0.0012939457
-3.8320977E-5
-2.1788059E-4
-4.6919176E-4
-3.56557E-4
5.0269044E-4
9.969882E-4
-3.7552972E-4
-0.0015457441
-1.4091053E-4
5.615294E-4
2.3916387E-4
-1.4058764E-5
-8.621955E-4
-4.741033E-4
3.4885784E-4
4.1355545E-4
-2.8170928E-4
-0.0015227039
-0.0010302605
-7.8706327E-4
-0.0016448996