-4.9892238E-5
-1.3440849E-4
-0.0010471768
-5.361697E-4
-8.9098985E-4
-6.832011E-4
0.003054664
0.0044646673
0.0016664845
-3.9477996E-4
-3.408557E-4
2.1378425E-4
-8.705491E-4
-0.0023001416
-0.0012367377
6.697183E-4
9.174093E-4
0.0012642638
0.0019899027
-2.4640822E-4
-0.0020730936
-8.02983E-4
-2.268843E-4
0.0013564295
0.002694447
5.36317E-4
-2.3819222E-4
2.517468E-4
-2.8509753E-6
8.162366E-5
-4.2974495E-4
7.573138E-4
0.001687838
-6.6052447E-4
-9.2463417E-4
-5.880718E-4
-0.0026452094
-0.0017682035
5.8628E-4
9.929391E-4
6.332602E-4
-7.5641915E-4
-2.2937302E-4
7.111159E-4
-0.0011852153
-2.7442552E-4
0.0012562841
4.152387E-4
0.0011214194
-2.1725547E-4
-0.0016111325
-3.2287525E-4
-0.001194628
-0.0011705799
-0.0010205035
-0.0024416137
1.2007225E-4
0.0028759548
0.001063868
-0.0014066137
-8.242189E-4
5.986611E-4
5.9928524E-4
0.0017514203
0.0014702564
-6.779991E-4
-5.717751E-4
4.2547956E-5
0.0016966086
0.0021332875
-3.6052553E-4
-9.526804E-4
-0.001787342
-0.0015928422
0.001217393
0.0020526822
0.0029082433
0.0018240287
-0.0013622801
-5.4310786E-4
7.68423E-4
-4.3695077E-4
-0.0015433349
-0.0013365147
-0.0013162
-0.0014697119
6.6616136E-4
0.0012860104
-2.533446E-4
-9.548585E-4
-0.0020292718
-0.0011275191
4.1319084E-4
9.1906363E-4
0.0018157478
6.7241536E-4
7.082766E-4
0.0011412055
-0.001132356
-7.161157E-4
4.0053015E-5
-5.667446E-4
7.5749145E-4
5.4648344E-4
-0.0012489092
-0.0010350337
3.4370192E-4
-2.0008166E-4
-7.035168E-4
0.0016162978
0.0017528796
-6.7914656E-4
-0.001220222
7.229087E-4
0.0027209558
3.0193213E-4
-0.0019321144
-1.9272593E-4
3.5653313E-4
0.0010224778
4.0006154E-4
-0.0029314102
-0.002252158
2.1546523E-4
3.7826257E-4
-7.694284E-6
-1.7017238E-4
7.827799E-4
9.589162E-4
-3.1197097E-4
-4.3228196E-4
-2.418059E-4
-8.284657E-4
-4.1704316E-4
8.5914554E-4
-1.4443908E-4
-0.00151723
7.695457E-4
0.0023784179
7.382953E-4
2.8307678E-4
9.82796E-4
4.9748446E-4
4.3914662E-4
9.4651716E-4
3.7397028E-4
-9.070293E-5
9.142614E-5
2.4744082E-4
4.7244554E-4
-4.4665267E-4
-0.0018744065
-0.0015438132
-0.0012909563
-0.0019957635
-5.58426E-4
0.0016342519
0.0017210093
0.0013145811
5.395322E-4
-1.0731993E-4
7.9407054E-4
5.0372333E-4
-0.0017464884
-0.0034653023
-0.0025308954
-3.066965E-4
-6.684063E-4
-3.8704163E-4
0.0013416336
2.2061799E-4
-6.7827664E-4
-1.8334895E-4
-3.1386022E-4
-0.0011455886
-8.0574804E-4
0.0020758812
0.0014238503
-2.7530052E-4
0.0017989015
7.159585E-4
-9.78105E-4
1.6652932E-4
0.0017398959
0.0037435468
0.0025494904
0.001541311
0.0015695654
-2.0971328E-4
0.0018366127
0.0029749083
8.0874364E-4
-3.6194376E-4
-0.0037417815
-0.0046899165
-0.0020073142
-8.326871E-4
-0.0010539368
-0.0036855408
-0.003719417
-3.5829144E-4
6.65214E-5
-0.0010148669
-0.0014962276
5.5791525E-4
0.0022435882
-9.666161E-4
-0.003090783
-0.0021173256
0.0010379932
0.0043842946
9.000394E-4
-0.0019364781
0.0023819369
0.0037304256
0.0017526135
4.7532786E-4
-0.0016444144
-2.7071926E-4
0.002327193
7.0411834E-4
-4.2762014E-5
8.2109583E-4
0.0017509789
0.0030872205
2.509532E-4
-0.0024915582
-1.8638845E-4
2.9135752E-4
-0.0018076801
-0.0025478315
-0.0015132151
0.0013007816
0.0024858073
-2.4576377E-4
-0.002512044
-2.2759846E-4
0.0026300093
0.0016526197
-9.0415945E-4
-0.0027789809
-0.0026674618
-0.0013366368
8.929105E-5
0.00164508
-1.0745702E-5
-7.491133E-4
0.0015981848
-0.0017257448
-0.0047513708
-9.294899E-4
0.0010096133
-4.2278366E-4
-0.0027012979
-0.0030865723
0.0015188721
0.004861871
0.0031801555
0.0010479268
0.0021680587
0.0042035226
0.0027058064
-2.8159487E-4
-0.0024405208
-0.002823919
-1.661501E-4
4.215921E-4
-0.0017568127
-0.0010803756
0.0011066658
0.001517075
3.6249027E-4
7.149046E-4
0.003775593
0.0040248134
-6.6889974E-4
-0.0050715655
-0.0040594744
5.8395625E-4
0.0011098955
-0.0033779645
-0.005901512
-0.003098882
0.0014722421
0.0026541317
9.939712E-4
0.0010213477
0.0030727843
0.0026772548
-2.9500015E-4
-0.001071649
-2.4812945E-4
5.4697075E-4
8.3673076E-4
-0.0013004319
-8.162123E-4
0.0018764324
-6.7421247E-4
-0.0031097105
-0.001967888
-0.0016635106
-9.152188E-4
9.0356654E-4
0.0032671138
0.0049391664
0.0028803868
3.6923992E-4
7.256879E-4
7.697187E-4
-9.407828E-4
-0.002363198
-0.0032185416
-0.003496717
-0.0025649786
-0.0013724274
8.6218544E-4
0.0035623568
0.0026937334
-2.0258603E-5
-6.280062E-4
2.8890884E-4
7.075715E-4
-7.1518065E-4
-0.0013036781
4.8717554E-4
0.0013577741
0.0011193029
1.9879546E-4
-0.0014852721
-7.429956E-4
7.1991445E-4
-5.5043184E-4
-7.5509556E-4
8.307253E-4
0.001461802
0.0020614753
6.126657E-4
-0.002016421
-0.0017890015
-0.0010584176
1.7119413E-4
0.00154361
7.6446956E-4
9.700706E-4
7.5783324E-4
-0.0011937985
-0.0018179718
-0.0017955141
-5.809976E-4
2.784922E-4
-0.0013843544
-0.0022970526
-0.0018891655
1.7602973E-5
0.0026101016
0.002517314
0.0017797331
0.0022995507
0.0017744603
-6.5084884E-4
-5.77652E-4
0.0024794098
3.9780152E-4
-0.002956668
-4.250046E-4
8.1213546E-4
5.489761E-4
0.0021698629
0.0013111999
-5.685207E-4
-0.0018130653
-0.0023297716
-4.540969E-4
-8.459042E-4
-0.0026034557
-0.0018615562
-0.0027569314
-0.002095666
0.0012323459
-4.8307137E-4
-0.0023789085
-5.735898E-4
-8.8312186E-4
-6.399531E-4
0.0012704546
7.1952783E-4
4.923608E-4
0.0019663894
0.0022582328
0.0016891501
0.003308407
0.0065809693
0.004943836
-2.53709E-4
4.1572555E-4
0.0038124896
0.0027308061
8.0571964E-4
-4.4058083E-4
-0.0024777402
-0.0035566476
-0.0043202974
-0.0045681107
-0.0028486378
-7.7091076E-4
-1.355669E-4
-9.110505E-4
-0.0011500684
-6.928359E-4
-8.331856E-4
-0.0025467556
-0.0046729166
-0.0016887251
0.0013918907
-0.0024123827
-0.0025568933
0.0025526627
0.0038016888
0.003713429
0.0031304136
7.6854683E-4
-4.911094E-5
0.0011290495
0.002641219
0.0019355777
6.202045E-4
0.0012723698
6.030355E-4
-0.0016720162
-0.0029477258
-0.0021018605
2.1796404E-5
5.902343E-4
1.1034726E-4
-3.3099315E-4
-1.8608218E-4
0.001186071
0.0013911375
4.830478E-4
-2.546949E-4
-3.4434118E-4
7.619531E-5
-0.0016674529
-0.0016133684
0.002047528
0.0022588314
0.0012017982
9.803309E-4
-0.0014457012
-0.0011734656
6.91864E-4
-5.571853E-4
-7.4778916E-4
2.1337222E-5
-5.4019765E-4
-5.708576E-4
-7.36793E-4
-0.0014051357
-0.0018376503
-0.0021007184
-0.0019111587
-0.0017086904
-1.7032877E-4
0.0022994676
0.0016022563
8.981354E-5
0.0015628354
0.0015186066
-5.472877E-4
8.652038E-4
0.0015854794
-0.0019752698
-0.0019562633
0.001084125
4.390173E-4
2.6445914E-4
0.0020184545
5.6108716E-4
-0.0016162056
-7.7118236E-4
-3.0348272E-4
-6.834585E-4
0.0016707123
0.0028466668
7.745936E-5
-5.720976E-4
0.0010092261
0.0011281918
3.3285725E-4
-0.0014486125
-0.0023390169
-0.001005563
9.2218496E-4
0.0016522281
-3.373992E-4
-0.0010847908
0.0011113525
0.001499551
1.6418801E-4
-9.217232E-4
-8.288384E-4
7.411266E-5
-6.549902E-4
-0.0014938214
-0.0012563545
-2.3348021E-4
5.378944E-4
-0.0012280552
-0.0012113119
8.6057314E-4
2.863693E-4
2.0882132E-4
7.516387E-5
-0.001347689
-5.518631E-4
8.988641E-4
0.0025335718
0.0028221172
1.7527425E-5
-6.6632195E-4
7.438279E-4
6.1385153E-4
-0.0010953844
-0.0023526442
-8.649307E-4
-1.1049782E-4
2.2498162E-4
0.0019859548
2.7851027E-4
-3.664585E-4
0.0022672361
4.2340223E-4
-0.002580031
-0.0024483847
-0.0017310015
-0.0012183416
-0.0010794059
-4.126598E-4
9.4774165E-5
8.761308E-4
0.0031427345
0.00341424
0.0019112114
0.0018249252
0.0027050201
0.0019882638
-0.001195969
-0.0027659582
-0.0018698727
-0.0010465136
-7.1261224E-4
-0.0010374415
2.2882517E-4
7.790665E-4
-0.0015358018
-9.7645493E-4
8.7529706E-4
9.1021345E-4
2.1534738E-4
-0.002168409
-0.0020833153
-1.8066977E-4
-0.0010228474
-0.0011722497
-6.9338264E-4
-7.758919E-4
2.077329E-4
7.245798E-4
8.0889266E-4
6.11081E-4
-3.3308755E-4
-4.1171088E-4
6.505348E-4
0.0015713138
0.0026142602
0.0042130006
0.002155245
-0.002741079
-0.002778691
-0.0011095871
-0.0020383499
-0.001398366
1.6967232E-4
0.0011176895
0.0018989677
0.001480483
9.071853E-4
8.8860566E-4
0.0013275917
0.0010292854
7.048722E-5
8.469887E-4
-4.5998047E-5
-0.00151092
0.0014424165
0.0022887145
9.2336826E-4
0.0022089297
-3.9738909E-4
-0.005004633
-0.0047764834
-0.0024693776
5.414629E-4
0.0011783539
-0.003198563
-0.0051148217
-0.0010505662
0.001320333
-0.0019635092
-0.0039962074
-0.0012753293
1.1050207E-4
-4.3757987E-4
7.391364E-4
9.1270846E-4
5.820431E-4
0.0027330664
0.003008899
0.0012697291
0.0012879857
0.001436342
0.0028389941
0.0038648574
0.0020890124
0.0031744405
0.0036529752
2.3987098E-4
1.3940572E-4
0.0016041781
0.0011590122
-0.0012403927
-0.0056509497
-0.0063373796
-0.0030155885
-4.6868104E-4
-3.1490074E-4
-0.001304354
6.6408666E-4
0.0023378932
4.944279E-5
-0.0016063977
-0.002278243
-0.0027902336
-0.001908171
-0.0013190381
-5.423546E-4
0.0014479547
0.002922887
0.0026972662
9.0196833E-4
-1.1285957E-4
4.9986306E-4
-3.7945327E-4
-2.8073002E-4
0.0029103127
0.0029779628
0.0011635075
2.777565E-4
-0.0022031784
-0.0017988103
3.5640664E-4
-4.241362E-4
-0.0013625326
-0.0025008877
-0.0023502263
-0.0018735002
-0.0042421143
-0.0031961538
0.0014647907
0.0037901914
0.0037588773
0.0032712833
0.0036924665
0.003327487
0.0014676251
-9.402496E-4
-0.003542578
-0.0039961766
-0.0022421016
6.6526607E-4
0.0028755248
0.0038193732
0.0051457845
0.0041426253
0.002779894
0.0029750147
0.0011489413
-3.8647276E-4
-0.0030413852
-0.0060499148
-0.0036552001
-0.0025125856
-0.0048399526
-0.0039022404
-0.0016717392
-0.001914045
-0.0020645086
-5.831346E-4
-0.0011501166
-0.0030044634
-0.002317158
-1.9850548E-4
6.787141E-4
-9.5705467E-4
2.4070083E-4
0.0035515411
0.0025669879
0.0036194187
0.0037417207
3.334286E-4
0.003106517
0.0027577176
4.4910648E-4
0.0059763486
0.00626162
0.003765479
0.002233493
-0.0037051286
-0.0019803827
4.2182516E-4
-0.004846522
-0.0029923622
9.7172527E-4
6.331965E-4
0.0014635545
-3.298162E-4
-0.0027549195
-0.0032877042
-0.004663136
-0.0054286267
-0.0052957744
-0.0016630029
0.0023058064
-0.0010263713
-0.003368132
-8.2419056E-4
-0.0019070867
-0.0014427896
0.0034661398
0.0029728892
0.0012183395
0.0032481325
0.0022039586
0.002670721
0.007018336
0.006204456
0.002195898
-0.001602739
-0.004878828
-0.0038359824
-6.209683E-4
0.0013710329
8.395454E-5
-0.002967851
-0.0023129827
-0.0011808267
-0.0011386595
6.0596113E-4
0.0012707923
0.0014573513
0.0027522934
0.00354577
0.00138295
-0.0029327737
-0.0031649154
-0.001565531
-5.3667737E-4
0.0032544234
0.004406391
0.0022405705
-4.1549827E-4
-0.004964387
-0.004489635
0.0011411152
0.0025484045
9.126807E-4
0.0011636486
0.0017907178
2.4133385E-4
-6.167285E-4
0.0010637132
-8.854364E-6
-0.0035854254
-0.0037595262
-0.003990512
-0.006814315
-0.005040798
4.0913397E-4
0.0039863735
0.006366744
0.005669565
0.0035680684
0.0031875288
0.0025778236
0.0032731644
9.4361795E-4
-0.007547424
-0.013867334
-0.014469361
-0.009649506
-0.0034908634
3.025784E-4
0.004571731
0.0057718656
0.0041383845
0.0048783496
0.0051986803
0.0037662059
2.8735594E-4
-0.0044114552
-0.007312967
-0.0070232996
-0.0027700271
-5.373048E-4
-5.564791E-4
0.005350513
0.013853053
0.019003434
0.019692104
0.016338319
0.010877446
8.306422E-4
-0.010472048
-0.013693073
-0.00797684
7.6003245E-4
0.0030266892
-0.0014328668
-0.0015162452
7.698014E-4
-0.0018919582
-0.0040573142
-0.0048837014
-0.008935797
-0.012677468
-0.015161376
-0.016864449
-0.013059231
-0.00472844
0.0044602286
0.011845733
0.013509714
0.011173473
0.008629561
0.008778706
0.0127192065
0.013742431
0.009638012
0.0071697226
0.0055515827
1.4200888E-4
-0.005751622
-0.00994622
-0.012791044
-0.0112656085
-0.008748997
-0.008992369
-0.0086462
-0.010399623
-0.015555242
-0.020241726
-0.024762042
-0.024211777
-0.015038896
-0.0042182044
0.003525755
0.008468979
0.014031122
0.021435764
0.025201527
0.026619064
0.02872344
0.025304627
0.020765863
0.024209403
0.025419334
0.016748086
0.00655035
0.0017290522
0.004750743
0.011523099
0.015904581
0.013282715
-0.0024900844
-0.021462535
-0.03389028
-0.04756071
-0.054226983
-0.04609334
-0.0369443
-0.028068287
-0.013692581
0.0016877694
0.012137687
0.014709484
0.011410735
0.0013008453
-0.009957895
-0.008380989
-0.0019997482
-0.003159259
-0.005287558
-0.004504234
0.0016016952
0.01527654
0.025172459
0.023269333
0.015401511
0.0035219765
-0.009736348
-0.00883359
0.0075753746
0.017804075
0.013204722
0.008935968
0.016761329
0.026715128
0.030160492
0.0332023
0.032087646
0.023261478
0.014916758
0.0030361342
-0.01971908
-0.04631551
-0.06167301
-0.05466554
-0.03250513
-0.0109008225
0.0023040362
0.0056404024
0.0049973214
0.0042434735
-2.6612525E-4
-0.0063501163
-0.008776532
-0.01004832
-0.013326723
-0.0112334555
6.3909456E-4
0.0065121697
-0.0033783151
-0.009286833
-1.9378791E-4
0.0049258783
0.0015192248
0.0017786769
0.0042346423
0.010194682
0.021129902
0.032642763
0.043765407
0.047627304
0.04803895
0.04452778
0.01871251
-0.015888285
-0.033262752
-0.04461982
-0.06975644
-0.0879507
-0.08222639
-0.08647545
-0.08200963
-0.027205918
0.033497553
0.0786438
0.11774853
0.1408282
0.15549034
0.13005318
0.057901908
0.00114285
-0.043484163
-0.09826623
-0.12413654
-0.106610395
-0.081341475
-0.06690847
-0.054716203
-0.025136715
0.027847543
0.060315516
0.07364052
0.08697284
0.045815416
-8.511247E-4
0.0031373154
-0.012067189
-0.030041322
-0.045249492
-0.09373064
-0.120697
-0.13754569
-0.14319316
-0.070161395
0.041482277
0.14733523
0.25343475
0.3286286
0.32019985
0.21896717
0.09203322
-0.013800177
-0.08646347
-0.10960531
-0.12214374
-0.14590555
-0.14293899
-0.113110445
-0.085682854
-0.07218051
-0.06947834
-0.07401782
-0.09110172
-0.11123982
-0.102263495
-0.046327904
0.042453494
0.1308356
0.17437968
0.1488687
0.072210096
-0.024527835
-0.1086731
-0.14820907
-0.12424114
-0.050371617
0.029057026
0.10548838
0.17709705
0.19500804
0.17404607
0.17517662
0.16664834
0.08988869
-0.033657562
-0.12987374
-0.1580506
-0.14484979
-0.12637125
-0.114735544
-0.086105555
-0.019217653
0.034534488
0.04617295
0.052092925
0.063653536
0.07442068
0.044813704
-0.044143304
-0.092286915
-0.0357808
0.047475863
0.06526941
0.029298343
-0.003449527
-0.046264008
-0.077098355
-0.05878133
-0.06226288
-0.080554985
-0.05595234
-0.026607707
0.0012807299
0.017193351
8.8017574E-4
0.00936699
0.042375296
0.05621916
0.06162822
0.062459335
0.056761768
0.045464247
0.016728295
-0.019580618
-0.03707978
-0.025088867
-0.0023419168
0.006877803
0.008628538
0.012986141
0.012679194
0.008728679
0.006122906
0.0028319384
-7.6580653E-4
-0.004372534
-0.007147791
-0.008741279
-0.013215615
-0.020197775
-0.025569024
-0.029363109
-0.032067176
-0.022943728
0.0035729378
0.027490104
0.03992995
0.049526144
0.053133827
0.05146095
0.04223028
0.019018743
-0.0029681849
-0.018151931
-0.03642662
-0.050247945
-0.051557936
-0.04436432
-0.03348837
-0.025042487
-0.019822173
-0.0130632715
-0.0061203637
-1.7433878E-5
0.006999267
0.012687709
0.015093478
0.012159768
0.005879639
0.0020952357
-5.24447E-4
-0.00166189
0.0014504855
0.0060277698
0.010716935
0.01381842
0.013554958
0.011994726
0.010570085
0.009285738
0.006480833
0.0032609904
0.0028801544
0.0026202456
6.694181E-4
-8.600609E-4
-0.0017683086
-0.0025845752
-0.0040814597
-0.005472433
-0.004284865
-0.0015697546
-4.646497E-4
5.3722743E-4
0.004755955
0.007901806
0.0070078955
0.00743994
0.0068556294
3.4767963E-4
-0.0047018626
-0.0041146707
-0.0038048103
-0.005810147
-0.0064668125
-0.005235328
-0.005979451
-0.0064799814
-0.0020396772
6.2744675E-4
-0.0020406148
-0.0027944196
-0.0023694325
-0.0030135273
-2.131789E-4
0.0021995544
-2.2136542E-4
-0.001223188
7.621711E-4
9.4558607E-4
3.070937E-4
3.6537496E-4
-1.7261229E-4
-1.0504162E-5
-5.929228E-5
-1.7496257E-4
0.0032346915
0.0039443024
-0.0011824134
-0.0025874556
-9.4562507E-4
-0.0022726394
-0.0032143684
-0.0014041447
0.0011212883
0.0014119117
1.3174092E-4
3.21546E-4
6.5630313E-4
9.882334E-4
0.0014654429
4.8231508E-4
-4.5166968E-4
-0.0013891738
-0.0017066906
-1.15624105E-4
5.7682797E-4
0.0014844415
0.0033420257
0.002696144
0.0011423398
9.26325E-4
0.0017451614
0.0024511523
7.710589E-4
-0.0011887439
-3.762686E-4
0.0021430498
0.0035706463
0.0022336235
0.0011169936
9.748046E-4
-0.0019667516
-0.0051632468
-0.0034789043
0.0010874128
0.0025375702
3.29386E-4
-3.283327E-4
-9.3763863E-4
-0.0046722814
-0.0055501247
-0.0026915162
-0.0025287601
-0.003614025
-0.0015429314
0.0014302707
0.002028364
0.0018225996
0.0019651256
8.6666417E-4
5.8687703E-5
5.03397E-4
-4.0435683E-5
-0.001196786
-0.0015810324
4.773848E-5
0.0025589892
0.0015993401
-1.52379835E-5
0.0011993598
8.1773417E-4
-6.112735E-4
-9.241368E-4
-0.001791078
-0.0010153996
2.982903E-4
-2.6539442E-4
3.3946897E-4
0.0015830152
9.829504E-4
-6.6740386E-4
-8.5548376E-4
7.151259E-4
3.8039868E-4
-2.5000086E-4
0.0015561994
0.0016564698
9.65906E-5
3.3922665E-4
5.3427636E-4
-9.660176E-4
-4.710183E-4
0.0022199175
4.7433804E-4
-0.0026167848
-9.593905E-4
-1.5798729E-4
-4.916819E-4
1.3968551E-4
-6.485031E-4
1.16708245E-4
-4.4129102E-4
-0.0033754471
-0.0019807587
-7.7011995E-4
-0.0014164842
2.53425E-4
5.2157976E-4
3.0961153E-4
0.0015369238
0.0014919626
6.8281224E-4
-5.9979776E-4
-0.0010572496
4.204827E-4
0.0011417491
5.839587E-4
6.093282E-4
6.9342693E-4
-6.025436E-4
-3.585857E-4
0.0016815319
8.2528265E-4
-8.198397E-4
-0.00126873
-0.0018128249
-5.3015014E-4
2.885163E-4
-3.1319653E-4
6.665576E-4
9.7415573E-4
-4.5176814E-4
-0.0010067346
2.3495247E-4
0.0015452021
0.001397228
5.21875E-4
-0.0011705243
-0.0018375274
-2.0105172E-4
5.045262E-4
5.150743E-4
4.7720072E-4
-0.0011474355
-0.002238867
-0.0015238507
-1.808748E-4
0.0011524779
0.0015561542
4.4739732E-4
-6.675096E-4
-9.642046E-5
4.3337612E-4
-3.233658E-4
-0.0011594631
-0.0014927578
-4.9159455E-5
0.0016535589
1.9109708E-4
-0.0011579948
9.035338E-4
0.0019063563
-7.560803E-4
-0.002528011
-0.0014185631
-7.8328187E-4
-3.461121E-4
0.0013981384
0.0011473359
-6.7702594E-4
-6.8470096E-4
-5.55063E-4
1.5558847E-4
0.0018224686
1.2492384E-4
-0.002818699
-0.0028588416
-9.5800153E-4
0.0013460822
0.0013918589
2.7356477E-4
6.010579E-4
-8.985725E-5
-0.0012838375
-1.0421491E-4
0.0024088433
0.0030104532
0.0010742465
-1.6215218E-4
-7.02159E-4
-0.001525408
-6.8908674E-4
9.4713614E-4
0.0016073937
0.0015812492
0.0014235436
4.4707963E-4
-0.0011064324
-5.832235E-4
7.112532E-4
1.5331434E-5
-0.001377301
-0.0017387273
-0.0012451095
-0.0010335891
2.9637147E-4
0.0016556698
-6.763059E-4
-0.0033298363
-0.0036750908
-0.002372695
6.489355E-4
0.0014763159
6.991088E-5
-4.0496592E-4
-9.1931917E-4
-5.1259954E-4
0.001361279
0.0020382404
0.0012480506
2.2427073E-4
-0.0010461578
-9.25495E-4
0.0011513648
0.0011207612
3.1025303E-4
0.0018927738
0.0019995049
4.6985454E-4
-3.8112188E-4
-1.22054385E-4
0.0019130446
0.0014466452
-7.7968556E-4
7.6079654E-4
0.0018662033
4.5233007E-4
-1.6994363E-4
-0.001481075
-0.002138536
-7.630504E-4
-0.0010187974
-0.0014673009
-2.3134741E-4
-1.03905404E-4
-5.467087E-4
-1.8664078E-4
-3.3905928E-4
-5.5699324E-4
0.0012678171
0.002693606
-7.219708E-4
-0.0042781085
-0.003037414
-7.038941E-4
3.6737564E-4
-9.072603E-4
-0.0024615729
-4.3827473E-5
0.0020453867
8.8591746E-4
4.7897175E-4
0.0017483196
0.0012565055
-0.0020078095
-0.0020451834
0.0013158821
0.0015813112
5.952398E-4
4.8410415E-4
3.8485014E-5
6.018246E-4
0.0012756397
2.1291066E-4
-0.0012896906
-4.987961E-4
0.0013581727
0.0022511128
0.0033847045
0.0022994396
-7.678558E-4
-0.0011628162
-6.825056E-5
8.2341715E-4
8.948718E-4
-6.3039333E-4
-0.002091231
-0.0018622915
8.950344E-4
0.0017395883
-0.0013253354
-0.002352896
-0.0022165473
-0.0020067955
5.076232E-4
8.6577237E-4
-4.4711286E-4
-5.718588E-4
-0.0013091267
-7.0461363E-4
1.3829842E-4
-0.001573275
-0.0020226336
1.7858975E-4
0.0014315346
8.8839745E-4
0.0015711115
0.002573987
7.853819E-4
-7.3223544E-4
-4.3078317E-4
1.5899767E-4
0.001305674
0.0010048302
3.7403748E-4
0.001512088
0.0014638163
0.0010816681
0.0012706406
8.959931E-5
-5.4627296E-4
-3.793517E-4
-5.7867356E-4
-7.413617E-4
-0.0016582939
-0.0016753256
-1.7522254E-4
3.5811478E-5
6.7085715E-4
0.0024814077
0.0016141821
-1.2868959E-4
1.8125885E-4
6.9516804E-4
1.19271484E-4
-0.0016446359
-0.0017538461
8.134595E-5
-3.055375E-4
-7.555517E-4
-3.4066898E-4
-9.910066E-4
-5.2474934E-4
-4.0373547E-4
-2.3677676E-4
8.266476E-4
-1.1516394E-4
3.8559316E-5
-4.4747538E-4
-0.0031877744
-9.665701E-4
0.0021016935
8.180757E-4
5.404154E-4
6.70913E-4
-0.0012660081
-0.0015206713
6.1653665E-4
0.0016074473
0.0028197593
0.0038281288
0.0010798019
5.3606873E-5
6.28642E-4
-0.0019384577
-0.0019215227
-1.549412E-5
7.266772E-4
0.0020055312
7.643285E-4
-1.4677829E-4
0.0012437265
2.5493978E-4
-0.0014374041
-0.0019290278
-0.0017866809
-0.0012284124
-0.001213729
-8.1544695E-4
-4.884544E-4
-9.035772E-4
-4.5514127E-4
4.508712E-4
-5.5707246E-6
-8.286383E-4
-7.893862E-5
7.532007E-4
6.226423E-4
5.4510496E-5
-4.21608E-5
0.0015870634
0.0017527802
1.1396297E-4
-1.7800767E-4
1.1152549E-5
0.0014413819
0.002129149
6.744277E-4
0.0014132215
0.0012084318
-0.0023265004
-0.0037283564
-0.002285187
-9.311036E-4
3.3527362E-4
7.348489E-4
-0.0013664356
-7.991286E-4
0.0017652113
-5.5885164E-4
-0.0011447676
5.7665945E-4
-7.108047E-4
-1.1270151E-4
-2.8897807E-4
-4.9187307E-4
0.001895834
3.1855638E-4
-1.9277762E-4
0.0014498201
-2.3877417E-4
-4.2129683E-4
6.912577E-4
0.0010448513
0.0019469251
0.0024642795
0.0013487599
-0.0012172989
-0.0014259843
-0.0011163009
-0.0018099524
-6.040902E-4
-5.5349746E-4
-2.9256064E-4
-2.5598615E-4
-0.0024817276
-7.244363E-4
9.984878E-4
-9.3849994E-5
0.0016507457
0.0019708634
-4.6176693E-4
-0.0015335489
-0.0010702222
9.4561797E-4
0.002352545
0.0012126901
2.734846E-4
0.001566708
0.0016397879
-4.3029306E-4
-0.0014309761
-0.0023133147
-0.0016357073
0.0016085765
0.002123031
1.6227347E-4
-0.0011961239
-0.0019991861
-0.0015149614
-3.7489182E-4
-6.293134E-4
-0.0018090017
-0.001513719
-6.9966125E-5
8.4096246E-4
6.428545E-4
-4.28077E-5
-2.222619E-4
-0.0018779815
-0.0015733329
0.002907764
0.0028798843
6.891785E-4
0.0013417957
2.4353857E-4
1.7720141E-4
8.9244766E-4
2.0587299E-4
0.001919
0.0029332568
0.0017124425
2.74291E-4
-7.099901E-4
4.137316E-4
7.380314E-4
-5.88578E-4
-0.0016859784
-0.0025265946
-0.0020727457
-0.0022084336
-0.002238161
1.2686422E-4
0.0018338725
0.0021326952
5.4875674E-4
-0.00241174
-0.0013634991
0.0017424608
0.0010388746
-0.0013213973
-0.0026531047
-0.0024965368
5.232465E-4
0.0019470513
-0.0013232232
-0.0019613765
0.0013326026
0.0023469976
0.0017274616
0.0012759486
3.151456E-4
-4.7950636E-4
-6.575129E-4
9.072221E-5
0.0014102719
0.0021324696
0.0018401565
0.0011745162
9.916543E-8
-0.0014795251
-6.233236E-4
2.2251904E-4
-0.0013964346
-5.944511E-4
7.0459757E-4
-0.0010620535
-9.690212E-4
3.2088064E-4
1.2255859E-4
0.0010436455
0.0015137261
-6.195911E-4
-0.0019534372
-4.8523955E-4
8.1489375E-4
-2.2063575E-4
-0.0019868368
-0.0023634827
-0.0010047104
4.161632E-4
0.0013388753
0.0024529244
0.002338526
4.990393E-4
-0.0012414429
-0.0010378539
9.38903E-4
0.0026139396
0.0023415405
-9.749422E-4
-0.0024756044
0.0017194828
0.0032765996
0.001075105
0.0011094321
-7.7401835E-4
-0.0031822452
-0.0010146227
9.902301E-4
-5.657889E-4
-0.0031732842
-0.0022847995
2.32496E-4
-7.919354E-4
-0.0016586559
-0.0015750881
-0.0023238338
-0.0014299761
-0.0013515174
-0.0011028959
7.9219474E-4
2.5187634E-4
-2.5445005E-4
-3.5880835E-4
-6.380224E-4
0.001466448
8.803872E-4
-7.5695233E-4
0.0013481143
0.002561762
0.0032844816
0.0030938615
0.0012627385
0.003241709
0.0046170116
0.0018384845
7.3430815E-4
0.001527734
0.0024025429
0.0015124588
-0.0017290019
-0.0019157514
-2.0220755E-4
-0.0017562332
-0.0028275377
-0.001165251
-7.3385023E-4
-0.0022361982
-0.0029435027
-0.0015866642
-7.830469E-4
-0.002156012
-0.0024823993
-0.0014085606
-0.0011346772
-9.5216214E-4
-5.227075E-4
-1.2358792E-4
-7.95204E-5
2.690712E-5
0.0010818304
0.0013479758
8.178701E-4
5.619912E-4
7.4379575E-5
4.6874842E-4
9.856925E-4
6.938278E-4
6.376016E-4
1.00799494E-4
7.8096456E-4
0.0027915859
0.0019631532
1.1495663E-4
3.6588998E-4
8.6041016E-4
2.0728266E-4
-0.0017741073
-0.002314494
6.195964E-4
0.001747944
-4.3546886E-4
-9.2975574E-4
6.8255984E-5
6.2022E-4
8.701638E-4
6.804609E-4
2.827892E-4
-4.893612E-4
-6.294376E-4
-5.7717785E-4
-9.886012E-4
-2.7619288E-4
-7.5740827E-4
-0.001129777
5.879454E-4
3.1141745E-4
1.9417756E-4
1.2024828E-4
-0.0014315476
2.6134006E-4
0.0020165795
0.0021497007
0.0020195676
2.2119813E-4
4.1319308E-4
-6.7249226E-4
-0.0033550854
-0.0012626675
-5.776471E-4
-0.0013096594
3.8239945E-4
-0.0013280401
-0.0025983695
4.3871347E-4
7.333346E-4
-0.0030693882
-0.0045377407
-8.637882E-4
0.0029505023
0.0034305244
0.0019379426
-2.1390508E-4
-0.0017988962
-0.0021438203
-2.1814788E-4
0.0021089737
0.002770063
0.0043222453
0.0037595558
6.572226E-4
7.908781E-4
-1.3736852E-4
-0.0016232809
0.0013043215
0.0011857252
-6.679451E-4
3.1561957E-4
-0.0010548424
-3.9160665E-4
0.0011363372
-0.002614795
-0.0022136387
9.435745E-4
-4.020102E-4
-7.848601E-4
-0.0012046394
-0.0021557228
-0.0012971796
-0.0017083257
-0.001116449
-2.4397085E-4
-9.1467175E-4
9.969795E-4
0.0023244862
0.0015805776
0.0027043314
0.0029465442
7.222812E-4
-0.0011393968
-0.002054415
-0.0022771137
-5.688904E-4
0.001987126
0.0012480845
-4.251238E-4
0.0014948521
0.002658739
6.9903897E-4
-5.046023E-4
-3.0395415E-4
-7.2413194E-4
-0.0023082423
-0.002352533
-3.33956E-4
4.622459E-4
0.0011708748
0.0018849006
3.6037607E-5
-0.0017190893
-0.0016850294
-4.5314743E-4
3.8351543E-4
-6.702435E-4
2.419191E-4
0.0020805805
8.0678135E-4
-3.4029342E-4
-2.9186405E-5
2.7571188E-4
-2.519512E-6
-1.07453234E-4
7.649023E-4
-7.2919263E-4
-0.0028015592
-0.0014144753
4.383944E-4
9.049283E-4
-4.5940082E-4
-0.0015756577
-3.4962496E-4
-2.815003E-4
6.882422E-4
0.0033548705
0.0019267831
-7.4060354E-4
-5.488276E-4
1.0283178E-4
3.5443626E-4
6.632328E-4
7.807649E-4
-3.2057203E-4
-0.0014615443
5.699025E-4
0.002648016
4.552587E-4
-0.001569415
-7.766739E-5
0.0011541554
3.9365195E-4
-6.745752E-4
-0.0014405183
-0.0016989917
-1.2991244E-4
0.0019059433
7.869953E-4
-0.0012532591
-9.235465E-4
1.8162056E-4
3.0053323E-4
-0.0014285914
-0.0020505278
-1.365584E-4
6.495164E-4
8.502765E-4
2.2962313E-4
-4.705926E-4
0.0016648262
8.427157E-4
-0.0022299043
-8.2354125E-4
9.0260233E-4
8.0276886E-4
5.3986895E-4
-1.4169597E-4
2.8603274E-4
4.4625727E-4
-5.544196E-4
-1.3486609E-4
9.738265E-4
-1.4122672E-4
-0.0015356895
-3.8459623E-4
5.528684E-4
6.800536E-4
4.7586227E-4
-4.7073388E-4
8.2787755E-4
0.001403859
3.1277427E-4
9.078113E-4
-9.0225996E-4
-0.0016462542
4.7854212E-4
-0.0020187716
-0.0034695382
-7.9771795E-4
8.6457975E-4
0.002772802
0.0024740542
4.5253453E-4
8.0294645E-4
5.869671E-4
-4.485612E-4
-0.0010031814
-9.027949E-4