0.0014713395
2.7541656E-4
-0.0016227887
-0.0017731471
-6.428286E-4
0.0013779475
4.1761016E-4
-0.002536489
-7.3457876E-4
9.949827E-4
2.46841E-4
-8.574109E-4
-0.0047624754
-0.004017206
0.0020400768
9.1426505E-4
-0.0042994544
-0.0039789556
-3.4204216E-4
0.002205837
0.003081807
0.002261187
0.0014934207
0.0021505167
4.7793833E-4
-0.0021020614
-4.5568173E-4
0.0013740187
0.0012143787
0.0016950979
0.0017132913
0.0015793227
0.002002113
0.001987699
0.0012864646
2.8011744E-4
-8.801792E-5
-7.7013834E-4
-0.001771243
-0.0018293412
-0.0018784772
-0.0012417132
5.9037283E-4
0.0012160295
-5.297644E-4
-0.002541193
-0.002489902
-0.0017980017
-0.0012113671
-2.093656E-4
-3.2435273E-6
5.7202124E-4
6.578556E-4
-9.80092E-4
-4.7146084E-4
8.805538E-4
1.4120949E-5
-4.7887534E-5
0.0012966455
0.0013962754
7.06684E-4
0.0014920763
0.002121284
0.0017914166
0.0029610984
0.0018103085
-0.0023353181
-0.0034429608
-0.003408441
-0.0029758473
4.407737E-4
0.0025082217
0.0017791304
3.352934E-4
-0.0015437448
-0.0020611433
-0.0011076768
-8.7025354E-4
-0.0010189102
5.3597096E-4
0.0021081816
0.0010144749
-7.412577E-5
-6.618576E-5
-4.165057E-4
5.1024643E-4
0.0013918146
2.3566425E-4
-4.9212837E-4
-5.3645356E-4
-6.572395E-5
0.0017927326
0.0020073045
3.244358E-4
2.700677E-4
4.910362E-4
-0.0012777261
-0.0018400318
6.682324E-4
7.7219674E-4
-0.00258929
-0.0021031601
6.8171846E-4
-2.5636074E-5
-7.711406E-4
2.051005E-4
4.0332408E-4
-1.8260838E-4
-9.978383E-4
-8.881691E-4
5.03724E-4
8.6527085E-4
1.3500945E-4
7.818223E-4
5.932852E-4
-0.001061067
1.8140634E-4
7.8320294E-4
-8.143261E-4
3.7941E-4
5.801888E-4
-5.5850623E-4
0.0014617762
0.0030441314
0.0018159077
-6.8273384E-4
-0.0012427415
2.4571794E-4
-4.1677544E-4
-0.0020295468
-0.0027863039
-0.0016748472
0.001318143
0.0024847323
0.0027426393
0.0016208692
-7.038356E-4
-1.5863578E-4
-3.043933E-4
-0.0015269424
-0.0010938105
-0.00117623
-0.0011891548
-0.0013384407
-9.6779E-5
0.002604652
0.0014712209
1.7504756E-4
0.0016853625
7.3467987E-4
-0.0018715614
-0.001444823
4.496082E-4
-4.8797906E-4
-0.0010467656
7.5605005E-4
-4.7085452E-4
-0.0021596183
-2.4418838E-4
5.436916E-4
-8.4737665E-4
-6.575275E-4
4.5107704E-4
2.7415637E-4
5.7287875E-4
0.0012831086
8.873905E-4
3.6385733E-5
-0.0016203339
-5.098761E-4
0.0030344792
0.0015945691
-0.0013711462
-4.5054304E-4
0.0016449841
0.002229938
2.3868209E-4
-7.225412E-4
5.5088475E-4
6.206402E-4
-2.425554E-4
-0.0011436569
-4.5976078E-4
2.4490603E-4
-0.0013721016
-6.6296756E-4
9.143857E-4
-1.1070821E-4
-5.398181E-4
-0.0013114052
-0.0021566062
-3.9440507E-4
0.0011109175
-3.0367757E-4
-0.00223131
-6.1507395E-4
0.0015518159
-2.9113262E-5
-2.6255107E-4
0.0021546532
0.0016379581
-5.4665795E-4
-7.1740657E-4
1.0229755E-5
6.582531E-4
0.0019941085
0.0029773603
0.0016274542
-5.1365566E-4
-2.8136326E-4
0.0010312966
2.110612E-4
-0.0015718132
-0.0022173082
-0.0018263533
1.3243643E-4
7.3538005E-4
-0.0027604762
-0.003265729
0.0011927627
0.0016892093
-1.7312701E-5
0.0010347957
-0.0016181349
-0.005724794
-0.002697301
0.002184003
0.0029234164
0.002294212
0.0025867447
0.003006291
0.0018804348
3.901081E-4
-2.6788638E-4
-8.6478126E-4
4.2110408E-4
0.002703315
0.0026750253
0.0018579308
2.5805086E-4
-0.0033458706
-0.00492412
-0.003656925
-0.0025248202
-0.0010454673
-7.051037E-4
-0.0012061493
7.812041E-4
0.0010043607
-0.0012808702
-0.0013031147
-0.0014868433
-0.0023521811
-0.0010539222
0.0012260018
0.0019105963
0.0022084517
0.005353053
0.0056868065
0.0011198363
-2.7924048E-4
8.328562E-4
0.0024240632
0.003466224
5.0016603E-4
-4.4101346E-4
0.0014024678
-1.2666314E-4
-0.0023963286
-0.002975571
-0.0026029078
-0.00292765
-0.0045367163
-0.004519469
-0.0029050868
-8.5463526E-4
4.6630308E-4
6.551028E-4
0.0019207873
0.0025210355
0.0013636219
6.497101E-4
3.3784454E-4
8.29049E-6
-0.0019422489
-0.0050002695
-0.0039046216
6.1319466E-4
0.0017572857
7.703187E-4
0.0029429472
0.0049435934
0.004351151
0.0036177398
0.002011177
1.7315165E-4
-9.095929E-4
-4.705508E-4
0.0021498366
0.0015333309
-0.0017039761
-0.0023000243
-0.0024724172
-0.0011057091
0.0016637333
7.1677874E-4
1.8307367E-4
0.0026146534
0.0018331208
-0.0017135862
-0.0028894646
-0.002523219
-0.0034344022
-0.0042051715
-0.003250234
-0.002725842
-0.0020619174
7.195332E-4
0.0015931374
4.4853112E-4
0.0016980411
0.002044053
1.7114144E-4
5.5411225E-4
0.0013950687
3.515052E-5
2.4916502E-4
0.0020593568
0.00131282
0.0015606633
0.0037641565
0.002386528
6.742823E-4
7.0619804E-4
1.9110202E-4
3.7348116E-4
1.4748289E-4
0.0011398206
0.002078885
-7.2250114E-4
-0.0026208228
-0.0030728022
-0.0013195693
9.54474E-4
-0.0029405765
-0.004522018
-0.0015489766
-0.0017118806
-0.0013383547
-7.312515E-4
-9.880378E-4
-4.6991665E-4
-5.284884E-4
0.0012856605
0.0025416284
0.0013412562
-6.0056173E-4
-0.0037930813
-0.0029474362
9.2191517E-4
0.0022464916
0.0031147457
0.003223053
0.0032286488
0.0039390004
0.0027297488
8.560607E-4
-7.1416167E-4
-0.0011207457
8.042409E-4
0.003433148
0.0042929016
6.1471545E-4
-0.0038076243
-0.0043668123
-0.005410217
-0.006990087
-0.005343042
-0.0035729867
-0.0029320202
5.2392296E-4
0.0062005427
0.007945381
0.004765657
0.0014940953
0.0015399702
0.005221747
0.0044631492
-0.0048690876
-0.010484059
-0.0062736343
0.001524266
0.005119954
0.0025633245
0.0036753132
0.004964526
-0.0017974
-0.0033048529
8.494228E-4
3.5411726E-5
-0.0023452304
-0.004210882
-0.0038373396
-0.0034852047
-0.0056008906
-0.0036959108
-0.0012944959
-0.0013052231
-5.66902E-4
-9.154689E-4
4.7128144E-4
0.0030718772
0.005037949
0.008134141
0.006944854
0.0031933943
0.003320975
0.0024476335
-5.3822115E-4
7.3854043E-4
0.0039898506
0.0038020576
3.1369072E-4
-0.0059148837
-0.0059562423
0.002278261
5.931846E-4
-0.007933349
-0.0075303507
-0.0033256684
9.741892E-4
0.0036902453
0.001959123
-8.871525E-4
-0.003968645
-0.0042293323
-0.0031901675
-0.003916614
-8.96946E-4
0.0026315304
0.002685643
0.0028426603
0.0025040857
0.0027201471
0.004591879
0.0051649534
0.0042965882
0.0030203222
4.1069978E-4
-0.0013053786
0.001903067
0.005388765
0.003374147
-0.0019278664
-0.0070742145
-0.008075365
-0.0055822795
-0.0043832483
-0.003797483
-0.0029880614
-0.0017165419
-9.7642734E-4
-0.0019786218
3.2452855E-4
0.0030389363
0.0011139908
0.0011117997
0.0016299029
-2.2679605E-4
6.172768E-4
0.0013592736
8.7110954E-4
0.0010429684
0.0010519368
0.0038381298
0.005082196
0.0025210115
0.0028765686
0.0016873823
-0.0021344887
-0.0013121419
2.3504789E-4
6.0019543E-4
0.00287109
0.0015577554
-0.0060714893
-0.011063224
-0.008328338
-0.0035102833
7.2340586E-4
0.002875835
0.0017444509
0.0030332457
0.0044270265
0.0015053705
2.632775E-4
0.0022531329
0.00477605
0.006150739
0.0051794485
0.002329535
-0.0028360032
-0.0067028515
-0.0062390156
-0.004458135
-0.0028398305
-0.0017124033
-9.154843E-4
-8.0476206E-4
-0.0019605316
-0.0011921409
0.0015820801
0.0023812258
9.339398E-4
-3.3615794E-4
-0.0012814299
-0.002379091
-0.0016692999
-5.6661776E-4
-0.0014456785
-5.9498404E-4
0.0024564138
0.0030399195
0.0020182454
0.0040053814
0.007410481
0.006952811
0.002414056
-0.0026977311
-0.004862377
-0.0042589707
-0.003359801
-0.0017680386
-7.3627656E-4
-0.0014054407
-0.0023315018
-0.0025006314
-5.453996E-4
2.9452675E-4
-0.0011910722
-2.516899E-4
0.0020425452
0.0041677756
0.0054819398
0.003385214
0.0019638804
0.005136039
0.007556294
0.0027656094
-0.0036307026
-0.0044787126
-0.0042992565
-0.0023454227
0.0020134042
0.0010181124
-0.0017927188
-0.0020406921
-0.0028247784
-0.0029591222
-0.0022531983
-0.0018211831
-0.001760539
-0.0011174905
5.3225935E-4
-7.4019516E-4
-0.0022293134
8.440744E-4
0.00253922
-3.2885766E-4
-0.0033213524
-0.0035773444
-0.0011770023
9.1107585E-4
2.7526944E-4
-5.696068E-5
0.0029235617
0.005795146
0.005387715
0.002879795
-2.8389032E-4
-0.0027858694
-0.0040362505
-0.0037394685
-0.0018903053
2.7767068E-5
0.0010024247
1.8840778E-4
-5.0866307E-4
9.1360987E-4
0.0012754744
0.0014574815
0.004287148
0.0070793987
0.008188185
0.006691738
0.0033965418
-7.67348E-5
-0.0050384924
-0.0070811403
-0.0034304534
-2.7217512E-4
0.0010705667
0.0014865123
4.580919E-5
2.657567E-4
0.0010590357
-0.0016890336
-0.0042968136
-0.0049651987
-0.0062007443
-0.0072360993
-0.007000097
-0.0042522755
-7.702301E-4
-5.0167664E-4
-3.0959514E-4
4.1858183E-4
5.6340064E-5
0.0026226484
0.0045913737
0.0030248153
0.00326416
0.0034631216
0.0014739045
8.1192696E-4
0.0021338623
0.003131296
0.0013970106
-7.918315E-4
4.882228E-4
0.0036022712
0.0033150534
2.413572E-4
0.0012021485
0.003273186
0.0017446878
8.252806E-4
1.3575121E-4
3.348162E-4
0.002374757
0.0024137413
0.0022244423
1.7101568E-4
-0.0043195705
-0.005914857
-0.0073009883
-0.0077075986
-0.0048101963
-0.0036530697
-0.003116093
-0.0015502997
-7.6672406E-4
6.28612E-4
9.7564596E-4
-0.0012828558
-0.0018224801
-4.096744E-4
-0.001987321
-0.004533513
-0.004181221
-0.0032805935
-0.0018829473
0.0016506343
0.004974798
0.006208724
0.008854801
0.013837865
0.013628811
0.009532709
0.008023751
0.0049539697
2.4547926E-4
-0.0021945657
-0.0027804773
-0.002325581
-0.0035338951
-0.005009449
-0.0032828406
-1.2943751E-4
-0.001752718
-0.008605043
-0.008137281
-0.003477221
-0.0065329727
-0.0067529012
-0.0022826525
-8.752219E-4
0.0015551925
0.0026956135
0.0016065659
0.0010311055
-0.0017582247
-0.002854767
8.283198E-4
0.00431357
0.0025975066
-0.001527355
-8.051636E-4
0.0021138838
0.003538558
0.0040792534
0.0017200833
-0.0013114699
-0.001831583
7.8515353E-4
0.0033007707
6.257455E-4
-0.0028613224
-0.0057767974
-0.00847383
-0.0043717464
4.8963487E-4
0.002122092
0.007187831
0.010353084
0.008987477
0.007277327
0.0048750704
0.0049142637
0.0058515756
0.0028107339
-0.0016813306
-0.0037057872
-0.0013228945
-1.814871E-4
-0.0037997516
-0.0049959808
-0.0040625734
-0.005322865
-0.009027717
-0.014100068
-0.01440536
-0.01193471
-0.010676006
-0.005257674
7.547687E-5
0.0018214859
0.0052073463
0.007955772
0.009262461
0.0111324955
0.012410624
0.011907414
0.007146406
0.0018796183
6.348095E-4
0.0010969837
0.001994951
0.0014059107
7.274845E-4
0.0028245843
0.0036421185
0.0021895256
4.8127843E-4
-0.0015082335
-0.0046445723
-0.0088603
-0.009979072
-0.01046928
-0.012914637
-0.009818752
-0.0034134092
-0.0010311366
-4.932261E-4
-4.1330725E-4
-0.0021322535
-0.0031795865
0.0013786088
0.008128177
0.011224659
0.014967951
0.018765112
0.019396288
0.02036936
0.016178213
0.0024877146
-0.008836281
-0.008981756
-0.005541319
-0.0063917204
-0.007788825
-0.0080239605
-0.00945213
-0.0103152655
-0.009341821
-0.008027907
-0.009591515
-0.012679047
-0.012602323
-0.007275767
0.0036164748
0.010580396
0.0066667814
-4.2382683E-4
-0.0035226492
-4.8631403E-4
3.0812586E-4
-0.0061508995
-0.009085258
-0.0070085516
-0.0018046575
0.005314647
0.009101384
0.014456497
0.016320074
0.009729584
0.008069882
0.012060552
0.017039277
0.020314516
0.014532405
0.006416867
0.0028349431
-0.0014621146
-0.005563695
-0.0050585
-0.0037578945
-0.002562231
0.002012438
0.001756033
-0.004193589
-0.0064659044
-0.009131973
-0.0129272295
-0.01573997
-0.017574856
-0.014512007
-0.015034609
-0.018307963
-0.013948854
-0.010879181
-0.011366084
-0.010034775
-0.01195015
-0.013303287
-0.004828371
0.005800186
0.007868221
0.009699467
0.016264057
0.022193337
0.028436583
0.027765635
0.021403663
0.026347889
0.034509566
0.031504706
0.019179557
-0.005630815
-0.031560358
-0.035365947
-0.027165283
-0.024282614
-0.017958442
-0.00521376
0.007949532
0.019637989
0.026140736
0.026408114
0.019326355
0.010125404
0.0039044053
-0.005008291
-0.013988444
-0.024756372
-0.037235845
-0.037656315
-0.030999139
-0.025660513
-0.022476431
-0.017754054
-2.7841664E-4
0.017291997
0.03258018
0.057244007
0.065248616
0.051598597
0.039770626
0.022433272
-0.0041212966
-0.031301808
-0.061889704
-0.0861874
-0.08964888
-0.074774615
-0.045470007
-0.011702534
0.013281262
0.033657838
0.044939242
0.044718258
0.051091265
0.05435816
0.036154304
0.010563759
-0.004427252
-0.008634254
-0.005584074
0.010001145
0.02174231
0.017860489
0.01849905
0.01225541
-0.009443625
-0.027688852
-0.039970223
-0.036722135
-0.022139892
0.0032209537
0.045275226
0.062280357
0.046795953
0.012127577
-0.045119308
-0.07418112
-0.049128175
-0.0022748415
0.033332
0.044332918
0.053555593
0.050684586
0.023652956
0.001277081
-0.02893941
-0.06561523
-0.09190377
-0.12248323
-0.12835672
-0.09490549
-0.051744256
0.007898751
0.07177486
0.10282617
0.11159155
0.088208534
2.793768E-4
-0.09145003
-0.115382
-0.08637434
-0.025009364
0.050451744
0.11630432
0.16904865
0.19609879
0.1943804
0.18892735
0.18065305
0.13331519
0.0732577
0.03898999
-0.04157687
-0.15444995
-0.22843887
-0.32347134
-0.3909216
-0.32939193
-0.2126518
-0.109898746
-0.03111296
0.030694421
0.088399045
0.10680218
0.08067763
0.047080975
0.012564225
-0.02714895
-0.012014571
0.10114853
0.19421287
0.1705325
0.10062454
0.093594894
0.16530177
0.21233098
0.21149822
0.19597657
0.10245112
-0.030085001
-0.124962
-0.22734632
-0.31917053
-0.31640065
-0.22091115
-0.123914436
-0.07200804
-0.031567212
0.0027297467
0.03379481
0.07918232
0.12812246
0.11597139
-0.011391173
-0.13369092
-0.15136833
-0.12927034
-0.057311065
0.074731305
0.18576385
0.25739723
0.291124
0.2631828
0.18164161
0.08608381
-0.010370938
-0.12666482
-0.22130664
-0.24179803
-0.21611105
-0.17924035
-0.13192761
-0.07956111
-0.04661701
-0.03329951
-0.007840725
0.015436741
0.025666073
0.06815956
0.11584175
0.12288414
0.12948048
0.12457704
0.08309088
0.040909257
-0.006589677
-0.033942528
-0.02206142
-0.03434402
-0.044010956
-0.005594348
0.04109124
0.083627105
0.10796978
0.09835697
0.057070762
-0.030382551
-0.11690888
-0.13421574
-0.11403353
-0.112186715
-0.105930604
-0.07197607
-0.04576355
-0.03877265
-0.032419186
-0.0066948286
0.04413393
0.082831904
0.095891014
0.072080426
0.003239002
-0.025133438
0.010842756
0.02967847
0.02136669
0.011688364
0.0026860489
-0.0013548278
-0.0047168117
-0.007425693
-0.0063627632
-0.002119562
0.0043085115
0.007850067
0.009849184
0.011262743
0.0099378815
0.0077285315
0.005591221
0.0043708957
0.0033380117
0.0026348936
0.0022382124
4.2683817E-4
9.0183585E-4
0.0027149636
0.0018367901
1.5107742E-4
-9.356725E-4
-0.0010207938
-0.0019873579
-0.003971575
-0.005651764
-0.009190109
-0.011649788
-0.013466015
-0.018398698
-0.020339428
-0.016937813
-0.012253965
-0.008809344
-0.0066889827
-0.0032245328
2.4534967E-5
0.0035854247
0.007995674
0.008282694
0.008909355
0.012284815
0.012666818
0.010748508
0.008194561
0.007196227
0.006387352
0.002892986
0.0020996179
0.001983495
-0.0010203467
-0.0015720093
9.782161E-4
0.0033872563
0.0029433672
0.0020216266
0.0020609456
-2.3779737E-4
-3.0294314E-4
8.6576206E-4
-0.0010728551
-8.73458E-4
-0.0017550944
-0.004662438
-0.0038573176
-0.0028893861
-0.0019103265
-0.0012265245
-0.0033066748
-0.0026794784
-2.1206484E-4
9.1459794E-4
0.0029953609
0.0028238785
1.290362E-4
-0.0014241252
-0.002864769
-0.0025792788
-0.0016147986
-0.0033561653
-0.0042232443
-0.0043070484
-0.0045180437
-0.0031886739
-0.0015572221
0.0025254053
0.005053377
0.0021844432
0.0011924636
0.002626847
0.005049207
0.0054787295
5.625624E-4
-4.9530907E-4
0.0017476752
0.0015819386
0.0016662691
-1.1153185E-4
-9.719143E-4
4.6670475E-4
9.3072944E-4
0.0031710907
0.0037146108
6.9787184E-4
-0.0018578906
-0.0030012603
-0.0021301624
-0.0015513137
-6.8663055E-4
7.4245305E-5
-0.0019731903
-0.002143234
-0.0011726631
-0.0011253811
7.564761E-5
-3.6457364E-4
-9.580068E-4
-1.8486736E-4
4.4287366E-4
0.0018479413
0.002671685
0.0031629435
0.0021429555
-6.7958474E-4
-0.00109928
-0.001994786
-0.0034599449
-0.0015301887
-8.579961E-4
-0.00276056
-0.0027732397
-3.2238636E-4
0.0015559541
4.968856E-4
-0.0010901819
-5.5669696E-4
7.3597865E-4
2.6839637E-4
-7.1819435E-4
0.0010566656
0.0018938801
-0.0013779837
-0.0036456138
-0.0019777808
9.6511893E-4
0.0014353191
4.4174364E-4
0.0020237935
0.0036928288
0.0028981322
0.0016640566
-2.116407E-4
-0.0018459833
-0.0010316827
-1.5138001E-4
-0.0014645642
-0.0021105825
-8.7465055E-4
-1.034474E-4
5.2792556E-4
5.267725E-4
-2.2338449E-4
7.8924885E-4
0.0010533502
4.818528E-4
0.0014084333
6.4053026E-4
-3.7726053E-4
-5.9110427E-4
-0.0018982013
-5.852019E-4
0.001460792
3.6513896E-4
4.0704897E-5
0.001110757
6.660981E-4
-6.60931E-5
8.7993103E-4
0.0011794866
-5.700235E-4
-0.0010056102
-1.7160406E-4
-6.3858344E-4
-0.0010983055
-3.3402376E-4
3.704681E-4
-3.29414E-5
-0.001391895
-0.0026090133
-8.3259353E-4
0.002159298
-5.570452E-4
-0.004623261
-0.0016703003
0.0022384604
0.0012873302
3.9466424E-5
7.206132E-4
8.727604E-4
6.871457E-4
5.863278E-4
-9.689376E-4
-0.0012295638
0.0011293488
0.0021561524
0.0010129386
-9.0507034E-4
-0.0010611154
3.5726768E-4
-3.237788E-4
-9.067546E-4
-3.0433416E-4
-7.110393E-4
-9.346384E-4
-6.669007E-4
-2.4452762E-4
-9.300255E-4
-0.0022846868
-0.0021251459
-0.001582427
-1.0940863E-4
9.0287725E-4
1.9596405E-4
1.8263615E-4
5.917008E-5
0.0018186725
0.0027288964
-1.3764782E-4
8.007171E-4
0.0013780792
-3.6405635E-4
9.012513E-4
-0.0012894532
-0.0018791058
0.0013459767
-4.02464E-4
1.8280295E-4
0.0014368277
-0.0014982254
-5.4154196E-4
6.4434724E-5
-8.4024534E-4
6.771781E-4
-8.464655E-4
-0.0021804671
-4.96598E-4
-0.0010182766
-0.0017676288
-6.033754E-4
-6.238446E-5
2.5044926E-4
0.0010829738
0.0017576526
0.002671016
0.0018111605
-0.0010838719
-0.0010423823
2.4467817E-4
-9.4852224E-4
-0.0012276026
1.1194379E-4
0.0012809186
0.0014456871
6.331174E-5
-0.0013043246
-0.0026341157
-0.002599303
3.151268E-4
0.0016320073
1.9020803E-4
1.3450546E-4
5.867156E-4
-4.663106E-4
6.371306E-4
0.0023308233
-9.320579E-4
-0.0026590081
6.254072E-4
0.0010239023
-3.502065E-4
6.861913E-6
4.6222383E-5
9.5647416E-4
0.001457303
-7.2670507E-4
-0.0015636458
6.0904486E-4
0.0015499825
8.6357177E-4
0.0010585097
5.205364E-4
-2.9246983E-4
-4.645566E-4
-0.0018117287
-0.0021915503
-0.001476543
-8.261652E-4
4.067369E-6
-8.832164E-4
5.21015E-4
0.0034682401
0.0015497229
5.2081316E-4
0.0013867368
-0.0011015552
-0.0026934145
-0.002083599
-8.534842E-4
0.0011840899
0.0016556222
0.0015280005
0.0018092011
5.571546E-4
-6.397163E-4
-5.2646984E-4
-9.101611E-4
-9.7122637E-4
4.0946822E-4
0.0011321859
8.640039E-4
-1.7111393E-4
-0.0016202896
-0.0011823568
-0.0011276109
-0.0020486081
-9.5923955E-4
-1.465868E-4
9.893726E-4
0.0024572574
3.0635463E-4
-9.222981E-4
9.831232E-4
5.551504E-4
-0.002609423
-0.004188187
-8.837337E-4
0.0034529252
0.004058327
0.003132026
0.0015278618
2.375033E-4
0.0011470035
0.0010280111
-6.433631E-4
-9.0993056E-4
-4.7169498E-4
2.6552813E-4
0.0019616082
0.0016466766
-0.0011343355
-0.0018201417
-9.2110294E-4
-0.0010542674
-9.529968E-4
-0.0013596262
-0.0019938059
-2.8683146E-4
6.815843E-4
-0.0014805259
-0.0016197235
5.0146657E-4
-7.5680437E-4
-0.002067638
-3.402779E-5
5.1971606E-4
-5.5381696E-4
-5.820828E-4
3.0207072E-4
0.0013372457
9.901529E-4
-5.4204884E-5
-2.473587E-4
0.0011341331
0.0021961862
0.0010144946
0.0017414
0.0027246966
6.6645665E-4
0.0012363355
0.0020703676
-7.5876585E-4
-0.0011611198
0.0010312668
8.555873E-4
-0.0010021969
-8.737489E-4
5.2776566E-4
-5.3037674E-4
-0.0023909379
-7.530589E-4
0.0024000313
8.5642416E-4
-0.0029232171
-0.002677497
-0.0015829073
-0.0011371083
-8.65589E-4
-0.0037293409
-0.005387579
-0.0022164742
8.23722E-4
9.348816E-4
8.040505E-4
0.0014999261
0.001789375
0.0030792411
0.0029157777
2.9291576E-4
3.817268E-4
8.7721663E-4
0.0010480136
0.0024679909
0.0011487043
5.743232E-5
6.5022416E-4
3.4574204E-4
6.902894E-4
7.777906E-4
4.924091E-4
-6.8672915E-4
-0.0014429392
5.412581E-4
-5.170522E-4
-0.0025356188
-0.001150922
-0.001951125
-0.0028854443
-0.0011338987
-1.1212361E-4
3.9915476E-4
8.383425E-4
0.0013714693
0.0019004747
0.0013132711
2.4102455E-4
-4.2012904E-4
-2.010916E-4
4.4982822E-4
7.328993E-4
6.895434E-4
3.055479E-4
-6.573362E-4
-7.775142E-4
5.989738E-4
1.10307345E-4
-3.4480114E-4
0.0012194263
-5.891457E-4
-0.0020593507
-8.6424703E-4
-0.0032221745
-0.004601233
-0.002577636
-0.0012751509
-1.236964E-4
3.2267282E-5
3.8047694E-4
0.0018189894
0.0021115055
0.0025737854
0.0028538466
0.001604977
7.055038E-4
0.0013512851
0.0015846319
0.0010680731
0.0021376042
0.0018883118
1.1074674E-4
3.4253063E-4
-4.331921E-5
-5.636148E-4
-8.838713E-4
-0.0021003266
-9.092046E-4
5.625893E-4
9.907868E-4
1.4884082E-4
-0.0023078024
-0.0010639204
1.5809725E-4
-0.0017108432
-0.0023928466
-0.00312116
-0.002044393
-6.743784E-4
-0.0011527018
9.253575E-4
0.0019207704
0.001638297
0.0021541682
1.2622592E-4
-9.355208E-4
-6.1608327E-4
-8.2292815E-4
4.9621536E-5
8.306246E-4
0.0016883161
9.7199413E-4
-9.528416E-4
-0.0013819338
-0.0016588176
4.265467E-4
0.0025392144
0.0012008441
0.0015175669
0.0019281406
5.196672E-4
-6.638695E-5
-0.001100106
-2.3276325E-4
0.0019493009
0.0012511439
5.8660394E-4
2.6365736E-4
-0.001444906
-0.0017713379
-8.157633E-4
-3.3202034E-4
1.2576382E-4
9.2644047E-4
0.0011697846
-4.7838347E-4
-0.002098796
-0.0011040905
4.963333E-4
5.187443E-4
7.2078683E-6
-2.2127718E-4
-0.0011978172
-0.0024176326
-0.0018540631
-8.5595157E-4
-3.0739853E-4
0.0010949834
0.0015800226
6.7270524E-4
-9.833909E-5
-7.0107717E-4
6.639518E-5
0.0010069718
-6.384499E-5
-1.6536002E-4
8.52327E-4
2.1655083E-4
5.2689033E-4
0.0011714586
-7.305082E-4
-9.147291E-4
3.4020242E-4
-8.464532E-5
5.640164E-4
0.0011379246
0.0015229494
0.0024889098
4.688211E-4
-8.7923463E-4
-1.2401513E-4
-8.0764684E-4
3.26002E-4
0.0020077054
4.7147178E-4
-0.0013701661
-0.0013819907
-1.3063783E-4
4.77196E-4
-1.3707366E-4
-9.971526E-4
-0.0016121601
-7.079511E-4
2.6012873E-4
-6.657632E-4
-0.0015212542
-9.219101E-4
5.855521E-4
0.0013739158
7.066727E-4
-5.6423283E-5
-0.0014071958
-0.0026603981
-0.0015374424
-0.0012375661
-0.0016913424
0.0011614589
0.0021677522
8.470377E-4
0.0027810177
0.0025562064
4.0701573E-4
0.0017230866
0.0011395622
-6.167094E-4
5.8415305E-4
1.09180146E-4
-0.0017824828
-1.7051223E-5
0.0024284841
-4.5352278E-4
-0.0031584546
5.7379174E-4
0.0031110554
7.180861E-4
-0.0010926806
-0.0011907212
-0.0011997507
-0.0015612663
-9.1996585E-4
7.3868745E-5
-0.0015718854
-0.0025730266
3.7587064E-4
0.0019414974
-6.0000555E-5
6.785014E-5
0.0011110151
-5.1818305E-4
6.087763E-5
0.0011504976
-8.4722607E-4
-6.004649E-4
2.7877427E-4
-5.9221865E-4
4.977668E-4
0.0015779192
0.0013191346
9.204999E-4
1.3187015E-4
1.031561E-4
-1.3624337E-4
-0.0010581804
-8.4570923E-4
-3.2160463E-4
7.022182E-4
0.0025389532
9.796758E-4
-0.0026541161
-0.0018372793
8.787067E-5
-1.7668538E-4
0.0011529704
0.001131214
-0.0014269036
-0.001484528
3.07342E-6
8.338699E-4
0.0010579831
0.0011345241
6.2428036E-4
-0.0013837724
-9.4774656E-4
0.0013552784
6.2720814E-5
-0.0016232185
-5.403823E-4
-5.4696214E-4
-0.00192297
-8.709748E-4
7.682365E-4
-8.6056185E-5
-3.5462758E-4
-9.9352765E-5
-7.5354835E-4
2.9827692E-4
0.0012985729
-1.285476E-4
-0.0013813114
5.472576E-4
0.0024361731
3.24069E-4
-2.3757064E-4
0.0010602153
6.375138E-5
4.4154047E-4
6.625838E-4
-1.3775621E-4
0.0010233786
8.3097373E-4
-4.3246595E-4
8.084938E-5
0.0019845378
0.0023405806
4.3390537E-4
3.9679403E-4
-0.001183724
-0.0033198819
-1.479893E-4
6.1565835E-4
-0.0012271343
-3.8132787E-4
-8.1690314E-4
-0.0012568997
-4.7067984E-4
-2.6786662E-4
-6.4681255E-4
-0.0013461452
-0.0012596861
-0.0015454151
-7.3430396E-4
3.3095924E-4
-3.5531077E-4
0.0016885509
0.0028147663
0.0013184096
0.0015951623
1.902391E-4
-3.6915584E-4
6.0853024E-4
-0.0014767929
-0.0015103931
-5.5843608E-5
8.696842E-6
0.0017616194
0.0019698625
3.8758962E-4
3.3161716E-4
-4.089006E-4
-4.6125587E-4
6.7364326E-4
-8.683097E-4
-0.0010420984
0.0011443408
-2.2511679E-4
-0.001140697
-4.380747E-4
-0.002552793
-0.0020607987
0.0015688275
0.0016125126
-6.9645036E-4
-2.8790088E-4
0.002542557
0.0034965621
0.0029597606
0.0011564717
-0.0026502477
-0.0030443992
-0.0013057777
-0.0014622702
-7.434624E-4
2.9944832E-4
0.0013162402
0.0021258246
6.064711E-4
-9.689424E-4
-0.0016907246
-0.0020656271
-5.8456836E-4
0.0019225221
0.0022449023
-5.821583E-4
-0.002281508
-2.5284904E-4
0.0015269107
-4.0774314E-5
-0.0014859111
-2.3803126E-5
6.5451E-4
1.2181242E-4
2.0768358E-4
-1.4934748E-4
8.913187E-4
0.0016773434
1.1112643E-4
-3.7175568E-4
-4.6281787E-4
-9.257947E-4
-8.9750404E-4
-9.4477E-4
-9.767961E-5
2.9452929E-5
-0.0011456073
-1.7485587E-4
0.00287864
0.0029964652
-9.308165E-4
-0.0030483985
-0.002483027
-8.436744E-4
0.0015770821
0.0015097493
0.0018879861
0.0025921657
-2.702124E-4
-3.4272153E-4
0.0017752481
0.0011717528
7.5753394E-4
-1.1283613E-5
-0.0018913031
-0.002733131
-6.318234E-4
0.0013217619
-7.679871E-4
-7.7802426E-4
1.6580558E-4
-0.0013694774
8.3431037E-4
9.295095E-4
-0.0025762054
-9.5434283E-4
-2.1710731E-4
-0.0013475108
1.2248603E-4
-0.0012721103
-8.2818686E-4
0.004354353
0.0020305442
-0.004244055
-0.0022467826
0.0011939538
7.9163036E-4
0.0011210201
0.0011498558
0.0011323235
0.001466286
4.4594507E-4
5.9656607E-4
0.0011197312
5.369536E-4
-3.5514918E-4
-0.0012282698
1.023937E-4
2.7687472E-4
-0.0019735822
-0.0018189239
-9.1237185E-4
6.6045276E-4
0.0021538103
2.743246E-4
4.3071542E-4
0.0022502062
5.959575E-4
-0.0012017138
-0.0017375855
-0.0021131374
-0.0023595057
-0.0020279964
5.165852E-4
0.001757178
-4.0760604E-4
-0.0014196386
-7.9238496E-4
1.6772134E-4
0.0012176303
4.120102E-4
2.5385505E-4
0.0014658194
6.775882E-4
7.683565E-4
0.0016668158
4.0712452E-4
-5.59986E-4
-0.0010410247
4.441517E-4
0.0026068732
4.6093154E-4
-0.0010042844
-6.916055E-4
-0.0015501123
-4.7304336E-4
3.915079E-5
3.177915E-4
0.002800816
0.002612898
5.7754345E-4
-4.5639064E-4
-0.0019783857
-0.002968634
-0.0012131939
7.7024125E-4
-5.203796E-4
-7.469275E-4
3.074871E-4
-0.0016172681
-0.0021472499
-0.0013666773
-8.201932E-4
9.441395E-4
-6.2838587E-4
-0.0017086497
9.3500526E-4
5.282186E-4
-4.5871246E-5
0.0014113305
9.5622014E-4
5.147513E-4
3.908396E-4
2.3817393E-5
7.428157E-4
0.0012192064
6.0188095E-4
-2.0641851E-4
2.3076715E-4
0.0015594712
0.0030002373
0.004748676
0.0030955425
-0.0018722526
-0.003186773
-0.0010912524
1.1990381E-4
0.0016261374
0.0028501102
1.2745686E-4
-0.004188117
-0.0049079745
-0.0036114014
-0.0023338532
4.022224E-4
0.0011703286
-7.186805E-4
-5.830711E-5
3.4442364E-4
-0.0016848828
-0.0010773363
0.0010045494
0.0021163027
0.0025202157
1.00063065E-4
-0.0024067857
-0.0017738682
-6.677665E-4
-1.3848756E-4
-5.779092E-5
5.9576846E-6
0.0011215687
0.0019723212
0.0018556813
6.2851846E-4
-7.621372E-4
-2.1903033E-4
-1.2582784E-4
-9.909149E-4
8.853231E-5
9.542589E-4
4.928123E-4
1.8313933E-5
-4.914428E-4
6.1983947E-4
0.0010285989
-0.0013672059
-7.737409E-4
0.0025269482
0.0026204805