-0.0015592573
-0.0013501876
6.007963E-4
0.0013501047
0.0010805902
5.218667E-4
0.0011305716
0.0016346647
6.571193E-4
3.1021817E-4
0.0012015518
6.555834E-4
-0.002039451
-0.0018164323
6.1775965E-4
1.235074E-5
-3.1237585E-5
7.771521E-4
-5.843144E-4
-9.6585526E-4
-0.0011382916
-8.899169E-4
0.0011313874
4.5516982E-4
-0.0013080464
-7.3908165E-4
-6.1813094E-5
-3.6650753E-4
-7.6281663E-4
9.695272E-4
0.0017471911
-0.001124807
-5.477838E-4
0.0023981102
0.0015229291
6.35422E-4
1.7679381E-4
-0.0015049574
-9.3343685E-4
9.780742E-4
0.0010009704
-6.310718E-4
-0.0014404121
-1.9634303E-4
6.327161E-4
5.508861E-4
9.708323E-4
9.240462E-4
4.283472E-4
-3.820363E-4
-0.0015685314
-0.0014438988
-0.0012737501
-0.002615265
-0.0021050302
0.0010159264
0.0021699523
6.4295257E-4
3.6196812E-4
8.394709E-4
-4.3942226E-5
4.122325E-4
0.0013178688
5.863724E-4
0.0011854911
6.6943286E-4
-8.382829E-4
0.001369336
0.0012005597
-0.0016741795
-0.0010674156
-3.573835E-4
5.865903E-4
0.0013011566
-5.104826E-4
3.3161443E-4
0.0010135564
-8.442902E-4
-4.7661623E-4
-0.0015961354
-0.0028625254
4.6559225E-4
0.0016419718
-3.6183407E-4
1.7379786E-4
0.001370545
8.944585E-5
-0.0016991802
-0.0015390101
-0.00100477
-0.0017174428
-0.0012653565
4.6552237E-4
4.7996163E-4
4.674726E-4
0.0023945307
0.0033146155
0.002847481
0.001402508
-0.001608781
-0.00230403
-2.773267E-4
5.946337E-4
-3.3153343E-4
-0.001811775
-9.983617E-4
8.249207E-4
8.854036E-4
0.0010408809
-5.39957E-4
-0.0021705274
-2.819364E-4
2.0918332E-4
5.2012614E-4
0.0023009959
9.942733E-4
-7.890965E-4
-0.0010625058
-9.95369E-4
-4.7207132E-4
9.276065E-5
0.0011633285
6.577752E-4
-6.703855E-4
-7.7113806E-4
-4.852571E-4
0.0017522575
0.002674803
0.0015382788
0.0011800495
-0.0019712236
-0.0030519732
3.1812923E-4
9.3848957E-4
1.4161062E-5
-0.0021115541
-0.0037717603
-9.367506E-4
8.6386804E-4
-5.1560666E-4
-0.0019067689
-0.0010455016
0.0018605804
0.0027935079
0.0024442961
0.0013074009
-0.001217591
-0.0010496435
0.0011615563
0.0021973667
0.0020300366
0.0011334851
-5.7145266E-4
-0.002332714
-9.809437E-4
0.0015703664
0.0014576045
4.663143E-4
1.09206754E-4
6.6701794E-4
-8.6310506E-4
-0.0041352455
-0.0018910976
0.0023375778
0.0021024789
-3.880466E-4
-0.0028632
-0.0021633732
-3.7836374E-4
-0.0013769186
-0.0011842888
-3.5090637E-4
-5.739067E-4
4.060621E-4
8.8722474E-4
0.00125951
0.0023705459
0.0017791188
4.3845846E-4
-1.7110918E-4
-5.9617055E-4
-5.1861384E-4
6.9436163E-4
0.0015809487
3.7399094E-4
-2.1792333E-4
6.386563E-4
-1.0565169E-4
-4.7696847E-4
4.7926084E-4
3.0316823E-4
3.8892016E-4
8.1561506E-5
-0.0010153006
3.2233793E-6
4.7844718E-4
-0.0010959003
-0.0019280094
-0.0020287344
-5.959309E-4
0.0016754945
0.0014258843
5.2845855E-5
3.1924246E-5
2.0921712E-4
-1.8797496E-4
-6.5699447E-4
-0.0016109915
-0.0017952245
2.770703E-4
0.0013394657
1.8048426E-4
-1.532075E-4
2.5807816E-4
8.628598E-4
0.0019851453
0.0017428771
-3.8849938E-4
-0.0012205146
8.869741E-4
0.0025283846
0.0018755228
-1.653056E-5
-0.002173015
-0.0020469746
-7.318833E-4
-2.1884961E-4
9.090605E-4
0.0010627151
-4.5158454E-6
-0.0011857618
-0.0026160278
-0.001137249
0.0014090604
6.475351E-4
1.3490397E-4
8.25671E-4
-0.001377265
-0.003092109
-2.6373207E-4
9.6525514E-4
-5.099558E-4
5.342297E-4
4.96824E-4
-8.216265E-4
-2.0648475E-4
-6.1396655E-4
7.105046E-4
0.0037003132
0.0024715662
-5.135575E-4
-0.0016703979
-8.874176E-4
2.934269E-4
0.0013945025
0.0031389173
0.0015662528
-0.0010675042
5.2575957E-5
-1.6959231E-4
-0.0019441628
-0.0012670788
-4.9363734E-4
-5.3351675E-4
5.4875336E-4
0.0015675435
-7.219611E-5
-9.33865E-4
9.762159E-4
8.32044E-6
-0.0021478874
-0.0014608409
-0.001496031
-0.001494576
2.9187367E-4
0.0015372671
0.002058076
0.0010510442
-8.4326725E-4
-7.2767405E-4
2.348406E-4
1.8235638E-5
-0.0011555535
-0.0010800795
0.0011696267
0.0016391694
4.43368E-4
7.999789E-4
4.6388042E-4
-3.4488735E-4
-2.5018695E-4
-8.7671605E-4
-4.226565E-4
3.960729E-4
-1.6280219E-4
2.3877264E-4
-3.6457047E-4
-0.0017595008
-6.9412694E-4
-5.54354E-4
-5.794573E-4
0.0026210204
0.003672201
6.676155E-4
-2.3335734E-4
0.001984614
0.0015078605
-0.0019057535
-0.0018063786
5.655638E-4
-2.1356552E-4
-0.0010238495
2.702113E-6
-0.0013169785
-0.0022666717
9.6494076E-4
0.0020039354
-2.765222E-4
1.2000849E-4
3.8157008E-4
-8.434569E-4
-6.559223E-4
-7.518519E-4
-1.8047621E-4
1.9737666E-4
-0.0012133413
-7.367457E-4
1.05231775E-4
-3.1017215E-4
-2.887821E-4
-6.0741153E-5
0.0010068249
0.0011735836
4.48638E-4
2.9334475E-4
-1.6271381E-4
0.0010469721
0.0011620743
-7.382945E-4
-5.4951994E-5
-5.4543884E-4
-0.0012574347
0.0010122104
7.7765645E-4
1.7117671E-4
0.0011980203
3.301411E-4
2.97191E-4
0.0014357761
8.4867945E-4
-7.690403E-4
-0.0018739781
-0.0010753882
1.9155539E-4
-3.4926113E-4
-5.208029E-4
2.776082E-4
-1.4620025E-5
-2.3011025E-4
-3.1047806E-4
-5.5378844E-4
5.5499544E-4
3.6812166E-4
-9.289508E-4
2.1295015E-4
9.1881835E-4
-7.812284E-4
-0.0023647284
-0.0014064247
0.0015900898
0.002441961
0.0010739322
-3.612399E-4
-0.0015872433
-0.0014423742
-0.0013820828
-0.0012083557
7.2840595E-4
9.986671E-4
1.0308257E-4
5.1908725E-4
-4.9418025E-4
-0.0011210891
0.0017253377
0.0032604577
0.0012809369
-4.9960753E-4
-2.8363708E-4
0.0014546984
0.00222217
0.0013686683
4.8650953E-4
-0.0013842419
-0.002138427
-5.5274635E-4
1.1533311E-4
9.591426E-4
0.00233919
0.002059332
8.795147E-4
3.2442182E-4
-8.984818E-4
-0.003983024
-0.0033273625
-0.0013326367
-0.005031917
-0.0045922752
4.2365325E-4
5.117463E-5
7.1755424E-4
0.0032812967
0.0011204996
-0.0014060438
-6.0284283E-4
8.6739904E-4
6.297219E-4
1.3419101E-4
5.516995E-4
1.6326837E-4
-6.089847E-4
4.3634578E-4
0.0027144765
0.0024532531
0.0012175086
0.0022754264
0.0017975093
2.477042E-4
1.4552039E-4
-5.3096504E-4
-0.0012394774
-0.0015901645
-0.0011955606
-6.361244E-4
-8.582348E-4
3.122659E-4
0.0011495824
0.0013753792
0.0018048116
1.215126E-4
-8.3257776E-4
-5.4545695E-4
-3.737918E-5
6.5216504E-4
-0.0016030603
-0.0021356896
-4.30208E-4
-0.002323366
-0.0022291958
0.0011372211
0.0015030119
-5.24334E-4
-0.0014849745
-6.350794E-4
8.131976E-5
5.253668E-4
-3.9993123E-5
-0.0013893122
2.1746739E-4
6.206294E-4
-0.0015714332
-2.549493E-4
0.0013497334
4.3299425E-4
1.8922582E-4
9.1579236E-4
0.001807737
0.002490581
0.003560259
0.0036422904
0.0013806327
-8.3831436E-4
-0.0025327827
-0.0031996544
-0.0015931414
4.9550546E-4
0.0015106488
0.0015107377
0.0010074532
-4.2400707E-4
-0.0016159471
-0.0015647884
-0.0020722535
-0.0019270848
-0.001691864
-0.00220049
1.4830304E-4
0.0030548926
0.002494092
-5.632709E-4
-0.0023305498
-0.0010301874
-5.591044E-4
-6.277999E-4
-5.4153544E-4
-5.154607E-4
0.0025622484
0.0029013588
-2.2016751E-4
-1.3236452E-5
7.84839E-5
-6.509557E-4
-3.6026613E-4
-4.088386E-4
-3.9583546E-4
-2.6879032E-4
0.0014773967
0.0014714588
-5.668838E-4
0.0012292402
0.0017697464
-1.3459721E-4
0.0012180248
0.0029971413
0.0023295619
-3.8979232E-4
-0.0020703797
-0.0010333261
-1.8725569E-4
3.6442443E-4
0.0012684162
0.0020883244
0.0013448137
-3.2336384E-4
-3.0314102E-4
-0.0017538107
-0.004029383
-0.0036691206
-0.0028382242
-0.0020107888
-0.0026156732
-0.003596316
-7.7062694E-4
0.0019455588
0.0011973408
2.9699973E-4
0.0017190203
0.0018733821
-0.0011990091
-7.01655E-4
0.0014427184
-9.301125E-4
-0.0018304981
2.5253757E-4
0.0021416126
0.00424867
0.00363683
0.0013491609
0.0012388232
0.0014423329
7.079592E-4
1.239682E-4
2.93145E-4
6.5244397E-4
-6.4963993E-4
-0.0032603724
-0.0039681634
-0.0023002739
-0.0013424197
-1.9601113E-4
0.0027235935
0.004210675
0.004292452
0.0032173316
7.412503E-5
-0.0010034922
-4.2643934E-4
-3.3741692E-4
6.513522E-4
5.2675785E-4
0.0010379176
0.0020145187
-0.0024888935
-0.00705564
-0.005305487
-0.0026426015
-0.0026124269
-0.0029164215
-0.0018169828
-7.0518226E-4
-0.001465727
-0.0014390046
0.0011570604
0.0019962466
0.0017635899
0.005385596
0.007917686
0.004657836
-5.1033247E-5
-0.002184322
-0.0013810336
-0.0014141524
-0.0027150135
-0.0029997907
-0.003636679
-0.0012644045
0.0036617708
0.0052223876
0.003932828
9.050586E-4
9.765599E-4
0.0047754683
0.0034006725
-0.0016732374
-0.004938906
-0.0056072925
-0.003926453
-0.002137289
-9.4482297E-4
-0.0023641172
-0.0046867696
-0.002613523
0.0023889411
0.006950371
0.00946881
0.011938186
0.012028561
0.0041630478
-0.005222685
-0.011815241
-0.013551084
-0.0072951224
-0.0036403078
-0.0057424447
-0.005732474
-0.0039859475
-0.0010491828
0.0025015029
0.0036907033
0.0036546425
0.0039584027
0.0020853074
0.0013726857
0.0073834746
0.008963794
0.0035347699
0.0059477654
0.00988191
0.0025144839
-0.008579364
-0.01066512
-0.0032320125
9.36561E-4
-0.0015973031
-0.003045422
-0.0021476708
6.7440335E-5
0.0016498659
0.0014822278
0.002495844
0.0026195492
-0.001995986
-0.0062045073
-0.004782102
-0.0028079473
-0.0034787427
-0.0039490988
-0.002968377
-0.0017065519
-0.003070889
-0.0028671927
0.0013882314
0.0047986503
0.009377379
0.01055181
0.005490147
0.003072521
-4.556168E-4
-0.004912257
-0.0035862448
-1.935996E-4
0.0035645256
0.0028807882
-0.001498375
-0.0019608978
-0.0032811232
-0.0050940006
-0.0029422245
-9.815092E-4
-6.738495E-4
2.2261891E-4
0.004113455
0.007562481
0.007605466
0.009255876
0.010643739
0.0058694934
-0.002848546
-0.010222458
-0.013708253
-0.012779686
-0.008622558
-0.004956534
-0.0020779623
7.403214E-4
0.0026133875
0.0064176884
0.009383792
0.006370986
0.0020155187
8.1394316E-4
0.0013618548
7.425457E-4
-0.0015375905
-0.003703505
-0.0054428997
-0.0069436687
-0.0073952163
-0.0050115273
-6.346908E-4
0.0025481957
0.0026440362
1.8073457E-4
-7.1324746E-4
-3.6522502E-4
4.956327E-4
0.004881046
0.007395656
0.0058591613
0.0035850462
9.6969714E-4
0.0015109562
0.0011522438
-0.002377202
-0.0022115551
-3.51266E-4
0.0020165946
0.0048960643
0.0037006165
-3.568606E-4
-0.0026277015
0.0018596953
0.008966675
0.009582654
0.0032398687
-0.0076145865
-0.01358053
-0.010521831
-0.008330563
-0.007130513
-0.005244551
-0.006033501
-0.005859511
-0.0037259213
-0.0010323926
0.0013844555
0.0015798055
0.0017784232
0.0032017105
0.006158654
0.009058702
0.0066310526
0.0036974656
0.0055942493
0.006933445
0.006780634
0.0045165634
-6.058347E-4
-0.0014714313
-3.8690315E-4
-0.0032211158
-0.0056777624
-0.0054240506
-0.0029781503
-0.0021674214
-0.003905216
-8.884775E-4
0.0028765956
0.002089171
0.0033398983
0.005697342
0.0031639673
-0.0046201176
-0.013041788
-0.015768407
-0.012701397
-0.0062335124
4.0911982E-5
0.0019275339
0.0036127141
0.007195044
0.008905913
0.011265867
0.0140214
0.01349424
0.013170161
0.010333637
3.794463E-4
-0.0077945767
-0.009927314
-0.009827238
-0.0079258885
-0.0065420284
-0.005370902
-0.0033921457
-0.0035091217
-0.00403392
-0.0030712087
-4.3787688E-4
0.0022426015
0.0012958663
4.954458E-4
0.0024693625
0.0030852254
0.0011900181
-8.637896E-4
-5.397006E-4
4.238037E-4
4.323513E-4
7.264627E-4
0.0016110275
0.0054710363
0.008142583
0.0030519757
-0.004164878
-0.0064370343
-0.0028580888
0.0016238238
0.0024942078
0.001794482
-0.0012399954
-0.0060432195
-0.008968754
-0.008850229
-0.004916012
-0.004264641
-0.00793
-0.004426896
0.0030507029
0.005832191
0.0077439216
0.010528382
0.010906358
0.010526909
0.0116365235
0.011194399
0.011126219
0.015650516
0.017110636
0.008318584
-0.0046847453
-0.013270904
-0.016173812
-0.015124436
-0.011290649
-0.008328168
-0.007635274
-0.009936926
-0.014927467
-0.015891245
-0.015293548
-0.016801339
-0.0122915
-0.0046508755
-3.5817103E-4
0.003685907
0.006549763
0.007831871
0.008411373
0.008139697
0.010443399
0.015144221
0.019986555
0.023638874
0.024487086
0.023128876
0.018220944
0.010351261
0.00485131
0.0026530284
2.3778995E-4
-0.0081064515
-0.021642357
-0.027975967
-0.02715241
-0.028229224
-0.024388265
-0.01528692
-0.011535529
-0.010504557
-0.00889709
-0.0072868154
-0.0035043284
0.0021903492
0.008925722
0.011698521
0.011592561
0.016003635
0.019421795
0.02093012
0.02542256
0.027817694
0.024718089
0.013960908
0.0025071404
-4.9831666E-4
-0.008213554
-0.026341107
-0.039931126
-0.039809994
-0.029456208
-0.021370595
-0.018157642
-0.013608
-0.010193189
-0.0068896203
-0.0013756746
0.0027772973
0.005847388
0.010292987
0.0161908
0.017241767
0.013358998
0.016133333
0.024460685
0.029467372
0.029507253
0.024393063
0.018785233
0.020959817
0.028803345
0.026420763
0.012042283
0.0023495744
-0.005645134
-0.016493823
-0.016957564
-0.012393908
-0.016693378
-0.027141158
-0.04020568
-0.056895044
-0.06989332
-0.06851516
-0.05734839
-0.039384827
-0.013950758
0.0022521946
0.014859293
0.043996133
0.07111488
0.08023144
0.076842494
0.059796058
0.033659477
0.005721572
-0.013973186
-0.018641012
-0.022353033
-0.025506746
-0.01737194
-0.0036262306
0.017741298
0.04159017
0.042229675
0.013185932
-0.022393284
-0.032929283
-0.018009286
-0.007110973
-0.0053934418
-0.0071072592
-0.02106878
-0.05861984
-0.11807887
-0.14112054
-0.0908397
-0.033010434
0.009155588
0.076415285
0.14301316
0.16938138
0.16563173
0.14613469
0.10294057
0.03590232
-0.02506659
-0.06753373
-0.0894911
-0.09076271
-0.103563584
-0.115441374
-0.086788945
-0.035977677
0.026253937
0.09306025
0.13360693
0.1526581
0.14091204
0.047001224
-0.11394253
-0.24985655
-0.29671693
-0.24308982
-0.12320813
-0.015944451
0.04902558
0.10424597
0.16220117
0.2112791
0.22168621
0.1974588
0.16377312
0.08004199
-0.0313549
-0.08767537
-0.11251734
-0.11440282
-0.0773771
-0.06942321
-0.089515135
-0.07952261
-0.0528964
-0.020776333
0.017363254
0.0378177
0.03741103
0.044741925
0.06317955
0.047995657
0.006083811
-0.013621069
-0.02859115
-0.065768786
-0.10464378
-0.1011793
-0.038402185
0.029703973
0.06055692
0.07872145
0.11915422
0.15940253
0.15428203
0.12258361
0.063239396
-0.02631729
-0.0795933
-0.123952985
-0.19716863
-0.2254229
-0.19804457
-0.14868975
-0.08072367
-0.0063001458
0.05605562
0.073996656
0.06161026
0.07359134
0.12201302
0.1739586
0.17972946
0.14479521
0.104559615
0.077689305
0.07314373
0.021582277
-0.0916086
-0.15724348
-0.1478871
-0.075530164
0.05392034
0.13620995
0.09191014
-0.024615908
-0.13023102
-0.2008164
-0.20611311
-0.12858857
-0.059042845
-0.04514831
-0.03912305
-0.030684752
-0.010301021
0.01934117
0.024661513
0.017167773
0.025098316
0.046026476
0.054681737
0.07156952
0.11655882
0.12234923
0.084422745
0.049884122
0.028091649
0.066483624
0.13427565
0.13753258
0.0677814
-0.05685947
-0.16068088
-0.17019926
-0.13221966
-0.09414235
-0.065010436
-0.04133464
-0.017899813
-0.008247072
0.013959951
0.060781553
0.08644881
0.08023002
0.06994641
0.069455974
0.052820064
-0.007230935
-0.0756018
-0.10884562
-0.10815549
-0.08245153
-0.045595065
-0.01758141
0.011048524
0.042971414
0.050820466
0.032583572
5.205742E-4
-0.026105309
-0.022305941
-0.012345666
-0.0167197
-0.013987002
5.431064E-4
0.013561994
0.014606332
0.017004713
0.029144788
0.029096229
0.024495022
0.02991479
0.03346192
0.031833157
0.023514725
0.01278554
0.0061272536
-0.001985822
-0.010426454
-0.015793394
-0.018894201
-0.021576544
-0.023164863
-0.021397868
-0.019095933
-0.015676223
-0.013591313
-0.015275975
-0.012762524
-0.0049152533
0.004661138
0.013465103
0.018121049
0.020155407
0.020538239
0.017476166
0.010689881
0.0050774617
0.0027229227
-0.0023236475
-0.008292624
-0.010947993
-0.013049287
-0.012905142
-0.009142983
-0.0055371635
-0.0033240945
-3.4535E-4
0.0034756619
0.004818569
0.0047640614
0.005367347
0.0040552584
0.001745168
-1.3525481E-4
-0.0035749802
-0.0068996316
-0.006398921
-0.0025067846
-6.653225E-5
-5.576889E-4
-1.9786097E-4
-1.3537788E-4
-0.0025554034
-0.0033580035
-0.002474148
-0.0024629172
8.034647E-5
0.003796786
0.0035402845
0.0021781544
0.0011529953
-1.0973534E-4
0.0018256143
0.004433451
0.004267044
0.0037556658
0.0042906767
0.0059123007
0.005875095
0.0031625533
0.0013709153
0.0010208999
0.00133269
0.0012730279
0.0016559211
0.0024946632
-9.292988E-4
-0.0036661646
-0.0018134164
-0.0024682065
-0.003847586
-0.004091254
-0.0053409976
-0.0042857737
-0.003228381
-0.002260699
0.0016470132
9.1645936E-4
-0.004839105
-0.005816857
-0.0027428456
4.529553E-5
0.0020915193
8.961059E-4
-0.002004242
-0.004359672
-0.0071383105
-0.005590321
-4.973043E-4
9.784026E-4
9.98903E-4
0.0012864758
4.8460969E-4
0.0016404417
0.0039520594
0.00330802
0.0017777955
0.0027663263
0.0028854853
0.0017042832
0.002260455
0.0020559423
0.0014458579
0.0013439609
0.0017142914
0.0039257677
0.0031983226
0.0012263048
0.0016016839
9.958824E-4
0.0016925232
0.0011012777
-5.2038016E-4
0.0017989677
8.925269E-4
-0.0016288643
-0.001573209
-0.002909704
-0.003250867
-0.004137253
-0.0044918675
-0.0011826092
-2.7699914E-4
-0.0014392695
-0.0017655565
-9.999834E-4
-4.4016895E-5
-9.523877E-4
-3.972875E-4
-7.9767684E-5
-0.0012315343
8.779041E-5
7.445999E-4
3.332565E-4
-6.3651573E-4
-0.0018805235
-2.6787684E-4
-5.312812E-4
-0.0011027945
0.0017728491
0.0014383127
3.5246575E-4
0.0011260326
-2.4260848E-4
-2.5641997E-4
3.871175E-4
-9.811821E-4
-2.594143E-4
2.624233E-4
-0.001993583
-0.0012439882
0.0024914658
0.0035678102
0.0021261116
9.08443E-4
9.342499E-4
8.663073E-4
6.953273E-5
0.0014253561
0.0029056855
0.0013872994
-1.6754285E-4
-9.4297423E-4
-3.4602318E-4
0.0014675079
8.727729E-4
-6.0627225E-4
-0.0014729212
-0.0023216659
-0.0018054784
-0.0013372637
-0.0017585044
-0.0024273046
-0.0022328377
-0.0012663567
-0.0024247982
-0.0023452982
-4.208242E-4
-0.0015307029
-0.0014854942
5.484057E-4
3.0924368E-4
-2.0970953E-4
2.9266812E-4
0.0014834123
0.0012063069
-2.1134065E-4
0.0013875839
0.0030818651
0.0028522732
0.0024096044
9.3042734E-4
1.3899335E-4
1.3848972E-4
-7.258616E-5
7.1102777E-4
0.0012773902
6.070881E-4
-9.131602E-4
-9.257062E-4
9.7501115E-4
4.3521821E-4
-5.7315594E-4
7.803483E-4
1.3427476E-4
-0.0016929634
-0.0018185324
-0.0019041594
-0.0013042055
-6.070672E-4
-4.4264333E-4
0.0011302724
9.909361E-4
-9.910334E-4
-0.0014046367
-0.0019989826
-0.0022061614
-0.0027001612
-0.0035678232
-2.3965976E-4
0.0024632034
0.0017984665
0.0022298794
0.0016190293
0.0010326033
0.0021267077
8.511375E-4
-0.0010557583
-8.6679467E-4
-0.001650947
-0.0022661844
9.484856E-4
0.0010777962
-0.0032329438
-0.0026256994
-0.0010148156
-4.878717E-4
0.0029667465
0.0030158185
0.0010197549
0.0016463102
0.0021587333
0.0011485209
-0.0013438264
-0.0015119659
-9.7457593E-4
-0.0018001618
-4.3829164E-5
4.975181E-4
8.734177E-4
0.0025284453
-5.315171E-4
-0.002379282
3.9471226E-4
0.0010944927
-5.043244E-4
-7.3333405E-4
1.9412836E-4
-6.039251E-4
-0.0012738489
-9.0230396E-4
-7.615654E-4
7.412637E-4
4.783855E-4
-0.0014939747
-0.0016203431
-4.842515E-4
0.001505997
8.807845E-4
-4.7682776E-4
0.0010970231
0.0018690487
0.0021120491
7.648215E-4
-4.1409244E-4
0.0020503195
4.5150355E-5
-0.0036667679
-7.6954125E-4
0.0015218818
1.6485523E-4
-7.1542594E-4
-0.0010000744
-4.64942E-4
4.5904116E-4
-6.488665E-4
-0.0018205513
-4.336933E-4
7.243159E-5
3.534227E-4
0.0026948364
0.002294608
-3.0098855E-4
-3.381591E-5
0.001134068
4.263603E-4
5.875078E-4
0.0010669677
-0.0011283854
-0.0012418672
5.694465E-4
6.88962E-5
6.707962E-4
-2.4151681E-5
-0.0022086862
-0.0010841882
-8.5003616E-4
-4.752861E-4
0.0011422093
-5.156202E-4
-0.0016705922
-0.0016817393
-0.0022537543
-4.3843585E-4
0.0015689464
0.0015110878
4.391289E-4
-2.9588063E-4
3.7616031E-4
4.186479E-4
-5.223909E-4
-3.73903E-4
2.5601467E-4
4.9169586E-5
-6.2079215E-4
-1.5701406E-4
0.0016191421
0.002351476
0.0018325753
0.0021537982
0.0019499406
-8.102507E-4
-0.0029767894
-0.0018425192
-4.3467584E-4
-1.0192016E-4
0.0010220661
8.0514874E-4
-0.001212287
-0.0018368451
-0.0014885726
3.3887583E-5
0.0016761338
8.526805E-4
0.0010368383
0.002125042
0.0012054599
3.3998465E-5
-0.0015504769
-0.0020004432
-5.456657E-4
-9.436693E-4
-0.0019159974
-0.0010396626
1.4429247E-4
-1.0423833E-5
-2.6846961E-5
0.0015143135
0.001060962
-0.0013280354
-0.0017144807
4.2537198E-4
0.0025865496
0.0012891074
-3.2103813E-4
-2.9599978E-4
-0.0012733759
-3.8364466E-4
2.3556728E-5
-0.001801638
-1.9248114E-4
0.002008757
0.0013508612
0.0010085106
0.002635025
0.002201419
-0.0024629326
-0.003110272
-2.0026755E-4
6.4803124E-4
0.0029799477
0.0024483693
-0.0013763157
-0.0011186512
-8.4664364E-4
-0.0020962458
-0.0013617047
-3.2247856E-4
-7.8917685E-4
-0.0014461356
-3.6088668E-4
5.674536E-4
9.6588256E-4
0.0016103075
6.9054577E-4
-3.1502615E-5
4.2733428E-4
5.562163E-4
1.8121138E-4
8.039591E-6
7.5304287E-4
4.672306E-5
-0.001334116
-0.0012729162
-0.0016407381
-0.0011252706
-2.6704176E-4
2.0081554E-5
0.0018899818
0.0026765899
0.0016191028
4.0120227E-4
-0.0011533194
-0.0015745929
-0.0011153426
-0.0012694048
-0.0012923403
4.2401388E-4
0.0017158523
0.0011151527
0.0024729478
0.0032177765
6.756824E-4
-7.939194E-5
1.8737545E-4
-0.0015970438
-0.0021045709
8.956085E-4
0.0021459283
-4.9339206E-4
-5.103061E-4
0.0014953885
0.00188492
0.0011435278
-0.001625704
-0.0025990682
-0.0023854075
-0.0057413843
-0.007086757
-0.0023361119
0.0026426017
7.616144E-4
-0.0027034194
1.4624037E-4
0.0029595878
0.0039237146
0.004465469
0.0010781309
-7.746084E-4
6.605551E-4
0.0013130157
0.0010801557
-2.5988996E-4
-8.400158E-4
-9.749511E-4
-2.506102E-4
0.0013656622
2.0539844E-4
7.1451796E-4
0.0015961964
-9.866473E-4
-2.0828671E-5
8.860251E-4
-4.5158959E-4
0.0016345993
9.668066E-4
-0.0027214568
-0.0029934868
-0.0014156732
-5.2240177E-4
-0.0013890885
-8.8335254E-4
0.0013588223
7.913272E-4
1.27893E-4
7.1895163E-4
7.216285E-4
0.0012122357
4.512509E-5
-0.0014733893
-7.502581E-5
4.8166898E-4
-7.977143E-4
-0.0013123185
-0.0013065519
-8.167224E-4
-4.2427922E-4
-9.950023E-5
0.0017771964
0.0021236858
-7.7834364E-4
-0.0011567649
0.0010219549
-1.9925875E-4
-0.0017383407
0.0010531163
0.002292367
-7.401524E-5
2.3363355E-4
0.0012373603
5.8333075E-4
0.0017518726
0.0015790493
-4.7286608E-6
-8.452627E-4
-0.003087864
-0.0018166363
0.0011947388
2.5995008E-5
-2.1418155E-4
-5.839665E-4
-0.0020520382
-4.3234497E-4
6.330352E-4
9.04018E-5
-6.824759E-4
-0.0015470394
-5.8237184E-4
9.277521E-4
0.0011828368
-7.3759083E-4
-0.0023359826
-4.0423367E-4
0.001452591
0.0012887536
9.835891E-4
0.0013178024
7.5939886E-4
-8.8511244E-4
6.93803E-4
0.0028137073
0.0012371994
-2.6368903E-4
-1.3203612E-5
4.4210034E-4
-0.0013715811
-0.0018521738
0.002134709
0.0019189282
-2.9231905E-4
0.0012837873
-1.6761108E-4
-0.0014589614
2.6058295E-4
-0.0015995066
-0.0035534776
-0.0018697963
-4.902552E-4
1.9909542E-4
0.0012280146
0.0010585159
3.3848552E-4
-2.8517484E-4
-0.0020222822
-0.0024696556
-6.215469E-4
0.0010652031
0.001772108
7.317456E-4
-9.268457E-5
4.4989766E-4
-1.500118E-4
-3.1445004E-4
0.0010574148
0.0018732484
0.0013626394
4.677901E-4
8.3899393E-4
5.737137E-4
-8.179006E-4
-9.954978E-4
-0.001438807
-0.0014367807
-9.307594E-5
1.8425852E-4
3.3070386E-4
7.7633705E-4
9.463515E-4
0.0011297914
-2.2552031E-4
-0.001766654
-0.0013431561
-9.278225E-4
-0.0014169045
-6.75573E-4
0.0014805183
0.0020387848
0.0010568739
9.235933E-4
0.001067742
0.0010847237
-8.1741344E-4
-0.004119854
-0.0013883136
0.0036267505
0.001438516
-0.0015504078
-8.6122955E-4
-6.7275687E-4
2.028682E-4
5.830448E-4
-0.0013110524
-9.563059E-4
0.0014957476
7.026649E-4
-0.0020542534
-0.0013644795
4.5471723E-4
7.348997E-4
0.0020161408
0.001496915
-9.39047E-4
-8.1854395E-4
2.4074296E-4
0.001307342
0.0015512267
4.153649E-5
-8.643499E-4
-0.001378173
-8.316999E-4
-7.140761E-4
-0.0016482528
0.0013633023
0.0027777394
-6.9691485E-4
-0.001475535
-5.825518E-4
3.7920682E-4
0.0012590402
-7.585417E-5
-1.1271615E-4
7.5069093E-4
6.7856285E-4
-1.1878701E-4
-0.0022531108
-0.0011218555
0.0014442847
8.379605E-4
8.529462E-4
9.339541E-6
-0.0021089658
-5.1511324E-4
0.001411846
7.932824E-4
0.0018782443
0.0033044326
-4.5108807E-4
-0.0044890717
-0.0025951732
-5.5602874E-4
-5.889139E-4
7.1360485E-4
4.7662633E-4
-0.0017282941
-0.001269552
0.0013433988
9.770937E-4
-7.528777E-4
7.693531E-4
8.856557E-4
-5.672225E-4
0.0015214392
0.001862291
-7.80712E-4
-5.739856E-4
8.8238996E-4
0.0010398723
7.218121E-4
-1.7546075E-4
-0.0014135422
-0.0010826346
-1.4816136E-4
-0.0012932916
-7.3002506E-4
0.0020905584
0.0017251857
8.259564E-4
0.0010707522
2.6394275E-4
9.072488E-5
-0.0013482214
-0.0022617886
4.1238964E-4
-4.7055486E-4
-0.0035194876
-0.0017930829
3.137446E-4
9.064326E-4
0.0019236607
0.0012349464
1.2038892E-4
0.0011585344
0.0013442319
-0.0010910891
-0.001804178
-2.252077E-5
4.2210016E-4
-1.6400604E-4
-9.835707E-4
-0.0014988253
-2.8813854E-4
5.775906E-4
5.84039E-4
-2.1145903E-5
-0.0015218828
1.239668E-4
0.003349652
0.0021955767
-2.066866E-5
4.396722E-4
2.2660897E-4
-1.0361657E-4
0.0017490506
0.0011142772
-0.0012829566
-3.338889E-4
-0.0011017564
-0.0033340238
-7.826982E-4
9.6787076E-4
-5.905355E-4
-6.7503424E-4
-1.5054875E-4
-1.7199804E-4
6.5132394E-4
0.0016482208
6.6087596E-5
-0.0017846874
-7.5914984E-4
-5.646368E-4
3.5040575E-4
0.002871787
0.0012003459
-0.0013269035
-7.7043136E-4
5.980594E-4
0.0010833261
-6.602565E-4
-0.0011459558
8.6404366E-4
0.0011252246
-1.7636262E-4
-8.7173673E-4
-1.3916883E-4
9.89137E-4
0.001253299
8.5649476E-4
-4.071695E-4
-0.0014485709
-0.0014626764
-0.001109839
-0.0013485688
-9.20315E-4
0.0010851173
-8.270722E-5
-0.0020929615
9.8149954E-5
0.0013452577
7.8335614E-4
4.0846498E-4
2.6537708E-4
0.0015250182
0.0013818666
6.461842E-4
4.0816018E-4
-0.0011129942
-0.0015458119
-0.0012798765
-3.9577158E-4
4.8095788E-4
-7.253185E-4
-3.1567065E-4
6.184092E-4
5.519968E-4
0.0028683834
0.004772252
0.0023619635
-0.002258825
-0.0028777285
-3.3727626E-4
-5.315347E-4
-6.2082853E-4
1.1484287E-4
-9.159117E-4
-0.0011896335
-3.7707447E-4
1.5726655E-4
-5.058391E-5
1.8999068E-4
9.151673E-4
-4.0960236E-4
-0.0017881163
-0.0012430495
-1.5604513E-5
7.916333E-4
3.8813942E-4
-4.334274E-5
-4.3103582E-4
-0.0012013754
-0.0014944474
-1.9764973E-4
0.0020192917
0.002279382
0.0027764721
0.002498016
-0.0013882483
-0.001420517
0.0014149854
0.0011052109
9.4951625E-4
6.75091E-5
-0.001786058
-0.0016512723
-0.0016857593
-0.0020505574
-8.477006E-4
-4.7199978E-4
-0.0017769973
-8.3382256E-5
0.0016822779
-4.6912752E-4
4.0755805E-4
0.0021923082
2.9148153E-4
-7.8852347E-4
-0.0014073194
-4.60065E-4
0.0011985222
8.8240684E-4
0.0025228667
0.0026933616
6.6618645E-4
7.7522476E-4
-3.1106806E-4
-6.9614756E-4
2.448807E-4
-6.870381E-4
6.254233E-5
6.992177E-4
-0.0013483441
-0.0013603488
8.733492E-4
0.0013008615
-6.94117E-5
-0.0013851335
-0.00343986
-0.0038915314
-5.1577017E-4
-4.0733794E-5
-0.0028203863
-5.101672E-4
0.0031458195
0.0020729897
9.220175E-4
3.671257E-4
-4.425639E-4
9.958065E-4
5.648944E-4
-7.5878476E-4
0.0012100035
0.0014349379
0.0011643985