2.509667E-4
-3.5612984E-4
3.801216E-4
0.0019870056
0.0020802312
-2.688789E-4
-0.0011996292
-4.0178862E-4
-9.329812E-4
-6.5478805E-4
8.487364E-4
9.966118E-4
1.1336678E-4
-0.0013277115
-0.001809263
-3.9704863E-4
-1.4218104E-4
-4.5618592E-4
4.5786874E-4
-6.4476545E-4
-0.0016786794
6.880464E-4
0.0016302271
4.0477997E-4
-4.766521E-5
-1.5303768E-4
5.8687956E-4
8.555746E-4
2.7313124E-4
0.0011786087
0.001097371
-0.0012017825
-0.001123186
0.0018875805
0.0023057102
-6.8197615E-4
-0.0023770912
-0.0023398197
-0.0015555653
4.9553683E-4
0.0013440398
-7.1371865E-4
-0.0023921833
-2.994857E-4
0.001974287
9.6086913E-4
8.398119E-5
1.4141647E-4
-1.7616828E-4
-2.0801456E-4
-4.750128E-4
-7.3475257E-4
-4.9189077E-4
2.0446835E-4
3.0057423E-4
5.6223077E-4
0.003279411
0.0036589566
-1.4537488E-4
-0.0026301309
-0.0024455364
-2.2930108E-4
9.851598E-4
-4.903043E-5
-1.17805685E-4
-6.09555E-4
-7.551381E-4
8.0055464E-4
5.3919887E-4
-6.8975374E-4
-9.962248E-4
1.1964882E-4
0.0019484485
8.082482E-4
-0.0016768338
-0.0010986204
6.6699943E-4
-2.2425727E-4
-0.0013704752
3.9408784E-4
0.0016118407
0.0020357687
0.0028548702
3.4196887E-4
-0.0021959736
-0.0013423254
-0.0016913196
-0.0019404338
-5.1933393E-4
-9.3532295E-4
-4.2158048E-4
0.0011408168
-1.76277E-4
2.4962277E-4
0.0025581517
0.0011774091
-2.7775424E-4
8.3366537E-4
0.0013610359
-3.0489598E-4
-0.0028734992
-0.0024758033
-7.089407E-4
-5.2221515E-4
3.6586332E-4
2.809212E-4
-6.34578E-4
5.2166736E-4
2.8404777E-4
-3.7742092E-4
0.0017146533
0.0025238518
0.0012567398
6.324481E-4
3.416899E-4
-2.1566464E-4
-0.0013134828
-0.0017984553
-4.1720262E-4
2.620165E-4
-6.379418E-4
3.39945E-4
0.0026826786
0.0023924164
-1.0147847E-4
-0.00105235
9.36456E-4
0.002482376
-1.5714426E-4
-0.0040587615
-0.0040081525
-0.0011032862
5.6897994E-4
-6.0632705E-5
-0.0012250242
-8.9028676E-4
1.110764E-6
-2.7995819E-4
-3.7736434E-4
6.426004E-4
0.0017899296
0.0016541625
-2.2655401E-4
-5.662923E-4
0.001109357
1.4069823E-4
-0.0014648836
3.5376454E-4
0.0013612732
1.6645788E-5
3.70434E-4
0.0015910262
0.0010798081
-3.6844076E-4
-0.0011138743
-0.0010360217
-0.0017242263
-0.0016055453
0.0011379223
0.001663388
-6.013646E-4
-1.7489809E-4
7.6927384E-4
4.1510415E-5
3.7145294E-4
-2.1266605E-4
-9.778804E-4
3.1881774E-4
1.5738322E-5
-1.9609384E-4
4.5508923E-4
-0.0011730673
-1.4372537E-4
0.0020317733
5.3173044E-5
-6.6406274E-4
4.4699485E-4
0.0012435276
0.002223867
2.9033882E-4
-0.0010284588
6.882095E-4
1.9324909E-5
-0.0015659444
-0.0010813024
-9.803732E-4
-0.0016232667
-6.293729E-4
0.0010424848
-8.720725E-5
-0.001729621
-9.131857E-4
-2.7731573E-4
-4.168379E-5
0.0012449239
0.0015174139
2.882929E-4
1.930999E-4
2.2307629E-4
-9.736677E-4
3.2028038E-4
0.00215498
6.4425264E-4
-2.0399864E-4
-3.095744E-4
-0.0010169332
-1.6366885E-4
4.6280926E-4
0.0018493489
0.0036611317
7.946932E-4
-0.003180842
-0.0039128116
-0.0026375386
1.9838137E-4
0.0010932587
-4.9043394E-4
-3.3021407E-4
-7.5116506E-5
-0.0011975134
-7.913203E-4
0.0011519548
0.0018382688
3.8990087E-4
-3.401427E-4
5.687332E-4
4.283364E-4
-3.9551896E-4
-1.2624048E-4
0.0012965521
0.0021524052
5.983379E-4
6.9485664E-5
0.0024538834
0.0033118315
0.0014070725
-0.001725952
-0.004570541
-0.004270876
-0.0016487924
-5.2425945E-5
8.2931557E-4
0.0014669275
-3.155346E-5
-0.0014045439
-1.04669976E-4
6.465508E-4
-3.305193E-5
-0.0011637646
-0.002409828
-0.001507776
-1.577128E-4
2.179917E-4
0.0011281058
0.0013444843
0.0014204824
0.0015822509
5.0909194E-4
-3.667278E-5
7.00237E-4
0.0013741343
2.3219107E-4
-0.0014860298
-9.858023E-4
-4.2149393E-4
-7.6407724E-4
2.8467088E-4
0.0020454105
0.001522001
-0.0011201388
-0.0011951616
3.646246E-4
-7.7606016E-4
-0.001423338
5.0096185E-4
9.831337E-4
-5.9597805E-4
-6.973624E-4
-3.591872E-4
-8.1856543E-4
9.802687E-4
0.00198595
9.6710675E-5
-9.0739434E-4
-6.824119E-4
0.0010846686
0.0016415465
-4.0218767E-4
-4.440486E-4
-3.8954432E-4
-0.0012926114
-0.0011060393
8.086283E-5
0.002290715
6.98829E-4
-0.0024029969
-0.0010854978
3.74749E-4
7.362228E-4
2.8667873E-4
-5.554571E-4
5.8632996E-4
0.0011568627
0.0015892443
0.0010169102
-0.0015225253
-0.0015310566
-0.00112024
-1.9822427E-4
0.0022457058
9.161942E-4
-0.0011134003
-8.0862344E-4
-3.1698667E-4
8.1231055E-4
5.3489325E-4
-9.139932E-4
-0.001144426
-4.589392E-4
9.5940207E-4
2.975926E-4
-0.0020006394
-9.0981874E-4
0.0012103053
4.1436614E-4
-6.275127E-4
-4.5849572E-4
-4.1029206E-4
3.5084868E-4
0.0017531385
9.6778676E-4
-0.0015389895
-0.002180927
-6.757152E-4
0.0012763691
0.0019129954
-3.7258105E-5
-9.562301E-4
0.0010560316
0.0017348652
8.742868E-4
8.413918E-4
9.313529E-4
4.4554868E-4
-9.90571E-5
0.0010137897
0.0014639836
-0.0012147593
-0.0020219625
-6.8395777E-4
-0.0010550736
-8.577321E-4
1.2316994E-4
-5.527446E-5
-1.2027467E-5
6.8980333E-4
5.9589505E-4
-7.981806E-4
-0.0013683913
-7.2400307E-4
-0.0017350579
-0.002393103
3.7562122E-4
0.0014803975
-0.0018773781
-0.002020239
0.002637636
0.0030427184
5.6743655E-5
4.0024193E-4
0.0013338875
4.919676E-4
-6.498587E-4
-2.6479582E-4
0.0018351924
6.093289E-4
-0.0016520899
-3.575697E-5
4.5085687E-4
3.0289408E-5
8.0474827E-4
1.116943E-4
3.3163185E-5
-8.88093E-5
-0.0023114681
-0.003777896
-0.0026071514
-5.7932624E-4
-6.784817E-4
8.040933E-4
0.0038790035
0.0026943067
0.0022520516
0.0023931463
-0.0011506304
-0.0013976034
6.212263E-4
5.403324E-4
4.1220582E-4
-2.4088236E-4
-6.560762E-4
-0.0010145121
-4.7900667E-4
0.0016347555
0.0011021409
0.0012068221
0.0041343574
0.0035134878
-2.2873029E-4
-0.0026539748
-0.0033348238
-0.004158261
-0.004938963
-0.0038886787
-0.0024372854
-8.6293125E-4
6.8890635E-4
3.6905135E-4
1.0383814E-4
9.766839E-4
9.005617E-4
-5.5966194E-4
-9.084392E-4
8.0509257E-4
0.0012008385
4.2552067E-4
4.9945374E-4
6.331889E-5
1.956958E-5
6.3746824E-4
0.0016381853
0.003767138
0.003489538
6.5806514E-4
-4.334992E-4
9.713625E-4
0.0017879466
-0.0010131302
-0.001245647
0.002583273
0.001297034
-4.1347355E-4
3.2967515E-4
-0.0024554173
-0.0014993703
0.0017093632
-3.9489922E-4
-0.0012856735
-0.0013099426
-0.0030629958
-0.002525735
2.456038E-4
0.002984635
0.0013933985
-0.0023804756
-0.0022980268
-9.289594E-4
-5.1843136E-4
-0.0013271521
-0.0021043646
-9.133506E-4
-0.001429737
-0.0029859343
-0.0011649703
0.0021655783
0.0029883666
0.0014161731
8.6523284E-4
0.0012536256
0.0014842587
0.0015226527
5.361519E-4
-4.016504E-4
-0.0016160506
-8.816131E-4
0.001753911
-7.090507E-5
-0.0010137953
0.00269557
0.0038797357
0.004220224
0.005135321
0.0026216912
-0.0012447683
-0.0015762604
1.3697763E-4
-0.0012980987
-0.0019905902
-0.0010498547
-0.0030976809
-0.0026209287
-0.0013227185
-0.0032372845
-0.0018094196
-3.7831793E-4
-0.0014664466
2.3539331E-4
0.001193363
-2.0261247E-4
2.6895374E-4
9.773804E-4
-5.6789536E-4
-5.3980615E-4
9.2980854E-4
-3.5974235E-4
-4.0745764E-4
-2.2645679E-4
-0.002466404
-1.4670924E-4
0.0018918888
7.1189745E-4
0.0030212787
0.0024522888
-1.9837661E-4
4.8145273E-4
2.3226652E-4
0.0025318544
0.004778131
0.0016810679
5.407114E-5
-4.857328E-4
-0.00260896
-0.0047301985
-0.0058081257
-0.003001348
3.0737725E-4
5.95351E-4
-2.4283424E-4
-6.8549346E-4
5.813167E-4
4.995619E-4
-0.0017045514
-0.0020838827
-7.582634E-4
0.001300265
0.0024812126
0.0032414966
0.0053497166
0.004059017
-0.0014674888
-0.0033572277
-1.58433E-4
-3.1076797E-4
-0.0034906033
-0.0016643486
0.0011534143
0.0019469871
0.004493022
0.005940052
0.0044905823
7.57852E-4
-0.0025480317
-0.0022797806
-0.0015312546
-0.0010304558
-0.0027972688
-0.006369828
-0.004435283
-0.001131326
-6.5371156E-4
-2.493844E-4
-2.3830808E-5
0.002933616
0.0048133316
0.0014960929
-0.0011184078
-0.0024386474
-0.0020531318
-0.0014912086
-0.0039141555
-0.0021330072
0.0022153088
0.0030650487
0.0030226342
0.0010244418
-2.0583445E-4
3.100413E-4
-0.0020700938
-0.003181495
-0.0020793432
-9.206903E-5
0.0023008832
-7.4786905E-5
-0.0013370389
0.0025499766
0.003841254
0.003705138
0.006372272
0.0077429586
0.0035941596
9.96222E-4
0.0045507476
0.001240975
-0.009457564
-0.011770723
-0.0048121773
0.0011668252
4.614085E-4
-0.0022442164
-0.0011699228
0.0019269683
0.0030226808
-0.0020989422
-0.006311399
-0.002711468
-6.537731E-4
-9.7227696E-4
1.3058289E-4
-8.614462E-4
-0.0016988298
-0.001273108
-1.291102E-4
0.0018146706
0.0019254424
8.609402E-4
8.5322105E-4
0.0049554803
0.009502384
0.006714548
0.0015369571
-7.2042696E-4
-0.0023183294
-0.00423657
-0.0054816855
-0.0044646193
-0.0031485413
-0.0018295397
0.0010892297
0.0020132891
-7.752627E-4
-0.0046499153
-0.005303753
-0.0020117532
6.34425E-4
0.0022587772
0.004734529
0.00580608
0.004396128
0.006078714
0.00949138
0.0053848242
1.8896825E-4
-0.0012218996
-0.0040915343
-0.0032164569
-2.456781E-4
4.2611363E-4
8.1282726E-4
-0.0020079329
-0.0029227117
-0.0020960278
-0.0042574946
-0.00281531
-0.001929613
-0.0024658237
9.825401E-4
-4.448059E-5
-0.0038112323
-0.0033819221
-0.003271392
-0.0032759972
-2.6237936E-4
9.911123E-4
-0.0025306558
-0.0019976988
0.0031633687
0.0030556705
0.0017219168
0.0028026944
0.0016521628
1.5378383E-4
9.23554E-5
6.946857E-4
0.0028273077
0.006095867
0.0069901687
0.0045069894
-5.887943E-5
-0.006580051
-0.0069437395
4.4390056E-4
0.004196446
0.004225751
0.003477052
0.0015359925
3.0941833E-4
-0.0017869683
-0.0020643596
5.0915394E-4
0.0028900313
0.0050654123
0.003045282
-0.0024088598
-0.005581802
-0.003751518
7.511359E-4
-0.0027606683
-0.012177711
-0.013942543
-0.007646131
-0.0016475219
-0.0012058297
1.6415036E-6
0.0051699183
0.0058175917
0.004414998
0.0052124546
0.007234731
0.010701881
0.00575705
-0.0066003455
-0.011383794
-0.008798296
-0.0042054765
-6.2878116E-6
0.0032041343
0.007721216
0.008286932
0.0057099434
0.005216448
0.0021406831
-0.001015244
-0.0021277093
-0.004784945
-0.0044644107
-0.0020798112
-0.0019730418
-0.0016559933
9.838936E-4
0.002328385
-0.0020140233
-0.0028649964
0.0013750036
-0.0011880939
-0.0034759538
-0.0011521871
-9.336432E-4
6.633814E-4
0.0016873478
0.0016032135
0.0040396904
0.0040661707
0.0023526277
0.0010364479
-2.472431E-4
2.422189E-4
-6.499036E-4
-0.0019782989
-2.677276E-4
-6.667959E-4
-0.0050629685
-0.0059766057
-0.0017620415
4.7495938E-4
5.176854E-4
0.0018137482
0.002942274
0.003132922
0.002466696
0.0025187428
0.0017647481
-0.002946315
-0.0071015325
-0.008229802
-0.0061525144
-0.0011709743
0.0018937566
0.0031520154
0.0020816985
-0.0013049345
-0.0020971375
-0.0014425035
0.0013518403
0.0049738064
0.004831736
0.0053547407
0.005190667
0.0027516587
0.0027665796
0.0012725558
-0.0028668316
-0.005826757
-0.006605078
-0.004363595
-0.0019933346
-6.461878E-5
0.003652497
0.0065686028
0.006840002
0.007201799
0.008596084
0.007553144
0.004377997
4.977859E-4
-0.0040718135
-0.004747758
-0.00418467
-0.0059161643
-0.004156165
-0.00232967
-0.0049032997
-0.0069709118
-0.0075445897
-0.0072319
-0.0059623886
-0.0042564804
-0.0017334953
0.0017758377
0.0068704104
0.009533634
0.0061549884
0.0019757045
1.8058505E-4
-0.0023098043
-0.005233473
-0.004438305
-6.0742896E-4
0.0023589223
0.0056257546
0.008325498
0.006666971
0.0029030994
-6.8458164E-4
-0.0021453088
3.8831684E-4
0.0025537515
0.0037642596
0.004221579
-9.735741E-4
-0.008364461
-0.012889212
-0.013843159
-0.0093160225
-0.0029994952
0.002024945
0.0061546722
0.005798958
0.0017691479
-4.9538293E-4
-0.0012146281
-0.0033266242
-0.0019425459
0.007392164
0.016500732
0.016758095
0.007642026
0.0010727881
0.0074011097
0.012928203
0.005324544
-0.01451128
-0.032190718
-0.026303302
-0.014545538
-0.013079487
-0.0037202444
0.008429323
0.014834456
0.017714692
0.013309115
0.010976228
0.010912244
0.008719186
0.007376697
-5.620544E-4
-0.009916825
-0.011846702
-0.012010522
-0.01290341
-0.009925117
0.0037754173
0.018610489
0.021291498
0.017141981
0.008709364
-0.002530792
-0.010946927
-0.0151119465
-0.014766718
-0.014287304
-0.0140945995
-0.013607638
-0.017590074
-0.020547304
-0.01658881
-0.009940841
-0.0048318324
-0.0014769972
0.001206683
4.956919E-4
-0.0010107654
0.0027621905
0.008012906
0.012092221
0.016423743
0.021994513
0.027310656
0.025960984
0.020432558
0.01289158
0.0017376661
-0.0030160286
-0.0052282168
-0.012315121
-0.012433149
-0.005702376
0.005872979
0.021870164
0.028477453
0.027448962
0.025652682
0.019611387
0.0067636967
-0.011531182
-0.021620391
-0.02469611
-0.030362032
-0.026433164
-0.020867063
-0.030331265
-0.037458155
-0.029379817
-0.018850533
-0.007871259
0.011698059
0.020398805
0.0090368865
0.0031029868
0.006684526
0.010045889
0.007355754
-0.004182638
-0.009105604
-0.0038214854
1.1848191E-4
-0.0015387671
-0.001599128
0.0048655127
0.00742738
0.01439727
0.026085952
0.023122206
0.019899627
0.022850297
0.020065015
0.0136704175
0.014262041
0.03088133
0.03106176
-0.0016591939
-0.02105185
-0.009895424
-0.006058098
-0.034830224
-0.062477257
-0.07009628
-0.08139813
-0.085783884
-0.08275267
-0.07206453
-0.031710137
0.0140100345
0.051165134
0.08060844
0.092056975
0.0964419
0.08809912
0.06633073
0.053480674
0.053167544
0.038751677
0.0060307095
2.3972157E-4
0.003388161
-0.005106249
0.018381666
0.052503955
0.082041204
0.089993276
0.03763168
9.461026E-4
-0.0056412425
-0.054068703
-0.12178755
-0.18577997
-0.23087384
-0.24030757
-0.23876
-0.20048526
-0.10685956
-0.020645939
0.024585258
0.053147808
0.07913593
0.09921023
0.110092185
0.12009272
0.15614164
0.21610956
0.23878513
0.18120947
0.093118675
0.025451832
-0.03942582
-0.07197975
-0.0516042
-0.039810676
-0.017426912
0.05227957
0.12599286
0.16554204
0.13802736
0.08037876
0.018371748
-0.12838931
-0.2911794
-0.33268383
-0.3153036
-0.30874386
-0.2792079
-0.20895444
-0.09913992
0.020740815
0.11588087
0.19304574
0.21768823
0.18148369
0.1858885
0.21023233
0.14384665
0.042922556
-0.022126809
-0.058589566
-0.047201652
-0.013831309
0.02779311
0.09939637
0.1282186
0.10358391
0.10155758
0.07271569
0.010444332
0.011446887
0.018627688
-0.050848458
-0.14325407
-0.21091421
-0.23430254
-0.20908894
-0.17345363
-0.14961514
-0.11747912
-0.06415968
-0.014706741
0.029082313
0.07387172
0.10376692
0.15035808
0.1926137
0.17179015
0.14710899
0.12601253
0.050469637
-0.03850332
-0.09875881
-0.097590744
-0.02866024
0.01256797
-0.01142172
-0.021344228
0.033476364
0.07044803
0.012063961
-0.02758926
-0.005482699
-0.026620721
-0.033785354
0.008010706
-0.0075369976
-0.045635108
-0.029544827
0.005799832
0.014761918
-0.008453999
-0.02311549
-0.016256789
-0.019722642
-0.010436516
0.040731497
0.07923623
0.05493175
0.0037152998
-0.035859466
-0.051724996
-0.029452221
-0.007194963
-0.020194273
-0.04457598
-0.070655264
-0.08651438
-0.06972871
-0.033396848
0.0021645632
0.03330307
0.05915973
0.07995725
0.10298744
0.117045306
0.11362118
0.10745637
0.07273267
0.0032827372
-0.051096134
-0.07674997
-0.06975684
-0.04454552
-0.039486602
-0.0376736
-0.024427181
-0.015366356
-0.014195445
-0.021132782
-0.024306437
-0.02225539
-0.023474107
-0.018604191
-0.008770878
-0.0019457377
0.0059767324
0.015587624
0.0222303
0.026948104
0.031028332
0.028815981
0.024037777
0.02333692
0.019268725
0.0106386645
0.0040405053
7.5751136E-4
-5.369146E-4
-0.0037520071
-0.009278059
-0.012901874
-0.0132689895
-0.013833874
-0.015780212
-0.015954792
-0.01500525
-0.011543611
-0.006395639
-0.0045765233
-0.0010365904
0.0043719183
0.008492793
0.013915633
0.014967232
0.013991361
0.014267938
0.008910611
0.004832495
0.0034770982
-0.0019577644
-0.0056600315
-0.0072438554
-0.009147927
-0.010774739
-0.013101806
-0.01199532
-0.008601934
-0.0054391883
4.5370232E-4
0.005312981
0.006155161
0.005284549
0.0046050334
0.005390549
0.0029643027
-0.0022312817
-5.209701E-4
0.005802172
0.007813454
0.0076197595
0.0073619513
0.0047861026
0.004570544
0.0060308864
-1.2508455E-4
-0.0071524023
-0.00572961
-0.0031415857
-6.58997E-4
0.0033487526
7.0338465E-5
-0.007625426
-0.007658853
-0.0041287304
-0.004697899
-0.004509128
-0.0028791
-0.0031083007
-4.0598074E-4
0.0043948223
0.0059405155
0.0053004045
0.0016602722
-0.0026137808
-0.0016902554
9.334196E-4
0.0013536277
-4.4035644E-4
-0.0035508461
-0.0024297377
0.002441089
0.0048189675
0.0045067198
0.0025064806
-2.6668332E-4
-0.002825924
-0.005191367
-0.0051134587
-0.0031634206
-0.001074752
-4.644571E-4
-0.0025551042
-0.0014604542
0.0021063606
0.0016564077
7.502708E-5
-8.2675216E-4
-6.670359E-4
0.0014410666
0.003331537
0.004466696
0.0025430464
6.106419E-4
0.001998531
0.0016234987
0.0014194594
4.3875794E-4
-0.0023193941
9.911794E-4
0.003729324
0.0015263297
-9.262328E-5
-0.0028365313
-0.0021174573
2.3760433E-4
-0.002682819
-0.002969497
-0.0016149752
-0.00336334
-0.0021677748
-4.885779E-4
-0.0024649203
-0.0025171598
0.0010311847
0.0012834047
-0.0011696941
0.0010406264
0.0023279458
-9.061347E-4
-3.12321E-4
0.0015946599
1.5975029E-5
-6.304474E-4
-3.2357473E-4
-2.3103686E-4
0.0017846144
0.0025451677
-7.684069E-4
-0.0018663898
7.5604365E-4
8.276379E-4
-4.4563776E-4
-0.0013617022
-0.0019595302
2.6310995E-4
5.033989E-4
-0.0027316734
-0.003975915
-0.0032981697
-0.0014600701
-2.2408251E-4
-4.8090896E-4
-1.569587E-5
4.4127062E-4
0.0018931383
0.0019931037
-0.0014757441
-0.0023523932
-8.4953505E-4
5.3837924E-4
0.0015531952
2.5665257E-4
4.5738093E-4
0.0018047099
0.0020423562
0.003743753
0.0029039863
-2.582E-4
-5.659735E-4
-6.804113E-4
-7.068857E-4
0.0015488099
0.0027470393
0.0022491165
0.00264895
0.0016948868
-0.0012325534
-0.0024092295
-0.0027317228
-0.0028401373
-0.0020990428
-0.001450633
-6.839642E-5
-2.5438718E-4
-9.964185E-4
1.5233607E-4
-5.969926E-4
-0.0011995189
-9.356486E-4
-0.0016578579
-5.85424E-4
-6.618266E-4
-0.0017356273
-0.0017404131
-0.0018216284
0.0014017894
0.003049629
-3.386089E-4
-8.589062E-4
0.0011432911
0.0013333816
0.001080779
0.0020544
0.0015910174
-0.0012712383
-0.001786988
-9.779063E-4
-2.8557883E-4
0.0020449802
0.0025357422
-4.3304375E-4
-0.0035370265
-0.0016625418
0.0020165653
-3.5237732E-5
-0.001807551
-5.917685E-4
-4.572956E-4
7.14001E-4
0.0013982422
0.001155168
8.638543E-4
-1.16443916E-4
5.4600666E-4
2.629531E-4
-7.878457E-4
-8.0387574E-4
-0.0021741467
-7.9917954E-4
0.0015901476
9.592405E-6
-6.0907635E-4
3.4354778E-4
2.2586201E-4
-1.9816075E-4
4.5287346E-5
4.2341344E-4
-5.9273787E-4
-7.991435E-5
6.752671E-4
-0.0014634465
-9.82506E-4
0.00118142
0.0012830991
0.0015178529
8.6014887E-4
3.8736637E-4
4.732305E-4
-5.623312E-4
2.3731057E-4
9.364204E-4
2.163356E-4
5.537724E-4
-2.962531E-4
-0.0011160139
-8.310006E-4
-7.355684E-4
8.5623044E-4
7.2064395E-5
-0.002948074
-0.0024790238
-0.0019968725
-0.0022718164
-8.736128E-4
-6.798783E-4
-2.1566231E-4
2.1223153E-4
-0.0016281217
-3.7731585E-4
0.0024174685
0.0010760549
6.8583083E-4
0.0024425448
0.0017048125
8.284511E-4
9.898538E-4
2.0894817E-4
-2.4794007E-4
7.9458527E-4
0.0023928464
0.002454744
0.0011638043
4.1623804E-4
6.6653534E-4
0.0017761255
0.0012424882
-5.7524693E-4
-5.361971E-4
-7.1158004E-4
-7.2350656E-4
-1.8530272E-4
-0.0026399782
-0.0037142413
-8.016072E-4
-1.5987274E-4
-0.002162436
-0.002179406
-8.8771054E-4
-1.5134497E-4
0.0015922429
0.0014035805
-0.0017857277
-7.589223E-4
0.0017045946
-4.8473946E-4
-0.0017424877
4.068156E-5
0.001057712
4.8981333E-4
-1.5168349E-4
-3.1164853E-4
-5.839309E-4
0.0011130731
0.0027939356
5.795244E-4
-0.0015754839
-0.001373794
-1.287861E-4
0.0010665574
6.713105E-4
2.2605286E-4
-2.3009272E-4
-5.704618E-7
0.0020462747
0.0016633082
4.6102796E-4
3.1833613E-4
-0.0018011411
-0.0015043695
0.0011537458
0.0019057192
0.0030930925
0.0027396448
8.410429E-4
0.0013646183
0.0014609644
7.289123E-4
6.666721E-4
-8.137661E-4
-0.0030144837
-0.00381886
-0.0033350727
-0.0037993712
-0.0036840017
1.6608508E-4
0.0022748637
-4.943961E-4
-0.003124273
-0.0027659414
-5.3422066E-4
2.2515032E-5
3.9551564E-4
0.0021796615
6.615153E-4
-3.9922335E-4
0.0011620005
-0.0010355188
-0.0024498412
6.031973E-4
0.0024389839
0.0027264212
0.0023401
9.81996E-4
0.001131506
0.0023246258
0.002037384
7.8043976E-4
-2.0851404E-4
-9.7048323E-4
-0.0010904451
-7.321945E-4
-5.421168E-4
-2.712747E-4
-6.2352954E-4
-0.0021904635
-0.0031316676
-0.0014214598
7.6386693E-4
7.4476935E-4
9.384554E-4
0.0014660198
0.0010224892
0.0016370614
0.0011645256
-9.3345204E-4
-5.590408E-4
0.0016353967
0.0027054178
6.4114307E-4
-0.0018449705
-2.6958645E-4
9.38326E-4
-4.713383E-4
-5.7459035E-4
-0.0012559051
-0.0020660718
6.051608E-4
0.0018656934
-5.538309E-4
-8.58761E-4
7.0134165E-6
-0.0015217756
-0.00236325
-0.0012111125
7.946262E-4
0.0029871017
0.002940528
0.0016651417
0.001658827
3.944086E-4
-0.002705928
-0.003518709
-0.0025937054
-0.0020725855
2.475278E-5
9.947907E-4
-8.065959E-4
-3.9854893E-4
3.052921E-4
-0.0014019207
-0.0022376932
-0.0016080743
-8.3188515E-4
-0.00105062
-2.1494179E-4
0.0012660562
-8.76828E-4
-8.3506247E-4
0.0031226834
0.0030876494
0.0014185143
0.0021522492
0.004091147
0.0057101618
0.004824064
0.004463634
0.006743811
0.007484039
0.0028929468
-0.0046246275
-0.0071401363
-0.0060711084
-0.006009152
-0.003287556
-8.18766E-4
-0.0013303733
-0.0014355212
-0.0027067051
-0.0034410302
-0.0017057217
-9.112376E-4
-0.0014355918
-0.002568218
-0.0023854612
-4.3292032E-4
-1.6543646E-4
-0.0010221195
-8.479594E-4
9.962388E-4
0.002694246
0.0014664226
0.0018820066
0.004201457
0.0022744567
0.0010537684
0.003441923
0.0037556493
0.0024096025
3.8475968E-4
-0.0013293154
-8.1885443E-4
-0.0016428867
-0.0031037598
-0.0022938822
-0.0015082342
-9.695857E-4
-3.132789E-4
8.629009E-4
0.0031131706
0.0036970978
0.0027319186
0.0016906799
-1.1496891E-4
-0.0018315631
-0.002258553
-0.0012035142
-6.920385E-4
-6.911816E-4
7.892353E-4
1.0900453E-4
-0.002042004
-0.0011487303
-4.8297356E-4
-4.8107654E-4
4.5103172E-4
-2.887368E-4
-7.6590077E-4
-3.8555363E-4
-0.001516242
-0.0016106339
-1.7036547E-4
9.1744214E-4
7.776991E-4
-0.0012954056
-7.538161E-4
0.0023560375
0.0013044559
3.3538733E-4
0.0029563117
0.0029156448
7.364689E-4
-1.9969844E-4
3.7189387E-4
9.830975E-4
-0.0010043387
-0.0020975953
-6.6107826E-4
-2.208076E-4
-1.0154406E-5
1.7516517E-4
-9.4871985E-4
-0.0019253913
-0.0014137495
-9.5127354E-4
-0.001760787
-9.7002747E-4
4.7854192E-4
-3.5850494E-4
-4.0360648E-4
9.3734835E-4
0.0014101447
0.0012582865
8.0231036E-4
5.115814E-4
5.0040096E-4
0.0011776468
0.0018158441
8.118794E-4
1.3255324E-4
6.9100736E-4
5.229315E-4
-2.1954902E-4
3.2847005E-5
0.0011008072
0.0013028632
9.248722E-4
7.3953223E-4
-6.183641E-4
-0.0028484492
-0.0029351613
-8.126116E-4
4.0123964E-4
0.0010968173
9.6837705E-4
-0.0013594988
-9.122711E-4
0.0012062922
-6.216414E-4
-0.0016727151
9.9984965E-5
3.7654868E-4
-2.0323902E-4
6.5812416E-4
0.001824508
0.0010266338
-4.212427E-4
-7.8867417E-4
-0.0010252828
-7.489235E-4
-1.8567585E-4
-8.483905E-4
-0.0017729737
-9.388686E-4
4.9944874E-4
2.0131678E-4
-4.4708283E-4
-5.00865E-4
-7.3081837E-4
-5.0928345E-4
-1.8396E-5
2.4328772E-4
1.6831438E-4
5.3664035E-4
0.0020141234
0.0029728096
0.002586479
0.0012730598
0.0011177163
0.002673138
0.002481656
0.0014929397
6.1453326E-4
-0.0012473558
-5.088524E-4
0.0021832488
0.0025482757
-2.4296506E-4
-0.0038472132
-0.004108644
-0.0025469274
-0.0019300103
-0.0010644108
-4.774512E-4
-3.4378964E-4
-9.677987E-4
-0.0024301298
-0.0026683647
-0.0022463794
-0.0016044854
1.8551436E-4
8.467572E-4
-3.9149052E-4
4.619999E-4
0.0024871943
0.001675158
9.790933E-4
8.075745E-4
-1.7879085E-4
2.7325036E-4
-7.167572E-4
-0.0017258616
-1.7986444E-4
4.7552577E-4
0.00236557
0.0029100676
9.076201E-4
0.0021761132
9.0950006E-4
-0.0025146857
-0.0014138022
-4.912288E-4
5.461764E-4
0.0023517245
0.0011803109
2.702431E-4
0.0012253441
0.002245719
0.0025459968
0.0016734239
1.4309306E-4
-0.0019340888
-0.0033570498
-0.00290688
-0.0015452768
-5.7933945E-4
3.5417415E-4
7.351811E-4
-0.0012830691
-0.0027972308
-0.0023164644
-0.0014640734
1.5192841E-4
-7.668004E-5
-5.986908E-4
5.6872383E-4
-8.4426795E-4
-0.0021492566
-0.0013094889
-1.172533E-5
0.001731568
5.9955334E-4
-4.1289142E-4
0.0015577734
0.0020615389
0.0019281287
0.0020785155
0.0010095024
2.6297735E-4
0.001176958
0.0016857674
-8.24307E-6
-3.3774154E-4
3.1727192E-4
-5.436387E-4
-8.845344E-4
-0.0012541091
2.5667693E-4
0.0022892354
9.397654E-5
-9.233805E-4
-1.4019143E-4
-8.810653E-4
-8.363147E-4
-8.003342E-4
-1.4874662E-4
1.6778968E-4
-0.001440291
-0.0012227854
4.006147E-5
5.157701E-4
-3.433481E-4
-0.0019361571
-5.910353E-4
0.0014058615
0.0013708846
5.436876E-4
6.226372E-5
5.3801516E-4
-2.0188547E-4
-5.466747E-5
0.0015826356
-1.2305929E-4
-0.0019695954
-0.0011288319
3.7481426E-4
0.001990498
0.0019123954
7.1491936E-4
-3.1906646E-4
-8.790615E-4
-2.7731908E-4
-3.127601E-4
-7.5953745E-4
1.5705953E-4
0.0013213769
4.002192E-4
-7.2954287E-4
8.4522937E-4
9.873878E-4
2.7665E-4
0.0012083614
-8.687313E-4
-0.0024190012
-0.0012524386
-0.0021752534
-0.0021550492
-7.513173E-5
0.0010195194
6.341431E-4
-6.903728E-4
-0.0011960536
-6.783365E-4
8.640013E-4
0.0016008039
-1.0203444E-4
-6.9704046E-4
0.0010105638
0.002604997
0.0012341283
-6.9751247E-4
0.0014700644
0.0026016382
0.0011545982
0.0013590197
8.718564E-4
-1.0826009E-4
-2.9971889E-5
-1.7280712E-4
-4.285485E-4
-6.218176E-4
-6.486616E-5
5.658035E-4
-3.9919405E-4
-0.0032260716
-0.0045150686
-0.0012757585
9.1461145E-4
1.407871E-4
-5.5764E-4
-0.0019882063
-0.0010313621
9.788377E-4
-5.641838E-4
-0.0012246529
-5.611306E-4
-6.813601E-4
0.0010028478
0.0027290068
0.002360403
0.0020420214
0.0020084386
9.0385287E-4
-5.4223685E-5
1.4132913E-4
4.8962905E-4
-2.3653176E-4
-0.0020286334
-0.0021687848
-6.7207793E-4
2.4729117E-4
0.0012091274
0.0010516944
-5.0192623E-4
-8.0299634E-4
5.388559E-4
0.0012308982
-1.7781687E-4
-4.650774E-4
-5.4066355E-4
-0.0027535984
-0.0016371387
0.001230014
0.0015484153
0.0016809471
9.0428797E-4
-6.1121165E-5
-5.892975E-4
-0.001163323
4.416247E-4
0.0011546471
-6.7169356E-5
-6.2879233E-4
-0.001634369
-0.00223915
-0.0017200821
4.634429E-4
0.0034685095
0.002270184
-9.666114E-4
-0.0010203698
1.4513935E-4
-1.31729275E-5
-7.7647035E-4
-4.033367E-4
-7.392712E-5
-9.451482E-4
-8.358891E-4
-3.4964085E-4
-6.6028974E-6
0.0012086759
0.0020528517
0.0022938473
1.5901892E-4
-0.0024344118
-8.50459E-5
7.2417397E-4
-0.002254634
-0.0011224581
-3.3537782E-4
-0.0021301259
-2.4125578E-4
0.0014610864
8.379559E-4
0.0013606051
6.0034654E-4
-4.1155698E-4
0.001994652
0.0025639466
-7.102514E-4
-8.706505E-4
0.0015120807
0.0011409621
-7.4807944E-4
-0.0012982398
-7.1797665E-4
-8.811042E-4
5.878703E-4
0.0035884406
0.0017016602
-0.0014971067
-8.758548E-4
-8.511392E-5
-9.108206E-4
-0.0033336487
-0.0032286698
-1.5750813E-6
1.546689E-4
-5.0360087E-4
-5.639805E-4
-0.0012548214
-2.20001E-5
0.0016431853
0.0029028524
0.0014034798
-0.0030926855
-0.0039007985
-0.0014814148