-0.0015612006
-0.0012969786
8.857564E-4
0.0013818746
-2.677469E-4
-0.0010378946
-0.0015417458
-0.0017750777
7.0782885E-4
0.001210918
1.1423963E-6
0.001157897
3.4617746E-4
-0.0015919973
-0.0021040693
-0.0022872323
-2.6801755E-4
7.038281E-4
-0.0011093915
-0.0011660166
-4.3207474E-5
4.4198785E-4
0.0010839726
0.0010453985
-2.147646E-4
1.45087E-4
0.0022530758
0.0017365644
1.4091142E-4
2.0374845E-4
3.3374885E-4
0.0012604053
0.0010364129
-5.7134475E-4
9.895685E-4
0.0015216883
-0.0011785306
-5.6660554E-4
0.0011744177
-8.30128E-5
-7.3346467E-4
-8.701244E-4
-0.0019772416
-0.0019766912
-0.0012266908
-1.9303201E-4
9.179557E-4
1.4308807E-4
-9.3910866E-4
-1.7297764E-4
9.257245E-5
-3.837176E-4
0.0010699264
0.0018322871
-5.711226E-4
-0.0015142432
2.767658E-4
0.0013489727
0.0014350526
4.7451595E-4
-6.760823E-4
2.4926008E-4
0.0012517766
1.8758969E-5
-0.0014609147
-7.720493E-4
7.9651194E-4
3.6414764E-5
-0.0017910101
-0.0020251053
-0.002507058
-0.0024697832
5.4527987E-5
8.955679E-4
-1.0280596E-4
2.970325E-4
3.7091682E-4
0.0014159136
0.0034354662
0.0025117067
8.4893155E-4
8.866646E-4
0.0012104332
-8.9070134E-5
-0.0020457574
-0.0010668528
4.9251405E-4
4.961641E-5
-5.3106877E-4
-1.1972049E-4
0.0013474952
5.1001034E-4
-0.0014081367
-5.2239065E-4
-1.0073683E-4
-8.208486E-4
-0.0012053582
-3.5547174E-4
6.1779306E-4
-6.5885886E-4
0.001353151
0.003189637
-0.0010920783
-0.0031221008
-0.0025282158
-0.0015302789
5.659286E-4
0.0012469507
0.0029301965
0.0024428358
5.182226E-4
0.0021279051
9.521047E-4
-9.920149E-4
-5.7756406E-4
-0.0020292797
-0.0022370017
-9.969826E-4
-0.0010496893
-0.0018565047
-0.0019640073
-9.802701E-4
-0.0012205184
-1.6059758E-4
0.0022285015
0.0017672422
0.0011226205
0.001699497
0.0014612253
6.4919805E-5
-5.0693983E-4
9.977063E-4
0.0013108791
-2.7262536E-4
-0.0014202932
-4.564688E-4
0.0013639836
8.0483395E-4
2.3411038E-4
2.9515423E-4
-2.553451E-4
3.3470875E-4
4.0872188E-4
3.6416147E-4
2.2954024E-4
-0.0015065562
-0.0016118785
-9.69582E-4
-0.0013852651
-0.0012077002
-8.3226507E-4
-5.693067E-4
-2.3574193E-4
7.988115E-4
0.001221455
4.2835248E-4
9.3713903E-4
0.0012034355
5.980637E-4
9.6783864E-5
-7.526975E-4
-2.9464127E-4
-1.4979856E-4
-5.5921637E-4
7.9653674E-4
0.0015370067
1.0632329E-4
-0.0028954076
-0.0026097551
0.0024415073
0.0028963003
-8.23878E-5
3.2411926E-4
-3.3921222E-4
-0.001602798
3.8451835E-5
5.06768E-4
-4.8397525E-4
2.6064523E-4
6.986301E-4
-5.3832645E-4
-2.756637E-5
0.0010319217
-6.965409E-4
-0.0013797259
-1.1488954E-4
-4.5190612E-4
-0.0011085987
-3.1274135E-4
0.001212179
0.0010492522
-3.212745E-7
6.861858E-4
-7.0792966E-4
-0.0015721928
0.0016461809
9.1572455E-4
-0.0011545892
-7.2728915E-5
-0.0011017632
-4.3079798E-4
0.0029791333
0.0029003364
9.876137E-5
-0.0015815803
-5.2499963E-4
-9.44038E-5
-0.0011068605
-9.821019E-4
-0.0011310384
-4.8052362E-4
7.9759327E-4
4.0490867E-4
-6.6597486E-4
-0.0010339287
0.0012192089
0.0016338772
-0.0016671747
-6.9271994E-4
0.0017115561
6.2150834E-4
6.843976E-4
7.76626E-4
-0.0012650193
-0.0017145486
-5.2436837E-4
-6.828447E-4
5.5122324E-5
0.0022564614
0.001214918
-6.11234E-4
3.668518E-4
0.0011750219
0.0012014735
7.029794E-4
-4.7817972E-4
-0.0011545629
-0.001557821
-0.0016702339
-0.0012872039
-6.936547E-4
2.4143716E-4
0.0013445998
0.0018384795
8.6537586E-4
-5.9447053E-4
-7.333509E-4
3.417132E-5
-2.1432203E-4
-6.9666025E-4
-5.237267E-4
-9.194544E-4
5.494854E-4
0.0018997749
-9.0689823E-4
-0.0010723427
8.824606E-4
-0.0011261475
-0.0019844582
-6.7419285E-4
7.9603524E-5
0.001238717
0.0017421409
0.0013666172
8.915129E-4
0.0013546922
8.489991E-4
-0.001995506
-0.0013331298
0.0013041712
4.0357534E-4
-3.6644045E-4
-4.3527278E-4
-0.0012099872
-9.414664E-5
0.0015433731
0.0014711932
0.001276015
0.0012322698
-8.6454274E-5
-0.0010528422
-6.8947143E-4
-0.0012214256
-0.0019384346
-8.2650606E-4
5.659459E-4
-5.8059394E-4
-0.0015743969
0.0014857728
0.0022067605
-0.0012698323
-0.0013648155
-7.1223127E-4
-0.0021152727
-0.0016204293
-3.012844E-4
3.8219447E-4
4.6608687E-4
7.9099345E-4
0.002081904
0.0020924178
8.934416E-4
-5.325224E-4
-3.2729478E-4
0.0016943935
5.1703583E-4
-0.0012434035
3.3765007E-4
0.0015647978
0.0022223839
0.0016005869
-2.9154491E-4
2.3880956E-4
9.1680523E-4
-1.462596E-4
-0.0015644993
-0.0020348027
-2.1611259E-4
5.168675E-4
-0.001034902
-0.0028510732
-0.003672698
-6.5991306E-4
0.0012336496
-0.0012503392
-0.0013165659
-4.257416E-4
-4.464117E-4
0.001284449
0.0015209124
0.0016847939
0.0022581688
-1.5842628E-4
-8.45975E-4
3.8557992E-4
-4.1198137E-4
-2.5398814E-4
0.0018664459
0.0033183391
0.0018623108
-2.9193246E-4
5.4950506E-4
2.415744E-4
-0.0022781584
-0.002756983
-0.0022829503
-6.4270623E-4
0.0013035247
-7.420017E-4
-0.0031527039
-0.0019140576
8.8289526E-5
0.0015791175
0.0020264355
4.4259802E-4
-8.1300957E-4
-3.6500042E-4
9.3424704E-4
0.00271566
0.0031630963
0.0014748761
2.2813996E-4
0.001002102
0.0021764366
0.0020040097
6.043853E-4
-0.0018283242
-0.0032743223
-0.0022350778
-0.0018584339
-0.0015508794
5.229271E-4
5.3902355E-4
-9.528211E-4
-0.0012280929
-0.0018095725
-0.0030242067
-0.0033576565
-0.0011018128
0.0014202592
6.6116557E-4
-5.631712E-4
-4.755441E-4
-1.1644793E-4
9.768141E-4
0.0013196949
0.0010819474
0.0022624286
0.0030797163
0.0033266821
0.0040860707
0.00297869
0.0011674535
4.2103117E-4
-0.0012806257
-0.001111639
9.2270225E-4
-3.0103882E-4
-0.0024810312
-0.0025548988
-0.0015368004
-8.8845467E-4
-8.943245E-4
-2.3981032E-4
-0.0012922069
-0.0025904397
-4.2478283E-4
7.04191E-4
-1.8701107E-4
-4.1295725E-4
4.131769E-4
0.0014648775
2.9524523E-4
-2.3742899E-4
6.8092784E-5
-0.0010517206
-8.2685176E-4
-0.0014228877
-9.622993E-4
0.0019642694
5.798191E-4
7.479548E-5
0.0035385676
0.003214436
2.988526E-4
-0.0015105484
-0.0018970772
-5.702359E-4
5.7570817E-4
1.5327549E-5
-0.0012148664
-0.0012094267
-1.1148891E-4
9.7569893E-4
0.0012054843
0.0013221427
0.0027129792
0.0022088937
-6.6983345E-4
-0.0013142789
5.58876E-4
0.0012847559
-0.0011523599
-0.0033156367
-0.0028718945
-0.0018410115
-2.0939231E-4
8.746053E-4
2.21009E-4
-9.688574E-4
-0.0011206331
4.0228854E-4
-6.7803875E-4
-0.003321461
-7.905672E-4
0.0032308702
0.0030054415
0.0018293522
0.0028249146
0.0026109358
4.7245012E-5
-8.387994E-4
6.552831E-4
0.002590615
9.694573E-4
-0.0031238105
-0.0026498367
-0.0010511664
-9.586364E-4
-2.0651997E-4
-6.0802576E-4
8.0369017E-4
7.848226E-4
-0.0025136406
-0.0014928491
-4.2456748E-5
3.716266E-4
0.0018359915
5.0987845E-4
2.3716332E-4
0.001004441
7.7931467E-4
0.0015135072
-2.4708977E-4
-0.0022206747
-0.0021747332
-0.002255761
-7.5647666E-4
3.454174E-4
6.312877E-4
0.0012561321
8.060156E-4
9.2479587E-4
3.0901516E-4
-0.0012793124
-7.075564E-4
1.5633193E-5
-6.855649E-4
-0.0016323108
-0.0024741967
-0.0024592176
-3.4012282E-4
0.001984983
0.002180666
0.002649545
0.0025870288
0.0019640315
0.0042091445
0.004523697
0.0021022388
2.9653317E-4
-0.0019747107
-7.0999697E-4
0.0011709857
-0.0012154528
-0.0020785825
-0.001776251
-0.0013002077
-3.8439347E-4
-0.0027934203
-0.00388099
-0.0011712777
6.4940756E-4
9.158595E-4
0.0010100314
0.0013350166
-0.0013046961
-0.0052047847
-0.0040666535
-0.0025437656
-0.0041336566
-0.002838086
0.0014888279
0.00323694
0.002198098
0.0025310095
0.0028857181
0.0015753609
0.0026557317
0.0046791285
0.0042894776
0.002549029
-6.484441E-4
-0.0026657362
-0.0013400976
1.468829E-4
8.441689E-5
-8.187277E-4
3.5685927E-4
0.0039464403
0.004746576
0.0026815312
2.2412543E-4
-0.0024000986
-0.0018760517
3.8853195E-4
1.8228695E-5
-9.825736E-4
-0.0024352402
-0.004261644
-0.0037646294
-0.003156576
-0.0012879667
0.0025466955
-1.371157E-4
-0.005402414
-0.0024730202
7.626188E-4
-0.0019619544
-0.0043618106
-0.005092855
-0.004080538
-0.0012584392
8.716082E-4
0.0032395464
0.004620537
0.0042927517
0.006465602
0.0088338
0.00548004
5.2325388E-5
-2.3146036E-4
0.0017243822
0.0010797826
-1.4550591E-4
-6.676659E-4
0.002424066
0.0069727404
0.004946631
0.0019467636
8.7734585E-4
-0.0042619733
-0.0067890356
-0.0037260815
-0.0026487906
-0.0041265124
-0.0041123065
-0.0012648274
6.48351E-4
0.0011197025
0.0051253354
0.007644938
0.0013396465
-0.0063179065
-0.0076241097
-0.007417563
-0.007306352
-0.003609943
-4.575641E-4
-0.0012181646
-0.0033555662
-0.004481316
-0.0015118845
0.0030671295
0.0026205934
-0.001295985
-0.0029813815
-0.0010296426
0.0026105714
0.004383075
0.0027827926
5.098805E-4
-9.4876153E-4
-4.330758E-5
0.0054330616
0.010673583
0.012769477
0.013762855
0.0125507135
0.01240403
0.014961376
0.013938984
0.004377795
-0.013276885
-0.02501772
-0.020625602
-0.0123267295
-0.008695389
-0.0071795452
-0.0051377416
-4.4656472E-4
0.0013345715
-0.0015858477
-0.0017655562
-0.0011474917
-0.0037790397
-0.004930247
-0.004357126
-0.0050359583
-0.0036757765
-8.8051887E-4
-1.5990692E-4
0.0020343235
0.0054784752
0.00711562
0.008623696
0.009063896
0.0085411845
0.006680814
7.548168E-4
-0.0043759397
-0.005063738
-0.0035468284
-9.759525E-4
1.2025527E-4
-0.0016975328
-0.004200222
-0.0045024767
-0.002287559
3.7612132E-4
0.0029397788
0.0052240393
0.007235302
0.007933918
0.006936929
0.0063481117
0.004040895
0.0012750853
4.2557574E-4
-0.002712901
-0.004258537
-0.0024833237
-0.0017632627
-3.083845E-4
-0.0025367762
-0.0070334706
-0.00499551
-0.0018832933
-8.687756E-4
-2.1951966E-5
-0.0014053038
-0.0023357605
-0.0014545538
-6.4239174E-4
-2.622141E-4
3.1943657E-4
0.002272684
0.003937674
0.0029138222
-0.0017085667
-0.0060863704
-0.0038608601
0.0013425647
0.0012647503
-0.002320783
-0.0021618484
1.40117545E-5
4.8718628E-4
0.0014779386
-6.6266424E-4
-0.004143638
-0.0021711604
-0.0011375201
-0.0017615226
-0.0011126046
-0.0023179417
-0.0018024363
-0.0013695745
-0.0025994636
-4.0376058E-4
0.002209268
0.0044885487
0.007460433
0.009066714
0.009872136
0.009874056
0.012523701
0.016212394
0.013930959
0.008403191
0.0023608326
-0.0031864026
-0.0049422006
-0.006232971
-0.0113646705
-0.014670842
-0.008235358
3.708364E-4
0.0014101707
4.4227665E-4
-6.8254134E-4
-0.005640181
-0.013436274
-0.02079186
-0.019992279
-0.013244083
-0.009731278
-0.0072505902
-0.0055328333
-0.004443438
-2.873849E-4
0.001203482
0.0016593579
0.008876956
0.0150791565
0.01616221
0.01936974
0.020731926
0.017069966
0.015814634
0.0126643395
0.005699094
0.0051488476
0.005024445
8.65621E-4
0.0011388193
0.0011860509
-0.0014259057
-0.0042972392
-0.012229736
-0.019068928
-0.018481605
-0.015973229
-0.015644247
-0.017660217
-0.017189259
-0.011844603
-0.005105485
0.0011166406
0.005802487
0.009876218
0.011692984
0.010371331
0.010570909
0.008738274
0.0034675326
0.0037946177
0.008681095
0.009398765
0.0048171002
0.0020221295
0.0046916734
0.007184215
0.008850972
0.010827879
0.008991369
0.006952113
0.003793384
-0.0073081614
-0.016782327
-0.01795042
-0.016766397
-0.012858242
-0.0065373466
-0.0015487082
7.7557686E-4
0.0020406093
0.004543171
0.005720975
0.0070579755
0.0043651517
-0.009424803
-0.018032162
-0.013365686
-0.0074181044
-0.0055035446
-0.007814318
-0.006003089
-8.729834E-4
-0.002638002
-0.0065526953
-0.012190035
-0.01726863
-0.015230391
-0.010470269
-8.889848E-4
0.010913063
0.020153811
0.027750645
0.026320904
0.022690125
0.025979426
0.02907192
0.028304499
0.023386944
0.01827602
0.012818933
0.008411702
0.014148101
0.019169124
0.015041904
0.008464535
-4.5535312E-4
-0.009341116
-0.019011885
-0.028612932
-0.03587548
-0.046638425
-0.05260632
-0.049415175
-0.045039427
-0.03868819
-0.031541403
-0.021486746
-0.010839964
-0.00904029
-0.008562834
-0.0029032275
0.0056289393
0.013956699
0.018391572
0.025166856
0.03509618
0.039191976
0.036577784
0.030085182
0.022127688
0.019096766
0.024760002
0.028391512
0.024100667
0.021474108
0.01948373
0.015764127
0.009965057
-0.001266825
-0.0063691167
-0.0116545465
-0.0332917
-0.04848003
-0.042297494
-0.033706885
-0.031466074
-0.028354818
-0.019967262
-0.008189107
0.0037467044
0.0138098765
0.020290833
0.019984426
0.015795803
0.013214936
0.005653597
8.102537E-4
0.013269671
0.026220633
0.026140882
0.016381012
0.0014370764
-0.006211045
-0.011391013
-0.02648092
-0.042564843
-0.049498305
-0.042066395
-0.025197793
-0.012130476
-0.0022542872
0.00790667
0.018999156
0.029917127
0.025771122
0.0076908995
0.0024896606
0.010515483
0.011621311
0.005071571
-0.0045247125
-0.0059955255
0.009040748
0.019044194
0.017000088
0.014166562
0.008217434
0.014008412
0.03433558
0.03582434
0.01774689
0.0031544662
-0.016870001
-0.045178834
-0.054515317
-0.042975493
-0.032713544
-0.025452776
-0.020032065
-0.02278389
-0.02685034
-0.019101376
-8.663925E-4
0.011195936
0.009771072
0.010178634
0.030940969
0.056433138
0.054919336
0.041859735
0.03738409
0.026335038
0.012301055
0.005565251
0.0065098177
0.013136859
0.0047196117
-0.01639897
-0.02704195
-0.031215647
-0.03864017
-0.050560955
-0.058387958
-0.050184418
-0.034124773
-0.02296487
-0.020810064
-0.021645928
-0.0060721105
0.029279483
0.05003715
0.030627808
0.014537135
0.050776146
0.102075815
0.10707685
0.05960599
-0.00564169
-0.047145974
-0.051325765
-0.032997485
-0.008202868
0.0070175044
0.0032915808
-0.011415932
-0.025086084
-0.027133206
-0.007639649
0.0310179
0.051999032
0.011924513
-0.04600427
-0.060845535
-0.07515794
-0.097551346
-0.09327573
-0.11200847
-0.13060799
-0.07096243
0.026482087
0.12654625
0.21629839
0.25486138
0.24905588
0.21361437
0.1686941
0.118176386
0.014629923
-0.12319626
-0.23379198
-0.27879164
-0.23777251
-0.1441597
-0.03546252
0.039342206
0.038192064
0.0023739906
-0.028046437
-0.022879696
0.0029279992
-0.02357496
-0.061834138
-0.06661363
-0.054700434
0.015092722
0.116246164
0.18596475
0.2023299
0.1370386
0.051182028
-0.044450305
-0.20142983
-0.2596794
-0.11415459
0.048981186
0.11059808
0.14375643
0.19056857
0.2251354
0.22691672
0.163697
0.018586019
-0.14744987
-0.25647956
-0.29817936
-0.29164895
-0.22167596
-0.11100638
-0.03045996
0.036915485
0.12973633
0.21017917
0.24884152
0.23651911
0.17030872
0.07430753
-0.0046509905
-0.053211745
-0.13035007
-0.22894293
-0.27580833
-0.26043448
-0.18335263
-0.060918953
0.06333947
0.13537438
0.10759853
0.043347053
1.1130796E-4
-0.01844588
0.020320326
0.05922602
0.058370326
0.049707484
0.028010825
0.045232527
0.083795525
0.06923093
0.05794087
0.06645836
0.073223375
0.08207376
0.07214874
0.063595355
0.034769192
-0.019641489
-0.02996995
-0.026462372
-0.04416077
-0.059069276
-0.07319878
-0.08378358
-0.10705756
-0.13384041
-0.12277261
-0.09290901
-0.069762774
-0.053487767
-0.038577665
-0.018019842
-5.4511383E-5
0.017432362
0.034816235
0.044689685
0.05126173
0.051203858
0.04681835
0.04257425
0.033720117
0.024695091
0.018935079
0.017094329
0.017472425
0.018365853
0.023206059
0.024437552
0.02078746
0.021478588
0.021305563
0.016038712
0.009984955
0.0038190156
-0.0028340572
-0.0086303
-0.010789591
-0.008828085
-0.0032364267
0.0038215625
0.007585346
0.010987391
0.01530074
0.011079173
-0.0021015722
-0.015095619
-0.02511738
-0.03215461
-0.03523333
-0.032621294
-0.025593817
-0.020703323
-0.017768191
-0.01437301
-0.011702916
-0.008372166
-0.0074269124
-0.008359654
-0.004267152
-3.449871E-4
-0.0010942866
9.810133E-4
0.0072169807
0.012170106
0.0151138585
0.017254345
0.017416822
0.016466862
0.016177246
0.013773097
0.009901254
0.008972864
0.008158384
0.005437426
0.004276223
0.0035850392
0.002058727
0.0019027282
0.0021095073
0.001478178
0.0016581742
0.0011173646
-0.003359357
-0.0067675347
-0.0045979586
-0.0034786821
-0.0044164835
-0.0031572254
-0.0025842465
-0.002083981
-0.0011905466
-0.0024936749
-0.0037006398
-0.005457972
-0.006800988
-0.0047103236
-0.0025438217
-8.7760534E-4
-8.676295E-4
-0.0037996955
-0.003996347
-0.002296471
-0.002524708
-0.0023941477
-0.0010786714
8.179241E-4
7.9712924E-4
-0.0018627348
-0.0019207431
0.0017920007
0.0051904228
0.005844623
0.0043947985
0.003443956
0.00422927
0.0055121076
0.0046218606
0.0015596893
-8.922477E-4
-0.0024361035
-0.0013209468
0.002450478
0.0030923437
7.3581445E-4
-0.0018975614
-0.004320481
-0.002213203
0.0017921767
3.9322596E-4
-0.002470858
-0.0025906467
-0.003000527
-0.004192135
-0.004421611
-0.0021237626
0.002133413
0.0035187136
0.0018314166
0.0025121649
0.008191653
0.014535605
0.009528191
-0.0049763606
-0.011025202
-0.009299579
-0.007677445
-0.003938328
-0.001330776
7.221401E-4
0.002097776
-8.648816E-4
-6.3564297E-4
8.687594E-4
-7.006111E-4
7.7765476E-4
9.902914E-4
-0.0011602339
-0.001560236
-0.0015204486
0.0015533601
0.003238318
4.0944843E-4
-3.3791905E-4
0.001017388
0.003194507
0.0045720083
0.0037491776
0.0028686759
5.9340865E-4
-8.6080574E-4
2.0370631E-4
2.0112323E-4
-0.0017229315
-0.0046471823
-0.003779626
-0.0016450161
-0.0047841826
-0.004755379
-8.4641256E-4
-8.598295E-4
3.6749983E-4
0.0023709938
3.0841233E-4
7.1382136E-5
0.0017189307
-9.522277E-4
-0.0025862984
0.0015969895
0.0031824359
0.0012020947
0.0016411439
0.0013174579
9.314673E-4
0.0025038142
0.0017230196
4.3388776E-4
4.393529E-4
5.569264E-4
4.8814208E-4
-0.00213599
-0.0042085713
-0.0029890484
-0.001325457
-4.241234E-5
-5.560806E-4
-6.262139E-4
9.7096903E-4
-7.972031E-4
-0.0013036823
0.0027554813
0.0033802455
0.0015786772
0.002325141
0.0017949832
-1.9268306E-4
3.210332E-4
2.1715307E-4
-0.0018105278
-0.001882597
-0.0017750795
-0.0020474594
-9.652629E-4
-3.5902605E-4
0.0010768429
0.0022686173
4.7268867E-4
-0.0011762263
-0.0017691413
-0.002161954
-0.0020227209
-0.0019134562
-0.0024533398
-0.003758975
-0.0026473075
9.3563617E-4
0.0024292339
0.0013299715
-7.111362E-4
-1.18175005E-4
0.0033243874
0.003500954
0.0011648714
5.229271E-4
7.3457026E-4
5.0560175E-4
1.8857345E-4
0.0011001021
0.0016642787
2.1286408E-4
-6.921968E-4
-3.6279822E-4
3.836699E-4
8.939012E-4
4.8322708E-4
4.5905402E-4
-3.1428988E-4
-0.0021384405
-0.0021914907
-0.0013758583
1.0010159E-4
0.0020423972
5.5763224E-4
-0.0023430916
-0.0018278654
5.5179236E-5
-0.0010165118
-0.0031098323
-9.027987E-4
0.0014873616
-3.3009864E-4
-3.10844E-4
0.001334428
0.0012605113
0.0018578141
0.0010734241
-0.0013685719
-0.0019077079
-0.0010876211
-3.0576202E-4
-5.734881E-4
-9.2400494E-4
-9.450134E-5
7.680201E-4
6.189708E-4
-0.0011049187
-0.0011132162
0.0010369148
0.0011161556
0.0013664353
0.0019886664
5.726399E-4
5.9930568E-5
4.1711488E-4
9.211766E-4
0.0011758641
-9.357483E-4
-0.002100645
3.1840507E-5
0.0020992379
0.0020811523
0.0011691466
4.4341004E-4
-5.5260333E-4
-9.48504E-4
-8.436569E-4
-9.68013E-4
-3.5716358E-4
-7.9215324E-4
-0.001209493
4.1252276E-4
-1.632672E-4
-0.0018189693
-0.0012543123
-0.0013132816
-0.0014048307
1.714706E-4
6.327643E-4
-0.001359954
-0.0022003795
3.821071E-4
0.0017880007
5.604098E-4
-8.2215294E-5
-5.2779744E-4
2.209043E-5
0.0010293244
3.0187433E-4
0.0016078468
0.0040256907
0.0024565142
2.0113504E-4
1.754313E-5
-8.270972E-4
-0.0016696601
-4.545533E-4
3.435087E-4
-1.4997914E-4
4.3522392E-4
7.075321E-4
0.001155556
0.0031941924
0.0016200346
-0.002350013
-0.0029079102
-0.003066573
-0.0038537479
-0.002090936
1.11582965E-4
-1.620621E-6
-5.957549E-4
-2.66928E-4
-2.872228E-4
8.269959E-4
0.0024296418
5.636043E-4
-7.6600263E-4
0.0011990583
0.0010562321
-0.001196337
-0.0017081567
-4.8164048E-4
0.0012696729
0.0021279396
4.79331E-4
-0.0015039877
-1.0734673E-4
0.001236042
0.0010090626
0.0025666887
0.0014694165
-0.0013997915
1.8874368E-4
7.734113E-4
-0.0012482185
-0.0010813487
-4.1513352E-4
-2.117884E-4
7.0847E-4
0.0016440059
8.4645336E-4
-0.0012388539
-0.0016507729
-2.7490064E-4
0.0017537976
0.001978818
-8.2837587E-4
-0.0020790736
-0.0013874595
-0.0019452318
-0.002601582
-0.0020646653
2.1030719E-5
0.0022147847
0.0019876498
1.3411973E-4
-0.0010922637
-6.823158E-4
1.5927182E-4
-2.0661247E-4
-4.422805E-4
0.0011438517
0.0021332984
0.0012287545
0.0012259457
9.323391E-4
-1.9381508E-4
3.9100304E-4
-1.7796701E-6
-8.284372E-4
3.657473E-4
4.962882E-4
9.7682365E-5
3.2956098E-4
3.5574616E-4
7.665952E-4
6.0877076E-4
4.3983254E-4
1.09482906E-4
-0.0012336811
-0.0014528609
-7.1918557E-4
-2.5551833E-4
-5.248275E-4
-0.0012805365
-0.0013173028
-0.0012097335
-6.262953E-4
-3.8011977E-4
-4.6213067E-4
0.0015394856
0.0014966383
-4.6169144E-4
6.3461397E-4
6.6027354E-4
-0.0011822812
-0.0010097674
6.2093174E-4
0.0012924103
-8.8163064E-4
-0.0010386757
0.0010549532
-3.9375768E-4
-1.8410462E-4
0.0012348875
-8.381747E-4
2.07106E-6
0.0021743858
0.0018244452
0.0021740142
9.536254E-4
-0.0019773026
-0.0023395866
-1.1453473E-4
7.1122206E-4
-3.8255184E-4
8.874836E-4
0.0018326625
1.05055326E-4
-3.4278937E-4
-1.576036E-4
-2.8377742E-4
-9.056283E-4
-0.0016981269
-8.514159E-4
-2.737871E-4
-4.5379906E-4
-0.0016786323
-0.002657016
-2.596283E-4
0.0014384972
5.887545E-4
-0.0012650111
-0.0018188483
0.0016643947
0.0024560075
-4.3989232E-4
-7.987285E-4
4.3581583E-4
0.001685523
7.365892E-4
2.4690919E-4
0.0015858822
-5.7124253E-4
-5.789721E-4
0.0016455508
-7.5161355E-5
-1.1920268E-4
9.3474373E-4
5.756452E-4
6.2732294E-4
-4.0422622E-4
-3.6066084E-4
-0.001066866
-0.0035749036
-0.0017614665
8.635407E-4
-3.427209E-4
-0.0010105332
9.945093E-7
9.0671476E-4
0.0011500996
7.841644E-6
-3.4075684E-4
0.001207666
0.0012609545
-1.13471815E-5
-2.8535235E-4
1.5736248E-4
9.576656E-4
9.807983E-4
9.443598E-4
0.0014252866
-1.8817278E-5
-0.0019772258
-0.0020773076
-8.3792646E-4
6.75642E-5
-2.1289384E-4
5.6685865E-5
-3.653173E-4
-5.143964E-4
0.0014330705
-1.6198945E-4
-0.0021054351
8.594983E-6
-5.5187276E-5
-1.9123513E-4
8.782343E-4
-3.407269E-4
-1.0334467E-5
7.1490457E-4
7.159575E-5
3.9888328E-4
5.082908E-4
0.001753184
0.002167092
-8.963811E-4
-0.0018092595
-3.8511344E-4
-5.6713435E-4
-7.942848E-4
-1.6592765E-4
-4.880772E-4
-0.0010468324
4.643537E-4
5.26169E-4
-0.0013023379
9.289273E-4
0.001900362
-0.0021575314
-0.0023849357
0.0012179401
0.0030514777
0.0022620307
-9.687384E-4
-0.0023684052
-5.4709695E-4
9.451496E-4
0.0023772882
0.002448734
5.298865E-4
5.2305014E-4
-1.4587677E-4
-0.0026330007
-0.0013204785
7.672354E-4
-2.6057605E-4
-0.0013226996
-0.001499472
7.975617E-6
7.5446675E-4
-0.0010597387
-1.8181474E-4
7.8855985E-4
-0.0013002425
-6.7414134E-4
0.0014706124
0.001234278
3.167262E-4
-8.855464E-4
-0.002309721
-0.001330513
0.001072627
4.8110174E-4
-9.630063E-5
0.0022980792
0.0026172162
4.3978172E-4
-6.8549416E-4
2.0592888E-4
8.2503445E-4
-0.0011687779
-0.0016849758
-3.5709768E-4
-2.1982956E-4
5.912725E-4
6.240002E-4
3.206194E-4
0.0012333699
1.6068394E-4
-1.660722E-4
0.0014817312
5.7447783E-4
-0.0017117573
-0.0022512313
-0.0016338282
-0.0011234047
4.0554494E-4
0.0012731849
-6.260307E-4
-3.609224E-4
0.0012020648
3.8775918E-4
0.0011246442
0.0013748257
-7.850803E-4
-9.995125E-4
-9.1893674E-4
-0.0014727683
-8.9895085E-4
-2.8967328E-4
4.309193E-4
7.104908E-4
5.0015224E-4
8.160161E-5
-3.228993E-4
0.0018823614
0.0024373967
-9.933104E-4
-0.0012137208
2.709367E-4
-7.9584686E-5
9.1922215E-5
2.6968817E-4
0.0016349169
0.0024321985
3.083042E-4
-1.5064293E-4
7.2247676E-5
-6.8357907E-4
-4.3792996E-4
-0.0017158103
-0.0028875738
-0.0011517932
-1.1200729E-4
-5.24388E-4
-5.440886E-5
5.8751996E-4
1.6764726E-4
2.159804E-4
4.915054E-4
-0.0010781736
-0.0018527868
-3.0500873E-4
9.463113E-4
6.314436E-4
-2.1607254E-4
0.0011672907
0.002334016
3.917911E-4
1.1045858E-4
0.00116233
0.0010849019
0.0012774033
-3.9256326E-4
-0.001738329
-7.220909E-4
-7.88325E-4
2.632621E-4
0.002276323
0.0016778315
-1.2702225E-5
-0.0016348289
-0.0011094409
0.0014412889
3.895403E-4
-0.0036805805
-0.0039776755
2.4040992E-5
0.001846887
9.366561E-4
0.0013928156
0.001375285
5.1991723E-4
2.6962385E-4
-5.865625E-4
-9.42387E-4
-0.0016472766
-0.0021276365
-2.9102855E-4
-4.743663E-4
-0.001905768
-0.0011543263
-5.874705E-4
8.319938E-4
0.0022952661
9.391327E-4
-6.544241E-4
-7.866536E-4
0.0011488515
0.002202615
-7.7316613E-4
-0.0012196962
0.0011503674
-2.6028496E-7
-1.6699472E-4
0.0025379935
0.003529036
0.0031607565
0.001337355
-7.2366523E-4
-2.749542E-4
7.1174884E-4
6.8711216E-4
3.1996318E-4
3.9141517E-4
-5.638219E-4
-0.0035620022
-0.004621547
-0.003330072
-0.0020139227
-5.8965447E-6
0.0019795033
0.0024700915
4.4777163E-4
-0.0016130678
-0.0021292842
-0.003756759
-0.0028676903
-9.223963E-6
-3.5267853E-4
4.5418975E-4
0.0020081906
0.0013669443
0.0015473906
0.0017545165
0.0020682605
0.0025493212
9.6795335E-4
-0.0015020941
-0.0024278343
4.5803012E-4
0.0040551065
0.0034803136
6.138298E-4
-0.0010750823
-4.457953E-4
4.6691435E-4
2.3200875E-4
-6.161879E-4
-0.0013560683
-2.4314808E-4
-4.3250207E-4
-0.00235144
-0.0013629054
-8.9915105E-5
1.616639E-4
6.358237E-4
2.3773822E-5
-9.274446E-4
-0.0017298468
-0.001104365
1.362036E-4
-1.4521321E-5
-5.5942574E-4
-0.001251078
-4.0514063E-4
-1.7643307E-4
-9.82498E-4
0.001917458
0.0027645556
2.4387492E-4
-2.1445412E-4
-5.868289E-4
5.497011E-5
0.0010215773
0.0015393283
0.002355895
2.7088445E-4
-6.093757E-4
3.1253157E-4
3.1231786E-4
0.0015329572
-2.9465428E-4
-0.0021859296
3.359519E-4
9.040827E-4
3.108552E-4
8.0532243E-4
4.691673E-4
-6.2311225E-4
-0.0017137432
-0.0014742645
-0.0015346082
-0.001658672
-8.437831E-4
-6.7565497E-4
6.068832E-4
0.0013839388
3.2086065E-4
0.0010326155
9.353416E-4
-0.0021466555
-0.0031655482
-9.455942E-4
-4.5881266E-4
-0.0012204773
9.251408E-4
0.0029697889
0.0020777553
9.884746E-4
0.0013196082
0.0018900215
0.0021941413
0.0021770117
-4.9600063E-4
-0.002423722
-2.869911E-4
-6.651914E-5
-2.70491E-4
0.0019133445
0.0011191342
-5.621067E-4
-3.3044277E-4
-9.307067E-4
-0.0022209734
-0.0022445077
-3.9137597E-4
4.5438617E-4
-7.162307E-4
-0.0011159349
-4.9260125E-4
-3.0706724E-4
-0.0010392036
-7.2072673E-4
8.00682E-4
0.0010861371
7.446046E-4
2.5598396E-4
1.3667866E-4
3.5162788E-4
-3.8240294E-4
2.2420118E-4
0.0013686126
6.433713E-4
5.4855447E-4
5.5632734E-4
-0.0014234604
-0.002122712
2.2311264E-4
8.9351693E-4
-0.0010512264
-0.0010563248
-2.4445885E-4
4.2198112E-4
0.0018746688
5.4036546E-4
-0.0011601382
3.201391E-4
4.021217E-4
-3.8331302E-4
0.0015610759
0.002959528
0.0015086747
-7.108145E-4
-0.0015934795
-2.5636566E-4
0.0018521532
0.002704769
0.0018361827
-3.0058998E-4
-0.0017010164
-0.0019236138
-0.0018489086
-8.603721E-5
0.0011728385
-5.3239695E-4
-0.0026260533
-0.0039824136
-0.00244729
8.1490836E-4
-0.0011364178
-0.0046587596
-0.003009674
2.4498493E-4
0.001874633
0.0019070524
0.0016413714
0.002389869
0.0012530123
-9.863316E-4
2.891914E-5
0.0013082423
4.5411897E-4
5.3493807E-4
0.0012790796
0.0026991777
0.0044544274
0.0028130224
3.5108987E-4
-4.2384383E-4
-0.0021458946
-0.0023122618
-6.1808375E-4
-4.1692646E-4
1.2056887E-4
6.9722167E-4
4.4827457E-6
3.0945442E-4
7.420604E-4
-5.221151E-4
-0.0020573928
-0.0018501658
-4.2943968E-5
7.715104E-4