9.453234E-4
0.0017253995
-0.002921949
-0.0020337962
0.0011908974
1.5432903E-4
-7.484191E-4
-7.38037E-4
-9.832939E-4
-8.64494E-4
-7.348332E-5
3.5597724E-5
2.1361008E-4
0.0016241844
0.0017440039
9.01128E-4
-7.973269E-4
-0.0026810525
-0.0012991835
0.0016078482
0.0033698992
0.002024056
-0.0010279688
-1.8202564E-4
0.0013469704
2.3018115E-4
4.067889E-4
-2.0651758E-4
-0.0027630173
-0.0015531388
8.36855E-4
-4.5879223E-4
-9.377205E-4
-6.7132554E-4
-0.0012120163
0.0011964011
0.0031602902
0.0020238832
3.4626274E-4
-5.3329463E-4
3.4591873E-4
-1.1883544E-4
-0.001551465
-0.0016553574
-0.0024834159
-0.0016274676
4.8853824E-4
0.0014093427
0.0016789781
-1.3628205E-4
-6.532258E-5
0.0020875286
4.3661846E-4
-0.0014659092
-3.3426148E-4
6.395278E-4
2.2197409E-4
1.7455751E-4
4.8222143E-4
-2.450829E-4
-4.4086942E-4
-5.0287513E-4
-0.0010168563
-0.0011712845
-0.0014389699
0.0013940568
0.0041047824
0.0015181832
1.6314437E-4
8.564966E-4
3.131561E-4
6.389161E-4
-5.583204E-4
-0.0029374843
-0.0019611276
3.1095798E-4
3.2252388E-4
-7.194593E-4
-0.0011357594
-0.0017369421
-0.00211715
-0.0010906926
5.117452E-4
0.001076346
5.252307E-4
9.59278E-4
9.6240646E-4
-8.278683E-4
-5.329574E-4
0.0012980468
0.0020181674
0.0018843074
8.674805E-5
-9.632257E-4
9.4153715E-4
0.0028205113
0.0030126171
0.0011351618
-0.0011961123
-3.6859352E-4
0.0012010849
1.4002703E-4
-0.0012878198
-0.0013984172
-2.5425546E-4
0.0011322796
8.1707846E-4
-6.6391187E-4
-0.0017345521
-0.0016621597
-0.0013915512
-0.0019420033
-0.0017923602
-0.0017550704
-0.0024180966
-0.0014286229
-5.302445E-4
-8.6908846E-4
-4.3664215E-4
-5.4293992E-5
-2.7456503E-5
5.8110856E-4
0.0016374625
0.003239991
0.0034953423
0.0014963401
0.0011508884
0.0017651059
3.436972E-5
-3.0101338E-4
7.634341E-4
7.9001585E-4
0.001917041
0.0017558928
2.655301E-4
-9.146447E-5
-9.4639306E-4
-0.0010552679
-5.711857E-4
6.19208E-4
0.0018342767
3.9426648E-4
-4.5474382E-5
-0.0025168213
-0.005014319
2.5378025E-4
-0.0015399597
-0.010028283
-0.0058481013
0.0021249976
0.0034803129
0.0028557247
6.801159E-4
2.3119895E-4
0.0024389802
0.0013723638
-0.0012399284
-1.3676642E-4
0.001738852
0.0010196397
7.781041E-5
8.721349E-4
0.0022544574
0.0015589548
1.9954481E-4
-1.0404427E-4
-0.0022638417
-0.0028501074
6.674361E-4
0.0015376187
-9.050628E-4
-0.00128758
9.924931E-4
0.0011135725
-0.0021341515
-0.0029507515
-9.681013E-4
5.1698694E-4
0.001696434
0.0019890284
9.771724E-4
-7.6311093E-4
-8.5331366E-4
0.0016059409
0.0025089858
0.0016537001
0.0015423073
0.0010308668
6.0646118E-5
-4.291536E-4
-7.272297E-4
-5.077794E-4
-2.7585027E-4
-7.8733097E-4
-3.710976E-4
2.7082328E-4
-0.0010158381
-0.0018401482
-0.0012830162
-7.3749863E-4
-1.2671748E-4
-1.3864193E-4
-0.0011725295
-0.0028473407
-0.0028481295
-0.0011246477
-4.4930628E-5
0.0022369013
0.0028068433
6.6342554E-4
0.0016473347
0.0015595827
-3.029683E-4
3.2459758E-4
-4.050576E-4
-8.6013373E-4
-5.7285686E-4
-0.0020368889
-9.824939E-4
7.4635656E-4
4.1879663E-5
-6.158425E-5
8.1426883E-4
0.0017463919
0.0019091287
8.081569E-6
-7.411829E-4
0.0030125713
0.0036363525
-0.0012890826
-4.600654E-4
0.0027267202
8.9567964E-4
0.0010132312
0.0021431982
9.359221E-4
8.0878686E-5
-5.326258E-4
-5.420782E-4
-0.0017881797
-0.004111699
-0.004541599
-0.003346787
-1.3307515E-4
0.001994303
0.0017753117
0.0014467913
-4.2698858E-4
-0.0014091935
-0.001608743
-0.0026525157
-0.0017499364
-0.002353569
-0.0038039675
-0.002193755
-3.2230708E-4
0.0023912904
0.0039964817
0.0015735303
-1.0021157E-4
0.0011265626
0.0026628647
0.0015343574
-2.890939E-4
4.4466823E-4
7.5018936E-5
-0.0010856602
6.570623E-5
0.0017741667
0.002783049
6.8673387E-4
-0.0024840042
-0.0014901006
8.469348E-4
0.0025417854
0.0038585402
0.0027895917
0.0015568796
0.0021404782
0.0024724687
-3.3166108E-4
-0.005634289
-0.006547379
-0.0021344724
0.0012529693
0.0026079183
0.003020499
0.0027703468
0.0017418206
-0.0010861458
-0.0035582131
-0.004961567
-0.0049020373
-0.0019595015
4.935104E-4
8.973548E-4
-0.0013670955
-0.003853289
-9.897896E-4
0.0014518925
0.002411792
0.0053163157
0.0021987143
-0.0021670514
-0.0011248582
-0.0022023064
-0.003367485
-0.0017747093
1.3974505E-4
0.0024976532
0.0019504266
-0.0012131579
-0.0035270094
-0.002563084
0.0010434238
0.0029818164
0.0053164596
0.0051439316
-0.0012546536
-0.00382982
-0.0013556755
7.068869E-4
0.0027565276
0.002236429
-1.9673433E-4
-0.0014369109
-8.91097E-4
6.5859634E-4
0.0016428989
0.0033104043
0.0036786578
0.0021919913
0.0020179937
0.0015856415
0.002642563
0.004313741
0.0013762048
-0.0029223491
-0.004816751
-0.0035511402
-0.00249517
-0.004096113
-0.0035642711
-0.0020078009
-3.8072196E-4
0.0017781482
0.0020894613
0.0020741287
-0.003632268
-0.0078672785
1.3578881E-4
-7.158613E-4
-0.00926678
-0.0035971813
0.0016987057
-0.0013582424
-0.0018669271
-0.0023780311
-0.0019942515
3.7957364E-4
0.0019081708
0.0053823316
0.0058452133
0.0028761968
0.0044915965
0.0041365745
7.1400806E-4
0.0023010126
0.0022147181
-2.1833392E-4
5.6402694E-4
-1.0180171E-5
-4.6418543E-4
0.0017969065
0.004547857
0.005273817
0.0015083245
-9.082802E-4
-0.0016763256
-0.0037637763
-0.0021346337
-0.0013795826
-0.0017927401
0.0022904477
0.002899934
-7.4685406E-4
-0.002532696
-0.0039204643
-0.004576056
-0.0035177066
-0.0022670464
-0.0010018
0.0010290383
0.0018399284
9.943101E-4
4.4604272E-4
-0.0022885944
-0.0035160154
2.53777E-4
0.0016209072
0.0011621685
0.001228648
-1.7118087E-4
6.0392084E-4
0.001821244
8.589097E-4
1.9457476E-4
1.7169506E-4
0.0014187882
0.0024788782
0.0027777415
0.0024596916
-5.75356E-4
-0.002670432
-0.001987926
-0.0019899637
-0.003348574
-0.0038233008
-0.0015149162
-0.001157264
-0.0031382013
-0.0016877932
-8.3023147E-4
-4.4593288E-4
0.0016158109
-5.8793084E-4
-0.002039191
7.0979365E-4
0.0017476488
0.0018234979
0.0015385423
0.0022959702
0.004170792
0.0045398427
0.0065242704
0.006569644
0.0029490164
0.0022733412
0.0022317283
0.0017704348
0.0015035948
-8.0722943E-4
-7.5773214E-4
0.0016419626
0.0026611872
0.0024886457
4.3479766E-4
-0.004140872
-0.010502414
-0.012391413
-0.007911735
-0.0047408747
-0.0032738582
-0.0018036099
-0.0022049232
-0.0032609862
-0.0031803378
-9.738577E-4
-5.696924E-4
-0.0024549
-2.2058211E-4
0.0028730445
0.0023447354
0.0027135634
0.004992368
0.003982193
2.8163946E-4
6.659065E-4
0.0017095219
-4.9430085E-4
-2.44332E-4
0.0010152913
0.003154377
0.008157017
0.0095841745
0.0089113
0.008385242
0.0047721
4.7120644E-4
-0.0058425544
-0.011998149
-0.010994785
-0.006714009
-0.0026206379
-7.2193815E-4
-0.002278877
6.671998E-4
0.0064883837
0.0069799447
0.005481435
0.002963346
-0.0022967572
-0.005855246
-0.0065542874
-0.0064890683
-0.005896244
-0.0044445917
-0.002365701
-9.949968E-5
0.002154171
0.0022816695
3.6076532E-4
3.1363975E-6
0.0010264564
0.0011570139
-1.6703182E-4
-3.6751797E-7
0.0025693262
0.0027145764
0.0023250347
0.00280196
6.304371E-4
-3.5476853E-4
1.06650485E-4
4.0939412E-5
6.9868656E-5
-0.001866844
-0.0012156449
0.0012716865
5.514167E-4
7.8237965E-4
5.9103547E-4
-9.225288E-5
0.0014812737
0.0018797378
0.0019021326
8.8892184E-4
-6.999161E-4
-0.001081469
-0.003908371
-0.004218107
-7.5986685E-4
-0.0011455308
-0.0021137432
-2.6603643E-4
5.3649856E-4
0.0010177554
0.004539387
0.007512279
0.006648524
0.004834317
0.0028425122
0.0030462616
0.0030877814
-0.0027975582
-0.0061460626
-0.004338688
-0.0038819553
-0.0032057355
-0.0030460085
-0.0029660286
-3.7093082E-4
0.0010686322
-0.00310083
-0.008031846
-0.004106067
-0.0031323424
-0.011686274
-0.009507074
-3.2185772E-4
0.0018370787
0.0024719345
0.0018773229
3.720289E-4
-0.0018111877
-0.0034279288
0.0023279532
0.0072748773
0.008457202
0.012172302
0.011661613
0.009784572
0.012927028
0.013558527
0.010516364
0.005791328
-0.0019484158
-0.007683702
-0.0070729866
-0.0030455403
-0.0013105292
-0.003935978
-0.007453533
-0.009347593
-0.008910249
-0.0070639513
-0.0072260457
-0.0072334637
-0.004202884
-0.0010532168
0.0022394483
0.004642929
0.0037776425
0.002956508
0.0027590329
0.0020499583
9.0479973E-4
-0.001245649
-8.632741E-4
0.0015535018
0.0021747479
0.0024084377
0.0013569102
-0.0010142383
-0.0026203576
-0.0047372533
-0.004897476
-0.0017795499
-2.9720826E-4
-0.0015699323
-0.0013794536
0.0019658236
0.0036112706
0.002228803
0.0022258188
0.0025062237
0.00235599
0.0030476565
0.0035653492
0.0050796564
0.004926673
0.0020077769
6.767623E-4
1.5347727E-4
3.8206944E-4
-7.970898E-4
-0.004667563
-0.00448054
-0.0046106884
-0.009219845
-0.009496939
-0.005720798
-0.0034531346
-0.0026132907
-0.0022657614
-0.001884895
-2.7433215E-4
0.003215962
0.0038034364
0.0011935363
0.0024247582
0.0066162352
0.00947734
0.010777419
0.012600845
0.016520614
0.018150961
0.012435738
3.6748347E-4
-0.010008618
-0.01277012
-0.012754323
-0.013686241
-0.014443926
-0.013376745
-0.010041574
-0.007830415
-0.00452031
-7.6664604E-5
-7.067257E-4
-0.0011115542
7.203334E-4
-1.7597785E-4
6.8358233E-4
0.0022208835
0.0011669754
0.0026328438
0.005345082
0.0054241023
0.0036730883
0.002410477
0.004249785
0.0070593944
0.008047547
0.00723401
0.004975102
0.0029216707
3.1743263E-4
-0.003421928
-0.0061803213
-0.0077238367
-0.0073739043
-0.0058139716
-0.005423444
-0.005219998
-0.0047233165
-0.0037713135
-0.0023885628
-0.002732596
-0.0027660474
2.909172E-4
0.003992041
0.0061629293
0.0069155474
0.0067596957
0.0064276163
0.005713087
0.0038957403
0.002878662
0.0033399013
0.0014896691
0.0012515147
0.00864446
0.014105035
0.012633583
0.013732927
0.014528542
0.0042200764
-0.012209905
-0.023377627
-0.024535147
-0.01564767
-0.0051939697
-0.0014876281
-8.0282334E-4
2.6847818E-5
5.370354E-4
2.104968E-4
-0.004288669
-0.009080942
-0.009660419
-0.00889724
-0.0061142095
-0.0029577576
-0.0018546584
-2.4019936E-4
2.3323146E-4
-2.1649405E-4
-8.021857E-4
-0.0029555254
-0.0016177668
0.0015046494
4.899727E-4
5.8503397E-4
0.0033359078
0.005411833
0.00796212
0.009030819
0.008190782
0.007216372
0.0037461368
0.0011096479
0.0018959389
0.001478494
0.002794512
0.007284155
0.007881385
0.003013644
-0.0035132342
-0.0034131831
0.005542635
0.012793776
0.01816969
0.028054029
0.035151754
0.027452474
0.0040225703
-0.019693077
-0.032748375
-0.038436588
-0.03407738
-0.023951564
-0.020491205
-0.014924237
-0.0030997857
0.0019903954
0.0032365727
0.0017857262
-0.008751776
-0.0161031
-0.01571711
-0.014871619
-0.010061363
-0.005741597
-0.006901257
-0.0052714315
4.9203984E-4
0.0066038454
0.0108041875
0.010388735
0.0064591207
0.003670925
0.006301257
0.012375045
0.018018376
0.021778945
0.02493382
0.03190755
0.038476624
0.035938784
0.017942918
-0.011326565
-0.026207983
-0.020286737
-0.012632825
-0.009856901
-0.010042124
-0.0017247435
0.011363037
0.009062648
0.005399928
0.009735675
0.008514834
0.0016256737
-0.013563921
-0.029066423
-0.030508967
-0.025339881
-0.019398917
-0.014533499
-0.009168702
-0.0012553853
0.0011600143
0.0037072205
0.011040974
0.015523723
0.018154303
0.012555505
-0.0035158577
-0.014138026
-0.013808554
-0.0055408957
0.003039639
-3.559094E-5
-0.0076769027
-0.007101912
-0.0030872074
-0.0033650037
-0.008897308
-0.017074326
-0.023331065
-0.023947105
-0.017970055
-0.011211809
-0.008020123
-0.003971385
0.0024280576
0.011910107
0.02634972
0.040927917
0.05089475
0.052908853
0.04748455
0.03927457
0.030393433
0.027620023
0.026533507
0.013029961
0.0013090014
0.0062883045
0.015386394
0.020380627
0.018394306
0.0069238883
-0.009454487
-0.03358437
-0.06150441
-0.07668801
-0.081471235
-0.08268868
-0.07069793
-0.047294438
-0.030026833
-0.024100753
-0.017494254
-0.006176933
5.549072E-5
0.0026305583
0.0025648659
-0.005963003
-0.00987762
-0.002203704
0.010613219
0.03223495
0.054727126
0.06659497
0.070204936
0.06822502
0.065305375
0.055930264
0.033864394
0.012140057
5.9129304E-4
5.8335514E-4
0.0049769944
0.0049555153
0.0032646614
-0.005976436
-0.01883823
-0.014535263
-0.0033510108
-0.0060656443
-0.015916597
-0.020286016
-0.0200022
-0.022742743
-0.026227389
-0.020308321
-0.0066331485
0.0015668364
7.228689E-4
-0.0017624897
-0.005964468
-0.012528661
-0.021542769
-0.036029615
-0.050451882
-0.06650563
-0.08483488
-0.08914434
-0.07010445
-0.0316292
0.0014261238
0.014434845
0.030986898
0.04729697
0.055233628
0.07900041
0.103472
0.10726711
0.09462061
0.05885981
0.026228372
0.016054315
-0.004675453
-0.019164212
0.0069243577
0.035185155
0.04704826
0.06867912
0.0854329
0.06987208
0.038604595
0.01107701
-0.040814284
-0.12603992
-0.1841277
-0.18921672
-0.1694276
-0.13414784
-0.09692558
-0.06274974
-0.013597416
0.035080403
0.058503263
0.074075125
0.10586167
0.13074856
0.119004175
0.089100875
0.0586716
0.026076833
0.0032252413
0.0020380516
0.008968031
-2.9876106E-4
-0.016924163
-0.050387543
-0.122760035
-0.16123778
-0.1254989
-0.07227259
-0.01907726
0.013820498
0.010405461
0.005323647
7.578574E-4
-0.0045148497
-0.00477376
9.944782E-4
0.035688847
0.070259824
0.08257446
0.116447814
0.16174917
0.17948705
0.15677811
0.088178486
0.019449294
-0.010274756
-0.0148261655
0.0059055863
0.034350872
0.037471417
0.04122853
0.055970393
0.015276301
-0.1155551
-0.26812705
-0.3600234
-0.37076083
-0.30214983
-0.19306687
-0.11460895
-0.06334719
-0.011476215
0.04192282
0.13950372
0.26564375
0.30849305
0.23271449
0.10732465
0.009625012
-0.01584114
0.010603969
0.007976542
-0.037374478
-0.033602413
0.018713824
0.034998946
0.042078912
0.08050778
0.12879576
0.19365159
0.22600734
0.12697683
-0.07959062
-0.25926235
-0.31151956
-0.26083243
-0.18648049
-0.107647374
-0.0245826
0.06482688
0.14990757
0.14952692
0.057674266
-0.027633531
-0.07151812
-0.068045974
-0.02346326
0.023084728
0.07213894
0.11855348
0.14041719
0.10803879
-0.0058435644
-0.10714179
-0.118888326
-0.10712633
-0.08870058
-0.044330265
-0.010032955
0.0074443687
0.018216465
0.015587538
0.00845313
0.019476853
0.042875275
0.041894518
0.02332467
0.013859699
-6.391944E-4
-0.016246319
-0.013496679
-0.005418095
-0.0023581712
0.0011310176
0.0061973077
0.011155847
0.013393845
0.012211078
0.0093344785
0.0053714844
0.0023953498
-9.72085E-4
-0.0070431773
-0.009310203
-0.007655961
-0.007597608
-0.008681776
-0.014248314
-0.023542717
-0.033379883
-0.039897386
-0.027713852
0.0013266536
0.02899439
0.048789125
0.059156235
0.0652991
0.06725438
0.05206621
0.02504825
0.005909984
-0.002229653
-0.012857996
-0.02760777
-0.033609092
-0.031738564
-0.028180115
-0.024259273
-0.024226509
-0.025131887
-0.024301657
-0.023285555
-0.018628107
-0.012835912
-0.0105324825
-0.00902917
-0.0068364395
-0.005714431
-0.0053701517
-0.005379352
-0.006632932
-0.0043602767
0.003374023
0.008751569
0.0121692065
0.016730277
0.017677257
0.017361082
0.019961767
0.022476818
0.021871673
0.018701898
0.01749505
0.01685272
0.013136702
0.011478465
0.010418986
0.005180867
0.0014729471
1.4044957E-4
-8.5380016E-4
1.0725754E-4
-0.001481096
-0.004707012
-0.005417929
-0.0070785894
-0.0077998783
-0.0077009806
-0.0104379635
-0.012265909
-0.013921467
-0.014801446
-0.012448254
-0.013012104
-0.015021369
-0.013724926
-0.011801875
-0.009894668
-0.006959758
-0.0028092552
2.3985129E-4
0.0025891026
0.0053255633
0.0033973388
0.001835775
0.0049203224
0.0041735037
0.0031218827
0.0064554317
0.007152169
0.0077250986
0.012013192
0.012491458
0.009303417
0.008025632
0.004748029
0.0016004697
0.0023723466
4.0068838E-4
-0.002152128
-8.0779474E-4
9.103871E-4
-3.461895E-4
-0.0043527414
-0.0056196484
-0.0077763945
-0.00789874
4.721729E-4
-0.0032232627
-0.012205179
-0.0046608415
-0.0016436361
-0.0053094462
-0.0024085254
-0.0022311562
-0.0017017527
2.2521966E-4
-2.989834E-4
0.0013639102
0.0012126189
5.496128E-4
0.003175139
0.0042364015
0.0038405992
0.0031107967
0.0015068462
9.076276E-4
0.0023995305
0.0036409239
0.002572009
0.0011063181
4.6486114E-4
7.906839E-4
6.600564E-4
-6.8911724E-4
-1.8003446E-4
0.0012702815
0.001092885
-7.8726205E-4
-0.0021500387
-7.5528974E-4
-7.433487E-4
-0.0013808205
6.083793E-4
8.9400104E-4
7.211483E-4
0.0014893377
2.659637E-4
-0.0011699217
-0.002068987
-0.0017520356
-8.651617E-4
-0.0020645992
-0.002692569
-0.0024534182
-0.002493982
-0.0011207715
-7.9545076E-4
-0.0015674429
-4.935425E-4
5.776861E-4
0.0010906212
6.4526394E-4
-0.0017230808
-0.0011855563
8.6333975E-4
-6.981321E-4
-0.0010452635
1.1789867E-4
-3.5223225E-4
6.1329926E-4
0.0017659019
0.0024312527
0.0035422698
0.0027149129
0.0015699887
5.059794E-4
-0.0015192654
-9.5194747E-4
0.001960264
0.0029830358
0.0019613781
6.320665E-4
-0.001084517
-9.519453E-4
0.0014284455
7.765585E-4
-0.0013965258
-0.0010549764
-6.3629117E-4
-3.265656E-4
6.7171216E-4
0.0022079337
0.0029915925
5.2094035E-4
-7.928117E-4
0.0016733704
0.0029101428
0.0025006037
0.0032453495
0.0037069926
0.002348548
0.0013183772
6.7883165E-4
-7.7057193E-4
-0.0011205318
-7.7189E-4
-6.087837E-4
-0.0016871912
-0.004805401
-0.004354907
-0.0016915976
-0.0031451718
-0.004468373
-0.004301902
-0.004781538
-0.003700493
-0.004210905
-0.0063115587
-0.0048391176
-0.0034195094
-0.002819458
7.868768E-4
0.003093443
0.0038697054
0.006128132
0.0063476814
0.0055803154
0.0064443857
0.007123408
0.0063629923
0.004133564
0.003577314
0.0029950475
-3.2124372E-4
-2.954937E-4
6.114896E-4
-0.002689288
-0.004356785
-0.0031684346
-0.0017796388
-0.0015649967
-0.0038894324
-0.004811916
-0.0037361642
-0.0046541784
-0.0053557614
-0.0045289597
-0.0046708686
-0.0035082037
-0.0010103219
-6.4007717E-4
-3.253508E-4
2.1781861E-4
-7.908399E-5
5.782982E-4
7.8204414E-4
0.0012712815
0.002095071
0.0016052132
0.0021273436
0.0010000055
-8.458823E-4
2.5644276E-4
-0.00130194
-0.0023645724
4.227731E-4
-5.5575376E-5
-7.611484E-4
4.0666937E-4
-0.001000094
-0.0016321208
-1.09601504E-4
0.0013668406
0.0022074375
0.0021420175
0.0029000568
0.0024693767
0.0010735438
0.0029980827
0.0026658303
-7.107304E-4
1.3305199E-4
0.001128151
5.560633E-4
0.0016508453
8.5170486E-4
-9.273122E-4
-5.4878584E-4
-3.2258197E-4
-0.0017879342
-0.0020662341
-3.3987747E-6
-1.759365E-4
-7.822495E-4
6.290868E-4
-0.0012018364
-0.0035521188
-0.0023092665
-1.00157966E-4
0.001414686
3.3337943E-4
-0.001055799
-2.6530563E-4
-3.784819E-4
-0.0013444822
-7.655646E-4
4.961634E-4
0.0013686576
0.0026728834
-4.6628356E-4
-0.0059487866
-8.4891496E-4
0.0023781813
-0.005908653
-0.004670355
0.0017933629
-5.771537E-4
-9.884068E-4
8.338418E-4
6.3170557E-4
0.0013170888
0.0011243396
0.0018049208
0.003667577
0.0029806707
0.0012657976
0.0010728776
0.0011778133
4.8589677E-4
5.636649E-4
6.1565044E-4
-9.574372E-5
5.248323E-4
0.0012061568
9.291888E-4
7.185752E-4
-5.0353443E-5
-0.0011076138
-0.0011295691
-4.172884E-4
-5.160327E-4
-5.478724E-4
5.149787E-6
-3.7018646E-4
-2.0443476E-4
5.6492415E-4
9.567316E-4
0.0012781909
5.408596E-4
8.565903E-4
0.0013668264
-4.2366452E-4
-0.001298197
-0.0014879748
-0.0011162787
9.956713E-4
0.002916712
0.0036064272
0.0018975751
0.0026648473
0.004467305
-7.176782E-4
-0.0029249215
-0.00311766
-0.009632214
-0.0071960525
8.3105883E-4
6.331606E-4
6.392802E-4
0.0015864328
0.001607166
0.002788206
5.88591E-4
-0.0021019944
-0.0032629347
-0.0033388229
3.7183006E-6
0.001062802
4.6963833E-4
0.0030582151
0.0025732042
-0.0011556636
-0.0017787939
-6.676666E-4
-3.5245444E-5
0.0016647469
0.0033649076
0.0023905826
0.0010531293
0.0010634923
7.6979207E-4
7.675067E-4
-2.669587E-4
-0.0011755731
0.0016122762
0.0014264546
-0.0026502414
-0.0016006172
0.0011527775
8.6639833E-4
9.269073E-4
3.9258308E-4
-6.017265E-4
-1.1341118E-5
-1.7383299E-4
-6.193952E-4
2.8845947E-4
-1.4252494E-4
-0.0016317728
-0.0010126765
5.5701344E-6
-3.3870502E-4
-2.863327E-4
2.9945682E-4
0.0014043881
8.143276E-4
-0.0036338535
-0.004392071
6.420434E-5
2.8630864E-4
-0.001419982
-5.080768E-4
-0.0016173299
-0.0021778669
4.1928532E-4
0.0014117071
0.0010214964
6.737075E-4
3.8513436E-4
8.532725E-4
4.261825E-4
7.249665E-5
8.787058E-6
-9.3146384E-4
-7.192742E-4
-0.0011066322
-9.333356E-4
0.0019270779
0.002189668
0.0018645226
0.0032398787
0.0020189062
1.5372862E-4
-9.2741376E-4
-7.368873E-4
0.0013676931
0.0013359131
2.4426263E-4
2.1794855E-4
-3.0211514E-4
-1.90409E-4
2.3441929E-4
2.377992E-4
2.8010312E-4
-2.9772424E-4
-5.055591E-4
-3.9307083E-4
-9.346313E-4
-0.001245821
-0.0013058498
1.311175E-4
0.0027463394
0.001432963
-0.0018511288
-0.0025290544
-0.0036801049
-0.003522301
-1.0055772E-4
0.0012316363
3.3880677E-4
-5.652282E-4
-9.667686E-5
0.0015460757
8.1779034E-4
-2.2054318E-4
-2.0854914E-4
-5.6274555E-4
7.010498E-4
0.002140311
0.0026408937
0.0023534768
4.3618423E-4
2.789729E-6
0.0010080915
2.7978944E-4
-9.972912E-4
-7.637355E-4
7.0988695E-5
3.9069305E-4
7.8120036E-4
3.3723548E-4
-4.1299165E-5
2.1165976E-4
-0.0012951092
-0.0011094392
5.075318E-4
-7.40517E-4
-3.5529556E-5
0.0021910646
3.7170152E-4
-0.0015903697
-6.258654E-4
0.0011333127
0.0023862696
6.667834E-4
-0.0016680427
6.486234E-4
0.0015056432
-0.0010571135
-6.741077E-4
-7.081233E-4
1.3149086E-4
0.0025537915
7.7088596E-5
-0.0022315509
-0.0029518676
-0.0010706593
0.002060322
-0.005315724
-0.00843724
1.5155227E-4
0.001687437
0.0019379811
0.003589546
7.2017714E-4
0.0017636984
0.0019069287
-0.0016416435
-0.0012305151
0.0012774478
0.002418648
0.0011586553
2.0861263E-4
2.4356726E-4
-1.495807E-4
8.898173E-4
2.4301471E-4
-9.281547E-4
5.115477E-4
8.046382E-4
9.8869874E-5
-0.0011367082
-0.0015214582
-4.7886257E-5
-8.1530015E-4
-0.001996949
-0.0021405779
-0.0021764194
2.1835847E-6
0.0021347199
0.0027812023
0.0016509728
-1.9270429E-4
0.0012645723
0.0015537227
-5.284688E-4
-2.7609492E-5
-1.6597622E-4
5.7140547E-5
0.0015698385
-2.4955973E-4
-5.33244E-4
7.29793E-4
-4.4253806E-4
6.010672E-4
5.4935395E-4
-0.0015977742
-1.3949201E-4
3.1981403E-5
-0.0013619172
-0.0010522887
-0.0020320865
-0.0020304187
-6.185829E-4
-6.04772E-5
4.042244E-4
-8.090334E-5
2.3295532E-4
8.273504E-4
4.2798703E-5
9.613967E-4
0.0012698828
-5.385669E-6
6.010708E-4
5.5493065E-4
-3.9365995E-4
2.2992451E-4
8.938897E-4
0.0011489287
0.0010536576
6.168702E-4
0.0012633915
0.0015879853
-4.6846882E-4
-0.0023050895
-0.0012471565
-6.0457456E-5
-6.567231E-4
-3.3203952E-4
6.0475484E-4
8.121083E-5
-1.9823221E-4
1.5219508E-4
-5.3542015E-5
-1.3429116E-5
-6.575067E-5
-7.4338744E-4
-8.742588E-4
-8.8559114E-4
-0.0017153665
-0.0021418515
-9.7255525E-4
9.302273E-4
0.0022219282
0.0027678758
0.0020686241
-1.2355875E-5
-7.919075E-4
1.10678164E-4
-2.37281E-4
-4.6828468E-4
0.0010455619
0.0013476723
3.497676E-4
-5.443581E-4
-0.002088218
-0.0020068507
6.827825E-4
0.0018357862
6.2609086E-4
-1.5733753E-4
-6.194544E-4
-0.0015091365
-0.0018141535
-7.347715E-4
0.0012517265
0.0011608319
-9.398497E-4
-7.0886256E-4
-9.3968054E-5
-3.8867342E-4
0.0018110246
0.0019598214
-7.297427E-4
5.5278844E-4
0.0022066296
5.4754387E-4
4.620167E-4
0.0014654296
7.7234104E-4
7.4455043E-4
9.250151E-4
-8.8715984E-4
-0.0016052985
-4.1473386E-4
-6.29326E-4
-0.0016270136
-0.001422065
-5.48826E-4
-2.395851E-4
-5.3359487E-5
2.5729352E-4
-6.5119495E-4
-9.697446E-5
0.0022978853
9.281927E-4
-0.0024934735
-0.0026589236
-0.0010667609
-4.8054341E-4
0.0012133875
0.003919258
0.0014222867
-0.0021736352
-5.490885E-4
-5.342069E-4
-0.0023458367
-0.0018879372
-5.8493286E-4
0.0018541643
0.0022395956
8.374172E-4
0.001337628
0.0015348489
0.0011170806
-2.326814E-4
-0.0015210987
4.967315E-5
6.2926504E-4
-0.0014529146
-0.002346727
-0.0011050057
1.7146702E-4
0.0011152326
0.0013570751
-6.583758E-5
7.147955E-4
0.0028126037
0.0014449689
-3.1525723E-4
-5.6080613E-4
-1.7221716E-4
-4.4608905E-4
-0.0011499029
-8.474638E-6
-6.5291056E-4
-7.070101E-4
0.0023405547
0.0018135878
-4.5869536E-5
-0.0010909747
-0.001258906
9.861811E-4
4.654662E-4
-1.4610654E-4
5.9076195E-4
-0.0010544976
-6.2774826E-4
0.0011389053
9.960603E-4
-0.0025806264
-0.0047933115
2.8309855E-4
-0.0016262204
-0.00859024
-0.0028430906
0.004198251
0.004201163
0.00382892
0.002501957
0.0016877354
9.0737414E-4
-9.517858E-4
-0.0012575039
-5.192173E-5
0.0022547517
0.001984652
-9.2209905E-4
-6.430426E-4
8.550715E-4
6.297936E-4
4.1369977E-4
5.324916E-5
3.0064347E-4
0.0015408404
6.58961E-4
-0.0018130097
-0.002018795
-9.5997215E-4
-6.804088E-4
-8.202389E-4
-0.0011600641
-7.063585E-4
-3.092013E-4
-4.898025E-4
2.2974011E-4
1.9562512E-4
3.6834626E-5
0.0010320764
3.053341E-4
6.853013E-4
0.0037696462
0.0027521902
-8.912576E-4
-9.992127E-4
-1.6792431E-4
6.5736735E-5
7.0146075E-4
3.9677924E-4
6.7005673E-4
8.04592E-4
-0.0011826389
-0.0019540768
-0.0014981277
-0.0016622234
-0.0020298033
-0.0026143515
-7.7716063E-4
0.0012625742
4.1811622E-4
0.001357697
0.001602749
-0.0010659565
-9.2853315E-4
-6.37775E-4
-0.0019703188
-0.0014230784
-5.294705E-4
1.7466355E-4
7.6253485E-4
0.001227738
0.0027235812
0.0025649322
6.138129E-4
3.435436E-4
0.0011506516
5.5220077E-4
-6.173804E-4
-3.0484024E-4
2.0093365E-4
-2.489308E-4
-5.0954014E-4
3.8222797E-4
0.0011118772
-7.566982E-5
5.3868396E-4
0.0020680274
1.17515265E-4
6.587622E-5
9.461337E-4
-0.0011063202
-6.5313425E-4
-1.2374033E-4
-0.001789803
-0.001634076
-0.0014527065
-0.0011082086
1.638537E-4
-1.1457008E-4
-8.234507E-4
-7.037472E-4
-0.0015330084
-0.0025279294
1.2906658E-4
0.00220022
-5.906153E-4
-9.537341E-4
7.1194075E-4
-3.3815845E-4
6.895149E-4
0.002638621
0.0010895489
-6.9954566E-4
7.779996E-5
0.0014260233
5.634296E-4
-2.9880655E-4
0.0011789462
0.0012189236
-9.007761E-4
-6.749204E-4
0.0011077136
3.6020952E-4
-5.5998616E-4
0.0010318711
0.0023192766
0.0018868474
5.6982324E-5
-0.0018005277
-0.0017769182
-0.0011348262
-7.0202106E-4
-1.5810704E-4
-4.1245534E-5
-4.4412876E-4
-8.972795E-4
-1.8563717E-4
0.0010340158
6.4753596E-4
-0.0017687442
-0.003521944
-0.0014228879
8.5137057E-4
6.308919E-4
4.2920228E-4
-0.001075362
-7.8341557E-4
0.0026032678
0.0013611945
-9.3832077E-4
6.010491E-4
2.313585E-4
-0.0014390184
-0.0010464503
1.189403E-4
3.7556567E-4
1.4799932E-4
0.0012048281
0.0023007363
0.00219719
9.6153596E-4
2.0972172E-4
0.0019071103
0.0017963958
-0.001153341
-0.0021262178
-0.001421923
-5.364487E-4
1.9215117E-4
1.8436166E-4
4.324999E-4
5.5709627E-4
-7.070185E-4
-0.0016786964
-4.2782418E-4
1.8100125E-4
-0.0011858476
-0.0013261857
-2.7811417E-4
-2.7039537E-4
-0.0017443441
-0.0019402329
-4.139328E-5
-8.532079E-5
-5.222846E-4
8.30923E-4
0.0012344051
0.0014636839
0.0028019669
0.003414577
0.001672734
-6.5031905E-5
-8.3348213E-4
-0.0013200706
0.0020286196
0.0036660333
3.308774E-4
-1.716159E-4
-8.431251E-4
-0.0021459474
-4.1919862E-4
0.0010920116
0.0018693706
-1.6349946E-4
-0.0014868928
-0.0015238962
-0.0026328969
0.0014432056
-0.0019573378
-0.011200701
-0.0052217757
0.0012465145
7.24715E-4
0.0025314572
8.9925545E-4