0.0012347305
0.0020076712
0.003080667
-8.7357865E-4
-0.0045439457
-0.0020559784
-0.0012347641
-0.0021030365
-7.44876E-4
-2.720015E-4
-6.1268563E-4
-5.3294766E-4
-9.0122054E-4
-0.0021689285
-0.0025031082
-8.243274E-4
-4.0745904E-4
-0.0013101967
-9.671834E-4
-5.150874E-5
1.5819933E-4
-8.9273724E-4
-0.0012677946
7.633471E-5
6.9916993E-4
8.2025776E-4
0.0020737161
0.0031787609
0.0030618443
0.00311525
0.0031826668
0.002354208
0.0011829421
-0.0015297951
-0.0032369134
-8.8218704E-4
0.001495845
0.0019660825
3.0846894E-4
-0.002464365
-0.0024156321
-0.0011905963
-4.5287237E-4
2.299541E-4
-8.384985E-5
-1.8969462E-4
2.5748877E-5
4.053646E-4
-1.791308E-4
-0.0019178123
-0.0015928803
-0.0010533689
-0.0010629409
-6.864029E-4
-0.0013496244
1.4121136E-4
0.0021617878
0.0015134438
0.0016021951
0.0015125067
1.484087E-4
-1.2906715E-4
8.080537E-4
8.227442E-4
-3.3569816E-4
7.376213E-4
0.0018778077
1.5473367E-4
-0.0012161222
-0.0014234199
-0.001197118
-0.0022180325
-0.003943678
-0.0017309493
0.002714152
0.003632789
-1.5196425E-4
-0.0023924801
2.6103025E-4
0.0010399242
-6.286315E-4
-3.2375025E-4
6.953118E-4
0.0013281383
0.0014779645
8.05754E-4
8.514525E-5
0.0014318927
0.0013065885
-0.0031282771
-0.0026030778
0.00178309
0.0017316785
0.0010735706
-2.2918853E-4
-0.0021420333
-0.0010256392
-1.5359337E-4
-7.5465447E-4
-0.0011550902
-1.0708747E-4
0.0010522702
8.9773396E-4
0.0014570397
2.3066823E-4
-0.0016319249
5.281893E-4
0.003222922
0.0020533153
-0.001795808
-0.0024345256
-0.0015341036
-0.0026612522
2.0159245E-4
0.0025791258
1.0991093E-4
2.3513798E-4
0.0012010386
-9.254648E-5
-9.846435E-4
-3.4948767E-4
5.2499125E-4
-9.362661E-4
-0.002189754
-0.0016835871
-0.0010670591
-5.335661E-4
-0.0010554083
-5.7347043E-4
0.0010471088
0.0015184936
0.0025152536
0.0031180978
0.0023021463
0.0024295943
0.0031445127
0.0017236967
-3.0351387E-4
2.088247E-4
-8.499239E-4
-0.003187936
-0.0011886366
5.1961717E-4
-0.001696595
-0.0033416883
-0.0021868234
-1.4827208E-4
0.0016499644
0.0026010321
1.2506342E-4
-0.0017304838
-1.026922E-4
-0.0010171027
-0.0025082484
-0.0020347482
-0.002756531
-0.0019305474
8.6914614E-4
0.0013746846
-7.20009E-4
-8.0484664E-4
0.0015006115
0.0014825888
4.7656082E-4
-8.747765E-4
-0.0012112742
0.0030689302
0.0054465244
0.0035015943
0.0013988531
3.1670227E-4
0.0014175794
1.9861794E-4
-0.0015787889
0.0015302524
0.0023684204
4.953842E-4
1.4183298E-4
-0.0015469192
-0.0035013093
-0.004380375
-0.0026383754
9.258495E-4
5.647849E-4
6.872966E-4
0.0026893518
3.1829154E-4
-5.923208E-5
7.044263E-4
-0.004665241
-0.005734807
-0.0013663457
-0.0019292372
-0.004008237
-0.0026054862
0.0017212086
0.0053072795
0.005654322
0.00426592
2.341972E-4
-0.0011979698
0.0026021535
0.0034066741
0.0019152967
0.0013002875
-0.0013740008
-0.005063584
-0.005325274
-0.0026322387
-0.0014302675
7.6440035E-4
0.0033313043
0.002246272
0.0019261951
0.0010036188
-0.0016255241
-0.0016893876
-6.8890996E-4
6.713664E-4
6.584358E-4
7.345799E-4
0.0026545185
9.4896957E-4
-0.0017734553
-0.0017796293
4.959497E-4
0.002133061
-7.9000986E-4
-7.7293883E-4
0.0013095877
8.142386E-4
0.0029627301
0.0021191938
-0.0021010046
-0.003810271
-0.0045277295
-0.0031414435
-0.0016208792
6.915827E-4
0.0016436358
-0.0025612498
-0.0033548253
-0.0020578688
-0.0011382974
0.0019172464
0.0024556732
0.0040560537
0.0050081005
0.0029977201
0.0031126225
3.1928482E-4
-9.3462085E-4
0.0010752426
-0.0021313701
-0.0038153003
-0.0025091607
-0.001929333
-6.978354E-4
5.317938E-4
0.0041450504
0.00564319
0.0029193256
0.0011966993
-5.683365E-4
-0.0013461154
-0.0026928326
-0.004816507
-0.0030634524
-0.0016295299
-0.0016276912
-0.0018213316
-0.0026791533
-0.001525991
-7.6652365E-4
1.02309576E-4
0.0021352165
0.002950239
0.0033018752
0.0011005233
-6.3764356E-4
6.649742E-4
0.001493726
0.0028604337
0.0010383598
-0.0023579502
-0.0017071324
-0.001275753
0.0012037009
0.0035336611
9.808999E-4
4.890407E-4
3.5490943E-5
-0.0012001585
0.0019806756
0.004630123
0.002627353
-0.001516865
-0.0025904304
-0.0020058898
-0.0028037538
-5.806575E-4
7.9735223E-4
-0.0013659033
-0.0028556504
-0.0039187544
-0.002015209
-4.338145E-4
-0.0015304012
5.61232E-4
0.0012408105
1.015478E-4
0.0016332993
0.0011272713
5.3175725E-4
0.002280883
0.0019609244
3.2546075E-5
-0.0010880469
-0.0017020598
-0.0020783865
-8.000382E-4
7.2530314E-4
3.4478505E-4
6.47613E-5
3.0052205E-4
0.0011903652
0.0020416826
0.0011854048
0.0017562262
0.0030438018
0.00286484
0.0027726733
7.360608E-4
-0.002212782
-0.0035181784
-0.0036932495
-0.0019690543
-0.0017418425
-0.002945707
-6.1880687E-4
0.0023491145
0.0031595582
0.0018964562
-0.00123712
-0.0022710424
-2.2718134E-4
0.0012931161
2.911906E-4
-7.637153E-4
-2.4198796E-4
-4.753337E-4
-3.6555805E-4
1.8526536E-5
-0.0011027306
-0.0010911585
-0.0012047988
-0.0015379816
0.0012892281
0.0029139677
0.001201504
8.801829E-4
0.002035632
0.0016040136
-6.89429E-4
-0.0028718472
-0.0030169752
-0.0014926408
-1.6014831E-4
2.821758E-4
-4.3822892E-4
-4.9894437E-4
0.0016722319
0.0018623882
3.8301712E-4
4.754226E-4
2.9955243E-4
0.0019520242
0.0027665915
-0.0010674752
-0.0014456726
0.0022955614
0.004242245
0.0023112865
-0.002127026
-0.0018251239
1.1854575E-4
-0.0011518408
-6.672791E-4
-0.0013821642
-0.002807111
-9.3048526E-4
-0.0010663904
-0.0014592094
1.9288689E-4
-7.9337845E-4
-0.0021669902
-5.484882E-4
0.0013701894
7.568985E-5
-0.0028938688
-0.0016052239
0.002327683
0.0017164072
-6.075014E-4
5.8430515E-4
0.0015714268
0.0012826812
0.001952738
0.002181734
0.002014307
0.0010377693
-6.1669224E-4
-9.405107E-4
-0.0012403354
-0.0012384068
-0.0013029659
-0.0018823121
5.413286E-4
0.0017143273
-9.469329E-4
-0.0011129265
-8.6760025E-5
-2.9134934E-4
6.011703E-4
0.0016674459
0.001772851
0.0014110187
0.00149734
7.7090104E-4
-0.0016834443
-0.0024401718
-0.0014700815
-8.4116694E-4
-3.679997E-4
-1.9130179E-4
0.0010200585
0.0015812599
-6.156612E-4
-9.0617937E-4
0.0016820132
0.0020113904
-5.4057396E-4
-0.0021416962
-0.0016562515
-0.0013115781
-0.0015037126
-0.0014186384
-0.0012323007
-4.0724248E-4
6.002418E-4
-1.8378538E-4
-0.0015406774
3.9703798E-4
0.0034238452
0.002727667
9.698373E-4
0.0011120038
0.0016948549
0.001046704
-6.804411E-4
5.8054365E-4
0.003728272
0.0018466796
-0.0022940198
-0.002152401
-0.0010694944
-0.0024360097
-0.002219071
-9.823816E-4
-0.0014550033
-1.9170769E-4
7.3871546E-4
-7.2470994E-4
-2.8372882E-4
4.0648345E-4
3.9688722E-4
2.1886975E-4
-0.0010994629
-1.641114E-4
4.8639748E-4
-0.0012622989
-7.123028E-4
6.558498E-4
8.4002205E-4
-2.5692538E-5
-0.001261759
1.9055705E-4
0.0020520524
0.0016403111
6.890983E-4
0.0010909725
0.0026229816
0.0024604497
0.0021673231
0.002850175
0.0015802674
-4.0750002E-4
-0.0027889353
-0.00471932
-0.0034615404
-0.0021418992
-0.0018357045
3.575838E-4
0.003254576
0.0037035637
0.0013723663
-0.0010298594
-0.0020667224
-0.0016794796
-6.0259236E-4
-0.001079268
-0.002143772
-0.002079137
-0.0018608127
-6.4361346E-4
0.0011594003
5.4335767E-5
-0.0022659763
-0.0015471858
-4.858541E-4
-0.001297544
3.133581E-4
0.0028584765
0.0014925039
0.0016382353
0.0048007965
0.0024698707
-0.0015601988
-4.3264724E-4
8.942192E-6
-4.4699895E-4
8.074452E-4
6.111658E-4
6.889758E-4
0.0021736794
0.0039601675
0.003832493
-0.0010275844
-0.0030998553
8.4394566E-4
0.0040328573
0.005508356
0.0027432244
-0.0035008104
-0.005662978
-0.005260246
-0.0044680187
-0.0032749623
-0.003307987
-0.0016714347
-4.521905E-4
-0.0012174101
4.6120893E-4
3.2419906E-4
-0.0013207938
0.0012880301
0.0011390696
-0.002593764
-0.0021879715
2.9196579E-4
0.0017997818
0.0013374712
-1.9867916E-4
8.150683E-4
0.0018115311
0.0026393102
0.0047828336
0.0024731208
-7.5563695E-4
0.002003477
0.003987559
0.0023012662
0.0014007763
-5.373817E-4
-0.0034305176
-0.0041619814
-0.004141283
-0.0035142906
-0.001765239
-4.7356903E-4
-2.7349306E-4
-6.9721515E-4
4.0341058E-4
0.0019429196
0.0020466966
0.002754059
0.0024223884
0.0019890864
0.0042091873
0.0045306254
0.0026566954
0.0011152308
-8.396826E-4
-0.0037878251
-0.0074729347
-0.0060237437
1.2296766E-4
0.0018611382
-5.610757E-4
-0.0040761754
-0.006949958
-0.004744128
-3.4130877E-5
8.0105226E-4
-6.481642E-4
2.5809926E-4
0.0014670246
4.45541E-4
-0.0017906376
-0.0038874466
-0.0018630587
0.0015566751
0.0012954321
0.0029783961
0.006163108
0.0055233263
0.004680182
0.005348241
0.005657975
0.0060736043
0.006526395
0.004430102
-2.3069471E-4
-0.00331447
-0.0052968683
-0.0073683704
-0.0075911293
-0.006758582
-0.004073097
-5.035826E-4
-6.790029E-4
-0.0028419252
-0.0027045254
-4.030735E-4
0.0011333115
3.9665744E-4
-7.0755155E-4
-3.7546144E-4
0.0018000591
0.0034437757
0.0015223294
-0.0016951197
-0.003121591
-0.002561166
1.1563156E-4
0.0037295278
0.005079381
0.0037246712
0.0033450022
0.0031562052
-3.0314393E-4
-0.0035302578
-0.0033866873
-0.0019369605
-0.0016082289
-0.0026839038
-0.002061677
-4.912644E-4
-7.020079E-4
-1.0295926E-6
0.0015511526
0.0018344711
0.001543663
0.001005456
0.0011954076
0.0020575447
0.002174681
6.9066434E-4
-0.0011187223
-8.732085E-4
-8.6595595E-5
9.2057773E-4
0.0017647685
4.4492818E-4
9.108562E-4
0.0028018355
0.0013338744
-0.0025260376
-0.0052438215
-0.0035686349
-0.0011159464
-4.5702234E-4
0.0014783774
0.0021669809
0.001852138
0.001598702
9.893671E-4
0.003244153
0.0035522091
9.7420445E-4
0.0015411597
0.0015989391
-0.0023596655
-0.008494954
-0.011284998
-0.0073541333
-0.0023199143
-1.1816465E-4
-9.2718855E-4
-0.001208523
0.0010204447
8.5559033E-4
-1.4499585E-4
-6.671857E-5
1.0491598E-4
0.0022496374
0.0026870302
0.0019655286
0.002099589
-4.6912857E-4
-0.002028308
-0.0028921969
-0.004182964
7.2866137E-4
0.005724669
0.005979747
0.008246682
0.009580656
0.009496399
0.012306926
0.010640063
0.0028442494
-0.0047458014
-0.01103276
-0.014880351
-0.016582567
-0.014804827
-0.009230861
-0.0056472877
-0.0017646698
0.003699939
0.0070672194
0.010377962
0.010418057
0.007667214
0.0056754304
-7.862624E-4
-0.007850761
-0.010523114
-0.0100984005
-0.005239635
-8.801382E-4
0.0012738493
0.003389086
0.0038896329
0.0059153773
0.007449428
0.005233093
0.0038965351
0.0030640305
8.066694E-4
-0.0017272228
-0.0040613073
-0.0057912474
-0.005819593
-0.0024728372
-8.407701E-5
-0.0020086917
-0.0035954618
-0.003188874
-0.0021488692
-0.0019816249
-9.4317447E-4
0.0032332835
0.004116509
0.0032339548
0.005978621
0.005694025
0.0037027053
0.0031136083
-6.541107E-4
-0.003312845
-0.002660143
-0.0027971447
-0.0029489917
-0.0020712495
-6.029584E-4
4.651163E-4
0.0018969508
0.004041879
0.0042987205
0.0034144798
0.0021313643
0.0012650738
0.0014769105
-9.229585E-4
-0.0036766836
-0.00330812
-0.0019700238
-1.6387142E-4
8.0863596E-4
0.0013675586
6.731965E-4
-0.0045348625
-0.009199576
-0.010674758
-0.008311211
5.085394E-4
0.00649377
0.0062808464
0.00609615
0.0013235966
-0.004919983
-0.0030087454
2.1645722E-4
-6.19193E-6
-2.2930153E-4
-0.002250038
-0.0046873526
-0.006703208
-0.010837369
-0.0114309
-0.0043260823
0.00696151
0.016448654
0.019042566
0.018677842
0.019037541
0.016987389
0.011901218
0.0045009744
-0.0014835465
-0.0038906028
-0.00617266
-0.0060062646
-0.0021842883
0.0024250506
0.0071225176
0.007142093
0.0014567566
-0.00720019
-0.01687673
-0.020737099
-0.02317268
-0.028314713
-0.024298543
-0.017192185
-0.017462445
-0.013645285
-0.006427745
-0.006392161
-0.01006818
-0.011856559
-0.009075416
-0.0015072306
0.009956527
0.024205543
0.035921935
0.038940907
0.02822806
0.016812306
0.026111294
0.04147003
0.04018896
0.026589468
0.006732146
-0.00885621
-0.008192902
-0.0011699266
-0.0018178384
-0.007827666
-0.005195105
0.009170785
0.017108316
0.008880938
-0.006732829
-0.021138227
-0.033408582
-0.04706886
-0.053784356
-0.044370763
-0.031948894
-0.02695208
-0.025201796
-0.023710402
-0.021007337
-0.0183797
-0.016054967
-0.008293996
0.011555022
0.037885446
0.051495574
0.0494682
0.041106515
0.029914055
0.023981355
0.01706682
-2.4371459E-4
-0.014531868
-0.017600197
-0.010842386
-0.0048563518
-0.0077996063
-0.0060928627
-2.7764004E-4
0.008582437
0.0342119
0.061236322
0.06659967
0.04890571
0.028412176
0.024193957
0.0070046815
-0.040953964
-0.0786641
-0.08410153
-0.07159889
-0.052117787
-0.030984022
-0.00766305
0.015096254
0.024828194
0.028760597
0.04524762
0.05622266
0.03707407
-0.0011710995
-0.04033489
-0.06597209
-0.07077349
-0.068471104
-0.06068829
-0.03268127
0.0025988254
0.02468494
0.037993617
0.050766367
0.07079779
0.09863649
0.11809712
0.1204721
0.10631586
0.07392185
0.030283624
-0.015619359
-0.0849632
-0.17820798
-0.22179353
-0.19117272
-0.13486655
-0.0637367
0.00858813
0.055764493
0.07930144
0.104146495
0.14354685
0.1297226
0.055581372
8.514259E-4
-0.04726684
-0.084799215
-0.0864879
-0.075340666
-0.030813772
0.006650127
-0.004361864
-0.010951497
-0.0015808275
0.02841947
0.04663477
0.014291292
0.00535688
0.030803481
0.06680944
0.14930883
0.20526886
0.13544066
-0.011434542
-0.12664339
-0.16678222
-0.13916218
-0.07538535
-0.037556734
-0.019173888
0.020288082
0.057362832
0.11172718
0.17934804
0.1759245
0.10408447
-0.008450124
-0.13423161
-0.205684
-0.25863326
-0.28890496
-0.20271178
-0.09509972
-0.074784316
-0.06424377
-0.027776916
-0.002506163
0.030233229
0.08502274
0.11129686
0.11277544
0.13473621
0.13572837
0.15259218
0.23480065
0.2539762
0.19645035
0.1353427
0.028589418
-0.0938246
-0.17660815
-0.20388748
-0.15578845
-0.08845982
-0.035515055
0.010490172
0.032549385
0.04889471
0.0688925
0.05489876
-0.02363261
-0.11834633
-0.14961846
-0.13803078
-0.13105609
-0.12646836
-0.11305182
-0.077387676
-0.01709175
0.058279008
0.1145557
0.137035
0.15375292
0.14640276
0.10877017
0.076161936
0.04302746
0.012019106
-0.007645898
-0.032035403
-0.056897927
-0.069145195
-0.07003405
-0.06784672
-0.058099516
-0.032083027
-0.0032891687
0.018391386
0.033929724
0.042325806
0.04601255
0.044012915
0.034254447
0.017992245
6.264386E-4
-0.011996592
-0.019752022
-0.021378843
-0.020650094
-0.019512126
-0.013452146
-0.007362435
-0.001001686
0.0050179036
0.0039322264
0.0056256712
0.010659238
0.008141732
0.004771204
0.004224537
0.0030599062
0.0015530547
-0.0027989931
-0.007318956
-0.009537045
-0.013187467
-0.015420021
-0.013528539
-0.010072286
-0.0052326247
-5.3509546E-4
0.0024506731
0.005769728
0.0097477585
0.012744556
0.012734282
0.010232752
0.00893431
0.0077157067
0.004814941
0.0031037205
0.0014227516
-0.0013352247
-0.0034453415
-0.0070735877
-0.009391249
-0.0067252475
-0.003536979
-0.0022005402
-0.002650603
-0.001701422
0.0014349658
0.0017522961
0.0032123527
0.006286214
0.0057920623
0.0053500286
0.004758057
0.0032506392
0.0030340909
0.0027803583
0.003184317
0.0014726792
-0.003458713
-0.0060191657
-0.0058040437
-0.005528823
-0.0047058854
-0.0024382006
-0.002569823
-0.0042185253
-0.0022263315
-0.002619142
-0.005711364
-0.0054810084
-0.00463593
-0.0020970136
6.292931E-4
-1.2560599E-4
8.414642E-4
0.005155256
0.008179817
0.006810728
0.006281543
0.008087011
0.006494666
0.0064849174
0.005416827
-0.0013720781
-5.4585456E-4
0.006149608
0.005041148
-0.0021096286
-0.0065692677
-0.0056997696
-0.005981494
-0.009136155
-0.009800577
-0.005987724
-0.0013492737
-8.2020723E-4
-8.30799E-4
-6.880457E-4
-4.934067E-4
0.003087834
3.6496232E-4
-0.004491761
-3.0919825E-4
0.0010814625
-0.0013194074
-5.531345E-4
8.42612E-4
0.0027758253
0.0036407947
0.005628269
0.0072731166
0.003955849
0.0015030443
0.0012202444
0.001874177
0.00216745
-4.4042635E-4
-9.288672E-4
-1.9769673E-4
-0.0015468792
-0.002883661
-0.0036644796
-0.0025343753
-0.0018876253
-0.0019048899
5.269141E-4
0.002115209
0.0013715886
-0.001524325
-0.004031056
-0.0016516147
0.0015451026
9.15951E-4
-8.4427395E-4
1.5428825E-4
8.707691E-4
-0.0010017017
-3.1597627E-4
7.130635E-4
-9.5401116E-4
-0.0029190825
-0.004506934
-9.733118E-4
0.0035749648
0.0017673147
7.6553813E-4
0.002366924
0.0021438815
8.319467E-4
-3.1307776E-4
-6.411235E-4
-0.0013274428
-5.491556E-4
0.0014616357
3.0889446E-4
-7.921328E-4
-4.9986487E-4
-1.1980657E-4
0.003865756
0.0060862
7.825089E-4
-0.0026034385
-9.5047447E-4
-0.0020922704
-0.002118819
-2.818437E-4
-0.0031098835
-0.0019910967
0.0019766889
-0.0011715599
-0.0031753378
-0.0019338412
-0.0018396709
-0.0015656067
-0.00218557
-8.614003E-4
8.988419E-4
4.5837424E-4
4.4285512E-4
-9.898044E-4
-5.484171E-4
6.9052627E-4
-0.0017862557
-5.156573E-4
0.0023897125
0.0022573273
0.0032926141
0.003339447
0.0032791342
0.0035905717
-3.1004E-4
-0.0032150943
-0.0013244329
3.867713E-4
4.2826188E-4
-3.7911467E-4
-9.2097104E-4
8.6502085E-4
9.843748E-4
-0.0012854957
0.0012671452
0.0035638008
5.801811E-4
-1.4402074E-4
-7.778365E-4
-0.0034672427
-0.0032154482
-0.00212531
-8.704527E-4
4.0334536E-4
0.0011989076
0.0031018911
0.0023431603
-9.5817886E-5
-0.001143173
-0.0014348363
0.0017728383
0.0032479526
-0.0013488746
-0.0039797784
-0.00300565
-0.0025246248
-0.0031791208
-0.002693688
3.6332724E-5
6.088954E-4
-2.6724453E-4
-0.0011311388
-0.0038081475
-0.0027110563
6.077403E-4
2.8691476E-4
-3.6756464E-4
-0.0013352907
-0.001135532
9.543846E-4
1.5021076E-4
2.50197E-4
0.0012259255
-3.2113542E-4
2.965737E-4
0.0013587788
0.0015755784
0.0040747495
0.0047726473
0.0019757429
4.942342E-4
0.002425483
0.0042691585
0.0042229933
0.0035585307
0.001374533
-5.6386495E-4
-9.904423E-4
-0.0011062573
-0.0011884905
-0.0026247632
-0.0020279987
-3.8375636E-4
-0.0018919065
-0.0014482036
-0.0016208313
-0.0038399075
-0.001913349
-9.403359E-4
-0.0017001053
-0.0011397521
-0.0026423088
-0.004003411
-0.003471375
-0.0022745177
-0.0011099064
2.058664E-4
0.0023312403
0.0014394986
-8.639682E-4
1.6911134E-4
0.002372744
0.0030822249
0.0013230044
9.885961E-5
5.8821833E-4
7.572642E-4
0.0019130707
0.0015588162
3.4422142E-4
0.0016867043
0.0019120817
5.018684E-4
-6.381441E-4
-4.4646728E-4
0.0011076166
0.0017610837
0.001898006
7.4237655E-4
2.3723891E-4
0.0012224298
-0.0016015577
-0.003525119
-9.7408786E-4
0.0023534803
0.005171264
0.0015108889
-0.004579155
-0.0042628082
-0.0034351344
-0.0027846496
-1.303754E-4
3.810549E-4
1.9475447E-4
-4.1533288E-4
-0.0011234694
0.0010837935
0.0021139274
8.1221847E-4
-6.7619316E-5
-0.002437567
-0.0030320336
-3.721972E-5
0.0012754902
0.0023922701
0.0026774781
-6.3693296E-4
-9.956595E-4
9.329946E-4
7.0704395E-5
-1.12500325E-4
8.073445E-4
4.6781058E-4
-1.9371838E-4
-2.6643462E-4
-4.6745923E-4
-8.6965837E-4
1.2844102E-4
3.623346E-4
-0.0016472806
-0.0027883658
-0.0022127454
2.1100322E-4
0.0020339917
3.9510374E-4
-2.310859E-4
6.528556E-4
-0.0011000638
-0.00193823
6.624481E-5
6.8173313E-4
8.760121E-4
0.0018069565
0.0010792933
6.5153657E-4
6.2181003E-4
-2.7288907E-4
3.2507075E-4
0.001730859
0.003450573
0.003260549
-5.338351E-4
-0.0023321654
-0.0018397528
-8.0517196E-4
-8.3939995E-5
-0.0013236633
2.3002575E-4
9.0793014E-4
-0.0016508435
1.4153635E-4
0.0013315949
3.3024742E-4
6.59767E-4
-5.6318886E-4
7.5563096E-4
0.002554361
-3.287465E-4
-0.0035491178
-0.0043224473
-0.0016388502
-1.2549703E-4
-0.0016833347
-8.2801E-4
9.790614E-4
0.002605582
0.0026067193
-1.5651702E-4
-5.084209E-4
-2.312163E-4
-8.22525E-4
6.5743056E-4
0.0011412833
-3.0700528E-4
-9.348533E-4
-9.1284973E-4
-0.0017799644
-0.0013409072
0.0011505567
0.0013071783
0.0010930154
0.002482534
0.0026759163
0.0025465933
7.1559165E-4
-0.0021385672
-0.0021105448
-7.495385E-4
3.8530532E-4
5.8763806E-4
-2.0091148E-4
-8.542681E-4
-6.1228935E-4
8.115166E-4
6.5267296E-4
-1.8850411E-4
-2.5830496E-4
-8.254559E-4
6.3740736E-4
2.7734324E-4
-0.0025338759
-1.4276551E-4
0.0016722382
-9.354289E-4
-0.0011004363
8.795177E-4
0.0016635793
-3.9314723E-4
-0.0017531016
6.3405005E-4
3.230768E-4
-0.0014437425
8.713114E-5
5.049553E-5
-0.0012576326
-6.176196E-4
4.2167032E-4
0.001349351
0.0014647506
4.6613553E-4
-8.6561823E-4
-0.0011499269
9.232166E-4
0.0022135817
7.498843E-4
-8.838276E-4
-0.0015105526
-0.001102175
-3.6535875E-4
6.211304E-4
0.0019989775
9.4459375E-4
-0.0012337926
-5.2552886E-4
5.8859645E-4
1.7825219E-4
6.572679E-4
0.0019356172
0.0017984947
-5.453422E-4
-0.0026804775
-0.0015875758
8.0411887E-4
0.0012010857
-4.35446E-5
-8.8668655E-4
-1.9501269E-4
-4.4481665E-5
-0.0012686682
-0.0015978216
-0.0016512161
-6.876771E-4
0.001955555
0.0021610223
5.618759E-4
-3.659249E-4
-0.0015083699
-0.0013802513
1.383244E-4
2.781433E-4
-7.4430765E-4
3.8288094E-4
0.002375514
0.0013865064
5.9150864E-4
8.6495426E-4
-2.149898E-5
1.5604575E-4
-2.7429932E-4
-0.001207748
-2.1549425E-4
-5.354492E-6
2.4849223E-4
8.7522654E-5
-0.0015487662
-6.2196195E-4
2.37131E-4
-0.0013932193
-0.0013873463
-4.2772404E-4
6.856033E-4
0.003767269
0.0035846778
-0.0014003227
-0.002137687
-7.765171E-6
-8.3307317E-4
1.7758194E-4
0.0015335488
2.0633874E-4
1.4647903E-4
-8.793869E-5
-8.360844E-4
3.306897E-4
9.6074864E-4
-4.8363832E-5
5.2562315E-4
0.0024704365
9.407601E-4
-0.0013160082
-3.0923975E-4
-6.481391E-4
-0.0022503159
-0.0016076877
6.8781385E-4
0.0017390909
-4.3708386E-4
-0.0022637055
-0.0027461373
-0.0019862757
0.0013065698
0.0017832905
-2.6041325E-4
-1.8284638E-5
5.009195E-4
-1.1278666E-5
-0.0012334455
-0.0012623016
-7.302938E-5
-3.2882084E-4
5.819399E-4
0.002339283
0.0017258811
5.9743994E-4
1.6200173E-4
-1.0564216E-4
-8.077642E-4
-0.0012735638
-5.4593215E-4
1.8004577E-4
8.858791E-4
0.0014445321
0.0010666781
3.1018828E-4
-4.279949E-4
-6.8542303E-4
-7.9507683E-4
8.0880745E-6
0.0024182019
0.0021069143
-8.407882E-4
-3.7654617E-4
6.5100705E-4
-0.0014719852
-9.4127055E-4
0.0014714287
4.606945E-4
-8.726807E-4
-5.9362076E-4
2.6037797E-4
0.0010916737
0.0016142499
0.0030543322
0.0015183975
-0.0028054004
-0.0029693802
-0.0015470769
-0.002087496
-0.0023196063
-0.0021121542
-0.0016212073
-3.341553E-4
2.1130685E-4
-0.0018085695
-0.0028192608
-6.0952496E-4
0.0011151213
0.002407668
0.0019449731
-2.71223E-4
7.924122E-4
0.001855572
0.0014549637
0.0020458947
0.0010595456
5.4671953E-4
0.0012188413
0.0013058706
0.0014842672
-5.8691157E-4
-0.0014600526
0.0019186197
0.002623413
-3.3881547E-4
-8.351889E-4
6.559316E-4
-0.0010829988
-0.0029095914
-9.071088E-4
-0.0010853601
-0.0024867137
-3.6769747E-4
7.8304455E-4
-1.28020165E-5
-3.24348E-4
-2.937687E-4
-3.7993022E-4
-0.001218376
-0.0011741898
2.0573101E-5
0.0013775907
0.0017925951
3.249626E-4
7.214393E-4
0.0012076292
-7.185789E-4
-7.5409E-5
4.9288E-4
-2.9518863E-4
2.2979199E-4
-0.0010424703
-0.0011082443
7.516101E-5
-6.970397E-4
5.917267E-4
0.0012139695
2.413548E-4
6.9182576E-4
-6.178688E-4
-7.01042E-4
0.0010791749
4.4777812E-4
7.512041E-4
0.0013409429
2.7928135E-4
7.4955355E-4
7.251658E-4
-9.116124E-4
-0.0012404877
-0.0010133953
-1.7748204E-4
0.001454359
9.647453E-5
-0.0031787234
-0.0034397196
-9.7348576E-4
0.0011998988
0.0019029465
0.0020665973
0.001036406
-9.1982674E-4
-0.0010032527
-9.194598E-4
-1.7759489E-4
0.0013151976
-4.6159598E-4
-6.5550295E-4
1.3070976E-4
-0.001913387
-3.831721E-4
0.0012820546
5.957223E-4
0.0011652868
1.327951E-4
8.447335E-4
0.0022008496
6.2026206E-4
6.4370694E-4
-2.1793575E-4
-0.0022945348
-0.0022345874
-4.9584534E-4
0.0021887291
0.0020645135
6.592621E-4
3.6357617E-4
-5.2897183E-5
-2.4909314E-4
-0.002349814
-0.0024563465
5.392667E-4
4.233912E-4
5.373133E-4
0.002085505
0.0015126991
-8.2667466E-5
-9.902517E-4
-8.641251E-4
-0.0017427953
-7.12979E-4
0.0026655497
0.001546487
-0.0012436212
-0.0018383422
-0.0016885762
-3.950145E-4
1.0206417E-4
-5.856773E-4
-0.0010993532
-2.0801337E-4
0.0019211263
0.0017532709
0.0012486076
0.0016601579
2.4940842E-4
-7.231769E-4
-0.0012467217
-0.0020876375
-9.7141997E-4
9.458473E-4
0.0013221219
-5.729797E-4
-0.0019435476
-5.087206E-4
0.0014256631
0.0021719905
5.4303213E-4
-0.0016989184
-0.0013207317
-4.5082014E-4
-3.7308031E-4
6.568919E-5
0.0012195373
0.0021672873
5.723317E-4
-0.0012866792
-9.7513245E-4
-3.416225E-4
0.0010318843
0.002442675
0.0021433034
8.94456E-4
-5.985583E-4
-1.8772311E-4
7.905895E-4
-9.3696744E-4
-0.0018283837
-4.2751106E-4
5.4660544E-4
7.3051656E-4
1.1382495E-4
4.744728E-4
9.170027E-4
-0.0017963595
-0.004317665
-0.004363379
-0.0030925598
-4.8344157E-4
0.0014957034
0.002099809
0.0017070665
0.0010804585
9.244991E-4
-7.4426E-4
2.5395657E-5
0.0037843324
0.002035561
-8.673535E-4
3.6323158E-4
-1.0755698E-4
-4.0349035E-4
8.9536293E-4
3.1051092E-4
7.477867E-4
0.0016521731
-2.7641774E-5
-3.4329866E-4
0.001930117
7.3487713E-4
-0.003820396
-0.004125265
-0.0010129618
4.8399932E-4
5.557366E-4
-0.0020787
-0.0044248556
-0.0011979367
0.0015692752
-8.925382E-4
-0.0027661612
1.7538974E-5
0.0032082358
0.0019810551
-2.4722818E-5
0.0010175111
0.002605808
0.0027541341
0.001478062
1.08077606E-4
-6.4384734E-4
4.5968455E-4
0.0034330809
0.002302298
-7.441609E-4
2.3816356E-5
-2.2069631E-4
-0.0011411057
-8.55632E-4
-0.0018315078
-6.195653E-4
0.0014077312
1.5365945E-4
-0.0019157492
-0.0024821928
-0.0013696931
-0.0016534703
-0.0028360148
-0.0011140191
7.820445E-4
0.0010186033
9.3255374E-5
-6.8426784E-4
0.0017845219
0.0035730028
0.0019812614
-6.490937E-5
-0.002368722
-0.0013661388
0.0024932397
0.0017756968
-1.7369262E-5
9.191624E-4
-3.164918E-4
-0.0013104937
-2.65118E-4
-0.001046975
-4.1698632E-4
0.0018703681
0.001476185
-7.478474E-5
-0.0027368541
-0.004464181
-0.0019371641
5.012655E-5
3.1415513E-4
0.0010721157
3.7533368E-4
-5.171812E-4
0.0012040286
0.0030605162
0.0014460722
-1.0631819E-4
9.002347E-4
6.341732E-4
7.949906E-4
0.0013796197
-5.7858205E-4
-9.1403536E-4
4.0376038E-4
0.0014400935
0.0017741199
-0.0011374565
-0.002124434
3.139504E-5
-8.684757E-5
4.289266E-4
6.449704E-4
-0.0012928495
-7.357914E-4
-8.998722E-4
-0.0029747896
-0.0022364834
-0.0011312634
-5.136141E-4
3.8650775E-4
-4.9268024E-4
-8.147872E-4
-5.222697E-5
0.0010718214
0.0032990987
0.0025931785
8.474465E-5
-2.0231066E-5
-5.138807E-4
-0.0013035635
-8.7771984E-4
-3.0973615E-4
8.9814997E-4
0.0014058277
6.469921E-4
-3.0254608E-4
-7.7543576E-4
2.6819878E-4
5.5370823E-4
-2.697496E-4
3.0618382E-4
3.07366E-4
-5.0937786E-4
3.6386386E-4
0.0017462365
0.0020335584
0.0013466411
-1.1482566E-4
-0.0010096224
-4.0442985E-4
-0.0010469115
-0.0026700825
-9.026953E-4
9.863897E-4
-1.5734803E-4
8.5049105E-4
0.0025538965
6.6874764E-4
-3.6860624E-4
1.7371491E-4
-0.0014982257
-0.0026030743
-0.001228759
-8.7035674E-4
-0.0014273963
-7.2663336E-4
-2.1687496E-4
-6.342728E-4
-1.8002336E-4
0.0011338304
0.0011824375
6.190636E-4
0.0012156675
4.887491E-4
-0.0015663516
-0.0010365385
4.57077E-4
6.332358E-4
0.0014031805
0.001426396
-9.6837926E-4
-0.0015892142
5.711915E-4
0.0015015944
0.0015663854
9.5522037E-4
-7.480098E-4
-5.0600426E-4
1.8351103E-4
-1.1149518E-4
2.6586742E-4
2.970091E-4
-1.4245577E-6
-0.0015001002
-0.0022334438
0.0010334125
0.0018647866
-2.3371958E-4
9.4099727E-4
0.0013499066