8.54212E-4
-5.98942E-4
-2.9291346E-4
-0.0013603382
-8.785194E-4
2.7840486E-4
-2.422158E-5
7.1461656E-4
-4.795464E-4
-7.6607225E-4
4.3925576E-4
-4.3446405E-4
5.0945656E-4
0.0011875874
2.590428E-4
3.650024E-4
3.077128E-4
7.660554E-4
-5.583317E-4
-0.0014069462
0.0011071657
-9.022795E-5
-0.0012593474
0.002342649
0.0033525352
0.0015431131
-3.8476483E-4
-0.0012926181
3.9637383E-4
3.5393893E-4
-0.0016019233
-0.0017469043
-0.0012851962
3.210943E-4
0.0016539069
-0.0010823646
-0.002198104
0.001358619
0.0021950933
8.3174085E-4
8.159243E-4
-8.9205144E-4
-0.001391302
6.6748034E-4
6.249644E-4
2.7766151E-4
3.1940246E-4
2.0192956E-5
1.2447275E-4
-0.0018974007
-0.0023779187
-9.4772555E-4
-0.0020962951
1.3049845E-4
0.0035172177
0.0017988418
8.6967053E-4
9.466126E-4
-6.0371196E-5
-8.4188953E-4
-0.0020118786
-0.0021206434
-0.0024797611
-0.002309948
5.169027E-4
0.0018018471
9.6013234E-4
3.0147301E-5
2.2460183E-4
0.0011573457
4.314569E-4
6.222537E-4
8.791751E-4
-4.439559E-4
3.139392E-4
7.821537E-4
6.200954E-4
0.0011232374
-8.401012E-4
-0.0021714154
-0.0015356482
-0.0011961083
2.6087684E-4
0.0017505309
0.0024679215
0.0032006227
0.0021789523
-9.902426E-4
-0.0029233187
-0.0019540873
-1.7669995E-4
0.0014653155
9.79891E-4
-0.0011889265
-7.4249425E-4
2.6356516E-4
5.9778837E-4
0.0011717238
-1.3108274E-4
-0.0010642408
-6.917567E-4
-1.0234594E-4
6.78334E-4
2.6820962E-5
-9.1093313E-4
-0.001388664
-2.6306807E-4
3.1270058E-4
-0.00308723
-0.0014915154
0.0040373616
0.0028829006
-3.848463E-4
-0.0024902737
-0.0025952628
4.5456854E-4
0.0010057339
0.0010891709
0.0021065995
2.8634554E-4
-9.6988387E-4
-8.4600545E-4
-8.993856E-4
-4.996979E-5
2.3679395E-4
-2.5159266E-4
2.4086423E-4
7.8028464E-4
5.932445E-4
0.0014743636
0.001560834
-2.1728729E-4
1.9153798E-4
2.2456665E-4
-0.0016267688
-0.0011324054
-4.714483E-4
-2.8243085E-4
1.605625E-4
-9.86764E-4
-0.0011610974
8.280073E-5
8.520883E-4
6.166919E-4
4.011031E-4
0.0016771856
3.7991846E-4
-0.0019156727
-3.0553772E-5
7.3459395E-4
-5.3713005E-4
2.967924E-4
0.0011517064
0.0012278444
0.0011637575
5.166821E-4
-9.3016546E-4
-0.0021082896
-6.419579E-4
9.230823E-4
2.053033E-5
-3.848204E-4
1.4833914E-4
2.8431665E-5
-4.5646043E-4
-6.3140696E-4
5.517067E-5
-1.66872E-4
-0.001468904
-9.7299344E-4
8.6753644E-5
7.852358E-4
0.0020476044
0.0013097479
-3.3761217E-4
-4.8799167E-4
-9.2156266E-4
-0.001080752
-8.360188E-4
-7.9556316E-4
-1.9437712E-4
2.729005E-4
0.0010767757
0.0011488337
6.628338E-4
0.0015553066
4.60679E-4
-0.0014538871
-0.00163415
-0.0015346075
8.837855E-4
0.001866229
-2.4924142E-4
4.363865E-4
8.205198E-4
-4.513964E-4
6.788903E-4
0.0018979573
6.4544426E-4
-0.001675274
-0.0012955429
0.0012224333
0.0017621601
8.6401985E-4
-7.8310014E-4
-0.0014457363
-4.371386E-5
-1.8399905E-5
-4.0219072E-4
7.2485884E-5
-2.5615963E-4
-8.2785013E-4
-0.0017944109
-0.0022996701
-0.0013477117
4.3914843E-4
0.001576373
-1.5681902E-4
-9.6381345E-4
8.796652E-4
3.953824E-4
-3.203936E-4
8.476421E-4
7.746936E-4
5.4793566E-4
2.549118E-4
-0.0012103752
-0.0016575782
-0.001243481
-9.887626E-4
1.6589634E-4
0.0017627126
0.0020462603
0.0014370624
0.0012967733
0.0012119005
0.0018115633
0.003073884
0.0015633561
-0.0013349621
-0.0011610166
-5.0671824E-4
-0.0017875063
-0.0014686884
3.3222509E-4
4.5125178E-4
8.1122154E-4
0.0012132486
-9.070974E-4
-0.0012927466
3.0976918E-4
-1.9083043E-4
-2.248605E-4
-8.9625857E-4
-0.0034836372
-0.0027864499
-3.7315054E-4
5.0323993E-5
-8.7351643E-4
-0.002229783
-0.0014168817
0.0010166708
0.0015317919
-2.8696482E-4
-0.0013145116
7.4153783E-4
0.0017890648
0.0013052644
0.0033987714
0.0039445986
0.0010957232
-0.0011406337
-0.0019723538
-5.519205E-4
8.745288E-4
8.7958365E-4
0.001569318
2.847658E-4
-0.0011666706
2.8695673E-4
5.9951295E-4
2.9806542E-4
1.07462474E-4
-0.0012354822
-0.001197848
-6.246981E-4
-3.862072E-4
-5.3583767E-4
-0.0016955797
3.3093788E-4
0.0032326072
0.0015490424
2.3318283E-4
5.2951695E-4
-3.5874822E-4
2.6409503E-4
3.1517792E-4
-0.0017493366
-0.0016905053
-0.001302707
-0.0015029619
-4.531981E-4
-8.644196E-4
-9.863675E-4
4.0937163E-4
0.0010360582
0.0023678432
0.001851404
-2.2582171E-4
5.5615633E-4
6.2587974E-4
-0.0019206046
-0.005616908
-0.0063144304
-2.573815E-4
0.003949784
0.0032307974
0.0028686184
0.00175728
0.0012437652
0.0013308764
2.0535522E-4
2.8193466E-4
0.0012651823
0.0023415894
9.237458E-4
-0.0026190095
-0.0026744218
-0.0018526127
-0.0021155553
-0.0010181619
1.6931126E-5
9.750668E-4
7.463574E-4
-5.0154823E-4
3.0276304E-4
0.0010163181
2.0253488E-4
-0.0011002556
-0.0023421764
-0.0015733222
3.8008E-4
0.0010563892
5.013618E-4
4.2610746E-4
0.00160101
0.0021717683
0.0014205953
4.923595E-4
2.8878904E-4
0.0011249839
0.001797197
0.0013584705
-3.3737597E-5
-0.0018303135
-0.0027578908
-0.0012128627
0.0013409858
1.9463904E-4
-0.0018450558
-2.8757675E-4
-4.4520976E-4
-0.0013851627
-1.0361542E-4
-0.0016545025
-0.0016521208
7.0780655E-4
-0.0014172059
-0.0013798748
0.0010491809
-5.3642623E-5
2.4425972E-4
9.935342E-4
9.59606E-4
0.0018798396
9.027999E-4
0.0015868605
0.002280875
-0.001520477
-0.0018157737
0.0020698423
0.0026948424
3.6035318E-4
-0.0016724436
-0.0017242365
-1.824652E-4
3.8199814E-4
-0.0015728638
-0.0022068645
-1.7595652E-4
-1.6133348E-5
1.770135E-4
0.0011380132
9.0227794E-4
0.0019486338
8.6924405E-4
-0.0012404524
9.6237374E-5
-1.3455788E-4
-5.6957075E-4
9.735241E-5
-0.0011730343
-5.019726E-4
6.6001643E-4
4.5218685E-4
0.0012609701
0.0013097139
0.0011480828
3.1903092E-4
-8.619201E-4
1.20785015E-4
-7.119106E-5
-7.975867E-4
-6.7638746E-4
-0.0018370291
-0.0017927187
-0.0016370076
-0.0021610796
-8.229342E-4
6.06913E-4
0.0027345866
0.0032073401
-1.18131225E-4
-5.8712296E-5
0.0021064752
0.0016161904
7.38032E-4
-0.0014270176
-0.0025003364
-5.706445E-4
-7.0624135E-4
-0.0013962495
4.789241E-4
0.0018080459
9.780803E-4
-7.843549E-5
-5.7168194E-4
-0.0014727768
-0.0013897408
-9.690601E-4
-0.0020725527
-0.001896035
-6.221985E-4
2.2330605E-4
0.0011884841
0.0018576334
0.0032665983
0.0035318108
0.00236793
0.0022556118
7.623997E-4
-2.439316E-4
8.2494394E-4
1.9170168E-4
-8.0121023E-4
3.5987166E-4
0.0030820377
0.00333457
1.154476E-4
-0.0029655525
-0.0052349786
-0.0028035233
7.82881E-4
-8.9402596E-4
-5.1948946E-4
-0.0011647309
-0.00491339
-0.0030878896
-0.0022270358
-0.0031839428
-6.8897E-4
3.302136E-4
9.276643E-4
0.0013611485
0.0010514037
0.0018077526
9.911554E-4
0.0013220632
0.0029344829
0.0017249112
4.6166146E-4
9.096737E-4
0.0018067735
0.0016220461
7.8158954E-4
6.9241715E-4
0.0011409426
0.0020252482
4.0477855E-4
-0.0019905213
-0.0013377422
-0.0020893686
-0.0031764093
-0.0012166061
3.3299273E-4
8.691648E-4
0.0014639457
0.0015843936
-2.861107E-4
-0.0030298273
-0.0023639954
-6.643081E-4
-0.001474161
-8.653757E-4
0.0020447478
0.0014494417
-8.9215406E-4
1.6888561E-4
2.4848877E-4
1.003919E-4
0.0022603977
0.0017986733
0.0018034617
0.0026181908
0.0018097562
0.0032988675
0.0011662749
-0.0042589675
-0.0038610613
-0.0017995499
-0.002031414
-0.0022745081
-0.0011930667
-7.285546E-4
-0.0020103573
-6.5502716E-4
5.8280124E-4
-3.8153498E-4
9.4788056E-4
0.0013252393
-5.279543E-4
-0.001393654
-9.657213E-4
-3.4143956E-4
-4.7609245E-4
7.0591137E-4
8.4451964E-4
-6.0512405E-4
1.22709E-4
3.7882483E-4
0.0013293965
0.0023910494
0.0020866215
0.005011641
0.0056182523
0.0037305064
0.0027095068
-0.002910746
-0.004860982
-8.526007E-4
-8.628891E-4
-0.0013084951
-8.2949555E-4
-0.0019822486
-0.0024194147
-0.0019805243
-7.6234277E-4
-8.652807E-4
-0.0012876174
0.0013485511
0.0024638174
5.3297984E-4
-9.527652E-5
-1.3068026E-4
-3.9562563E-4
0.002024967
0.0042948183
0.001563483
-0.0014195407
-6.5064593E-4
4.492887E-4
2.902448E-4
-2.2834878E-4
-6.2793616E-4
-0.0016888699
-0.0022555043
-6.590917E-4
-8.9699344E-4
-0.0020295265
1.3633688E-4
7.839061E-4
-7.7961176E-4
-6.286421E-4
-8.6678326E-4
-0.0016204036
-0.001355666
-6.0611265E-4
2.99304E-5
-0.0010700173
-0.0018162358
-2.256179E-4
-4.011411E-5
-0.0011155708
8.5371794E-5
0.0028010088
0.0039474787
0.0027293544
0.0021261496
0.0019116645
-1.164813E-4
-0.0014695907
-0.0012432361
6.5679953E-4
0.0034554165
0.003644483
0.0024912376
6.0311507E-4
-0.001722765
-0.0014541849
-9.095991E-4
-1.9194775E-4
0.0029225862
0.0058231964
0.004747267
-6.7655527E-4
-5.5639184E-4
0.006217877
0.004927478
-0.0029333776
-0.0077848146
-0.009676309
-0.007901711
-0.0051144115
-0.004482715
-0.00339626
-0.0017832082
-0.0015190479
-0.001978444
-0.0012881601
1.20612836E-4
0.001297698
0.0020990763
0.0010174653
0.0010283771
0.0038894708
0.0041569946
0.0024668684
8.365624E-4
-0.0029828914
-0.0037343593
5.661078E-5
0.001441267
0.0017902257
0.003660574
0.0048272
0.0045234836
0.0025639057
0.0015546964
-2.878723E-4
-0.0040314193
-0.0034739692
-0.003601053
-0.004455874
5.2603707E-4
7.254105E-4
-0.0023371307
-3.7403966E-4
3.009587E-4
0.0015360609
0.0032086594
0.0051432806
0.010431801
0.007633793
-0.0017122843
-0.0072305636
-0.009250472
-0.002885397
0.0061885845
0.004678687
-8.7790086E-4
7.8681234E-4
0.0033616717
-0.0018960659
-0.0064142956
-0.0069135404
-0.00781022
-0.0037768208
0.0016376815
0.003923211
0.0037957919
-0.0010725327
-0.0021311727
5.2764756E-4
-9.202311E-4
-0.0023021267
-0.002965386
-0.0022849543
-0.0012805366
-0.0019107584
3.229906E-5
8.375851E-4
0.0011106648
0.003122244
0.0020903992
0.001686222
0.002337783
0.0026895474
0.0035966944
0.0024579973
0.0017350067
1.2687089E-4
-5.745251E-4
0.001871738
1.9514139E-4
-7.6167664E-4
4.4740445E-4
-0.0016376884
-7.1364734E-4
0.0030464465
0.0050806487
0.005044861
0.0057151876
0.0052467445
-0.0058581466
-0.01534777
-0.010841341
-0.0048729368
-0.0011359191
0.0031319156
0.006763802
0.008729638
0.006466518
0.0017304461
-0.006936407
-0.014513051
-0.012031653
-0.008339288
-0.006691401
-0.0021319906
1.6162118E-4
3.8672093E-4
0.0059256637
0.014751019
0.015356272
0.0056181853
-0.0048538707
-0.010812279
-0.011393319
-0.007915544
-0.0020704395
0.0048003127
0.0077294298
0.008002558
0.0119607765
0.015819572
0.013940186
0.011400863
0.007724205
-0.0031448556
-0.0104649905
-0.008611952
-0.007264825
-0.005802539
-0.003693752
-0.003455696
-0.0036664426
-0.0060515325
-0.007220155
-0.0059434227
-0.005583184
-0.003190607
6.834234E-4
0.0022579944
0.0012366249
-1.5020925E-4
-5.1712175E-4
-0.0011231285
-4.0390162E-4
0.002113381
0.0042685163
0.0041373586
0.0012381742
-9.233809E-4
-0.0025281943
-0.0029836388
6.504887E-4
0.004625368
0.0064191655
0.003653585
-0.0024866886
-0.0029258234
9.3366887E-4
8.8704564E-4
-0.0018182717
-0.0014715651
-9.117344E-4
-0.0044786907
-0.005512462
-0.0037372217
-0.0036668922
-0.0023111347
-2.022305E-4
0.0049617174
0.01269695
0.016734121
0.020728394
0.023519306
0.021142036
0.016395384
0.006296385
-0.010032682
-0.025221555
-0.028717937
-0.021359775
-0.019759834
-0.022535117
-0.0150706405
-0.001456979
0.009702857
0.015060707
0.012467964
0.009100554
0.008688337
2.9896153E-4
-0.018096281
-0.03218787
-0.033175286
-0.024809226
-0.014736776
-0.0044539203
0.0057457923
0.010658466
0.014610184
0.024432624
0.035499215
0.04208476
0.042752877
0.039979003
0.030232929
0.009484857
-0.007458618
-0.011137706
-0.00866992
-0.0040359166
-0.002522705
-0.0066041257
-0.010451044
-0.013395979
-0.019203072
-0.027180815
-0.032266334
-0.030727187
-0.021425448
-0.0107428115
-0.010875323
-0.01856367
-0.02364339
-0.026431754
-0.024629718
-0.020013545
-0.018255033
-0.009501427
0.010259928
0.028151283
0.040896438
0.05147754
0.05459048
0.050465297
0.04330103
0.03084884
0.019042052
0.012105537
0.0049810316
0.009831361
0.027125236
0.026774643
0.007044291
-0.009995091
-0.025480311
-0.0426892
-0.051183466
-0.045729443
-0.029804986
-0.011368277
0.0035136894
0.009970955
-4.0921028E-4
-0.018483452
-0.024296302
-0.0218567
-0.020590538
-0.017527707
-0.0084149325
0.006655026
0.014014224
0.012102538
0.012388927
0.007988315
0.010281745
0.032656826
0.04579827
0.038723584
0.02791617
0.01654247
0.007002105
-0.0030499306
-0.011596666
-0.004793369
0.0068687326
0.0029414594
-0.017019495
-0.044391707
-0.06923934
-0.08886459
-0.10049378
-0.09042761
-0.05722808
-0.021291982
4.5786105E-4
0.029842228
0.087750696
0.12457571
0.10944908
0.084366016
0.06146546
0.03625757
0.022925107
0.014859457
0.013393055
0.026427884
0.05162767
0.07130768
0.034579124
-0.042151872
-0.07076814
-0.0612047
-0.075945616
-0.08509635
-0.06026092
-0.04992248
-0.05387969
-0.026252309
0.008889583
0.01795785
5.3516205E-4
-0.03992295
-0.06107944
-0.044618342
-0.030694727
-0.025553811
0.001687583
0.06870503
0.13014461
0.13381158
0.13116111
0.14916375
0.14414667
0.1300361
0.10680694
0.050038133
-0.025787124
-0.12293862
-0.20421578
-0.21356392
-0.1799176
-0.13498192
-0.10160604
-0.11742603
-0.15434517
-0.15595743
-0.10340237
-0.011630634
0.07524926
0.1287349
0.15908067
0.16690205
0.12966038
0.05618738
-0.0019318796
-0.0017295618
0.052965682
0.09875564
0.07938415
0.0493665
0.09643219
0.17271611
0.18025449
0.12213319
0.028371396
-0.04120596
-0.024138099
-7.4303045E-4
-0.018023072
-0.03396184
-0.08764465
-0.1776358
-0.26491442
-0.33048767
-0.30713362
-0.21886164
-0.12505527
-0.012538255
0.06709438
0.05348267
-0.018988345
-0.043984354
0.035956196
0.13645414
0.2016875
0.22938706
0.19705705
0.1490293
0.100850224
0.026111405
-0.010505343
0.016481897
0.02513671
-0.0023316005
0.004728359
0.044412248
0.062925495
0.0728607
0.065107234
0.025859633
0.0044654687
-0.033937283
-0.13169459
-0.20699586
-0.2313802
-0.23526244
-0.18531327
-0.08735682
-0.012169488
0.021186536
0.025856087
0.010308138
0.020881282
0.07116717
0.101862
0.092345096
0.06310446
0.037916303
0.047282513
0.060576156
0.037982684
0.0148986075
0.015282524
0.02095774
0.018436717
0.007279899
0.00715552
0.025380962
0.03261234
0.01310883
-0.014461483
-0.040656086
-0.056685902
-0.040207032
-0.010589534
0.002750253
0.0060571223
-0.002995646
-0.01546182
-0.014987177
-0.014290674
-0.012390386
-0.0056664017
-0.004753674
-0.0072978064
-0.011300413
-0.017006774
-0.022613188
-0.022955038
-0.014569522
-0.006746244
0.0012038352
0.008591019
0.009036053
0.011554406
0.010653127
3.624873E-4
-0.0061957855
-0.0059951306
0.004178269
0.01740185
0.01711235
0.015324845
0.020268476
0.020528715
0.017201314
0.013532329
0.011511702
0.013740992
0.009913164
2.1805742E-4
-0.004684006
-0.0073260604
-0.0072371275
-0.004212423
-0.0040144282
-0.004164233
-0.0051455977
-0.006434017
-0.004618734
-0.0046375496
-0.0050762217
-0.0036001415
-0.0046731755
-0.007128524
-0.0094122905
-0.010177544
-0.006765869
-0.0026863932
-0.0016558043
-0.0012601855
7.556786E-4
0.0028758496
0.0033845357
0.0026327677
0.003192736
0.00528783
0.005360595
0.004309107
0.0046993922
0.005272859
0.005068282
0.004315369
0.0049235406
0.006979971
0.008066671
0.006482478
0.0012332285
-0.0024175555
-0.0033749891
-0.006896762
-0.006407356
-0.0018676451
-0.002214359
-0.001053229
0.003764562
0.003936831
-0.0021758317
-0.011172878
-0.014547439
-0.010769644
-0.0080626635
-0.0068381433
-0.004538757
-0.0011685219
0.0035668125
0.0072049894
0.007679835
0.0051509207
0.0016140883
-4.4697612E-5
-2.988156E-4
-9.3113474E-4
-0.0015408027
-0.0011932681
3.468839E-4
0.0028173535
0.0038766586
0.0019503626
2.477736E-4
4.3439516E-4
6.3174596E-4
-1.3251735E-5
-0.0010473613
-5.7473854E-4
6.195422E-4
6.126812E-5
-9.851999E-4
-0.0012296987
-3.2955862E-4
6.3940074E-4
4.094854E-4
4.2920146E-4
-5.140762E-4
-0.0019765322
-3.042452E-4
0.0020875672
0.0022153354
0.001635207
0.0018989242
0.0019963898
4.232409E-4
-3.8988137E-4
5.21378E-5
-0.001268324
-0.0027396644
-0.0025520474
-0.001191596
8.373142E-4
5.259248E-4
-9.677426E-4
4.7106258E-4
0.0024925882
0.0031971417
0.002729331
-3.2439583E-4
-0.00300407
-0.0032687946
-0.002252533
-1.8517363E-4
-2.789655E-4
-0.0014414213
-4.3577777E-4
-6.3305465E-4
-0.0012794085
-1.3360924E-4
8.7197986E-4
0.0011328353
-9.1615244E-4
-0.0031886578
-0.0020591721
-5.7857786E-4
-6.0106616E-4
-6.813556E-4
-2.81492E-4
-1.6458106E-4
-0.0010471244
-0.0013152657
-3.5095852E-4
9.501632E-4
9.6220314E-4
-2.0977143E-4
5.2767934E-4
7.452472E-4
-3.6519443E-4
0.0016575239
0.0025453048
2.6033254E-4
6.184193E-4
0.0015918092
8.5211644E-4
0.001745155
0.002885915
0.0019628305
0.0011432222
6.031851E-4
-9.2408806E-4
-6.343258E-4
0.0014421985
8.65E-4
-4.5650871E-4
2.7521217E-4
-2.2707766E-4
-0.0022626277
-0.0032006828
-0.0027550184
-0.0023066595
-0.0033930677
-0.0042000036
-0.0032433635
-0.0023318648
-0.0015020679
-2.2477556E-4
0.0010757606
7.3445245E-4
-0.0014080307
-2.2697804E-4
0.0025078163
0.0010719129
-2.55995E-4
-7.216514E-5
-9.568783E-4
-3.9521718E-4
9.202471E-4
0.0012982708
0.0021316074
0.0028355676
0.0025518187
0.0021487565
4.8575897E-4
-0.002527377
-0.0011263109
0.0025737463
0.0016254757
0.0011274727
0.0012737727
-9.549098E-4
3.611575E-4
0.0024251295
0.0023929041
0.0022224674
-7.2249427E-4
-0.0020996286
-1.7529516E-4
3.840073E-4
5.464194E-4
4.4845993E-4
-2.3751387E-4
-0.0014478131
-0.0025407816
-0.0030000329
-0.00438818
-0.002100468
-3.0751423E-6
-0.004342054
-0.0037162201
-1.402941E-4
-0.0019654392
-8.904846E-4
5.354523E-4
-0.0017765971
-0.0012213056
1.0025807E-4
-3.7477675E-4
-1.1540965E-4
9.272656E-4
0.0015559477
7.1064604E-4
3.6336144E-4
0.0020985815
0.0022254093
5.946843E-4
0.0014811195
0.0013452069
-6.325079E-4
0.001987201
0.0027625752
-9.444872E-4
5.726435E-4
0.0028512427
0.0012332791
-2.649876E-4
-0.0019703016
-0.0010982036
0.0015917256
0.0025238767
0.003213308
0.0012081874
-0.0011126284
7.657179E-5
-4.8181592E-4
-0.0014790237
-5.311791E-4
-0.0014103261
-0.0013672685
-1.391177E-4
-0.0020945813
-0.0034646355
-0.0027168104
-0.00273131
-8.3683326E-4
0.001910342
6.027555E-4
-0.001737166
-7.3991145E-4
9.656426E-4
3.207442E-4
-8.892873E-4
-0.0010056248
-8.6258753E-4
-3.1034055E-4
0.0013285257
0.0029271662
0.0017898675
-9.515604E-4
-3.81177E-4
0.0019430245
0.001392749
-4.186315E-4
-6.835336E-4
2.314733E-4
8.89578E-4
0.001549179
0.0021564718
5.68946E-4
-0.0015345942
-0.0017448035
-0.001818672
-0.0012940603
6.815869E-4
0.0015811467
0.0013514034
0.001087966
-1.6723125E-4
-4.916492E-4
0.001178558
0.0017816757
0.0021578583
0.0024635622
-1.7475193E-5
-0.0013987354
-7.172766E-4
-0.0021830318
-0.0021118643
4.4649438E-4
2.8816676E-5
-0.001272572
-0.0015082632
-0.0023641614
-0.0012389828
-2.7099953E-4
-0.0013378644
8.968899E-4
0.0022570533
-0.0011121016
-0.0019517764
-7.266524E-4
-4.8197366E-4
5.220367E-4
-2.3042315E-4
-0.0018219203
-3.809169E-4
0.0011392626
0.0011976251
0.0027137662
0.0033793394
0.00137495
0.0011588677
1.7262538E-4
-0.0032122955
-0.0014002908
0.0015867751
6.550384E-4
0.0014600899
0.0022354012
0.0018009932
0.001639477
-8.6689333E-4
-0.0013594948
2.7150477E-4
-8.1306614E-4
-4.8440034E-4
4.065917E-4
-0.0013458917
-9.5479004E-4
5.7517056E-4
-5.1442516E-4
-0.0013700294
-7.4902916E-4
-4.3012283E-4
-9.093595E-4
-7.3729607E-4
0.0013184217
0.0022695686
4.474472E-4
-0.0014301233
-0.0022891855
-0.0022333076
-0.0019202334
-0.0013333322
4.4143747E-4
7.4474997E-4
8.067812E-6
9.963089E-4
0.0015001643
0.0019206242
0.0018083073
-0.0013243872
-0.0019968718
8.1742025E-4
0.0012050424
5.9612084E-4
6.461706E-4
5.694272E-5
5.3168257E-4
0.0011903804
5.697054E-4
4.9903715E-4
1.6987602E-4
-8.8883785E-4
-1.381479E-4
0.0017136687
0.0018201859
1.5296218E-4
-9.6135115E-4
-0.0014995945
-0.0033751302
-0.003422281
-3.5999133E-4
5.4936794E-5
-0.0011726579
3.8068517E-4
0.0011941371
-6.072614E-5
-2.9278657E-4
-1.1056164E-4
3.293214E-5
3.507762E-4
5.2740774E-4
0.0024913205
0.004308497
0.0032127812
0.0015930155
-8.1018533E-4
-0.0019033182
7.57849E-4
1.6947987E-4
-0.0026203475
-0.0012767924
-2.7583385E-4
-0.0014227165
-0.0021365767
-0.0015562881
-5.1956344E-4
-0.0019435288
-0.0015082281
0.0024054921
0.0024811684
-4.881241E-4
-0.0026495052
-0.002903498
-8.588253E-4
-4.3082237E-4
-9.171824E-4
3.9334696E-5
7.9525584E-5
0.0010262927
0.0028247547
0.0026682834
0.0034856717
0.003153774
-2.3173798E-4
0.0017175362
0.0049989126
6.715609E-4
-0.0012272235
0.001072812
-0.0016424349
-0.0035321293
-0.0016404934
-6.121992E-4
4.674558E-4
2.6818665E-4
-0.0010861744
-0.0012995928
-0.0011166413
1.8844662E-4
0.0010747389
2.5161792E-4
7.708976E-4
7.2518433E-4
-0.002070254
-0.0019335105
-1.5908375E-4
-0.003283048
-0.00420436
-1.9508353E-4
3.0486053E-4
-8.673704E-5
6.031543E-4
-8.283868E-5
0.0012687771
0.002669855
0.002434441
0.0021972714
0.0010832888
4.735587E-4
-0.0014498965
-0.0035106374
-5.162523E-4
0.0025230702
0.0016565147
8.668395E-4
0.0012445506
-6.4895554E-5
-0.0019218877
-5.641312E-4
-4.8791648E-5
-0.0013229366
1.8727157E-4
5.8363297E-4
-8.8827236E-4
-2.9435114E-4
9.018524E-4
7.376055E-4
-5.8440707E-4
-2.8181198E-4
6.783647E-4
-4.0076525E-4
-8.545117E-4
-1.1207439E-4
7.333534E-4
5.486833E-4
7.8929974E-5
0.001696033
0.0012435206
-6.6618086E-4
-9.3491304E-5
-3.6998847E-4
-3.7259277E-4
8.4318366E-4
3.8225518E-4
-4.68014E-4
-4.409115E-4
-2.7747167E-4
-0.0020665196
-0.0033230502
-0.0013658106
-8.08274E-4
-3.1597805E-4
0.0010212201
-7.2113145E-4
-9.813998E-4
6.164765E-4
2.796654E-4
0.001194518
0.0021070032
0.0011106172
0.0014211485
0.0012301519
-4.366449E-4
1.8698366E-4
5.1926484E-4
-0.0011025467
-3.509191E-4
4.3314646E-4
-3.5183434E-4
1.706049E-4
-2.8035152E-4
-9.144222E-4
-1.9790075E-4
-8.6018856E-4
-5.361172E-4
0.0014420231
0.0013242515
-1.7210505E-4
-3.8322262E-4
2.4149426E-4
-4.2883403E-4
-4.3878955E-4
0.001349315
0.0011071531
-9.586578E-5
2.50898E-4
9.665462E-4
0.0015532764
8.9106E-4
-2.7740793E-4
-4.2556695E-4
-2.3349942E-4
4.0929885E-6
-0.0010323295
-0.0018748391
-6.669884E-4
3.7882004E-5
9.1751426E-4
0.0013475878
-6.5280334E-4
-0.0016251901
-0.0018046635
-0.0015942012
1.14811424E-4
-6.04856E-4
-0.0014982279
6.8478234E-4
0.001408069
1.4807069E-4
-7.9454895E-4
-7.227473E-4
-1.0726461E-4
-2.9172565E-4
0.001010863
0.002085771
2.0741478E-4
2.097132E-4
0.001025237
5.1163975E-4
0.001272726
-5.0061804E-5
-9.363788E-4
0.0016934907
8.5487135E-4
-7.692429E-4
6.144619E-4
7.7396823E-4
4.8203886E-4
-4.9544405E-4
-0.0012693347
-6.8318666E-5
-9.618368E-4
-0.0019009982
-2.9383623E-4
2.1837914E-4
-2.806215E-4
-6.224649E-4
-7.4425206E-4
-2.9198293E-4
5.4712297E-4
0.0010430067
4.13607E-4
4.52571E-4
8.7439193E-4
5.962086E-4
6.769774E-4
-1.703961E-5
-1.3198373E-5
5.314942E-4
-0.0014391437
-0.0022886135
-1.9452562E-5
0.00199249
0.0011300071
-0.0010651901
-1.3772928E-4
0.0020155269
0.0021859768
8.524515E-4
-0.00209587
-0.0032155018
-0.0010034709
-3.9944312E-4
-0.0018815658
-0.0010019252
7.6989835E-4
3.947245E-4
0.0010471679
0.0011150746
-0.0013662035
-8.8207686E-4
6.2493706E-4
6.324596E-4
0.001396697
6.8728917E-4
-8.946503E-5
-5.69608E-4
-0.0020283589
-4.3237826E-4
9.175134E-4
-0.0013106624
-0.0025710978
-0.0019638562
-2.2773186E-4
0.0011643321
8.8595285E-4
0.0015858242
0.0029869638
0.0024583158
4.016105E-4
-8.791506E-4
-3.654815E-4
3.758051E-5
1.30954995E-5
0.0012468612
0.0019973845
5.542107E-4
-2.1087445E-4
8.63574E-4
0.0012843892
0.0014745427
0.0018612216
2.4682626E-5
-0.0028405008
-0.003118758
-7.8072323E-4
7.059827E-4
-1.26791165E-5
-1.350319E-4
2.380563E-4
-0.0011699431
-0.0026614456
-0.002153573
-4.15306E-4
-3.445762E-5
-0.0018929903
-0.0025476906
-5.0283136E-4
7.917825E-4
1.5481866E-5
2.645063E-4
0.0016725898
0.0013795561
6.838755E-4
3.60311E-4
-8.723167E-4
-0.00135459
-3.16239E-4
0.0012305598
9.328118E-4
-9.5005025E-4
-2.3631241E-4
9.768426E-4
0.0012401254
0.002353766
7.784978E-4
-0.0017412708
-0.0011191549
7.7209517E-4
0.0016843544
-1.1748624E-4
-8.312864E-4
8.701607E-4
4.044418E-4
3.4576864E-4
4.4849105E-4
-5.9247646E-4
0.001524041
0.0027368716
7.57493E-4
1.8616467E-4
-2.3778877E-4
-0.0013899911
-0.0012410798
1.5448228E-5
0.0010318712
3.4275977E-4
-0.0012894659
-0.0010240547
-6.201595E-5
-0.0013116299
-9.8648E-4
0.0010566732
-2.4639897E-4
-3.992393E-4
8.402356E-4
-0.0013802686
-0.0013790694
-7.8485504E-4
-0.0034021223
-0.001582086
0.0013625546
-4.1678976E-4
-4.578599E-4
0.0016466411
0.002096777
9.831323E-4
-0.0010353682
-9.754282E-4
5.8866723E-4
0.0010381226
8.8311464E-4
-7.534693E-4
-9.299609E-4
0.001428242
1.9961559E-4
-0.0010480386
0.0017182528
0.0025298207
0.0021432308
0.0019425565
-1.9251961E-4
-8.1596844E-4
-6.770584E-4
-0.0014673895
-4.1384625E-4
8.46819E-4
0.0010600043
4.7235153E-4
-4.313434E-4
1.04473074E-4
-8.683036E-4
-0.002345395
-8.03677E-4
2.3137857E-4
8.617967E-4
0.0012556688
-2.649614E-4
1.9228758E-4
0.0011883575
-5.775687E-4
-0.0029664692
-0.0038060164
-0.0010572949
0.0010744259
-9.4134756E-4
-7.8381307E-4
0.0016093592
7.763791E-4
-2.3285612E-4
0.0024972402
0.0051900498
0.0033827857
-4.3180343E-4
-0.0019313602
-0.002065882
-0.0024658602
-0.0014803042
-1.9147205E-4
-0.0012888361
-0.0012486752
9.029619E-4
2.6415597E-4
-8.2044804E-4
8.1707665E-5
-2.8196143E-4
-4.6055953E-4
-1.15413925E-4
-5.5908103E-4
4.2540245E-4
0.0012240652
7.310464E-4
1.136285E-4
-7.5745414E-4
6.988157E-4
0.0025709048
0.001510703
4.6868811E-4
1.258357E-4
7.2944845E-4
0.001693361
0.0011835087
0.0020156577
0.0017416864
-0.0014658716
-0.0020999738
-7.803411E-4
9.883933E-6
-4.3460622E-4
-0.0012363408
1.9266321E-4
1.8692459E-4
-0.0013933368
-0.0022659772
-0.004244091
-0.0027515457
0.0011629555
0.0010499364
6.735681E-4
6.130497E-4
-0.0015710698
-0.0013471403
0.0010814217
9.2021393E-4
-1.3384998E-5
0.0010971586
0.0020562187
0.0012982666
2.3904725E-4
5.559059E-4
6.3030253E-4
-2.2193552E-5
0.0014183949
0.0013601395
-0.0010434916
-9.812897E-4
-0.0016489096
-0.002410685
6.81316E-4
0.0026015607
0.0011312183
1.3234065E-4
6.101567E-4
-1.5070397E-4
-2.49062E-4
0.0015049034
-6.9089965E-6
-0.001502084
-7.620805E-4
-0.0010970352
-7.2256275E-6
-4.9766153E-4
-0.0024419192
-0.0013340557
-8.997804E-4
-9.697342E-4
-6.0680666E-4
2.1211091E-4
0.0017437604
7.852673E-4
2.0631615E-4
1.3650383E-4
-4.6334576E-4
0.0018077795
0.0026893255
0.001462053
0.0014208828
8.194056E-5
-0.002211862
-0.0016731158
0.0018868976
0.0030463967
0.0015566665
9.6731185E-4
-2.782781E-4
-3.8196947E-4
8.037513E-4
2.1463465E-4
-6.8775914E-4
-0.0010297196
-6.532935E-4
-9.111716E-4
-0.002035171
-0.004080851
-0.0077225138
-0.005875535
3.407236E-4
0.0020482256
0.0013009387
0.0015085592
0.0030569758
0.0037613919
0.0015878254
-3.7427704E-4
-4.587736E-4
0.0011998751
0.0017537911
0.0011371276
0.0020297107
0.0011908172
1.5759737E-4
4.2331222E-4
5.3132044E-5
3.950522E-4
-0.0010357344
-0.0013968529
4.7492716E-4
-6.2144524E-4
-3.4848312E-4
6.672407E-4
-5.3266773E-4
-7.428243E-4
-7.901736E-4
4.4602822E-4
7.178766E-4
-0.0011547406
-1.6230777E-4
3.505912E-4