4.5858583E-4
-0.0019683733
-0.0010139459
-4.5599186E-4
-6.1081065E-4
0.0011614236
0.0014157958
1.1626947E-4
1.5424925E-4
0.0010248045
0.0020988514
0.0031634506
0.0026094562
4.0720208E-4
-0.0013744299
-0.0019623032
-0.0018877039
-0.001634174
-7.258586E-4
-1.5379312E-5
-0.0014883716
-0.0018111124
1.905292E-4
-7.5964676E-4
-0.00213288
-4.2863056E-4
6.203796E-4
0.0015553603
0.001080433
-0.0021554495
-0.0014095398
-1.941415E-5
-0.002680597
-5.699458E-4
0.003601063
0.0015071576
-1.798714E-4
7.2482374E-4
7.049477E-4
0.0016675045
0.001913008
4.1380146E-4
-3.531031E-4
-7.2743354E-4
-7.1547687E-4
2.1365564E-4
0.0021306388
0.0025452673
-9.4488356E-4
-0.0028166086
-8.290141E-4
1.8699422E-4
3.4713437E-4
7.1401376E-4
0.0012335395
0.0019288589
0.0012681305
2.374002E-4
-0.0010301396
-0.0016134724
-2.5018284E-4
-0.0011805305
-0.0015025405
9.262323E-4
-0.0011462892
-0.0026907693
-7.5104464E-5
-9.208933E-4
-0.0023762737
-0.0025232644
-0.0035529817
-0.0021773241
-0.0015626025
-0.0031409098
-0.0017508289
4.4226827E-4
-1.7726398E-4
-6.865188E-4
0.0021232336
0.006365347
0.0075033125
0.0041933856
6.4468995E-4
2.7448183E-4
0.0011860755
0.0026522728
0.0031856073
0.0023797743
0.004285918
0.004143342
9.012052E-4
0.0027309463
0.0047082948
0.0013043577
-0.0037894608
-0.0065951175
-0.0050199484
-0.004759756
-0.0070899143
-0.007222468
-0.0061797756
-0.0031287135
4.9474376E-4
9.95778E-4
-7.842518E-4
-0.003646859
-0.0033154737
1.08158456E-4
0.0013095642
0.0013246217
0.0017009318
0.0013270786
0.0011360894
0.0028682759
0.0036127802
0.0013528552
9.742583E-4
0.0025528683
0.003749048
0.0044162576
0.0033840802
0.0038727042
0.0038244424
-0.0011794313
-0.0048992094
-0.003505537
-0.0015017855
-0.0043202634
-0.0070384606
-0.0020787723
0.0015129851
-1.7240107E-4
5.7788426E-4
0.0014606538
6.8108836E-4
7.543327E-4
1.2142567E-4
-0.0010807654
-8.6843927E-4
2.6307095E-4
4.1638536E-6
-5.917589E-4
-1.372755E-4
2.52425E-4
0.0021974028
0.0033658845
0.0014183206
0.001344587
0.0014830957
-0.0015231908
-0.00272805
-0.0015461136
-0.0010919737
-6.096305E-4
3.346832E-5
-2.2175032E-4
-0.0011116144
-0.0010209698
7.78358E-4
9.632524E-4
-0.0010592841
-7.387112E-4
4.6647098E-4
-1.3632476E-4
5.6012924E-4
0.0010995871
-6.1274733E-4
-8.4971933E-4
8.660719E-5
-3.33981E-4
-4.233661E-4
1.7407368E-4
-9.3480677E-4
-0.0023339798
-1.7613584E-4
0.0020765655
5.406539E-4
3.8002807E-4
0.001966466
4.6944225E-4
-7.708337E-4
2.531511E-4
-3.8362696E-4
-0.0020819402
-0.0018467432
-4.373108E-5
0.0020273053
0.0031974323
0.0015658606
-7.382879E-4
4.6610425E-4
0.0023278403
0.0014275148
3.6078077E-4
8.4170816E-4
0.001281559
1.4473773E-4
-0.0014979215
-0.002287685
-0.0020095494
-0.0011321442
-0.0020272913
-0.0032144084
-0.0018527338
6.4259977E-4
0.002953796
0.0022714767
-5.096151E-4
-0.0011761807
-0.0010090371
2.191327E-4
0.0010844441
1.7409211E-4
9.6148107E-4
2.072263E-4
-0.0015645354
-5.228812E-4
-7.5954304E-4
-7.5858954E-4
2.181688E-4
-5.847872E-4
-2.4669885E-4
-3.0502668E-5
-3.600044E-5
0.0016229096
0.0011572572
-2.3956079E-4
2.999015E-4
7.8312116E-4
6.3133944E-4
6.292561E-5
-9.953122E-4
-0.0011895266
5.7185086E-4
0.0020699368
0.0012739546
5.8930897E-4
4.1359523E-4
-7.168048E-4
3.3775144E-5
0.0025058207
0.0024116654
2.7429234E-4
-0.0014602459
-0.0014857133
-6.2550756E-4
-0.001858897
-0.0025234404
-8.810663E-4
-4.7560444E-4
-2.1360243E-4
6.2217977E-4
3.754213E-4
1.9455706E-6
-2.4625397E-4
-7.669924E-4
-0.0019838838
-0.0019043008
3.2166904E-4
0.0011341755
0.0014164564
0.0013140772
-9.064429E-4
-0.0016649887
-5.605101E-4
8.5868005E-4
0.0022830362
0.0014840513
-4.2498787E-4
-5.7230645E-4
3.442777E-4
-1.6265229E-4
-2.1015797E-4
0.0014805701
6.018129E-4
-1.6968616E-4
0.0012473381
3.04853E-4
-7.5639175E-5
9.3682227E-4
6.150477E-4
-2.3622521E-4
-0.0022002596
-0.002109471
-5.017855E-4
-0.0015546564
-0.0011018021
0.0012219575
0.0014689219
7.2011846E-4
5.720196E-4
9.231243E-4
-2.2959287E-6
-0.0013343474
-6.7866687E-4
-2.927818E-4
-8.735015E-4
-3.361611E-5
0.0012108288
0.0015282969
0.0017169918
3.129605E-4
-0.0015071512
-4.017545E-4
-3.0946362E-4
-0.0019867355
-7.6755247E-4
5.2052527E-4
-4.494329E-4
-5.4355524E-4
4.2445582E-4
4.3175335E-4
5.176184E-4
0.0011370769
5.089437E-5
6.4190106E-5
7.685704E-4
-0.0012496274
-8.567841E-4
2.7443652E-4
3.3958125E-4
0.0025973467
4.0606663E-4
-0.0016893698
0.001980231
0.001967503
4.526101E-4
7.01171E-4
-0.0010085892
-0.0030747938
-0.0029962142
2.2782656E-4
2.455666E-4
-0.002166536
-8.5551303E-4
-0.0028788622
-0.0038908334
9.935177E-4
0.0019648585
0.0015073026
0.0019142153
0.0011148906
0.0013035497
1.08396496E-4
-1.7311053E-4
8.6913275E-4
8.494165E-4
0.002130063
0.0010253642
-0.001066221
1.5990295E-4
9.6958294E-4
0.0013268362
0.0010039192
-4.6882684E-5
-1.8040104E-5
-5.329492E-4
-1.0503299E-4
4.811234E-4
-2.211443E-4
-1.5787613E-4
-7.52384E-4
-0.0010357936
-0.0017812086
-0.003464612
-5.5876764E-4
0.0022077009
3.3604796E-4
-0.0011814989
-0.0020949168
-0.0021027827
-8.586369E-4
6.322047E-4
0.0025395886
0.0016307767
8.8507295E-5
1.632395E-4
-8.68553E-4
-1.5131127E-4
3.250465E-4
-0.0012792123
-2.2580115E-4
1.7371633E-4
-7.068851E-4
5.097101E-4
0.0018927745
0.002820382
0.0015683885
4.539798E-5
3.900295E-4
-6.519485E-4
4.7833569E-4
0.0021909776
-0.0010377005
-0.0023802505
-2.6958695E-4
-2.786E-4
-0.0011684493
1.3587614E-4
0.002057099
0.0013197953
-9.5984426E-5
-7.461188E-4
-0.0015323098
-9.287404E-4
-7.742468E-4
-7.8030827E-4
6.3019956E-4
4.3962192E-4
4.4602473E-4
6.02547E-4
-9.118594E-4
3.41341E-4
0.0020501683
4.970885E-4
-7.499373E-5
7.3492975E-4
3.569952E-5
-0.0013661077
-9.314529E-4
0.0010709488
7.525476E-4
-0.0012173695
-3.3605227E-4
1.8151423E-4
-0.0015780762
-3.0930183E-4
-1.3446003E-4
-0.0032455036
-0.0022988499
-6.5450993E-4
3.9664088E-4
0.0033400245
0.0022016217
7.497993E-4
0.0013760836
-8.707399E-4
-9.788249E-4
3.784864E-4
-1.4143536E-4
0.0010885834
0.001182259
-1.6158653E-4
8.398619E-4
7.999707E-4
-0.0010898312
-9.617544E-4
2.1101685E-5
8.126185E-4
0.0026892638
0.0021230765
2.972488E-4
0.0013885861
4.942739E-4
-0.0025836031
-0.00350858
-0.0026479904
-7.664602E-5
7.582831E-4
-4.5297953E-4
2.857725E-4
0.0011579135
0.0017509618
0.0015695606
-7.6995057E-4
-0.0014276085
-7.2797085E-4
-8.665153E-4
4.5299894E-5
3.421936E-4
-0.0015086741
-0.0022793887
-0.0011528238
-1.3119748E-4
4.7002544E-4
0.0014412577
0.0024592644
0.0011812644
-0.0013207078
-0.0010795374
-4.2483042E-4
-0.0012179536
-9.894845E-4
-1.8720236E-4
0.0011403528
0.0025068247
0.0021792683
0.0010526123
3.503285E-4
4.77195E-4
4.529443E-5
-6.2254356E-4
-3.5955774E-4
-4.0311425E-4
5.571081E-4
0.0010970478
4.8664756E-4
0.0019890708
0.0016778772
-1.8526496E-4
1.9380682E-4
-9.2869194E-4
-0.002224785
-0.0018369756
-0.0014784739
-7.770675E-4
-0.0018003114
-0.002492009
-4.2631102E-4
2.146063E-4
-8.706078E-4
-7.3743676E-4
0.0015315042
0.0028790527
4.68771E-4
-4.4126E-4
0.0016800753
0.0011708054
-9.2179654E-4
-8.101626E-4
3.4450318E-4
4.5262373E-4
-3.0532668E-4
-7.724397E-4
-6.1186287E-4
7.5511396E-4
0.0025349644
0.0023552277
0.0010258869
8.304638E-4
0.0015364758
8.28734E-4
-0.0012732137
-0.00194714
-0.0024817546
-0.002020448
0.0011619914
-5.6844647E-4
-0.005275503
-0.004038898
-0.0012568987
9.1919897E-4
0.0032684675
0.0026524428
0.0012098339
3.2508324E-4
-4.1605963E-5
1.4495566E-4
3.8765342E-4
0.0015513513
3.5728264E-4
-0.001475428
-8.760095E-5
-4.3559652E-5
-7.5899274E-4
4.3085974E-4
0.0016208433
0.0022254712
0.0015642969
7.382352E-4
3.0905497E-4
-4.016209E-4
-8.7744923E-4
-0.0011554045
-2.0241336E-4
1.76875E-4
-6.990083E-4
-3.5721922E-4
-0.001223067
-0.0029194197
-0.0019701777
4.0648668E-4
0.0014738129
9.078978E-4
0.0018250257
0.0032241615
0.0023401172
0.0012849813
-3.5270603E-4
-0.0021556914
-8.773359E-4
0.0013108278
4.0981668E-4
-0.0018633266
-0.0013512855
3.3442404E-5
2.982772E-4
0.001137543
2.3092476E-4
-0.002143467
-0.0025649483
-0.0017112881
-6.4586574E-4
-7.922621E-4
-0.0013325391
-1.6641403E-4
-1.7094791E-4
-0.0014254899
-6.0345472E-5
0.0015727441
-9.150392E-5
-0.0018923349
-0.0016786528
3.4948788E-4
0.0036490774
0.0028021655
2.1608407E-4
0.003060731
0.005437175
0.0047136624
0.003953973
9.0416084E-4
-0.0016338621
-0.0017438314
-0.001356445
-2.9736196E-4
-0.0013295241
-0.0033956594
-0.003217067
-0.0020682877
3.9066968E-4
0.0021005936
0.0011078069
8.506278E-4
1.3399683E-4
-0.002223366
-0.0023599667
-0.001504751
-0.0020469213
-0.0031087666
-0.0038381515
-0.0024483677
-7.2613073E-4
4.9119745E-4
0.0038089277
0.0051055364
0.0041691875
0.00523344
0.0048015034
0.003757436
0.0035007375
-5.4635963E-4
-0.0052720117
-0.005510905
-0.0026711274
-0.001107215
-0.0017350959
-0.001011371
-4.514811E-4
-0.0015476508
-0.0017498423
-0.0015630057
-0.0011111279
-6.698221E-4
3.635241E-4
0.0023293293
5.2276667E-4
-0.0017473435
2.9010756E-4
5.0429924E-4
-8.299803E-4
4.3299032E-4
0.0014668554
0.0016552135
6.6797517E-4
-6.3813175E-4
0.0035960043
0.008824081
0.0051058936
-0.0014994711
-0.0024821444
-0.0011321751
-1.8799824E-4
1.2778434E-4
-1.5164763E-4
3.6562321E-4
2.712372E-4
-6.5323303E-4
-0.0016870392
-0.0035635869
-0.0032212955
-5.4573687E-4
5.504664E-4
5.6449627E-4
1.9062721E-4
7.566465E-5
0.0015819122
0.0014937007
-0.0014058043
-0.0034825157
-0.0039429725
-0.0031738603
-0.001352138
-9.1918505E-4
-0.0012131501
-4.5399807E-4
-0.001015045
-8.747574E-4
0.002774634
0.0031647852
-0.0019035251
-0.003229837
0.00107173
0.0023038487
7.1268E-4
0.0033747589
0.005457129
0.0028686814
0.0029600447
0.0050333515
0.0027211623
-9.4460015E-4
4.1564246E-5
0.005109866
0.0062515712
9.630337E-4
-0.0025994068
-0.0028056088
-0.004005368
-0.0051422883
-0.0052214647
-0.0049606846
-0.0045619626
-0.0034643211
-0.0010605735
-1.6639699E-4
-1.7995886E-4
8.235825E-4
-0.001078998
-0.003886458
-0.004190745
-0.0039637843
-0.0020578029
-0.0010207604
-0.0022696403
-0.0024510834
-0.0028683494
-4.7396138E-4
0.0044531818
0.005952939
0.008425745
0.012732359
0.013166437
0.008334718
0.002425496
0.0020793267
0.001370821
-0.002153834
-9.1753225E-4
-6.6054185E-5
2.5146903E-4
0.0041578817
0.005932438
0.0044111945
-0.0024755285
-0.009938001
-0.007963832
-0.004445061
-0.0037785799
-0.0013471422
-0.0010639135
-0.0039115525
-0.006044928
-0.0059221024
-0.003536496
-0.0010347205
1.4351802E-4
8.3138014E-4
7.112869E-5
-0.003290798
-0.005334315
-0.0035016197
-3.7768763E-4
0.0015631198
0.0028148892
0.0053285672
0.0053227935
0.0035362374
0.005383097
0.0020924967
-0.006279188
-0.0072075143
-0.0050664023
-0.003605695
0.0014138266
0.006232584
0.0065247575
0.0044162422
0.004325616
0.0033132765
-8.778684E-4
-0.0020724575
6.7358976E-4
0.006566726
0.012166215
0.009028375
0.001887969
-9.860522E-4
-0.0015854784
-0.0016438566
1.5836765E-4
0.003938178
0.0037714448
-0.0056184786
-0.015087645
-0.013950323
-0.008105173
-0.006037488
-0.0053149355
-0.003980982
-0.0026968294
-4.205258E-4
0.0029368273
0.007624309
0.009541698
0.0072831516
0.008172754
0.009794608
0.0041449224
-0.0061754175
-0.014351858
-0.019310366
-0.023488937
-0.02234591
-0.016346337
-0.01310906
-0.005522432
0.009107613
0.017973928
0.019647617
0.021803694
0.024235943
0.021551874
0.018027512
0.018880723
0.014125312
0.004579873
0.005277922
0.013369775
0.01275413
-0.0023553476
-0.020877946
-0.031775706
-0.033523932
-0.025352595
-0.012854183
-0.003126473
0.0020690397
-4.2539067E-4
-0.008502244
-0.018480465
-0.025629252
-0.020969106
-0.00839954
0.0049297605
0.016117409
0.013233879
3.9387433E-4
-0.002223013
0.0031587682
0.010257872
0.025415398
0.040585265
0.04565641
0.04379622
0.034805853
0.020716485
0.005426068
-0.013411398
-0.035111688
-0.058337327
-0.072269596
-0.063673615
-0.046258684
-0.02979313
-0.007298758
0.01396075
0.030496992
0.043737043
0.047534294
0.04434431
0.03589835
0.023368508
0.013831267
0.007126131
-0.0013438176
-0.013082237
-0.021939294
-0.030189203
-0.043882586
-0.036881916
0.0025225224
0.035046984
0.0350194
0.018503325
0.005666005
-0.008307154
-0.027881572
-0.034419034
-0.025448719
-0.01856069
-0.01642268
-0.012018816
-0.005022812
0.005088683
0.017164161
0.016325805
0.014836615
0.042693596
0.06434835
0.051062055
0.041783508
0.029779484
-0.010474067
-0.043342836
-0.04442735
-0.023668926
-0.011542129
-0.032947112
-0.042088628
-0.006499095
0.026723288
0.02562281
0.002589603
-0.009802371
0.006550698
0.027181119
0.03096709
0.018746002
-0.0064769173
-0.05307966
-0.10251939
-0.10006013
-0.06545322
-0.043456983
-0.013817837
0.021952432
0.04410631
0.043953694
0.04089832
0.06672173
0.07020049
0.04375959
0.052701
0.057464942
0.010308729
-0.050970133
-0.06913201
-0.024188947
0.038899682
0.09122846
0.11587847
0.09562809
0.06023862
0.004559101
-0.076562285
-0.12776227
-0.12486475
-0.09582706
-0.069476716
-0.032276835
0.005049189
8.588199E-4
-0.018186243
-0.048146714
-0.09355869
-0.09223062
-0.048298158
0.0056070993
0.055850334
0.07224761
0.102321856
0.16857304
0.19056104
0.15725347
0.1219521
0.09788617
0.05932061
-0.016663563
-0.0888201
-0.109996356
-0.12191997
-0.16458249
-0.18639997
-0.13847105
-0.05691454
5.534085E-4
0.02868701
0.0339953
-0.017679807
-0.11759678
-0.17945154
-0.15996435
-0.09044692
-0.018392408
0.04115054
0.1142016
0.19281137
0.25410566
0.28067452
0.22198
0.116136834
0.047909588
-0.0033010677
-0.04106364
-0.018213088
0.05833178
0.116345525
0.081911795
-0.0022986988
-0.039243482
-0.019286055
-0.010836065
-0.073016725
-0.1587395
-0.20397489
-0.22217917
-0.21739215
-0.17534976
-0.11238346
-0.08131128
-0.05588316
0.046027847
0.13294895
0.1259812
0.10696859
0.10348583
0.113197
0.10320249
0.032180186
-0.02524001
-0.038002513
-0.04318472
-0.044074584
-0.030869577
0.0010199118
0.008894135
0.014010812
0.06896031
0.09334453
0.046001635
-0.02275741
-0.07213974
-0.06394686
-0.029538808
-0.015262728
-0.007933298
0.00888118
0.03800463
0.051629767
0.03998812
0.037052725
0.049843866
0.061561607
0.051918533
0.021905858
-0.004895345
-0.02568655
-0.03392845
-0.021701124
-0.007113637
-0.008069476
-0.027092045
-0.048465554
-0.06017721
-0.061133407
-0.05169405
-0.045592844
-0.042353913
-0.03025863
-0.017206013
-0.0049620094
0.008889724
0.019332232
0.028166372
0.03555355
0.03885176
0.039471794
0.037292633
0.030610992
0.022933045
0.018058535
0.0107845925
0.0010095573
-0.0047252956
-0.01013802
-0.015220416
-0.014667529
-0.013532139
-0.014120083
-0.013505744
-0.011872858
-0.008934383
-0.004931009
-4.077206E-4
0.0035160321
0.00517314
0.0062669385
0.0089119
0.010723239
0.008814461
0.007393569
0.007746538
0.0056025647
0.0031728155
2.190677E-4
-0.003426597
-0.0036426953
-0.004264939
-0.0039712675
-0.0013388535
-0.0027678013
-0.002447949
9.3265827E-4
6.1816664E-4
7.322606E-4
0.0020458875
0.0023376618
0.0023067778
9.777368E-4
4.5735724E-4
9.781351E-5
-0.0027189597
-0.004427299
-0.0026505159
-6.5568706E-4
-7.6393386E-5
-5.477083E-4
-0.003301527
-0.004390847
-8.4213575E-4
0.0013060676
3.3042865E-4
-2.1711767E-5
0.001977043
0.0032624812
1.705902E-4
-6.620983E-4
0.0024923293
0.0024191567
0.0018854507
0.004002293
0.004614622
7.42947E-4
-0.0038872862
-0.0035669585
-0.0023682734
-0.0018986578
9.728425E-5
-0.0010647296
-0.0045404644
-0.0060348664
-0.0033349534
3.45617E-6
-0.004270358
-0.006893566
-9.043584E-4
0.002071182
7.969977E-4
-0.0015286439
-0.004746099
-0.0033554637
8.634142E-4
0.0019584594
0.0017792616
0.005289113
0.009395076
0.0077308845
0.00754336
0.014405617
0.015170827
0.003523082
-0.0056963307
-0.004643914
-0.0022718057
-0.0011311732
5.9256644E-4
0.0015365111
0.0018809258
-1.8339585E-4
-0.0012788272
-6.1622896E-4
-0.0032118803
-0.0030702357
-9.86386E-4
-0.0026480998
-0.0036290917
-0.004708036
-0.0045040315
-0.0024064344
-0.0031991845
-0.0030095635
-0.002685802
-0.0037841222
-0.002048848
-2.193001E-4
7.3419756E-4
0.001158984
9.690329E-4
0.0014650394
4.6508884E-4
2.4587673E-4
5.8489654E-4
-6.799811E-4
1.8700566E-4
-5.139395E-4
-0.0027114681
-0.0010358251
-2.4463967E-4
-1.7529987E-5
0.0019316901
8.971386E-4
-6.6960044E-4
0.0010503597
0.00292874
0.0025131619
0.0015913111
0.0022410976
0.002596392
0.001506084
5.4341747E-4
5.801232E-4
0.0022717107
0.0032403676
4.928134E-4
-0.0021538313
-0.001045155
-5.5440312E-5
-7.2943215E-4
2.2817764E-4
7.036453E-4
-2.897793E-4
-1.6588298E-5
-8.90029E-5
0.0011610915
0.0030548978
6.0211244E-4
-0.0010937055
-7.309793E-5
-1.3314298E-4
-4.6754658E-4
-0.0016912707
-0.002188582
-0.002267176
-0.003101851
-0.0012391706
-2.74876E-4
-5.634533E-4
-4.8017686E-5
-0.0015707976
1.4344585E-5
0.0034714397
0.0031897952
8.709465E-4
-0.0035056204
-0.0037829196
-2.720337E-4
-0.0014748987
-0.0035735897
-0.0040636463
-0.0031937254
-6.6041615E-4
9.171411E-4
0.0022534123
0.0012423092
-1.1076135E-4
9.413488E-5
-0.0025377618
-0.001907806
9.6445676E-4
-0.0013653381
-0.0017451758
9.294687E-4
0.001269716
4.969761E-4
6.709564E-4
0.0016057051
8.717607E-4
0.0010431592
0.0029790492
0.0020623696
0.0012651905
0.0022892184
0.0021028144
0.0012558976
1.8078665E-4
3.9821866E-4
0.0014392473
6.648604E-4
7.0411756E-5
-1.812974E-4
-0.0011770797
-0.0015747858
-0.0031101897
-0.004792146
-0.002898994
-0.0015639635
-0.003058135
-0.0020626208
2.1086083E-4
4.9486924E-5
-2.5525055E-4
-4.6439245E-4
-6.891367E-4
-3.9492207E-4
-0.0013197237
-0.0012269355
2.0515687E-4
-1.7249522E-4
-6.176373E-5
3.591007E-4
-9.3490805E-4
-3.399099E-4
0.001816766
0.002134011
0.0018583975
0.002236671
0.0025749148
0.0022208644
0.0019362462
0.002282879
9.764317E-4
-8.97046E-4
-8.308221E-4
-9.559353E-4
-5.0438015E-4
-3.1662878E-4
-0.003114949
-0.0020039731
0.002268617
0.0015868123
-9.5253046E-5
-0.0013235301
-0.0019218057
8.242996E-4
2.4539677E-5
-0.002216802
-4.3347283E-4
-5.545774E-4
-4.8532398E-5
0.0025409898
0.0015420006
-1.1464816E-4
-4.9794297E-4
-6.447896E-4
-1.5845244E-4
4.6152732E-4
0.0023532235
0.0025671404
-5.3966907E-4
-4.0858923E-4
0.0028898804
0.002603961
-6.201572E-4
-0.0026940168
-0.0033149736
-0.0019836274
3.9351723E-4
-3.9508118E-4
-0.0030280985
-0.0029853384
-0.00112929
2.7356183E-4
2.5603536E-4
-3.756389E-4
3.718101E-4
4.3107453E-4
-0.0010296677
-4.721868E-4
4.3774102E-4
-3.7725252E-4
9.878878E-4
0.003317194
0.0017996731
2.6836086E-4
0.003187337
0.0044738203
7.8315806E-4
-7.205633E-4
1.5162828E-4
-9.811093E-4
-5.716919E-4
3.151627E-4
-0.0011943904
-0.0014429302
-8.5725944E-4
-5.8731606E-4
-3.2237204E-4
-0.0015442263
-0.0020266855
-6.810145E-4
3.353555E-5
-4.9575465E-4
-3.7687118E-4
5.7518634E-4
-3.8373526E-4
-6.782838E-4
0.0011511889
6.5215025E-4
1.5488705E-4
0.001203517
0.0013006447
0.0022219054
0.0020184047
3.3767402E-4
6.1663793E-4
8.512889E-4
7.815355E-4
4.224378E-4
-6.377919E-4
6.66331E-4
0.0010790668
-6.1077764E-4
3.0956347E-5
-2.0261401E-4
-0.0012899839
-2.507021E-4
-8.4421417E-4
-0.0021347338
-0.00251659
-0.0029776439
-0.0013585276
-5.008616E-4
-0.0016838082
-0.001350667
-0.0011421965
-0.0013307641
-6.221598E-4
-4.2809182E-4
-1.4102578E-4
3.458117E-4
4.7067215E-4
8.731975E-4
8.813834E-4
3.4555656E-4
0.0013234206
0.0036387374
0.0031629219
8.0625253E-4
0.0013610282
0.00200434
8.938318E-4
0.0019999668
0.0029305334
9.879898E-4
-1.0701583E-4
3.7663127E-4
4.0039115E-4
-3.9869704E-4
-0.001520553
-0.0018466883
-0.0011292176
-4.8425067E-5
-1.4790734E-4
-0.0019759736
-0.002624479
-0.0010180924
1.9031717E-4
-7.956591E-4
-0.0017480002
-5.09908E-4
-0.0013385618
-0.002612097
5.5939966E-4
7.430818E-4
-0.0012769417
7.696554E-4
6.7012606E-4
-1.830591E-4
0.0012134631
7.346214E-4
3.1930633E-4
-6.466168E-4
-0.0017315379
-2.204904E-4
3.459356E-4
7.1119866E-4
0.0010133543
1.7715657E-4
0.0013200326
0.0013438574
-3.1467355E-4
-1.5607977E-4
1.06446445E-4
0.001059792
0.0021503542
7.073705E-4
-0.0011529757
-9.09872E-4
0.001129649
0.0019857315
0.00172312
0.0018810258
-3.9191163E-4
-0.0023476854
-9.1768266E-4
-3.189907E-4
-1.3048253E-4
-1.0651701E-4
-0.0018416923
-0.0012709494
5.041872E-4
-2.47859E-4
-9.848824E-4
-0.0011267379
-0.0010201478
8.588156E-5
1.3454325E-4
-0.0011530174
-0.0017462396
-5.01606E-4
0.001159095
1.3927762E-5
-8.910155E-4
0.0015148517
0.001595925
1.202739E-4
0.002370683
0.0031738575
6.4595934E-4
-8.3805993E-4
-0.0018485662
-0.0013726323
5.650779E-4
5.4307346E-4
-6.2784704E-5
7.0734284E-5
8.374789E-4
0.0020870455
4.837694E-4
-0.00266937
-0.002236373
-2.3966376E-4
-6.2465476E-4
-0.0016429335
-0.0012305728
-9.0288755E-4
-7.1899703E-4
6.583465E-4
9.216143E-4
-2.5171626E-4
-4.0925464E-5
2.1066426E-4
-5.383254E-4
-3.6804145E-4
9.816708E-4
0.002328909
0.0014305917
-3.4981157E-4
0.0010641401
0.0025783214
0.001776186
0.0017639945
7.814591E-4
-0.0017830088
-0.0019785278
-5.25178E-4
-4.6919813E-5
-1.20065044E-4
8.86157E-5
-7.2460703E-4
-0.002117658
-3.1749706E-4
0.002554911
0.0010664872
-0.0019603036
-0.0019046976
-0.0015865229
-0.002548258
-0.0015477003
-0.0011687996
-0.0030419643
-0.0014446838
0.0016024355
3.088178E-4
-0.0012448457
6.6492637E-4
0.0032713632
0.0052028964
0.0040681185
-7.371453E-4
-9.5195195E-4
0.0014427447
-0.0011129933
-9.912243E-4
0.0014185949
4.3796864E-4
7.3312194E-4
7.455039E-5
-0.0015427856
-9.4020745E-4
7.5851317E-4
0.0028836967
-2.733635E-4
-0.0021012095
0.0013634333
-0.0014929104
-0.002366023
0.0017896845
2.1925902E-4
-0.0011213017
4.8234804E-5
8.098569E-4
1.752303E-5
-0.0022932119
-0.001409323
-0.002077915
-0.0034934632
-5.8796484E-4
2.1830862E-4
0.0011473597
0.0031502268
0.0017428746
0.0017996713
0.0026247057
9.7985E-4
-2.453631E-4
-9.4889785E-4
-0.0021109674
-0.0021914355
-5.07376E-4
9.558266E-4
0.001394126
5.0964725E-4
-9.026002E-4
8.3304965E-4
0.0027671347
4.081945E-4
-0.001139898
0.0010653973
0.0016178983
3.8303362E-4
9.2525413E-4
-4.2417177E-4
-0.002301061
-4.2855923E-4
3.861209E-4
6.24568E-5
-8.5238506E-5
-0.0014851262
-0.0014925213
-9.803573E-4
1.8312315E-4
0.0011615693
-4.0351963E-4
-3.7856525E-4
-2.844389E-4
-0.0010516887
3.0287678E-4
5.294165E-4
1.429207E-4
-3.5834883E-4
-0.0012944689
-2.1103688E-4
1.3380044E-5
-2.572694E-4
4.0492232E-5
-5.9752184E-4
-1.154856E-4
7.834425E-6
0.001194063
0.003518769
0.0010554885
-0.001151424
1.4585798E-4
-1.374486E-5
-5.9174385E-4
-1.3576286E-4
0.0011852444
0.0016115039
1.9556095E-4
5.282837E-4
2.8525168E-4
-0.0015203255
8.2426246E-5
0.0012904112
-1.9993517E-4
3.5843914E-4
7.014543E-4
-0.001226011
-8.230969E-4
0.0015219965
9.531776E-4
-4.560202E-4
2.787291E-4
-1.4124453E-4
-8.3527976E-4
-6.7922403E-4
-0.0022535177
-0.0021210914
-0.0011895711
-0.0026787783
-0.0014952592
7.136858E-4
6.6310466E-5
4.042407E-4
0.001836782
0.0016871691
1.3507166E-4
-5.553556E-4
2.6818647E-4
3.3803683E-4
4.05767E-4
0.0014419057
0.0010480173
-4.0143594E-4
1.9061225E-5
0.0013734039
0.0012099262
8.906914E-4
3.833766E-4
-6.121233E-4
-1.21341836E-4
-2.9097847E-4
-0.0011116391
-8.1519474E-4
-9.656765E-4
-5.262641E-4
4.403776E-5
-2.0604748E-4
-3.5854187E-4
-8.910629E-4
-1.8671164E-4
2.0906067E-4
-0.0012500274
-0.0011989344
1.0960242E-4
0.0012698643
6.3331955E-4
-8.3493436E-4
8.0876634E-4
0.0019624133
0.0011749067
8.4085215E-4
1.1269956E-4
9.631711E-4
0.0010479179
-0.0014180847
-9.196898E-4
6.5912533E-4
-9.918703E-5
-8.410054E-4
-0.0011269102
-4.405007E-4
8.663228E-4
6.055944E-4
-7.7625155E-4
-0.0019464619
-0.0018039796
-5.31467E-4
1.6901987E-4
6.664208E-4
4.45523E-4
-0.001177078
-0.0013253915
7.8339166E-5
3.707725E-4
-7.997203E-5
6.6719885E-4
0.0010517304
-7.302415E-4
5.7996315E-4
0.0032879137
6.892586E-4
-4.9438747E-4
7.266197E-4
-9.711224E-4
-0.001104563
7.368614E-4
0.0019095503
0.0013358648
4.512716E-4
0.0011685377
-0.0012063248
-0.0020021696
5.548906E-4
-6.430623E-4
0.0011101377
0.0025308074
-0.002228102
-0.0025465782
-0.0013451743
-0.002066591
-2.6065754E-4
2.3346223E-5
-1.3578914E-5
0.0012554259
6.179582E-4
-7.6434575E-4
-8.2428945E-4
8.3677866E-4
6.624458E-4
-0.0014568288
-2.2034546E-4
0.001817981
5.500638E-4
-8.814259E-5
0.0014890062
0.0012200471
-1.2654609E-4
1.2800208E-4
5.281602E-5
-3.103872E-4
4.3081098E-5
-2.859685E-4
-0.0015405542
-0.0021796993
-8.338423E-4
6.0506514E-4
4.0917014E-4
1.5255052E-4
5.817654E-4
5.522829E-4
-3.287343E-4
-7.141883E-4
-8.293685E-4
-1.20931385E-4
0.0020390342
0.002035328
9.712671E-4
8.257637E-4
-2.5279109E-5
4.7499637E-4
7.1161013E-4
-6.5498805E-4
-8.404418E-5
7.8041415E-4
8.415777E-4
0.0012077367
3.1555942E-4
-0.0011612612
-0.0012692016
-0.0015001796
-0.0025106943
-0.0016049008
-5.0333765E-4
-6.109606E-4
-7.324988E-5
-5.5936055E-4
-7.594745E-4
-3.100467E-4
-9.6503645E-4
-2.974302E-4
1.4930897E-4
3.0263356E-4
9.1637624E-4
1.9319568E-4
9.478009E-4
0.0012282637
1.8927953E-4
0.0012655131
0.0012203115
1.07807944E-4
-2.2591857E-5
-3.9485525E-4
-5.083587E-4
5.17926E-4
0.0018738379
6.692715E-4
-1.2394875E-4
0.0014871635
9.6882076E-4
6.7463383E-4
5.5113435E-4
-0.0016366139
-0.0019250627
-0.0014281197
-6.1972055E-4
0.0010663574
4.504407E-4
-4.2649277E-4
6.44749E-4
5.9094926E-4
-0.0022113211
-0.00299535
-2.9465125E-4
1.8201786E-4
-5.3006044E-4
-0.0011369169
-0.0032428387
-0.0015580427
0.0025349779
0.0016362806
-8.9852896E-4
5.251759E-4
0.0022776513
0.0012029996
4.6683446E-4
1.6416622E-4
-5.1530026E-4
-2.5548923E-5
8.046367E-4
0.0019956667
0.0024531756
0.0016071659
0.0013834041
2.9135655E-4
-4.5877148E-4
1.9567426E-4
-4.14457E-4
-2.6668917E-4
6.723458E-4
-1.8717058E-4
-9.1742293E-4
-7.29917E-4
-0.0020177427
-0.0040026624
-0.0024701825
4.278397E-4
-1.1511156E-4
-0.0014513138
-9.4882806E-4
2.082386E-4
8.7320816E-4
0.0014005043
0.001373608
-3.2423754E-4
7.596548E-5
0.001628106
9.716125E-5
-2.8038357E-4
3.1453458E-4
-9.607953E-4
-0.0010107581
3.8404722E-4
0.0017764278
0.0019697596
7.7893946E-4
-8.267573E-4
-0.0021118124
-9.44944E-4
3.622224E-4
1.1051929E-4
2.1339716E-4
-5.251814E-4
-6.48408E-4
-3.2119806E-5
-1.3073155E-4
6.052168E-4
3.9149635E-4
7.472517E-4
0.0020473455
3.0267012E-4
-7.9408474E-4
4.9022073E-4
0.0011021742
2.5131556E-4
-9.126733E-4
1.9144075E-4
0.0011438042
0.0010302082
0.0012076575
-4.565377E-4
-0.0014450555
-0.0016051639
-0.0023463636
-9.84543E-4
5.3216067E-5
4.1670105E-4
6.2713877E-4
-4.1466448E-4
6.850597E-4
0.001010999
-0.001272416
-0.0012995871
-6.4348214E-4
-7.888709E-4
-8.984686E-4
-6.5199065E-4
0.0010941437
7.6546695E-4
-0.0011929855
6.645722E-4
0.0028716307
0.0016656823
-2.9989553E-4
-0.0022296938
-0.0024396356
-1.8520353E-4
0.0010381058
0.0017684457
0.002001397
-3.737095E-5
-4.1496806E-4
7.069894E-4
-1.9800632E-4
-6.200604E-4
5.9651007E-5
-0.0010583402
-0.002198388
-5.147469E-5
0.0022571054
0.0020779618
0.0016283075
0.0013715248
0.0016113807
-2.9099424E-4
-0.0033713228
-8.785621E-4
6.46754E-4