2.4914052E-4
-4.2737162E-4
8.5452927E-4
3.339687E-4
-7.915553E-4
-3.2433946E-4
-6.6835426E-5
0.0017827783
0.0028597526
0.0015260901
0.0012279778
4.0710918E-4
-0.0015989984
-8.621183E-4
0.0010361108
1.0961439E-5
-0.0011244022
-6.853071E-4
-8.641803E-4
-8.942786E-4
-9.481288E-4
-4.1831625E-4
0.0015488925
0.0028215093
0.0027408157
2.2068516E-4
-0.0015670218
5.463448E-4
5.4634165E-4
-0.0013935539
-0.0010799215
-0.00119348
-0.0015744074
-6.02348E-4
1.6046791E-4
8.89995E-5
-9.184288E-6
-3.6041508E-4
-9.956926E-4
-7.904686E-4
-0.0010154151
-4.595446E-4
0.0016502233
8.5291057E-4
-8.281595E-4
-3.900292E-4
4.2139186E-4
8.8171207E-4
-3.035081E-4
-3.7544576E-4
7.910804E-4
7.285708E-5
2.7687976E-4
1.2272356E-4
-1.8062805E-4
0.0011507054
9.812181E-5
-1.8484384E-4
7.7169435E-4
-8.105932E-4
-8.516145E-4
4.6471297E-4
5.6829763E-4
-2.8171064E-4
-0.0014470179
-6.9202564E-4
2.580942E-4
1.5669033E-5
1.8660007E-4
0.0011420569
0.0018237309
1.4689696E-4
-8.6104794E-4
7.568799E-4
0.0013836963
0.0013043901
9.781283E-4
1.9908617E-5
-2.607954E-4
5.009499E-5
7.6331565E-4
8.611703E-4
-4.766571E-5
-0.0018606834
-0.003749694
-0.002490009
-2.0215925E-4
-8.191204E-5
-1.5929929E-4
-0.0011640702
-0.0030849825
-0.0017191479
0.0013967418
7.983227E-6
-0.0025133884
-4.251297E-5
0.0022173326
0.0022294754
0.0023570403
-1.8317529E-4
-0.00223453
-3.1038505E-4
0.0020313223
0.0024770417
0.0014514887
0.0018252697
0.0027572108
0.0017153966
0.0010226591
7.9428064E-5
-0.0011814145
-6.967014E-4
-5.385442E-4
-7.251419E-4
-1.5331739E-4
3.8473535E-4
3.198834E-4
-0.00108246
-0.0017004748
-6.631759E-4
-0.0010993549
-0.0022268242
-0.0012493036
-1.2582148E-4
-1.720719E-4
3.5764166E-4
-3.6022114E-4
-0.0013669528
0.0010029786
0.0017165818
5.508126E-4
0.0022920917
0.0017501058
-7.633757E-4
-5.287946E-4
-3.2871182E-4
-1.7019012E-4
-4.7569425E-4
-0.0014205058
-1.650837E-4
1.5118391E-5
-3.103225E-5
0.0020407862
9.4781304E-4
-7.6802506E-4
-1.7271709E-4
-9.803338E-4
-6.690372E-4
7.3441217E-4
4.4307642E-4
5.230844E-4
6.4063095E-4
1.3178002E-4
-7.808465E-5
0.001160547
0.0018335286
-0.0016415346
-0.0028378821
-1.3629848E-5
-5.53189E-5
2.8397958E-4
0.0013389498
2.0658309E-4
0.0010332856
0.001156606
-0.0013250358
-0.001568892
-7.019615E-4
-8.3697814E-4
-8.301394E-4
-3.9118537E-4
1.05494655E-4
8.175513E-4
0.0018737531
0.0013188255
-2.4199345E-4
4.5715607E-4
0.0010780019
-7.757318E-4
-0.0016837355
-0.0010636727
-0.0010867856
-7.419227E-4
1.7153507E-4
5.236524E-4
5.6201627E-4
3.5287632E-4
2.2591313E-4
4.465624E-4
6.350528E-4
4.856955E-4
-4.8646703E-4
-0.0017863418
-0.0019813173
-7.8929594E-4
-1.1219113E-4
-3.546134E-4
9.90315E-4
0.0028792035
0.0028292947
0.0019084455
0.0010586736
4.0718197E-4
-6.2819984E-4
-0.0016580827
-8.757249E-4
6.0909802E-5
4.4712378E-4
0.0013482609
5.163649E-5
-0.0030438914
-0.0031348958
-5.6556397E-4
1.0300362E-4
-0.0010037881
-2.0444769E-4
0.001225822
4.6404175E-4
-3.855621E-4
2.293951E-4
5.353008E-4
2.0156213E-4
-2.6270462E-4
-5.1546906E-4
7.8437803E-4
7.1169104E-4
-0.0021669036
-0.0014249779
0.0018562098
0.0024653315
0.0025634563
4.7071252E-4
-0.0030771727
-0.0015865399
0.0015273845
0.0015776675
8.6514273E-4
4.3072813E-4
-9.964389E-4
-0.0033052335
-0.0030243266
2.7166665E-4
0.0015869414
1.9696483E-4
2.679346E-4
0.0013487507
1.2779595E-4
-4.4278434E-4
0.0013971502
0.0020769038
0.0017402086
2.8299168E-4
-7.7100383E-4
0.0011374144
4.0953927E-4
-0.0016589331
-5.398361E-4
-0.0014889188
-0.0026083968
-8.698576E-4
-1.471547E-4
8.185523E-4
0.0015128427
5.609113E-4
4.3124508E-4
-3.071727E-5
-5.551446E-4
-5.287969E-4
-0.001166118
-5.143552E-4
2.1054324E-5
-1.6868125E-4
9.916311E-4
6.262012E-4
-2.1095396E-4
1.7139575E-4
-7.311004E-4
-0.0014669081
-0.0012867169
9.431799E-4
0.003003934
-2.4280572E-4
-0.0013005527
0.0013963067
4.1737407E-4
-0.0011122236
-0.002594339
-0.0027224375
0.0011342451
0.0017615424
7.501901E-4
0.0027712844
0.0033328026
0.0013132236
-0.0014125772
-0.0015061473
0.0011262877
0.0019009486
1.2875718E-4
-0.0025603466
-0.0017926587
0.0017163234
0.0014402928
9.44154E-5
-6.673818E-5
-4.8747213E-4
7.3157623E-4
0.0010473864
-6.2419E-4
-0.0014956517
-0.001279191
-2.9745966E-4
-5.6955265E-4
-0.0018722092
-0.001503252
-2.828055E-4
4.0913728E-4
8.8183215E-4
0.0014471621
3.6376415E-4
-0.0016174271
-2.5355263E-4
0.002215011
0.0021018386
4.985239E-4
-0.001510727
-0.002073645
-0.0019484744
-0.0025073725
-0.001649529
-2.4156857E-4
9.79927E-4
0.0016607903
2.4372611E-4
-5.255713E-5
9.828801E-4
0.001191934
0.0025758308
0.003030187
0.0010440571
-0.0014496901
-0.003071192
-4.035078E-4
0.002035422
-2.1389521E-4
-4.9797323E-4
9.4940996E-4
0.001527919
0.002395189
7.340875E-4
-4.474294E-4
2.4285649E-4
-5.8132363E-4
-0.0010329701
-0.0023658883
-0.0023111317
7.020453E-4
-5.2738574E-4
-0.0017639175
-8.343141E-4
-0.0031333237
-0.0022542218
4.8946653E-4
2.5737166E-4
0.002288705
0.0017712642
-0.0026269653
-0.0022590822
4.168045E-4
0.0016419657
0.002361642
0.0021805335
0.0024033892
0.0032260048
0.0032336793
0.0010368511
-0.0024755744
-0.0032695439
-0.0011125237
0.0012477221
0.0018465382
2.9186488E-4
-0.0013994449
-0.001958004
-9.739024E-4
1.4208419E-4
3.206534E-4
9.2588447E-4
0.0012848601
0.0017273424
7.398423E-4
-0.0026761298
-0.0020461902
5.68944E-4
-4.8220405E-4
-0.0016557062
-0.0024168144
-0.0017575714
6.511033E-4
4.8467287E-4
-1.2050076E-4
3.1216597E-4
0.0016196641
0.004552255
0.0038512715
-8.767481E-5
-0.0024391874
-0.0037769391
-0.0029507356
-0.0012129263
-0.0019627204
-0.0020068858
-2.1154086E-4
-3.9885243E-5
-1.8092498E-4
0.0011872839
9.1624097E-4
3.016169E-4
0.0028335524
0.0036854648
7.318738E-4
-0.0012327065
-0.001079163
-2.735713E-4
-5.2226655E-4
-3.1424235E-4
0.002360186
0.0027952055
0.0019978248
0.0032428633
0.0015461622
-9.6378394E-4
-4.3916528E-4
-1.8643028E-5
8.50778E-4
0.0013228906
7.526708E-4
3.756378E-4
-0.0020544296
-0.0031145245
-0.002343592
-0.002939222
-7.3988875E-4
8.3401636E-4
-6.940649E-4
-3.509012E-4
-0.0018698298
-0.0034009034
-3.299768E-4
7.5022527E-4
-7.90466E-4
-7.416681E-4
2.512145E-4
0.0010250842
6.7991565E-4
-2.3876585E-4
-0.0011516263
-0.0010954783
9.265126E-4
0.0017489621
8.776476E-4
8.815317E-4
3.407363E-4
-3.2144386E-4
1.8964363E-5
-9.065611E-4
-3.0831274E-4
0.0030165282
0.0026842176
-3.357637E-4
-7.028239E-4
7.4297294E-4
0.0018691793
0.0013952184
2.3261108E-4
-6.052295E-4
-0.0014803733
-0.0012498704
-0.0012473046
-0.0013641322
2.9519043E-4
0.0016725186
0.0023943763
0.0024725776
0.002204591
0.002443566
5.2501535E-4
-0.002253834
-0.0033122527
-0.003100422
-0.0017452048
-0.0013863596
-6.892631E-4
0.0011701416
-1.2628052E-4
-0.0018024873
5.316971E-4
0.002972657
0.0019604536
-6.9947867E-4
-0.0033818656
-0.0042691682
-5.0886854E-4
0.001761202
-0.0021977103
-0.0038111205
-3.153951E-4
0.0030044774
0.0034512829
3.9491244E-4
-0.0015247974
-7.9198123E-4
-0.0016120713
-0.0011648834
0.0030690406
0.0049404926
0.0029846302
0.0024654798
0.0021344128
4.5647763E-4
3.5546298E-4
-9.878738E-4
-0.003165524
-0.0023457955
-0.0021738892
-0.0017958569
9.237824E-4
0.0010542852
-0.0012023582
-0.0026260414
-0.0015554759
0.0010893734
1.5197233E-4
-0.0013391286
5.206573E-4
8.9962635E-4
0.0013062748
0.0029386582
0.0014810917
-0.0010124794
-0.0023577148
-0.0014235963
0.0016601757
0.0019375522
3.500354E-4
4.8074237E-4
0.0020937272
0.0043994053
0.0043323017
0.0017208714
-3.9610077E-5
-7.3423126E-4
-0.0025793605
-0.004974644
-0.0029381902
6.779073E-5
-0.0029684387
-0.004154576
5.5602908E-5
2.7134805E-4
-0.0019069834
-8.9103717E-4
-3.2682213E-4
2.4533563E-4
0.0025482953
0.0020762193
-4.0405217E-4
-0.001199316
1.109297E-4
0.0030869227
0.0028436233
-0.0010629854
-0.0024360777
-0.0016972254
-3.6664828E-4
0.0018587119
0.002366365
0.0014899119
0.0011437635
-3.976438E-5
-0.0022391619
-0.0023211024
-9.727211E-4
-0.0015342684
-0.001726898
8.891015E-4
0.0046899524
0.0056514344
0.0013474285
-0.0023834666
-0.0011071886
0.0023007782
0.0037738087
5.2219525E-4
-0.003175702
-0.0028429804
-0.0014801801
-8.772486E-4
-9.883173E-4
-0.0011511426
-1.9191518E-4
1.7792762E-4
-3.609001E-4
1.9994072E-4
0.0016546962
0.0030282873
0.0040588677
0.0028942255
-7.246743E-4
-0.004047
-0.0050053075
-0.0024129474
-2.4068388E-4
-8.179988E-4
0.0011033881
0.0026908314
8.9793693E-4
9.4578683E-4
8.697725E-4
-0.0011558669
-0.0017105512
-0.0014411882
-0.0020046658
-0.002634424
-0.0012858589
7.5557997E-4
0.0018228103
0.0024767716
3.7029918E-4
-0.0019279667
-2.184643E-4
4.4425385E-4
-0.0022847024
-0.0032842932
-0.0015962523
-1.5985267E-4
0.0025390245
0.006007739
0.0066922507
0.0070495177
0.0046086614
-0.0022136383
-0.004034603
-0.0021363772
-0.0016426723
9.378156E-5
2.9246876E-4
-0.0014088898
-0.0015360113
-0.0011783118
-0.002151286
-0.003921096
-0.0014126989
0.002722598
0.0022879005
0.0041752714
0.0060348264
-1.7872921E-4
-0.004549592
-0.0023268987
0.0013965982
0.0049310806
0.0045494474
0.0014670867
-4.0493425E-4
-0.0017921532
-0.0028077818
-0.0038583183
-0.0038745338
-0.0031895551
-0.0036776396
-0.0028695508
-0.002693552
-0.0044661276
-0.0037314345
-0.0017674869
-2.5594313E-4
4.3824603E-4
-6.932774E-4
-3.1077315E-4
8.4472366E-4
6.5392705E-5
-5.1379364E-5
0.0011916668
0.0020081052
0.0016205234
0.0017781825
0.0038285842
0.0052772835
0.0067621847
0.010118081
0.0119487485
0.008958921
0.003553126
0.0026196209
0.0051425784
0.002163168
-0.004684305
-0.008106532
-0.009542833
-0.011335022
-0.010096826
-0.0057731024
-0.004059825
-0.004037644
-0.0030998597
-0.0044977306
-0.0028425418
0.003514921
0.002536317
-0.0018178568
0.0010048716
0.004081756
0.0033094562
0.002457102
0.0013222703
-8.946526E-4
-0.0026062422
-5.979446E-4
0.0027620338
0.0028567305
0.0029173302
0.003192158
0.0014726667
0.0018609806
0.0027049864
-5.387271E-4
-0.0037092445
-0.004156377
-0.0045252456
-0.0038061
-4.4189784E-4
0.0012383404
-0.0014874559
-0.004428945
-0.0046595274
-0.0029085495
2.9125233E-4
0.0033575492
0.0047585126
0.004647947
0.0043834466
0.005589443
0.0070838146
0.0076612826
0.006249131
5.565103E-4
-0.004674768
-0.0053443173
-0.0052797305
-0.003530721
9.724785E-4
0.004086383
0.0044159093
0.0016750428
-0.0010164146
-6.5796997E-4
-5.998303E-4
-0.0016523708
-0.0034177592
-0.0059066373
-0.0062942216
-0.0059192604
-0.006223396
-0.004375337
-0.0010585033
1.400668E-4
-2.7469776E-4
0.0015053338
0.0043203076
0.004056653
8.918519E-4
-0.0010046411
0.0025757682
0.0066354773
0.0063974364
0.0061782445
0.002689154
-0.0037222004
-0.0038220717
-0.0024228275
-0.0035251698
-0.0027549935
-0.0024560275
-0.002517721
-2.4970042E-4
0.0027276557
0.0044240262
0.0041970415
0.0043283175
0.0041373167
0.0017007103
0.0015204789
0.0038318268
0.0022715298
-0.0013326901
-0.0019977554
-0.0046925945
-0.009592114
-0.009714957
-0.0076442785
-0.0030546586
0.005778069
0.009563688
0.008342458
0.008666816
0.0075806733
0.0034638792
-2.384631E-4
-0.0026477303
-0.005833926
-0.008325129
-0.011777613
-0.020470247
-0.023066508
-0.013060833
-0.003312123
0.0023899542
0.007881828
0.010712668
0.010717198
0.011377473
0.012471461
0.011540034
0.0099000335
0.006621321
3.943677E-4
-0.0053647803
-0.010434715
-0.010946238
-0.0037583916
0.003980984
0.009901258
0.012932372
0.0107029425
0.0066025225
0.0029231336
0.003039193
0.004037643
4.7015498E-4
-8.471305E-4
-0.0014496802
-0.006791543
-0.01032852
-0.012800437
-0.015577006
-0.012942133
-0.007503056
-0.0032717048
1.183188E-4
0.0017835536
7.752142E-4
-0.0029305203
-0.005053318
-0.0031633214
-0.0037156001
-0.0050078905
2.6232842E-4
0.0037646668
8.657385E-4
0.0013125702
0.00478171
0.0053842003
0.0040806304
0.0032020966
0.0051373984
0.008181977
0.011111041
0.012505305
0.004991113
-0.0025902651
0.0010202953
0.0031396996
0.002078432
0.0051475707
0.004360447
0.0014483025
-2.1298652E-4
-0.005907047
-0.008369114
-0.0034792447
4.9527356E-4
4.6511696E-4
-3.3956495E-4
-0.001059263
-0.0038367177
-0.0068916604
-0.009906112
-0.0099913385
-5.838324E-4
0.006362614
0.0037059411
0.0024808052
0.0010109622
-9.3086064E-4
-5.6562794E-4
-0.004052786
-0.005195228
-0.0029639706
-0.006099003
-0.0061421813
8.9426903E-4
0.0024214108
-0.0071451543
-0.019569483
-0.024277585
-0.02200572
-0.020044794
-0.018886665
-0.014599221
-0.006030181
0.005615533
0.020514145
0.036615595
0.044974107
0.04189008
0.034383412
0.028400514
0.02733675
0.021429392
-0.0040968023
-0.027478043
-0.025638388
-0.015010282
-0.0043003294
0.006405058
0.009850002
0.009981762
0.006751389
0.0020117783
-0.0024023515
-0.012002572
-0.013119774
-0.005457941
-0.0017240201
2.4607292E-4
-0.010001898
-0.02081444
-0.014184994
-0.0088961525
-3.1874052E-4
0.013802722
0.014379396
0.009266438
0.002209726
-3.5685417E-4
0.0109358905
0.019158594
0.0223195
0.021304943
0.004331826
-0.020636022
-0.045048762
-0.06777915
-0.083480194
-0.09271516
-0.09599336
-0.08366426
-0.05962544
-0.044943627
-0.030438602
0.0016052977
0.035937104
0.06998572
0.10823203
0.13638207
0.15665926
0.16767325
0.15772577
0.14079735
0.117245175
0.07796163
0.04454786
0.016183095
-0.025099443
-0.07365991
-0.12148013
-0.14569248
-0.13796109
-0.12035426
-0.09241945
-0.0581282
-0.02574728
-0.006480653
-0.026075834
-0.046263758
-0.038630396
-0.039691124
-0.02918373
0.006789068
0.02220679
0.014503474
-0.0053415075
-0.042438705
-0.05310962
0.0018004228
0.080127604
0.15092371
0.21968073
0.23507312
0.17643201
0.09060827
-0.007415715
-0.09677676
-0.17110921
-0.23846526
-0.24112137
-0.18765756
-0.1517233
-0.11553288
-0.059738472
-0.014862135
0.00396808
0.0092147775
0.062236324
0.16587453
0.2274223
0.22822852
0.19101527
0.12949702
0.09049837
0.043289743
-0.015189629
-0.008690576
-0.0036328647
-0.022079306
0.016374864
0.04121184
0.035894297
0.039814066
-0.021716844
-0.10783639
-0.14017881
-0.14032252
-0.11990494
-0.1290334
-0.1584271
-0.12777711
-0.06820563
-0.036103044
-0.03614799
-0.029264394
0.031137168
0.111642726
0.17086063
0.18592435
0.15130852
0.11217598
0.06583654
-0.0068834475
-0.058623407
-0.061834738
-0.049633797
-0.05318973
-0.06758276
-0.09764087
-0.116575934
-0.04769669
0.054414354
0.08104373
0.079374775
0.077732965
0.035555545
0.01410284
0.014093322
-0.045166984
-0.10204982
-0.10221114
-0.0676259
-1.7608094E-4
0.042435694
0.061318386
0.099593304
0.12967223
0.16805184
0.17550674
0.10776119
0.028397975
-0.051671293
-0.09318025
-0.08614569
-0.11219731
-0.12630673
-0.10413545
-0.096122
-0.07953128
-0.06139081
-0.065730445
-0.07526277
-0.06144851
-0.0015540133
0.08539109
0.14480558
0.13982064
0.12639141
0.14986281
0.15657283
0.12030331
0.021463756
-0.1273544
-0.2184507
-0.2206663
-0.17233817
-0.08526152
-0.001536299
0.047776304
0.078827515
0.08716896
0.06978172
0.060040575
0.06571868
0.07461781
0.06207048
0.0012843583
-0.045344792
-0.048968248
-0.07105123
-0.09732113
-0.099804275
-0.078141995
-0.023208607
0.027946087
0.060791392
0.079699986
0.071623154
0.057838224
0.0450094
0.024256978
0.0019278579
-0.019809078
-0.03410352
-0.042469103
-0.04510032
-0.03988072
-0.035749994
-0.02895449
-0.019391036
-0.014149522
-0.0029768094
0.024900408
0.05688479
0.07504601
0.08102518
0.07857973
0.06929588
0.051912446
0.022212926
-0.004549014
-0.025307788
-0.05028573
-0.06683543
-0.07041169
-0.067496695
-0.05828856
-0.044870477
-0.029395599
-0.015801124
-0.003696424
0.0082085775
0.017135516
0.023018416
0.02339105
0.020316644
0.0176442
0.012697477
0.007315927
0.003577857
-4.4229186E-5
-0.0026906445
-0.0035509814
-0.0021743765
1.6445665E-4
0.0010778742
0.0022796316
0.0042165634
0.0030832968
0.0023549923
0.005530741
0.0055644885
0.0026673547
6.3054345E-4
-0.002334928
-0.0012358247
5.1502534E-4
-0.0041722655
-0.0056939106
-0.0038545344
-0.004598105
-0.0024446358
0.001124176
0.003399004
0.0038899824
0.0013636805
0.0027570694
0.004466745
4.4198942E-4
-2.3575285E-5
0.0031780142
0.004010261
0.0031105469
0.002390463
0.0036128315
5.043873E-4
-0.0064165457
-0.006341959
-0.0015637474
0.0034367002
0.007589622
0.00697848
0.0035339934
-2.7110378E-4
-0.002865508
-0.00442768
-0.007144226
-0.0069902735
-0.0040663616
-0.0013598645
0.0017689202
0.0027284357
9.149737E-4
-0.002651102
-0.00382449
8.566861E-5
6.692369E-4
-4.23515E-5
0.002560904
-6.8423396E-4
-0.0054766824
-0.0041421866
-0.0025816155
-0.0019471974
-0.0020952986
-0.002837066
-7.972974E-4
0.001416468
0.0018464936
0.0014419241
5.7791267E-4
7.1118254E-4
8.640805E-4
0.0010507492
0.0011063517
-4.7717168E-4
1.7372113E-4
0.0022840162
0.0013770565
9.919861E-4
0.0014112174
7.3124457E-4
0.0021122356
0.0032641725
0.0022753456
0.002522848
0.0027360304
0.001630753
5.8594067E-4
5.810688E-5
0.0010002645
0.0014441432
3.26356E-4
-3.932344E-5
-9.7536953E-4
-0.002390618
-0.0019421923
-7.258677E-4
4.2791793E-4
2.2475731E-4
-0.0016226945
-0.0027538901
-0.002337267
2.5250327E-5
3.7165484E-4
-0.0037010137
-0.0043961797
-0.0010126823
-6.754206E-4
-0.0018526593
-0.0013999484
-0.0011911935
-0.0011653632
-2.8566644E-4
-0.0013103219
-0.0029581753
-5.604228E-4
0.0015331507
6.3062715E-4
8.904036E-4
0.0011708625
8.004452E-4
6.619832E-4
-4.628662E-4
-6.6623744E-4
2.9255886E-4
0.0018381071
0.0042133443
0.0034592433
7.749677E-4
0.001563444
0.0022576507
-6.2188855E-4
-0.0025559133
-0.0030336287
-0.003975081
-0.0023905996
-2.4475397E-5
2.6476235E-4
9.09537E-4
1.8938993E-4
-0.0011570497
3.6145223E-4
3.752358E-4
-0.0010236647
-2.899367E-5
1.501377E-4
-4.931137E-4
7.6833426E-4
0.0012756264
-8.651113E-4
-0.0016860934
0.0011673577
0.0028174499
0.002789116
0.0027009319
-0.001478314
-0.0029877534
0.0020806862
8.7376975E-4
-0.0039024376
-0.0015041176
0.0011430415
3.469211E-4
7.7620154E-4
0.0011048682
3.633457E-4
7.492473E-4
6.257948E-4
-0.0013354567
-0.0020060209
-7.4970647E-4
9.26735E-4
0.0021211319
0.00187976
0.0014882687
-1.5516113E-4
-0.0014151427
0.0021125674
0.0033677223
-9.2933193E-4
-0.003359533
-0.0023023451
-4.6076518E-4
-0.0010731227
-0.0022865706
-0.0010862903
-9.4696647E-4
-0.0010706057
-0.0010435436
-0.0014548806
-3.94878E-5
-2.1253918E-4
-9.63135E-4
-5.750341E-4
-0.0011880143
3.3285926E-4
0.0011026019
3.8313336E-4
0.0019913109
0.0012721965
4.4559778E-4
0.0018304017
0.0013666716
0.0027584468
0.004349029
0.0013773701
-0.0014218119
-0.001473285
-0.0010280161
-0.0016776565
-0.0023295707
-0.0019985016
-0.0020450775
-0.0015036608
-5.2890275E-4
-5.1894307E-4
1.4047173E-4
9.2031446E-4
-1.5642229E-4
-0.0019105776
-0.002177525
-0.0016077372
-0.0016216225
-5.4593757E-4
6.791365E-4
-3.1591038E-4
-0.0010463379
-4.6092662E-4
7.9663185E-4
0.0025100054
0.0020684984
4.5555734E-4
4.2173397E-5
-8.0669415E-4
-8.849353E-4
0.0010502671
0.0015332634
-2.3126448E-4
-9.0251374E-4
7.3635735E-4
0.0012787428
-8.8323146E-4
-0.0017678372
-7.793381E-4
-1.474947E-4
0.0019702907
0.00419774
0.0038687913
0.0026997225
-4.9306074E-4
-0.0040672
-0.002952176
-9.83283E-4
-8.90702E-4
6.150979E-4
0.0012059532
-7.6933164E-4
-0.0018639697
-0.0013404428
2.918555E-5
4.0769528E-4
-0.0010556887
-0.0012786578
-0.0015632852
-0.003022295
-0.002085886
-6.4213807E-4
5.101447E-4
0.0019986888
2.491363E-4
-7.6679065E-4
0.0018243805
0.0027456158
0.0025197284
0.0015654742
-0.001548187
-0.0017992134
0.0014062412
0.0022897185
6.063546E-4
-3.0133032E-4
1.8867462E-4
4.211916E-4
-6.197831E-4
-3.6728042E-4
-1.9193471E-4
-0.0033217955
-0.0024524815
0.00204862
0.0014465648
-5.164632E-5
-5.414186E-4
-7.52805E-4
1.8924102E-5
-0.0030260887
-0.0028179982
0.0015311359
3.9023612E-4
0.001010513
0.0035761802
0.002136428
7.588222E-4
-0.0011578052
-1.5838825E-4
0.0028209225
9.2072965E-4
5.003404E-4
0.0019003338
-6.532137E-5
-0.0020338744
-0.001881638
3.352854E-4
0.0012040148
-7.067572E-4
-0.0019967037
-0.002754529
-0.0020365443
-1.056612E-4
0.0015061754
0.0031145199
8.1886235E-4
-0.0020982355
9.0084504E-5
5.7442376E-4
-6.6314137E-4
0.001536293
0.0018390283
-8.907305E-4
-0.0024937254
-0.002137754
-4.5940382E-4
4.0773135E-5
4.136518E-4
0.0010065453
-0.0010197195
-0.0019487169
2.475313E-4
0.0020685536
0.0010116356
-0.0015085947
-5.697916E-4
9.798913E-4
7.257329E-4
0.0020812836
0.0012325551
-7.058333E-4
8.56807E-4
0.0017528845
5.06429E-4
-3.3359954E-4
8.032336E-4
0.0019137119
0.0014282712
0.0016911458
0.0017132957
0.0026754637
0.0033804413
-9.59785E-5
-0.0018540309
-0.0021787214
-0.0032173381
-4.1827725E-4
1.6869156E-4
-0.0029484585
-0.0031790142
-0.0022724872
-9.895347E-4
0.0010646512
0.0014391633
2.611677E-4
-1.3559747E-4
-9.909294E-5
-0.0016137592
-0.0018591725
-0.001472012
-0.0024020255
-1.5100464E-4
0.0012159633
-0.0017112823
-0.0017058308
7.1151E-6
3.729492E-4
0.0021320262
0.002818863
7.9556793E-4
-6.3529116E-4
4.008399E-4
0.002182846
0.0013685324
-0.0010406347
-6.5247144E-4
0.0022007192
0.0027228093
7.651565E-4
3.9853505E-4
6.5496884E-4
-5.4036913E-4
-0.0012458387
-3.7842683E-4
0.0021368533
0.0036624814
0.0011904284
-0.0012967986
-0.0012159273
-0.0010703144
-0.0013760234
-0.0020611135
-0.0017636835
-2.6764083E-4
-2.5986848E-4
-4.0475713E-4
-8.135099E-4
-0.003007577
-0.0030208388
-0.0013437535
-5.3552206E-4
0.0020388535
0.0035933745
7.6820975E-4
-0.001408651
-0.001345122
-0.0018309522
-0.0013500651
1.2964621E-4
4.288887E-4
3.4732075E-4
0.0011067493
0.003689085
0.0053518247
0.0030132863
7.286705E-4
-0.0011122827
-0.0037392357
-0.003521612
-0.002430267
-4.6703027E-4
0.003405908
0.001853776
-0.0019926156
-2.3206585E-4
0.0013612931
-7.906752E-5
-5.9920177E-4
-8.9506654E-4
-0.0013877632
-0.001097781
-0.0010832532
-7.7404187E-4
7.897775E-4
0.0015529543
7.427782E-4
1.4589573E-4
-4.9803546E-4
-0.0015369062
-4.8071696E-4
0.0013261549
3.6727497E-4
1.6353569E-4
0.0019750923
0.0012637238
-7.6205895E-4
-0.0014219328
-1.292852E-5
0.0024139779
0.001492383
3.500489E-4
0.0021280628
0.0015333951
-4.6430487E-4
-0.0015629632
-0.0026649532
-0.0013506887
3.777792E-4
1.5891617E-4
-1.6602091E-4
-5.5969623E-4
-4.963473E-4
-1.1196859E-5
3.258284E-4
2.880257E-4
-4.2174867E-4
-1.6876792E-4
-6.077366E-4
-0.0017712587
-6.3850026E-4
1.767737E-4
9.182608E-4
0.0015872484
-9.2842226E-4
-0.0020745902
-6.807489E-4
1.3742536E-4
0.0012649109
0.0011823069
1.7345326E-4
-4.4465592E-4
-0.0012256826
-3.6515927E-4
7.28511E-4
7.0163E-4
9.641387E-4
9.1545423E-4
0.0014921832
0.0027084404
0.0024314309
0.0010575269
1.1098215E-4
-2.1793631E-4
-5.309438E-4
-2.8869585E-4
-7.942712E-4
-0.0021543677
-3.2996765E-4
0.0023084881
0.002029526
0.0015359306
5.7101506E-4
-0.0014369395
-0.0012966925
3.2324093E-5
-5.4544135E-4
-0.0016576614
-0.0024367557
-0.0031547311
-0.0013746456
5.294478E-4
-0.001166046
-0.0030721049
-0.0020388311
0.0011304772
0.002290115
8.5162977E-4
0.0010253885
8.754682E-4
3.1689205E-4
0.0011340493
3.882364E-4
6.186661E-4
0.0017460794
-3.8918701E-4
-0.001583849
9.489007E-4
0.0023616115
7.120868E-4
5.0073117E-4
0.0010086244
-4.967229E-4
4.1365574E-4
0.0025213866
0.0031368528
0.0027905758
-5.35767E-4
-0.0022255052
-0.0011464226
-0.00135584
-0.0012059722
-7.573163E-4
3.7800925E-4
-5.359334E-4
-0.0040769
-0.0026829317
-3.5816254E-4
-7.271084E-5
0.0016268748
-8.7936653E-4
-0.0042063836
-0.0010342658
0.0021986717
6.360368E-5
-0.0029364715
-0.0018198957
4.3466254E-4
0.0011462524
0.0012846217
5.0681265E-4
0.0012411455
0.0029698766
0.0026710795
0.0012545654
-0.0010162509
-0.001529741
8.3376473E-4
0.0018726783
0.0019015896
0.001972275
4.0074968E-4
-5.9315003E-4
3.5381585E-4
4.1081078E-4
-3.857285E-4
-9.496661E-4
-0.0022082091
-0.0020843486
-4.9741345E-4
-7.81098E-4
-0.001521718
-6.847073E-4
9.6353535E-5
-2.3803712E-4
-1.881452E-4
-3.540206E-4
-0.0019939856
-6.643015E-4
0.0028648074
0.0032584283
0.0012188245
-0.0013852029
-6.9432595E-6
0.0027456677
-4.269997E-4
-0.0014938402
0.0011034044
1.8117059E-4
-2.0180183E-4
1.9082241E-4
-5.118989E-4
4.9350496E-5
9.284599E-4
0.0011050395
-9.1845455E-4
-0.0024720884
1.2879397E-4
0.001820626
5.9339247E-4
2.5307966E-4
-1.6928496E-4
-0.0017822909
-0.0013367657
-2.9617368E-4
-0.0014575846
-0.001612517
-9.821986E-4
-8.6654865E-5
9.60436E-4
-0.0020698544
-0.0037299655
-6.853235E-5
0.0018881512
0.0012172796
9.118539E-4
0.0020525735
0.0022573913
2.6770588E-4
-2.5862796E-4
-6.136863E-4
3.792614E-4
0.0025048193
1.8288073E-4
-9.829869E-4
0.0010789724
0.0018710026
0.0022067996
0.0012484785
0.0010185412
0.0016439551
8.1625656E-4
3.3538806E-4
-6.4811093E-4
-5.225953E-4
4.8818125E-5
-0.0012083749
-9.488147E-4
-0.0015698407
-0.0030208256
-0.0026019395
-0.002620857
-0.002182379
-0.0019941702
-0.0015325125
4.3831693E-4
0.0011932661
0.001371736
4.4281068E-4
-6.786668E-4
-4.2183496E-4
-1.8675812E-4
7.2493043E-4
-2.9433292E-4
-3.4930883E-4
0.0021348153
-2.5680265E-4
-9.201952E-4
0.0024189611
0.0011080062
2.2126916E-4
0.002484285
0.0026303567
7.0555235E-4
0.0010831408
0.0026140595
-1.8534006E-4
-0.0018876618
-0.0010585012
-0.0016792963
4.808219E-4
9.825103E-4
-4.7695258E-4
9.8026E-4
-0.0012477743
-0.0025349285
-2.6977857E-4
-0.002196616
-0.0015319824
0.0022210656
9.2990726E-4
-6.147488E-4
3.0450162E-4
3.6464044E-4
6.4504583E-4
0.0018455468
0.0018752876
5.359476E-4
-2.4511543E-4
-6.1485905E-4
-0.0011029101
-5.3404534E-4
2.153946E-4
4.8016736E-4
0.0020403932
0.0027191106
3.6110435E-4
-5.9072743E-4
-2.4940848E-4
-0.0018180395
-0.0012523688
2.4027433E-4
-0.0017160377
-0.0022737072
-0.0011299545
-0.0022871406
-0.0021360675
-5.2948006E-5
-3.3423456E-4
-0.0015768865
-8.406418E-4
4.139002E-6
-3.9939996E-4
2.1887639E-4
0.0015400423
8.5204694E-4
-3.438245E-4
-2.4719074E-4
6.027089E-5
9.2522684E-4
0.0019108324
0.0017999825
0.0017673167
0.0018023611
0.00174001
0.002875337
0.00369009
0.0021390496
1.357329E-4
1.3642159E-4
-6.350692E-5
-0.0015671395
-0.0012624064
-6.036488E-4
-8.077394E-4
1.16899144E-4
1.5274233E-4
7.790978E-4
0.0028551142
9.591862E-4
-0.0027605828
-0.003250379
-0.001930122
-0.0012448683
-0.0012644138
-0.0012051907
-0.0026782237
-0.0028895598
4.349892E-4
-7.5774593E-4
-0.004250695
-0.0014335733
0.0013233727
7.401127E-4
0.0012644061
0.0010229528
-2.7246092E-4
1.3032652E-4
0.0010026516
0.001761504
0.0021090382
-6.221067E-4
-0.0024106551
0.0011369546
0.0027018557
4.7096374E-4
5.666394E-4
9.161318E-4
9.708593E-5
3.7180557E-4
6.078364E-4
8.922553E-4
0.0014322951
6.799268E-4
-6.121645E-4
-3.057565E-4
2.5573373E-4
-4.8595906E-4
-2.763468E-4
8.917817E-5
-1.0767805E-4
0.0014596967
0.0021044805
0.0010531174
3.1494102E-4
-0.0016107644
-0.0025584998
-0.0013599469
-3.2360246E-4
7.4795925E-4
2.3609707E-4
-6.9135556E-4
6.499455E-4
6.1867543E-4
-5.5980595E-4
-9.763765E-4
-0.0029636142
-0.003836073
-0.0018773207
-4.808888E-4
-1.0335159E-4
-2.5102054E-4
-3.5328753E-4
2.9441912E-4
4.5629143E-4
5.675007E-5
5.2644167E-4
0.0014206992