5.0697563E-5
0.002640722
0.0010364807
-0.004428006
-0.004114312
-2.7738875E-4
0.0014234897
9.895412E-4
5.114963E-4
0.0011546814
0.00126638
0.0018559851
0.003100626
0.002945977
0.0014016875
-0.0020683412
-0.0040526018
-0.0026581578
-0.0019837068
-0.0014578088
-9.526641E-4
-0.0018858579
-0.0018318173
-0.0014569493
-6.304371E-4
0.0032812837
0.0058829715
0.0030920317
3.7585318E-4
-7.106213E-5
-0.001455041
-0.0011516114
-4.2364627E-4
-0.0019482443
-0.0015605311
-0.0013509395
-0.0015664843
7.3912676E-4
7.62046E-4
-0.0011901682
-0.0023394418
-0.0021804525
6.9999497E-4
0.0027456887
0.002639165
0.0012922497
-0.0010901848
-0.0020416817
-0.0013325523
7.1430596E-4
0.0016758878
0.001304078
0.0018467037
-1.343598E-4
-0.001149491
0.0014332935
0.002955809
0.00562762
0.0060014427
0.0022874852
0.0012613834
3.385761E-4
-0.0018418204
-0.003650456
-0.005107305
-0.0043597836
-0.003854577
-0.0030329486
-0.0019861113
-0.002263282
8.378371E-5
3.72293E-4
-0.002678105
-0.001587176
1.9493572E-4
4.96228E-4
0.0016192618
0.0017162728
0.0016006747
0.0011538253
6.318066E-4
0.002399081
0.003596445
0.0037819447
0.004905531
0.0028981117
-3.2842276E-4
3.9338964E-4
2.5712312E-4
-0.0012251599
-0.0014591266
-0.0030346063
-0.0027563341
-0.002166764
-0.0051777237
-0.004668952
-0.0015960602
-0.00178844
-0.0016867233
-2.467844E-6
7.0591917E-4
-3.4369266E-4
-6.166E-4
0.0014098198
0.001968642
6.820347E-4
3.544817E-4
0.0012224498
0.0031058849
0.0044366457
0.0039158226
0.0032792261
0.003435211
0.0032664132
0.0026598882
0.001877654
-3.1094174E-4
-0.0034454935
-0.004206785
-0.002017876
-7.55024E-5
4.7033816E-5
-0.0019308799
-0.0047374717
-0.0042998455
-0.001557043
2.7405285E-5
-6.5274106E-4
-0.0036697646
-0.0024280979
0.0023778016
0.0011917102
-9.0204395E-4
4.1979227E-5
-2.9333937E-4
0.0010524512
0.0022470225
0.0011692011
9.320752E-4
-5.6873146E-4
-0.0012811989
0.0013780112
0.002920698
0.0018258041
1.3564531E-4
-3.3329238E-4
-1.3509234E-4
2.3965971E-4
0.001656887
0.0020270124
0.0011536262
1.5593697E-4
-0.0014055538
-0.0020076043
-0.002126665
-0.002363305
-8.486427E-4
0.0018121968
0.0027803439
5.727027E-4
-8.8642695E-4
9.387123E-5
2.6151276E-4
0.0012502951
0.0013723992
-9.463988E-4
-3.8868593E-4
-5.0625275E-4
-0.0016781337
0.0014049971
8.648079E-4
-0.0034421778
-0.0028055252
-0.001721631
-0.0021289021
4.5288E-4
0.0020285747
2.2246146E-4
6.1379664E-4
0.002128648
-1.031615E-4
-0.0012483592
0.0010994128
0.0015967
3.3835246E-4
-2.0168578E-4
-3.951171E-4
-6.677865E-4
-3.7056973E-4
8.8761596E-4
0.001841363
0.002475645
0.0010031242
-0.0029257762
-0.0033116303
-5.148755E-4
0.0010529035
0.0010300608
-1.6400035E-4
9.954909E-4
0.0023778896
-6.972961E-4
-0.002285101
-9.793594E-4
-0.001573318
-0.0016778128
5.348632E-4
0.0013652492
3.1423458E-4
0.0011753954
0.0012021427
-0.0020078006
-0.0015142021
0.0017283367
0.0027208542
0.0035097038
0.0019541935
-0.0013301633
-0.0015172503
-9.566413E-4
-0.0010907799
-0.0012906264
-0.0013594656
-1.52439E-4
1.0460758E-4
-2.4819424E-4
2.596034E-4
-3.5913463E-4
-2.2795751E-4
5.778317E-4
2.3321551E-4
6.4669194E-4
-9.902838E-5
-0.0013129109
-9.395841E-4
-0.0015478149
-5.894849E-4
6.2116364E-4
-7.057523E-4
9.085837E-4
0.0021362477
-1.8615309E-4
-2.3819489E-4
-9.302335E-5
-0.0010324501
1.6825012E-4
0.001114559
7.699726E-4
0.0010227774
9.854364E-4
-2.6320372E-4
1.8700758E-4
0.0015669112
4.6819423E-5
-3.9215936E-4
6.1962777E-4
-2.1901818E-4
9.806879E-4
0.002044214
3.0553485E-5
-0.0012381052
-0.0013736143
-9.675174E-5
6.4076507E-4
-6.404619E-4
-9.590985E-4
-0.0016801902
-0.0013727199
7.171876E-4
4.658921E-4
5.8423384E-4
0.0010094409
-7.9260743E-4
-0.0018402138
-0.0019790193
-0.0016220625
-6.933555E-4
4.693883E-4
0.0015076206
5.21949E-4
-3.453862E-4
1.4488559E-4
0.0010968134
0.0027740567
0.0016534675
-0.0011422903
-0.0015389748
-7.977728E-4
4.3024425E-4
2.683196E-4
-6.524678E-4
8.650263E-4
7.646652E-4
-0.0015933104
-0.0014345554
-4.2381068E-4
-1.10737026E-4
0.001304952
0.0019097021
9.588901E-4
0.0011294374
8.9716195E-4
-4.6722766E-4
3.5774076E-4
0.0017032118
3.246058E-4
-0.0012699034
-2.2967163E-4
5.8571657E-4
-7.978879E-4
-3.5144924E-4
0.0011834449
1.6212293E-4
-7.035927E-4
1.3366519E-4
8.4828807E-4
4.8612306E-4
-3.8122648E-4
-0.0015596646
-0.0024958407
-5.4371735E-4
-1.7421531E-4
-0.0037878072
-0.0029084722
7.0517976E-4
0.0015998227
0.0024344565
0.0013492058
-0.0013863215
-0.0017332027
-4.1946518E-4
4.5030593E-4
-0.0013405281
-0.0035764903
-0.0019632685
0.0011198367
0.0026932082
0.0030969556
0.0029080878
0.0030130474
0.0028065844
8.79366E-4
-0.0010802118
-7.2695967E-4
0.0013621415
0.0031528913
0.0035633275
0.0024398097
-7.284925E-4
-0.0032946714
-0.0030507667
-0.0029748909
-0.0011536372
0.0018318342
-7.335295E-4
-0.0020824994
0.002098593
0.0018943868
-0.0020129015
-0.0028059143
-0.0016646096
-0.0011856831
-0.00237911
-0.0036606633
-0.002545633
-8.166373E-4
-3.0439344E-4
0.0010889127
0.0018516083
5.138509E-4
9.6278964E-4
0.0014208202
8.058496E-4
0.00280394
0.004765926
0.004200484
0.0010518271
-0.0015760304
2.2800286E-4
1.1750124E-5
-0.0028510063
-0.0022494346
-0.0019490179
-0.0021311555
2.2631882E-4
0.0010903019
-9.8911245E-5
8.1155717E-4
0.0025589266
0.00212709
0.002974994
0.005144447
0.0038344923
-7.634979E-4
-0.0055185077
-0.0046487376
-0.0010839168
-0.0031590012
-0.0035582574
4.771071E-4
0.0018439296
0.0020023005
1.6369575E-4
-0.0024585198
-0.0011166356
-8.152838E-4
-0.0031175234
-0.0024791441
8.6841435E-4
0.0018399135
-2.832335E-4
-0.0010776418
-2.11296E-4
-5.2596757E-4
-0.0022866367
-0.0028951967
-8.082138E-4
6.343459E-4
0.0021316332
0.0059597595
0.008220436
0.0079995515
0.0056198356
0.001770099
3.1173427E-4
9.2745875E-4
0.002401611
0.0022032382
-0.0021623462
-0.0057812
-0.006690421
-0.0058224904
-0.002803304
-0.001997185
-0.003519138
-0.002570438
9.115471E-5
6.140272E-4
-0.0016705643
-0.002232055
-5.0315325E-4
-0.0010003342
-0.0017313979
-4.3724722E-4
7.354946E-4
0.0013460277
7.38897E-4
2.774322E-4
0.0020380677
0.0036494771
0.0037740928
0.0025225882
5.7739695E-4
1.3170368E-4
0.0011391478
0.0040052393
0.0066808974
0.0047575342
0.002319729
0.001437732
-0.0015939343
-0.0036781228
-0.0033444553
-0.0029900803
-0.00271186
-0.0027748607
-0.0018122002
-1.2896948E-4
0.0010913588
0.0017718503
-4.5444505E-4
-0.002826138
-0.002301709
-0.001875511
-0.001970349
-0.001958886
-0.0019772428
-0.0023233837
-0.002574127
-0.0013841807
-0.0012413119
-0.0013212456
4.447432E-4
8.9910143E-4
0.0014121282
0.0024618255
0.0016851889
0.0014888225
0.0018336328
0.0022076517
0.003170404
0.0031652243
0.0037400462
0.0043845596
0.003560324
0.0030979114
8.1104005E-4
-0.0014342777
0.0015468551
0.0035590124
2.3356047E-4
-0.0026349204
-0.002885552
-0.002188687
-5.3929846E-4
0.0010319342
-6.1953126E-4
-0.004680251
-0.0055123763
-0.003376944
-0.0033327038
-0.0046484116
-0.003422269
-0.0010702531
-0.0018653529
-0.0032636372
-0.0019085957
4.2936637E-5
0.0025219365
0.0035656695
0.0014457518
8.474746E-4
0.0017223274
0.0010884604
3.9032722E-4
0.0016149048
0.0028401124
0.0016012986
0.002178943
0.0042708335
0.0042836056
0.0053349785
0.0034169075
-0.0017555198
-0.0023155862
-0.0011123721
4.2362153E-4
0.0015473827
-9.6795586E-4
-0.0011094011
6.001748E-4
-0.0014639416
-0.0040115463
-0.0034897586
-1.2362532E-5
0.0012615559
-0.0019364987
-0.0030156411
-0.0018694773
-0.0015455094
2.7476365E-4
6.5267103E-4
-0.002208486
-0.0028324153
-7.946063E-4
0.0010325931
0.0013428816
-4.648001E-4
-0.001435941
-5.882961E-4
-1.103234E-4
2.1900937E-4
0.0013820437
0.002569151
0.001611285
3.7986768E-4
9.301894E-4
5.2851514E-4
2.006364E-4
1.6355453E-4
-5.612126E-4
0.0013025649
0.0027283465
0.0018531546
0.0023362492
0.0017795197
-9.5660635E-4
-0.0030433964
-0.0024940798
-6.705218E-5
5.1390403E-4
0.0012843056
0.0031986048
0.0024254676
0.00214567
0.00217619
-0.0013199744
-0.0021060056
-2.0565538E-4
-0.0020838822
-0.0031527902
-0.0023245262
-0.0026490386
-4.2864928E-4
4.403245E-4
-0.0031322718
-0.0038175331
-0.0021245829
-0.0019040989
-0.001707246
-0.0013818317
2.8620975E-4
0.0030005483
0.0030151517
0.0016103273
0.0014500469
9.3030185E-4
8.7559415E-4
0.0015052337
-6.870986E-4
-0.0012673843
0.0027521385
0.0028135264
-9.79358E-4
-0.0014335829
0.00113473
0.004600587
0.0045875553
-1.2308185E-4
-0.0024150359
-0.0016023116
-0.0010586134
-2.1973731E-4
5.8555044E-5
-1.9639001E-4
-0.0018073334
-0.004009882
-0.0015565645
5.0056307E-4
-0.00196327
-0.0011175283
0.0016703116
0.00192441
0.0016580464
2.8173157E-4
-9.143844E-4
-0.0028954793
-0.004778753
1.7346186E-4
0.0050688926
0.0037847024
0.003922072
0.0050353403
0.002736642
-0.0012459008
-0.004073472
-0.0030954476
1.16294264E-4
0.0018893306
0.0016994014
0.0011244176
4.4932967E-4
-0.0015169785
-0.002272144
-4.1264237E-4
-1.8306206E-4
-0.0034531148
-0.005993097
-0.0033293597
-6.736723E-5
-4.62601E-4
9.481338E-4
0.003655739
0.0034958988
0.0022397146
7.154926E-5
-0.0020587428
-0.0027908057
-0.0027264568
-0.0012594762
2.8498967E-5
5.226373E-6
-9.25716E-4
-0.0017115895
5.729281E-4
0.0039070137
0.005178153
0.0048753433
0.0030858172
7.141812E-4
-0.001965716
-0.002437639
-6.446733E-4
-0.0029507
-0.005416801
-0.0022075619
0.0016135388
0.0014085841
-0.002266928
-0.0010207421
0.0051290574
0.004831985
0.0027589642
0.0041666557
0.0055610365
0.011064687
0.0149099305
0.006682448
-0.007006485
-0.015117955
-0.014747325
-0.010518638
-0.005953751
-0.0019211724
6.49243E-4
0.005162798
0.0075389883
7.7148085E-4
-0.00589316
-0.006426125
-0.006592445
-0.005999238
-0.0041483394
-0.0038176987
-0.003639163
-0.0031074912
-0.0018867393
7.000097E-5
5.692113E-4
0.002029163
0.004321149
0.0045256144
0.0065019536
0.008733003
0.008146486
0.008621416
0.007274629
0.0034368262
0.0041932547
0.007225188
0.005704642
0.0021608528
0.0022954864
0.002103324
-5.640026E-4
7.204119E-4
0.0010951342
-0.002285429
-8.184189E-4
0.0010646776
-0.002438453
-0.007926625
-0.014012467
-0.015824212
-0.011141579
-0.005175077
-0.001609143
-0.0020158968
-0.0042544696
-0.005302765
-0.005722082
-0.005484119
-0.004245215
-0.0034346364
-0.0019956362
0.0014061924
0.003005295
0.0038301938
0.0063640354
0.0055772434
0.0039916304
0.0047409046
0.0042967955
0.0048087095
0.0047610975
0.0037922976
0.005553044
0.005529191
0.004490693
0.0050349524
0.004024786
0.0032112154
0.002748897
-1.0625056E-4
-0.0035774752
-0.0040097325
-0.002137373
-6.6101673E-4
3.191934E-4
-1.01044076E-4
0.0015479545
0.0035639661
-0.002225516
-0.006804571
-0.0046678134
-0.004061084
-0.0065099783
-0.011309853
-0.010609838
-0.0022577308
0.001992185
0.0027585626
0.0031454426
0.0026281755
0.0034775874
0.002661106
0.0013564285
7.03392E-4
-0.0023432826
-0.0060525457
-0.0093402555
-0.010774836
-0.009601465
-0.005787819
6.5335643E-4
0.005809023
0.011813126
0.016499268
0.013679482
0.013743419
0.01856643
0.017694453
0.013331781
0.008474557
0.0046975114
0.002481723
-0.0010248283
-0.0013535407
-0.0012130392
-0.0050520822
-0.007488421
-0.013078657
-0.023198066
-0.02966808
-0.030501094
-0.025231631
-0.019088406
-0.014308612
-0.006445223
8.709309E-4
0.0064723673
0.009409435
0.008867966
0.013119091
0.020845726
0.025501743
0.027475724
0.024823993
0.014394476
-5.507133E-4
-0.011710613
-0.018534157
-0.021120183
-0.014995168
-0.009109531
-0.0079083275
1.4911429E-4
0.014596651
0.020642646
0.011549859
-0.005383608
-0.024684787
-0.0395904
-0.037476756
-0.021900361
-0.004345103
0.01096483
0.021778043
0.032903805
0.049611468
0.0674377
0.07456959
0.0642223
0.04261136
0.018758891
9.6008414E-4
-0.017227184
-0.04974622
-0.08019064
-0.08961503
-0.08766068
-0.08560879
-0.08189918
-0.062170994
-0.023045039
0.009441716
0.023103645
0.032600492
0.039689507
0.04023337
0.042102654
0.04722495
0.05397937
0.06079522
0.05777798
0.04344161
0.028748788
0.020297868
0.0101986155
-0.003773116
-0.002514326
0.0035152603
-0.014960323
-0.04053209
-0.05001219
-0.043224808
-0.023437446
-0.00958023
-0.00878603
-0.009503407
-0.012315817
-0.016951276
-0.020004472
-0.019060673
-0.0127924085
-0.007872683
-0.005024884
0.0022371933
0.018079
0.03901554
0.061005358
0.080215536
0.07230243
0.047401533
0.04665674
0.029677477
-0.03802947
-0.09590852
-0.1138819
-0.10756488
-0.09879532
-0.115390174
-0.12999383
-0.111058585
-0.06646651
0.006672134
0.083022535
0.12706041
0.13792694
0.12308119
0.11882857
0.12554957
0.08685974
0.019691046
-0.022237767
-0.01995188
0.013607721
0.01895069
-0.001496984
0.0091087725
0.02109787
0.00670594
0.013936548
0.034467127
0.011127416
-0.012354183
0.008708323
0.014153549
0.01912947
0.042772997
-0.0187963
-0.13629039
-0.1741254
-0.14296564
-0.11451538
-0.104704365
-0.09367567
-0.054802973
-0.0120254485
-0.006426281
0.019240329
0.08321094
0.067469515
-0.0074105025
-0.04290675
-0.06684535
-0.053606827
0.01711629
0.067778856
0.073326886
0.0787608
0.1250286
0.1429627
0.104828045
0.09616075
0.088180915
0.061795063
0.03166634
-0.016204238
-0.002533893
0.04596738
0.043628916
0.02334481
0.0090091685
5.8012904E-4
-0.05147127
-0.12325074
-0.12513745
-0.12872863
-0.16885531
-0.18777916
-0.14666617
-0.047296513
-0.015033773
-0.040486377
-0.0035225025
0.048301287
0.098499745
0.17390259
0.2024927
0.14429834
0.066277914
0.02244104
-0.024369013
-0.064094484
-0.07978556
-0.109450884
-0.10261416
-0.042042337
0.023066161
0.081308864
0.08941683
0.0681839
0.073397
0.052215222
-0.0036145316
-0.037206057
-0.076279834
-0.13789274
-0.14363138
-0.081764854
-0.021272685
0.027603166
0.06686912
0.07493554
0.0602636
0.051812056
0.048510112
0.020368505
-0.0020568585
0.0073021865
0.002925572
-0.0065838955
-9.79653E-4
-0.004663138
-0.01078974
-0.011019379
-0.012247244
-0.017271267
-0.019814981
-0.014272962
-0.01245079
-0.0052917455
0.008514523
0.012071175
0.016980292
0.021147529
0.01623988
0.012044535
0.0060346257
-6.545946E-5
-0.0023062439
-0.003978423
-0.0049232948
-0.0062757325
-0.005636306
-0.003604126
-0.00185892
0.0014576854
0.0029454455
0.0036818162
0.0024417038
-0.0045276983
-0.011025066
-0.012982922
-0.009504992
-0.00391369
-0.0034327672
-0.004614891
-0.0028459027
-0.0021960684
-0.0032657862
-0.0024514133
-4.7046595E-4
-3.3598638E-4
-0.0025564914
-0.0041868663
-0.0027134093
-2.1909774E-4
0.0017882421
0.004024805
0.0049833036
0.004426859
0.005206151
0.007006569
0.0068446514
0.0072009424
0.009842075
0.009597379
0.0059639034
0.0033175377
0.0034288797
0.0041234805
0.0017642751
-5.5779816E-5
0.0011048826
6.396906E-4
-0.0012520765
-0.0032770496
-0.0053243837
-0.0055478364
-0.0038527409
-3.7592198E-4
0.0016967582
4.0995367E-4
-0.0011435903
-0.0012455344
-3.5813183E-4
-0.0019097013
-0.0025845673
0.0010289077
2.749216E-4
-0.0035978118
-0.0053301062
-0.0057006297
-0.0025371967
-0.0014200858
-0.003437962
-0.0038491068
-0.0036260064
-5.871485E-4
0.0019623425
0.0031322453
0.0042774715
0.0016619203
0.0014024738
5.708847E-4
-0.0026195103
9.849609E-5
-9.772027E-5
-0.0014858638
0.002018273
0.0018706803
0.0013575042
0.002779824
0.0041855066
0.0039274623
9.567745E-4
0.0022841091
0.002501931
8.816246E-4
0.0026815524
-0.0010769679
-0.002388611
0.0032947138
0.002818099
-0.0015727222
-0.005574713
-0.006293715
-0.003214978
-0.002579272
-0.0016991624
-0.0015599569
-0.0034800267
-0.0010860304
0.00221386
0.001493997
-4.753227E-4
-9.784033E-4
-0.001766353
-0.0030852123
-7.703244E-4
0.0018111604
8.4750494E-4
2.8027038E-4
0.0014026267
0.003148023
0.0036062095
0.0017525594
1.9400215E-4
5.456586E-4
0.0022400345
0.0023898638
2.898402E-4
-3.9790172E-4
3.435068E-4
-7.183783E-5
-0.0012046901
-0.0016826622
-0.0021494115
-0.0022443258
7.47094E-5
0.001266975
-0.0011453145
-0.0012980509
9.1353426E-4
0.0011174232
2.0359615E-4
-0.001964948
-0.0025296835
7.274074E-4
8.3036284E-4
-0.0015279297
-8.0486515E-4
1.13716516E-4
2.9319795E-4
-4.270797E-4
-0.0018287892
-4.0002886E-4
7.338859E-4
-8.4724865E-4
-9.050849E-4
7.355754E-4
7.8405E-4
-4.5480186E-4
-8.9715014E-4
-8.3880196E-4
-8.0734334E-4
-5.528073E-4
8.143765E-4
0.002010754
-7.0683565E-4
-0.0027217972
-7.2386884E-4
-4.1807387E-5
3.8709474E-4
5.823127E-4
-0.0010377871
-5.568646E-4
8.948264E-4
0.0012464348
5.6250463E-4
0.0011196207
0.0030017416
1.5213796E-4
-0.0017744041
7.547155E-4
-2.5441693E-4
-0.0014002164
-6.8215915E-4
-4.6787018E-4
0.0017487144
0.0017275973
-8.702764E-4
-9.964814E-4
-7.715478E-4
-8.056505E-4
8.1448385E-4
0.0016699808
4.511274E-4
-9.22655E-5
-7.6849545E-5
-6.957631E-4
-6.8702386E-4
-9.3283E-4
-0.0013323578
-0.0016619447
-0.0022732844
-0.001047753
3.0420208E-4
0.0015452693
0.002963883
2.5522488E-4
-0.0024149343
-5.2759226E-4
0.0013659525
6.3911977E-4
-0.0015201092
-0.0021452399
-0.0015693201
-0.0018264344
-0.0010452826
1.371277E-4
6.2279135E-4
9.596616E-4
2.77747E-4
2.270031E-4
0.0015679281
0.0018995778
0.0010009786
-1.5093891E-4
-0.0014805892
-0.0017339565
-9.1064954E-4
-0.0016162266
-0.0012689113
0.002138162
0.00307313
0.0018207874
0.0012681559
-1.768666E-4
-5.861922E-4
-7.7295385E-4
-0.0019388956
-2.2701349E-4
0.0014345961
-6.812488E-5
-0.0012950326
-0.0011657963
4.919851E-5
7.113822E-4
-9.0880616E-4
-0.002111561
-0.0011787476
-1.66241E-4
-4.1015405E-4
5.313761E-5
0.0010091297
1.6442082E-4
-2.75072E-4
-2.2769158E-4
-6.0524646E-4
3.040791E-4
3.444147E-4
2.0063341E-4
5.935744E-4
3.4749999E-6
0.0017635325
0.0024222976
1.8994806E-4
5.352836E-4
6.538712E-4
0.001221769
0.002696981
8.1190025E-4
8.4980996E-4
0.0011369807
-0.0017257893
-0.0015532466
-0.0020620762
-0.0046449085
-0.0028820157
3.2452279E-4
4.417968E-4
-9.6884224E-4
4.397348E-5
0.0016341533
-7.478886E-4
-0.0027615798
-0.0015164533
-4.96972E-4
-2.29757E-4
5.6649576E-4
0.0013124368
4.3286E-4
4.7488116E-5
0.0015124955
0.0011709253
-4.66938E-6
0.0011713918
0.0033189077
0.0035626707
0.0015121768
7.187958E-4
0.0012116538
7.534394E-4
2.6674342E-4
-7.90978E-4
-0.0010542069
3.7630077E-4
0.0010761719
0.0014044018
-6.4127916E-4
-0.0041085314
-0.0027851993
-0.001110774
-0.004328406
-0.005326433
-9.256964E-4
0.0015237092
-1.3216172E-4
-0.0010820918
2.5631083E-4
0.0028382463
0.0027580312
-0.0010411744
-0.0021555733
-7.966668E-4
-5.6922156E-4
1.6910008E-4
9.825074E-4
0.0014821369
0.0015687364
8.3348225E-4
7.7068876E-4
3.6737448E-4
-2.8137024E-4
0.0010544101
0.003155339
0.0032137139
0.0012326008
-3.52781E-4
-0.001292382
-0.0012156427
2.788866E-4
5.3377013E-4
-2.3798046E-4
-0.0013681737
-0.0021549128
-3.5350054E-4
3.884273E-4
-0.0011302719
-8.8749774E-4
9.5252116E-4
0.0016798752
-8.7938335E-4
-0.00267814
-4.4599126E-4
1.3124324E-4
-0.001301888
-0.0012945646
-6.980123E-4
2.6718952E-4
6.366993E-4
8.928486E-5
-2.8329965E-4
2.1143196E-4
0.0013199417
2.097206E-4
-9.459231E-4
5.619326E-4
4.4069294E-4
-2.0200503E-4
1.737999E-4
-7.3355885E-4
0.0013305168
0.0034711114
1.8241823E-4
-0.0011404662
-3.820902E-4
-0.0014208334
2.7566039E-5
0.001838764
0.0018320894
9.770249E-4
-0.0017201143
-0.0023630254
-0.0011097266
-6.1988394E-4
8.2255783E-4
0.0012171377
-1.5279661E-4
-0.0014830813
-0.0013577843
0.0010875241
0.001674117
-1.7374764E-4
-6.3606416E-4
-7.103161E-6
3.0924362E-4
-1.8352404E-4
-9.048722E-4
-7.783209E-4
6.794012E-4
0.0012558711
1.2942811E-4
0.0018859998
0.002179729
-0.002867502
-0.0028138214
0.0013813571
0.0013731
0.0010880802
7.399361E-4
-0.002171993
-0.0023409743
9.087378E-4
0.001981541
1.4485123E-4
-0.0013630755
-1.595402E-4
0.0023124227
0.0011853515
-0.0012907886
-8.3366456E-4
-0.0012953705
-0.001341577
7.4284786E-4
-4.872451E-4
-0.0016304291
9.4994815E-4
0.0018917262
2.5908955E-4
-7.7887235E-4
1.6241812E-4
0.0015876942
9.884469E-4
-9.851222E-4
-0.002459186
-0.0016415077
7.324384E-4
0.001249471
8.29047E-4
6.239319E-4
-1.722888E-4
8.1472984E-4
0.0019713172
5.9857924E-4
-6.231637E-5
3.8493657E-5
5.4309276E-5
6.023884E-4
-3.9189451E-4
-6.610269E-4
4.6368642E-4
-2.1759512E-4
-1.0594582E-4
4.069308E-4
-0.00126941
-0.00206358
-0.0012697363
6.440986E-5
0.0017036933
0.0016344168
-4.918704E-4
-0.0024759788
-0.002307054
-6.514832E-4
7.258516E-4
0.0011285489
5.851442E-4
0.0012529858
0.0022514167
3.9350986E-4
-0.0011227196
-4.2578898E-4
-3.586762E-4
1.8167152E-4
0.0017053842
0.0018165765
0.0011402589
8.783156E-4
4.6549074E-4
-4.1689773E-4
-8.2805176E-4
2.5675568E-4
9.612669E-4
-5.6994817E-5
-9.888192E-4
-0.0016215469
-0.0021360002
-0.0020197737
-0.0018361104
-9.945022E-4
1.5684073E-4
4.4406956E-4
6.083323E-4
5.669703E-4
2.7346448E-4
7.1847E-4
0.0013808847
0.0010815688
4.1181167E-5
-5.7642034E-4
-3.0640882E-4
4.8588117E-4
9.7994E-4
0.0014556032
0.0024329713
0.0015248719
1.5821352E-4
0.0018530671
0.0012342877
-0.003140673
-0.0032275661
-2.3834361E-4
2.9194754E-4
3.7810864E-4
-0.001238745
-0.004843311
-0.0028550671
6.076519E-4
-0.0022834921
-0.002604217
0.00168089
0.0022966731
0.002063503
0.0017866852
-0.0011392952
-0.0010227285
0.002236472
0.0023674597
3.6187324E-4
-1.6343322E-6
2.9897518E-4
-6.264129E-4
-0.001958282
-0.0015268942
0.001568006
0.0038004555
0.0023229085
0.0011880163
0.0023136795
0.0019532412
-2.2348593E-4
-0.0027159734
-0.0051124687
-0.004254719
-3.1842545E-4
5.7291746E-4
-5.3660496E-4
6.7033793E-4
9.0789754E-4
8.391795E-4
0.002031055
-8.1405364E-5
-0.0016957708
-2.7779044E-4
-3.054273E-4
3.8726698E-4
2.4285374E-4
-0.0013837327
1.446408E-4
-4.06975E-5
-0.0010535284
0.0011568038
6.2358193E-4
-5.5483595E-4
4.1861067E-4
-3.7978613E-4
-0.0012820597
-7.7226246E-4
8.7741704E-4
0.0019364107
3.1017204E-4
-9.859973E-4
-0.001386439
-8.891274E-4
0.0021317583
0.0035431155
0.0012568843
-9.825251E-4
-0.0010230839
-1.3798926E-4
-3.616541E-4
-7.934692E-4
-1.0943054E-4
-5.167152E-5
-3.4357602E-4
8.479325E-4
5.124486E-4
-0.0016115161
-6.0631655E-4
0.0017385477
0.001861426
1.1930539E-5
-0.001682736
7.9731346E-4
0.002402155
-6.8313075E-4
-0.0013968108
-7.39913E-4
-4.2648698E-4
0.0013118737
3.1636617E-4
-0.0013702232
-0.0011212869
-6.366386E-5
0.0020107145
9.20849E-4
-7.2652666E-4
7.849885E-4
4.8189817E-4
-5.5829634E-5
-4.9053185E-4
-0.003130184
-0.0034152789
-0.00202907
-0.0012432125
-6.714146E-4
-0.0012949924
-3.3103992E-4
0.002128713
0.003370687
0.0036392086
0.0013799893
-0.0010078675
2.3423946E-4
0.001335905
6.887757E-4
0.0012238546
5.739663E-4
-0.002625112
-0.0021975746
0.0010711062
0.0013874406
0.0010807799
0.0011750668
0.0012358578
0.0014029472
-4.0367508E-4
-0.0012451113
-0.002085181
-0.003335906
-1.6268909E-4
9.100589E-4
-8.3568005E-4
5.835252E-4
6.248267E-4
-3.3982875E-4
-0.0015913955
-0.0036102387
-0.001145481
0.0024237887
0.0028847703
0.0015712966
4.8009903E-4
0.001917488
0.0017137172
-7.7624887E-4
-0.0010709399
-5.963644E-4
-3.1028248E-4
-6.240309E-5
-2.4548627E-4
-1.3986963E-4
2.5756645E-4
5.8108126E-4
6.769695E-5
-6.4426893E-4
-0.0010652666
-9.823128E-4
-2.2216294E-4
-9.2681206E-4
-0.0016140855
-0.001230457
-0.0011430192
1.7377143E-4
0.0010560296
9.390631E-4
0.0010401057
7.3994884E-6
5.9284772E-5
0.0013470365
0.0010760267
-5.300117E-4
-0.0013175597
5.529472E-4
0.0016100347
5.8419816E-4
6.766191E-4
4.872478E-4
5.5963895E-4
0.0020286508
8.8385475E-4
-0.002129412
-0.0019214307
-2.7545044E-4
-6.8220444E-4
5.152762E-4
0.0024463665
7.978411E-4
-2.6402745E-4
4.361474E-5
-5.6020543E-4
5.4910164E-5
6.801961E-4
4.0978866E-4
-6.6474866E-5
-8.7492215E-4
-6.392163E-4
-6.424724E-4
-0.0013286439
-9.836142E-4
-0.0012555042
-0.0012248675
0.0010090243
2.0501215E-4
-0.0032612383
-0.0014002702
0.0016462886
1.9053026E-4
-0.0015000765
-0.0025977269
-6.176815E-4
0.0032755984
-6.1085135E-5
-0.0042390767
-0.001367039
0.0014243159
0.0024846115
0.0045363246
0.0045989384
0.0016560198
2.7519165E-4
0.0015466068
7.789836E-4
-3.239211E-4
6.785201E-4
1.6083306E-5
-4.9639674E-4
0.0010129152
8.174167E-4
-4.8457252E-4
3.5165226E-6
0.0010359711
3.8206985E-4
-3.683646E-4
-2.8527805E-4
-0.0016037051
-0.0027045605
-0.0017253972
-8.033337E-4
-0.0010624282
-0.0019753631
-0.0012321121
3.6327087E-4
-4.4485685E-4
-6.0837256E-4
1.9435237E-4
-8.4902404E-4
-5.458893E-4
2.012586E-4
-6.069993E-4
4.8034555E-5
7.8341237E-4
0.001336199
0.0024873049
5.86638E-4
-9.82096E-4
5.001123E-4
-6.69441E-4
-0.0018397875
3.1491503E-4
8.0754096E-4
0.0010229663
0.0014198208
-4.5094808E-4
-4.7984588E-4
-1.8359906E-4
-6.4897013E-4
0.0011303297
5.278232E-4
-2.1827886E-4
0.0027512219
0.0026088527
-4.8096583E-4
-9.4554917E-4
0.0010814217
0.0010320586
-0.0016904441
-0.0013298017
-2.4685307E-4
-0.0013563209
-9.1225625E-4
-2.4318871E-4
-5.0560153E-5
-8.0037914E-4
-0.0017822923
0.0017455572
0.004927318
0.0026178486
-0.0017134494
-0.005408498
-0.0054815426
-0.0017997576
1.5525824E-4
-7.908735E-4
-2.6099016E-5
0.0012031903
5.4790074E-4
0.0022194763
0.0032724403
8.0638827E-4
-6.106753E-4
-0.0011857467
-4.534276E-4
4.200076E-4
-2.833399E-5
9.137458E-4
-8.52416E-6
-0.0012834917
-3.306279E-4
1.3257004E-4
0.0016538384
4.7911677E-4
-0.0012253006
0.0018321014
0.0022491328
0.0014080283
0.0015807506
-4.1675026E-4
-9.4970287E-4
-0.0018335362
-0.002474194
-4.114562E-5
9.4888493E-4
0.001129379
0.0012204214
2.531761E-4
-3.0439277E-4
-0.0013404844
-0.0013704051
3.2970365E-4
7.9062243E-4
-3.3587788E-4
-9.3586306E-4
-8.585891E-4
-0.0021392892
-0.0024061475
-1.13803646E-4
6.0425873E-4
0.0010471576
0.003441233
0.0025810085
-0.0023967207
-0.0046933144
-0.0024133178
-1.285261E-4
1.2020673E-4
-7.373526E-5
8.3289825E-4
0.0015455813
8.611887E-4
0.0014557871
0.002776352
0.0023815236
0.0018196278
0.0011946795
-8.344991E-5
-0.0011468098
-0.0016750052
-0.0017098784
-0.0010238142
9.631069E-4
0.0015472254
3.2149392E-4
0.0015178415
0.002148029
-5.0181034E-4
-0.0016702131
-6.4378075E-4
-3.4134602E-4
-0.0012378799
-0.0015342147
-9.837756E-4
-5.9525046E-4
5.126211E-4
4.647782E-5
-0.0024234492
-0.0024191707
-7.7840616E-4
4.0310566E-4
8.3589717E-4
-1.9031484E-4
-7.375835E-4
6.0885242E-5
0.0013237142
0.0021070081
0.0014712682
1.7273733E-4
-9.5971377E-4
-5.313258E-4
6.411322E-4
9.2070136E-4
0.0019374485
0.0012989838
-8.918412E-4
-4.6653033E-4
-7.478703E-4
-0.0014288186
2.805363E-4
0.0010937867
0.0023540894
0.0029723558
-1.4917737E-4
-0.0013070398
-1.2926424E-4
2.7867017E-4
6.8800844E-4
-9.6470956E-4
-0.0015189459
-7.543688E-5
-0.002411716
-0.0030144043
5.368977E-4
0.0018441798
0.0024491108
0.0010497372
-0.002771493
-0.0017049145
6.3621893E-4
-0.0019587225
-0.0037109323
-9.477959E-4
0.001311202
0.0015436568
0.0021821817
0.0012449601
-2.8973678E-4
-1.7918194E-4
-8.3933055E-4
-8.668094E-5
0.0012463747
-3.9577507E-4
-4.6092944E-4
7.980177E-4
5.1024463E-4
9.4607024E-4
0.0014373491
0.0017000528
0.002149986
0.0014055697
-4.6556798E-4
-0.002261619
-0.002202065
-0.001462171
-0.001181502
-1.1287096E-5
4.3292757E-4