8.535772E-4
0.0025573832
0.0020740877
7.5071893E-4
2.3645138E-4
4.574173E-5
6.397317E-5
6.4181286E-4
3.804063E-4
-7.2524585E-5
5.5835277E-5
-9.895327E-4
-0.0014271493
-0.0014783968
-8.103334E-4
4.5497066E-4
-2.4120243E-4
7.873088E-4
-0.0018508794
-0.0039261705
0.0035179867
-0.0039664204
-0.01703943
-0.0054459316
0.0048698955
0.0035637273
0.004727929
0.0018166801
6.3170295E-4
0.00171763
-0.0011786633
2.2412144E-4
0.0028293624
0.0021928572
0.0021435558
0.0013420448
-6.3559564E-4
-8.440983E-4
0.0021335126
0.0035321491
0.0013901533
0.001060526
0.0013739725
-3.14063E-4
-0.0010453755
-0.0011263045
-0.0021802357
-0.0022375698
-0.0014874218
-0.0017268236
-0.0012198285
2.329514E-5
4.2558688E-4
6.724665E-4
9.4735564E-4
0.0014249684
5.3227635E-4
-4.1277305E-4
0.0012784709
3.526946E-5
-0.0023038557
-1.304656E-4
8.573634E-4
5.845281E-4
6.197775E-4
-0.0010207922
-6.01308E-4
-4.384183E-5
-6.7369075E-4
-2.552728E-4
-0.0013672141
-3.2324475E-4
0.0017435704
-4.12322E-4
-6.7705254E-4
-6.290103E-4
-0.0028227945
-0.0014129201
3.3939265E-5
1.942093E-4
8.249452E-4
-4.7448688E-4
-1.5996954E-4
8.426917E-4
5.087681E-4
0.0013047353
2.5211112E-4
-3.1665867E-4
8.9174055E-4
-8.414494E-5
7.5474515E-4
0.002339487
1.3138249E-4
-0.0021434913
-0.0020145453
3.971426E-5
0.0015448249
4.0239427E-4
1.3762458E-4
0.0016576903
7.8500004E-4
-4.9798586E-4
0.0013184127
0.0012923509
-5.6031725E-4
5.6318234E-4
8.637178E-4
-5.236442E-4
-2.7180862E-4
3.8966557E-4
6.227191E-4
5.2940988E-5
-8.782228E-4
-0.0016921964
-0.0020341366
-5.2054017E-4
-4.6660413E-4
-0.0014300174
2.0954834E-4
5.1669136E-4
1.830588E-4
0.001643124
9.3314267E-4
-4.1636446E-4
2.5555026E-4
3.5219968E-4
-0.0010498194
-0.001786948
-6.242213E-4
9.292552E-4
0.0015150513
5.810696E-4
-3.132017E-4
1.001708E-4
-2.625204E-4
3.0397763E-4
0.0013247536
4.096097E-5
8.5086795E-4
0.0016533863
-0.0010479619
-0.0013125322
-2.5498891E-6
-2.4253278E-4
3.5656747E-4
9.567848E-4
-4.6484653E-4
-0.002360579
-9.759241E-4
0.0010734239
-7.874559E-4
-0.0014237548
8.050351E-4
0.0010141195
5.085691E-4
0.0015823485
0.0023321817
7.436622E-4
-0.0012673136
-9.2927535E-4
-6.4521114E-4
-0.0017934559
-0.0017846803
-2.5000502E-4
9.5618976E-4
8.463342E-4
0.0010425261
0.0016302605
8.79067E-4
9.0650143E-4
0.0013223804
3.3784553E-4
9.447458E-4
0.0014741201
-4.1746304E-4
-0.001953914
-0.0036099507
-0.0038583495
-0.0023477972
-0.0020825567
3.3987173E-5
9.3150727E-4
-7.1620545E-4
0.0012222624
0.0013652387
3.299177E-4
0.0021034633
0.001084307
9.534437E-4
0.0011624058
-1.7284429E-4
0.001561864
-4.6179607E-4
-0.0033115968
-0.0010074505
-3.6233073E-4
4.553019E-4
0.0010133153
-1.47483E-4
8.771603E-4
8.1340986E-4
4.0916007E-4
6.846004E-4
6.609299E-5
6.420591E-4
2.304506E-4
-6.329195E-4
-5.6058937E-4
-0.001083969
-7.893786E-5
9.05537E-4
-1.5514011E-4
-3.9994574E-4
4.6303502E-4
5.4718566E-4
7.9873216E-4
0.0010780289
-3.07527E-4
-6.667767E-4
-8.757902E-4
-7.672333E-4
0.0023887644
0.0025932977
0.0016377292
-3.863896E-4
-0.0032948074
0.0027085664
-0.0022390364
-0.017170632
-0.008481468
0.0040327506
0.0028995583
0.0032053862
0.0018834628
8.993044E-4
-4.8791764E-5
-0.0014615571
0.0034694427
0.0037772374
0.0011327843
0.0018485674
-2.5918986E-5
-1.742897E-4
-2.7285784E-4
-7.4921333E-4
8.921213E-4
-2.593805E-4
0.0016364418
0.0044934186
0.0019550784
9.6462853E-4
3.8983912E-4
-5.4553116E-4
7.671581E-4
-9.912378E-4
-0.004012653
-0.0025397807
-2.582827E-4
-4.6414872E-5
0.0019095751
0.0019406477
-0.002665129
-0.0032834255
-0.0021095462
-0.0026716627
-1.7966318E-7
0.0016429551
0.0015223081
9.964248E-4
-0.0018594556
-0.0016934501
-4.244196E-4
-5.159276E-4
3.2183406E-4
-7.980159E-4
-5.531804E-4
4.9218955E-4
-2.2461977E-4
0.0015962094
0.0012108812
-1.9568761E-4
3.5993726E-4
-0.0028209796
-0.0019994732
0.0030170553
0.0021615906
9.517844E-4
0.0019022793
0.0019394783
0.0013899344
2.605147E-4
1.9228703E-4
-4.7438437E-4
-2.9155947E-4
0.0012192104
-3.644093E-4
6.820444E-5
0.0019004119
-1.5191338E-4
8.794544E-5
0.0013023728
-7.4464467E-4
-9.391375E-4
-4.3248956E-4
-0.0028317326
-0.0036371558
-0.0010535583
5.448174E-4
8.151327E-4
7.7430035E-5
-0.0016841987
-8.4784016E-4
-1.837992E-4
-0.0010189705
1.5650806E-4
-2.5739387E-4
-8.254833E-4
4.264384E-4
-9.871301E-4
-0.0013452172
6.836589E-4
9.2362077E-4
2.2568202E-4
1.6714433E-4
0.002047602
0.0033082142
0.002313292
0.0023047586
0.0011488793
-0.0010085182
-3.2217975E-4
4.043189E-4
-2.4324998E-5
4.4371153E-4
3.4908412E-4
-6.941781E-4
-3.8557313E-4
8.460263E-4
9.371516E-4
-8.097506E-5
-0.0011483767
-0.0014294524
-0.0019858722
-0.0024183171
-5.982062E-4
-1.2803874E-4
-0.0018500702
-5.4160826E-4
0.001613486
8.730867E-4
-2.6684307E-4
2.0536169E-4
0.0011926971
2.272943E-4
-0.0014885626
-0.001015057
3.2077046E-4
6.369294E-4
2.2779555E-4
0.0011421693
0.0024212396
6.1377615E-4
-8.2580984E-4
-2.0827938E-4
-0.001020727
-0.0010104214
8.3135755E-4
0.0015734709
5.648045E-4
-9.700982E-4
-0.0013091378
-0.0019001493
-0.001870548
2.932854E-4
6.697698E-4
0.0011324295
0.0021967913
4.4941125E-4
3.308348E-4
1.7705475E-4
-0.0022724485
-0.0016903783
-3.639403E-4
5.6088145E-4
0.0021245428
9.25272E-4
7.7264785E-4
0.0030397512
6.8567065E-4
-0.0022884782
-6.549318E-4
-0.0014062283
-0.0018655309
0.00120794
-2.3458967E-6
2.3132091E-4
0.002431204
-0.001206225
-0.001370042
5.6302355E-4
-0.0015149908
-0.0015696464
-0.0017012939
-9.91362E-4
5.772758E-4
-0.0011340588
-2.826958E-4
0.001534276
3.9276097E-4
3.2231625E-4
6.9386064E-4
3.9123083E-4
0.0010263849
0.0014089027
2.455666E-4
9.933927E-4
0.0020750668
2.4503723E-4
3.2163083E-4
-1.7255764E-4
-0.001474318
3.589895E-4
1.6183998E-4
-3.1524786E-4
-4.3888917E-4
-1.774682E-4
0.0025022402
0.0018596074
0.0024954723
7.0060353E-4
-0.0031518703
0.004042101
-9.1032573E-4
-0.015477911
-0.0075501488
0.0028583037
0.0027675175
0.0042013023
0.0033169212
0.0014764055
1.4664177E-4
-0.0012155331
-0.0022043737
-0.0031123487
-2.8392838E-5
7.6484506E-4
-0.0012288861
9.896327E-4
0.0014013599
-1.6455956E-4
2.6041129E-5
4.2392716E-5
0.0012787567
0.0017659982
-2.4527547E-4
-7.888845E-4
3.7784805E-5
-3.8189646E-5
4.2279277E-4
3.9751438E-4
-9.671101E-4
-3.558392E-5
8.947147E-4
6.906955E-5
0.0016342021
0.0023988993
4.993356E-4
8.2514955E-5
-7.359545E-4
-0.001970989
4.4411948E-4
0.0023731051
3.532538E-4
-3.079279E-4
1.5089015E-4
-0.0014006877
-7.503746E-4
0.0014197396
5.053424E-4
-0.0013534151
-0.0011804175
2.756548E-4
3.3784888E-4
-6.496514E-4
-5.497755E-4
-9.990619E-4
-0.0020235456
-0.001834951
-9.411248E-4
-2.0363281E-4
-0.0010334078
-0.0020483576
-0.0011127606
-5.0947163E-4
6.9263574E-6
0.0015544839
0.0010896525
-3.2113243E-5
0.0016691247
0.0036045609
0.0030830344
6.533726E-4
-0.0013549273
-0.0019406548
-0.0017656632
2.0110252E-5
7.9233194E-4
3.2168048E-4
0.00220239
0.0026504619
0.0014824142
0.0014075427
-4.3907628E-4
-0.0013010834
-2.3031117E-4
-5.619165E-4
-0.0010043979
-0.0016477884
-0.0010031977
7.721706E-4
4.4487817E-5
-1.0342583E-4
3.7636445E-4
-0.001009587
-9.049459E-4
-6.8869605E-4
-0.0017001119
-6.1994285E-4
3.4957958E-4
-4.921617E-4
-5.988079E-5
0.001931957
0.002494029
6.2372605E-4
3.7527192E-4
0.0010963052
-0.0018088626
-0.002906278
-6.146216E-4
-2.605693E-4
4.0018858E-4
5.558713E-4
-4.4113316E-4
3.0715388E-4
2.633853E-4
0.0013516335
0.0028693408
8.1129005E-4
2.2970523E-4
0.0010873652
4.144803E-4
-1.0175604E-4
-1.5484096E-4
3.064614E-4
-7.703034E-4
-0.0015225433
-6.954648E-4
-0.0014792795
-3.1276068E-4
3.3866594E-4
-0.0025939355
-0.0021458862
-0.0010546577
-0.0019543048
-2.5761098E-4
7.726962E-4
-6.206545E-4
-2.9999993E-4
0.001497739
0.0016856095
0.001186383
0.0013054269
6.429549E-4
0.0011214277
0.0023050555
0.0011576778
8.816659E-4
0.002106606
0.002490083
0.0030869625
0.0016978405
-0.0013856723
-6.47586E-4
0.0010512229
6.2938675E-4
0.0015165585
-3.2460532E-4
-0.0040209545
-0.0026147238
-0.0023040583
-0.0046743965
-0.0041863765
-0.0033659728
-0.0024992533
-0.0010832828
-9.1139186E-4
-5.3131575E-4
2.586482E-4
-8.20044E-5
-6.315273E-4
3.970738E-4
0.001152019
0.0021135898
0.0043489025
0.0033719288
0.0012982794
0.0012281394
0.001491575
0.0018098311
-7.640725E-4
-0.0028435455
-0.0015062076
-5.269323E-4
0.0013079761
0.0010825921
2.3012073E-4
0.003176179
0.0031914036
0.0017917781
0.0016782196
-3.4202795E-4
-6.358827E-4
4.5623266E-4
-1.2627922E-4
-8.241726E-4
-9.3535375E-4
-0.0014101475
-0.0010170029
-8.690329E-4
-0.003863193
-0.0038452456
-0.0019719815
-0.0020389669
0.0016106672
0.0026710136
0.0011594662
1.5488901E-4
-0.0020869097
0.0033804781
-8.05937E-4
-0.015384083
-0.007951347
0.0044880053
0.0051282994
0.0049354783
0.0017896842
0.0029951297
0.0067853583
0.0059734606
0.004305945
-5.800907E-4
-0.0015274372
-6.543337E-4
-0.0046361694
-0.0031397804
3.3323602E-5
-5.030426E-4
-7.7447214E-4
-0.0011593527
-1.2694311E-4
7.699184E-4
0.0012590757
0.0027739385
0.0034620909
0.0015967196
-0.0042004846
-0.00731562
-0.005241636
-0.004350356
-0.0032717173
-0.0011109076
-5.0234E-4
0.0014379357
0.0060082427
0.008296233
0.007936689
0.0075568496
0.0036846432
-0.0013410023
-0.0029391246
-0.0038681505
-0.0052147317
-0.0058472385
-0.0023792908
0.001189095
-4.9543456E-4
1.7302611E-5
4.930099E-4
-0.00180845
3.9618937E-4
0.005474946
0.009820141
0.0063423472
-0.0028973212
-0.004907341
-0.0044363975
-0.004211833
-0.0018857233
-0.0024822915
-0.0043394337
-0.006084172
-0.0040538656
0.0010472655
7.462235E-4
-1.48999E-4
9.326604E-4
0.0016737309
0.003849023
0.0035203611
0.0032386133
0.004550227
0.0011567825
-0.0012722249
0.002932747
0.0071939533
0.00743855
0.0056334063
5.0162146E-4
-0.0074799634
-0.010224345
-0.00585787
-1.232227E-4
0.002332059
-0.0011164176
-0.005683945
-0.0046199146
4.11565E-4
0.0041436874
0.004723416
0.0023203
-0.0029533592
-0.008441959
-0.011570488
-0.0116553875
-0.0076697613
-0.001082997
0.0047585014
0.008906565
0.012115368
0.01203291
0.009924218
0.010557601
0.007644013
0.0013314524
6.7959697E-4
0.0012350215
5.781679E-4
-0.0018924052
-0.007944536
-0.008774589
-0.0044660815
-1.9422737E-4
0.0010466056
-0.0042698975
-0.005702448
-0.0017621163
-0.002991413
-0.0053744838
-0.0058147684
-0.005919669
-0.004141842
-0.0019736632
3.0957555E-4
0.0029106294
0.0040854975
0.004249151
0.006429766
0.009514073
0.008643447
0.006054204
0.00431475
0.0016516084
-4.8821152E-4
-0.001349355
-9.748399E-4
-4.924742E-4
-0.0023129645
-0.0033187806
-0.0014754231
4.0784595E-4
2.2582378E-4
-0.002061575
-0.002814246
-0.0010336416
4.1624944E-4
0.001967053
0.0014187401
-0.0034351822
-0.006532301
-0.00582833
-0.0049074967
-0.0028655468
-4.745936E-4
5.7705666E-4
0.0011900103
-3.67525E-4
-2.2139067E-4
0.0038010138
0.0038582014
0.0023262391
0.0041524647
0.005824255
0.0068325717
0.0032597492
-0.003682379
-0.0049029673
-0.0039641005
-0.003102581
7.004488E-4
0.0014238468
9.822322E-4
0.00571202
0.00887996
0.007401685
0.005470022
4.2361955E-4
-0.008821116
-0.015799854
-0.015181537
-0.00798292
-5.4728275E-4
0.004147048
0.006353897
0.0053074574
0.004503431
0.0051733907
0.0037672378
5.3665234E-4
-0.0019730583
-6.4301095E-4
0.0020264813
7.55955E-4
-3.746178E-4
0.0011810407
2.624105E-4
-0.0046326113
-0.0077275494
-0.006474645
-0.005752866
-0.0052234665
-0.0059274253
-0.011205315
-0.013743882
-0.009478794
-0.0014840378
0.004639477
0.010416757
0.020702373
0.017035851
0.004268704
0.012796875
0.024585107
0.020411115
0.014732226
0.00990323
0.0040067695
-0.002050646
-0.0050911107
-0.003339086
-0.004388115
-0.007853034
-0.0145459585
-0.023361715
-0.025836755
-0.024976356
-0.0187726
-0.00823135
-0.0055045174
-0.0067839036
-0.004950258
-0.0014743049
2.1656026E-4
-0.0011226579
-0.0027580846
-0.005083443
-0.0025197684
0.007490123
0.015193764
0.018678743
0.018380739
0.016835807
0.018415954
0.015756667
0.009718823
0.0070147486
0.0039225146
-0.0018904804
-0.010901022
-0.01601794
-0.010867249
-0.0057769283
-0.0040815547
-0.004243063
-0.007079738
-0.003800649
0.002006295
0.005784957
0.014865414
0.021848556
0.02353465
0.021034677
0.015063214
0.023041472
0.028331459
0.0055645294
-0.018812342
-0.031762104
-0.038514636
-0.03475334
-0.035205413
-0.037735518
-0.026456794
-0.014763794
-0.011913942
-0.009123895
0.002394226
0.021282066
0.02869763
0.021744458
0.017120931
0.009342139
-0.004951269
-0.01328287
-0.020389443
-0.020452684
-0.008356351
-0.0074565313
-0.009118503
0.004974008
0.017813107
0.025484992
0.03197807
0.030321844
0.017381288
-0.0020605957
-0.010047695
-0.010900363
-0.026036654
-0.04021001
-0.03575569
-0.021360893
-4.6866632E-4
0.02595898
0.05643889
0.08734654
0.09712167
0.08487104
0.06895351
0.037256915
-0.01188947
-0.054751772
-0.07319649
-0.05973307
-0.034235615
-0.0065701744
0.020737212
0.028506966
0.024572955
0.006559029
-0.031431023
-0.06816139
-0.096210636
-0.095987886
-0.06994788
-0.046039663
-0.023483694
-0.011924547
-0.01588775
-0.03825259
-0.054986
-0.008367586
0.06632459
0.116239406
0.1367676
0.113318995
0.067888975
0.035685223
0.040345687
0.060207397
0.044930503
0.01665285
-0.029397227
-0.10803883
-0.15532061
-0.14711705
-0.10645051
-0.051924627
0.014815562
0.058453213
0.035401084
0.037677564
0.09716306
0.09349358
0.008591387
-0.083142586
-0.12563819
-0.09118223
0.013591655
0.13280505
0.18796258
0.18194868
0.15807563
0.13692538
0.08930674
-0.020417495
-0.09587102
-0.09469221
-0.06666105
0.0014547149
0.04040024
0.027131883
0.0028385248
-0.112714805
-0.27172962
-0.34671056
-0.32426688
-0.21611366
-0.10198751
-0.034005698
0.030984808
0.09369753
0.12508078
0.13092679
0.14026602
0.1375908
0.13231513
0.16193692
0.14848839
0.09428964
0.084556565
0.051371023
-0.020289766
-0.048041552
-0.032180134
0.0043555303
0.030259674
0.02366173
0.016748188
0.019627172
-0.0045875874
-0.050961934
-0.06126031
-0.06238795
-0.107507594
-0.14498758
-0.1442637
-0.10981773
-0.048702773
-0.00817382
0.026616363
0.0794552
0.111997455
0.1232142
0.128612
0.12461169
0.08746028
0.011210068
-0.053411316
-0.09941688
-0.12375933
-0.09569269
-0.06193189
-0.04232469
-0.019564081
-0.025266882
-0.029587654
0.0064210994
0.03669007
0.0390116
0.028796397
0.009284861
-0.00944513
-0.01301716
0.008387974
0.047589492
0.069686
0.06150638
0.04762834
0.031769175
0.005001002
-0.014037137
-0.006390797
0.014985083
0.014312903
-0.009272032
-0.020481756
-0.019818485
-0.01627157
-0.0053576888
-0.0120505765
-0.039959826
-0.06073125
-0.06755763
-0.051843867
-0.018306097
0.005957175
0.026770545
0.04978137
0.06209913
0.0633313
0.04702076
0.022070704
0.0028789062
-0.018945334
-0.026729645
-0.013293314
-0.006948505
-0.0063472427
-0.003995042
-0.006618392
-0.010343654
-0.014323462
-0.0135993315
-0.0063675367
-0.00283494
-0.0025374112
-0.0022300943
-6.687861E-4
0.0029232372
0.0037442108
0.004816386
0.009526999
0.01174204
0.011862367
0.013280136
0.012024369
0.008373344
0.004827255
-0.0013536583
-0.0056185215
-0.004233495
-0.0040417435
-0.004205073
-0.0015677148
-0.0019782998
-0.005024398
-0.006398572
-0.008663057
-0.01023966
-0.007816591
-0.007746276
-0.011378231
-0.011109358
-0.0063692136
-0.0017071521
9.211736E-4
0.0028557826
0.004752953
0.0046440344
0.005222216
0.0079705715
0.008228214
0.0066655776
0.0070100487
0.0084338365
0.00870601
0.00721223
0.0058958437
0.0070096697
0.008892432
0.008415505
0.008218453
0.00946876
0.0074531795
0.005461725
0.0072759343
0.0065426272
0.0015536102
-0.004294721
-0.010131421
-0.013033649
-0.012005344
-0.011664268
-0.013528549
-0.014894913
-0.015482563
-0.015418937
-0.014270915
-0.012810836
-0.009739544
-0.006133408
-0.006829354
-0.009291924
-0.007129561
-0.002619735
-2.5997005E-4
5.358949E-4
7.804345E-4
0.0038827513
0.009969186
0.011898342
0.013541341
0.020244036
0.023158818
0.020697573
0.019027987
0.01756214
0.013889025
0.008669298
0.0051904214
0.0023461783
-5.007792E-4
-0.0014929454
-0.0038584361
-0.005038001
-0.0042347144
-0.007866425
-0.0107603865
-0.009204222
-0.009859834
-0.012552934
-0.012574489
-0.010191444
-0.008063769
-0.0072925384
-0.0074007353
-0.0056327987
-0.0026026797
-0.001941244
-0.002029459
-0.0028893459
-0.0029013145
0.001150299
0.0033210767
0.003335932
0.0049753403
0.0053999135
0.0051315203
0.005811926
0.0057213632
0.0031828007
0.0021091818
0.003766815
0.0025986522
0.002695892
0.0036388857
-7.7419434E-5
-0.0010815047
3.8659174E-4
-0.0013111349
-0.0038437804
-0.0035164168
6.845515E-4
0.0034244868
0.002520779
6.659497E-5
-1.251186E-4
0.0010532341
-9.780469E-4
7.301002E-4
-0.0010992292
-0.0062612086
-4.7559853E-4
-0.009395041
-0.023074154
-0.0063999174
0.0063834046
0.003065022
0.0041332645
0.0024677408
0.0015666011
0.0025839927
0.0018122139
0.0020910748
7.2276173E-4
0.002012246
0.0037279234
0.0032015287
0.0037321544
0.0017700741
0.0011007913
0.0017521888
-1.3699234E-4
-0.0010234276
-1.6370538E-4
0.0023076127
0.0020141888
-2.8956446E-4
3.1618236E-4
-9.81541E-5
-8.1078766E-4
-0.0018898121
-0.00268402
-5.158514E-4
-0.0023082427
-0.0054711355
-0.004867281
-0.0035544538
-0.001500169
-9.367495E-4
2.3596172E-4
0.0019264681
-2.2400374E-4
-4.409081E-4
-4.203438E-4
-0.0027899593
-7.471476E-4
0.0016229561
2.1076997E-4
-0.0010574883
-0.0013541977
-8.1980356E-4
-0.0012994683
-0.002459436
-3.6946542E-4
0.0016844131
0.0010389079
0.0014244269
-2.3173433E-4
-0.0040754396
-0.0025390028
8.841542E-4
5.4806954E-4
-0.0013395392
-0.0016616373
0.0014170151
0.002828065
0.001515977
0.0026529245
0.0024696446
6.501961E-5
-1.19823686E-4
6.706333E-4
0.0014285477
0.00167728
0.002403954
0.0037859262
0.0018055519
-6.8644964E-5
0.0014971547
0.0012619167
3.644955E-4
0.002220792
0.0032799002
0.0016833355
-5.6228024E-4
-8.212022E-4
1.135153E-4
-5.260763E-4
2.1579956E-4
0.0013986648
-9.5968606E-4
-0.0012660095
2.4914322E-4
-9.441329E-4
-0.0010761091
-0.0022061798
-0.0053771283
-0.004649542
-0.0020953885
-0.0019768437
-0.0036461926
-0.0047386866
-0.004485675
-0.003114916
-5.8943237E-4
-6.254802E-4
-0.0013783331
8.593703E-4
2.2179233E-4
-0.0016644221
-2.0914747E-4
1.0275954E-4
6.3162495E-4
0.0032628481
0.0036181926
0.0030930184
0.0045009484
0.004848189
0.0046355855
0.006818104
0.007853935
0.0067446115
0.0056046224
0.0034673286
0.0023861306
4.568268E-4
-0.004027155
-0.004052154
-0.0012805294
-0.0011320128
-0.002048153
-0.003319272
-0.00344049
-0.0034687046
-0.0048692026
-0.004210128
-0.0027043035
-0.0028574886
-0.002699597
-0.0023043912
-0.0036782834
-0.0049405135
-0.0035949324
-0.001680719
2.540216E-4
4.970073E-4
-0.0015383568
-4.1023328E-4
-1.9863888E-5
-0.0015686547
6.0959137E-4
-3.2457866E-4
-0.0028161246
-5.075085E-4
1.0573213E-4
2.9054904E-4
0.0017320605
0.0013234705
0.0019941682
0.0045328015
0.005691474
0.0013314596
-0.002507528
-2.045272E-4
2.1331658E-4
2.9137218E-4
0.0030199478
0.005569634
0.0075866235
0.004621167
0.0034599702
0.0054038377
8.1684056E-4
-0.003208961
-0.005040455
-0.00558432
-0.0027017486
-0.0029239517
-0.0017729135
-6.0242123E-4
-0.0022957246
4.1905523E-4
1.0867951E-4
-0.0022847464
-0.001616929
-0.0030088567
-0.0014197911
9.090107E-4
4.8766143E-4
0.0011006863
-9.331016E-6
-2.783373E-4
7.160415E-4
2.636732E-4
0.001054774
0.0015684776
-2.5541644E-4
-0.0023072937
-0.0018839522
-0.002270402
-0.0031461993
-0.0013333312
-0.0023147804
-8.293769E-4
5.3461123E-4
-0.004622175
-9.296812E-5
-4.1097807E-4
-0.014490164
-0.009784957
0.003532169
0.0059599546
0.007912268
0.006360978
0.004885438
0.006997826
0.0061266962
0.00600724
0.0043988745
0.0024583824
0.0040554544
0.0030492097
0.0018693724
0.0011545508
-0.0010084879
-7.482555E-5
1.0678441E-4
-0.0018890557
-0.0026761803
-0.0038638122
-0.0035020085
-0.002580926
-0.004650164
-0.006120348
-0.0047632228
-0.0025269962
-0.0018370353
-0.0031557304
-0.0037143163
-0.0025176443
-0.0012795272
-5.1756087E-4
7.893575E-4
0.0018667168
0.0025181929
0.004898121
0.006278757
0.0041845576
0.002752943
0.002312767
3.8194656E-5
-4.1215858E-4
0.0023120518
0.0019910273
-6.3858024E-5
2.2776378E-4
-4.8118777E-4
-2.2614843E-4
7.957509E-4
-0.0016386944
-0.0027031258
-0.0027348646
-0.003463814
-0.0010967857
0.0012340226
0.0013324567
7.263448E-5
-8.476098E-4
-4.386887E-5
-5.0040213E-5
0.0010048492
0.0015193344
-0.0015105318
-0.002285395
-8.7863905E-4
4.3951065E-4
0.001749995
0.0020511453
0.002396736
0.0013506227
8.212239E-4
0.0013833451
-3.0415424E-4
-0.0011801235
-0.0018676404
-0.0024057764
-8.758874E-5
0.0012304024
7.0220523E-4
-0.0011237052
-0.0027990283
-0.0017557389
-3.7535524E-4
7.724651E-4
0.0013855651
0.0011169055
3.3826786E-5
-0.0018250897
-4.3546644E-4
0.0015780203
9.1941113E-4
4.2915923E-4
-9.231565E-4
-0.0013852465
8.834493E-5
3.6106067E-4
3.250076E-4
7.9044997E-4
0.002247175
0.002730755
4.657085E-4
-4.2190446E-4
2.3578825E-4
-2.9993276E-4
-0.0015922759
-0.0016647348
-4.070384E-4
-8.746569E-4
-0.0014757813
-8.636618E-4
-9.7366737E-4
1.0246602E-4
4.1476113E-4
-0.0012187646
-1.0338466E-4
0.0016517274
2.6982173E-4
-0.0012288315
-3.1357343E-4
0.0010690361
0.0011026615
1.5528615E-4
-0.0015722472
-0.0019074494
4.1749462E-4
0.002095868
0.0015654822
4.976072E-4
5.286686E-4
0.0014599434
0.0014997602
5.560772E-4
-1.1221361E-4
3.6582816E-4
0.0011122853
8.192187E-4
7.3683704E-4
0.0012471948
0.00146608
0.0013177008
-7.704752E-5
-0.0016764405
-9.2805765E-4
6.593275E-4
6.950481E-4
8.2881853E-4
0.0015899074
0.0012619357
3.2269262E-4
-0.0015995287
-0.003724791
-0.00298943
-0.0022344955
-0.002629825
-0.0017657614
-0.0017777745
-0.0016219603
7.630942E-5
0.0011113776
6.231275E-4
-0.0017683265
-0.001643799
0.0011538076
5.969746E-4
1.8466277E-5
0.0018438387
0.0023649435
0.0012085972
-2.8990762E-4
-3.7237236E-4
2.690925E-4
2.5903378E-4
-1.3571611E-4
3.9489474E-4
0.0017721715
-5.786886E-4
-0.0020453944
0.0013331022
0.0010628443
-9.541047E-5
9.229051E-4
-5.4708554E-4
-4.912352E-4
7.671835E-4
7.5560476E-4
0.0010225633
5.467955E-4
0.0014659613
0.0034476016
0.0027124882
4.949351E-4
6.6172756E-4
0.00211709
0.0010983096
-6.123051E-4
-0.0014609939
7.5904163E-6
0.002157674
0.0019603784
0.0029798064
-0.0017939542
-0.005842235
9.4951416E-4
-0.008154985
-0.020374736
-0.004905453
0.0064419885
0.0020930825
-3.2890393E-4
-0.0020596662
9.445878E-4
0.0033343597
8.877966E-4
0.0011925715
0.0012306508
0.001556643
0.0016676048
-1.7161905E-5
0.0010618264
0.0020675554
0.0021117385
0.0022095684
0.0016747183
0.002674512
0.003508471
0.0030192677
0.0015877471
8.2765655E-5
-3.6315422E-4
-0.001848886
-0.0029518942
-0.0027129808
-0.002360701
-0.001168781
-9.714392E-4
-6.5642025E-4
1.5205849E-4
-0.0010261082
-2.465273E-4
0.0020379468
0.0015137707
4.2671448E-4
-4.175693E-4
-5.725564E-4
0.0012395194
0.002111478
0.0012452558
1.00108766E-4
-2.6134087E-4
0.0010194724
7.687547E-4
-8.1799214E-4
-2.5061626E-4
-5.404432E-5
1.4038598E-4
9.97701E-4
-0.0020360528
-0.0051986515
-0.003885424
-0.001838725
-5.0795387E-4
8.9530833E-4
0.0022734308
0.0022211005
-3.3562246E-4
-0.0016635043
7.559928E-5
0.0020667773
0.0026349572
0.001439389
1.8237832E-4
4.7383108E-4
2.9150128E-6
-3.4403935E-4
0.0013723688
5.993918E-4
-0.0020958986
-0.0013337458
4.298353E-4
5.6765776E-4
5.343449E-4
-8.374443E-5
-8.06168E-4
-2.752643E-4
1.014418E-4
-3.355913E-4
4.679448E-4
7.9509366E-4
-0.0021613047
-0.0035877316
-2.6107157E-4
0.0032985413
0.0034253662
7.1586185E-4
-9.791602E-4
-5.771228E-4
-1.16050054E-4
9.996835E-4
0.0012944393
-1.7277851E-4
-7.1686227E-4
-2.5229077E-4
2.3077217E-4
-3.639616E-4
-0.0010435104
-2.633607E-4
-0.0011597922
-0.0024255097
-0.0012988566
-6.757553E-4
-3.2069432E-4
2.2669575E-4
4.4195243E-4
0.0013840144
8.385726E-4
1.9902522E-4
0.0017315847
0.0015575602
4.2900562E-4
6.391485E-4
-6.27942E-4
-0.0021691706
-0.0013538259
-4.6685405E-4
3.097574E-4
0.002171043
0.0016245302
-0.0019663079
-0.0035457534
-0.0011521322
0.001625268
0.0010833158
-1.251907E-4
5.095447E-4
-2.063332E-4
-0.0014955268
-0.0013683519
-1.5433751E-4
0.0019415264
0.0018495201
0.0012676558
0.0017184099
-3.8736738E-4
-0.00150734
-7.141408E-4
-7.511704E-4
6.553023E-4
7.9038984E-4
-8.5514603E-4
-1.4583018E-4
0.001313079
0.0020394884
9.965874E-4
-0.0014082623
-0.0015954323
-0.0011023312
-0.0017557152
-0.0015349626
-6.7403575E-4
-4.7066115E-4
1.3484615E-4
0.0015719963
0.0019005141
7.556159E-4
-4.977762E-4
1.9333567E-5
9.853878E-4
-0.0016059689
-0.0029231906
3.4370017E-4
0.0019506923
0.0011237048
1.656967E-5
-5.348903E-5
5.908932E-4
-0.0010193421
-0.002518983
-0.0027202282
-0.0016495088
3.475444E-4
-2.1318054E-5
5.949902E-4
0.0020023263
0.0026241767
0.004464193
0.0024328553
5.711457E-4
0.0021001298
0.0014700703
0.0016055617
6.107989E-4
-4.838342E-4
0.0012186113
-8.281775E-4
-0.0027434896
-0.0024701068
-0.0014904301
5.053787E-4
-0.001947048
-0.0023825723
8.4539014E-4
0.0012466132
0.0022122955
0.002004271
-7.661264E-4
-0.003643384
-3.8039836E-4
0.0028253214
-0.011651009
-0.017370883
1.1061517E-5
0.0059915623
0.0029038838
0.0042891186
0.0037098583
0.0040092263
0.0027684935
0.0013912208
9.1799255E-4
-0.0013531658
-5.7745073E-4
-6.260858E-4
-1.5361237E-4
0.0021510883
7.684733E-4
9.6153864E-4
9.657092E-4
-7.5456366E-4
-9.090074E-4
-0.001376981
9.0763625E-4
0.0024237435
0.0024939529
0.004192689
0.001614585
-7.410326E-4
-0.0012682948
-0.002759829
-6.720192E-4
3.331965E-4
-5.954052E-4
-0.0010388691
-0.002512199
-0.001097667
1.4099987E-4
-9.579716E-4
-0.001458728
-0.0015536213
0.0012926811
0.0021852714
-0.0011630686
-9.904848E-4
-3.4155946E-5
-0.0014885305
-0.0016575331
-3.7663928E-4
9.97393E-4
9.738106E-4
-1.841508E-4
-9.339346E-4
-0.0012805343
-0.0018378014
-0.0018575295
8.3292696E-5
0.0010355873
0.001422456
0.004335411
0.0038734784
3.2382057E-4
-2.8883058E-5
-1.3755527E-4
-6.7260343E-4
-9.902633E-5
-1.4144305E-5
4.439218E-4
5.7458674E-4
3.2624963E-4
6.031759E-4
8.2579494E-4
0.0016678071
0.0015561248
2.526232E-4
-1.04676714E-4
-5.442754E-4
-0.0012068155
-5.878637E-4
8.011962E-4
9.100841E-4
-3.719662E-4
-0.0016993581
-0.0023963684
-9.239003E-4
3.1386685E-4
-5.0324004E-4
3.176918E-4
3.0242204E-4
-0.0018949663
-0.0016395708
-0.0010279436
-9.50959E-4
0.0016594985
0.0032646763
6.9584174E-4
-9.4174035E-4
7.6196395E-4
-2.0035739E-4
-0.0027787879
-0.001296318
8.6710154E-4
8.158276E-4
4.035334E-4
7.669021E-4
8.335761E-4
-1.7412212E-4
-1.3031751E-4
-9.0379023E-4
-0.0014018442
0.0016721538
0.0011101916
-0.0021995765
-0.0016195514
-6.0677726E-4
7.966621E-4
0.002111969
0.0011111922
0.0013312772
0.0025296044
0.002311279
3.3124592E-4
-0.001139288
-7.4712145E-5
-1.5262509E-4
-0.0015459863
-0.0010483654
0.0013772058
0.0030340143
0.001223811
-7.3762384E-4
-0.0017661407