-0.0015723911
5.4507505E-5
0.002335921
0.0011250161
6.093245E-4
1.4077617E-4
-0.0016376174
-0.0021891668
-0.0018763664
-4.7940458E-4
0.0017829371
0.002089175
7.6463714E-4
-1.3430779E-4
-5.4905604E-4
3.819961E-4
0.0011339299
-0.0013205509
-0.0026025416
-4.4986297E-4
1.4067622E-4
-3.5503748E-4
-1.7582403E-4
-9.525573E-4
-0.0015408543
-0.0012849086
-3.485591E-4
0.0013295105
0.0012079899
-6.0690945E-4
-5.815997E-4
0.0010515243
0.0020544978
0.0021820504
9.40851E-4
-5.473352E-4
-1.7270324E-4
-6.3181034E-4
-0.0023077573
-0.0012642731
3.292594E-4
0.0011089045
0.0027435282
0.0019411528
4.1160683E-4
6.661991E-4
-3.7123702E-4
7.674409E-5
7.178877E-4
-0.0014139321
-6.943472E-4
4.837795E-4
-4.3727198E-4
-5.347864E-4
-0.0019344679
-0.0015342843
4.5521074E-4
-9.2532474E-4
-8.935289E-4
8.0847024E-4
6.4055563E-4
7.250717E-4
0.0011060376
9.191032E-4
1.15685805E-4
-3.927619E-5
4.1969135E-4
-3.8911708E-4
-1.0473246E-4
3.5647216E-4
-5.5126165E-4
3.025538E-5
-5.8969413E-4
-0.0025639893
-0.0016630479
-2.1819552E-4
-6.356771E-4
-9.392792E-4
-2.0399262E-4
-4.6205695E-4
-9.574309E-4
1.1512179E-4
1.4597604E-4
-2.5487656E-4
-3.77582E-4
-0.0013543541
-6.3607923E-4
-4.703521E-4
-4.7960744E-4
0.0038046476
0.006602061
0.005103186
0.002883491
0.0011562038
0.0019453637
0.0022059805
-3.4861124E-4
-0.0012985585
-7.6366455E-4
-4.3416047E-4
2.0076157E-4
4.4102973E-4
1.511486E-4
-4.7269175E-4
-0.001757839
-0.0034446702
-0.0025550788
1.9764637E-4
-7.587904E-4
-0.0021327413
2.1928905E-4
0.0025443712
0.0035395084
0.0018684901
-9.5793465E-4
5.283322E-4
0.0038253304
0.004501531
8.312036E-4
-0.0051243035
-0.0069250255
-0.0070937676
-0.009118525
-0.0084456345
-0.0063027986
-0.0045623407
-8.315149E-4
0.0022646335
0.0014746146
-0.0011482876
-0.001339734
0.0011333592
0.0036785542
0.005898465
0.0041690203
-0.002497396
-0.005588693
-0.003062358
7.8461214E-4
0.0075106793
0.015572307
0.018772425
0.018088402
0.016964257
0.012554883
0.0049656383
8.2822735E-6
-0.0038404868
-0.010659569
-0.015516519
-0.012793362
-0.0064532873
-0.0047675823
-0.0059929476
-0.0034195785
-0.0010035454
-0.0038522626
-0.008212327
-0.009350864
-0.00759033
-0.0050783954
-0.0019619118
-2.2936963E-4
1.4776568E-5
0.0014835364
0.0019828344
0.0017162906
0.0017752881
0.0011996792
0.0035024257
0.004892991
0.0020757162
0.0027824503
0.0049153604
0.0039495123
0.004211482
0.0041171415
0.0016084436
-8.39443E-5
-4.8771364E-4
-2.8666144E-4
3.3314386E-4
5.4530206E-4
6.5584034E-5
-5.2434934E-4
-0.0010037785
-0.0018325552
-0.0018195106
2.3635311E-4
0.0020310462
0.0018966659
4.7045405E-4
-0.0019372689
-0.0018899377
0.0019987107
0.0029455961
6.841585E-5
-6.563353E-4
-0.0010477534
-0.0030827112
-0.0022398876
-5.3794447E-5
-0.0010479674
-0.0010873916
5.4528384E-4
-0.0016629202
-0.0032469828
-9.6680835E-4
1.841544E-4
7.785669E-4
9.647154E-4
6.2204484E-4
0.0016934675
0.0018543503
0.001583683
-1.5828287E-4
-0.0034839355
-0.0025335287
-9.23377E-4
-9.972503E-4
8.90855E-4
0.0013415668
-1.1850113E-4
-0.0019342157
-0.0020935952
0.0015055037
0.002579745
0.0016168655
0.0022896102
7.8193686E-4
4.283935E-4
0.0023657242
0.0015788022
6.88423E-4
0.0012070356
1.3807195E-4
-0.0024162484
-0.0035862194
-0.002492679
-0.0010193273
5.5949704E-4
6.2661595E-4
-0.0011475161
-4.4636874E-4
7.021156E-4
-4.3903413E-4
1.3987295E-5
6.718071E-4
-7.074745E-4
-1.8839122E-4
0.002050891
0.0019987214
-2.1761107E-4
-7.1818766E-4
0.0011745013
0.0010138823
4.8422875E-4
0.0027333144
0.0020690754
-8.8340795E-4
-0.0011502589
-4.2034828E-4
8.8437356E-4
3.2451094E-4
-0.0024691618
-0.0022531867
-4.86393E-4
0.0011890244
0.002020736
-4.0052706E-5
-0.0013949344
-0.001631537
-0.001540185
-3.6559685E-4
-9.415443E-4
-9.4399176E-4
3.9645378E-4
-9.2677027E-4
-0.0013732674
9.897973E-4
0.0015817619
0.0010458793
0.0022034904
0.0025562258
0.0012158819
1.6555961E-4
-6.7636016E-4
-2.1081562E-4
-9.289686E-5
-0.0026661176
-0.0037728173
-0.0024000567
-8.3366764E-4
-2.1358585E-4
-5.5033894E-4
9.597842E-4
0.002318119
0.0014552458
8.378399E-4
5.268868E-4
7.762337E-4
2.865125E-4
-0.0010823908
-7.6419185E-4
-1.9545817E-4
4.623819E-4
0.0014429585
0.0015425966
0.0010192054
3.239918E-6
6.382502E-4
0.0026632063
0.0032633927
0.0013735676
-0.0017407864
-0.0012583392
9.151E-4
2.8410502E-4
-0.0011822877
-0.0035346583
-0.0040050996
-9.3483616E-4
2.3839547E-4
-8.2520396E-4
-0.0023524268
-0.002195326
2.2979082E-4
3.3904653E-4
-2.4999992E-4
-5.589198E-4
-0.002965217
-0.002577324
0.0013873873
0.0033181082
0.0023386667
0.0015874259
0.0018194226
7.2193146E-4
-1.7912246E-4
4.330728E-4
4.1326653E-5
-1.1437339E-4
0.0011569279
0.0013040581
6.258735E-4
0.0014520666
0.0016499966
1.7713374E-4
5.7146454E-4
3.046848E-4
-0.0020993801
-0.0017110772
-6.379904E-4
-7.148851E-4
1.4158046E-4
5.948942E-4
7.572558E-4
-2.993071E-4
-0.0019797026
-0.0022482474
-0.002614531
-3.8892802E-4
0.0020071124
3.434835E-4
0.0010420916
0.0016916352
-0.0014950173
-8.3214225E-4
0.0012005472
-8.170858E-4
-5.4088904E-4
0.0021106289
1.712284E-4
-0.0014809308
9.046003E-4
6.61585E-4
8.745426E-4
0.0019933586
-0.001958771
-0.0032690992
-0.0017061669
-0.0012883227
0.0021941173
0.0019563178
-0.0012549191
-4.2872946E-4
-9.053501E-4
-8.9601893E-4
4.047242E-4
-8.165691E-4
-4.796016E-4
5.2109803E-4
8.75805E-4
0.0025949003
0.0027681778
6.068035E-4
-9.576509E-4
-5.224137E-4
-2.946696E-5
6.1914866E-4
0.002327852
0.0013372857
-2.7463277E-4
0.0014315122
0.0020214596
-1.02396494E-4
-0.0010468555
-7.175671E-4
-0.0017411718
-0.0017547326
3.7756158E-4
1.4673965E-4
-0.001235095
-0.0018712936
-0.0024389322
-6.695042E-4
7.77852E-4
2.4414904E-4
-3.111011E-4
-0.001639839
-0.0016598824
-5.9731415E-4
-4.0095524E-4
-6.840932E-5
-4.484409E-4
6.023664E-4
0.0031591028
0.0021752198
-3.0557605E-4
2.3165567E-5
2.6565805E-4
-0.0024144738
-0.0030600447
3.96951E-4
0.002213811
0.0029260623
0.0038940571
0.0017457826
-7.898584E-4
-0.0015532023
-0.0015262386
-5.575718E-4
-8.1188313E-4
-9.098081E-4
0.0011765135
0.0021654076
0.0020018339
0.0025919676
0.001995945
8.051039E-5
-3.367772E-4
-6.447017E-4
-0.0022015658
-0.0012082551
8.2169357E-4
1.0233158E-4
-2.6996463E-4
-1.4843304E-4
-0.0017628665
-0.0022902312
-7.787335E-4
7.7502846E-5
-1.972094E-5
6.195338E-4
6.937295E-4
-0.0013401023
-0.0023216808
-0.0016078264
-0.001444778
9.600338E-6
0.0019285528
0.0014002441
7.361307E-4
6.4579357E-4
-1.7244465E-4
3.5506225E-4
0.002210838
0.0014352653
-0.0010671023
-4.661206E-4
0.0011647542
9.4204035E-5
-0.001330713
-7.804412E-4
4.7375204E-4
-6.6837773E-4
-0.001877595
5.9340196E-4
0.0015973347
2.421282E-4
2.8752603E-4
2.0883416E-4
6.0746365E-4
-4.5614692E-4
-0.0028797386
-4.4543442E-4
0.0020521104
6.318443E-4
-5.186932E-4
-0.002005075
-0.0013947068
0.0019592363
0.0023562303
0.0019252264
0.0025793011
0.0016287785
0.0010051241
3.4531654E-4
-0.0018548005
-0.0020138982
-2.971788E-4
-3.692366E-4
-0.0019327537
-0.0020810007
-1.7001561E-4
8.714455E-4
9.870605E-4
0.0010220966
-9.507357E-4
-0.0019323723
-7.048112E-4
-7.574747E-4
-7.513562E-4
-4.5600085E-4
-7.841261E-4
-7.473841E-5
0.001709867
0.0035033564
0.0026124404
1.3046149E-4
-0.0010951746
-0.0027921028
-0.0021530893
7.224745E-4
3.484312E-5
-3.153332E-4
0.002420698
0.0031197148
8.379225E-4
-0.0016311776
-0.0018606693
-6.123716E-4
-3.9221934E-5
7.242038E-4
0.0016348029
0.0016010103
3.1562397E-4
-0.0018005662
-0.0012874621
9.5274055E-4
-4.5573895E-4
-0.0022047383
-8.983002E-4
-1.1385286E-4
5.3948455E-4
7.3253736E-4
-9.080541E-4
-5.021986E-4
0.001593837
0.0017233593
2.1492096E-4
-0.0010004619
-0.0012304082
-9.082195E-4
-7.379812E-6
-8.146822E-4
-0.003137651
-0.0021052193
9.05136E-4
0.00253284
0.0022928913
0.0018323893
0.0036930905
0.0030948338
2.1694941E-4
1.2747347E-4
-0.0010746974
-0.002619197
-0.0026793962
-0.0028852334
7.099123E-4
0.004022645
0.0015271613
-7.901296E-4
2.6545654E-6
-8.305466E-4
-0.004411558
-0.0041350713
-2.3292011E-4
6.117498E-4
9.383693E-4
0.003476735
0.0052074725
0.002658118
-0.0031628779
-0.004083172
-8.1137865E-4
-9.2582086E-5
3.6223335E-4
5.3056283E-4
-6.824263E-4
2.3992726E-4
0.0011287611
1.5964662E-4
-1.1020065E-4
-1.3142511E-4
2.2009028E-5
6.370269E-4
6.016775E-4
6.0454523E-4
4.9088814E-4
4.214095E-4
0.0011480362
0.0015071522
0.0025618605
0.0031379717
2.8836436E-4
-0.0032130668
-0.0052970275
-0.004455323
-2.6997452E-4
0.0011799837
-9.2169445E-4
-0.0011568543
-3.606569E-4
-0.0019789154
-0.004239205
-0.0042048516
-0.0023216163
-4.164442E-5
5.53251E-4
-2.6707278E-4
-4.6980227E-4
-0.0010743745
-2.0156054E-4
0.0018835821
0.0013722191
0.001340906
0.0025749027
0.0042072623
0.0070181745
0.007906814
0.008210055
0.009652116
0.01195666
0.012251951
0.0035885614
-0.0054205596
-0.0060149254
-0.0062398314
-0.0079136435
-0.00891817
-0.009640221
-0.009225394
-0.008558599
-0.0069166003
-0.005130362
-0.0036313802
-0.0019155322
-0.0011380872
0.0012464277
0.0033627853
0.0022923185
0.0012793086
-4.141771E-4
-0.0032646423
-0.0037353274
-0.001150142
3.6942807E-4
-0.00103079
-8.051876E-4
0.0011770913
0.004923434
0.011194448
0.012466755
0.011736203
0.01648887
0.016494133
0.0054793544
-0.006590337
-0.01105542
-0.008026603
-0.0027359556
1.1760967E-4
-9.045894E-4
-0.0048385677
-0.00845517
-0.009129238
-0.00732644
-0.0030282936
0.0018780201
0.0037034408
0.0038591688
0.0029698757
8.785128E-4
3.4115315E-4
4.1211204E-4
-0.0011250873
-0.0061927917
-0.011748429
-0.0104034245
-0.005451441
-6.8550516E-4
0.004854561
0.008451622
0.011294095
0.01231658
0.010155177
0.010605961
0.011623505
0.0072127935
-2.663615E-4
-0.00406411
-0.0036045404
-0.0062278076
-0.009815248
-0.008786099
-0.009978748
-0.013997403
-0.0110284
-0.0035007584
-0.0015008465
-0.0018524006
8.7162614E-4
0.0014503334
6.654191E-4
4.0177032E-4
-0.0037293425
-0.0043581733
0.0022718124
0.006904794
0.011942166
0.018057939
0.013473628
0.0014539786
-0.0036948423
-8.6936285E-4
9.0967136E-4
-9.774141E-4
-3.169017E-4
0.0038265716
0.0077778785
0.010835797
0.009776095
0.004452642
-0.0029722503
-0.013214515
-0.018900186
-0.015564031
-0.009095302
-0.0025541366
7.753088E-4
-1.2332841E-4
-0.001663219
5.0094107E-4
0.006796659
0.0050195153
-0.004284765
-0.005779564
-0.0034099442
-0.0031346835
-0.0016661345
1.825546E-4
0.0022527415
0.0025077914
0.0028544362
0.0037158844
-0.0010773696
-0.004474404
-0.0029667881
-0.0028382586
-0.001891727
-0.0010050682
-4.4518636E-4
0.0015814607
0.001748164
0.0021824297
0.0033894125
0.0040203137
0.0047877994
0.0033078315
0.0019318226
0.0010522724
-5.23583E-4
3.7123554E-4
2.87831E-4
-2.4978563E-4
0.0021130908
0.0018362065
-5.8691745E-4
-0.0018873295
-0.003664995
-0.0031982
-7.3882875E-5
5.7683256E-4
-8.7291695E-4
-7.2636154E-5
0.0027366527
0.004144475
0.003973101
0.0058903582
0.009439536
0.0104531245
0.01029338
0.009535393
0.0066248686
0.0039494876
3.9850117E-4
-0.0027851544
-0.0034583572
-0.0077655325
-0.012691575
-0.013091503
-0.014613351
-0.01636619
-0.015594239
-0.0130936615
-0.006753466
-0.0017838517
-0.0029522083
-0.002140575
0.0027468263
0.0031047235
0.0012145463
0.0028725723
0.0026988694
8.112544E-4
9.758335E-4
-1.1082071E-4
-0.001634319
-0.004909876
-0.0111496635
-0.010152535
1.5346079E-4
0.013898371
0.02762319
0.033866804
0.03095033
0.019592753
0.0017822506
-0.009119158
-0.011907028
-0.01402796
-0.013260167
-0.014676047
-0.01877713
-0.015099857
-0.0046926397
0.00797738
0.021860184
0.032105852
0.03155271
0.021458793
0.014802701
0.009087792
-0.008105556
-0.024188256
-0.025609562
-0.022363486
-0.022965746
-0.023189824
-0.015757257
-7.264068E-4
0.009234546
0.0066153584
-0.0015694135
-0.010018621
-0.013607621
-0.009212445
-0.005745625
-0.0033094056
0.0050198035
0.0113419155
0.011267958
0.013125196
0.01540126
0.009971695
0.0040542223
0.007149614
0.013503328
0.01733756
0.016063148
0.008532415
0.002794953
0.0024642085
0.0018261482
-0.0021806636
-0.009981446
-0.019581094
-0.02653171
-0.029872296
-0.03216478
-0.033324976
-0.032559074
-0.029560234
-0.020785913
-0.008294189
0.0019306551
0.011330781
0.0201078
0.025273377
0.02873716
0.03311424
0.035000104
0.03170631
0.027351283
0.021971446
0.015699932
0.013436205
0.010690492
0.0023100125
-0.0073490576
-0.011916126
-0.011619029
-0.014594277
-0.019877104
-0.016526252
-0.0016744065
0.012335518
0.015187842
0.014108563
0.008063109
-0.0027051317
-0.002241015
-0.0033953045
-0.017165849
-0.02250792
-0.018459441
-0.017428063
-0.025798183
-0.039666638
-0.040231235
-0.028260555
-0.012275545
0.005354144
0.015505745
0.022581743
0.03108753
0.039660644
0.04926398
0.048990734
0.034881387
0.010050434
-0.016387822
-0.03191788
-0.044618193
-0.04806131
-0.03094844
-0.009325561
0.013306122
0.036649764
0.042053703
0.03025954
0.030974593
0.033099607
4.874063E-4
-0.032954626
-0.05385234
-0.0808204
-0.06558422
-0.017943153
-0.006032213
-0.032980002
-0.06731935
-0.07429845
-0.05334567
-0.0074338606
0.071790546
0.1362434
0.16124822
0.17639394
0.19634497
0.21268287
0.1973602
0.13809764
0.04070299
-0.08023038
-0.20525822
-0.30596238
-0.31029075
-0.20724136
-0.07474501
0.038196303
0.09303992
0.07655436
0.042524077
0.02431787
-0.0075545353
-0.06953188
-0.12582453
-0.15965262
-0.1808416
-0.18434879
-0.15581238
-0.084703445
0.00981167
0.10472911
0.17814112
0.2241577
0.257195
0.24161117
0.21273884
0.21129349
0.13322105
0.01985635
-0.023801992
-0.068553716
-0.10883944
-0.0925259
-0.073610835
-0.08566242
-0.102882355
-0.07295211
0.01350744
0.09232141
0.11257784
0.0900738
0.05883429
0.019121964
-0.016302856
-0.040752914
-0.09903856
-0.20412287
-0.2767191
-0.23128934
-0.11733018
-0.012564827
0.08871698
0.14358334
0.1367262
0.119829826
0.08211073
0.03416997
-0.0016832574
-0.04006523
-0.06764963
-0.087030135
-0.097882256
-0.076821126
-0.0377561
-0.002026181
0.023506042
0.038985822
0.06874856
0.123399824
0.17312528
0.20462498
0.19099717
0.08805352
-0.029976696
-0.07246369
-0.0799102
-0.10466033
-0.12562603
-0.073680714
0.03018027
0.06914563
0.05433216
0.04390075
0.0041052396
-0.06218937
-0.09913529
-0.08458911
-0.05416827
-0.03365651
-0.007930652
0.015741289
0.037918154
0.054631613
0.025022449
-0.0445854
-0.09749108
-0.086167455
-0.03215396
0.0029534176
0.023155471
0.040523097
0.041481957
0.037144776
0.028225504
0.019479217
0.01972296
0.01408929
0.005494745
-0.0011551284
-0.012696759
-0.021772927
-0.021255221
-0.011086727
5.616006E-4
0.006876612
0.012226822
0.016253533
0.018536653
0.02290328
0.028781682
0.032181736
0.029379362
0.022853808
0.015960757
0.007914043
-4.203197E-4
-0.0065433844
-0.010351131
-0.015496484
-0.022190623
-0.026484799
-0.025393499
-0.017565798
-0.009353686
-0.006231711
-0.00399764
-9.049841E-4
5.7241094E-4
-9.609356E-4
-0.0030247313
-0.002865819
-0.0038439988
-0.0053027608
-0.00429835
-0.0046646874
-0.006055162
-0.006090164
-0.0066295695
-0.0047300356
-9.0570917E-4
-0.0015102596
-6.452166E-4
0.0054398375
0.0066591296
0.004292093
0.006080126
0.0084907655
0.0084944535
0.0067593404
0.004338095
0.0038238273
0.004187876
0.004055593
0.0029675001
-0.001212327
-0.0017424461
0.004281469
0.005536174
0.0033939763
0.004027812
0.0037412213
0.005167376
0.004938378
-8.379458E-4
-0.0016391282
0.001280255
1.0074461E-4
-0.0022460737
-0.0037679253
-0.004752282
-0.0048053307
-0.0031004716
-0.0011080622
-0.0016450732
-0.0033464443
-0.0045686224
-0.004132215
-0.0032574343
-0.0035774917
-0.0025580474
-0.0018861005
-0.0013391984
0.0013494265
7.652337E-4
-0.0016050693
-1.6532314E-5
0.00202509
0.0010736042
-0.0017766441
-0.0032534697
-0.0015685769
-5.4172456E-4
-0.001501863
7.735186E-4
0.005331706
0.005850334
0.004183549
0.0029742643
0.0020996598
0.0037634515
0.0041008904
-1.3641009E-4
-0.0033889604
-0.0028799372
-0.0022077141
-0.0034090101
-0.0025022677
6.9395575E-4
8.689806E-4
-0.0010969265
-0.0019211672
-1.5695642E-4
0.002520054
0.002385081
7.836714E-4
-9.217183E-4
-0.001810874
-0.001533717
-0.002587187
-0.0030250687
-0.0020174582
-5.221594E-4
0.0019037981
0.0030433172
0.0037831645
0.003283218
5.915493E-4
1.8503114E-4
3.9302846E-5
-9.3697663E-4
-2.3290762E-4
-7.760736E-4
-0.0019423333
-0.0010066794
7.210326E-4
5.420398E-4
-0.001601442
-0.0018577711
-7.471317E-4
-9.1479527E-4
-7.682097E-4
4.921758E-4
9.932291E-4
1.1500595E-4
1.0022244E-4
3.3785918E-4
-1.2245613E-4
7.1678235E-4
4.8584072E-4
-3.5911653E-4
0.0013943055
0.0011905106
-0.0018228443
-0.0012881714
0.0020254941
0.0016108827
-6.412541E-4
1.8292514E-4
4.6873884E-4
-2.7335505E-4
3.5716643E-4
-3.1044736E-4
-0.0013168497
-0.0017978777
-0.0021137863
-3.1280168E-4
9.281474E-4
-5.684079E-4
-0.0026079824
-0.0027635745
-0.0010957301
-1.6234471E-5
5.416246E-4
-1.01856334E-4
-0.001698976
-0.001216096
-3.901505E-4
2.2234752E-4
0.0019973938
0.0028512292
0.0019762823
5.3857126E-5
-4.9640023E-4
9.456347E-4
0.0019454233
0.0033782185
0.003572368
9.411325E-4
0.0014526105
0.004712681
0.0038346231
6.4610026E-4
-0.0014614917
-0.0036012458
-0.0032520103
-6.4306933E-4
-1.9013006E-4
-5.640578E-4
-8.9102413E-4
-0.0021352153
-0.0023310138
-0.0013529215
-0.0013264393
-0.0022987858
-6.7553873E-4
0.0015346889
-9.98244E-5
-5.8542186E-4
-0.0010371894
-0.004131164
-0.0025890502
4.1668856E-4
2.3586742E-4
0.0010174633
0.0014505222
0.0010906506
0.0014440387
0.0011495793
3.116369E-4
-8.3685113E-4
-0.0013001718
1.9763166E-4
0.0030528319
0.0037782195
-9.105926E-5
-0.0030032946
-8.467616E-4
0.0011300751
-5.29274E-4
-0.0017716397
-5.5966625E-4
2.7739484E-4
9.761725E-4
0.0018595895
0.001780576
0.0010373174
-0.0020594997
-0.0041349162
-0.0017970367
-9.965214E-4
-8.1342616E-4
0.0024045077
0.002453084
-2.8352495E-4
5.1554845E-4
0.0014317255
-3.5012665E-4
-7.237444E-4
-3.376604E-5
4.2307677E-4
0.0011135933
1.8686702E-4
-9.586642E-5
4.6736465E-4
-0.0015459644
-0.0025233931
-5.959299E-4
0.0013969732
9.98631E-4
-0.0020742451
-0.0024421227
-1.922761E-5
9.5099636E-4
3.732627E-4
-0.0029136545
-0.0038523604
9.64408E-4
0.0017971806
-0.0019851972
-0.0018747379
7.179426E-4
0.0011340715
-6.3446424E-7
-5.519934E-4
1.3892973E-5
0.0014374558
0.002322365
0.0017083394
9.418594E-4
3.24814E-4
-1.9653422E-4
-2.228026E-4
4.4129498E-4
0.001538948
6.3246675E-4
-7.690288E-4
-1.4888901E-4
-6.308657E-4
-0.0014575614
-4.6429507E-4
7.1841714E-5
4.0033346E-4
7.951757E-4
1.1645708E-4
7.092178E-6
3.861622E-4
-0.001205008
-0.0020934918
2.5382606E-4
6.9935893E-4
-5.077902E-4
6.8979635E-4
0.0010893175
6.8251055E-4
-5.7795556E-4
-0.0026816884
-9.877179E-4
-4.1809503E-4
-0.001243955
0.0014214453
0.0014665081
0.0012319317
0.0018977762
-2.567288E-4
0.0012129801
3.2668246E-4
-0.0045741084
-0.0018756356
8.031961E-4
-6.567324E-4
4.1567752E-4
6.175988E-4
-6.872771E-4
-0.0013061231
-1.6217778E-4
0.0021768713
0.0016069101
-2.2606806E-5
-6.7165284E-4
-8.348806E-4
2.1930126E-4
3.748023E-4
-9.171923E-4
-0.0021125122
-0.0014414721
4.9057446E-4
-5.3538155E-4
-0.0025779337
-9.6737634E-4
0.0021925534
0.0029202458
0.0024438594
0.0025199451
6.109159E-4
-4.3170736E-4
0.0011049364
-2.9058047E-4
-0.0020113024
-0.0010515024
-7.456735E-5
7.173274E-4
1.4469566E-4
-4.6899632E-4
2.4152658E-4
7.291832E-4
0.0011026292
3.5464106E-4
2.5701497E-4
9.833495E-4
-1.5064681E-4
-9.3845086E-4
-0.0023185057
-0.0032103134
-4.7077792E-4
6.3629396E-4
-3.0559133E-4
3.5894953E-4
0.0011827737
3.6107158E-4
-0.0019052284
-0.0010593133
0.0019005389
7.548663E-4
-0.0014479998
-0.0016655622
-4.6617162E-4
0.0018639127
0.0015637228
-2.3578954E-4
-4.4466503E-4
-7.2530605E-4
-5.5195694E-4
-4.4340073E-4
-2.847769E-4
0.0022245995
0.002605414
1.6900673E-4
5.378687E-4
7.715249E-4
-0.0012557218
-0.0013202296
-3.7039001E-4
-1.3552718E-4
7.1606715E-4
0.0016425179
-4.675051E-5
-0.0034845865
-0.0024550706
6.833714E-4
1.6746711E-4
3.3591303E-5
-5.505057E-4
-0.0024086954
-2.6318018E-4
0.0017547904
0.0010120358
9.576316E-4
6.2413374E-4
-2.2915656E-5
2.7358485E-4
5.690462E-4
-4.5271017E-4
2.7997314E-5
0.0023702763
5.653173E-4
-0.0013287875
2.7319262E-4
-3.889393E-4
-3.257619E-4
0.0015617409
0.0011935313
3.1367582E-4
-5.5812387E-4
-7.3306594E-4
-4.2734892E-4
-5.188675E-4
5.69857E-4
7.682719E-4
-3.6279976E-4
-0.0013682618
-0.0017148451
-4.775363E-4
6.000766E-5
6.862235E-5
-3.4191512E-4
-0.001750117
-7.7773444E-4
4.6163198E-4
1.6643041E-4
-1.0238589E-4
-0.0011564275
-9.663503E-4
-4.948946E-4
-6.747483E-4
4.5541083E-4
-2.5471865E-4
-5.060019E-4
0.0025609857
0.00279282
-9.420559E-5
-0.0014994205
-6.570351E-4
0.0017745151
0.0036386948
0.0027918066
-2.7015072E-5
-0.0014330939
4.5116438E-4
0.0023540582
0.0010833801
-0.0013499996
-0.0022141675
-9.962685E-4
0.0014114629
0.0016665071
-0.0013993628
-0.0032421362
-0.0011387246
1.1531111E-5
-0.002969082
-0.0032921399
3.545889E-4
0.0010049545
7.649393E-4
0.001682674
4.8366768E-4
-9.862041E-4
-0.0012113319
-4.6185835E-4
5.155386E-4
9.361593E-4
0.001634516
9.572378E-4
4.3352877E-4
0.0011706211
-7.7100896E-4
-0.0016447626
7.282607E-4
5.290046E-4
-2.713574E-4
8.273112E-4
-1.0305904E-4
-7.128781E-4
5.415241E-4
-8.247943E-4
-0.0013447165
-4.343877E-5
-0.0016285786
-0.001019143
0.001647248
0.0017758618
0.0022326766
0.0010798905
-6.412473E-4
4.3665408E-4
0.0010402886
0.0010483591
4.628367E-4
4.168017E-4
2.7153088E-4
-0.0025999495
-0.001852863
5.5259437E-4
-8.823998E-4
-0.0010122594
-2.61363E-4
3.42762E-4
2.463784E-4
-0.0018524776
-0.0017696719
-0.001501012
-6.334194E-4
0.0013599748
-0.001091619
-0.0013685398
0.0010955223
-4.334E-5
4.32047E-4
0.0012334065
8.2585064E-4
0.0011703947
-8.312716E-5
0.0013085842
0.0027700146
-2.9230333E-4
-0.0012706227
-5.123444E-4
3.9988913E-4
0.001838397
6.8074465E-4
5.490229E-5
2.1287157E-4
-0.0011652041
-8.650263E-4
1.5012384E-4
-1.4424138E-4
-7.029368E-4
-9.3147036E-4
5.3961674E-4
0.0019765727
5.5715133E-4
-6.5775693E-4
3.5286273E-5
-5.592339E-4
-0.0012355148
-4.0003873E-5
6.236403E-4
3.84753E-4
-3.663956E-4
9.31261E-5
0.0023393314
9.896971E-4
-0.0027587677
-0.0036905918
-0.0022610237
9.633492E-5
3.2812884E-4
-1.02625054E-4
0.0012772243
9.817799E-4
6.923762E-4
3.2837893E-4
-0.0014699552
-2.83314E-4
5.754668E-4
-5.7844084E-4
3.112874E-5
-3.463898E-4
-8.003042E-4
7.5720315E-4
0.001631927
0.0016589414
3.8528416E-4
-9.952324E-4
2.78608E-4
8.298063E-4
-7.979819E-4
-9.18837E-6
0.0020295635
0.0016043343
9.181158E-4
7.839517E-5
-0.00180972
-0.0022906235
-0.0022432827
-0.002331121
-0.0011983607
7.9854706E-4
0.0023295833
0.0011622162
-5.9773185E-4
5.0201583E-5
5.9660245E-4
6.321159E-4
0.0010357306
8.7500556E-4
8.6936186E-4
6.279607E-4
-2.843178E-4
-4.7366307E-4
-1.9267948E-4
-3.0165864E-4
-6.3481345E-4
-6.2942674E-4
4.7437582E-4
0.0014936818
3.8183256E-4
-6.3457276E-4
0.0011847194
0.0022996438
-5.2109506E-4
-0.0027878804
-0.0017412705
-0.0024392095
-0.0036152266
-1.6684276E-4
0.00224658
9.335275E-4
4.941032E-4
2.4870256E-4
-7.281641E-4
-0.0012111738
-2.9782995E-4
0.0011648741
3.287057E-4
-0.0010335979
-7.4242865E-4
1.1611954E-4
6.1347656E-4
4.5651608E-4
0.0018650779
0.003291893
0.0011369205
-0.0012973195
-0.0013768882
-7.1977644E-4
-3.776089E-4
-4.9801474E-5
-6.66278E-5
-1.3515372E-4
0.0015586354
0.0020132812
1.289804E-4
-4.5744583E-4
-3.1659607E-4
6.2427873E-4
3.8180657E-4
-0.0018125065
-7.772427E-4
6.42527E-4
6.900108E-4
0.001708937
8.7116676E-4
-4.664658E-6
-2.5733624E-4
-0.0013480315
-0.0011568476
-3.6837647E-4
6.239325E-4
-9.037275E-4
-0.003569031
-6.099787E-4
0.0028387613
0.0026603793
8.625299E-4
-0.002401451
-0.0026858533
-0.0011636537
-0.0010513392
-2.4291917E-4
1.8478859E-4
0.00124376
0.0017304647
-3.882953E-4
5.6124292E-5
9.233644E-4
-9.1596675E-4
-0.0013407584
-0.001354648
-4.905056E-4
0.002017359
0.0012507434
-1.591666E-4
9.99141E-4
7.0891844E-4
-1.8855078E-4
1.8806977E-4
3.012237E-4
-1.3930915E-4
-0.0014158338
-0.0016904094
-4.8377013E-4
-2.8522682E-4
0.0010469457
0.0036290104
0.002812309
-9.005092E-6
-4.9161253E-4
3.8679337E-4
5.568251E-4
1.6402478E-4
-8.071506E-4
-8.469791E-5
0.0016992219
-2.7730552E-4
-0.0017585043
-2.2835453E-4
-0.0010909074
-0.0015963014
-1.07924745E-4
1.4321224E-4
4.9542484E-4
4.4284333E-4
-2.7846132E-4
-5.738028E-4
-0.001259845
-0.0015157603
-9.5550535E-4
1.3149067E-4
1.3517393E-4
-0.0013743362
-0.0010428684
3.3880628E-4
0.0010375985
0.001470966
5.730495E-4
-1.4271765E-4
9.512223E-4
0.0018267153
4.2204297E-4
-0.0010742465
-8.6420565E-4
-0.0016875529
-0.0014142969
0.0010218791
9.309255E-4
2.5123352E-4
4.6445683E-4
1.7610751E-4
0.0011303123
0.0018769874
0.0015994376
1.543986E-4
-0.0022903916
-0.0011424411
8.358287E-4
-0.0011366608
-0.0014172101
0.0014122088
0.001367526
-4.473248E-4
-6.659914E-4
-0.0013018927
-7.599263E-4
0.001703417
0.0019661556
0.0021193281
0.002174122
3.4249613E-5
-2.731747E-4
-9.401913E-4
-0.0026583914
-0.0016045122
-0.0014137899
-0.0016810128
-7.7343266E-4
-5.710882E-4
0.0011843782
0.0020644607
-2.4338656E-4
-0.001615359
-9.6865825E-4
-1.4143946E-4
-3.456756E-4
1.4138085E-4
0.0012457771
7.4066507E-4
4.6886128E-4
-5.457943E-4
-0.0020308252
-6.5903034E-4
6.6096074E-4
9.435469E-4
8.5035193E-4
6.813497E-5
0.0010864222
0.0016393196
9.218501E-4
0.0015465437
6.574647E-4
-6.590168E-4
0.0011306037
0.0010820344
-0.0021981318
-0.0015162677
0.0010868681
-2.0467115E-4
-0.0011597231
-0.0013423789
-0.001603874
4.7526922E-4
7.5567677E-4
2.008076E-4
5.181093E-4
-0.0011370697
-0.0011699179
-5.455299E-4
1.0908518E-4
0.0023678958
0.001041315
-2.516551E-4
7.908384E-4
-6.0168654E-4
-0.0013315622
-6.5848057E-4
1.1122546E-4
2.1434533E-4
-7.733639E-4
9.625289E-4
0.0016891225
-1.321166E-4
6.305271E-4
0.00103245
4.809203E-4
8.950724E-4
-5.0185795E-4
-0.0030380692
-0.0030204332
-7.4183874E-5
0.0010477145
8.5203676E-5
9.410855E-4
0.0013431214
1.1209969E-4
-0.0013607441
-0.0018836396
-4.30724E-4
-2.3863539E-4
-8.7006856E-4
4.3020863E-4
9.568444E-4
1.3648825E-4
5.2930927E-4
0.0012192462
-8.429748E-5
-7.784611E-4
7.5313954E-5
-6.227549E-4
-8.094124E-4
2.2422855E-6
9.257922E-5
4.1616987E-4
4.409048E-4
0.0014955819
0.0019071163
7.9237553E-4
0.0019056252
0.0015500576
1.9137646E-4
0.0010093781
-2.0046845E-4
-4.943368E-4
0.0010127458
4.3534725E-5
-7.450303E-4
-0.0019257362
-0.0035507076
-0.0013127142
0.0010400563
-0.0013968943
-0.004236942
-0.002783395
1.7219975E-4
0.0012236432
3.9360626E-4
-4.6106178E-4
3.531125E-6
-3.4685247E-5
-6.5326825E-4
-5.456412E-4
1.02061356E-4
0.0013436216
0.0014546108
0.0013097923
0.0025713549
0.0022360655
7.684786E-4
7.0247165E-4
9.0598006E-4
4.1607989E-4
-3.346502E-5
9.63817E-6
2.543771E-4
6.021582E-4
-4.4160348E-4
-0.0016653221
-2.0286493E-4
4.6840977E-4
-9.514155E-4
-0.0021651746
-0.0023544044
3.8057515E-5
9.863821E-4
-0.001468782