7.491837E-4
-6.6066044E-4
-0.002253786
-0.0028195947
-0.0017221877
-3.0833785E-4
3.557992E-4
-1.3595996E-4
-5.0335785E-4
-6.6021096E-4
-0.0013653343
-5.174583E-4
2.7865928E-4
2.9406275E-4
0.0016321508
0.0010029856
-4.0988877E-4
3.6075796E-4
6.298853E-4
4.993962E-4
-1.986392E-4
-3.2842637E-4
0.0013773603
9.4491144E-4
2.135388E-4
0.0011337628
2.9390835E-4
-7.199582E-4
-5.258918E-4
-5.6147855E-4
-4.141257E-4
3.4338693E-4
5.713855E-4
-1.9943749E-4
4.9794774E-4
0.0012220712
-6.8785425E-4
-0.0012290357
-1.5330478E-4
4.9119594E-4
0.0018360765
7.6233206E-4
-0.00169382
-2.1420707E-4
0.0018813708
0.0010431043
-5.9929176E-4
-0.0010557487
-1.0012179E-4
-7.805889E-4
-0.0029485307
-0.0020405739
7.3706244E-5
-2.7659766E-5
-3.2981782E-4
-1.5390989E-4
-0.001015023
-0.0020760514
-3.1758143E-4
0.00290646
0.002378028
-5.410432E-5
-7.4986304E-4
-0.0012174919
-6.112963E-5
0.0026655474
0.0018580672
-7.305806E-4
-2.9567597E-4
6.63723E-4
9.612526E-4
0.0021390156
0.0014491514
-3.3301036E-4
2.7792866E-4
0.0018947116
0.001454581
-0.0026206602
-0.0047003385
-0.0016718722
-8.100823E-4
-0.0010777112
1.0955358E-4
-0.0011921286
-0.0012695664
6.079596E-4
3.603416E-4
-1.2961931E-4
3.8863206E-4
4.4836156E-4
-0.0010961173
-7.966636E-4
0.0016805637
0.0015800027
0.0016890122
0.001069623
-8.31328E-4
6.0662685E-4
9.147768E-5
-2.3378477E-4
0.002165668
6.291673E-4
7.430776E-4
0.0019848323
-1.507801E-4
-5.407583E-4
-0.0020350742
-0.0034268184
-9.136949E-4
0.0011929235
0.0016654618
-2.5084187E-4
-0.0018430909
-0.0014370767
-0.0019098116
-6.838397E-4
0.0011138255
0.0011298393
9.3558186E-4
5.5153755E-6
-2.8513552E-4
1.6542168E-5
3.9012692E-4
0.0010471864
3.2756428E-4
-4.2279807E-4
-6.204138E-4
-2.8821871E-6
8.0691726E-4
-4.9728685E-4
-0.0011156697
-4.499415E-4
2.1641073E-4
0.0010830298
3.453747E-4
-7.335422E-4
-8.3740713E-4
3.3566226E-5
5.9826E-4
-9.386585E-5
2.9315773E-4
-9.515508E-4
-0.0019066627
0.0010639897
0.0016648584
9.874784E-4
4.7665893E-4
-0.0011804997
4.805339E-4
0.0015171978
3.199539E-5
-1.8863777E-5
1.5225352E-4
5.5176637E-4
2.0858325E-4
-9.0540113E-4
-0.0016529297
-0.0013094398
8.414288E-4
-9.1731876E-5
-0.0014956929
7.1372546E-4
8.417351E-4
2.0948202E-5
-1.2846937E-4
-1.2178041E-4
0.0017663613
0.0024029934
0.0023986187
0.0016866045
-0.0014526566
-0.0022356103
-9.3697244E-4
-4.5345136E-5
7.40152E-5
-0.001192554
-7.236854E-4
-1.8491891E-4
-0.0017523607
-9.775141E-4
5.833373E-4
5.2252926E-5
1.6909339E-4
4.5926898E-4
4.2137475E-4
4.9832725E-4
-0.0019189873
-0.0036531421
-0.0017455908
-7.8421755E-4
-2.7690992E-5
0.0017002005
0.00158771
0.00201039
0.0025994817
0.0010178876
3.1483895E-4
0.0013946632
0.0015909872
5.9562444E-5
-5.038636E-4
4.920861E-5
-4.6216534E-4
-1.1354486E-4
6.6269706E-5
-0.0012603016
-0.0010252482
-7.603065E-4
-7.4800674E-4
0.001493358
0.002613605
8.1478484E-4
-5.927767E-4
-1.6118803E-4
-2.0872388E-4
-8.456356E-4
5.657707E-4
8.2713825E-4
-0.0011530297
-3.3129065E-4
7.6109637E-4
-1.613453E-4
8.568143E-5
-3.0366707E-4
-0.0013572496
-9.852004E-4
-0.0013996374
-0.0021190366
-0.0011241569
-5.3217254E-6
-7.616786E-4
-0.0023582655
-0.002261725
-5.783735E-4
0.0010048527
0.0012270105
6.987264E-4
0.0016729905
0.0030583546
0.0026178563
9.138661E-4
-3.614134E-4
-4.0744946E-4
-3.470218E-4
4.0745022E-4
0.0021577291
0.0019295259
1.9953384E-4
-3.537314E-4
3.925769E-4
0.0016563648
0.0025225403
0.001741707
-7.5963436E-4
-0.001498969
-3.610039E-4
-0.0017097988
-0.0038590448
-0.0035025738
-0.0011388948
-1.7280804E-4
-0.0023874517
-0.0015245415
0.001763133
0.0014412224
0.0016297098
0.002440537
8.655995E-4
-9.430146E-4
-0.0018649767
2.3533925E-4
8.6473156E-4
-0.003192265
-0.002342439
0.0027534962
0.003604517
0.0013541625
-0.0017270618
-0.00296316
3.324952E-5
0.0021221752
-0.0012529076
-0.004795645
-0.002423352
0.0016289661
0.0021872171
0.001290489
0.0011109542
0.0012473617
5.542367E-4
-6.55655E-4
-8.123469E-4
-5.8309466E-4
8.595376E-5
0.0013997485
9.188705E-4
5.614234E-4
0.0025060745
0.002570534
0.0012781535
0.001059867
-7.357128E-4
-0.0012912366
3.0520186E-4
-0.001219011
-0.0016807816
0.0010483201
-1.4004765E-4
-0.0024310807
-7.418479E-4
3.0814204E-4
-5.130941E-4
-1.6435483E-4
4.1144743E-4
-4.3440532E-4
-0.002464952
-0.0031697662
-7.634129E-4
0.0011893302
7.820388E-4
-3.4813187E-4
-0.0017196867
-9.2132937E-4
0.0011520108
0.0011155105
0.0014606386
0.0019666667
2.940349E-4
-5.7047844E-4
7.054376E-4
0.0015156075
6.896347E-4
3.115018E-4
-2.1503034E-5
-0.001347828
-3.5823247E-4
6.5258815E-4
-0.0015848647
-0.0025259068
-6.302573E-4
0.0010995558
8.35858E-4
6.9377996E-4
0.0019992327
0.0013571382
3.9774625E-4
-8.969475E-5
-0.0024582185
-0.0030861036
-0.0022828751
-8.351489E-4
0.002822882
0.0041483953
0.0036333513
0.0034216219
0.0011232131
-8.4308913E-4
-7.219328E-4
3.5809728E-4
3.9147484E-4
-0.002127779
-0.002515239
-7.0349476E-4
-0.0017468429
-0.0029702184
-0.003066767
-0.002931088
4.6883908E-4
0.0022669616
-7.062674E-4
-6.310733E-4
0.0015416058
0.0012560526
8.4906834E-4
5.357397E-4
0.001285462
0.0016672318
-2.9167827E-4
-1.15636336E-4
-1.7894323E-4
-0.0020782168
3.6012818E-4
0.0028678991
3.0688554E-4
-8.447555E-4
0.002042153
0.0034624361
0.0016192942
-7.5974106E-4
-0.0030379607
-0.0040962845
-0.002052618
7.295991E-4
1.6562804E-4
-0.0024365473
-0.0019955765
-3.5091373E-4
-5.4100587E-4
3.671853E-4
0.0014072999
0.0014287322
0.002096365
0.0019320288
8.337384E-4
8.087251E-6
8.403024E-4
0.0021832832
4.796534E-4
-0.0011134043
-0.0015347643
-0.002419435
-2.2741508E-4
0.0013831577
-5.164611E-4
-0.0010056018
-9.130961E-4
-2.9412378E-4
0.001226742
6.533516E-4
3.0226153E-4
-2.3760385E-4
-0.0016553958
-7.641644E-4
-6.982134E-4
-0.0010079058
8.7421824E-4
0.0012341915
0.0014204261
0.0020696
0.0011491051
8.869931E-4
1.7609926E-4
-0.0011364834
-9.4352785E-4
-5.499646E-4
-1.9194544E-5
4.920207E-4
3.999755E-4
5.472379E-4
4.5263208E-4
-9.993097E-4
-0.0025052747
-0.0023529944
-0.0025866234
-0.0023660893
-5.367973E-4
-3.816629E-4
2.4584111E-5
8.4953057E-4
0.0012946897
0.0041115475
0.0044953744
0.0015983518
-0.0014225106
-0.0035108363
-6.2602124E-4
0.0019905723
0.0016545379
0.002282264
4.497012E-4
-0.0018854543
-0.002856485
-0.0030882277
-0.0017701501
-0.0030983866
-0.0026258384
0.001882954
0.0030494328
0.001463489
6.150554E-4
0.0025174378
0.0035618208
0.0024398875
0.0027486403
-4.8146615E-4
-0.00134985
0.002731363
4.1760373E-4
-1.14095215E-4
0.0022081665
-0.0012305018
-0.0020166102
-2.9013836E-4
0.001091672
0.0025786213
-2.3337787E-4
-0.0025051082
-0.0038511115
-0.0067291674
-0.007216384
-0.007733081
-0.0060947193
-0.0019353315
-0.0017100483
2.4639483E-4
0.0044437037
0.0043540574
0.0040738895
0.0028342376
-6.0784834E-4
2.1594882E-4
0.00315757
0.0051222024
0.007519731
0.0077961865
0.00550186
0.002101943
-0.0013512621
-0.0032066663
-0.0036735334
-0.0017995287
0.0010483493
0.0015485126
6.4315874E-4
-0.0010914749
-0.0025662484
-0.002703582
-0.0034803913
-0.0042730323
-0.0042325594
-0.0029643443
7.0060795E-4
0.0016961775
-0.0032963487
-0.0064569577
-0.002375935
0.0025080885
0.003364625
0.0028411837
0.0011652429
-2.129182E-4
0.0011974158
0.0017076216
0.0010889231
0.0010710221
9.575335E-4
0.0020358444
0.0017639345
1.7717325E-4
-2.307739E-6
-0.0010666612
-1.140365E-4
0.0023700108
0.0018138641
0.0021934875
8.301567E-4
-0.004359771
-0.004870042
-0.001140059
0.0017169873
0.0022891
6.354498E-4
2.501764E-4
8.255638E-4
-0.0014287106
-0.0046064677
-0.0033214753
-8.520264E-4
-0.002814519
-0.0019919588
0.003140184
0.003375697
7.640844E-4
9.308831E-4
0.0018437428
0.0011478084
0.0017573775
0.0041042236
0.001607042
-0.0031196156
-0.0036755118
-0.0021298989
3.27563E-4
2.805603E-4
-0.0023398558
-0.0021800147
-0.0012086341
-1.9867749E-4
3.4116965E-5
-0.0010007132
0.0011493769
0.0014107709
-3.64418E-4
0.002372765
0.0027496128
0.0011154829
0.0028917054
0.0016720399
-0.0011249493
-0.0012260667
-0.0022160253
-0.0025399562
-0.0010902076
-6.862401E-4
-4.663204E-4
3.8414696E-4
0.0011377368
8.6604676E-4
0.0010414295
0.004331094
0.0067561287
0.0053314627
0.0038740984
0.0040000975
0.0048425556
0.004017705
-0.0018383061
-0.010696353
-0.01499114
-0.011825207
-0.008636592
-0.0070516407
-0.0018343059
0.002632352
0.0039487407
0.004048913
0.0014732126
2.1567011E-4
3.9625735E-4
-0.0028796878
-0.006932637
-0.007253017
-0.002707206
0.001460702
0.0013257179
0.0012624455
0.0035346085
0.0074654943
0.00877681
0.0054138754
0.0057057682
0.012533771
0.018348265
0.014588872
0.005008839
0.0024959499
0.0019347091
-0.00469609
-0.010906679
-0.013789978
-0.012980524
-0.010401602
-0.009454885
-0.008526845
-0.006368647
-0.0019523823
0.0011541474
0.0017319993
0.0032383755
0.003222046
0.0028179765
8.0922944E-4
1.618561E-4
0.00661928
0.00254934
-0.010618966
-0.012912185
-0.009031714
0.0014664255
0.012003172
0.008315844
0.0039655906
0.0027876713
-9.139302E-5
0.0012989838
0.0019833606
0.0015973484
0.0021573934
-0.0011381672
-0.0013270125
0.001485483
-0.0019464004
-0.004022988
9.299867E-5
0.0020043529
6.510408E-4
-0.0018887226
-0.0024134053
0.0017177847
0.0038091629
0.0054935496
0.0070492905
-9.390827E-4
-0.007660364
-0.004075326
6.370732E-4
0.0041002966
0.0041491445
1.0909227E-4
-0.0021878178
-0.0021761837
-0.0032038407
-0.0062188045
-0.004566989
0.0020312995
0.0035402575
5.984537E-4
-0.0015911374
-0.0022646976
-0.002256995
-0.0022332408
-0.0012298685
-0.002773278
-0.0038086502
-2.7050499E-5
0.001010308
0.0029680834
0.007846399
0.004378865
-0.0023121939
-0.0036336735
-0.0019009988
0.0010267694
0.0024230848
0.0035865195
0.006343094
0.007799734
0.00736984
0.0041950247
6.0312523E-5
-9.5559587E-4
-7.752442E-4
-0.0017520969
-0.00328001
-0.0038498503
-0.0036327094
-0.0038116167
-0.0028287838
-0.0037445375
-0.0077946316
-0.008541368
-0.008227564
-0.00956179
-0.008392205
-0.0051796013
2.516077E-4
0.0058097113
0.008567342
0.010876187
0.010229171
0.009736791
0.014017342
0.013823023
0.008294768
0.0055431533
0.005291379
0.0033010317
-0.0011952481
-0.0016892077
-5.31287E-4
-0.006191729
-0.0105330935
-0.009440711
-0.008910717
-0.007908661
-0.007409075
-0.0060773683
-0.0014163562
3.1464762E-4
-0.0020085594
-0.007217857
-0.015497071
-0.020105464
-0.018460209
-0.01331935
-0.004123783
0.007138049
0.014160391
0.017064214
0.021440338
0.02329706
0.019486042
0.017961962
0.018346958
0.011995702
-0.0014407067
-0.0122371735
-0.014520421
-0.011953906
-0.0025492357
0.010454719
0.015276295
0.0147486245
0.010621537
8.950422E-4
-0.0075887004
-0.01481096
-0.020422596
-0.020033324
-0.014370722
-0.0035086465
0.007892807
0.012950916
0.010311702
0.002394356
-0.005080639
-0.008585659
-0.006832601
-0.0012406553
0.0019954082
-0.0011200196
-0.0066239927
-0.008641116
-0.011034831
-0.014907522
-0.015612787
-0.017554047
-0.02057801
-0.021783987
-0.021151284
-0.012399838
0.0018637708
0.015493281
0.028922422
0.03907681
0.042274885
0.03739107
0.03230627
0.03272117
0.029383326
0.0179079
0.0028922702
-0.0061554313
-0.0074404315
-0.011028981
-0.010719478
-0.003923563
-0.001613254
-1.10044566E-4
-2.6732648E-4
-0.006789564
-0.018457329
-0.035083592
-0.041825052
-0.035519116
-0.027537711
-0.014535156
-0.007559702
-0.014899124
-0.019800125
-0.0194481
-0.013615135
-7.3137175E-4
0.009815123
0.022192784
0.039642658
0.053187773
0.057110608
0.051716927
0.0453229
0.033420525
0.0075922366
-0.016268203
-0.026833666
-0.027471619
-0.022633333
-0.02251131
-0.03241126
-0.043537416
-0.041541692
-0.025136087
-0.0044152313
0.012831438
0.018683488
0.02017043
0.024725629
0.022296816
0.017269203
0.0142172575
0.009632498
0.0068218303
-0.0010676978
-0.010715473
-0.012927095
-0.017431615
-0.025021862
-0.023110004
-0.008477392
0.0033294058
0.0052072336
0.00985431
0.015293585
0.015790524
0.0044274544
-0.017304385
-0.016776115
0.0025051357
0.011251049
0.014436375
0.01847158
0.023932606
0.023895629
0.011706809
0.0014856497
0.0032677627
0.02034665
0.044620447
0.060369384
0.057922896
0.034844466
0.010297015
-0.019756459
-0.07168216
-0.111257434
-0.12090707
-0.12338064
-0.10890538
-0.06031268
-0.018293574
-0.009616308
0.010539994
0.045797233
0.05980118
0.066218965
0.06619927
0.028154494
-0.035350367
-0.06432618
-0.039143283
-0.001608134
0.039666913
0.096338
0.12541229
0.10457832
0.08564983
0.08024054
0.059594493
0.0617325
0.08238825
0.053879693
-0.013463358
-0.09219225
-0.1453823
-0.13009189
-0.10094886
-0.084278524
-0.059713148
-0.07192664
-0.115789585
-0.11695918
-0.041410413
0.070652686
0.1221728
0.07799418
0.013383109
-0.014348993
-0.023073232
-0.03826521
-0.05726716
-0.061637923
-0.04005402
-0.0017400855
0.03398721
0.06829075
0.11572906
0.13268043
0.091088675
0.055385444
0.04453327
0.04246087
0.05135628
0.043919146
0.025290446
5.0831813E-4
-0.029485065
-0.041551396
-0.057297785
-0.06282353
-0.04799164
-0.056584243
-0.061504308
-0.009730282
0.07093055
0.096238606
0.097191304
0.107247494
0.018983552
-0.081417255
-0.10105977
-0.13906628
-0.1602011
-0.17898169
-0.19673584
-0.12285763
-0.079360105
-0.054558534
0.044229414
0.1047635
0.116398044
0.103830434
0.10401406
0.14584737
0.09229577
-0.019841747
-0.062264506
-0.070762224
-0.018119428
0.09663746
0.17500699
0.20029075
0.1834366
0.14461571
0.1428605
0.13591757
0.023651082
-0.13058321
-0.19542003
-0.17710078
-0.14150496
-0.11196706
-0.09045853
-0.07868445
-0.070946544
-0.063872054
-0.066053376
-0.0629839
-0.044744585
-0.03490623
-0.029585829
-0.0081668105
0.010836605
0.015150935
0.028953977
0.03845783
0.026082907
0.03570149
0.06317981
0.067434296
0.060941517
0.052853364
0.041855086
0.027902406
0.007635676
-0.0054441877
-0.012625189
-0.019222137
-0.018576259
-0.01343657
-0.003962879
0.005740167
0.009527192
0.011294816
0.008264673
-0.0031503097
-0.0101899905
1.9073555E-4
0.016773123
0.028385814
0.040061276
0.04688486
0.0458246
0.037232887
0.016839055
-0.0026478027
-0.017094074
-0.03688736
-0.053807065
-0.057176907
-0.04967633
-0.041223593
-0.03662538
-0.030245423
-0.023312187
-0.01835725
-0.012029617
-0.008795162
-0.008510342
-0.0042663943
-1.2171808E-4
0.0019057665
0.003649497
0.003998199
0.0070700557
0.009518372
0.008732302
0.01139994
0.01433573
0.0153025845
0.01568018
0.014189189
0.013867203
0.013211482
0.011934794
0.012240219
0.011623808
0.011082406
0.009565946
0.0073654144
0.008971451
0.010562044
0.00903614
0.008686023
0.010020921
0.006640783
-8.429177E-4
-0.0033625413
-0.0019723023
-0.0017182198
-0.003830508
-0.009504053
-0.011807533
-0.009499505
-0.012266279
-0.01818182
-0.019817656
-0.018157719
-0.015815284
-0.012539909
-0.008572909
-0.005944695
-0.0050802785
-0.0036517973
4.920101E-4
0.005115654
0.005790994
0.0014252602
-0.0044557876
-0.004270435
0.0019354093
0.006646857
0.010422731
0.012818052
0.010885852
0.008878495
0.007270085
0.0043973816
0.0026406737
0.0025633224
0.001444056
-0.0029159721
-0.0052407472
-0.0037032126
-0.0037635732
-0.0024076186
7.2112196E-4
3.1336505E-4
-3.7323486E-4
7.1652216E-4
0.0012405649
4.4799972E-4
2.6165366E-5
0.0023789846
0.0029870353
3.715753E-4
-2.5890346E-4
-9.297749E-6
9.2320313E-4
0.002501095
2.3175076E-4
-0.002157543
-5.669836E-4
7.580547E-4
8.9210406E-4
1.0045877E-4
-0.0031897433
-0.003788287
-1.2431898E-4
5.553546E-4
-4.879841E-4
-7.6724746E-4
-0.0024088256
-8.707566E-4
6.610349E-5
-0.0041014985
-0.0035469516
-5.2931113E-4
-0.0016400915
-0.0013609098
5.310511E-4
0.0018089411
0.0019970618
0.0013901128
0.0025739938
0.0031320439
0.0017819272
-7.656095E-5
-0.0023775415
-0.002785576
-7.94408E-4
0.0016586621
0.002175472
8.3501684E-4
-2.0142624E-4
-8.812599E-4
3.612446E-4
0.0013160532
2.1337034E-4
8.5196004E-4
-6.8970716E-5
-0.0020530317
-0.00169943
-0.0025523303
-6.4327026E-4
0.002366287
-0.0013065317
-0.004520901
-0.001243404
0.0026452637
0.0017743284
3.0701509E-4
7.934799E-4
-0.0015870723
-0.0018533122
0.001565305
0.0011341601
-3.420587E-4
-4.7359092E-4
4.0739626E-4
0.002190126
0.0018637285
0.0010726104
-7.5850356E-4
-0.0018816765
3.8218233E-4
1.7427448E-5
-7.7025354E-4
1.9414988E-4
-3.6783074E-4
4.10027E-4
7.909016E-4
0.0014517305
0.003427804
0.002174142
0.0010403934
-6.375101E-4
-0.003468094
-0.002682662
-0.002087366
-0.0013424841
5.497437E-4
6.657444E-5
-2.0639827E-4
7.3285797E-4
0.0028400086
0.0035237304
0.0014516797
0.0023094642
0.0024358584
-1.5163104E-4
-4.54461E-4
-0.0014933208
-0.0027303908
-0.0022237878
-0.0014351689
6.4921746E-4
5.0781114E-4
-0.0029525417
-0.0036606563
-8.0948265E-4
-8.4757747E-4
-0.0037057705
-0.0026445936
-9.202173E-4
-0.0019999647
-0.0018113713
-7.9978677E-4
2.7781266E-6
7.42164E-5
2.612641E-4
0.0013950298
-1.5922805E-4
-0.0011942578
2.59369E-4
8.681119E-4
0.002332752
0.0032931773
0.0036624975
0.0045234547
0.00397072
0.004255256
0.0036052633
0.0014559983
8.465873E-4
-2.8115002E-4
-3.2199285E-4
1.7958356E-4
-0.0013325169
-0.0022096399
-0.0033959376
-0.003643616
-0.002292567
-0.0028269587
-0.001554796
7.178463E-4
-5.379713E-4
-0.0011474049
-0.0011369291
-0.0020450114
-0.0012775088
-0.0015749822
-0.0019367315
3.4349603E-5
2.1492639E-5
-4.7724313E-4
-2.3487082E-4
-7.77111E-4
7.232692E-4
9.1695576E-4
-0.0016342845
-0.0022616433
-5.927476E-4
0.0024902844
0.0023493255
-6.550776E-4
7.054657E-4
0.0039152675
0.003469092
-0.0010733375
-0.0030457536
8.7901735E-4
0.001410404
-8.5587955E-5
0.0014319621
0.0010693214
9.6657133E-4
0.0023976227
0.002456417
0.0017945702
0.0010210647
0.0014821478
0.0016617068
5.2193366E-4
-0.001261127
-0.0038210433
-0.0037027637
-0.0018638532
-7.767931E-4
3.4451028E-4
-8.765548E-4
-0.002517796
-0.0015421975
-4.1861786E-4
-5.7387806E-4
-6.7683216E-4
6.854234E-4
1.3106417E-4
-0.0023090902
-9.594105E-4
6.656957E-4
-1.6838606E-4
0.0011630646
0.0018606222
-4.240514E-4
-7.587575E-4
8.421914E-5
-4.551215E-5
7.7126E-4
6.128057E-4
-3.4913342E-4
-4.202278E-4
-0.0012520095
1.0543825E-4
0.0027504633
0.0018393446
6.149462E-4
0.0015382506
0.0024651657
9.752404E-4
-0.0012008112
-6.5641094E-4
-6.435249E-5
0.00101408
0.0027866908
0.0015848319
2.8193439E-5
-0.0011110755
-0.0015800012
-6.008845E-4
-0.0011004017
-5.113162E-5
0.0019503749
6.31851E-4
-0.0019001388
-0.0037034606
-0.0018621625
2.1692767E-4
-0.0012195121
-5.82493E-4
-4.4556573E-4
-0.0023007318
-0.0016535609
-9.956837E-4
-2.61728E-4
2.801952E-4
-5.704353E-4
3.2243286E-5
8.6270657E-4
0.0011691493
0.001070985
5.50779E-4
0.0019733605
0.0027594187
8.2423724E-4
-4.766831E-4
6.011821E-4
0.0022162695
0.0021496364
0.0016696515
0.001407186
1.3288109E-4
-0.0010141231
-0.0011413383
-1.840856E-4
0.0012126017
0.0018318904
7.6809776E-4
-0.001511864
-0.0013210409
2.2722861E-4
-3.446314E-4
-9.6713204E-4
-0.0019189896
-0.0023319689
-4.6503078E-4
-3.5178036E-4
-8.13037E-4
6.0096274E-5
-7.1692636E-4
-8.2870055E-4
3.062763E-4
1.3053516E-4
9.32193E-4
0.0013194529
-9.4195845E-4
-0.0014532759
-6.341636E-4
-7.123379E-4
4.6428517E-4
4.721504E-4
-2.3584552E-4
7.714746E-4
-3.8744047E-6
-3.466101E-4
8.103567E-4
6.0919476E-5
-3.6874722E-4
-8.404679E-4
-0.0014658725
-4.0256727E-4
0.0012036692
0.002418484
2.5914998E-5
-0.0023915323
-4.6556967E-4
4.734419E-4
0.0015046071
0.0024631978
0.0011397012
0.0018061489
6.4911094E-4
-0.0020692677
-8.780418E-4
-8.875251E-5
5.140871E-4
0.0022244034
0.0020595766
0.0016996163
5.1391113E-4
-0.0017562942
-0.001680256
-5.890984E-4
-3.7279585E-4
-6.290547E-4
-0.0017682491
-0.0015917931
2.5649668E-5
-3.120716E-4
-5.4242286E-5
9.3885435E-4
-4.661851E-4
-5.891631E-4
-6.6829927E-4
-0.0022681884
-0.0010558972
-1.4190804E-5
-1.3824082E-4
8.4769476E-4
0.0010002714
0.0012913512
6.921626E-4
-9.4726763E-4
6.9131233E-6
0.0012742633
6.687582E-4
-5.2634283E-4
-9.2747237E-4
1.2448413E-4
5.4711284E-4
2.6599775E-4
-3.270621E-5
-7.6190196E-4
-7.68996E-4
-9.762235E-4
-2.0558047E-4
0.0024428302
0.0016497765
-1.9375957E-4
0.0013511637
0.0014778718
1.7762772E-4
-4.0336422E-4
-2.0780087E-4
0.001975737
0.0011808178
-0.0013695364
3.1017754E-4
0.0010434719
-3.991062E-4
-8.786426E-4
-9.3784067E-4
3.319211E-4
5.280741E-4
-2.295502E-5
2.0471806E-4
-0.001586639
-0.002339061
-0.0012187283
-6.1552535E-4
-5.909876E-4
-0.002260069
-0.0010792208
0.0016381268
-5.05971E-5
-0.0010001496
-6.4599514E-4
-6.547846E-4
0.0011692102
0.0012810596
9.091817E-4
0.0022833438
0.0015366073
-1.4564078E-4
1.9698881E-4
7.6823274E-4
-2.4704446E-4
-8.4358413E-4
-4.434969E-4
1.164738E-4
0.0016759945
9.246319E-4
-9.2044007E-4
6.8712456E-4
8.211197E-4
-7.7033386E-4
-5.4350734E-4
-8.4768014E-4
-0.001057265
-6.090289E-4
-9.499334E-6
5.277679E-4
-2.0214635E-5
-1.815765E-4
-0.0011199038
-0.0015184686
0.0013646254
0.0017382213
-8.457161E-4
-4.4795446E-4
0.0013985105
5.537793E-4
-7.4069045E-4
8.6648425E-4
3.885765E-4
-0.0026482372
-9.771893E-4
0.002375084
0.0016601498
-0.0010975171
-0.0016711913
3.2355732E-4
9.972233E-4
7.382925E-4
2.9323543E-5
-0.0011140897
6.876866E-4
0.0023377833
0.0016321429
-2.181058E-4
-0.0027816948
-0.0011570726
0.0015799641
3.2451184E-4
-2.3430024E-4
2.0126418E-4
-1.8608253E-4
-9.795215E-4
-0.0023445492
-0.0027378728
-0.002409106
-7.552631E-4
0.0013754537
9.945866E-4
9.339554E-4
0.0011200763
-5.410391E-4
-9.0544356E-4
-7.521935E-4
-9.6140313E-4
6.6239195E-4
0.0015175157
0.0010396574
0.0019503345
0.001974219
-2.8734165E-4
-0.0016994185
7.825469E-5
0.0031924143
0.0029835408
9.7446865E-4
0.001029051
3.9013283E-4
-0.0015315211
-0.0016656121
2.1717281E-4
0.0014759836
4.3894703E-4
-4.2499596E-4
-0.001534975
-0.0028805975
-0.0015453625
-0.0010026721
-0.0010995412
2.0575228E-4
-2.3568813E-4
-2.3616108E-4
-3.657706E-4
-0.0020888404
-7.828119E-4
0.0016059133
0.0014069114
-8.04313E-4
-0.0022004289
-0.0010411892
-8.4417174E-4
-4.5491688E-5
0.002264865
0.0014481879
7.8695023E-4
0.0018545288
0.0015223464
0.0011331687
5.760998E-4
-6.295254E-4
-0.0017502677
-0.0020396844
2.1533073E-4
0.0022807408
0.0017269222
0.0015095195
0.0012022478
-7.5583754E-4
-5.99223E-4
9.708882E-4
6.362007E-4
0.0010759749
0.0013586796
-1.4276903E-4
-7.733225E-4
-0.0016063122
-0.0013599641
6.8952027E-4
2.2745793E-4
-0.0016178173
-0.0017427991
-4.921677E-4
-0.0010430505
-0.002620078
1.796785E-5
0.0014719657
-7.6372793E-4
2.6438838E-5
4.410584E-4
-2.4459097E-5
0.0019951048
0.0013211124
-0.0010738572
-0.0012169833
-1.2399606E-5
0.0011820751
1.06267915E-4
-0.0011633956
-0.001059199
-0.0015987711
-0.0011194246
-7.689511E-5
7.568814E-5
5.118651E-4
0.0012337138
0.0025348812
0.0017560032
-0.0012258518
-0.0013285592
1.9789608E-4
0.0011603382
7.662224E-4
-0.0014137567
-0.0016971462
-0.0011742956
1.9077091E-4
0.003364135
0.0033709859
0.003446473
0.004925044
0.0035536576
0.002474479
6.048888E-4
-0.0027247935
-0.0039981636
-0.0041338364
-0.0028037054
-0.001566031
-0.0010545328
2.5676744E-4
-0.0010504276
-0.0031959692
-0.0013993032
7.7230774E-4
-0.0013476777
-0.0033061018
-0.0016223167
-0.0014519322
-7.640804E-4
0.0017126563
7.983304E-4
5.5238436E-4
0.0010126524
3.2757303E-5
6.285194E-4
3.4927926E-4
0.0010124332
0.002415555
0.0011619013
0.0014600232
0.0015565683
8.301221E-4
0.0024403282
0.0025475044
9.3014416E-4
-5.8169843E-4
-0.0012987617
-7.496253E-4
-6.462063E-4
-2.3732075E-4
-7.182799E-4
-0.0013836089
8.003075E-5
-9.938454E-4
-0.00217852
8.553415E-4
0.0014684494
-5.4811325E-4
1.4529246E-4
0.0010692712
-5.2926125E-4
-0.0024912176
-0.002341229
-3.5446518E-4
0.001344268
0.0017885257
0.0011041245
-1.9392019E-4
-4.1401703E-4
2.802393E-4
-2.6431822E-4
-0.0016809108
-0.001596217
3.677273E-4
0.0012127407
6.860884E-4
0.0015120907
9.444273E-4
-0.0010901317
-4.283801E-4
-2.8650535E-4
-0.0013458955
-1.8205664E-4
3.3797105E-4
-2.715743E-4
1.7425872E-4
5.144499E-4
6.04581E-4
3.2069604E-4
5.0476778E-5
5.1727204E-4
-5.759519E-4
-0.0015656156
1.3041956E-4
4.2973898E-4
-6.4167136E-4
-4.472691E-4
-9.440638E-4
-3.6960273E-4
0.001735702
0.0017611288
9.3924435E-4
6.15972E-4
5.05285E-4
-1.3307712E-4
-0.0014841012
-6.0949265E-4
-1.8863076E-4
-9.837088E-4
0.0014385815
0.0014192521
-0.0013007065
-2.2001227E-4
1.3263033E-4
7.1700815E-5
0.001948605
3.4517457E-4
-0.0013256384
7.1896975E-5
-9.4741065E-4
-0.0026398874
-6.817063E-4
0.0012842547
-3.6601368E-6
-0.0012046598
3.1616067E-4
0.0023040003
0.0022368752
6.9556746E-4
2.0227303E-4
1.6814406E-4
-0.00115919
-0.0017828459
-7.947193E-4
4.33582E-4
6.338143E-4
7.4695266E-4
0.002666846
0.00233807
-9.6075016E-4
-0.0028717213
-0.003587251
-0.0012602857
0.0011450063
-0.0011610829
-0.0016661858
-8.4660925E-5
6.1300414E-4
0.0019607607
7.701755E-4
-8.6818574E-5
0.0010753411
-3.6986123E-4
-0.0010866516
7.275285E-5
4.6307646E-4
7.94618E-5
-0.0011024226
-8.0691144E-4
6.432373E-4
0.0019016975
0.0026430085
0.0013265968
8.4008166E-4
0.0011749968
-2.9019278E-4
-5.5297493E-4
2.5147182E-4
3.6500853E-5
2.6216532E-5
1.6875155E-4
-6.762756E-4
-0.0012299133
-3.3575104E-4
-0.0013366122
-0.0027090192
-3.0845232E-4
8.1719225E-4
-1.413549E-4
2.6489628E-4
9.4113505E-4
0.002247417
0.0016481903
-2.2287324E-5
6.6990213E-4
-0.001318388
-0.003934861
-0.001820353
2.8241376E-4
-8.9206274E-5
-2.945715E-4
5.9381244E-4
1.5996907E-4
-6.9117395E-4
6.6228386E-4
7.4263907E-4
4.6453124E-4
0.0012288775
2.5025822E-4
7.527737E-4
0.0013956383
-5.721174E-4
-9.90589E-4
-5.782527E-4
-3.670487E-4
-7.1732666E-6
-0.0013950318
-0.0020296052
2.1482907E-4
0.00232783
0.0022035984
0.0011483332
-3.8946883E-4
-0.0012773678
2.7211674E-4
8.5200445E-4
-2.467324E-5
-1.5068986E-4
-5.657389E-4
9.465355E-5
-6.700001E-5
-0.0017671565
-8.706197E-4
0.0010531591
0.0023188707
8.028919E-4
-0.0022285236
-3.2750357E-4
0.0020640478
8.092614E-4
-0.0016908721
-0.0037638145
-0.0017751647
3.961474E-4
-1.2437288E-4
8.041021E-4
0.0011463255
4.1219813E-4
2.2016195E-4
-9.4015104E-7
-2.535917E-4
-9.5557683E-4
5.2962656E-4
0.0021408363
0.0010811628
0.0016854546
0.002338325
0.0012907111
-2.4977748E-4
-0.0031401147
-0.00262874
5.295615E-4
4.2014764E-4
-5.4635503E-4
-0.0011477654
-0.001584341
-3.2326873E-4
-9.294396E-6
-0.0012172963
-0.0011203296
3.5520145E-5
0.0010672656
0.0016729473
0.0012635513
-3.9186675E-4
-0.0025314884
-0.002259788
8.805924E-4
0.0012913207
-0.0012972273
-4.3521682E-4
0.0028199845
0.0032350821
0.0022471733
0.002401335
0.0018116133
2.9699533E-4
-6.092192E-4
-0.0023058462
-0.0035084754
-0.001564184
0.0010262061
0.0012509669
-5.071688E-4
-0.0011081394
1.6388578E-4
5.659681E-4
6.0978276E-5
-9.5677207E-4
-0.0019959349
-0.0016726695
-0.001034351
4.872228E-4
0.0028525859
0.0025815438
5.3055084E-4
-8.7599605E-5
-0.00125512
-0.0038199937
-0.002447679
0.0017612322
0.0016717911
-2.015074E-4
4.2272126E-4
6.6886813E-4
2.5116562E-4
8.6338335E-4