-0.0015811628
-9.461312E-4
-3.50945E-4
-0.0017357637
-6.1950245E-4
0.0016794996
8.3173014E-4
-6.5029704E-4
0.0018796457
0.0040822276
0.0011390923
-0.0011300704
2.4367019E-4
0.0012649891
0.0011484356
0.0012188565
8.2729134E-4
-4.0564802E-4
5.4931923E-5
7.940185E-4
-0.0014493036
-0.0017757874
6.0518336E-4
9.363911E-4
0.0011325289
3.8145343E-4
-0.0020510573
-0.001152482
5.126376E-4
-7.3629606E-4
-0.001768132
-9.048632E-4
0.0011692005
0.0018837193
6.969841E-4
1.9867637E-4
-3.2327804E-4
-0.0011344708
-0.0018608535
-0.0025689167
-0.0012628705
-2.1835446E-4
-6.699134E-4
2.0424064E-4
0.0012327441
0.0023839388
0.003459078
0.0012760367
-0.0021819226
-0.0023455299
9.389501E-5
-1.8134394E-4
-0.0025997497
-0.002233388
-5.0238817E-4
0.0013946191
0.0021645713
4.6356427E-4
7.2794984E-4
0.0020303188
0.001260517
1.9654506E-4
-2.0838903E-4
0.0011658393
0.002031879
4.79177E-4
-6.163493E-4
-9.386613E-4
-8.9460274E-4
-3.5864615E-4
7.2556926E-4
7.7116507E-4
-0.0013169658
-0.0011704966
2.102741E-4
3.8842674E-4
0.0016014628
6.714882E-4
-0.0015285588
-8.5765374E-4
-1.146814E-4
-2.6913875E-4
-2.1258467E-4
-3.088153E-4
-0.0010375261
-0.0017203315
-8.7783363E-4
8.286058E-5
2.6033053E-4
5.370092E-4
7.399652E-4
1.6881623E-4
-3.8215905E-4
7.452532E-4
8.1979955E-4
-1.7160077E-4
9.1926847E-4
8.908325E-4
-2.927767E-4
-2.8958032E-4
-3.6939952E-4
-1.3571604E-4
-1.246994E-4
1.7343511E-4
0.0011023027
7.9581136E-4
-5.7455545E-5
-5.9436134E-4
7.498811E-4
0.0021794476
0.0012392274
0.0011127872
2.533159E-4
-0.001407457
-0.00107999
-0.0017211634
-0.0024545677
-0.0024245942
-0.0021899755
-5.0954055E-4
3.6056255E-4
0.001435072
0.0023416174
7.82965E-4
2.7882936E-4
0.0011785174
0.0013951389
1.5663932E-4
-6.4469135E-4
9.6242235E-4
8.667179E-4
5.780603E-5
8.937468E-4
6.665555E-4
5.1103486E-4
3.7709705E-4
8.686529E-5
2.3749034E-4
1.5584122E-4
5.6163134E-4
-0.0013974205
-0.0032502452
-0.0011449219
2.3186083E-4
6.901547E-4
-3.9723725E-4
-0.0034579225
-0.003399694
-0.0014302783
3.794381E-4
8.7510527E-4
-7.88674E-4
-0.001218095
-9.960354E-4
-0.0013412787
-0.0013054523
-2.527849E-4
0.0011314406
-2.2334198E-4
-7.532172E-4
0.0019127335
0.0034587593
0.003565902
0.0026197627
0.0018908005
0.0016276297
0.0016681383
0.0041692904
0.0036389553
5.9920334E-5
3.1689553E-5
0.0010010371
0.001576921
0.0011145269
1.877914E-4
6.8202487E-4
-0.0011080462
-0.0011087845
0.0012345609
-3.9615607E-4
-0.0012558713
-0.0023164733
-0.00614127
-0.0065523623
-0.005542865
-0.005321345
-0.0042915614
-0.0041492144
-0.002619507
9.905602E-4
0.0013091796
-6.4319454E-4
8.099222E-5
0.0019015535
0.0040366664
0.0055239773
0.0030972927
0.0021436908
0.0036300689
0.0019204043
0.0011059814
0.002348597
0.0015930647
2.2812336E-4
6.7561603E-4
0.0018604991
2.827952E-4
-0.001295928
-1.0703978E-4
3.4947562E-4
9.07688E-5
-5.955636E-4
-6.7848916E-4
-2.806926E-4
-0.0025840558
-0.0033854549
-0.0024039766
-0.0024839272
-7.3184754E-4
8.51999E-4
0.0015735454
0.0016816994
3.9139424E-5
1.6323313E-4
9.7039324E-4
9.0533093E-4
8.8613865E-4
6.606409E-4
0.0014200644
6.6747813E-4
-8.654499E-5
0.0016974944
7.9826306E-4
-9.243193E-4
-7.5825496E-4
-0.0024254809
-0.0038677056
-0.0026054184
-0.0012793846
-7.210211E-4
5.3704495E-4
0.0010756725
6.472422E-4
9.7572996E-4
-1.8928121E-4
-5.703742E-4
0.0012768351
3.7320107E-5
-0.0012791861
-5.517406E-4
-9.733574E-4
-2.9739505E-4
6.4250117E-4
6.91225E-4
0.0013146083
0.0011714804
0.0013001614
0.001882629
0.0012882128
6.266467E-4
5.1666473E-5
-5.6611426E-4
3.7971154E-4
0.0019260658
7.0042105E-4
-0.0012383576
-1.935864E-4
0.001247884
0.0012031182
2.408344E-5
-0.001147208
-8.097837E-4
-0.0014482762
-0.0011739571
0.0016191523
1.8292715E-4
-0.0032809381
-0.0025158117
-8.2095456E-4
-1.3115874E-5
4.4970747E-4
3.7264533E-4
1.21057674E-4
-9.608982E-4
-6.651817E-4
6.229794E-4
-5.1088005E-6
5.759549E-4
0.0018627156
0.0014087008
0.0017958144
0.0010137414
-0.0012535509
-5.0010317E-4
0.0014448749
0.0016022895
2.6596434E-4
-0.0019134405
-0.0021902728
5.6989107E-4
0.0011995708
-0.0017937534
-0.0014889104
5.580974E-4
-2.4426432E-4
8.483682E-4
0.0012101443
-0.0016077418
-0.0011612563
2.4054514E-4
-5.9577083E-4
-8.793824E-4
1.8150664E-4
8.298831E-4
-1.5730667E-4
0.0010117743
0.0023827932
9.222926E-4
0.0019079781
0.0012515797
-0.0023588436
-0.001081129
0.0010602074
7.679815E-5
-0.001254765
-0.0012136792
9.152663E-5
-1.5737019E-4
-8.6854515E-4
-0.0011616171
-0.001224617
5.6519406E-4
0.0011514401
0.0010504998
0.0014563634
1.7718343E-5
-5.1914837E-4
-0.0010188244
-0.0027192258
-0.0017913841
3.758524E-4
0.0014837123
0.0019004403
0.0019972078
0.0016872535
1.4717055E-4
-0.0013040892
-3.6559472E-4
0.002396814
0.00341408
0.0022387337
2.893559E-4
-0.0023742416
-0.002135948
-0.001335221
-0.0032600407
-0.0019023906
2.3817133E-4
2.2606764E-5
0.0014269755
0.0017809739
6.7919254E-4
-1.0510013E-4
-8.28673E-4
-6.4869545E-4
-0.0019049747
-0.00313588
-0.0015481935
5.441546E-4
0.0016060546
0.001604346
0.0015315826
7.341979E-4
4.993569E-4
0.0016226816
6.066459E-4
0.0010082214
0.0011750137
-0.0026145075
-0.0013022154
0.0018242318
3.379653E-5
-8.035842E-4
-7.18587E-4
-1.15746705E-4
7.150064E-4
-3.0195207E-4
-2.6377582E-4
-1.53647E-4
-6.0838E-4
-3.887182E-4
-4.186266E-4
1.0908058E-4
-8.171513E-5
-7.1116874E-4
-6.006974E-4
-8.997303E-4
-4.7141672E-4
4.559435E-4
0.0014168546
0.0016412819
0.0011575869
0.002267602
0.0011083124
-0.0019164417
-0.0013041071
-1.5514049E-4
-4.2122835E-4
-5.24165E-4
1.43230145E-5
9.736372E-4
5.2617514E-4
1.1755962E-4
3.8667605E-4
2.8090645E-4
6.120006E-4
-1.50009E-4
-0.0014904053
-0.0013440717
-8.4041816E-4
-2.984705E-4
6.32896E-4
0.001315916
0.0010872852
-4.863888E-6
-0.0019305048
-0.00201559
0.0010000591
9.106227E-4
-9.583844E-4
7.2033657E-4
0.0012595367
4.995641E-4
0.0012303835
0.0015402504
0.0012910052
1.4770056E-6
-0.0016017128
-0.0020525411
-0.0011061102
-1.6673376E-4
-0.0017078281
-0.002172145
-5.7737774E-4
-3.074846E-4
-5.0135166E-4
-9.621353E-4
7.276882E-5
0.0018045269
0.0013529925
0.0016365859
6.747384E-4
-0.001455395
-1.7115392E-4
8.8057603E-4
3.982193E-4
7.0966734E-4
0.0015601901
0.0014357973
-2.598263E-4
-2.9920484E-4
-6.6988356E-4
-0.002016437
5.144369E-4
0.003261577
0.003863249
0.0028658288
-1.8447464E-6
-3.890825E-4
-6.393519E-4
-0.0016671787
3.3125456E-4
4.965254E-4
-0.0015082619
-0.0021769144
-0.0024325731
-0.0015378888
-0.0015470933
-0.0026042338
-0.0012368684
-1.1689987E-4
-0.0011585176
-0.001206829
3.4222694E-4
6.910999E-4
2.7751265E-4
5.1332277E-4
-0.0013164225
-0.0025814336
2.1611169E-4
0.0013411333
4.7128342E-5
6.5151765E-4
0.0012425685
8.851015E-4
0.0021718557
0.003908657
0.0028709827
0.0017618763
0.0033935925
0.0028878916
-6.1482406E-4
-0.0015554111
-3.8767385E-4
-0.0015966663
-0.003269949
-9.0390834E-4
0.0013033067
-4.8891257E-4
-0.0014278268
-6.2569825E-4
-7.287379E-4
-8.873388E-4
-2.1432857E-4
8.641931E-4
4.250708E-4
-8.2038896E-4
-3.9760108E-4
9.9115496E-5
-8.143331E-4
-0.0019402432
-0.0018715241
-0.0012751204
-9.074557E-4
8.882218E-5
-9.47595E-6
-5.0984265E-4
0.0013125098
0.002559601
0.0019777815
0.0015734069
5.47472E-4
-0.0018454018
-0.0025820083
-9.819798E-4
-0.0017453934
-0.0026118853
-9.913974E-4
-9.155796E-4
8.756179E-4
0.0041189734
0.0045078597
0.004883037
0.003712707
0.0027838196
0.0045509385
0.0028610846
-9.870828E-4
-0.0033608468
-0.0038131622
-0.003194349
-0.0043252367
-0.0035652453
-0.0013238565
-7.537081E-4
0.0010579424
0.0024756463
0.002134941
6.435184E-4
-1.1348153E-4
0.0010858738
-3.807505E-4
-5.553437E-4
0.002338704
0.0023680243
0.0019378564
-6.3064694E-4
-0.004385019
-0.004370065
-0.0045874757
-0.00329256
-8.166094E-4
4.7132702E-4
0.0023763091
-3.2049144E-4
-0.002897574
-3.4617516E-4
9.7579026E-4
0.0020076784
0.0019617104
0.0013828857
0.0018093941
-4.2187114E-4
-0.0013308653
-0.002770159
-0.005188152
-0.0027469273
-0.001327748
6.8536447E-6
0.0032451162
0.0054628733
0.008148388
0.004559617
9.542048E-4
0.0062329858
0.007250086
0.0017910557
-0.0038776265
-0.0069023683
-0.0051594093
-0.006180476
-0.0076540755
-0.0016793574
0.0038178675
0.0020544003
-5.5412116E-4
2.1801749E-4
6.4255344E-4
0.0060918876
0.013848838
0.0077225654
-0.0022842293
-0.003724055
-0.004121104
-0.0047779107
-0.0045765
-0.0017603805
5.480409E-4
-0.002177135
-0.0027174298
-0.004962599
-0.0076729083
-2.7418885E-4
0.00312337
-0.0016227614
-0.0014087438
-5.1295734E-5
-0.0010128127
-0.0016929093
-0.0010382707
0.0013769151
0.0014341954
3.2726955E-5
-4.33224E-4
-0.0010034053
9.839907E-4
0.0032119704
0.0026070806
0.0031229989
0.0044552884
0.0047162157
0.0038330064
0.0014182742
0.0011044681
0.0019322559
1.3677E-4
-5.616049E-4
2.2217789E-4
-6.894837E-4
-0.0024112768
-0.0031378868
-0.0015926454
-4.445062E-4
-4.494563E-4
0.0016856713
0.0028397352
0.0025602235
0.0044458164
0.0034839972
-0.001864991
-0.003941346
-0.0014019975
8.182746E-4
6.1893096E-4
-0.0028348889
-0.0074581127
-0.007823314
-0.004264598
8.194917E-5
0.0018766928
-0.001972967
-0.0047105583
-0.0033327749
-0.0042791846
-0.0044046747
-0.0010355852
1.0759643E-4
-3.6799102E-4
0.0010663966
0.002581686
0.0020954395
0.0021020456
0.0039069233
0.004903606
0.0047878595
0.004929052
0.005265253
0.0035146717
-1.3223194E-4
-4.1111055E-4
0.002187574
0.0040769796
0.0057293526
0.00588682
0.004572296
0.003224666
0.0024419662
0.0020222182
-0.0035953387
-0.012842062
-0.014484728
-0.008916935
-0.0051361127
-0.004970405
-0.0046189264
-0.002103751
0.0010006784
0.0027513558
0.0018426088
-1.0863214E-4
0.001628924
0.005719444
0.0052786977
5.9563667E-4
-0.0029421377
-0.004074492
-0.003155695
-0.0021913673
-0.0032756208
-0.0034053384
-0.0025672857
-0.0027372364
-0.0010800179
0.0020482587
0.0035775662
0.0025449232
2.978699E-4
5.150947E-4
0.0034116418
0.0063670697
0.007302172
0.0071511604
0.0086566135
0.0077974997
0.0023298338
-0.0030319504
-0.006382453
-0.0067176213
-0.005087258
-0.0036243922
-0.001016487
0.0031085166
0.009608425
0.01676417
0.018308984
0.012544278
0.0054826355
0.0027039016
-6.286361E-4
-0.0071332417
-0.012636179
-0.019344367
-0.024498412
-0.023504484
-0.020272557
-0.015858429
-0.012181226
-0.008782766
-0.0018378971
0.0061687403
0.015248385
0.02079843
0.016130682
0.012597472
0.016227461
0.014441484
0.0057168095
-0.0015474166
-0.008577978
-0.013780188
-0.014433383
-0.018370215
-0.022536367
-0.018222809
-0.0071823667
0.010057917
0.024209907
0.025566017
0.02232262
0.019799747
0.016517734
0.00881191
-0.0048391074
-0.013301546
-0.011968601
-0.006880395
9.604289E-4
0.010102523
0.01489347
0.0110314
0.0037199436
7.2363624E-4
-8.8164135E-4
-0.0045085335
-0.008410464
-0.009660514
-0.00586659
-0.0016764174
-0.0066359676
-0.022385744
-0.035673384
-0.036609087
-0.029102737
-0.013541954
0.002798496
0.005172182
3.612745E-4
2.6915618E-4
0.004654658
0.013690298
0.023568934
0.030262703
0.03524852
0.033766724
0.024050301
0.018418323
0.023985038
0.032114856
0.03091297
0.011129242
-0.020527745
-0.038299527
-0.03778536
-0.036550805
-0.035513844
-0.031687144
-0.025888128
-0.014422385
-0.0056617516
-0.0071767545
-0.012739383
-0.016394695
-0.012422441
-0.0018977498
0.0067327362
0.0111528495
0.014118249
0.021119192
0.0293577
0.028422216
0.022414587
0.01657748
0.004669162
-0.010167634
-0.019353116
-0.018391896
-0.004369719
0.013751202
0.026846664
0.033777893
0.02885575
0.019405441
0.014350913
7.1718777E-4
-0.0164739
-0.013888296
4.1835458E-5
-4.3886944E-4
-0.00639734
0.0035837204
0.010619141
0.0032533796
0.0043429537
0.0064144186
-0.0111085465
-0.037520994
-0.059130676
-0.07111677
-0.06684931
-0.046807945
-0.02805485
-0.02354969
-0.023727415
-0.013765993
0.006000417
0.020632789
0.023686217
0.01844259
0.011303038
0.022527372
0.048356384
0.05543139
0.035691552
0.009625519
-6.539071E-4
0.0067238887
0.026495082
0.05423309
0.07711393
0.099177085
0.09406142
0.027217897
-0.03394811
-0.03535363
-0.02145646
-0.021967825
-0.02634848
-0.026104003
-0.03025883
-0.035399966
-0.02644271
-0.019978944
-0.020776173
-0.026301274
-0.038284376
-0.029989094
-0.013329481
-0.00913964
-0.0047968896
-0.015881281
-0.0354092
-0.038287006
-0.040793706
-0.053838413
-0.067145936
-0.07034038
-0.05980745
-0.02533293
0.016325692
0.021861842
0.023372108
0.055339687
0.092836715
0.13123086
0.1478599
0.13573322
0.1202276
0.08912524
0.06215692
0.05550956
0.032710887
-0.016433898
-0.07238311
-0.09474596
-0.07401672
-0.05304531
-0.04935804
-0.045571882
-0.027011015
-0.009707713
-6.3914515E-4
-0.004236235
-0.0339857
-0.034669198
-0.008825491
-0.019668343
-0.029200342
-0.020821998
-0.0060889786
0.01424672
0.0024951422
-0.015104305
-0.03186344
-0.067662954
-0.062144797
-0.016548578
0.036580093
0.10688099
0.16164716
0.15130982
0.04235449
-0.1221321
-0.22765988
-0.23063539
-0.16711685
-0.08223926
-0.0074218363
0.04727976
0.09748833
0.15161464
0.187976
0.21005215
0.21924695
0.20061702
0.15871058
0.051482562
-0.09067805
-0.13270804
-0.10750588
-0.095614895
-0.040859364
0.031015113
0.051941615
0.047401723
0.008863239
-0.0771215
-0.1601723
-0.19356835
-0.17191547
-0.13695732
-0.10877619
-0.07948843
-0.06165609
-0.042537354
-0.0046035917
0.049696296
0.098554105
0.12934418
0.19263187
0.24054547
0.1728411
0.06832343
-0.0067044245
-0.07059086
-0.08750523
-0.06550851
-0.03253623
0.017181143
0.05213563
0.064549685
0.08215029
0.083260104
0.027098631
-0.06449671
-0.12873708
-0.1367758
-0.10786154
-0.077912
-0.055405233
-0.025174476
0.010584665
0.030397015
0.030792605
0.041653216
0.05395386
0.042433597
0.034438387
0.022994665
0.0026182805
0.0018573803
-0.01250751
-0.034693524
-0.022346832
-0.010478018
-0.011142631
-0.0023924387
0.005955761
0.008425346
0.009255377
0.006762552
-0.004894985
-0.016281167
-0.013823464
-0.0016507562
0.01657974
0.030435843
0.03486672
0.03627888
0.03337618
0.029931238
0.01975544
0.0033379246
-0.0031112651
-0.011370641
-0.026587415
-0.03460268
-0.033798087
-0.02635968
-0.020321727
-0.015346428
-0.0077626114
-0.006078421
-0.006807084
-0.005753658
-0.0047927704
-0.0034829115
-0.003945015
-0.0039118063
-0.004909691
-0.0055288766
-0.0017980231
2.3465764E-4
0.003763432
0.00856717
0.0104750665
0.014815964
0.015461637
0.013282575
0.015658865
0.015049446
0.011611766
0.009353889
0.006633673
0.0036626856
0.0012641203
0.0011760333
2.1475511E-4
-0.0019947875
-0.0018587427
-0.0018369092
-0.0024660276
-0.0036770385
-0.005199156
-0.004499991
-0.003996019
-0.004501573
-0.002628342
-7.55635E-4
-0.004400069
-0.008822014
-0.008016132
-0.006099353
-0.003433259
-0.0026559702
-0.007006357
-0.0073548383
-0.0045331693
-0.00271216
0.0014806137
0.0034026743
0.0036230395
0.0039146086
0.0019758712
0.004199525
0.008923303
0.010293687
0.009024012
0.00450783
0.0020946483
0.0033702615
0.0026020743
0.0017475118
0.0021047997
0.0026647588
0.0041609076
0.004270048
0.002501061
-8.114663E-4
-0.007110377
-0.014073501
-0.016808255
-0.014433156
-0.010261099
-0.0051621716
-5.3220947E-4
1.0284786E-4
-4.9332E-4
9.828125E-4
0.002201892
5.9290975E-4
-0.0024805956
-0.0010568366
0.0035186855
0.0038520647
0.0031657806
0.004041351
0.0025751423
0.0023958336
0.004796504
0.0039283037
0.0013541518
0.0015582115
0.0031650334
0.0043606176
0.0049103093
0.004835529
0.0042706467
0.0023061458
-2.808869E-4
-0.001716929
-0.0023593346
-0.0019763282
-0.0017851322
-0.0029430382
-0.0019205253
-1.07741E-6
-0.0017575941
-0.0034085626
-0.0012540215
0.0011866065
0.0013213478
2.973154E-4
-0.0022262614
-0.0057906895
-0.005362515
-0.0022357388
-0.0029596312
-0.004145815
-0.0018816708
-1.2214771E-4
2.1358121E-4
-6.5993205E-5
-4.5604137E-4
0.0012474377
0.0020810773
2.1478474E-4
7.5861707E-4
0.0028398926
0.003056926
0.003096004
0.0014370852
-4.367753E-4
0.0018650601
0.0025146678
-7.898968E-5
0.001169315
0.00254055
-3.689013E-4
-0.0016224189
-0.0011098115
-0.0023573744
-0.0017903164
0.001236764
0.001787142
-6.706409E-4
-0.0014752793
2.9951084E-4
1.2397421E-4
-9.5064455E-4
-3.7269748E-4
-0.0015776757
-0.0017451762
0.0016241564
0.0024729231
0.0012794018
0.0013374239
0.0016596289
0.0012674065
-4.2606296E-4
-2.9056173E-4
3.8760118E-4
-0.0020954567
-0.0015633695
0.0018542844
5.496612E-4
-0.0020982227
-8.5525593E-4
5.308328E-4
-0.0011116278
-0.0016554652
-1.07411026E-4
3.7723285E-7
-2.0158973E-4
-0.0014163633
-0.0021796147
0.0013065499
0.0013110655
-0.0028405185
-0.0019812998
7.177621E-4
0.0012657677
0.0014187419
8.188784E-4
4.904801E-4
6.204674E-4
5.580998E-6
-9.474494E-4
-0.0018942122
-0.0013520076
0.0020999773
0.003554375
-7.2206825E-4
-0.0031289642
-0.0017630853
-0.0018477486
5.542499E-4
0.0024346276
-0.0012426133
-0.0024310374
-0.001162512
-0.0013026161
-8.864746E-4
-7.624925E-4
2.0118942E-4
7.1315997E-4
-5.3986406E-4
9.2733004E-5
0.001068063
7.1002345E-4
3.2700415E-4
9.98155E-4
0.0017431017
-3.077354E-4
-9.862694E-4
1.027303E-4
-0.001396461
-0.0011062563
-5.976553E-5
-0.0012695882
-2.786466E-4
0.0015109982
0.0011021397
-9.264298E-4
-0.0023948674
-5.7808205E-4
0.0012224123
6.587618E-4
3.7209896E-4
2.1396793E-4
-9.45077E-4
-0.0023922205
-0.0023380108
2.7384134E-5
0.0014958703
1.3623115E-4
-7.7881303E-4
-1.0840714E-4
6.97798E-4
0.0015788762
-1.8517421E-4
-0.0028936928
-1.4614251E-4
0.0028184974
7.4676034E-4
-7.4077933E-4
2.731477E-4
0.0018678682
0.0011958737
-0.0015353869
-1.3396772E-5
0.0027467508
0.001006544
-4.976077E-5
0.0011865651
0.0010215157
3.3545695E-4
4.3518568E-4
8.1171595E-5
-1.04559236E-4
6.59699E-4
-0.0010502893
-0.0038500272
-0.0029615075
-0.0018287261
-0.0015401625
4.0764946E-5
5.834298E-4
6.245635E-4
-6.750909E-4
-0.0027783127
-9.4264885E-4
0.0016568757
0.002492118
0.001597723
-0.0018040334
-0.0022521608
-2.0484993E-6
3.1533E-4
-3.0115596E-4
-6.446763E-4
1.8828467E-4
3.3075898E-4
-3.0997858E-4
-1.7051875E-4
-8.6028606E-4
8.53076E-4
0.0023861255
5.379502E-5
6.4022734E-4
0.001215068
-0.0017179496
-0.002442717
-4.3202197E-4
0.0019024198
0.0011456741
-4.735583E-4
7.248827E-4
0.0014742821
0.0023623593
0.0019559783
4.5010058E-4
0.0022012556
0.002308488
3.546623E-4
-7.023607E-4
-0.0011056875
4.0133853E-4
-0.0012889536
-0.0039290474
-0.0024249656
-0.0022594219
-0.0022708767
-0.0014271784
-8.9634646E-4
9.4416004E-4
4.7097894E-4
5.328079E-4
0.0017937034
-0.001689926
-0.0033908628
-5.172249E-5
9.3733595E-4
-7.258079E-4
-4.0764947E-4
9.396966E-4
4.947119E-4
8.92669E-4
0.001218108
-6.805193E-4
-2.2656143E-4
4.5647443E-4
-0.0013467609
-0.0011292625
9.247728E-5
7.02476E-4
0.0015807854
0.0015107275
0.001023733
8.06271E-5
-0.0013102327
-0.0014033702
-6.4531283E-4
1.203872E-4
5.3672836E-4
8.3176425E-4
0.0025068661
0.0038871192
0.0029361234
0.0014460736
3.0286164E-5
-1.0475041E-5
0.002501946
0.0023239015
-0.0014259727
-0.002599442
-0.0017661464
-0.002051677
-0.0016946343
-3.309276E-4
1.6047516E-5
-7.397726E-4
-0.0025038912
-0.005259958
-0.0054183705
-0.002482521
-2.4289543E-4
0.0017678136
0.0022597597
-4.9738836E-4
-0.0012490344
8.453538E-4
6.3145155E-4
-9.783887E-4
3.8805202E-4
0.002985361
0.0031558538
0.0018648142
3.3767294E-4
1.9949023E-4
0.0022967511
0.0032985194
0.002132985
2.3186099E-4
-6.041778E-4
4.0549724E-4
3.075264E-4
-7.016447E-4
-5.004812E-4
-9.4058417E-4
-0.0022649118
-0.0020953822
-6.315884E-4
1.04054874E-4
7.3292485E-4
0.0011904828
1.4100506E-4
-8.939512E-5
7.0164865E-4
4.6957817E-4
-7.8997994E-4
-0.0018937094
-4.49397E-4
7.572229E-4
-3.3301354E-4
-2.2721483E-4
2.4737595E-4
0.0012193625
0.0014680608
-0.0020075082
-0.0021538774
0.0011243845
8.485831E-4
4.6111242E-4
-4.958996E-4
-0.0036329352
-0.0027166184
1.2439677E-4
9.28282E-4
0.0016845432
5.399466E-4
-0.0016057352
-0.0014423629
-1.4452887E-4
0.0016166074
0.0014704498
-6.7218824E-4
1.11390706E-4
0.0026171221
0.002572445
-1.9140185E-4
-0.0014974751
0.0011018347
0.0024351706
8.34008E-4
-3.9035204E-4
3.895943E-4
0.002037646
-4.829807E-4
-0.0031857104
-0.0012143491
-0.0011381486
-0.0018621741
-8.6690945E-4
-5.4231094E-4
8.082237E-4
5.755045E-4
-4.347878E-4
2.63031E-4
-4.792704E-4
-3.875688E-5
4.0663968E-4
-9.374826E-4
-8.2188E-6
1.5379468E-4
-2.9814304E-4
4.8621872E-4
5.0643116E-4
0.002041797
0.0021868544
4.6505616E-4
0.0010688296
8.065206E-4
3.6183605E-4
1.0687296E-4
-0.0021479994
-0.00272081
-0.0016877154
-2.2823864E-4
4.0749076E-4
-7.385995E-4
-1.6525654E-4
-2.622437E-4
-5.0662906E-4
0.001250661
-4.034681E-4
-0.0017997086
-3.8071704E-4
1.8185236E-4
0.0016915039
0.0019498998
0.0011922526
0.0010912707
-4.169864E-4
-4.016724E-4
-0.0014123318
-0.00223206
0.0024707254
0.003110887
-3.185329E-4
4.053807E-4
2.3221846E-4
-5.5492535E-4
4.8009842E-4
-9.3286036E-4
-0.0022074087
-0.0011955452
-0.0010594487
-5.595573E-4
5.9184054E-4
-3.2544316E-4
-0.001567955
-0.0015297948
-5.299046E-4
0.0014479005
0.0020216554
0.001749839
0.0020247886
0.0011340644
5.1358587E-4
1.6151609E-5
-0.0014514707
-0.0011119554
7.4975344E-4
0.001729805
7.8654406E-4
-8.2444615E-4
-7.86648E-4
-2.3794468E-4
-5.7549385E-4
-0.0014102376
-8.7469275E-4
0.0014385644
0.0013275251
-0.0010960652
-0.001841273
-8.5175096E-4
2.4450023E-4
-5.9754495E-4
-0.0024772177
-0.0013456232
0.0018224838
0.0024658921
8.800409E-4
8.1664306E-4
0.0014439828
1.06502535E-4
-0.0011184188
-1.5442082E-4
3.9676816E-4
-9.733351E-4
-4.4465423E-4
0.0023644045
0.0023239413
-7.2368486E-5
-1.1285032E-4
0.0017247462
6.5072824E-4
-0.0026476283
-0.0029967562
-0.002173096
-0.001714923
8.9335366E-4
0.0020614143
7.861597E-6
-3.258908E-4
0.0021708538
0.0029596696
0.001075979
5.966621E-4
-4.1482775E-4
-0.003493988
-0.003135386
-8.9389615E-4
-1.364659E-4
7.592767E-4
4.6027786E-4
3.0847666E-5
0.001191884
0.0014487782
4.9292675E-4
-0.0010638896
-0.0011959755
5.272609E-4
-2.4855379E-5
-5.586035E-4
5.18996E-4
1.2104923E-4
0.0012706211
0.001258721
-0.0015258278
2.859907E-5
0.0011175427
-1.6078408E-4
7.8741036E-4
-3.0202128E-4
-6.1735464E-4
8.342488E-4
8.202522E-4
0.0019524255
-1.6889935E-4
-0.002318182
-2.303422E-4
-0.001710448
-0.0024243088
2.3088475E-4
0.0010478839
0.0012697354
-7.193985E-4
-0.0027285167
-0.0013205147
3.7904043E-4
6.986094E-4
1.5215139E-4
0.0014510287
0.0017722117
-0.0010090459
-0.0011426726
2.5583198E-4
0.0011108896
0.0013979196
-4.0999288E-4
-0.0010287414
1.6007965E-4
0.0015227748
0.0016874197
4.3834804E-4
0.0020239293
0.0038202214
0.0010839454
-0.0023050366
-0.0026103316
-0.0012395489
-6.5712107E-4
-0.00108808
-0.0021868728
-0.0012708686
7.1488257E-4
-0.0012940633
-0.0012844288
0.001653377
6.7847397E-4
7.4515195E-4
0.001049296
-8.277288E-4
-1.3116044E-4
-3.5162026E-4
-9.5648377E-4
-2.571206E-4
-0.0013262603
6.4344895E-5
0.0019932897
-1.0080481E-4
-0.0011767946
-6.491083E-5
6.560588E-4
0.0010757055
9.511547E-4
7.7978213E-4
0.0014584246
6.0156704E-4
-0.0020411192
-0.001297735
0.0013443962
8.518267E-4
-2.2127826E-4
-3.1726403E-4
-7.596476E-4
-0.0011888307
-0.0018315158
-0.001181982
0.001296383
0.0022703758
0.0017297263
0.0016270798
4.5119363E-4
-6.9173006E-4
3.8015214E-4
5.137582E-4
-5.9165776E-4
-7.1632507E-4
-7.6524087E-4
1.438206E-5
9.286583E-5
-0.0012484809
-3.9892667E-4
-6.122692E-5
-7.909459E-4
8.89268E-4
0.001602615
9.134021E-4
0.0010214997
5.504812E-4
-3.4935376E-5
-2.3871692E-4
-6.597431E-4
-0.0017407956
-0.0021870919
-8.9518516E-4
2.9020043E-6
9.6121983E-4
0.0011443512
-8.157109E-4
-8.250212E-4
-6.7377975E-4
-0.0019845583
-8.513769E-4
-5.1762076E-4
-0.0013945944
7.275262E-5
-2.3286917E-5
-0.00153524
5.1126565E-4
0.002732606
5.487792E-4
-0.0013614714
-4.774367E-4
3.1246163E-4
0.002117424
0.0027345582
0.0014428181
0.0022281727
0.0011167343
9.5240655E-5
0.0028238331
0.0022283765
0.0013319185
0.0023761187
3.964917E-5
-0.001020698
-4.898458E-4
-9.525459E-4
-1.754343E-5
-8.8767195E-4
-0.0029582658
-0.0026848952
-0.0013459491
8.1961225E-5
1.3990625E-4
-1.2901686E-4
-5.1213877E-4
-0.0020608108
-0.0013852564
-2.7161711E-4
-8.5104886E-4
-1.9823607E-4
1.05357634E-4
-9.933311E-4
-0.0017305679
-4.986952E-4
0.0019578114
0.0017185096
7.615933E-4
7.59176E-4
-3.0144394E-4
-5.2586023E-5
2.545884E-4
-5.969162E-4
4.0289023E-4
0.0013305108
0.0012781771
0.0011956121
-5.2253796E-5
-0.0015209038
-0.0016429666
-7.0232496E-4
-7.2374824E-4
-0.0014755287
-0.001005205
3.2544308E-4
0.0020338865
0.0020199989
2.172695E-4
-2.3789564E-5
1.17038675E-4
-4.425111E-4
-5.1415095E-4
-4.890459E-4
-1.8489712E-4
3.904779E-4
6.61603E-4
2.4095389E-5
-6.080891E-4
-1.6598933E-4
7.388077E-4
0.0027108826
0.0035177483
0.0019862242
0.0021884216
0.0034407277
0.0037698136
0.003179035
0.0011014122
-0.0020683934
-0.006459325
-0.00650066
-0.001426808
-2.9450562E-4
-9.2352857E-4
-7.336842E-4
-0.0027898343
-0.0030488023
-0.0017171793
-0.001375778
-9.178087E-4
-8.4894546E-4
-0.0011580893
-0.0017450599
-0.0016389367
-0.0020898622
-0.0033322177
-0.0018835807
-0.0012500111
-2.1560196E-4
0.004667589
0.005535942
0.0039195097
0.0046217632
0.0032349818
0.0015842057
0.0013177269
7.930542E-4
0.0012452806
0.002087997
0.0023523998
0.0010525602
-5.7304825E-4
9.202254E-5
6.376099E-4
-6.9334614E-4
-0.002048414
-0.0015151318
-1.7057256E-4
-0.0011460403
-0.0020697312
-4.3337425E-4
0.0013724277
0.0018062743
-3.0488503E-4
-0.0012907431
0.0011825052
-3.4258523E-4
-0.0034665577
-0.001575499
-4.987053E-4
1.03646325E-5
0.0017154276
-5.724815E-4
-0.002338488
-8.1355835E-4
-3.1995695E-4
5.044075E-4
2.1703042E-4
-0.0016778478
-0.001388781
-0.0014307693
-0.0014908707
6.99135E-4
0.001681253
0.0016097685
0.0011783727
-9.7153825E-4
-0.0017124264
3.3396969E-4
0.001764779
7.478124E-4
-6.577447E-4
8.932569E-5
0.0010438125
6.1828777E-4
6.779924E-4
1.3285039E-4
-7.8798376E-4
8.6415885E-4
0.00237105
0.0015164748
4.9373455E-4
-3.0521752E-4
-7.0669485E-4
-7.9931854E-4
-6.568393E-4
3.829371E-5
-3.9064125E-4
-7.4646616E-4
6.63315E-4
0.002158277
0.0026154383
0.0012401835
5.3490105E-4
0.001999205
0.0017779735
7.1662216E-4
-2.2764067E-4
-0.0026927013
-0.0037349015
-0.0038425156
-0.0032047408
7.0887525E-4
9.505316E-4
-0.0011125252
0.002613149
0.0021441826
-0.0020544839
-3.9044907E-4
-0.0034741561
-0.0072006416
-0.0010991544
0.0015258467
2.985145E-4
0.0025958284
0.0021163668
-0.0011883656
-0.0018458542
0.0013659169
0.0029494022
0.0013560642
0.0016817272
0.0010860584
-4.3129003E-6
8.4903487E-4
-6.65706E-4
-0.002365113
-3.65705E-4
0.0020924485
-3.6188605E-4
-0.0020552934
0.0012918861
-2.0131753E-4
-5.4729916E-4
0.0034842684
0.0013406898
0.0014716608
0.0020504238
-0.0022535678
-5.532249E-4
0.0014781235
4.160722E-5
-0.0016178399
-0.003428991
1.6076384E-4
0.0021339809
-1.3575536E-4
0.0010151663
0.00261499
0.0023254955
-0.0012484598
-0.0032184585
7.38803E-5
-8.7444636E-4
-0.00392142
-0.0033657744