6.1080937E-4
2.2093642E-4
1.5031174E-4
-9.023326E-4
5.187256E-4
0.0014683979
5.0490146E-4
7.827442E-4
0.001743224
0.002490123
0.0024759814
0.0016236462
0.0012525466
6.058204E-4
-0.0014978178
-0.0025635513
-3.644497E-4
0.0011205944
-4.1378525E-4
-0.0019071194
-0.003173205
-0.0032122524
-6.66744E-4
2.0460966E-4
-0.0013148464
-4.2044415E-4
0.0023308431
8.685656E-4
-0.0033586987
-0.0027101978
3.701679E-4
1.7518843E-4
-6.00432E-4
3.4817602E-4
0.0011679735
7.339851E-4
7.75036E-4
0.0015408834
0.001573949
0.0021310842
0.001800699
-3.1331324E-4
-2.5056404E-4
8.941157E-4
7.6574803E-4
0.0013995181
0.0017642649
-1.1111213E-4
-0.0015168857
-0.001012567
-0.0010403981
-0.0011511456
-7.9243863E-4
-0.0015558652
-0.0022819166
-0.0026517822
-0.0016369655
0.0013881399
0.001913817
-1.2899569E-4
-9.0246904E-4
7.366746E-4
0.0024708807
0.0011264335
6.889087E-4
0.0013636078
-0.0012502546
-0.0022429693
-6.6419673E-4
4.3932674E-4
0.0019462872
0.0020741408
0.0020391333
0.0013227551
-0.0013733666
-0.0016240532
-0.0018030088
-0.0018408019
7.384282E-4
5.382902E-4
3.2454822E-4
9.491393E-4
-0.0017361691
-0.0017611097
-5.8382045E-4
-0.0013120861
5.191967E-4
5.8128376E-4
-0.0014751373
1.2075234E-4
0.002153279
0.0015592076
1.5030967E-4
-2.3009846E-4
2.5830523E-4
3.8522652E-5
-8.294822E-4
-0.0013031804
-6.2893715E-4
2.4693226E-4
4.5245403E-4
-6.712797E-7
-0.0010535228
-1.0706819E-4
0.001558636
5.2786386E-4
9.558732E-5
0.0011574107
5.7298277E-4
-4.9009867E-4
-1.863484E-4
6.203475E-4
9.804555E-4
5.765078E-4
-4.588898E-4
-4.450224E-4
3.2583365E-4
9.803843E-5
4.952514E-4
8.331624E-4
1.6326254E-5
5.973967E-4
0.0011392661
-1.2955109E-4
-0.0014190994
-0.0017018706
-0.0011267284
-8.2671415E-4
-0.0014487883
-0.0028651434
-0.0027266268
6.934076E-4
0.002597145
3.2141322E-4
-0.0019097377
-0.001266716
4.131636E-4
0.0012185684
0.0016289977
0.0011524085
7.1429205E-4
4.6016672E-4
-0.0013327341
-9.4555685E-4
0.0014113559
0.0014104584
4.2147932E-4
-7.691113E-4
-3.4882926E-4
0.0022210896
0.0024319962
0.0010201987
7.5109565E-4
-3.294168E-5
-0.001303553
-4.309347E-5
0.0010598439
-0.0016259024
-0.0032422058
-0.0021869175
-4.5704003E-4
9.6187927E-4
3.9539856E-4
0.0012710952
0.0020244764
9.563104E-4
0.0014102154
-8.514097E-4
-0.0017826826
9.301146E-4
-0.0020790822
-0.0044117803
-0.0011448303
6.957208E-4
3.9928625E-4
-0.00128897
-0.0014793188
0.0010137581
0.0024032374
0.0018137603
-9.630663E-5
-5.683061E-4
3.3468226E-4
-6.566691E-4
-0.0017708113
-6.9469766E-4
0.0015119697
0.0014628924
-3.536717E-4
4.0908752E-4
0.0011947749
1.0580787E-4
9.168908E-4
0.0014884844
-4.6437193E-4
-5.793308E-4
3.6365062E-4
-0.0010580707
-0.0012175213
7.964849E-5
-6.1753107E-4
-0.001220253
-8.323997E-4
5.66427E-4
0.0030729545
0.0023960639
-7.6832896E-4
-0.0012700069
-6.172558E-4
-0.0010132839
-6.1596965E-4
7.20313E-4
0.002224235
0.0016603955
-8.244865E-4
2.7686247E-4
0.0011780635
-0.0015414889
-8.247816E-4
-6.25718E-5
-0.0014680771
3.2416725E-4
5.01552E-4
-6.7047775E-4
-1.7120884E-4
-0.0026472704
-0.0034893174
7.9919817E-4
0.0016326349
-0.0020005193
-0.0018000568
0.0014641178
0.0018142458
4.4792113E-4
-0.0010865252
-0.0018275209
-9.597398E-4
-6.10623E-4
9.701458E-4
0.002828398
0.0020872976
0.0018889018
0.0015639613
3.842473E-4
6.9921796E-4
7.4439344E-4
-5.2666105E-4
-0.0015263313
-3.550481E-4
0.00180743
0.0014419006
-3.8997596E-4
-7.435988E-4
8.197578E-5
2.4602681E-5
-4.013792E-4
-4.970872E-4
-9.97148E-4
-3.1966326E-4
-4.257421E-4
-0.0018101867
-7.00544E-4
-3.7054042E-4
-0.0010929033
3.0868113E-4
0.0011086584
0.0011983631
6.248782E-4
-1.419795E-4
0.001002501
0.0012432046
2.3980686E-4
-3.6097196E-4
-3.553132E-4
8.2978106E-5
-0.0011618849
-8.574078E-4
0.0014643891
8.024605E-4
8.758163E-4
0.0011913124
-0.0013512635
-6.341712E-4
-1.8417084E-5
-0.0028159649
-0.0021749148
-0.0010376959
-0.0014911569
2.4402894E-4
0.0014122161
0.0012846746
2.8774727E-4
-7.056382E-4
6.233634E-4
7.410238E-4
-2.858063E-6
-2.9566914E-5
-0.0017285396
-0.0016116762
1.183906E-4
0.0010029986
0.0027188119
0.0015187353
-8.320193E-4
5.770754E-4
6.596418E-4
-2.9600837E-4
6.039492E-4
2.3492132E-4
5.2134116E-4
0.0013091232
-1.6701722E-4
2.5403214E-4
0.0012898406
-0.0010235566
-0.0017913387
5.48455E-4
0.0011988919
-6.525493E-5
-9.230869E-5
2.8430559E-5
-0.0013468724
-0.001518673
-4.2984085E-4
6.38617E-5
1.5408307E-4
-4.252775E-5
3.414362E-4
-1.2660761E-4
-7.6609163E-4
5.827482E-4
-6.7437394E-4
-0.0026266426
-0.0011612683
-9.935196E-4
-0.0014817507
-0.001198138
-9.1934804E-4
7.322267E-4
0.0013462675
0.002323676
0.0037156558
0.0016019648
-2.1191195E-4
-7.2528335E-4
-0.0016288497
-8.2276354E-4
2.2726982E-4
1.4214808E-4
7.7718176E-4
0.0026407102
0.0015310987
-0.0016457159
4.913498E-4
0.0031010879
0.001008139
-6.8582105E-4
-0.0016833436
-0.001900563
-7.371502E-4
4.1057014E-5
2.4997783E-4
-8.1207085E-4
-5.7464367E-4
3.877341E-4
-1.3522565E-4
9.7570615E-4
0.0011473624
-4.5950175E-4
-0.0012951201
-0.0021971574
-5.504104E-4
0.0012848566
5.354165E-4
-1.0087883E-5
-6.829843E-4
5.034418E-4
0.0022051083
0.0013790793
6.158551E-4
-8.7321573E-4
-0.001392307
-5.611773E-4
-0.0014397065
-0.001165325
-0.0015042063
-0.0018346694
8.847518E-4
-4.660457E-5
-0.0019971936
5.7772687E-4
0.0018162945
0.0015809726
0.002629462
0.0019069638
-9.410089E-4
-0.0017397348
-3.757535E-4
-6.627461E-4
-1.9809221E-4
0.0012544385
-4.996001E-4
-6.428829E-5
0.0030896529
0.0013909913
-6.929539E-4
9.1950956E-4
7.668876E-4
-9.0642023E-4
-4.812746E-4
6.455355E-4
1.3299633E-4
-9.053399E-4
-0.0012856015
-0.001491507
-1.997537E-4
0.0011067584
5.8972416E-4
3.589348E-4
-0.0012931051
-0.002533975
4.777948E-7
9.6665E-4
0.001015665
0.0019287731
-4.018494E-4
-0.0019701077
1.3312661E-4
0.002316787
0.0022937064
-6.104545E-4
-0.0023937952
-3.3605157E-4
0.0015434939
-8.054864E-4
-0.004218633
-0.0019782588
0.0021023813
0.0014474826
-2.164225E-4
1.19655786E-4
5.3790805E-4
8.027927E-4
0.0014741091
5.0333474E-4
-0.0015964212
-8.12732E-4
6.374638E-4
2.102248E-4
1.4376959E-4
1.4251567E-4
-1.05621286E-4
1.09417815E-4
8.3706115E-4
8.3887944E-4
-0.0011982518
-0.0022676138
-0.0019617283
-0.0018907902
1.3464162E-4
0.0021564616
0.0017834224
0.0013227717
0.0011062601
7.571608E-4
2.586086E-4
-7.1803003E-4
-2.4441682E-4
6.343354E-4
-7.370253E-4
-9.1734435E-4
1.3348766E-4
-6.3195603E-4
1.9046039E-4
0.0011671948
1.296578E-4
7.323844E-4
3.4880897E-4
-9.419325E-5
0.002806658
0.0026249955
-0.0010341555
-0.0029176243
-0.003398517
-0.0022321446
-8.410345E-4
-0.0022373963
-0.0022802718
2.8909196E-4
-5.75413E-4
-0.0014859268
0.0014002748
0.002356216
0.002299888
0.002340916
7.3040836E-4
7.2308764E-4
6.8960484E-4
1.5678827E-4
5.189282E-4
-3.8216382E-4
3.3713732E-4
0.00223659
0.0019191059
0.0010119933
0.0011311835
0.002221317
0.0010436043
-0.0013200295
-0.0012811822
-0.0013559484
-0.002037558
-0.002833575
-0.0027806556
-0.0017838341
-0.0026955202
-0.0029892453
-0.0029413044
-0.0028676381
2.975571E-4
0.0017080738
1.0602453E-4
-0.0015004404
-0.0018015304
1.8692011E-4
7.654355E-4
0.0018441988
0.0037804754
0.00260696
0.00481122
0.009375184
0.00878499
0.0051743723
-8.423146E-4
-0.007822183
-0.009971779
-0.006070561
5.8298778E-5
0.0027236342
4.434515E-4
-3.2845367E-4
0.0038255663
0.006004254
0.004067527
6.4892607E-4
-0.0054102666
-0.007567713
-0.0038883856
-0.0027021093
-0.0022924042
-5.758471E-4
6.506858E-4
0.0028503574
0.0033949737
0.0014713041
7.878268E-4
0.0014505355
6.3681667E-4
-0.0011435921
-8.634986E-4
-1.384542E-4
-8.2140404E-4
-0.0026889446
-0.004442128
-0.0024629165
-1.6137003E-4
-0.0016045152
-0.0023208652
-0.0013035949
-0.0012714199
-7.387231E-4
0.002438464
0.0058339164
0.0064154924
0.0049874913
0.0033356687
0.0024256464
0.0018123728
0.004083304
0.0062625515
-5.2585365E-4
-0.005670549
-0.0029296526
-0.0030498633
-0.0013943735
0.002290285
0.0022849648
0.002457248
-0.0013420541
-0.005109546
-0.0033278402
-0.0036333215
-0.0043444596
-0.0036591645
-0.002619844
-9.1404753E-4
-0.0021929517
-0.0022621923
-8.4823853E-4
-0.0017988472
-2.0461359E-4
0.0018589015
9.935688E-4
8.57927E-4
0.0022531555
0.003919702
0.002437875
-0.0012019881
6.4453564E-4
0.0048289625
0.004287118
0.004559512
0.004833071
-5.5514247E-4
-0.003638609
-0.0051291967
-0.008189769
-0.0025603694
0.004233839
0.0028161113
0.0050934274
0.009606643
0.0062831086
0.0021348489
0.0019084616
2.7087863E-4
-0.0017709266
-0.002766036
-0.0051982217
-0.0061918283
-0.005245082
-0.004171121
-0.0027837
-0.0023195304
-2.7373378E-4
-1.8042793E-4
-0.003546182
-4.5826746E-4
0.0014853015
-0.005192841
-0.007157701
-0.0019257434
0.0019659705
0.0015207771
-6.185121E-4
-9.253477E-4
9.790852E-4
0.0037791557
0.002879277
0.001661624
0.0050956295
0.0064078406
0.0076933755
0.009069602
0.0025624486
-0.0035321089
-0.0032834224
-8.3931984E-4
0.0015610539
9.4791054E-4
2.6569565E-4
5.404254E-5
-0.0014663866
6.657309E-5
7.425069E-4
-0.001911582
-0.0027171548
-0.004019979
-0.0047878814
-0.0015928918
-3.0229028E-4
-0.0018083473
-0.0023353032
-0.003144451
-0.0040661637
-0.004245275
-0.0035530934
-8.565902E-4
0.0021168273
0.0044929716
0.007439729
0.00979262
0.009221541
0.0050325072
3.1020326E-4
-0.004276518
-0.008132332
-0.005450058
-9.6097006E-4
-2.0189819E-4
0.0034621307
0.005250065
4.2729845E-4
7.677149E-5
0.003928521
0.005679327
0.0065548844
0.00142779
-0.007944424
-0.010473129
-0.007472047
-0.003079274
-4.025167E-4
-0.0031092602
-0.0042897556
-0.0026872663
-0.0018761337
0.002547506
0.0044726427
-8.748261E-4
-0.004603738
-0.0042476915
-8.3738315E-4
0.0032420685
0.0033677425
0.0014865131
1.0070334E-4
2.9777747E-4
0.0011158274
0.0010909998
0.0031742642
0.004610397
0.0026295607
4.7179795E-4
-0.0027738346
-0.0038732644
-2.0039563E-4
3.8839632E-4
-3.2500518E-4
0.004965208
0.010466887
0.011403108
0.010755965
0.0093623875
0.007478759
0.004929122
-8.3838025E-4
-0.0071629435
-0.007670583
-0.0055479207
-0.006591756
-0.006523781
-0.0043421327
-0.005443928
-0.0089999875
-0.011123792
-0.009259816
-0.005764089
-0.005346748
-0.0050063566
-0.0026391929
-8.9682953E-4
7.3048424E-5
2.7549703E-4
6.89278E-5
-8.5643004E-4
-0.0019210959
-0.0010065461
-0.0010563515
-0.0012885804
0.0027440733
0.0077594495
0.011069058
0.013410649
0.014249691
0.016257226
0.020006055
0.01762323
0.00827236
0.0025826884
0.0017368553
-0.0011924903
-0.0076868557
-0.014322883
-0.014894961
-0.010211478
-0.0058892756
-0.0038124556
-0.0053802333
-0.006267626
-0.0052751442
-0.0067670047
-0.005131096
9.043429E-4
0.004740109
0.0032099537
-0.0054747867
-0.01496091
-0.01881955
-0.01731954
-0.010861554
-0.004594975
-2.0960844E-4
0.004851404
0.0083828205
0.011237612
0.014666831
0.01730192
0.018943865
0.017384438
0.012611761
0.0071455995
0.003484805
0.005631967
0.010355244
0.010220067
0.0072034276
0.0047734426
0.0026777247
0.0028264374
0.0018523966
-0.0067255907
-0.019801892
-0.027898215
-0.026263628
-0.021637114
-0.019061642
-0.013495523
-0.006122737
5.0648453E-4
0.007092097
0.008006786
0.005313203
0.0037730914
-6.742242E-4
-0.002678804
0.0014816171
0.0015906107
-0.0013071347
7.655434E-4
0.0041189925
0.0067456127
0.011532077
0.015028771
0.01417214
0.011984702
0.008261911
2.966084E-4
-0.0069205556
-0.009470876
-0.012014724
-0.013611965
-0.010372525
-0.0041026347
0.0049584988
0.011630829
0.009876128
0.0054643797
0.0029847985
0.0016396891
-0.0028593591
-0.013715865
-0.017925555
-0.00566344
0.011124781
0.020158892
0.022719495
0.02494576
0.023996614
0.012126911
-0.007994446
-0.025695125
-0.0314501
-0.02461098
-0.017568357
-0.022275716
-0.028141197
-0.020162415
-0.010503486
-0.0047858316
0.005052061
0.009514993
0.0105220955
0.014591794
0.013799038
0.012862417
0.012426582
0.008960132
0.0051973374
-5.4049917E-4
-0.0040311427
-0.01338931
-0.027727691
-0.018725865
0.008025481
0.031136988
0.04734335
0.050505474
0.045090172
0.03260826
0.0069330647
-0.020446427
-0.043010034
-0.059671696
-0.059288155
-0.043594692
-0.023287676
0.0012290592
0.021740327
0.02598912
0.02697109
0.034892507
0.0344969
0.019575968
-7.8707637E-4
-0.0194275
-0.03259671
-0.034263123
-0.020550998
-0.0051316773
-0.0013667007
-0.005788247
-0.006954529
0.004149891
0.010693517
0.0042309444
0.010448331
0.020250527
0.012893375
0.009344096
0.008774938
-0.004561842
-0.011596888
-0.004612546
-0.0020704593
-0.0050506634
-0.0022769975
5.4628635E-4
2.6977653E-4
0.0038583614
-0.0035871016
-0.023863116
-0.03302581
-0.036752302
-0.035761133
-0.022118652
-0.016152076
-0.004321732
0.030918147
0.06485739
0.08997129
0.09510609
0.069686525
0.042258184
0.028773375
0.017791132
-4.053495E-4
-0.014526047
-0.019497413
-0.029943286
-0.037033986
-0.047094475
-0.064868055
-0.06352916
-0.062131733
-0.05954792
-0.04005248
-0.043450654
-0.047592543
-0.024692873
-0.0019496107
0.02370427
0.02640986
-0.005147907
-0.021792796
-0.0115473755
0.018825391
0.053648572
0.08321851
0.1388589
0.21682239
0.27600628
0.28956476
0.24855393
0.16030781
0.030562652
-0.11905579
-0.25076035
-0.34294835
-0.38224876
-0.36549428
-0.29963076
-0.20785098
-0.15278149
-0.1509952
-0.12052508
-0.03844013
0.033004582
0.09056259
0.1357316
0.13589549
0.11492958
0.12414555
0.17662092
0.2176204
0.20439643
0.19118875
0.21066284
0.2573328
0.31327146
0.29520229
0.22191359
0.16462761
0.031477947
-0.1761032
-0.28439242
-0.26064613
-0.21148166
-0.23889846
-0.33002326
-0.35063073
-0.3029
-0.27709442
-0.2471771
-0.19507086
-0.12346014
-0.049828682
-0.012420518
0.056240764
0.16234308
0.225547
0.2697381
0.2816251
0.22213064
0.16314107
0.16429959
0.18781818
0.15409127
0.056049198
-0.04777338
-0.092208214
-0.038179778
0.0076136547
-0.04662776
-0.09749694
-0.07107986
-0.01972914
0.0062756445
0.013692772
-0.024483565
-0.16337413
-0.27466327
-0.21996863
-0.078138985
0.07638075
0.19617623
0.23595932
0.26593742
0.2855617
0.19505277
0.01833683
-0.1426554
-0.22221273
-0.1911202
-0.096635796
-0.025838057
0.0050985436
-0.0063207285
-0.06927813
-0.10922286
-0.09045205
-0.06216752
-0.0442224
-0.05966149
-0.09149293
-0.081996605
-0.042893235
0.0075547304
0.05133917
0.06664023
0.08264462
0.10915229
0.13328475
0.14251958
0.13194375
0.1208166
0.09392749
0.060817998
0.062415157
0.08019537
0.07706611
0.012824687
-0.070022956
-0.07889619
-0.07692912
-0.12136656
-0.14994277
-0.14206615
-0.1080594
-0.06997825
-0.04726375
-0.025683796
-0.011415877
-0.005091289
0.0059866193
0.016396778
0.022274354
0.022671929
0.023397202
0.020418033
0.00938162
0.011010082
0.026648996
0.038248762
0.041840944
0.043725036
0.048480388
0.048149887
0.036925457
0.021961823
0.011013286
4.0594695E-4
-0.015166416
-0.027521301
-0.032318987
-0.032496728
-0.0287133
-0.023450233
-0.017694792
-0.013440773
-0.009480024
-0.0023229602
0.0031969994
0.0045589306
0.0047511593
0.0064212545
0.0083926665
0.008664213
0.009462038
0.007638649
0.0036652016
0.002387753
6.5518497E-4
-0.0013315117
-0.002577495
-0.0039673047
-0.0056910333
-0.00856028
-0.008075451
-0.00490995
-0.0035644106
-0.0041819788
-0.0048809564
-0.0015208346
0.0010201379
1.5172992E-4
0.0012912042
0.0015330167
0.0022799172
0.0047232546
0.0040645152
0.004692934
0.0076287696
0.0071184104
0.0023105645
-0.0019281876
-0.0029922128
-0.0042826645
-0.0027511648
9.3766535E-4
4.4284604E-4
0.001139191
0.0034901525
0.0020454787
-0.0017827486
-0.006189794
-0.006407022
-0.0011645324
0.0038426793
0.006606485
0.0066297865
0.004548466
0.003023119
0.0010032412
-0.0021341436
-0.003105162
-0.002524711
-9.908658E-4
0.001843559
1.1464239E-4
-0.0018720038
0.0024596981
0.004557513
0.0028476191
-3.1864143E-4
-0.005307013
-0.00723729
-0.006719946
-0.0045449696
-0.0031819744
-0.0042830626
-0.0017694072
-8.986536E-4
-0.002699122
-2.5446253E-4
0.0015445343
0.00213086
0.0017769763
2.4734475E-4
0.0022509173
0.0029654396
0.0013171522
0.0018806816
0.0024672719
0.002138377
0.0020141231
0.002351397
0.0012753143
-8.485513E-4
-0.0015070576
-0.001252275
7.322665E-4
0.0018645527
0.0011480161
0.0021797426
0.0013315455
-9.603242E-4
-8.288801E-4
-2.1495852E-4
2.7578857E-5
-7.0838345E-4
-3.301431E-4
2.5459303E-4
-0.002618518
-0.0037117582
-0.0016227092
-3.305095E-4
1.5361236E-4
8.0928527E-4
0.0018696762
0.0018352631
0.0019406325
0.0012494742
-6.937308E-4
0.0013573106
0.0025369641
1.1457116E-5
-8.611526E-4
-0.0019557767
-0.0024042784
-0.0019815865
-0.00268388
-0.0022285127
-0.002419844
-0.0022023062
-0.0011247909
-0.0017684639
-7.822946E-4
7.03484E-4
0.0014018173
0.0023136938
-2.580255E-4
-0.0034536773
-0.0015359
0.001907927
2.926369E-4
-0.0032502138
-0.0026484341
-7.287606E-4
0.0014122297
0.0032999231
0.0028801283
0.0027246133
0.0010404505
-0.0011030192
5.664054E-4
0.0015955899
5.2342704E-4
1.3666964E-4
0.0010755318
0.0019101272
6.0248836E-5
-0.0017306812
-5.1907817E-4
0.0017084144
8.611669E-4
-0.002540718
-0.002214111
-7.730069E-4
-0.0017692784
-5.601923E-4
9.167559E-4
-2.5369882E-4
-0.0012221776
-0.0010629991
-6.358887E-4
-7.024183E-4
-0.0010104892
-8.3248323E-4
-1.4947251E-4
1.4516311E-4
5.4653327E-4
0.0015996324
0.0012826201
0.001013932
0.001072703
1.852463E-4
0.0010214282
0.0010150109
3.4206969E-6
0.0011561146
6.7012006E-4
2.1936104E-4
0.0016589303
0.0015610477
0.0015849227
7.848454E-4
-0.0019414139
-0.0020215006
-1.9155187E-4
-2.8364183E-4
-0.0016372256
-0.0033247555
-0.0042289887
-0.001963094
0.0011431426
0.0021503612
0.0011118943
-0.0012363625
-0.001248936
-7.0075813E-4
-0.0019855022
-0.0010511909
-0.0012534751
-0.002644236
3.5990143E-4
0.0026448753
0.0018509583
9.786837E-4
1.5323212E-4
1.8709451E-4
1.6508697E-4
4.891837E-5
2.7183336E-4
-7.7003887E-4
-0.0014059125
4.7168345E-4
0.0019264048
7.034867E-4
3.9190176E-4
4.80025E-4
-0.0011132421
-2.6583506E-4
3.3252168E-4
-0.0010021897
7.883393E-4
0.0016883803
-6.978047E-6
-4.6601475E-5
-2.0243636E-4
-0.0010068585
-5.915884E-4
-1.5423378E-4
-0.0012769732
-0.0021108992
-8.92774E-4
2.1801486E-4
9.184532E-5
-0.0010956732
-0.0013453215
2.1079983E-4
1.3050751E-4
8.7198033E-4
0.0029251634
0.0018739259
9.4464235E-4
-2.3879124E-4
-0.0024505
-0.0012028514
2.0412292E-4
9.470683E-5
2.9941316E-4
3.5935928E-4
8.620301E-4
-4.9508887E-4
-0.0011192816
8.424595E-4
2.0543182E-4
6.224595E-4
0.0014959128
-0.002147495
-0.0025693018
-1.9637226E-4
-0.0018240564
-0.0026318186
-3.2812596E-4
6.506349E-4
1.0583143E-4
3.5462622E-4
1.9024123E-4
5.497381E-4
0.0029338228
0.0023200226
-1.9742078E-4
-3.659746E-4
-9.828375E-4
-9.4819453E-4
-6.699112E-5
5.9709568E-5
0.0024576925
0.0033287683
8.925125E-4
8.4148644E-4
4.6336342E-4
-0.0025019185
-0.0034795422
-0.0020058565
9.31095E-5
8.7321043E-4
1.2871891E-4
0.0011830535
0.0020853041
1.2563047E-4
-3.5558204E-4
0.0015008489
0.0019667097
2.9999432E-5
-0.0015902051
-2.2722805E-4
6.5202196E-4
-8.839502E-5
-2.5750566E-4
-0.001278264
-5.677278E-4
0.0012032519
4.3946912E-4
-8.701517E-5
-0.0011813466
-0.0014507113
-8.707381E-4
-0.003337643
-0.0019122938
0.0013812095
4.4530354E-4
0.0012824342
5.313013E-4
-0.0021820324
-0.0013584938
-0.0013346126
6.141404E-6
0.002799305
0.0014742371
8.710788E-4
0.0018911425
5.1926007E-4
-2.688876E-4
3.745732E-4
2.2656325E-4
7.2382914E-4
0.001767364
7.7212916E-4
-7.882716E-4
-8.3991245E-4
-5.802408E-4
-5.936662E-4
7.145258E-4
0.0021476536
-4.2962702E-4
-0.0016972871
0.0021774233
7.002568E-4
-0.003918664
-0.0017498654
7.213023E-4
5.6862313E-4
0.0016265956
0.0019065344
0.001343511
0.0010598028
-7.794077E-5
-0.0018229155
-0.001291917
0.0010000737
2.8752568E-4
-6.0138246E-4
0.0010694494
-3.0181592E-4
-0.002730476
-0.0010738967
7.551688E-6
-0.0013626947
-0.0017298058
-0.002557493
-0.0028609403
8.603546E-5
6.8784E-4
-0.0021564744
-0.0026151012
-7.613238E-4
0.001525569
0.0022256707
0.0012415599
0.0016707199
0.0024831058
0.0038778016
0.0046006874
0.001252074
-0.0011090018
-5.368288E-4
3.3592814E-4
0.0018506787
0.0021238755
0.0017762086
0.0013544302
2.599346E-4
0.0017887598
0.0031318462
1.4843504E-4
-0.003095215
-0.003035999
-0.0020163434
-0.0024094402
-0.0023664695
-0.0023327393
-0.0032445209
-0.0033317858
-0.003170223
-0.0019212973
-8.629023E-4
-0.0012233492
5.115788E-4
0.0018622526
0.0018854939
0.0018402843
-3.9670464E-5
-9.268325E-6
6.9424714E-4
2.551857E-4
0.0014415858
4.1841526E-4
4.3713907E-4
0.0032315056
0.001900819
6.8008073E-4
6.6959433E-4
-8.111028E-4
7.623804E-4
0.002298394
0.0012224691
2.9642828E-4
-8.796307E-4
-3.569924E-4
4.5426862E-4
-0.00120163
-0.0013352648
-2.0478237E-5
1.9048915E-4
-9.285781E-5
-0.0014406678
-0.001977335
-0.0010318491
-0.0010850803
-7.0998096E-4
5.055116E-5
-2.6563398E-4
-8.372824E-4
-7.7038485E-4
0.001041471
9.756227E-4
-0.0010533192
-5.460952E-4
-8.713835E-4
-4.656504E-4
0.001431933
-6.992731E-4
-9.0190244E-4
0.0013455258
0.0018116746
0.003266628
0.0017973819
4.201416E-4
0.00277624
0.0016372588
-5.2799925E-4
-0.0014505781
-0.0023806235
-0.0012088433
-8.957021E-4
-8.58216E-4
-4.422178E-4
-0.0011955663
-3.565342E-4
2.0418533E-4
2.9152335E-4
0.0012591772
3.9360762E-4
-3.1573934E-4
-7.6172536E-4
-0.0017172508
-8.149478E-4
-0.0011017345
-0.0017612961
9.146119E-4
0.0019007527
3.4988436E-4
0.0013014271
0.0017617419
-2.8599196E-4
1.9639924E-6
0.0014188258
0.0013453856
0.0015259061
7.381292E-5
-0.0022706673
-0.0018499382
-6.778906E-4
2.7675371E-6
5.146186E-4
6.7757827E-4
0.0014444025
0.0011705627
2.1025946E-4
9.090891E-4
9.91809E-4
-2.6536192E-4
-6.7466E-4
-3.894043E-4
-8.649459E-4
-0.0022874654
-0.00312431
-0.0026991074
-8.166817E-4
0.0010496766
6.003303E-4
0.0012347486
0.0035306134
0.0023273195
9.555664E-5
5.6404475E-4
-1.6037573E-4
-0.0025731134
-0.0017949304
6.349043E-4
-6.0563816E-5
-0.0012491615
-2.65795E-4
4.3215242E-4
4.5208295E-4
0.0012037685
0.0021557342
0.0012853404
-3.3352367E-4
-1.6373176E-4
2.2866286E-4
-2.3688613E-4
-0.0018276892
-0.003030268
-6.544643E-4
0.0011250207
-1.652588E-5
-0.0013074304
-0.0023001945
-4.8340237E-4
0.0013098372
5.5425527E-4
0.0018369479
0.001837494
4.8338727E-5
0.0012694447
0.0022903236
0.0017557048
4.5092663E-4
-0.0012535144
-0.0018113953
-0.0012233892
8.6130627E-4
3.3732408E-4
-0.001996817
3.579194E-5
5.321458E-4
-6.6679716E-4
0.0018540925
8.76842E-4
-0.0015909014
8.58996E-4
0.001187751
-0.0010623429
-0.0011190114
-0.0013168434
-0.0018944478
-0.001642748
-2.6587318E-4
0.0019004245
1.3593657E-4
-0.0028908395
8.898616E-5
0.0027818547
8.0188166E-4
8.828631E-4
0.0029932542
0.0026607893
1.666796E-4
-0.0014328492
-0.0013231954
-0.0016374213
-4.476642E-4
0.0015465437
1.2072393E-4
-7.0533174E-4
9.55925E-4
8.4964396E-4
-4.90671E-4
-8.0673024E-4
-5.793928E-4
-5.769147E-4
5.160379E-4
8.478547E-4
-0.0018503454
-0.0020261835
2.472388E-4
-7.002653E-5
-4.3802205E-4
-6.3464406E-4
-2.5770653E-4
0.0027295076
0.0027730938
-2.2545453E-5
-3.9628462E-4
-5.1817315E-4
-0.001178277
-7.998878E-4
-8.776561E-5
9.7571156E-4
9.926297E-4
-4.5341311E-4
-0.0013654892
-0.0017624658
-5.8240106E-4
0.002122605
0.0025244406
0.0018605819
0.0016762109
-8.791752E-4
-0.0028400277
-0.002047903
-0.0014638206
-7.382336E-4
-0.0012348065
-0.0027690313
-0.0011350539
0.0015799146
0.0022427014
9.606402E-4
2.4133135E-4
0.0025803503
0.002859771
-1.6827497E-4
-0.0014276225
-0.0015613053
-0.0014221728
-7.021303E-4
4.3411012E-4
0.0013076109
9.5627486E-4
0.002815766
0.005068638
0.0036791724
0.002149443
-1.13892325E-4
-0.003952386
-0.004990041
-0.002488184
4.3380976E-4
6.457595E-4
2.6665354E-4
8.754692E-4
-9.014562E-5
-0.0012585517
-0.0018531376
-0.0015045698
2.2331331E-4
3.3450362E-4
-3.6600808E-4
-0.0010893886
-0.002081447
-0.0011744504
-3.730621E-4
-8.696085E-4
-5.405567E-4
-2.8459392E-5
-9.5395144E-4
-9.1686385E-4
0.0019509929
0.001948185
4.0739633E-5
0.001245126
4.8861594E-4
-4.677766E-4
6.3357974E-4
-0.0010579923
-5.2583596E-4
0.002078797
0.0010729327
7.7367306E-4
0.0017204706
9.7247004E-4
-1.1623093E-4
-1.1046418E-4
9.912676E-4
0.002123724
0.0027748467
0.0018076178
8.541397E-4
0.002026739
0.0017579799
-3.8087586E-4
-0.0021897715
-0.0028249207
-0.0010953213
-2.9335532E-4
-0.0016628562
-0.0017138957
-7.73307E-4
-0.0014656993
-0.002994999
-0.0020272352
-0.0014141916
-0.0030614003
-0.0020150377
-4.972306E-4
4.408856E-5
0.0014071797
-1.7641012E-4
-0.0010757664
6.251978E-4
1.4344083E-4
5.287007E-4
0.0012039169
8.8888664E-5
7.1208493E-4
8.3288E-4
2.8499687E-4
0.0017236945
0.0028677864
0.003509486
0.0034436616
0.0018127107
1.8611992E-5
-0.0016547783
-0.0013597497
4.1472644E-4
-7.613465E-4
-0.0022565392
-1.3738303E-4
0.0013901597
1.6417853E-4
-5.3275266E-4
-1.6190395E-4
5.4284907E-4
0.0012452833
7.4939494E-4
1.272661E-4
-1.9436711E-4
-0.0011599103
-9.904784E-4
-2.2656532E-4
-0.0012486221
-0.0017428345
-5.473387E-4
-2.060834E-4
-3.740521E-4
-6.9582753E-4
-0.0013907535
-3.4348055E-4
5.418773E-4
-2.1791799E-4
3.601759E-4
7.612124E-4
-6.313241E-5
8.428384E-4
0.0020304655
-5.9975043E-4
-0.0041691107
-0.001724512
0.001728265
0.0010079471
0.001767923
0.0013570323
-3.7288896E-4
0.0010854895
3.7432922E-4
4.2616436E-4
0.002165886
-6.3881004E-4
-0.0018875343
-4.0685383E-4
6.544019E-4
0.00170104
-1.7691567E-5
-2.427977E-4
0.0015816143
3.1214632E-4
-0.0013547555
-0.002063371
-0.0012436265
8.7621575E-4
0.0014021782
0.001118213
1.3427172E-4
-3.7590088E-4
4.0155347E-4
-2.7309563E-5
-3.52597E-4
-7.824623E-4
-0.002361491
-0.0016445423
-3.3713928E-5
-9.096134E-4
-5.2905024E-4
0.0015248242
2.572795E-4
-0.0012583989
-4.3914188E-4
-1.9635551E-4
0.0010027278
0.0013917538
1.9978809E-4
7.326014E-4
-1.4156415E-4
-8.631761E-4
6.8331644E-4
4.4472306E-4
3.7322438E-4
0.0011199458
0.0016140493
0.0027097503
0.0019565981
6.5954775E-4
3.9362776E-4
-5.409372E-4
-0.0013522895
-0.0022225312
-0.0023544847
1.2475917E-5
0.0012484114
-2.2460328E-4
-2.5582954E-4
4.1279083E-4
-5.620479E-4
-5.217444E-4
-4.732389E-4
-8.7241E-4
1.2918316E-4
-0.0010757215
-0.002794152
-0.0016597986
-0.0013988217
-0.0019147994
-0.0015570049
2.7268426E-4
0.0030188898
0.003256471
0.0029625397
0.0031468612
0.0017673565
0.0011909475
6.618239E-4
-0.0011550398
-0.0020428747
-0.0012282493
9.6272136E-4
0.0011671251
-7.088528E-4
8.971328E-6
0.0011943218
7.8032736E-4
9.556681E-4
2.8830004E-4
-7.366872E-4
-5.978094E-4
-9.4255153E-4
-0.0015964439
-0.0023606753
-0.0019217907
1.743476E-4
-2.23063E-4
-0.0012829711
-3.6593105E-4
-5.02519E-4
-2.3127702E-4
3.178459E-4
-3.0094435E-4
3.6107312E-4
-3.3316494E-4
-0.0013925987
0.0013588584
0.0032387162
0.0030342692
0.0023742036
1.334332E-4
5.075928E-5
9.319028E-4
-5.87462E-4
-2.4616E-4
3.5980594E-4
-0.0013295908
-0.0019348557
-0.0020870664
-0.0010203103
9.1807684E-4