0.0010980575
2.7543156E-5
4.6919278E-4
-3.6848456E-4
2.903339E-4
0.002522025
0.0013249652
7.5493444E-4
8.5489586E-4
1.0372254E-4
5.0802226E-4
1.21739846E-4
-2.8809378E-4
-0.0016713109
-0.002523357
0.0013172877
0.0028322889
-5.8839978E-5
-0.0021229312
-0.0023862848
9.165256E-5
6.885936E-4
-0.0016848985
-4.425465E-5
0.0020722456
7.716468E-4
7.382516E-4
3.3798965E-4
-0.0013393941
-9.254465E-4
-0.0012728804
-9.6181413E-4
0.0016072389
7.169616E-4
1.1560099E-4
6.137172E-4
-0.0034015067
-0.0046225754
-0.0015374316
-6.375879E-5
7.284032E-4
-2.98639E-4
-8.7750325E-4
2.473073E-4
-7.078472E-4
-2.0427004E-5
0.0022522397
0.001661537
8.804302E-4
0.0012460707
0.0013184947
0.0017442775
0.0028771437
0.0034485594
0.0029209326
0.0016768646
-7.1175094E-4
-0.0023851346
-0.00126338
3.054507E-4
8.785077E-4
0.0012954707
-3.11159E-4
-0.003009244
-0.0016144901
2.0344039E-4
-0.0029722184
-0.0064505534
-0.006430921
-0.0025598537
0.0010152697
7.3464937E-4
0.003143505
0.0045882524
-8.786706E-4
-0.0022647497
0.0018068781
0.0037404532
0.0026154744
-9.5809565E-4
-0.0018218055
-1.1005098E-4
3.426572E-4
0.0016967484
0.0014903805
7.1194884E-4
0.002199607
0.0011457716
-2.5596935E-4
-1.9527075E-4
-0.0020601528
-0.002492501
-0.0012970084
-0.0015415383
-0.001585897
-0.0014357539
-0.0012628682
-2.0905492E-4
-3.4635008E-4
-8.7072246E-4
3.980737E-4
3.577713E-4
4.1494818E-4
0.0030731503
0.0020843884
-0.0011009589
-0.0010876178
-0.0010826923
1.09097746E-4
0.002689051
0.0026008931
0.0012783302
1.5433345E-5
8.60635E-4
0.0022877494
5.9687643E-4
1.9892753E-4
3.0571825E-4
-4.377767E-4
7.1303116E-4
-0.001000926
-0.002218113
3.5763762E-4
-7.163831E-4
-0.0016765264
4.0317245E-4
3.4467975E-4
1.1851597E-5
-2.017887E-5
-0.0017101686
-0.0037557534
-0.0033999898
-8.2901854E-4
-4.228696E-4
-7.33883E-4
8.125724E-5
3.1085736E-5
0.0016006839
0.0026001725
5.8801932E-5
-0.0012575891
-8.656539E-4
-4.873394E-4
4.4888872E-4
9.151163E-4
8.195873E-4
5.030151E-4
6.891392E-4
0.0018718527
0.0022408203
0.0019296855
0.0016491571
-9.6811156E-5
-0.0013593877
1.5710613E-4
0.0011194183
-3.1935985E-4
-0.0021236024
-0.00255608
-5.984704E-4
0.0013744169
0.0011112202
3.481681E-4
-2.5711858E-4
-2.6333497E-5
0.0012618132
0.001000262
-4.4237528E-4
-3.0749038E-4
8.097379E-4
3.3105418E-4
-0.0012243093
-0.001630021
-0.0011290199
-2.1385502E-4
6.8383326E-4
4.0786888E-4
-6.84217E-5
9.0716576E-4
0.0015178487
-3.4243346E-4
-0.0011128044
8.872E-5
-0.0018005723
-0.004120962
-0.0018308186
0.0015439177
0.0016899824
-8.319526E-4
-0.002091661
-8.9498004E-4
6.617401E-4
0.0022684725
0.0031898639
0.0029250379
0.0021262998
0.0011304409
-3.6579743E-4
-0.0022990154
-0.0013563021
6.0334924E-4
-0.0010075656
-0.0016981352
9.60618E-5
7.8482076E-4
5.5948884E-4
1.9080479E-5
8.1488595E-4
0.0014763987
-6.7225436E-4
-0.0017505628
-0.0016181921
-0.0029144518
-0.002737326
-6.0015765E-4
9.2709303E-4
0.0017944035
0.0011244734
-0.0014214988
-0.0017558893
7.5804675E-4
0.0025405125
0.0033567199
0.002478377
2.7922748E-4
2.2695708E-4
0.0011163742
5.7096215E-4
-2.7390406E-4
-2.5589357E-4
-1.9516476E-4
-8.088255E-4
-7.9504494E-4
-0.0012087658
-0.0014289516
0.0017679186
0.0026984264
-5.554854E-4
-3.2982585E-4
2.4873927E-6
-0.0030568077
-0.0027168163
-0.0011221541
-0.002207775
-0.0014816126
3.0959904E-4
6.0991093E-4
0.0017521359
0.0030414618
0.001946726
4.736483E-4
8.228104E-4
1.271892E-4
-0.0011992451
3.6837172E-4
9.439353E-4
-5.921542E-4
4.3566764E-4
0.0015307806
2.9780957E-4
1.4013625E-4
9.372119E-4
7.42515E-4
4.927678E-4
-8.88881E-4
-0.0033183633
-0.0023675726
-7.520667E-4
-0.0027035263
-0.0033503722
-4.5844322E-4
0.0021367895
0.0013714854
-1.9785522E-4
-1.7514105E-5
-0.0017126453
-0.0020942301
5.089801E-4
4.893432E-4
0.0013886301
0.0018162895
-8.385047E-4
7.537635E-4
0.0027344655
0.001211126
9.611561E-4
0.0014351213
0.0016622148
0.0011637772
2.5827019E-4
5.9745407E-6
-1.6215756E-4
4.996393E-4
1.6869124E-4
-0.0016531099
-0.0023710818
-0.0010345177
0.001838251
0.0015445884
-0.0011620526
-0.0012100716
-0.001255349
-9.39834E-4
7.6965435E-4
4.2904445E-5
-9.446435E-4
-3.813151E-5
4.8159773E-4
3.4907207E-4
3.0461026E-4
4.4916605E-4
1.6009732E-4
-8.1445393E-4
-0.0012945798
-5.754191E-4
-1.0303806E-4
-5.4186385E-4
1.0006508E-4
0.0012576571
0.001242122
7.3924445E-4
-6.739394E-4
-0.0019800484
-0.0031810307
-0.006238662
-0.0045191674
0.0028346581
0.0041709817
0.0021285706
0.0037176448
0.0030393794
5.974354E-4
4.6459565E-4
9.236672E-4
9.11018E-4
-5.9881486E-4
-4.3781553E-4
0.002374171
0.0035117737
0.003002036
3.265037E-4
-0.0016141982
4.8777536E-5
2.2748241E-4
-5.967696E-4
-0.0018337633
-0.0035977347
-0.0021113062
-9.927243E-4
-0.0010628115
-7.0828106E-4
-8.899071E-4
6.44109E-4
-4.144021E-4
-0.0025327294
6.576906E-4
0.0015976568
-2.0228662E-4
8.689344E-4
0.001192922
0.0011772441
0.0031880464
0.0043924917
0.0017643239
-0.0019045006
-0.0013516904
-1.8450245E-6
-0.0010746295
-6.0511666E-4
3.9485318E-4
-0.001324682
-0.0027920606
-0.0023539157
-0.0017672552
-3.4763722E-4
-7.3128824E-5
-0.0025421807
-0.002308645
1.1878483E-4
1.4561387E-4
-7.717426E-5
4.3446154E-4
2.6317604E-4
-1.3520486E-4
9.432274E-4
0.0028477076
0.0022246875
0.0014007044
0.0018496391
4.6809405E-4
5.325708E-4
0.0026400308
0.002264183
0.0018372238
0.0026868384
0.0012738013
-4.1947322E-4
-3.463321E-4
-0.0027486063
-0.0051299045
-0.0022395544
-1.2041718E-4
-0.0015568387
-0.0023709459
-0.0020059065
-4.3866117E-4
5.063294E-4
9.786794E-4
0.0027236445
0.0023971582
0.0010655868
1.2319029E-4
-0.0023596226
-0.0024684584
-2.3429279E-4
-5.825605E-4
-0.0025309667
-0.0026909197
-5.5832596E-4
0.0015330346
0.001958627
8.600051E-4
-5.9455083E-6
7.360644E-4
1.2480932E-4
-0.0021917473
-0.002830398
-0.0015315424
0.0011750286
0.0032164222
0.0014164431
-0.0016572757
-8.980938E-4
0.0021773514
0.0027643638
0.0019725137
0.0012287017
-1.4450023E-4
0.0010658541
0.0030626236
0.00193571
0.002251249
0.003651216
0.0020563374
4.680764E-4
-6.869802E-4
-0.0014018156
-9.7329303E-4
-0.0034765662
-0.0059686517
-0.0047156066
-0.0031976842
-0.001192813
1.5113181E-4
1.3921964E-4
0.0010214754
-2.717507E-4
-0.0020769539
-0.002064984
-0.0036457188
-0.003465693
-0.0014733745
-0.0031232187
-0.0042974534
-0.0010471658
0.0030052993
0.004968727
0.004660647
0.0035957582
0.0026976175
0.0019454134
0.003533639
0.0057719573
0.0038013582
0.0012780474
0.0019628215
0.002894194
0.002758699
6.5919047E-4
-0.0018879367
-0.0026115475
-0.0027136612
-0.0012905537
-7.0614193E-4
-0.0014062622
3.488857E-4
-7.411221E-4
-0.0032397492
-5.581978E-4
7.0252817E-4
-0.0015314646
-0.0030445915
-0.004279112
-0.0039434363
-0.0017714355
-7.421297E-4
-0.0014588193
-0.0012540498
-0.0010267284
-0.0027062483
-0.002014128
-3.292243E-4
-6.591639E-4
0.0014407109
0.0033406615
0.0018666938
9.476803E-4
0.002055695
0.0048021963
0.0056845844
0.0032735034
9.6413627E-4
-0.0013300853
-0.003158226
-0.0029436878
-0.0015942501
-0.0017326508
-0.0020196491
0.0038623565
0.008730769
0.0038656108
-6.790006E-4
4.7125682E-4
0.0036901468
0.0053183627
8.990502E-4
-0.0027628897
-9.865866E-4
-0.0027176093
-0.009032889
-0.009128704
4.612524E-4
0.0067934217
0.004461652
0.0040218914
0.0032920674
-0.0028367604
-0.0053308406
-0.002114094
7.835978E-4
0.0019676671
0.001501613
-0.0024357794
-0.007439802
-0.007742861
-0.005870672
-0.004616381
-0.0018473627
-9.7559084E-4
-0.0029964326
-0.0038693766
-9.264715E-4
0.003949276
0.0036142347
0.0023631547
0.0058542425
0.0054317247
0.00333184
0.005314779
0.004781822
0.0035935536
0.0038349954
0.0015965335
0.0012858084
0.0020986507
-6.4053957E-4
-0.0020120197
-0.0013391414
-0.0015442392
4.908768E-4
0.0023977207
-7.9601086E-5
-0.0017512102
-9.030072E-4
-0.0012991911
-0.002357308
-0.0040361797
-0.0052072713
-0.004435972
-0.0041681407
-0.0030539306
-0.0018324855
-0.0017431062
0.001768686
0.0037806034
0.0013268031
0.0024039436
0.0050435057
0.0049867826
0.0032569638
-9.566557E-4
-0.004339485
-0.0040764036
-0.0024966535
-0.0018332857
-0.0020142943
-0.0015424603
-0.0017692831
-0.0020204892
5.8705336E-4
0.0032550266
0.0039822096
0.0041189212
0.0048414655
0.00590094
0.0023836088
-0.0037935115
-0.00211887
0.0038998132
0.0030807117
-9.573446E-4
-0.0026159838
-0.003507744
-0.0020398833
2.9355413E-4
-4.1088654E-4
-0.0021071367
-0.0038876422
-0.0042829257
-0.0019399589
-0.001096336
-0.0012174613
4.628734E-5
-2.5962183E-4
-9.793991E-4
3.6996847E-4
0.0017011329
0.0018910755
0.0019456372
0.0027132228
0.0034853776
0.0039695576
0.005308243
0.0049852924
0.0015523584
3.1710745E-4
0.0014700542
1.2281042E-4
-8.357984E-4
1.7572081E-4
-0.0025311715
-0.006751902
-0.0063787024
-0.0049445163
-0.0046956064
-0.0029885028
-0.0017794223
-0.0019031068
-0.002596144
-0.0030057607
-4.5265717E-4
4.0888152E-4
-0.0018318787
-7.603843E-5
0.003151849
0.005315594
0.0073653352
0.004211753
1.8288978E-4
0.0028469726
0.0076174373
0.008510697
0.003000435
-0.0054760673
-0.008223239
-0.004627722
-0.0018141994
-5.967185E-4
0.0015355892
6.84596E-4
-7.9832994E-4
0.0016975919
9.434818E-4
-0.0014172734
1.621171E-4
-0.001553766
-0.003547508
0.0011622476
0.0028059862
-0.003312972
-0.004729072
0.0015485369
0.002245651
-0.0018027178
-5.1027443E-4
0.001629385
6.102879E-4
-5.014594E-4
-3.3607244E-5
0.0017077336
6.3783495E-4
-0.003207732
-0.0042835865
-0.00184918
-5.769471E-4
-0.0020891079
-0.0024512976
-6.8982603E-4
0.0012047365
0.0028805542
0.005188739
0.006400805
0.0022927327
-0.001448985
-9.682278E-4
-0.001889939
-0.0015643137
9.734223E-5
0.0015497407
0.004118527
0.0017848525
-3.4817192E-4
0.0016095721
-2.2975617E-4
-0.0025463025
-0.0033356438
-0.00378645
-0.0022036347
-4.570748E-4
0.0022621204
0.0022444497
-5.9227133E-4
5.3408934E-4
0.002076572
0.0015839618
-2.5320315E-4
-0.0022783973
-3.3718534E-4
0.0031211239
0.005829173
0.0057974076
0.0019330299
3.8964525E-4
2.32303E-4
-0.0019218519
-0.0034815785
-0.0041658995
-0.004032274
-0.0033899469
-0.003064188
-0.0033248928
-0.0045825536
-0.0042743883
-0.0012377697
5.499974E-4
-0.0012755344
-0.003045725
-0.0028510508
-0.002496984
-6.741534E-4
0.0012023237
0.001170288
0.0016030413
0.001409175
8.8718557E-4
0.0021831393
0.004206784
0.005447766
0.0042969915
0.004167179
0.006617713
0.007449516
0.006054623
7.512284E-4
-0.0037538218
-0.001455949
-0.0016840948
-0.0048173447
-0.0037993393
-0.0033835461
-0.002516193
7.140312E-4
7.645829E-4
-5.26953E-4
-4.779484E-4
-3.001724E-4
0.0016272394
0.0043379315
0.0052738353
0.0044771377
0.0017145708
-5.3976144E-4
-0.0012706125
-0.004092095
-0.0072881426
-0.008523913
-0.008803048
-0.007246538
-0.005243479
-0.0033215405
-0.0018395463
-0.0014301192
0.0012955563
0.0031360462
0.002790994
0.0050142366
0.00605744
0.004192185
0.001196765
-7.374805E-4
0.0011009737
1.8962553E-4
-0.0029968447
-0.002381632
-5.451123E-4
0.002987344
0.006514317
0.0081864195
0.010649785
0.010070825
0.0051145405
-4.031182E-4
-0.0021510103
-2.6101628E-4
-9.110685E-4
-0.0018338072
-0.0022421475
-0.006521487
-0.0099613005
-0.009361453
-0.005576342
-0.0012890339
-5.0368917E-4
-0.0012546808
-0.0020941512
-0.0021443919
-4.409272E-4
0.0014810766
0.005762975
0.011280324
0.011174952
0.005224546
-0.001401611
-0.010833276
-0.022570178
-0.023409009
-0.013970292
-0.005553363
0.0028203265
0.009306977
0.010399789
0.009711179
0.009439588
0.009630278
0.009441493
0.011561496
0.013945062
0.010682672
0.0074524167
0.005225792
-3.8981144E-4
-0.0064686416
-0.0122008715
-0.013823967
-0.009225022
-0.006530004
-0.008663156
-0.009871523
-0.0056176158
-5.971675E-4
-0.0017008829
-0.0041545406
-0.0017876943
5.0249154E-4
-0.002495354
-0.005075025
-0.0028337063
-0.0014471313
-0.0012510334
0.0029893355
0.0066545964
0.003962624
0.0036247568
0.011867957
0.017589267
0.017984578
0.02014191
0.017499547
0.0066159363
-0.0020247656
-0.0052795415
-0.011022414
-0.019964546
-0.02329771
-0.02268172
-0.022340024
-0.015734343
-0.0061009973
-6.356253E-4
0.00551761
0.0127200335
0.015667519
0.015038561
0.012528521
0.007446161
6.490746E-5
-0.007914882
-0.010594609
-0.0032918262
0.0046293465
0.0067477664
0.010695897
0.013350658
0.009529536
0.0056771464
-0.0021101744
-0.015211814
-0.022469722
-0.026847718
-0.030480105
-0.022418084
-0.0071715596
0.006323471
0.021254448
0.028125636
0.01681635
0.004073377
0.0032197686
0.010192425
0.021773633
0.027751163
0.021452129
0.007858931
-0.008542348
-0.016583394
-0.019035548
-0.025365379
-0.023358928
-0.013645263
-0.0012753239
0.014075581
0.022228489
0.03187151
0.040515605
0.03395928
0.020605354
-0.0071945856
-0.040701296
-0.053079516
-0.055019986
-0.05772581
-0.06786768
-0.08256895
-0.07960912
-0.06202302
-0.03066641
0.019937368
0.067828834
0.098145865
0.10819429
0.10198388
0.09453407
0.08351273
0.056001484
0.013542282
-0.028316922
-0.051579926
-0.05439786
-0.041839045
-0.0040349495
0.04473517
0.06374827
0.06285023
0.0616279
0.044997025
0.022763139
-2.9437002E-4
-0.02955653
-0.05786176
-0.09342592
-0.110304594
-0.092494
-0.07964236
-0.07138565
-0.054552104
-0.036356933
-0.0154849095
-0.015848486
-0.04620617
-0.05848944
-0.025393264
0.027840232
0.08172711
0.10872381
0.087545596
0.061137173
0.031647358
-0.0063744523
0.0018092295
0.0061342334
-0.037140813
-0.052065242
-0.017779203
0.03418216
0.05186227
0.032233357
0.05696664
0.10917052
0.14948
0.18601966
0.16340147
0.07480574
-0.020637605
-0.06769951
-0.06336652
-0.11770998
-0.21114402
-0.1984875
-0.13469246
-0.102868244
-0.05343563
-0.0024711317
0.01970575
0.048146613
0.06999012
0.045420405
-0.02572043
-0.10301443
-0.113970384
-0.052429155
-0.0010812436
0.010742089
0.012579682
0.028484289
0.08573231
0.13840894
0.1256968
0.09785546
0.074626446
0.04197001
0.043118298
0.039262835
-0.03330686
-0.13430889
-0.1820945
-0.11261624
-0.008284969
0.0010904204
-0.03698517
-0.06215924
-0.067817405
-0.02826384
0.02032689
0.06632331
0.124209024
0.1484757
0.14028817
0.11286498
0.056542065
0.0055950936
-0.0124331545
0.012282053
0.0435999
0.026730688
-0.00890291
-0.048278145
-0.09285269
-0.09323604
-0.056252867
-0.009788089
0.016890867
-0.033934705
-0.10736156
-0.123984866
-0.123225346
-0.12764917
-0.110929325
-0.064140886
0.003109442
0.055758476
0.076806016
0.07125788
0.04787697
0.05014127
0.08298179
0.09579385
0.08986865
0.09134033
0.096950136
0.08814185
0.048071463
0.020162633
0.036293533
0.02313162
-0.04855044
-0.11494228
-0.13526551
-0.09923091
-0.0432895
-0.01872248
-0.009973198
0.001454496
0.0066750622
0.0079095755
0.0054063336
5.4200384E-4
-0.004599244
-0.008093768
-0.0060280263
-0.0034570203
-9.223716E-4
0.0031368956
0.007095137
0.011462812
0.013165921
0.01546715
0.01815448
0.014781371
0.012879218
0.01351533
0.008496289
0.0025141544
-0.0027070986
-0.009932722
-0.014818144
-0.017898092
-0.019790063
-0.017954165
-0.01587919
-0.01275889
-0.007252275
-0.0027993321
0.0022484118
0.007033948
0.010580044
0.014287086
0.015373566
0.014823723
0.014137007
0.012030286
0.008867154
0.00468432
9.234002E-4
-0.0021903897
-0.0047116345
-0.0054438617
-0.006145601
-0.006748314
-0.0057298993
-0.0033958168
-0.0012571311
-0.0017980215
-0.0020326986
5.8411417E-4
0.0017138208
3.2069717E-4
-7.5762515E-4
3.9535094E-4
0.0019940147
0.0012798349
0.0011499457
9.3629863E-4
-6.922062E-4
0.0015645399
0.0035166158
8.4959844E-4
-8.120062E-5
-1.9844239E-4
-0.0013120633
-0.0021055657
-0.0043865144
-0.0030564547
9.912443E-4
2.221611E-4
-3.9513313E-4
6.8535155E-4
7.7814143E-4
0.0039606066
0.008095745
0.009232938
0.0050034826
-0.0037092676
-0.006200411
-0.0026087658
-0.0014222176
-5.275716E-4
4.178639E-4
-3.978413E-4
-0.0012105806
-0.0027147795
-0.004242786
-0.0032234637
-8.8180816E-5
0.0012429759
3.4140702E-4
0.0010687067
2.7306145E-4
-0.0036471589
-0.0045502284
-0.0029804418
-0.0019013571
-7.0459914E-4
-5.173302E-4
2.4034862E-6
0.0018804809
0.0023002038
0.0021718526
0.0035298339
0.0040990408
0.002580429
6.3752424E-4
-1.249334E-4
0.0012116631
0.0029236516
0.0013387067
-0.0018940204
-0.0019444164
-5.514846E-4
-7.438193E-4
-5.757019E-4
-1.8226052E-6
-3.1787474E-4
-5.671576E-4
2.2580326E-4
0.00186328
0.0017828551
-3.4542155E-4
-0.0016740764
-0.0013657745
1.4653335E-4
5.5016135E-5
-8.11626E-4
0.0019435418
0.0026531592
-0.0017831526
-0.0037932165
-0.0025940463
-0.0019235557
-0.0013124372
-1.4731943E-4
3.282375E-4
-7.1979244E-5
8.298147E-5
-4.483195E-4
-0.00199921
-0.002228092
-0.001716186
-0.0012840185
-6.073252E-4
6.128565E-4
0.0013187521
-3.4478036E-4
-5.4242124E-4
0.001967249
0.002375072
0.0017520833
9.3206484E-4
-8.995506E-4
1.5107039E-4
0.002759386
0.002649479
0.001211127
3.7575763E-4
5.5490737E-4
0.0010941888
4.3525858E-4
-0.0010602057
-0.0017288744
-0.0015417907
-7.038876E-4
9.241335E-4
8.544583E-4
-5.510558E-4
-7.8720966E-4
-0.0025030428
-0.0034878345
-0.0011616417
-9.816444E-4
-0.0013465399
-4.4232653E-5
5.5153586E-4
0.002746188
0.0038565334
0.0016857003
6.239912E-4
8.075543E-4
7.1320706E-4
-4.8454406E-4
-0.0012396772
3.2295389E-4
0.001334406
5.882775E-4
-6.243314E-4
-4.1656388E-4
-1.9568646E-4
-0.0022764385
-0.001670795
0.0014748933
0.002154703
8.3737203E-4
-9.807951E-4
-0.0013900372
-0.002231895
-0.0028938912
-9.6714555E-4
-0.0029148643
-0.0053450647
-0.0014513704
8.487188E-4
-8.651763E-4
-4.523786E-4
0.0021395585
0.0023884187
0.0014356895
0.0018598541
1.811797E-6
-0.00191979
-5.549394E-4
6.6346006E-4
7.2412874E-4
4.787596E-6
-3.6119884E-6
-1.1620934E-4
-4.5699885E-4
0.0014400058
9.461342E-4
3.498009E-5
0.002242603
0.0017687868
4.7065297E-4
1.909052E-4
4.321498E-4
0.0017720365
-5.099741E-5
-0.0016729875
-8.874074E-4
-0.0015498778
-9.5783174E-4
0.001008358
0.0014049945
3.4360198E-4
-6.7296554E-5
7.219222E-4
2.6365317E-4
-2.6725658E-4
-0.0012307414
-0.002920781
-0.0016952364
2.5767487E-4
8.5418264E-4
4.2950342E-4
-0.0014353143
-0.0019349462
-2.4058943E-4
8.204347E-4
-3.4803044E-4
-0.0010803298
-6.929216E-4
-0.0021499754
-0.0026479776
-8.6221145E-4
2.4681163E-4
1.6928618E-4
-6.342093E-4
1.7100423E-4
0.001769264
0.0024169937
0.0024831572
0.0010186085
0.0011826231
0.0015533579
-5.1831095E-5
0.0015849585
0.0025142338
9.678446E-4
0.0015298856
3.6407623E-4
-0.001436159
-8.8685384E-4
-4.1748694E-4
6.7125825E-4
0.0016234433
8.7314786E-4
-6.2237884E-4
-0.0012486569
-0.0010520887
-0.0014818527
-0.0015902079
-0.002340018
-0.0028499195
-2.4644978E-4
0.0015140862
0.001100936
-9.0221416E-5
-0.0021794552
-0.0021591783
-0.0014047445
-0.0013523318
3.3470974E-4
0.0024057087
0.0035168205
0.0016910379
-0.0012300749
-0.0011249558
-0.0016689551
-0.0015492615
0.001165458
0.0012146947
0.001770394
0.0038324443
0.0032481602
0.0020399468
4.7023527E-4
8.695515E-4
0.0026821205
0.0010685704
1.2778491E-4
-0.0010842764
-0.0035264764
-0.001548104
3.3167406E-4
0.0010364006
0.0018107768
-7.448795E-4
-0.0011180149
3.8293996E-4
-0.0010692523
-0.0025870022
-0.0040295213
-0.0036499817
-0.0012266224
-0.002368076
-0.0047784527
-0.0027451154
2.3159743E-4
-4.3251578E-4
-2.9027465E-4
0.0016542728
0.0017438725
0.0014789237
5.572931E-4
0.0014682426
0.0039440556
0.001662213
7.699336E-4
0.0025543969
0.0012579672
9.177963E-4
0.0010600376
0.0013983075
0.0021274877
4.491117E-4
8.052516E-4
0.0015981422
4.0654928E-4
7.3683163E-4
4.6010103E-4
-5.230248E-4
-0.0012397164
-0.001380636
4.965541E-4
0.0022245008
0.0022355902
-4.0298424E-4
-0.0023559865
-0.0014530637
-0.002276857
-0.0028681695
-0.0022652324
-0.0021948032
-4.624359E-4
2.8520435E-4
-4.3078227E-4
-0.0013402401
-0.0024761749
-0.001626365
-0.0011069684
-0.0010877217
-0.0012315637
-0.0021030067
-3.1399093E-5
4.5723747E-4
-0.0016575264
-3.345358E-4
0.0015094979
0.002717918
0.0035554396
0.0024174224
0.0010163203
5.948575E-4
0.0018950963
0.0018861096
0.0016413252
0.004076817
0.00233733
-9.539135E-4
5.5094755E-5
9.771911E-5
-5.920474E-4
-5.5407593E-4
-9.0649154E-4
-1.995612E-4
4.1781281E-4
2.7139974E-4
2.3387566E-4
6.659994E-4
-3.448796E-5
-0.002391213
-0.0021914032
-6.079567E-4
-0.0018413604
-0.0036402587
-0.002525099
2.5417982E-4
1.6004503E-4
-0.0010396793
-2.3255564E-4
8.2144856E-5
4.6095694E-4
3.1675785E-4
-8.839867E-4
-4.955893E-4
-3.66644E-4
-7.595941E-4
-9.4554096E-4
-0.0011710367
8.628816E-5
0.0010197153
0.0014139649
0.0018700502
0.0010179437
4.3168693E-4
6.516926E-4
0.0011403754
0.0016232178
0.0017619553
7.126435E-4
-6.0525315E-4
0.0014380389
0.0015727711
-0.001774662
-6.9018576E-4
0.0014713489
0.002280436
0.002382095
-0.0010126564
-0.0022732662
-6.2970934E-4
6.096393E-4
0.0015605502
-4.6692704E-4
-0.0020082227
-0.0016851634
-0.001845749
-5.236972E-4
-0.0010492823
-0.0029922551
-0.001984083
-5.629828E-4
-3.0678604E-4
3.2058632E-4
0.0013538112
-4.9747707E-4
-0.0026549585
-7.149898E-4
-6.595135E-4
-0.0011702118
0.0012699853
9.0218434E-4
4.3825182E-4
0.0017227745
0.001745087
0.002463426
0.0026859979
0.0020867297
0.0016784188
5.150974E-4
-6.042837E-4
-0.0016840609
-8.419359E-4
0.0014161967
0.001845552
0.0018633041
4.2177047E-4
-0.0014736201
-1.9404928E-4
2.6438254E-4
-0.0011119794
-0.0015341989
-9.020932E-4
0.0011033945
0.0013472992
-8.003649E-4
-0.0012837154
-0.0014756471
-0.002396653
-5.450077E-4
0.0023087505
0.001504265
-3.5124982E-4
-5.1919767E-4
-0.0010016223
-9.096726E-4
-3.252819E-4
4.606192E-4
0.0012093767
-0.0014811805
-0.0024162282
1.5053173E-4
-4.2509404E-4
-2.3432767E-4
3.2834872E-4
-0.0014677219
3.3701028E-4
0.0015088222
-1.8427848E-4
3.1851575E-4
5.422941E-4
2.0082513E-4
7.7019475E-5
3.2027115E-4
0.0022733938
0.0021072254
4.6467286E-4
0.001090837
0.0018915151
0.0011853137
-4.285546E-5
-1.9890605E-4
-4.6158215E-4
-0.0011121639
4.1439387E-4
0.001339152
3.4067177E-4
1.7905277E-4
1.0435669E-4
-4.134207E-4
-0.0021019243
-0.0044778143
-0.004077522
-0.0018194835
-1.7869685E-4
4.686543E-5
-0.0011298391
-8.7593624E-4
7.33668E-4
8.679256E-4
7.41647E-4
0.001568944
0.0015893823
0.0010586954
0.0015125606
0.0012974838
4.5694597E-4
7.3375605E-4
1.7165812E-4
-5.156947E-4
-5.1735224E-5
1.6733253E-5
0.0010133343
0.0014035241
6.239791E-4
0.0011510144
-3.4966946E-4
-0.0014305857
0.0013742482
8.499345E-4
-0.0026797329
-0.0026211247
-0.0014319009
-0.002873488
-0.0035292013
-8.786522E-4
0.0016318413
0.0024324534
0.0011044192
-8.079359E-4
1.5767542E-5
1.2891936E-4
5.2092226E-5
0.0017682266
0.0010489154
7.307945E-4
8.70116E-4
-9.837695E-4
-2.2800421E-4
5.653464E-4
8.0483376E-5
0.0011932646
3.6104172E-4
-0.0011524425
-2.4613464E-4
0.0011632191
0.0014135943
-1.5451378E-4
-2.8438828E-4
0.0013435
-5.7550345E-4
-0.0031328732
-0.0017414052
-1.8414599E-4
2.3031997E-4
3.7608237E-4
1.2870549E-4
0.0011210361
5.5918325E-4
-0.0014982171
-6.17542E-4
5.3125905E-4
9.3724404E-4
3.0477645E-4
-0.0022955912
-0.001657766
9.412412E-4
0.0013516505
-5.733823E-4
-0.0033567208
-0.0015321511
0.0016455081
0.0016093719
0.0015278658
7.449524E-4
3.9892743E-4
-2.920463E-4
-0.0014584606
0.0012472721
0.001311134
-0.00135539
9.473699E-5
7.443173E-4
8.401669E-4
0.0022459354
0.0011049722
2.1502722E-4
7.450816E-4
-7.8161247E-4
-0.0027768682
-0.0010954487
0.0015078823
1.0411898E-5
-0.0011890018
9.008037E-4
0.0013968968
2.4094703E-5
3.2210595E-5
7.8037096E-4
-3.2118804E-4
-0.0026371023
-0.0028676423
-5.3343986E-4
0.0014987676
5.929715E-4
-0.0010495452
-4.1293167E-4
-1.2014058E-4
-7.82204E-4
9.145394E-5
8.2703587E-4
-2.6477745E-4
-8.0045714E-4
4.4278795E-4
7.016571E-4
3.4651786E-4
9.253848E-4
-2.85805E-4
-1.3545016E-4
0.0024380996
-1.0276588E-4
-0.0027075983
3.93269E-4
0.0017703656
8.290639E-4
-1.2082964E-4
-0.0011323523
3.5327976E-4
0.0016216045
6.2865904E-4
-8.8364014E-4
-8.466184E-4
0.001862625
0.0012438032
-0.0020004453
-0.0013558748
-6.0446974E-4
-1.1129639E-4
0.0013883812
-1.3871424E-4
-0.0011815703
2.986483E-4
2.0728284E-4
-7.7374344E-4
-6.159218E-4
-2.3055515E-4
-6.7131803E-4
-8.937989E-5
0.0015330372
6.20984E-4
-7.6210353E-4
-1.9725952E-4
-5.169108E-4
-0.0011048716
-5.1701406E-4
-8.0400045E-5
-1.6763282E-4
-9.009206E-4
9.717494E-5
0.0034990883
0.003746911
0.0015075764
0.0012122
2.5744847E-4
-0.0012092841
-0.0011217704
-0.0014858085
-0.0013091954
4.8073166E-6
5.1471323E-4
3.116743E-4
4.3389143E-4
7.182845E-4
-6.5990386E-4
-0.0018998673
-8.6274353E-4
5.2189025E-6
-1.5849457E-4
-0.0018049501
-0.0022772537
5.399378E-4
3.959429E-4
-4.607703E-4
0.0023562787
0.0020285712
-5.380361E-4
-9.0631377E-4
-8.1203453E-4
5.004756E-4
0.0019575788
0.0012821154
-2.0812658E-4
-0.0011114628
-9.907859E-4
-4.7014558E-4
3.314149E-4
0.0010405381
3.5338153E-4
-4.8106583E-4
1.8802875E-5
7.1139965E-4
5.2874733E-4
-2.2183887E-4
-0.0013064403
-0.0015127844
7.073964E-4
0.0023546275
7.01812E-4
-5.900679E-4
-1.0364086E-4
-5.665965E-4
-3.1776194E-4
0.0012514348
7.8640657E-4
4.976162E-4
0.0012782166
-2.6986672E-4
-0.0011046471
-4.2385404E-4
-9.07921E-4
-7.8167464E-4
-0.0011698698
-0.0013705406
6.9943594E-4
0.0010235586
1.0328196E-4
1.7404233E-4
-2.0581686E-4
-3.980066E-4
-6.913259E-4
-0.0011389196
-0.001344169
-0.0014903903
4.8564948E-4
0.0028772408
0.0023330874
5.8340235E-4
1.303186E-4
9.033227E-4
5.304475E-4
-0.0015384117
-0.002488455
-0.0016439608
-4.4783927E-4
3.121422E-4
5.098895E-4
4.4408016E-4
-8.364389E-5
-6.002307E-4
-5.8448095E-5
7.832895E-4
7.590446E-4
7.2392257E-4
0.001300905
7.5477327E-4
8.726209E-5
0.001990538
0.0023951589
-3.896719E-4
-0.0011916099
-0.0010790857
-0.0012792604
8.431163E-4
0.0020084523
7.705636E-4
3.2686506E-4
3.390089E-4
-3.6492248E-4
-0.0010504145
-0.0021155681
-0.004318626
-0.0034098164
7.585221E-4
-6.284398E-4
-0.0045601046
-0.0021159803
0.0015625234
0.001784175
0.0015255973
0.0010628252
-1.196467E-4
-2.7467305E-4
4.4131314E-4
5.1043194E-4
6.7123905E-4
0.0011861484
0.0021875727
0.003413189
0.0019586764
-3.925177E-5
7.919354E-4
0.0018034164
9.598822E-4
-7.4841385E-4
7.1692855E-5
0.0022683996
1.5403447E-4
-0.003113828
-0.0028859489
-0.0014734695
-1.7683253E-4
7.5468497E-4
3.831414E-4
-0.0010108926
-0.0013233797
-5.1570154E-4
-0.0024311375
-0.0046421797
-0.0013583463
0.0025601124
0.0014984837
-7.461254E-4
-0.0017032337
-0.0013404314
4.4980185E-4
0.0011228753
0.0015250994
0.0013417408
-3.7852698E-4
0.001446351
0.002868719
-2.3196384E-5
9.225957E-5
0.0015171556
7.345548E-4
5.712383E-4
0.0012513727
0.0027387145
0.0013849509
-0.0020006353
-0.0013199511
1.9974433E-4
2.9468499E-4
-2.2418764E-4
-0.0014936621
-5.2742945E-4
-2.0362521E-4
-0.0016643195
-0.001110492
-0.0020393159
-0.0035734426
-0.001612728
1.7677053E-4
3.3539906E-4
-5.147111E-4
-0.0012127303
3.509406E-4
0.0010866855
3.1175642E-4
1.5361163E-4
2.4180188E-5
0.0014232785
0.0029485084
0.0010523057
-0.0012283232
-8.177031E-5
0.0020090612
0.0014483242
4.945469E-4
1.2327415E-4
-9.938268E-4
7.926908E-4
0.0029026044