-1.4620578E-4
-3.025249E-4
3.2901182E-5
-0.0014111622
-0.0022805135
-0.001220072
-6.067931E-4
5.075265E-4
0.0030532705
0.0018837418
2.8694538E-5
0.0010800986
1.8667166E-4
-5.036796E-4
2.1726156E-4
-3.352874E-5
5.642511E-4
3.9753737E-4
-6.925522E-4
-5.08642E-4
2.3179177E-4
0.0011283304
9.298315E-4
-6.195634E-4
-0.0016425294
-6.609649E-4
3.2223947E-4
-5.851467E-4
1.2127028E-4
4.9108744E-4
-0.001808482
-0.0014218986
3.258161E-4
4.613208E-4
-3.113169E-5
-9.1009424E-4
1.4218377E-4
0.0010320329
1.9627731E-4
8.750946E-4
0.0012822528
9.549037E-4
9.6413837E-4
-4.474864E-4
-0.0010856431
6.450094E-4
0.0014420735
3.0352867E-5
-2.253884E-4
8.7402464E-4
-8.384047E-4
-0.0028846986
-0.0016369297
1.10897534E-4
0.0016706801
0.0021703013
1.9051463E-4
-0.0017044455
-0.003172746
-0.0019042343
0.0022959684
5.555123E-4
-0.003485166
-7.157812E-4
0.0020377843
0.001257186
2.1478381E-4
-0.0011049787
-0.0013490098
-0.0013223332
-5.0263864E-4
0.001921369
0.0023480018
4.279032E-4
-0.0028249056
-0.0033249704
0.001062188
0.0035737767
0.0033994534
0.0021534518
6.7552103E-4
0.002098873
0.0021007112
9.463851E-4
0.0015813416
3.042618E-4
-7.5218687E-4
-0.0017428618
-0.003044613
-0.0016646716
-0.0015684197
-3.982476E-4
0.0017942659
-5.084309E-4
-0.0010276714
-3.4306812E-4
-0.0013746058
-2.1489768E-4
-0.0012496255
-0.0020421809
0.0010924649
0.0019348254
0.0023555364
0.0030388883
8.614915E-4
-5.5997504E-4
-6.6255854E-4
-0.0011780807
-0.0020121636
-0.00253496
-0.0020771218
-0.0023542645
-0.0026998029
-0.0016969101
-6.5922254E-4
1.1866141E-4
1.671977E-4
3.4121747E-4
9.685378E-4
2.0221417E-4
5.759291E-4
0.0013923198
-0.0011888442
-0.0022569774
-9.0971123E-4
-6.5662654E-4
0.0020300809
0.003948517
0.002616975
0.0035638597
0.0027547744
0.0035576688
0.01344111
0.01706071
0.0082894815
-0.0015273087
-0.011118422
-0.01480168
-0.008772714
-0.0055040387
-0.0049120407
1.1210953E-4
0.0019659603
-3.830489E-4
-2.6455786E-4
-4.1421768E-4
-0.0023885043
-0.0038249744
-0.003680713
-0.00138523
-9.5744984E-4
-0.002990508
-0.0027027046
-8.3247066E-4
9.176655E-4
0.0028628027
0.0038917293
0.0027697315
9.5543376E-4
0.0014753995
0.0017939793
0.001376514
0.002767172
0.0016566633
2.2851038E-4
0.001974442
0.0013332111
3.286854E-4
6.2811194E-4
-2.7769362E-4
6.833273E-4
0.0012187577
-4.1315707E-4
-6.7478605E-4
-8.1255153E-4
-0.0013180814
-0.0010640072
-4.0707676E-4
-1.9863844E-4
-9.655279E-4
-4.857782E-4
7.5421174E-4
3.2607908E-4
-0.0010287738
-0.0020162794
-0.0013544897
2.676873E-4
0.0011551285
0.0012166458
8.7893225E-4
6.673142E-4
-5.635598E-4
-0.0018592048
-0.0013768589
-0.0011424351
-0.0011412374
-1.2820371E-4
0.0020065357
0.0031102016
2.3613081E-4
-9.6596254E-4
0.0013588661
3.4713012E-4
-9.7542844E-4
0.0011349067
8.0712396E-4
-0.0021997346
-0.0023812584
-0.0013120208
-0.001356781
-5.2438863E-5
-1.1930683E-4
-0.0018134426
-5.7659036E-4
9.917925E-4
0.0015566385
9.947831E-4
-1.1847122E-4
0.0014363729
0.0013571689
6.885787E-4
0.00196044
7.805242E-4
8.7231636E-4
6.4873364E-4
-0.0011330157
8.1621145E-4
-4.272109E-4
-0.0031453364
-5.217203E-4
0.0016697198
0.002203453
0.0011701375
-0.0012376206
-0.002113468
-0.0014813123
6.1096874E-4
0.0011713296
-3.846197E-5
-9.92381E-4
-0.0015539848
4.796547E-4
0.0014225552
2.7549398E-4
3.0290027E-4
-0.0012162139
-0.0021923643
-0.0010997823
-1.2594757E-4
0.0012666705
5.329689E-4
-0.0012515665
-7.369299E-4
4.4925077E-4
0.0016897141
0.002326181
6.0625246E-4
-0.0017604745
-6.416787E-4
0.0018936673
0.0012047616
-7.494085E-4
-0.002767156
-0.003163719
-1.8100855E-4
0.0012057667
-7.699077E-5
-0.001111095
-5.327596E-4
0.0016346845
0.0024960206
0.0026240954
0.0021100268
-6.2601134E-4
-0.001450455
3.1040274E-4
1.5677343E-4
-0.001418924
-8.7908696E-4
3.6237E-4
4.631662E-4
0.0011321814
4.897372E-4
-3.1796627E-4
6.809809E-4
-7.4817706E-4
-0.0014816638
-1.4672146E-4
-4.7884055E-4
3.9835242E-4
-4.6478986E-4
-0.0033587709
-0.0018055887
5.9909583E-4
0.0011205602
0.0014067268
9.1366103E-4
-8.1320446E-5
-0.0014556439
-0.0011547486
6.145545E-4
0.0011707555
0.0013168409
8.559183E-4
3.5593508E-5
-7.258448E-4
-0.0021337834
-2.2762871E-4
0.0035064928
6.6332775E-4
-0.0035042455
-6.4992247E-4
0.0011876519
-8.316626E-4
-4.3008762E-4
-4.777665E-5
-1.1872411E-5
0.0012561913
9.664192E-4
7.166836E-5
-6.061778E-4
-4.5400392E-4
5.690683E-4
0.001122661
0.0016996718
5.376312E-4
-2.5600428E-4
0.0010995315
8.534514E-4
2.3040721E-4
-3.2937535E-4
-0.0010503059
-0.0011674255
-0.0020434153
-8.503176E-4
2.6897443E-4
-0.0014630454
-0.0013032575
1.3651697E-4
3.520019E-4
-2.1375634E-4
2.3725898E-4
0.0015807934
7.590244E-4
-1.18546704E-4
-6.1504985E-4
-0.0015025304
-8.6676603E-4
1.5962293E-4
0.0018351334
0.0012984504
-0.0010967933
2.9408457E-4
0.0011211381
2.9668733E-4
7.8582036E-4
0.0011336262
0.0021937187
0.001907276
6.9449353E-4
-6.25627E-5
-0.0017277924
-6.4605183E-4
3.3102764E-4
-0.0022099293
-0.0030090173
-0.0017839799
-7.355133E-4
-1.5539686E-4
-7.9493664E-5
3.4666236E-4
8.6639274E-4
7.059106E-4
1.14369825E-4
0.0011007519
0.0017011286
-9.305925E-4
-0.0027078192
-0.0016936933
-3.5755266E-4
2.8387012E-4
8.2869886E-4
0.0013482152
0.0010439447
5.464418E-4
-0.0015556994
-0.0029588083
-2.6397945E-4
1.5429175E-4
-1.1580967E-4
0.0033312899
0.0031401135
0.0012408686
0.0032159404
0.0033957425
-8.714929E-4
-0.004133722
-0.003559774
-0.0029042268
-0.0024136684
-5.5390643E-4
-1.691804E-4
3.7897353E-5
0.001289198
0.0013894349
0.0016280817
0.002692947
0.0027847404
0.0014090341
4.6157028E-4
4.4125755E-4
-2.5064978E-4
-0.0013488155
-0.0030719333
-0.0035882213
-9.7484136E-4
4.2940356E-4
4.1349685E-5
2.7735793E-4
1.4382206E-4
-7.4378964E-5
-0.0010017136
-0.0012214386
0.0011315392
0.0011841323
-0.001213787
-0.0016597955
-0.0011207516
-2.603577E-4
6.6998973E-4
3.2854965E-4
-2.7721573E-4
-7.2898605E-4
-7.1070186E-4
7.245309E-4
0.0017683634
0.0019533513
0.002920801
0.002731649
6.915218E-4
-1.4310017E-4
-2.902449E-4
-7.3009526E-4
-1.21860794E-4
1.1678452E-4
-4.9491826E-4
-0.0010180696
-0.001529241
-7.46582E-4
-2.2736377E-4
-0.0010061124
-6.0055166E-4
-1.0953331E-4
3.431663E-4
0.0015191635
7.834842E-4
-9.451697E-4
-0.0010752558
2.8542406E-4
0.0011343039
7.7244657E-4
0.0012952707
3.826075E-4
-0.0018543307
-4.6135692E-4
0.0012239616
6.455356E-4
-1.797707E-4
-0.0015286775
-9.5017336E-4
5.538614E-4
-4.1228253E-4
-0.0017869896
-0.001901016
-2.6397916E-4
0.0011982771
3.4708937E-5
-9.374833E-4
-1.4576895E-4
0.0016721119
0.0026444197
2.652475E-4
-0.0010377462
5.8619E-4
-1.1069857E-4
-8.1977685E-4
4.2312453E-4
7.567928E-4
0.0026014536
0.0031947591
-6.261537E-4
-0.0022013076
-0.0015182359
-0.0013359761
1.3098076E-4
4.2695424E-4
8.8360056E-4
0.002735987
4.3308613E-4
-0.0025973779
-3.4542853E-4
0.0011106855
-0.0015940334
-0.0018659565
-2.7474982E-4
-0.002388021
-0.0040600714
-0.0024938115
-0.0013986089
-0.0012211258
-3.1833633E-4
0.0017569662
0.0017584958
9.519095E-5
0.0016576628
0.0033045928
0.0035097713
0.0037753806
0.0019333425
7.2801585E-4
-2.9626387E-4
-0.0014209043
0.001619736
0.0027275942
0.0012685355
0.0029852777
0.0017397736
-0.0015788742
-0.001479993
-0.0034058376
-0.00560832
-0.002277053
0.0016548986
0.0020554226
4.1940538E-4
-8.0657145E-4
-0.0015018949
-0.0042415312
-0.0057098945
-0.0036755353
-0.0029120462
-6.3071115E-4
0.0038408553
0.003477854
0.0025332223
0.004302097
0.0034717496
0.0014719547
5.283318E-4
0.0013559555
0.0031213185
6.311797E-4
-0.0032034847
-0.004443704
-0.0054531093
-0.004799741
-0.0034972662
-0.0028362812
-7.7665714E-4
4.886098E-4
0.0024241956
0.0053817304
0.0052905316
0.0044171684
0.0028737397
0.0018765808
0.003658036
0.0010278369
-0.0032394782
-0.0017327203
9.708551E-4
0.0029521529
0.0037524304
0.0022945704
4.1751898E-4
2.8136734E-5
0.003400264
0.0024357177
-0.007001988
-0.012658213
-0.011507351
-0.007316075
-0.0026464895
-0.0010716869
0.0012604946
0.0018749334
-0.0018697528
-0.0013023677
7.583729E-4
-4.9699936E-4
-3.393909E-4
2.6331854E-4
0.0011705554
0.0038014175
0.0053440602
0.0064149136
0.007176071
0.0055441204
0.0051889974
0.009920158
0.009905101
-0.0046132817
-0.016678117
-0.011713404
-0.004999013
-0.0035220678
-7.521079E-4
7.266844E-4
0.0018075963
0.002741982
0.0010872917
0.0020157667
0.003249579
-4.8715822E-4
-0.0051160166
-0.006727022
-0.0035604762
0.0017046044
0.004604635
0.0064334315
0.0075602583
0.006610897
0.0036017173
-0.0010580573
-0.00426361
-0.005334495
-0.0070353146
-0.0070113246
-0.0033279194
-0.0014153445
-0.002000565
-5.907766E-4
6.6440343E-4
6.0616364E-4
0.0020266636
0.002533523
-7.162097E-4
-0.0049688127
-0.0057444302
-0.002491227
0.002692461
0.0062991967
0.0048591965
0.002906519
0.002857232
0.0019025313
0.004312593
0.007192424
0.0047516883
0.0033564733
0.0025794997
-6.884915E-4
-6.895429E-4
0.0011068047
-0.0012751421
-0.003933874
-0.0030419375
-0.0044908714
-0.007660727
-0.0059789787
-0.0034530219
-0.0033648978
-0.0028945717
-7.0331956E-4
0.0013846717
0.0011016007
0.001826924
3.9791744E-4
-0.004545489
-0.003092444
-5.8105635E-4
-0.0015168393
-0.0010230698
-0.0020343643
0.0018854013
0.008147001
0.0055528847
0.004283153
0.0073486045
0.008588421
0.0071556605
9.1966504E-4
-0.003986564
-0.0056187087
-0.0057096565
-4.3549584E-4
0.004549523
0.004093652
9.2516665E-4
-9.525335E-4
-7.8880205E-4
-0.0031666725
-0.005484845
-0.0052205026
-0.0044299713
-0.0014731939
1.5456535E-4
-0.0010465746
-0.0015716113
-6.533564E-4
0.0022545168
0.0033712678
0.0026059574
0.00321221
0.0018565919
-0.0013405944
-0.004586152
-0.00660393
-0.004157364
2.9830445E-4
0.0036311927
0.0041519916
0.0012503562
-0.001593314
-0.004050202
-0.00535648
-0.0023751538
0.0010933755
0.0025126059
0.00474906
0.0046638586
3.1938692E-4
-0.0019145942
-4.609897E-4
0.0017082463
0.002225335
-2.7733595E-5
6.163306E-4
0.004250062
0.0046409066
0.0061193733
0.010200603
0.00910574
0.002940251
-0.00158881
-0.0031008602
-0.005482574
-0.006844702
-0.0036742121
-0.0026131559
-0.006023475
-0.0075441655
-0.0080915345
-0.008057763
-0.0038610746
-9.1570435E-4
-0.0011884377
-8.1574144E-5
-8.1268945E-6
-6.3136703E-4
-7.544183E-4
-0.0012937464
0.0025341255
0.005576452
0.0030844857
0.0041279867
0.0071759275
0.00730297
0.0077060624
0.0067092935
0.004841174
0.005397192
0.004604322
6.735226E-4
-0.0022379565
-0.0060899663
-0.012477388
-0.012932705
-0.008042281
-0.0047861105
-0.0010509627
0.0019854105
0.0014669071
-4.3887988E-4
-0.0013325072
-0.0011106424
-0.002727249
-0.002801625
2.3569434E-4
0.002199404
0.0064912043
0.010174998
0.010340526
0.013534919
0.014562679
0.00980047
0.0043431935
-0.0014390479
-0.0050550336
-0.006263859
-0.008443335
-0.012792532
-0.018306311
-0.019855449
-0.017092334
-0.012690396
-0.00693013
-0.002292302
0.0016944212
0.005019333
0.004786222
0.003950352
0.0047575803
0.0010747255
-0.0070475107
-0.005561049
0.005063096
0.010052897
0.014178322
0.02209726
0.024565497
0.021755572
0.016776321
0.011338282
0.007806815
0.0037363593
-0.0022280135
-0.011142783
-0.019931981
-0.022337884
-0.020696351
-0.017078826
-0.009627788
-9.107663E-4
0.0032025059
0.0020876764
0.0012945824
-7.00796E-4
-0.004286315
-0.0038836396
-0.0034261006
-0.003841776
-0.0026233078
-0.0035530124
-0.0032622453
-6.036997E-4
0.0014718162
0.0062167374
0.009567634
0.007421555
0.004791769
0.00156543
-0.004211464
-0.0070551955
-0.003976708
-0.0018578348
-0.0024302169
-1.1134355E-4
0.0016291187
0.0026736627
0.008467751
0.01092923
0.007660365
0.0077656
0.009146906
0.009141478
0.009556898
0.006872242
0.0023984495
-5.812848E-4
-0.004903
-0.010084452
-0.013617821
-0.01651769
-0.01771232
-0.014954258
-0.010937824
-0.008610783
-0.0059472406
-0.0015680793
0.0034969004
0.008774736
0.01227882
0.013720583
0.017171303
0.01835008
0.008969531
-0.0014953476
-0.0052788993
-0.010946816
-0.013624154
-0.006846043
-0.0020958572
-0.0016189694
0.0013502203
0.005603952
0.007302822
0.006459457
0.0024520427
-0.009041119
-0.019902684
-0.020224545
-0.017961737
-0.016547484
-0.014119551
-0.015148767
-0.01817297
-0.015816074
-0.003911407
0.011525637
0.021186309
0.023023602
0.020598397
0.021940347
0.02662287
0.028034724
0.026858842
0.023160143
0.02307154
0.030033452
0.028088758
0.01315605
2.7348602E-4
-0.0052992944
-0.011485106
-0.024401192
-0.030860612
-0.015856022
0.003311843
0.0075825443
0.003984189
-0.0028597557
-0.007849776
-0.008319768
-0.025595265
-0.05504783
-0.06295785
-0.056004476
-0.05208489
-0.041382883
-0.028053211
-0.018598974
0.0029859962
0.03272794
0.04807463
0.05355743
0.06844499
0.086459376
0.084624276
0.06581116
0.041135423
-0.0012234709
-0.049701866
-0.07586096
-0.078833714
-0.057521716
-0.017769856
0.021753255
0.061133247
0.08672109
0.073956005
0.035376392
-0.008489461
-0.056403343
-0.09278684
-0.098400116
-0.08752341
-0.06112446
-1.8105493E-4
0.061764173
0.07211695
0.04220646
0.026057966
0.013215053
-0.03652338
-0.05797904
-0.029086705
-0.019717507
0.013947071
0.09271482
0.14385267
0.15945455
0.12473009
0.049413126
-0.014715468
-0.06478982
-0.06891237
-0.060947698
-0.11709978
-0.15395088
-0.11944518
-0.08191424
-0.062495977
-0.03706844
0.0075227562
0.04342604
0.067125864
0.08973624
0.055902924
-0.003096846
-0.017015358
-0.048408907
-0.10416469
-0.10069752
-0.04903227
4.152961E-4
0.05991388
0.13982053
0.19722997
0.20112741
0.15446092
0.07922088
0.011583159
-0.037842337
-0.04549268
-0.018272415
-0.03219972
-0.05948029
-0.04196913
-0.026586466
-0.034178454
-0.06057324
-0.101069406
-0.12641059
-0.12931438
-0.095849484
-0.031403624
0.02297765
0.061898403
0.10336231
0.1352943
0.11810777
0.070149176
0.03235364
-0.00692838
-0.028958844
-0.039896052
-0.07076318
-0.06613577
-0.019880606
0.0070827124
0.0059468145
-0.004524606
-0.0011786799
0.010667396
0.010894146
-4.5829412E-4
-0.017662048
-0.018557345
-0.0043017473
0.0021279776
0.0010183854
-0.0010475245
8.4012473E-4
0.0042635985
0.018784009
0.04551998
0.05974653
0.065300986
0.057647113
0.03567912
0.028354088
0.020798365
-0.00650735
-0.052135516
-0.09446328
-0.087532416
-0.05510256
-0.042145092
-0.04000658
-0.033040777
-0.009139051
0.013267566
0.015411897
0.010552079
-0.0075554834
-0.030251931
-0.025709763
0.004947494
0.038891554
0.05848268
0.06319509
0.06692414
0.07585636
0.07117319
0.045445625
0.017536476
-0.020757241
-0.064482756
-0.07344083
-0.052870758
-0.03518006
-0.03183338
-0.03484462
-0.029769683
-0.022003053
-0.016332805
-0.011017714
-0.010746541
-0.00580414
0.00859925
0.020375628
0.026901342
0.03243712
0.03821297
0.04158946
0.038407452
0.029052744
0.018499602
0.01004709
0.0016668009
-0.0051639816
-0.0069724983
-0.007593272
-0.00892883
-0.008712709
-0.008922178
-0.011463399
-0.013254721
-0.011680211
-0.009444461
-0.00889438
-0.0077896393
-0.006673084
-0.0075547625
-0.0074702087
-0.00647191
-0.0062028775
-0.0042333817
-0.0023512403
-0.0011198776
0.0019133723
0.003484295
0.0030535334
0.0028718717
0.0033059113
0.0043522534
0.0024391862
-6.533466E-4
1.6006875E-4
0.0017942903
0.0025342882
0.0025402165
0.0010014132
0.0012533594
0.0037324594
0.0065165795
0.009099668
0.009359104
0.0075837797
0.0067799976
0.007656701
0.0073545966
0.0054756096
0.005245559
0.0032193966
-0.0024805148
-0.005305136
-0.005875608
-0.0064389743
-0.0048019253
-0.0055535664
-0.008406726
-0.0070474297
-0.0056828605
-0.006879768
-0.006407569
-0.004543903
-0.0026919085
-0.0022586917
-0.0015942196
8.81479E-4
-4.0489453E-4
-0.0020736458
3.2678022E-4
9.669204E-5
-4.3202564E-4
0.001000181
2.5763595E-4
8.2379475E-4
0.0020549684
5.354878E-4
-9.0809533E-4
-0.0011618668
-0.0021051217
-0.0025899645
6.208223E-4
0.002742165
0.0019461506
0.0035579423
0.003954806
0.0035217754
0.0048501887
0.0045804842
0.0048459508
0.0030492821
4.796283E-4
0.0026396348
0.0021180839
-7.73646E-4
-0.0011088595
-4.7809086E-4
8.13147E-4
-5.6860363E-4
-9.3674357E-4
0.0016119737
-5.4261944E-4
-0.003205386
-0.0020039266
-8.652802E-4
-1.9509223E-4
-3.7955854E-4
-0.0021313732
-0.0043874346
-0.004750573
-0.0026111098
-3.7059007E-4
8.925498E-5
-0.0014698958
-8.5740705E-4
0.0027907558
0.005088869
0.0061620977
0.005266647
9.310855E-4
-0.004388971
-0.007257068
-0.00576311
-0.0031844063
-0.0026907637
-0.0041046296
-0.0046335845
-0.0026908861
-0.0030804365
-0.003613947
-8.704186E-4
-1.4103383E-4
3.4664312E-4
0.0012424621
1.1496073E-4
0.001035884
0.0032645436
0.005452558
0.006886008
0.006433616
0.00759784
0.0072047934
0.00281451
-0.0016464912
-0.002839633
0.0026373768
0.0065332153
0.0038503455
0.0036521337
0.004520602
0.0041948278
0.0042036185
-7.6115265E-4
-0.0068694884
-0.007811629
-0.0072536855
-0.0075160116
-0.007101613
-0.0063756597
-0.006201443
-0.0041874014
-0.0022424436
-0.003049228
-0.0016190038
8.874973E-5
-7.3898066E-4
3.3956254E-4
8.5304456E-4
-8.7418105E-4
-0.0023110576
-0.0019158231
0.0014497744
0.0023626531
5.6008797E-4
0.001610353
0.0025706769
0.0027617768
0.0051048375
0.0059637744
0.0030575134
0.0018781917
0.0037347828
0.002637714
0.0010876552
0.0018291946
9.82426E-5
-3.5993228E-4
0.0026055623
0.0017619124
-0.0026211608
-0.0039289487
-0.0014342612
9.3226676E-4
0.0012518748
-0.0013995464
-0.003410525
-6.960481E-4
-2.3136259E-4
-0.003144424
-0.003084672
-0.002047556
-6.166151E-4
-4.958762E-5
-0.00145878
3.9598104E-4
0.0022549536
2.7627175E-5
-0.0015834543
-8.5339585E-4
1.8640992E-4
1.731681E-5
-8.15005E-6
8.9257053E-4
6.318728E-4
-2.7333302E-4
-8.154736E-4
-8.5823046E-4
-5.675364E-4
-0.00113159
-0.0017570812
-0.001668409
-0.001083166
5.3553103E-5
6.399998E-4
1.2329394E-4
1.3300915E-4
0.0012432127
0.001244387
3.9563215E-4
1.0880562E-4
2.8682966E-4
0.0017372441
0.0016490452
4.430794E-4
0.0024254152
0.0023146942
-5.234476E-4
3.747448E-4
0.0016596223
8.500368E-4
2.095441E-4
-9.274185E-4
-0.0016414054
-2.1898511E-4
0.0014513546
6.0307886E-4
-9.3966955E-4
-0.0011721447
-0.0015182069
-0.0017230877
-0.0018339853
-0.0013790529
-2.9192131E-4
-0.001282847
-0.0018183724
-7.092641E-4
-5.491924E-4
8.057707E-4
0.0018115757
5.176142E-4
-1.7441959E-4
-7.2115875E-4
-7.677152E-4
3.399875E-4
0.0012275534
0.002230711
0.0016449201
-2.541986E-4
4.522042E-5
0.001029376
1.556925E-4
-0.0012433345
-0.0017816819
-0.001446361
-9.647477E-4
-9.592354E-4
-2.6438822E-4
0.0012308919
0.0018996489
0.002515147
0.001797675
-0.0012132599
-0.0019702495
-9.902011E-4
-4.6383988E-4
0.001456079
0.002783733
0.002179842
2.444701E-4
-0.0012370318
6.813448E-4
0.0014850392
-9.674755E-4
-0.0016134784
-9.7390084E-4
-8.965181E-4
-2.6736368E-4
0.0013262276
0.0017430937
-3.2982E-4
-2.3786818E-4
0.0011742046
-7.575261E-4
-0.002508743
-0.0030247327
-0.0024718982
-4.132111E-5
-5.6608743E-4
-0.0018091539
1.845111E-4
0.0011759092
0.0012732979
6.052391E-4
-0.0017361538
-6.3114555E-4
0.0018733058
9.7240234E-4
0.0010566427
0.0013712153
-0.0010023502
-8.951235E-4
2.1255863E-4
-9.4850024E-4
-4.958774E-4
4.071818E-5
4.764262E-4
0.002770296
0.0018928632
-3.046429E-4
2.260595E-4
-6.0309225E-4
-0.0018577473
-7.178293E-4
4.9508904E-4
0.001438031
0.0023827844
0.0014213187
-6.809959E-4
-0.0010632187
-4.9524585E-4
-8.724189E-5
5.260209E-4
1.3757938E-4
2.49263E-4
9.736664E-4
-2.7056737E-4
-0.001473111
-0.0017593331
-0.0013095543
1.2708076E-4
-1.21823905E-4
-0.0014688099
-0.0015293375
2.943522E-4
0.0021082105
3.4092146E-4
-0.0018234061
-0.0011804382
-8.133687E-4
-9.6088246E-4
4.4461407E-4
0.0021724426
0.0018573485
0.0014388467
8.888214E-4
-0.0016316677
-5.89327E-4
0.0019792865
7.8194623E-4
9.304403E-4
7.3937024E-4
-6.18894E-4
1.5460825E-4
-0.0017159046
-0.0026532686
2.4409943E-4
8.168079E-6
-0.0010233829
-2.7553126E-4
-5.4808485E-4
-3.586233E-4
8.5090776E-4
0.0014993581
0.0011398296
4.6513331E-4
5.669381E-4
6.8701856E-4
-9.595208E-4
-0.0021363606
7.604419E-4
0.0032095495
0.0017421382
0.0011479913
5.756394E-4
-0.0017201512
-0.0010393801
7.3066924E-4
3.2783923E-4
5.4395485E-5
-0.0018007836
-0.0033137777
-1.491617E-4
1.1092842E-5
-0.003653195
-0.0018616997
0.0015094233
0.0014902384
4.5061024E-4
-0.0010756126
-7.959648E-4
7.4759335E-4
1.5658219E-4
-0.0015043567
-0.0010001699
0.002402225
0.00324729
3.5059854E-4
-3.605722E-4
6.593217E-4
0.0011974088
0.0016702006
0.0011452265
5.594321E-4
4.4990442E-4
-0.0011864296
-0.0028252683
-8.178476E-4
9.953148E-4
-7.213728E-4
-7.452894E-4
1.2635291E-4
-6.706468E-4
3.2288613E-4
4.5451956E-4
-0.0012343912
-7.2066166E-4
6.487393E-5
2.998967E-5
-7.2464325E-5
-7.064227E-4
-1.4959431E-4
5.185408E-4
-3.9693702E-4
-8.136238E-4
-4.3371724E-6
0.0016460429
0.0024654733
6.6199113E-4
-2.597822E-4
0.0011306057
0.0014788517
9.81347E-4
3.193049E-4
-3.8218204E-4
-1.6498686E-4
-6.928352E-4
-0.0013134636
-1.6434953E-4
5.211719E-4
-6.285378E-4
-0.0017276871
-0.0011995644
-6.837856E-4
-8.5208117E-4
-2.6884663E-4
-5.8635004E-4
-0.0014194206
-5.9693505E-4
5.8224123E-5
-1.251213E-4
-3.3374914E-4
7.560954E-5
9.993052E-4
1.06721935E-4
-0.001155511
-8.5374975E-4
-4.3355E-4
0.0017192512
0.003972126
0.0018591816
-3.0625856E-4
6.440238E-4
8.1931637E-4
4.838471E-4
0.0012293844
1.5720753E-4
-0.0020834177
-7.2561804E-4
0.001584035
6.861717E-4
3.4456595E-4
-1.829233E-5
-0.0020476112
-0.0018287458
-0.0011128841
-0.0011591702
-0.0013314021
-0.0022254253
-4.7409607E-4
0.0010918891
4.394473E-4
0.0021782776
0.004428576
0.0043111555
-6.0351667E-5
-0.004388653
-0.001476242
8.714209E-4
-7.905017E-5
9.1819646E-4
3.9745886E-5
-0.0013221586
-8.153058E-4
-9.367875E-4
-3.3273612E-4
1.4213052E-4
-4.730489E-4
-5.3376355E-4
-1.5653008E-4
-2.9231285E-4
-6.9388765E-4
7.6036855E-7
3.8141565E-4
-6.501652E-4
-0.0011509996
-4.7371435E-4
6.438385E-4
0.001262292
0.0013310856
5.3928833E-4
-7.86439E-5
0.0013661855
0.0013661978
-6.198308E-4
-3.0965434E-4
7.101968E-4
8.616463E-4
0.0019179044
0.001817615
-3.5015828E-4
1.8569729E-6
0.0011935671
-9.617831E-4
-0.0021431234
-0.0018458667
-0.0012910092
6.7360565E-4
1.7532842E-4
-6.1779056E-4
-3.5626354E-4
-0.0018817642
-7.0305966E-4
0.0014332648
0.0012459244
8.785879E-4
-9.009848E-4
-0.001392421
2.782158E-4
4.706506E-5
-0.0015281435
-0.0014880307
0.0010031633
0.001385591
-1.660139E-4
7.8421197E-4
4.032756E-4
-0.0013512892
-7.012872E-4
3.939979E-4
7.4358255E-4
7.307218E-4
0.0010742592
8.9321187E-4
-9.4152085E-4
-0.0028708605
-0.0030570354
3.4827148E-4
0.0036283443
0.0027706346
0.001465088
1.4723359E-4
-0.0019704525
-0.0016930653
-2.726319E-4
-4.11428E-4
-1.5291545E-4
0.0023039342
0.0033108795
4.4736944E-4
-0.0013159387
-3.052663E-4
-4.961858E-4
-9.16951E-4
3.8974927E-4
5.471116E-4
-7.270882E-4
-7.93706E-4
4.4087777E-4
0.0011738295
-9.963767E-5
-7.2476774E-4
4.0007583E-4
-3.701744E-4
-0.0014396233
-0.0016756203
-0.0019733463
-2.4120987E-4
5.203765E-4
1.165356E-4
1.5518932E-4
-0.0020240739
-0.0012328316
0.0023143995
0.0015132019
-6.2778054E-5
4.6328938E-4
0.0016052065
0.0018559523
5.211567E-4
-3.326318E-4
-0.002000506
-0.0024278788
2.5649893E-4
2.68532E-4
-1.8599472E-4
0.002035476
0.002397394
0.0011245891
9.0813613E-4
0.0016754649
4.610016E-4
-0.0029213584
-0.00349805
-0.0017921026
-2.0063529E-4
9.181161E-4
-2.4360724E-4
-0.0010818526
4.1768933E-5
-3.675218E-4
-0.0017718758
-0.0011829481
6.4975297E-4
0.0016048355
0.002120014
0.002027893
7.0162094E-4
5.5145856E-4
2.351678E-4
-7.855079E-4
9.79099E-4
0.0015430822
-1.8511352E-4
-3.3117036E-4
-0.00107987
-0.0010172982
-3.2305956E-4
-0.0015927193
-5.43636E-4
5.6787813E-4
-4.338887E-4
-1.736121E-4
-5.232742E-4
1.5594582E-4
0.0010275905
-0.0011219657
-8.4802776E-4
9.5666404E-4
0.0010313052
4.1816453E-4
-0.002007395
-0.0020855814
4.4122626E-4
1.3263918E-4
-7.484505E-4
1.9043246E-4
0.0016683318
0.0017929305
9.4944786E-4
0.0014378658
7.9477445E-4
-6.3147774E-4
-7.273194E-4
-0.0017913018
-0.0013667871
8.234499E-4
6.002516E-4
1.662735E-4
-2.3962866E-4
-0.00145808
9.3481955E-5
0.0014848291
0.0010534985
0.0024025894
9.118471E-4
-0.0020975631
5.1066872E-5
6.8197446E-4
-0.00105562
8.756134E-5
4.6613996E-4
0.001078681
0.002098176
-2.2779245E-4
-0.002216673
-0.0018424895
-0.0011398233
-8.849732E-4
-5.031363E-4
-1.5931127E-4
-7.6426455E-4
6.1356375E-4
0.0016066446
-0.001154785
-0.0012048904
0.0010227831
9.843885E-4
5.6076347E-4
-2.364812E-5
3.5565597E-5
6.1758776E-4
7.56002E-4
6.956252E-4
-0.0012483821
-9.2157186E-4
0.0018455097
-1.066754E-4
-0.0017611901
5.7715445E-4
6.780193E-4
-6.195733E-4
-1.5177643E-4
0.0012011535
0.0011102901
-0.0014240165
-0.0022775964
-7.0308364E-4
1.570744E-4
4.8562553E-4
1.8487078E-4
9.8284654E-5
-2.4179053E-4
-0.0011349872
0.0013991751
0.0027626297
5.711202E-4
0.0021358912
0.0026857934
-8.684271E-4
-0.002128986
-0.002831006
-0.0025764664
-3.758715E-4
1.646449E-4
6.5542647E-4
3.8954163E-6
-0.0019783797
-7.719165E-4
6.387655E-4
2.2559911E-4
8.4310595E-4
7.038939E-4
-3.8118896E-4
4.245354E-4
0.001071653
-1.3945288E-4
-0.0012686221
-0.0011377331
0.001206386
0.00285055
0.0013358821
0.0012549809
0.0012361876
-0.0012925899
-9.571428E-4
8.116249E-4
5.7451427E-4
3.4129483E-4
-4.7920077E-4
-0.0020817267
-0.0030660143
-0.0024408977
-7.1274245E-4
1.31217E-4
8.106991E-4
0.0012091924
3.23413E-4
-6.693602E-5
6.424742E-4
4.2043382E-4
-9.692723E-4
-6.3779094E-4
-1.763749E-4
-5.561011E-4
0.0018356867
0.0024403573
2.6648885E-4
6.098567E-4
-4.413291E-4
-0.0016636577
2.0339122E-4
2.6540822E-4
-1.9885118E-4
-2.2559994E-4
-0.0017160581
-0.0016109142
4.55878E-4
0.0020354302
0.0015571606
-2.6173466E-5
-5.3483446E-4
6.3792634E-4
0.002757957
5.0201546E-4
-0.0038491033
-0.0016870863
4.3720668E-4
-7.0349703E-4
0.0011453079
0.0011515575
-5.4041296E-4
7.232184E-4
8.456793E-4
7.609622E-4
4.7727E-4
-0.0016857054
-0.0010729642
-4.3510177E-4
-0.001218264
1.15381226E-4
-9.0889074E-4
-0.0022627895
-7.010794E-4
-7.1586657E-4
9.133333E-4
0.0025544402
6.5210863E-4
0.002137175
0.0029916167
-3.5425193E-5
-1.2012851E-4
-7.1942726E-5
-5.793183E-4
6.637551E-5
-0.0010434453
-9.069954E-4
1.1432132E-4
-3.3864458E-4
-4.5233328E-4
-6.912443E-4
3.730201E-4
9.146632E-4
-7.464475E-4
-7.542084E-5
-1.9777445E-4
-0.0020232184
-3.4875044E-4
0.0010897901
3.1090507E-4
3.135534E-4
0.0011457152
0.0016145458
1.6069978E-4
-7.7335205E-4
9.065005E-4
0.0020827444
9.01781E-4
-8.6182414E-4
-6.195529E-4
1.0419933E-4
4.162527E-4
9.2749385E-4
-0.0010894912
-0.0019634024
-2.6250767E-4
-0.0023970422
-0.0045517874
-0.0022878866
-2.0154384E-4
1.190706E-4
6.2608364E-4
0.0012471728
5.319535E-4
1.9659837E-4
6.201494E-4
1.5274168E-4
9.2117075E-4
0.0021299846
0.0020675363
0.0014305416
7.8030356E-4
0.0017735815
0.0010259874
-0.0015987384
-9.832451E-4
1.2851488E-4
6.970728E-4
0.0018923276
0.0016102475
7.8370635E-5
-0.0019155932
-0.0022667323
-0.0014803573
-0.0010686961
1.7803836E-4