9.817673E-4
0.002339176
-0.0013861462
-0.002521119
-0.0016106467
-0.0020301503
7.35553E-4
-6.246001E-4
-0.002294023
0.0016484851
0.001286591
3.470513E-4
0.0020579307
9.776166E-4
3.329263E-4
0.0019773722
0.003600257
0.0024740954
8.511319E-4
0.0016072753
4.3680953E-4
-0.0010386292
-6.8927236E-4
-3.87195E-4
0.0016779423
3.662233E-4
-0.0046200654
-0.0018982033
0.0029087334
-0.0016298208
-0.006104351
-0.003033185
4.3859014E-5
-6.3065306E-4
-0.0017446093
-6.985133E-4
7.575553E-4
1.1816794E-4
-6.5475237E-4
-1.4970168E-5
0.0011323966
0.0012092179
2.0095422E-4
6.218173E-4
0.0020693047
0.0030464518
0.0018259864
-4.0598903E-4
0.0018872303
0.0035722267
6.6259265E-4
1.5193992E-4
4.2213144E-4
-8.93926E-4
-0.0015475841
-0.0015167501
6.691185E-4
6.645075E-4
-0.0018820986
-0.001399338
-0.0021495032
-0.0033490101
-0.001534693
-0.0015133105
-0.0015004373
4.277163E-4
0.0010552543
6.5737317E-4
-4.3234963E-4
-0.0013042024
-0.0015293075
-0.0011734025
0.0014090786
0.0023921125
-3.10592E-4
-5.290895E-4
0.002461183
0.003020527
0.0014342405
0.0032140536
0.006258983
0.0036048272
-4.1839373E-4
0.0010696827
0.0040149805
0.00270195
-0.0024183851
-0.005656543
-0.0046975636
-0.0026863043
7.2798706E-5
3.9828804E-4
-0.002035545
-4.3112694E-4
-8.9887716E-4
-0.0059697805
-0.004424395
-4.4444896E-4
-2.4995417E-4
2.7612387E-4
-8.474058E-4
-0.002132826
-8.3009753E-4
-6.6512303E-6
7.6728105E-4
3.4803027E-4
2.3865595E-4
0.0030211825
0.002876996
0.001046381
0.0011871114
3.7901415E-4
7.008651E-4
0.0020199558
0.0020765571
0.0022971781
0.0014320747
4.6868594E-5
-5.7976105E-4
9.886501E-4
0.004976416
0.003470097
-0.003520193
-0.006057598
-0.0023052706
0.0019754157
0.0015408576
-0.0011747989
-0.0021704128
-0.0023340362
-0.0013525147
-6.5368623E-4
-7.2310225E-4
3.9277077E-4
0.0012010637
0.0015024745
5.2091066E-4
-0.0017921734
-0.0019299267
-0.0011688942
-6.7010557E-4
4.5906508E-4
3.9756935E-5
-0.001246761
-7.508311E-4
8.342721E-4
0.0017399582
0.0012754557
-8.815617E-5
3.271195E-4
0.002126417
3.286072E-4
-0.0017827078
8.9674846E-5
6.9417263E-4
4.8644644E-5
4.4160045E-4
2.6719132E-4
0.0012017504
0.0017380937
8.966066E-4
0.0013895602
3.1494812E-4
-0.0012611126
0.0011844273
0.0023871704
2.1942092E-4
4.485651E-5
-1.7279763E-4
-0.0025763097
-0.0029858875
-0.0016640183
-0.0014717896
-0.0027927225
-0.0035850187
-0.0022379276
-0.0023425932
-0.0030591125
-8.357884E-4
1.0769189E-4
1.2797733E-4
0.0012491752
-5.862479E-4
-0.0015214928
0.0015089185
0.003236139
0.0038773173
0.0031013503
2.5995458E-5
0.0013434949
0.005236027
0.0037554898
0.0016283939
0.0042259404
0.0070130257
0.0067690886
0.0040608975
-4.2706155E-4
-0.0053627356
-0.008396368
-0.0074078823
-0.004744611
-0.0048331423
-0.0062456266
-0.0045177303
-2.33645E-4
0.0011966282
-8.3745935E-4
-0.0010471328
-3.645185E-4
-0.0010609797
3.1758606E-4
0.0024401254
0.0024956404
0.0015596553
4.916377E-4
4.987198E-4
3.0680475E-4
5.906347E-4
0.0038387303
0.005378093
0.0039081275
0.003243003
0.0022305965
-2.3493775E-4
-0.0015167216
-1.7133221E-4
-1.2445818E-4
-0.0016013288
-0.001092844
-0.0025854898
-0.0038297868
-2.0179106E-4
-6.645944E-4
-0.006740201
-0.0074394373
-3.9871343E-4
0.004793578
0.003308953
0.002035816
0.0018523316
-6.2135555E-4
-0.0018322077
-5.3964026E-4
0.0017748246
0.0013352903
-0.0022366983
-0.0010445999
0.0020122
2.0125482E-4
-6.180813E-4
7.687754E-4
-7.923859E-4
-0.0026590766
-0.0011649278
9.655202E-4
0.0010820698
5.3817104E-4
9.618865E-4
0.0017410951
0.0027338127
0.0041799783
0.0043366114
0.0034321626
0.001630138
-0.0023270636
-0.0036160226
-0.0011190029
-0.0015703903
-0.0040350393
-0.0031611929
-5.817662E-4
-3.8412126E-4
-4.8714428E-4
7.6395104E-4
-2.7732018E-4
2.4912346E-4
0.00444672
0.005587941
0.004775116
0.0019410641
-0.0038660616
-0.004679435
-0.0026111968
-0.003148942
-0.0020946446
-9.01442E-4
-0.0019419069
-0.0014097951
2.6221448E-4
0.0011476707
0.0014394154
2.401255E-4
-0.0023598995
-0.004717953
-0.0042604944
-0.001595509
-0.0011898512
-0.0014758657
6.835361E-4
0.0022618687
0.001890204
0.0013326078
0.002142758
0.0020568802
-6.3399685E-4
3.710923E-4
0.0050924025
0.0070897643
0.0070712897
0.007786982
0.0105542485
0.010858815
0.0043647094
-0.0021317888
-0.0051667965
-0.007829831
-0.010431092
-0.011455397
-0.009409272
-0.0063647013
-0.0033766793
-2.904998E-4
8.6566724E-4
0.0012720934
3.8285519E-4
-0.0013492383
3.2072677E-4
0.001569226
-0.0011802647
-0.0042940243
-0.004922053
-0.0019741221
0.0010402871
0.0014204492
0.0025126694
0.0041485755
0.005150116
0.006971416
0.007927151
0.0069879233
0.00485191
0.0017132683
-1.4030917E-5
4.532409E-4
7.5205107E-4
-4.5529805E-4
-0.0027739322
-0.004831823
-0.0060074977
-0.0053395014
-0.0028737246
-0.002408916
-0.0040106596
-0.0037653465
-0.0020575249
-9.7471086E-4
-1.7417785E-4
4.141653E-4
-2.1085652E-4
-0.0014588977
-0.0014868022
2.6464508E-5
7.038311E-4
-2.168566E-4
2.7796964E-4
6.632069E-4
3.4316443E-4
0.0028769567
0.0029054708
9.158912E-4
0.0032598774
0.0034970508
0.0030233574
0.005721891
0.004578523
0.002954643
0.0033249168
0.0023997526
0.0036634395
0.004313469
-9.3035435E-4
-0.009126846
-0.012465905
-0.007035268
-0.0025984843
-0.004518374
-0.0036745283
0.0010995505
0.0027236745
0.0013202666
0.0012083214
0.00425563
0.006788337
0.003922405
-0.0011763705
-0.004855401
-0.006795781
-0.004213522
-0.0013194843
-0.002108713
-0.0012366981
3.1165982E-4
7.733939E-4
0.0025180338
0.0025973707
9.136414E-4
4.7784369E-4
0.0014246684
0.0018517951
4.8016E-4
-4.564064E-4
-0.0011206848
-9.500304E-4
8.426272E-4
6.2135386E-4
0.0011556302
0.0034952317
0.0038282927
0.003825241
0.0020165648
-0.0011190212
-0.0023505196
-0.002875516
-9.392111E-4
0.0013650799
0.0016753173
0.0019528243
-3.6328557E-4
-0.0034280221
-0.004977057
-0.005421231
-0.003215734
-0.002487462
-0.0025509142
-0.0024190084
-0.004152919
-4.7816522E-4
0.0020808207
-0.0029016864
-8.9722784E-4
0.005836697
0.008390378
0.011010171
0.010468501
0.006543801
0.0028721236
-0.0034414404
-0.0076175947
-0.0049846475
-0.0017454076
-0.0010980164
-5.4864056E-4
7.186959E-4
0.0028885002
0.0036880332
-2.5316456E-4
-0.0047868337
-0.0061559337
-0.005896812
-0.0036815503
-0.0012473229
4.2248153E-4
0.0024709073
0.0034606403
0.0038939693
0.0021340821
-9.749435E-4
-5.8902823E-4
-0.002060859
-0.005827082
-0.003907968
-6.8435725E-4
-6.990518E-4
2.904753E-4
0.0021142801
0.0017232039
7.6351454E-4
0.0014525286
0.0018899022
0.001291205
5.894373E-4
-4.253891E-4
-7.2923685E-5
0.001005287
-1.4550654E-4
-0.0014031004
-9.899862E-4
3.1978296E-4
0.003555291
0.00580675
0.0038274645
0.0018254514
0.0012674948
4.8595114E-4
0.0015379076
0.0024464899
8.126722E-5
-0.00241205
-0.0022056287
-0.001579092
-0.0025401148
-0.0021983827
-0.0012916933
-0.0022848926
-0.001754783
-7.8952045E-4
-0.0011539852
-7.437419E-4
-6.059312E-4
7.1593816E-4
0.0016180159
-3.7258695E-4
1.1978717E-4
7.9498487E-4
-0.0019739126
-0.0029615625
-0.0021913142
-0.0020160393
-0.002085673
-0.001909026
-7.025899E-4
-8.527231E-4
-0.002680382
-0.0031727636
-0.0020695366
8.3902664E-4
0.002932201
0.0015646877
0.001182344
0.0019823287
0.0020727983
0.00551394
0.008392051
0.0051904614
0.0010540764
-0.0020982597
-0.0036930246
0.0016292607
0.010429948
0.013415204
0.009608699
0.00323252
-0.0024062637
-0.0038200459
-0.0022402904
-0.003459486
-0.0067170006
-0.007464858
-0.0055346754
-0.0034378876
-0.0028071783
-0.0030142572
-0.004155444
-0.0048345854
-0.0037521564
-0.0036876479
-0.0028687697
-0.0011609936
-0.0019059994
-9.900423E-4
0.0011680841
0.0012179508
0.0013192769
4.5215664E-4
1.4284176E-4
0.002055583
0.002328863
0.0018454953
0.0032035708
0.00457195
0.004110567
0.0041572023
0.005554678
0.0056088804
0.0052776085
0.0027148428
-0.0027052881
-0.0053145806
-0.0053650616
-0.0030327635
3.0467502E-4
9.732976E-4
0.0016351064
6.123653E-4
5.5083475E-4
0.0047004474
0.003501252
-0.0012490244
-0.00448266
-0.008369072
-0.007945726
-0.003820865
-1.9492293E-4
0.0019173138
0.002084126
0.003209325
0.0017630041
-0.0015693726
-0.0011380465
-0.0019707945
-0.0031558853
-8.054672E-4
0.0012795305
0.0026007881
0.002755244
0.0016978561
9.780208E-5
-0.0022811207
-0.0023039358
-7.597115E-4
1.9074336E-4
-1.6993047E-4
-0.0036337876
-0.004777531
-0.0015268325
-1.7980133E-4
-2.8860936E-4
9.5592235E-4
0.0023013754
0.0020890157
5.694897E-4
4.4766153E-4
0.0012293903
8.612754E-4
0.0012658671
0.0032632048
0.004036369
0.0026173682
0.0010715966
4.191627E-4
6.846371E-4
0.0016226934
0.002500494
0.0024672085
1.0135959E-4
-5.9418444E-4
0.0031606753
0.0050391434
0.005081647
0.0027898483
-0.0031581845
-2.6072233E-4
0.0048186183
-0.0017387269
-0.0051010516
-0.0016040134
-0.0011244306
-0.0018794878
-0.0033460266
-0.0038594215
-0.0046542366
-0.007421526
-0.006980294
-0.0056060036
-0.0044988426
-0.003744462
-0.0057908087
-0.004377053
-9.317263E-4
-0.0015696763
-0.0024742696
-0.0020690928
-0.0022589762
-0.0037314903
-0.004362586
-0.0025945774
-6.746561E-4
0.0014368721
0.0026439724
0.004028981
0.009371993
0.013652472
0.014794769
0.016154967
0.01577295
0.015413163
0.015162913
0.00824351
-2.3965325E-5
-0.0013150132
-0.0022117149
-0.005376537
-0.0057067727
-0.004029443
-0.00220415
-0.001200932
0.001478078
0.007520373
0.008735924
0.0015648601
-0.00812289
-0.01482052
-0.018477648
-0.019434454
-0.014114923
-0.011988127
-0.015668724
-0.010635722
-0.0054510077
-0.0047069285
0.0019811718
0.004103161
0.0019638105
0.0033878132
0.0012678986
-6.296878E-4
-5.335349E-4
-0.003104265
-0.0032550632
9.6439495E-4
0.005593302
0.0086743245
0.01259313
0.015678296
0.015009874
0.014867114
0.011538999
0.0024765253
-0.0043844865
-0.0061474633
-0.001987545
0.004008231
0.0062416648
0.0059980284
0.0022748192
-0.0020525726
-0.00465251
-0.0083674295
-0.009562093
-0.0072995243
-0.0035792475
-4.639848E-4
-0.0020179313
-0.0044227815
-0.0049747694
-0.0054430435
-0.0043352577
-0.0014181937
0.0017162948
0.0027859744
0.0028952032
0.0032181176
0.0027276867
0.0043010204
0.005162152
0.0030805888
0.0029817796
0.004141375
0.0062552397
0.009105172
0.01042287
0.012168623
0.013179224
0.010161228
0.0025894402
-0.0030245178
-0.0021587776
-0.003378939
-0.005919348
-0.0064972364
-0.011964552
-0.017355936
-0.02026779
-0.023552623
-0.022549916
-0.021766355
-0.021608438
-0.016643321
-0.014119696
-0.013009022
-0.004798082
0.004881098
0.010487389
0.015786346
0.019370222
0.01798763
0.016338369
0.012838094
0.0036741486
2.0613875E-4
0.0059054126
0.012167111
0.02358396
0.035344653
0.029751338
0.01805117
0.017164698
0.018517006
0.016736548
0.007156701
-0.01592536
-0.03284692
-0.032168563
-0.030450396
-0.03140161
-0.026481617
-0.016293228
-0.008343002
-0.0077508134
-0.0075331465
-0.004833757
-0.0010513322
0.011420739
0.0221423
0.017632715
0.009351008
0.0035775858
0.0049393685
0.017534235
0.023725044
0.014369504
-0.0033467172
-0.01907122
-0.020657016
-0.018585175
-0.022368452
-0.015658684
-7.6488487E-4
0.005709998
0.0045142886
-0.002160691
-0.008295359
-0.005993985
-0.0048693046
-0.0074433647
-0.0030074436
0.0038957316
0.0053168735
0.0033214563
3.489672E-4
-0.002983279
-0.006603263
-0.005395316
0.0014317536
0.006510415
0.011642084
0.018240424
0.021731613
0.02281733
0.025193686
0.029070085
0.025016114
0.015531511
0.011957046
0.0050368095
-0.004015511
-0.0084265815
-0.020992715
-0.032378443
-0.027242277
-0.016686486
-0.005779261
0.0056894496
0.007016399
-0.0021207551
-0.009211983
-0.019496415
-0.04011188
-0.052526522
-0.04992124
-0.03791566
-0.012250616
0.014998072
0.03566161
0.057528634
0.06442539
0.045849174
0.028744748
0.028665328
0.028839545
0.014868752
-0.0073516974
-0.020712148
-0.016171385
-0.0045818323
5.305903E-4
-4.14268E-4
-9.422967E-4
-9.115498E-4
-0.00823755
-0.022644361
-0.038698293
-0.064071745
-0.09015524
-0.08835242
-0.063868
-0.040146723
-0.01374997
0.016863912
0.035932373
0.04271332
0.049755618
0.060814787
0.071909875
0.07800274
0.081365705
0.08751528
0.086174615
0.073621035
0.063019924
0.040759563
-0.006548831
-0.06063563
-0.112608835
-0.13999769
-0.116112754
-0.071591996
-0.042934574
-0.03394213
-0.03288365
-0.026310949
-0.020123266
-0.0087194415
0.014577297
0.029570278
0.03172936
0.032027308
0.042002752
0.054198664
0.04916022
0.044031017
0.048027348
0.052550327
0.055319786
0.04085939
0.01788967
-0.0033706375
-0.023247993
-0.02653446
-0.04025066
-0.08068813
-0.1070622
-0.10471687
-0.08842056
-0.0689122
-0.04623804
-0.021769391
0.002743118
0.035505448
0.057742003
0.05493669
0.052692685
0.0758666
0.1142923
0.12066762
0.09532089
0.08120157
0.072671734
0.05342514
0.024997655
0.0020081832
-0.020763762
-0.07655319
-0.14918049
-0.22081232
-0.26800433
-0.24097137
-0.18211648
-0.13459237
-0.07932483
-0.026063919
0.024226697
0.07105337
0.11389751
0.16144174
0.2019577
0.24752593
0.27164787
0.23497684
0.1864
0.14185211
0.068949685
-0.020550264
-0.070812345
-0.048273597
-0.016098823
0.0068013025
0.051225103
0.039022528
-0.03842924
-0.10168052
-0.16127229
-0.21272694
-0.25599095
-0.31278068
-0.30166742
-0.2058008
-0.11431875
-0.06068942
-0.050559565
-0.027032718
0.054987695
0.11296225
0.13975826
0.170948
0.17317353
0.20454419
0.28864756
0.33027586
0.29103443
0.16011633
-0.01152876
-0.10819161
-0.1423053
-0.17015168
-0.17296481
-0.15874721
-0.13937274
-0.088899985
-0.023683125
0.0228708
0.050426517
0.053967528
0.05047075
0.05394367
0.022638937
-0.033825286
-0.06642991
-0.07983907
-0.07037557
-0.024654202
0.040760476
0.09051322
0.100093074
0.09436719
0.074880324
0.029640423
0.015127303
0.0353986
0.02796408
0.010440705
0.025041677
0.030726004
-0.024281735
-0.11758619
-0.19909345
-0.23261489
-0.1980033
-0.12750444
-0.06659572
-0.0121257445
0.03782913
0.060611065
0.06385831
0.0703971
0.06862155
0.055561494
0.049440295
0.04569549
0.042698663
0.046167232
0.048039053
0.04339788
0.033223856
0.03069371
0.05497351
0.09874181
0.11431312
0.077466
0.030102434
-0.020042093
-0.07627324
-0.088615455
-0.06854959
-0.043455876
-0.006085126
0.0015167232
-0.0185571
-0.027626775
-0.04739325
-0.07639203
-0.08952834
-0.08575007
-0.06757546
-0.047365155
-0.03345083
-0.019540586
-0.0041075973
0.003369732
0.009762955
0.028260699
0.039354403
0.040597588
0.04836307
0.05152931
0.0479118
0.039143205
0.02132016
0.005919956
0.0012177768
0.005956627
0.01025016
0.016481452
0.032823388
0.04430828
0.045169003
0.037739366
0.028525544
0.025474874
0.010722716
-0.010059332
-0.019533454
-0.025658544
-0.02630078
-0.029669804
-0.03564896
-0.028009586
-0.02166443
-0.021366434
-0.019536939
-0.019474518
-0.017291313
-0.01776557
-0.021779237
-0.02333408
-0.023008006
-0.018704064
-0.015994983
-0.012737717
-0.003271202
0.0039176727
0.010501618
0.015994996
0.01649929
0.018930158
0.019731484
0.01732532
0.018313978
0.01743066
0.01144759
0.007667692
0.0065315343
0.0022810372
-8.5113116E-4
0.0023077407
0.0062076068
0.005713938
0.0035046926
0.0059509305
0.009783529
0.0075713596
0.005201368
0.006957438
0.007005076
0.0031179122
-0.0010519589
-0.0029800162
-0.0043802336
-0.0052225995
-0.0057591847
-0.0070327274
-0.0080277985
-0.011274096
-0.012511816
-0.008203742
-0.0071486644
-0.00856517
-0.007883835
-0.0059141987
-0.00212086
-0.0023971547
-0.0057571093
-0.0037721638
6.5043644E-4
0.0021734347
-1.9468898E-4
-0.003185761
-0.0030155547
-0.0014824829
4.6568413E-4
8.901281E-4
-8.279856E-4
-1.4499294E-4
0.0020961238
0.0052177836
0.009148482
0.008102739
0.004594846
0.0035406975
0.0018270878
7.195891E-4
0.0027744172
0.005523026
0.0063060443
0.0040898267
0.0021207104
0.0021352496
0.0018353662
9.4766554E-4
-8.098285E-4
-0.0024002816
-0.0018240402
-9.409276E-4
-0.0011388685
-8.8609644E-4
3.6162944E-4
3.7702502E-4
-4.1019925E-4
8.0525933E-4
0.0012694476
-8.279553E-4
-0.0027588035
-0.0034264827
-0.0024711748
-0.0010605934
-3.7306553E-4
-0.0015480762
-0.0049751955
-0.0058477875
-0.0041017197
-0.0030286347
-0.0015100152
-0.0016963792
-0.0021310437
2.385318E-4
-7.290511E-4
-0.003606976
-0.0013982403
0.0011383111
7.1971567E-4
0.0013658202
0.0021311152
0.0014080143
0.0014408331
0.0022979495
0.0026813056
0.0033296233
0.0062284525
0.009848752
0.010150833
0.008336446
0.006808747
0.005569728
0.0038309197
5.2908435E-4
-9.870855E-4
-9.813068E-4
-0.0036054342
-0.005236669
-0.0046511623
-0.0049057137
-0.005323515
-0.0051018065
-0.0036684622
-0.0026962673
-0.0037166842
-0.0048710327
-0.0047863903
-0.0040999167
-0.006250214
-0.0077073993
-0.0032857503
-6.107406E-4
-6.88222E-4
0.0013681974
3.5402703E-4
-0.0018565701
0.0011969036
0.0040781735
5.0537015E-4
-0.0026568323
0.0018711442
0.004895688
0.0028215556
0.00423087
0.006127368
0.005059604
0.0032490867
3.267992E-4
5.5764573E-5
0.0026441198
0.0029953886
8.8435545E-4
1.2322096E-4
0.0010798163
-6.492533E-4
-0.0020452293
-1.7440131E-4
3.3250585E-4
7.0015335E-4
0.0012028252
4.3382592E-4
5.400465E-4
-1.0591075E-5
-0.0012470338
-0.0022283187
-0.0019428697
-4.9310713E-4
-0.002012805
-0.00361099
-0.002750683
-0.0016670898
-3.0079595E-4
5.8773026E-4
0.0029672815
0.0026144409
-0.002895196
-0.0030777648
-1.2109428E-4
-2.2593616E-4
-3.4231026E-4
2.3771639E-4
9.63582E-4
-6.386407E-4
-0.0012142296
-1.690153E-4
-0.0013461235
-1.0388486E-4
-0.0031821895
-0.007907094
-0.0019803266
0.0010536222
-5.578152E-5
0.0015924018
-1.8316461E-4
3.5457176E-4
0.0016497449
2.8661158E-4
0.0012923002
2.0798466E-4
-0.0011246621
-2.4222453E-4
-1.2225627E-4
3.5485413E-4
-1.1314088E-6
0.001056147
0.0026153661
7.465045E-4
-2.6860414E-4
-1.0419773E-4
-0.0013758569
-0.0016668236
6.7959767E-4
0.0015854415
-3.2864968E-4
4.097742E-5
4.432735E-4
1.8130132E-4
0.0020955084
9.3929947E-4
-7.6867157E-4
0.0010284036
0.0020975303
0.002044103
5.915776E-4
-7.5864553E-4
1.04185994E-4
2.2078738E-4
-1.921423E-4
3.9846933E-4
4.2239958E-4
-3.80332E-4
2.039771E-4
3.6663818E-4
-0.001499514
-0.0019825094
-0.0031128672
-0.0025783498
0.0012994537
-0.0017704832
-0.0053323396
-0.0016163181
1.8999245E-4
8.211521E-4
6.480842E-4
-0.002057109
-0.002312283
-0.0010951691
0.0012466501
0.0029768427
0.002183877
0.00162366
-3.858539E-4
-6.773891E-4
0.0015013416
3.8996196E-4
1.3614984E-4
0.0018075338
0.0027980031
0.0037476711
0.0014637233
-2.251984E-4
0.0021018179
0.0022019472
3.8230867E-4
-5.738707E-4
-0.0017778383
-0.0014386849
-1.677132E-4
-4.2971357E-4
-8.683661E-4
-0.0014570646
-0.001613739
1.7066931E-4
8.738303E-4
-9.2862625E-5
-3.8970396E-4
-5.5216027E-5
1.8959623E-4
-8.769774E-4
-0.0011771589
4.261053E-4
8.1282516E-4
7.777867E-4
6.0343137E-4
-2.5832932E-4
-8.843063E-4
-0.0021999832
-0.002032517
-4.7636734E-4
4.346511E-5
3.660816E-4
-1.0839705E-4
-2.5458774E-4
-4.538006E-4
-6.53304E-4
0.001285807
-3.219713E-4
-0.0026321854
3.297226E-4
7.91196E-4
-7.2258705E-4
-3.6490994E-4
5.6265115E-5
0.0018450093
0.0017414598
4.126195E-4
4.6803104E-4
-6.966404E-4
3.092918E-4
0.0015627325
2.948979E-4
0.0015065554
0.0017841477
-3.2244343E-4
1.1649254E-4
0.0015210806
5.495652E-4
-0.0017150878
-0.0019029817
-0.0013986808
-5.874851E-4
0.0018300653
0.0013395518
-4.448598E-4
1.13345064E-4
0.0011597546
0.0010425124
-0.0020600813
-0.002741896
-6.357027E-4
-0.0018164889
-5.9336296E-4
0.0020590737
6.1886106E-4
-0.0012562532
-0.0016592661
1.7347257E-4
0.0012085084
5.006361E-4
-9.4034616E-4
-0.0038677347
-7.298051E-4
0.002067566
-0.0032749
-0.0028462152
0.0016662945
0.0012526617
9.888018E-5
-3.0567524E-5
0.0018836964
0.0032935273
0.0027495557
0.0023141303
0.0015619714
0.0016933919
-3.4207996E-4
-0.0022789382
-5.6306843E-4
-0.0013873713
-0.0012308832
8.319618E-4
7.0640085E-6
0.0010303342
0.0018566061
4.0966953E-4
2.4051331E-5
-5.6030875E-4
-8.0785784E-4
-0.0012371822
-0.001975436
-0.0010886937
-4.6043406E-4
-0.0020822608
-0.004112031
-0.0017039407
0.0018197084
0.0013871427
0.0020374404
0.002532684
5.428304E-4
4.0674763E-4
-3.4549463E-4
-0.0023914438
-0.0016113559
0.0013127077
0.0027849686
0.0015807762
8.5211045E-4
4.259095E-4
-9.356703E-4
-9.382504E-4
-9.4691094E-4
-9.512937E-4
1.2251301E-5
-5.8571453E-4
-0.0014775646
-0.0010773445
-2.412095E-5
0.0010153659
0.0011752368
0.0020348474
0.002253319
7.843453E-5
-0.0010358358
-5.8354647E-4
1.3610939E-4
7.3454494E-4
-1.5474498E-4
-9.6858054E-4
-4.1609083E-4
9.1204693E-4
0.0026579867
0.0028541745
0.0011035078
-0.0010928316
-0.0029977884
-0.0027023111
-1.3723178E-4
4.4012675E-4
-9.1588934E-4
-6.9064763E-4
-3.1062952E-4
0.0013891407
0.002176874
-0.004770644
-0.006970445
0.0023415356
0.0052591735
9.565998E-5
-0.0014738018
1.4384465E-4
3.668358E-5
-0.001222696
0.0019628124
0.0041066296
2.7079383E-4
-7.8120927E-4
5.7040357E-5
-3.4932242E-4
4.044104E-4
1.2633485E-4
-3.4634114E-4
-3.3674584E-4
7.090638E-5
4.1332698E-4
-5.862798E-4
3.3871003E-4
6.099483E-4
-0.0011474132
-0.0016044161
-0.0023533525
-8.425045E-4
8.123039E-4
-0.0011026588
-5.528924E-4
0.0010174343
3.4050245E-4
5.5116264E-4
0.001584377
9.6998754E-4
-1.3919038E-4
0.0019423667
0.0023988856
-2.3797167E-5
5.449674E-4
-2.485141E-4
-9.296492E-4
0.001333406
-0.001006037
-0.0034202582
-4.9000775E-4
0.0011676508
-3.4843222E-4
-7.3591815E-5
0.0017557595
2.529038E-4
-6.206923E-4
9.369386E-6
-0.0022171654
-0.0019562596
-4.796733E-4
-2.8768746E-4
0.001963597
0.0017171282
2.3287856E-4
-4.1199097E-4
-0.0021079297
-6.441915E-4
5.2388286E-4
-2.7671625E-4
5.030907E-4
-7.021548E-4
-2.8178346E-4
0.0028923817
0.001992579
2.3632185E-4
9.0124515E-5
-2.6362046E-4
2.893412E-4
6.415997E-5
-0.0021180918
-0.003881592
-0.0024805148
7.018026E-4
0.0014656646
9.0738526E-4
9.051152E-4
0.0011701481
0.0013286076
-3.6991475E-4
-0.0013337039
-6.029839E-4
-8.8798127E-4
1.767807E-4
8.274797E-4
-4.450488E-4
-3.8042053E-4
-6.906044E-4
5.3010724E-4
0.0021822588
-3.1772067E-4
-2.9853216E-4
0.0021278798
0.0016743582
0.0011160319
-1.4565271E-4
-0.0012489654
-3.3004208E-6
9.274082E-4
0.0013566966
0.0016315556
4.8792348E-4
-0.0020097515
-0.0030513983
-0.0011308771
4.5435238E-4
3.811746E-4
-1.5521974E-4
1.6022957E-4
7.9274195E-4
-5.133679E-4
-7.8583317E-4
4.5812607E-4
-2.589438E-4
-0.0014037146
-0.0017461446
-5.2888785E-4
7.3084544E-4
2.3619019E-4
0.0017618624
0.0012603073
-0.0036694612
-0.0037081502
-3.7225857E-4
3.3897784E-4
8.178812E-4
6.0943794E-4
2.130758E-4
0.0012408237
9.214059E-4
-2.2084102E-4
-6.138877E-4
-5.787005E-4
-1.6092577E-4
-4.076126E-4
2.385001E-5
8.554569E-4
3.5171342E-4
8.224684E-4
0.001264969
0.0014687502
0.0020616157
-3.5064172E-6
-1.0638511E-4
0.0024134412
0.0018209048
0.0010797981
-1.2508112E-5
-8.0078805E-4
0.0013311548
2.8616615E-4
-9.766927E-4
9.248168E-4
-7.775364E-4
-0.0026025185
-8.235434E-4
-8.6985517E-4
-0.002506127
-0.0021291429
-0.0014514322
-0.001411262
6.767607E-4
0.0015360157
2.398529E-4
0.0014318273
-3.9169798E-5
-0.0029436515
-6.540826E-5
4.3863768E-4
-0.0019810586
-1.6857235E-4
2.2834374E-4
-0.0010025215
-1.0540558E-4
5.116395E-4
0.0014220381
0.0012884894
6.689931E-4
0.0023926497
0.0016257466
-0.0010284467
-8.827591E-4
3.230548E-5
7.200159E-4
6.9031166E-4
-4.3418194E-4
-0.0014127353
-0.0012412576
5.219228E-4
9.48174E-4
6.5401226E-4
0.0015324069
0.0014505327
0.0023627507
0.0025216995
-2.2887488E-4
-0.0010875742
-0.0013998644
-0.0015563823
-9.957929E-4
-0.0028764005
-0.0020489043
0.0012548817
0.0010868856
8.6654274E-4
0.0010369972
-3.6150147E-4
-0.0012586073
-0.001713146
-0.001896075
-9.649057E-4
7.206946E-4
0.0022138422
0.0024359426
5.3604407E-4
-0.0011176708
1.5140456E-4
4.1483654E-4
-9.392695E-4
8.8470086E-5
7.646375E-5
-0.0016080976
-0.0011906117
-5.549329E-4
2.1400356E-4
0.001062477
1.1608604E-4
4.4926774E-4
0.00129952
-5.519823E-4
-0.0014855218
-2.0798734E-4
7.2195625E-4
3.744145E-4
-9.5643033E-4
2.7654608E-4
0.0024095012
6.351703E-4
-4.3798288E-4
4.555768E-5
-8.320247E-4
-1.3482095E-4
4.2501182E-4
5.1505526E-4
0.0021049716
0.0024313068
0.0020173148
2.4456755E-4
-0.0016911518
-1.9569776E-4
-3.3056652E-4
-0.0023700292
-0.001939309
-5.563404E-4
9.763025E-4
0.0010690633
-1.3874717E-4
-9.188848E-4
-0.0019060817
-0.0013495157
-2.2444803E-4
-4.4050402E-4
-7.1172026E-4
-5.9280806E-4
0.0011491164
0.001953832
-7.2289613E-4
-0.0023196547
-3.3916708E-4
0.0023528463
0.001662742
-5.617058E-4
6.2998064E-5
9.48238E-5
-0.0011860181
-8.151888E-5
0.0017232382
0.0021702137
0.0011390323
1.2357536E-4
4.308294E-4
2.2114241E-4
-5.859219E-4
-5.1656476E-4
-2.5017245E-4
-6.7044905E-4
-6.3382054E-4
7.50298E-5
-6.2301743E-4
-0.001095151
4.4101194E-4
7.4354827E-4
-5.2094716E-4
-7.804512E-4
-1.3381634E-4
4.062954E-4
4.7046025E-4
1.9220322E-4
-1.3332735E-4
-5.254156E-5
-4.8684957E-5
-8.0147857E-4
-8.2946284E-4
1.8866101E-4
6.2716444E-4
7.277517E-4
4.4886724E-4
-0.0014091425
-0.002296842
2.6384622E-4
0.0026868184
0.0021984677
5.4756383E-4
-2.0356993E-4
-8.334137E-4
-0.002571884
-0.0014170454
0.001596468
5.248756E-4
-5.8877486E-4
5.2203884E-4
4.5053745E-4
2.9492442E-4
0.0011568737
0.0026298282
0.0010730185
-0.0028854972
-0.0029656242
-0.0014450438
-7.799451E-5
7.68172E-4
-8.3307904E-4
3.7525842E-4
0.0013751134
-9.264686E-4
4.649033E-4
0.0013324351
-5.910907E-4
5.984728E-4
0.0019027404
-5.77075E-5
-0.0032559896
-0.003445409
-7.4569334E-4
4.0167215E-4
0.0016626989
0.0029872754
0.0026474732
0.002938772
0.0015303632
-0.0012851905
-0.0016234103
-6.043857E-4
-1.4721221E-5
-0.0014260131
-0.0018725239
6.5153645E-4
7.259087E-4
4.8242274E-4
0.0012123977
-0.0015645722
-0.002284444
-7.949094E-5
-3.552532E-4
-3.961969E-4
1.5289912E-5
-2.3277533E-4
-1.3017307E-4
-4.9018994E-4
-5.4517826E-5
-3.4033787E-5
-8.8905724E-4
2.9923773E-4
0.001600109
0.0016296514
5.8995385E-4
-0.0014330848
-0.002684785
-0.002770992
-4.965853E-4
0.0015089175
0.0010535035
0.0024882387
0.002406412
-3.9515385E-4
6.569418E-4
0.0014627832
1.795024E-4
0.0011055665
4.0477127E-4
-0.0013755138
8.5845466E-5
6.280836E-4
-1.3849525E-4
0.0014250142
6.9168664E-4
-0.0026657535
-0.002054808
-1.15615956E-4
3.2597384E-4
0.0013444687
6.255804E-4
-8.3426625E-4
-2.6363158E-4
4.1912554E-5
-8.971959E-5
-2.9917192E-4
-0.001354059
-0.0011257962
-4.9794134E-4
-0.0013774836
-1.51631E-4
6.848272E-4
-0.0021258062
-7.8962103E-4
0.0018588848
3.098786E-4
0.002266617
0.0029618337
-7.3967845E-4
2.164969E-4
0.0013662613
-5.198617E-4
-0.0029793382
-0.0036290016
0.0011775625
1.1621366E-4
-0.0059218323
-0.0015466035
0.004028949
0.0037645805
0.003387937
8.552689E-4
-4.3870584E-4
0.0014144657
0.0010256812
-1.10132976E-4
8.105277E-4
0.001399948
-3.5981022E-4
-0.0017337413
-0.0010765888
3.703587E-4
0.0018332768
3.793416E-4
-0.0018104662
-7.821381E-4
-4.9917324E-4