-0.0016230098
9.65036E-4
0.0020953813
0.002619444
0.0011129637
-0.0013265974
-0.0015635795
-9.3174446E-4
-0.001313853
-8.159691E-4
2.9750523E-4
7.7810936E-4
0.0017194754
0.0013444377
7.3855574E-4
0.0012461172
-0.0011355446
-0.0027425804
-0.0010011921
-0.0010398759
-0.0014982773
-6.2833505E-4
7.098407E-4
0.0014473067
-6.618401E-4
-0.0012862049
1.8324752E-4
-0.0012116896
-9.300198E-4
0.0023649873
0.002599238
0.0014857108
0.001987024
0.0016279905
-6.579339E-4
-0.0027377736
-0.0026504037
-0.0011544836
9.446006E-4
0.002265678
8.4824744E-4
6.944895E-4
0.0031849619
0.0039102356
0.002794958
-6.458454E-4
-0.0035212226
-0.0015234117
9.825045E-5
5.968096E-4
-3.3662105E-5
-0.003121369
-0.0014642195
8.7573506E-5
-0.0030904412
-0.002152291
-3.0708412E-4
-6.000392E-4
6.183675E-4
2.173926E-4
-0.0013134818
-0.0012203065
3.498135E-4
0.0011357871
-5.226964E-4
-0.0010163463
1.0770214E-4
4.526687E-4
-5.589946E-4
-0.0017391617
-1.6419387E-4
0.0017202924
0.0018525878
0.0015439674
7.0862396E-4
0.002324898
0.0042410446
0.00163607
2.410209E-4
0.002256479
0.0012546256
-0.0016902259
-0.0019323596
-0.0013118404
-5.247813E-4
1.6342924E-4
-0.0011213991
-8.384368E-4
3.444851E-4
-4.4091672E-4
5.106626E-4
0.0010704257
-7.540036E-4
-0.0018195135
-0.002061164
3.1409316E-5
0.002448124
0.0013924115
-9.244599E-4
-0.0023548843
-0.0013045245
-2.1784048E-4
-0.0012587943
-5.950938E-5
0.0011446793
-5.7860714E-4
-9.987234E-4
-1.3378407E-4
4.183469E-4
7.5944484E-4
6.2734605E-4
0.0011716397
0.0010892188
-0.0014231852
-0.003172775
-0.0012738056
0.0012574716
0.0013286808
6.0813094E-4
8.164557E-5
1.3589136E-4
0.0010126162
6.718792E-4
4.2838513E-4
6.649923E-4
-3.534869E-4
4.650849E-4
0.0013265754
-0.0013278485
-0.0020809527
5.080022E-4
0.0016667377
0.001043985
0.0010777254
0.0010831628
-0.0010445525
-0.0012996539
0.0014146946
4.0231703E-4
-0.0020643268
-8.646813E-4
8.542579E-4
9.087211E-4
-3.0726963E-4
-4.6052493E-4
6.0136424E-4
-1.5136505E-4
-5.3649704E-4
-5.777448E-4
-0.0011898753
0.0011829808
0.0016800498
-0.0019599828
-0.0018096451
-1.3174938E-5
-0.0013743533
-0.0014710331
-2.4924672E-4
-5.638725E-5
0.001196238
0.0018009105
4.1023726E-4
5.252194E-4
0.0021295904
0.0024173176
-1.6992082E-4
-0.002666522
-6.8457925E-4
0.0014132876
1.7993775E-4
-6.8702723E-4
-1.7230009E-4
7.793574E-4
1.7461609E-4
-0.001392218
-0.0011437648
-0.0016447819
-0.0015748595
0.0012660421
0.0019022672
5.5023935E-4
-5.4457044E-4
-0.0020294704
-0.0022014815
-0.0016361247
-6.6829444E-4
0.0013273756
0.001464223
1.7462664E-4
1.8326129E-4
0.0016571067
0.0032726033
0.0017935566
-4.6770056E-4
3.570774E-4
-4.3556112E-4
-0.0016656007
6.3862646E-4
0.0014353441
0.0017192729
0.0032047033
0.0017254141
-6.9955335E-4
-0.0020184685
-0.0017179177
-1.839223E-4
-6.7392195E-4
-0.0014236893
-0.0016429491
-0.0017860739
-4.0426222E-4
-1.7716728E-5
-3.3844393E-4
-6.616478E-4
-7.6797866E-4
0.0013779651
0.0010930094
-5.363781E-4
8.559546E-4
-1.7550013E-4
-0.0018294303
-1.1582833E-4
9.664858E-6
-0.0014374325
-0.0013581408
-3.5022782E-5
0.0018786448
0.0029352552
0.0015109517
-7.3994155E-4
-0.0010965366
-8.013991E-4
6.8161906E-5
0.001956972
0.0014136658
-2.5801896E-4
-4.4520723E-4
-0.0011914076
-0.0015761326
-2.8985436E-4
0.0012127112
0.0013335536
-8.3877845E-4
-0.001975557
-1.0602376E-4
0.0015510278
0.0017611859
6.212039E-4
-8.254582E-4
2.0370979E-4
0.002117233
0.0019719414
3.8535052E-4
-8.409414E-4
2.1605306E-4
0.0017173401
7.9527404E-4
5.6350906E-4
0.0015555819
5.8798183E-4
-6.0852873E-4
-0.0014165003
-0.0019675377
-6.371219E-4
-9.441599E-4
-0.002096959
1.7534428E-4
0.0010320538
-0.001218982
-0.0028695788
-0.0031277996
-0.0017864216
-0.0014747742
-0.0022239788
-0.0015871277
-3.8831503E-4
0.0012624483
3.4157827E-4
-0.0023765636
-0.0019591267
-5.786961E-4
0.0022814246
0.0055674007
0.005182518
0.0045058155
0.0032959105
0.0013737818
6.1448565E-4
-9.821948E-4
-6.2112877E-4
6.894506E-4
-3.6559498E-4
-2.5808857E-5
0.0011868471
7.5753353E-4
6.910234E-5
6.8608974E-4
0.0015983757
-1.0084246E-4
-0.0028669203
-0.003507831
-0.0018004613
-3.3662852E-4
-0.0013560167
-0.0018597515
-0.0010606399
-8.9008454E-4
-6.362799E-4
-4.6541606E-4
-2.5312768E-4
-1.5980222E-4
3.3039926E-4
0.0018431474
0.0013387895
-3.815603E-4
-7.0535694E-4
-4.0973508E-4
2.481163E-4
6.9941394E-4
9.278741E-4
3.0844987E-4
-0.0010381225
-0.0012505429
-0.0012709015
6.7089056E-4
0.0034075147
0.0013939483
-4.5841353E-4
1.466411E-4
-0.0011052487
-6.720676E-4
7.987191E-4
-1.4948075E-4
-8.714786E-5
4.2180254E-4
5.0901406E-4
0.0019041488
0.0022772462
0.0012217595
1.1952886E-4
-8.9996663E-4
-0.0010819576
-3.7438155E-4
0.0010285496
0.0011452585
-4.716663E-4
-0.0011278036
-0.0016030269
-0.0024943342
-0.0028217738
-0.0019267987
8.674052E-4
0.0017486472
4.934283E-4
-4.8113445E-5
-0.0015717001
-7.8528066E-4
0.0020969482
5.6502933E-5
-0.0031964802
-0.0018041763
6.549848E-4
7.760268E-4
0.0016051978
0.0030134604
0.0010698786
1.4318993E-4
0.0011521383
2.3609959E-4
8.982218E-4
0.001369243
-2.7158167E-4
1.0644306E-4
9.722581E-4
0.0012862423
0.001212419
4.8750054E-4
4.9963433E-5
-0.0017701475
-0.002398302
-6.100777E-4
-4.106289E-4
-3.7282275E-4
-1.2242013E-4
-0.00154634
-0.0029016961
-0.0025802692
-4.5754365E-4
7.2100677E-4
-1.0441172E-4
1.5428591E-4
0.0011530196
5.766372E-4
-8.0224336E-4
-5.7142775E-4
8.3474256E-4
0.0010324105
8.511797E-4
6.6117226E-4
1.8792822E-4
0.0013288686
0.002616008
0.0012923597
-6.0065265E-4
1.4906253E-4
0.001661313
9.1237994E-4
8.832599E-5
3.0232538E-4
2.9754578E-4
-4.741323E-4
-0.0034385466
-0.005030156
-0.0022466616
2.2471767E-4
0.0012485685
0.0016419707
-7.245317E-5
-0.001303442
-8.594304E-4
-8.2847534E-4
-2.3915904E-4
0.001339227
0.0021011028
0.0018914415
4.00736E-4
-0.0015501326
-9.395016E-4
6.667452E-4
7.702233E-4
0.0012962612
0.0020122302
0.0014009784
5.846041E-4
-2.3936083E-5
-5.818168E-4
-1.3307795E-4
7.6314074E-4
5.6867825E-4
-7.3352276E-4
-0.0024082023
-0.0016363276
5.6740595E-4
-4.1277235E-4
-7.688072E-4
-1.971705E-4
-0.001660553
-2.5191353E-4
1.2127083E-5
-0.0018286658
3.1749303E-5
-3.1809436E-4
2.3483886E-5
0.0031451704
0.0010859035
-5.94349E-4
-2.5201507E-4
-5.999779E-4
4.173372E-4
-5.1118893E-4
6.0113085E-5
0.0018722102
8.7003683E-4
0.0018026412
4.9587444E-4
-0.0025057797
-1.0144002E-4
0.001682856
1.7703889E-4
-0.0018741931
-0.0024159397
-3.734958E-4
5.13965E-4
0.0016018572
0.0028682735
9.104938E-4
-0.0011354005
-0.0022159114
-0.0014740144
-1.4672402E-4
-0.0021471826
-0.0020593433
3.7039028E-4
7.526382E-4
0.0024022073
0.003451416
0.0021122172
3.6178494E-4
-0.0014105651
3.6927013E-4
0.0019218986
-6.9969794E-4
-8.8058057E-4
6.759079E-4
1.983347E-5
-0.001002917
-0.0011251001
-4.6935794E-4
-0.0015426973
-0.0021529724
2.8086087E-4
6.49875E-4
-2.5001058E-4
-3.921867E-4
-0.0017409293
-0.0016016918
-8.515086E-4
-0.0015964527
-0.0013470482
-7.2526117E-4
-0.0016331342
-0.0020032069
0.001231904
0.0042185993
0.0034743918
0.0026980254
0.0017795078
0.0020377864
0.0042122756
0.0024176629
6.857136E-4
0.0022762087
0.0011168869
-0.0014498036
-0.002826559
-0.003038995
-6.489284E-4
0.0011283405
-9.670116E-6
-2.5126035E-4
4.5583255E-4
-0.0012678894
-0.0018468397
1.0459863E-4
4.0334828E-5
4.6377172E-4
0.0017163331
6.6380785E-4
4.81855E-4
4.6830619E-4
-3.1432117E-4
1.2562606E-4
-8.6626306E-4
-0.003279119
-0.0045999857
-0.0044731046
-0.0028939096
-6.13183E-4
2.90324E-4
-0.0014731545
-0.0017466608
9.2470605E-4
0.0023947337
0.0018805123
-0.0015636793
-0.004362762
-0.0015539284
4.7840114E-4
-6.928992E-4
-9.519392E-4
-9.2791236E-4
4.023714E-4
0.004905723
0.008479262
0.006757718
0.0056496942
0.009372742
0.010332705
0.00740764
0.0042733345
0.0014185285
-8.5163694E-5
-0.002950469
-0.0043201945
-0.0021516604
-0.0045583043
-0.007864308
-0.005823171
-0.004314341
-0.0046178172
-0.004506797
-0.0047635986
-0.0051071583
-0.0052683
-0.005363572
-0.005117229
-0.0043078754
-0.0025138627
-2.3284625E-5
6.6747837E-4
-3.6425906E-4
5.165714E-4
0.0017240595
0.0019060083
0.0044488437
0.0062194476
0.0043632896
0.0043275007
0.0062183803
0.00536606
0.0037451445
0.0041055405
0.005584346
0.0070981565
0.0068172473
0.0050107394
0.0016947158
-0.0053123264
-0.010415019
-0.0075545907
-0.002293392
-4.0063713E-4
-6.521927E-4
-6.9260516E-4
-7.2598533E-4
-0.0022525585
-0.0037043307
-0.003170879
-0.001799671
-1.3978027E-4
-9.761889E-5
-0.002279629
-0.0019132087
-3.3525104E-4
-3.852394E-4
7.22868E-4
-0.0013086103
-0.0050471425
-0.0018936158
0.0011445123
-5.311956E-4
1.1703589E-5
0.00231291
0.0027288876
0.0020065622
0.0020378353
0.0018566926
0.0023297146
0.0050770803
0.0045414064
0.0015873064
6.251217E-4
-2.818557E-4
3.285055E-4
-4.9583137E-4
-0.0034853334
-0.0019762996
-2.5739397E-5
-5.213446E-4
-0.001270307
-0.002983555
-0.0029592197
-0.0027829478
-0.0035778247
-0.0017198714
3.1824736E-4
0.0015474014
0.003273302
0.0026071244
-2.8706735E-4
-0.0017352538
-0.002461707
-0.003684731
-3.9086066E-4
0.005503764
0.004597073
8.044009E-4
0.0030919686
0.006796879
0.005374177
0.0034062571
0.0025946666
-7.242164E-4
4.3185597E-4
0.0057736845
0.0013471874
-0.00885527
-0.011995212
-0.008798122
-0.003707596
1.5938397E-4
7.5250166E-4
-4.4637473E-4
-4.7141212E-4
1.08028544E-4
-9.296479E-4
-0.0016248703
-0.0021079255
-0.0027722383
-0.0016314511
-0.0017982956
-0.0018184127
0.001001461
0.0020418565
0.0028606982
0.0035310232
0.0012161569
7.5256743E-4
0.0021426324
0.0033565904
0.0028510483
-0.0018369484
-0.003094039
6.489699E-4
0.0029142902
0.0049282345
0.0057621608
0.0044642296
0.0030779347
0.0025183305
0.003957671
0.0020153148
-0.0032328255
-0.0034316755
-0.0010165748
-3.4167038E-4
9.3134855E-5
1.74368E-4
-0.0014549199
-0.0041615204
-0.0045240736
-0.0031593028
-0.0025155372
-0.0022059905
-0.0037914047
-0.0057721236
-0.004345007
-0.0019525613
-0.0023960825
-0.0026225795
-5.7289825E-4
-0.0016635727
-0.002957599
1.3162036E-4
0.001874973
0.0045191683
0.009194641
0.009226795
0.0060239155
9.902138E-4
-0.0032794485
-0.0019003353
0.0017789415
0.0035001824
0.0020539693
3.4712566E-4
0.0010309606
-1.9785266E-5
-0.003494829
-0.004069146
1.7358789E-5
0.0024782764
0.001400015
0.0019663982
0.0017790353
6.087609E-4
-8.264384E-4
-0.0050512473
-0.004708563
-9.926622E-4
7.858506E-4
0.0028447742
-4.7189682E-5
-0.0028711644
-6.6332734E-4
-0.0014134366
-8.1653014E-4
0.0016569751
5.383561E-4
3.1732747E-4
0.0024089983
0.0052193836
0.003236371
-0.00362266
-0.005173326
-0.002967329
-4.8396818E-4
0.0027957265
0.0029313257
0.0021901757
0.0017893306
0.0012780546
0.004423336
0.006358838
0.0015540358
-0.005239004
-0.008792836
-0.008967656
-0.008026448
-0.0061770566
-0.0029674126
-0.0017024737
-0.0035905926
-0.003583298
-9.179105E-4
8.908803E-6
0.0011837804
0.004908406
0.007398375
0.0069665727
0.004585149
0.001968215
2.5295556E-4
-0.0023118064
-0.004090154
-0.0019670282
0.0015547312
0.0045033824
0.0073176827
0.009347702
0.010891877
0.012847301
0.012662511
0.003622646
-0.010524145
-0.016059143
-0.014869034
-0.013597565
-0.010423799
-0.008608194
-0.0065966635
-0.0025039276
-4.5258005E-4
0.0032258253
0.006323621
0.006339138
0.0070252987
0.0042781527
0.0016862578
3.101445E-4
-0.005447668
-0.0070630573
-0.004638321
-0.0016096367
0.0055510206
0.006704343
0.0012203802
0.0011504218
0.005125927
0.009071398
0.015689174
0.02362108
0.022679303
0.011639908
4.7920764E-4
-0.010303062
-0.021328622
-0.028488835
-0.029622786
-0.023671947
-0.01798543
-0.016278861
-0.01376081
-0.010083263
-0.0026647178
0.0049031004
0.006355871
0.008142724
0.00992373
0.008021634
0.006340636
0.006771641
0.014225012
0.024863778
0.026502931
0.022113618
0.017078284
0.008773252
-0.0045789117
-0.016135478
-0.01367536
-0.008005705
-0.014906955
-0.017736625
-0.006940163
0.0020293384
0.0038782153
3.418242E-5
-0.0077831624
-0.014427584
-0.01734262
-0.011372039
-0.0055036303
-0.015031823
-0.026014343
-0.026619831
-0.021472536
-0.007877234
0.0067216214
0.0146128675
0.020491153
0.021403428
0.015200595
0.009158434
0.016696127
0.037374422
0.051571798
0.055546716
0.05198051
0.04351442
0.03769753
0.02213888
-2.2121509E-4
-0.0046262387
0.0028425944
0.002248278
-0.014677089
-0.041850857
-0.054741662
-0.042038225
-0.026661854
-0.024967534
-0.016846495
0.0043983227
0.006552583
-0.021947566
-0.052721024
-0.06644481
-0.06690402
-0.05393216
-0.029983876
-0.012431824
-0.007466277
-0.0024955014
0.0130919395
0.029994186
0.03172945
0.017537525
-0.007366409
-0.031062964
-0.03888655
-0.014376186
0.0518404
0.11150254
0.13060796
0.14108147
0.13569629
0.088217005
0.008775102
-0.07128758
-0.09951533
-0.07480934
-0.040404726
-0.0057282075
0.027739927
0.055227045
0.07123496
0.0695913
0.05374581
0.023171822
-0.026754405
-0.11342851
-0.19855691
-0.18982948
-0.11440009
-0.041311633
0.031210558
0.06984694
0.07996957
0.087037444
0.018690914
-0.09411098
-0.117417075
-0.06851411
-0.040894203
-0.02061562
0.039392937
0.094961055
0.124909304
0.18152905
0.2239842
0.19983134
0.1430411
0.07305428
0.032722555
0.010074495
-0.0909601
-0.2277492
-0.32007116
-0.3553487
-0.27080894
-0.12542501
-0.075899415
-0.053848516
0.0400938
0.10561769
0.10267212
0.07456306
0.03863512
0.042430386
0.03370665
-0.006600259
0.023820033
0.023032464
-0.052068822
-0.03180713
0.05367842
0.13830224
0.23265791
0.27447167
0.26624432
0.2031489
0.10295059
0.06657278
0.062171187
0.035429336
0.0058957427
-0.035906598
-0.121797375
-0.2796699
-0.4071503
-0.3862271
-0.28112537
-0.16201526
-0.055967655
0.017558033
0.09390003
0.15592127
0.1467234
0.08406333
0.0275339
-0.02624975
-0.10305861
-0.11798489
-0.04671524
-0.007445284
-0.0035187793
0.018474959
0.037290893
0.062245704
0.08295669
0.06697675
0.051020153
0.053046763
0.04900638
0.04439965
0.044134486
0.03693345
0.0242541
0.008524192
-0.005598435
-0.011591174
-0.018389992
-0.02458083
-0.020887205
-0.010674596
0.0074265283
0.023692
0.029258944
0.037367105
0.042702742
0.036292523
0.02265695
-8.236557E-4
-0.021902945
-0.02978143
-0.034501806
-0.039618395
-0.04281866
-0.040398475
-0.036551468
-0.037716907
-0.03179152
-0.019902809
-0.017315885
-0.01825883
-0.01425413
-0.006722779
0.0012187832
0.0052816467
0.0069887443
0.007941852
0.005380789
0.0023830251
0.0020668807
3.0958912E-4
-0.0023955167
-0.0014064726
0.0015581495
0.0044923904
0.007615667
0.010171606
0.013074747
0.0137199955
0.011643642
0.012500686
0.013727371
0.012804845
0.013548623
0.014116855
0.013339698
0.012488391
0.009908765
0.0068495143
0.0053837933
0.0041543553
0.0030320112
0.0022938377
1.3199818E-4
-0.0026333774
-0.0045677978
-0.005274105
-0.004338078
-0.0047920677
-0.0060244715
-0.0052043973
-0.0048249015
-0.0049566226
-0.005500175
-0.006114129
-0.0055320687
-0.0070616878
-0.007231086
-0.0047109984
-0.00514207
-0.0040311166
-0.0032633583
-0.006701278
-0.005485794
-0.0023129769
-0.0028303298
-0.003597955
-0.004954143
-0.004685636
-0.0023582922
-9.2375785E-4
7.913422E-4
5.961547E-4
-6.152626E-4
0.0013085598
0.0041400413
0.006090673
0.0057467236
0.004487637
0.005739226
0.0053371717
0.0048788833
0.0076197023
0.0052318857
0.001115461
0.0038292536
0.0051486427
0.0017271211
-1.0598521E-5
5.2524795E-4
0.001422487
0.0018500866
0.0011097549
-0.0011209301
-0.002803424
-0.0028268546
-0.003676291
-0.0041796076
-0.0032186995
-0.002707964
-0.0024820475
-0.0024870515
-0.0022077393
-0.0018139728
-7.666503E-4
0.0016595348
0.0014822095
3.0453264E-4
7.061514E-4
9.488429E-5
5.2506116E-4
6.952452E-4
-2.996015E-4
0.0011713856
0.0019871618
2.2909566E-4
-0.002148352
-0.0018948099
9.399079E-4
6.5834983E-4
-8.402456E-4
-0.00342841
-0.006306502
-0.0022631572
-4.176177E-4
-0.004541325
-0.0035892432
5.382345E-5
0.0023081547
0.0025772508
1.2951618E-4
-3.5062173E-4
6.936061E-4
4.5269428E-4
4.361934E-4
0.0019044079
0.002555635
0.0012402139
0.0019330564
0.0023194666
-2.128016E-5
-4.4371496E-4
7.5493107E-4
0.0024459595
0.0031489658
0.0013956579
7.163257E-4
6.63685E-4
3.75518E-4
8.3362666E-4
6.8002765E-4
-8.56033E-5
-0.00150039
-0.0015719648
9.793035E-5
3.0358462E-4
3.2114744E-4
9.0738415E-4
7.098867E-4
5.699306E-4
0.0012015909
0.00134352
-6.748274E-4
-0.0018392149
-1.8918769E-4
9.768911E-4
1.339144E-4
-0.0010073037
-3.796278E-4
-8.996628E-4
-0.0032632502
-0.0034405165
-0.0041378136
-0.0046704956
-0.0028615296
-0.003330408
-0.004219396
-0.0035388125
-0.0026577048
-0.0016201097
-0.0016095015
3.2548702E-4
0.0029328512
0.0031076833
0.0033224395
0.002263625
0.0023048893
0.0043751895
0.003240355
0.0016370876
0.0017939464
0.0031282404
0.004128954
0.0018494491
0.0013017865
0.002643894
0.0014329004
8.057566E-4
0.0011105122
6.865103E-4
-0.0014670247
-0.0044465065
-0.004294056
-0.0031203069
-0.0027328543
-0.0030143328
-0.004723927
-0.0044596973
-0.0031226815
-0.0019884051
4.1348863E-4
2.3218042E-4
-0.0020417373
-0.0022594836
3.5140998E-5
0.0022573175
5.736371E-4
-1.3517255E-4
0.0029124564
0.0025854006
9.2702545E-4
9.957752E-4
-4.723947E-4
-7.069234E-5
0.0014173851
1.1527353E-5
-6.247908E-4
-0.0013347496
-0.0021864912
5.064999E-4
0.0010812068
-0.00165508
-0.00156764
-5.0267135E-4
-4.3531333E-4
-3.6717005E-4
-2.181812E-4
9.3270326E-4
8.1405445E-4
-0.0012057393
-0.0018488248
-0.0013920275
-0.0013000852
-7.6876115E-4
0.0010912861
0.0021012728
0.0014702067
0.0025303285
0.00298111
6.4717856E-4
-7.063727E-4
-7.9317245E-4
7.7691715E-4
0.0024035505
1.6171738E-4
-0.0015152299
-4.6386625E-4
5.7160803E-5
3.9608055E-4
3.9244094E-4
-4.6170782E-4
-0.0011785522
-9.846663E-4
-7.212457E-4
-9.981007E-4
-4.6279113E-4
-6.479489E-4
-0.0015389681
-0.0013045307
-0.0016404828
-0.00162572
-9.7295054E-4
-3.2952492E-4
3.950376E-5
-0.0034770933
-0.0053866133
-0.0011526151
0.0015870988
0.002887283
0.0036689981
3.7426778E-4
-0.001929683
-0.0015758057
-0.0011353621
0.0010124461
0.0022708157
9.4751857E-4
0.0015260808
0.0037583509
0.0035480657
0.0014142488
2.9566136E-4
0.0010101272
0.0012149023
-6.9925643E-4
-0.0021309622
-0.0015101203
1.4285695E-4
0.0013661853
5.094273E-4
-0.0012344853
-0.002046351
-0.0018563222
-0.001261023
-0.001115791
-9.361744E-4
-0.0012044435
-0.0014184483
-6.14509E-4
-6.0525705E-4
7.20028E-4
0.0029887722
0.0013276497
-0.0015217481
-0.0018353892
-8.804694E-4
-1.9562131E-4
7.243432E-4
0.0019636245
0.001503716
0.001159674
0.0011773315
3.9488496E-4
0.0013542336
0.0013776779
3.6383892E-4
3.701326E-6
-0.0016929329
-4.014321E-4
7.871663E-4
-0.0025430156
-0.002106666
0.00131532
0.0016869324
6.5706257E-4
6.132743E-4
0.0017542739
0.001316596
-5.0944847E-4
-0.0012560991
-7.7796145E-4
1.6478548E-4
-9.394902E-5
2.0746929E-4
0.0014029493
0.0011496268
0.0011461606
5.004061E-4
-0.0010341724
-3.957096E-4
2.942576E-4
-7.8717305E-4
-0.0010155177
-1.6372134E-4
-3.4142088E-4
4.7932315E-4
0.0014503559
-0.002137738
-0.0037896535
-2.2100944E-4
1.2282871E-4
-9.6885284E-4
7.5047987E-4
6.9993816E-4
-9.874527E-4
-1.655985E-4
0.0013279109
4.4015178E-4
4.4598506E-5
3.2018457E-4
-9.5566857E-4
-1.7510846E-4
9.442345E-4
-8.4232073E-4
-1.442559E-4
0.0020951075
0.0012784225
7.3359854E-4
0.0015029499
0.0017300303
0.0018218888
7.7623257E-4
-8.5997133E-4
-0.0012693814
-8.2055375E-4
3.034369E-4
6.9022464E-4
-7.7881524E-4
-0.0023730444
-0.0025580656
-0.0012222045
-2.1284887E-4
2.8388167E-4
3.2505565E-4
-0.0013071276
-8.719622E-4
8.4504345E-4
-5.4777574E-5
-2.0718502E-5
3.2729044E-4
-1.2557738E-4
6.0979987E-4
3.081526E-4
4.136987E-4
9.019258E-4
-1.0471842E-4
4.4556885E-4
0.0013764028
0.0010769743
5.5772153E-4
-1.08926695E-4
-1.1618953E-4
-2.66835E-4
3.270987E-4
5.200224E-4
-0.002137043
-0.0018279804
0.0011298793
-2.0735119E-4
-0.0013821346
6.4180046E-4
-2.8080403E-4
-0.0016426301
7.925494E-4
0.0010719468
-5.198289E-4
5.1837094E-4
0.0013977655
0.0010785713
1.8284541E-4
-3.5216764E-4
4.310456E-4
5.703576E-4
9.75321E-4
0.0015450811
1.9243661E-4
-0.0023529523
-0.0028994936
8.187136E-4
8.0734224E-4
-0.0035052798
-0.0017566241
1.5055174E-4
-0.0012951435
6.105568E-4
0.0022794444
0.0014803477
-2.4121464E-6
-0.0012162207
-7.478603E-4
4.1584743E-4
0.0023009903
0.0028419276
0.0016487248
8.5088715E-4
-5.303247E-4
2.331023E-5
4.4331167E-4
-0.0016789334
-5.0644495E-4
6.8997126E-4
-0.0010703724
-9.830536E-4
-4.999348E-4
-0.0011340723
-0.0016973082
-0.0014676836
-6.3358067E-4
-0.0011034075
-0.0014042251
-4.1855156E-4
9.22922E-5
-4.7615927E-4
-9.25932E-4
3.404692E-4
7.8625116E-4
-1.2990837E-4
9.620595E-4
0.002452846
0.0030273409
0.0031993585
0.0022234556
0.0012602588
4.3431637E-4
-2.1132089E-4
-4.8051088E-4
-9.66798E-4
2.429752E-4
0.0013224398
-6.815305E-4
-0.0020223355
-0.001188313
-5.246188E-4
-7.194663E-4
-0.0020631498
-0.002895249
-0.0014062494
2.9661896E-4
7.3482704E-5
-3.6016756E-4
3.908307E-4
-1.2775161E-4
-0.0014178122
-3.0227815E-4
8.0783636E-4
-1.3691085E-4
4.311972E-5
0.0022002065
0.0025578889
4.015214E-4
2.5846568E-4
8.793772E-4
-2.6189006E-4
7.2816707E-4
0.0012448122
-6.367597E-4
-3.5489688E-4
-3.7823306E-4
-0.0011799696
1.6710431E-4
0.0014623145
0.001294611
-7.24833E-4
-0.0012944667
0.0010620046
8.667636E-4
-0.001290542
-0.0017399511
-5.630339E-4
3.785681E-4
7.443978E-4
0.0020161069
-1.0438158E-4
-0.0023544854
0.0013583257
0.0011602376
-0.0030440523
-0.003477181
-0.0028602735
-3.427468E-4
0.0021937096
0.0018695211
0.0017388171
5.484047E-4
-1.2579495E-4
9.856172E-4
6.950518E-4
3.3724366E-4
8.95756E-4
0.001353123
8.021613E-4
5.5949662E-5
-2.7006503E-5
-0.0015813955
-0.0018011311
4.4029695E-4
5.831075E-4
-1.2219508E-4
-1.1481036E-4
-5.4635946E-4
-0.0011542741
-0.0018157646
-0.0015533771
-9.2190574E-4
-0.0010772998
-0.0013754108
-8.1954745E-4
7.7491545E-4
6.847354E-4
-8.648161E-4
-6.285929E-4
2.8544833E-4
0.0012862169
0.002602651
0.0022113633
0.0010798883
0.0015585438
0.0026798083
0.0023816668
0.0012788862
0.0014372839
9.431778E-4
-0.001845993
-0.0025699977
-3.6277476E-4
5.3338753E-4
-9.828047E-4
-0.0030052431
-0.0021827416
-1.5125052E-6
-4.5010433E-4
-5.472045E-4
-4.1815694E-4
-0.0015731114
-5.085721E-4
-2.0685047E-4
-0.0017548971
-0.0013595761
-6.2653125E-4
6.1024773E-5
3.2535853E-4
3.9729377E-4
0.0018072015
0.0015334175
0.0012374341
0.0018258963
4.0916103E-4
8.6929614E-4
0.001696624
-4.176835E-4
-0.001019928
-2.649729E-4
5.359417E-4
8.171791E-4
-0.0010433132
-0.00112418
3.613377E-4
-4.7058729E-4
-0.0011529133
-0.0012619302
-0.0015909662
-2.5662448E-4
4.6511018E-4
1.4853968E-4
0.0012501415
0.0011226411
4.8446327E-5
8.3529885E-4
0.0011896389
8.142097E-4
7.7784125E-4
9.0173876E-4
0.0013188235
7.8827E-5
-0.0011302148
-2.3168033E-4
-2.5083515E-4
-0.0011995947
-0.0019647586
-0.0014717511
7.745773E-4
9.6586655E-4
-2.585333E-4
-7.9236727E-4
-0.0015175252
-9.377739E-4
-2.1885116E-4
7.927924E-7
9.1061566E-4
-1.3646687E-4
-0.001737576
-6.794135E-4
6.5223384E-4
4.48269E-4
5.807299E-4
0.0011108158
-2.975252E-4
-0.0012329646
5.0714574E-5
5.7385507E-4
0.0013126992
0.0026185568
0.0020066258
2.1871165E-5
-0.001577629
-0.0010455562
4.7080574E-4
9.2709437E-4
-9.4166055E-5
-0.001964091
-0.0010073952
0.001021839
6.519456E-4
8.4312796E-4
9.044371E-4
1.8634008E-5
1.8465945E-4
1.2573537E-4
-7.1994244E-4
-9.154733E-4
7.245596E-4
0.0012894085
-5.0216273E-4
-7.737615E-4
-0.0011333827
-0.0021020805
-0.0011215638
2.8816714E-5
7.6412596E-4
2.3669377E-4
-6.708817E-4
-2.975715E-4
-5.497658E-4
-3.2221654E-4
-7.748533E-4
-0.001791904
8.406304E-4
0.0030946566
0.0024959047
0.0011719198
-1.341031E-4
3.8614558E-4
-9.6841785E-4
-0.0035143648
-5.890592E-4
0.0024424868
9.6711185E-4
-1.5381513E-4
-5.9935986E-4
-0.0013102823
-2.9105673E-4
0.0014947067
0.002257619
0.0017165749
-1.6539294E-4
-0.0015788855
-6.203307E-4
2.4827683E-4
-0.0013823641
-0.0019967514
5.3058822E-5
9.1928476E-4
2.7815494E-4
-2.912632E-4
-6.569051E-4
-4.4608794E-4
-8.922769E-4
-6.4953485E-5
0.0018624107
5.951407E-4
5.197376E-4
0.001739707
-0.0013442389
-0.0025738315
-2.9624772E-4
-3.9589684E-4
-2.1125232E-4
0.0012683027
8.0626504E-4
8.570752E-4
0.0016141345
-0.0010309123
-0.0030921807
-6.7307946E-4
0.0014010428
0.0018367638
0.0015063524
3.5748314E-4
5.151281E-4
8.830383E-4
8.3059736E-4
5.6771724E-4
-9.23431E-4
-0.0011575066
6.8729284E-4
0.0019926126
5.39712E-4
-0.001894382
-0.0021604511
-0.0019178836
-6.037453E-4
3.3956667E-4
-0.0015452254
-8.80056E-4
3.0976822E-4
-5.1522924E-4
4.4615164E-5
-0.0012084176
-0.0013194291
9.800779E-4
-6.860277E-4
-0.0017399233
-9.98303E-4
-0.0023636487
-0.001624752
0.0011818757
0.0021755537
0.0011924205
6.1639183E-4
0.002006517
0.0025443977
0.002661922
0.0037474807
0.0026205296
0.0016152603
0.0021805447
8.131327E-5
-0.0012758027
3.2591872E-4
-1.5295691E-4
-0.0013006448
-6.944715E-4
-8.9216675E-4
-0.0015253049
-5.570922E-4
9.246782E-4
2.8540014E-4
-0.0019166649
-0.0030351721
-0.0022568835
-0.0011077023
-0.0017543756
-0.0017009018
-7.184108E-4
-0.001963953
-8.3702395E-4
0.001429654
-5.6703655E-5
2.1301661E-4
0.0012541139
-4.5328918E-5
-5.0954754E-4
-8.5575355E-4
3.5090704E-4
0.0029835375
0.0029026954
7.0784544E-4
-0.001135778
-5.3695647E-5
0.0018921493
0.001963299
0.0020787255
7.159794E-4
-9.821568E-4
-0.0010291405
-0.0012152483
-2.807181E-4
-7.2814774E-4
-0.0019041665
2.7941578E-4
0.0012623143
0.0013047201
0.0016410748
-3.3837554E-5
6.752341E-5
-1.9846915E-4
-0.002049925
-5.979103E-4
1.0143222E-4
-0.0010859026
-3.6324898E-4
-9.6190936E-4
-0.003048679
-0.00231214
2.9472527E-4
0.0017867505
0.0025902695
0.0033155598
0.0028095373
0.0018167519
6.097522E-4
-0.0016075524
-0.0015782843
6.636389E-4
5.896671E-4
1.8410326E-4
3.4247927E-4
-0.0012900754
-9.6041604E-4
6.0082495E-4
2.2870742E-4
6.6563225E-4
-2.4181556E-4
-0.0023513883
-0.0014258856
-2.722782E-4
2.6349796E-4
1.5903015E-4
-0.0016316937
-0.0018202217
-0.0018242322
-0.0025476718
-6.8151316E-4
7.5008976E-4
4.3133885E-4
0.001155042
3.8770388E-4
-0.0013894825
9.0116446E-5
0.001138277
6.6725974E-5
6.286787E-4
2.6786796E-4
-5.792176E-4
0.0015039142
0.0031669086
0.002701139
0.0014651448
0.0014095383
0.002260106
0.0014984075
8.667415E-4
-6.5729854E-4
-0.0027186414
-5.698537E-4
0.0013496133
-5.508445E-4
-0.0021476399
-9.921568E-4
0.0011172552
7.427664E-4
1.074439E-4
-2.1775223E-4
-0.0022204334
-0.0014474011
9.860699E-4
1.6410669E-4
-0.0020751292
-0.0023223888
-0.0011178355
-0.0022177477
-0.0020445178
0.0017920749
0.0015524183
-0.0014150921
-0.0015119701
-8.8615913E-4
3.245191E-4
0.0019005148
0.0012463451
4.2184305E-4
0.0012651768
1.7094424E-4
-0.0013511102
7.755034E-4
0.0018648974
8.037696E-4
7.6603406E-4
3.616263E-4
2.4009217E-4
-2.259539E-4
-8.099059E-4
0.0013623463
0.0025248942
0.0011305738
4.2508647E-4
9.674997E-5
-2.7798137E-4
3.101357E-4
8.5997477E-4
-1.01166086E-4
1.1741334E-4
4.4086447E-4
-0.0026265592
-0.0024435783