-0.0014099135
-0.0018062892
0.0017335064
0.0020631817
-0.0015908825
-8.233028E-4
-3.8392356E-4
-4.260801E-4
0.0020529788
0.0023214656
5.02086E-4
-9.6010615E-4
-0.0010658393
0.0010408716
0.003088823
0.002143102
-8.152872E-5
-3.460335E-5
4.7312077E-4
2.4404984E-4
3.272495E-4
-7.449675E-4
-7.4356387E-4
8.114052E-4
-3.2267868E-4
-0.002042218
-0.0010409427
3.424098E-4
-3.8359707E-5
-5.313447E-4
1.8302076E-4
3.4633496E-5
-5.172286E-4
-9.9231656E-5
-5.049423E-4
-0.0011825974
-0.0012266465
-0.0015606537
-0.001151273
9.842215E-4
0.0019675058
-0.0011194029
-0.003199394
-4.8754414E-4
0.0012975803
0.001282708
0.0021981713
0.0016699061
5.603766E-4
4.602744E-4
-1.1712203E-4
-1.4255305E-4
4.058855E-4
3.2282335E-4
7.622024E-4
0.001270897
0.0010006164
4.6786407E-4
-8.3953707E-4
-0.0013714895
-1.6577737E-4
3.7649402E-4
7.559266E-4
0.00139945
7.8806933E-4
-7.4180786E-4
-0.0022241552
-0.0012587998
6.048972E-4
-3.6274016E-4
-0.0016918482
-0.002102155
-9.82389E-4
0.0013843948
9.266844E-4
5.9151596E-5
6.3011184E-4
4.0412063E-4
3.6356063E-4
-8.8807516E-4
-0.0016887711
-6.015248E-5
-3.3069708E-5
-7.704727E-5
4.1295966E-4
-6.3753163E-4
7.7643147E-4
0.0024719147
-2.0261618E-4
-0.0018490291
-1.8392081E-4
-2.2966247E-4
-0.001420752
-3.723641E-4
4.497453E-4
-4.2782523E-4
3.2715642E-4
0.0020679347
9.087988E-4
-5.377952E-4
0.0013280021
0.0022922417
5.39913E-4
3.872912E-4
0.001652961
0.0012176553
-0.0010422255
-0.0024562075
-9.269277E-4
0.0011483823
0.0014970906
6.5752154E-4
-4.2131386E-4
-8.0506346E-4
-0.0012514405
-0.0017131605
-0.001468731
-0.0014518682
-6.56546E-4
9.814886E-4
0.0012009013
-5.1172694E-5
-0.0016151419
-0.0013937938
3.2704903E-4
2.1686715E-4
-6.542228E-4
-5.2545127E-4
-3.7109005E-4
5.447699E-4
0.001377217
2.0082401E-4
-8.8837073E-4
4.6533134E-4
0.0021221316
0.0016116054
5.026931E-4
-9.592374E-4
-0.002054919
4.3210614E-4
0.0020595412
2.827516E-4
4.4219414E-4
3.5529383E-4
-0.0011615658
-2.5546522E-4
6.7475374E-4
5.0733675E-4
-5.467708E-4
-0.0019065083
-4.6183015E-4
0.0012341556
0.0012978575
4.7146186E-4
-8.636838E-4
3.9589996E-4
0.0012568575
-3.9429302E-4
-9.551277E-4
-0.0011006627
-5.5280983E-5
4.169512E-4
-0.002157976
-0.0023655314
-1.5958225E-4
0.0012789224
0.0015511707
4.5446068E-4
6.915276E-4
7.7074056E-4
-9.797007E-4
-0.0015021554
-6.6057354E-4
7.0022175E-4
0.0012260514
0.0011541994
0.0011102504
-6.312796E-4
-0.0012595213
-4.331764E-4
-5.514506E-4
-4.179112E-4
-5.389207E-4
6.274128E-4
0.0022014896
0.0010140495
2.0561868E-4
1.3751251E-4
-2.8266167E-4
-0.0013720165
-0.0029347537
-0.0011181763
-1.7953762E-5
-0.002026877
-0.0012891551
-1.7937443E-4
2.3123094E-4
0.0021794843
0.0028217083
0.002269727
9.670636E-4
-1.8762752E-4
8.702019E-4
0.001009931
-8.9945475E-4
-0.0022395165
-0.0019589327
-8.7789886E-5
0.0015173744
0.0016854422
0.0015225324
0.0011203812
3.8468518E-4
2.8571332E-4
4.112207E-4
-4.8009012E-4
-0.002490437
-0.0033562111
-3.6156987E-4
0.0022359493
6.135911E-4
-6.182926E-4
-0.0018100061
-0.003698163
-0.0015099373
0.0011990359
0.0023034497
0.0038787187
0.0016551019
-0.0015290122
-3.6518197E-4
5.8448134E-4
-7.047655E-4
-0.0022250093
-0.0021531577
4.8374632E-4
0.00182098
6.128166E-4
1.1157449E-4
-3.0066184E-4
-0.0011753641
-4.533909E-4
3.533818E-4
-2.962566E-4
-2.5373985E-4
3.247912E-4
6.617344E-4
0.0010735362
5.1823794E-5
-4.9842946E-4
1.3110839E-4
-0.001478743
-0.0021616674
1.7858014E-4
0.001061072
-2.62612E-4
-0.0012132092
3.8060875E-4
0.0024806734
0.0018451882
9.622491E-4
9.071047E-4
6.5898657E-4
-2.6654385E-4
-7.740885E-4
0.002151785
0.002315245
-0.0017410299
-7.808361E-4
6.611056E-4
-9.7512204E-4
1.1472809E-4
0.0012254613
2.8444207E-4
-0.0013704657
-0.0013749381
9.234101E-4
3.389047E-4
-4.2379647E-4
4.0622542E-4
-0.0012890496
-0.0012034418
1.8565226E-4
-0.0019778395
-0.0041138814
-0.0029478595
-0.0014631498
-0.002869465
-0.0019596822
0.0013574547
-2.6865525E-4
-9.977883E-4
0.002214205
0.00353726
0.004331832
0.0040418818
0.0024158407
0.0012559196
-8.438512E-4
-0.0011527279
3.181169E-4
5.468987E-4
9.920025E-4
0.0015316366
0.001234904
0.0012271785
0.0015028808
6.045018E-4
-5.4315245E-4
-1.2997621E-4
1.1834502E-4
-4.7163662E-4
-0.0013777098
-0.0016677132
-0.0010991634
-0.002360194
-0.0016290987
0.0016326511
-2.545042E-5
-0.0024424873
-0.00116106
-4.211681E-4
-0.0017257865
-0.0041826274
-0.0043444103
-0.0020189285
1.2405575E-4
0.0013949209
6.9130334E-4
0.0015312851
0.0031287381
0.001441663
0.001076441
0.0022073733
0.0015142516
-6.278267E-4
-0.0026978508
-0.001611854
4.6731537E-4
0.002006685
0.0036214532
0.0028548515
0.0027008848
0.004111952
0.0031027917
3.9124442E-4
-7.9049944E-4
1.4155815E-4
-0.0019675656
-0.0049986164
-0.0020705017
0.0017553985
0.003580057
0.002358013
-0.0036709674
-0.005377038
-0.0023732968
-0.0015726804
-8.141702E-4
-0.001175544
-0.0021416228
-6.689504E-4
-0.0010570576
-0.0015722922
4.4995925E-4
-2.3858096E-4
-8.8678935E-4
3.6717398E-4
-0.0018682255
-0.0031763946
-0.0011605594
4.925013E-4
0.0030985004
0.0025997874
-2.1432817E-4
0.0013788813
0.0017089375
3.488195E-4
0.0019957693
0.0021657464
0.0022739843
0.004582731
0.0048699365
0.0037022647
0.0029232304
0.0027686858
0.002980764
0.0016324676
-1.9051538E-4
-0.0010174074
-0.0020700092
-0.0020137832
-0.0013251392
-0.0041276165
-0.0071653053
-0.005884596
-0.0038681817
-0.0034583043
-0.0039329748
-0.0038300895
-0.0021036796
-0.0015741365
-0.0013244002
0.0010467938
0.0019535967
9.743597E-4
7.9148955E-4
6.220539E-4
0.0012711814
0.0039060072
0.0042816317
0.0013239982
-4.8001643E-4
-0.001919429
-0.0025017918
7.468054E-4
0.0022718357
5.4614246E-4
6.116549E-4
8.5173326E-4
8.5107493E-4
0.0044189645
0.009079755
0.008430088
0.001822652
-0.0057956506
-0.009446763
-0.005855362
0.0012583304
0.0029077884
-5.104299E-4
-4.5663526E-4
0.0030266473
0.0030902147
3.7348203E-4
-0.0013409471
-0.0016967683
4.883561E-4
0.0040768767
0.0056466563
0.0035074658
-0.0010902974
-0.0060265004
-0.011163613
-0.010919351
-0.0053701634
-0.004267153
-0.0041781752
-0.0022241124
-7.191345E-4
0.0038767694
0.004057494
-5.1766937E-4
-4.0822456E-4
-5.908E-4
-6.8972976E-4
0.0013768299
0.001616376
0.0033163212
0.0041769287
0.0021616763
0.0012708347
0.001619304
0.0038189406
0.0038328725
1.9902743E-4
-8.2863413E-4
6.084225E-4
0.0032647855
0.0063992916
0.0068883053
0.0042989836
1.5609614E-4
-0.0019515601
-0.002785782
-0.0029878225
0.001041247
0.0012609204
-0.0056594047
-0.008217569
-0.0065996633
-0.0050889547
-0.0029401216
-0.0023420271
-6.841599E-4
8.8767894E-4
3.91194E-4
0.0030778125
0.0032397704
-0.0011110449
-0.0018720395
-0.0023458712
-0.0033614214
-0.0017309561
-5.5066026E-5
0.0013230628
0.0016107517
0.0025949455
0.0039917394
0.0024950046
0.0030620638
0.0029350289
-0.001374275
-0.0012832523
0.0011274068
3.217945E-4
-3.1956838E-4
-2.5435802E-5
-0.0012882294
-0.0035957333
-0.0019100627
0.0013912189
7.572588E-4
3.18422E-4
0.0014138578
0.0026810002
0.0030390709
4.289998E-4
-5.890762E-4
4.4872424E-5
-2.2559609E-4
4.401524E-4
-8.5371267E-4
-0.002104144
-7.724193E-4
-0.0013901184
-0.0021911778
-0.0017137899
-0.0015753282
-0.0012050502
-9.3395356E-4
0.0010622939
0.0030155268
0.002089252
0.0019035579
0.002195932
0.0020012932
0.0034963796
0.0045519285
0.0036722186
0.0012822109
-0.0017334914
-0.0031057866
-0.003288253
-0.0026353917
-0.0012196898
-9.509108E-4
-0.0015417675
-0.0022912438
-0.0021663208
-0.002302545
-0.005371092
-0.0055671395
-0.0015455624
-3.3887965E-4
-2.962449E-4
6.8284373E-4
0.0013419809
7.190399E-4
-0.001957484
-0.0010219608
0.002345957
0.0034172754
0.00539751
0.006306369
0.007169884
0.008651375
0.00449528
-6.009358E-4
-0.0039201025
-0.0067505306
-0.006051072
-0.0046940213
-0.0022068417
4.5360107E-4
-4.7441307E-4
-5.1149254E-4
4.332703E-4
7.169797E-4
-6.171519E-4
-0.0042263144
-0.004614434
-0.0027149904
3.0261648E-4
0.0048250956
0.0061901314
0.007512863
0.009148179
0.0072602876
0.006197356
0.007449851
0.005366641
-0.0030915274
-0.008390391
-0.006338196
-0.0066293688
-0.007617495
-0.0068352665
-0.0060907966
-0.003643102
-0.0053603984
-0.0063959826
-0.0010408097
-5.4455484E-4
-0.0036894104
-0.0033135589
-9.832605E-4
0.0010865305
9.777548E-4
0.0022376413
0.0044738213
0.0042631985
0.0049560503
0.0054122205
0.0045312764
0.0045270845
0.0034568862
0.002149094
0.002615009
0.0027645202
0.0012172442
-4.3184593E-4
-3.1815117E-4
4.2644815E-4
-5.9090497E-4
-0.0014569606
6.3008314E-4
0.0016528806
2.6910592E-4
-3.7016184E-4
-0.0026827306
-0.0043615145
-0.002740615
-0.0026560558
-0.0020490754
7.964476E-5
3.2965193E-4
7.620285E-5
-6.3935196E-4
-2.553047E-4
0.0011746853
8.136369E-4
9.164846E-4
3.520158E-4
-0.0029405507
-0.006078287
-0.0063421633
-0.0038601076
-0.0032119309
-0.003727585
-0.0021798094
-7.310787E-4
0.0018934436
0.004464522
0.005092139
0.0067495974
0.0056306226
0.002107562
0.0020630287
0.003066845
0.0041485955
0.0046622804
0.002771869
0.0019964883
9.3774317E-4
-0.002146823
-0.003442874
-0.003442908
-0.0020440496
8.0945494E-4
7.4073777E-4
-0.0018019067
-0.0035996547
-0.0021948246
3.0165087E-4
-0.0030085903
-0.006804047
-0.004585314
-0.002686115
-0.0015163259
0.0010056718
0.0021639774
0.0022055637
0.0012304629
0.0013587467
0.002144773
-2.3251045E-5
-6.613518E-4
8.1596256E-4
3.1447365E-5
4.9436226E-4
0.0029297366
0.003278987
0.0022903658
0.0018961246
0.0019223315
0.0014905431
2.5176897E-4
-5.243392E-5
3.0791332E-4
-0.0027485052
-0.0060564736
-0.0033434555
6.0781076E-5
5.547557E-4
7.6218316E-4
-0.0014492339
-0.002765825
-7.450234E-4
-0.0013020214
-0.0019955735
-0.001261641
-0.0020636239
2.1942626E-5
0.0028766429
0.0026698597
0.0029403383
0.0015175041
-0.001381574
-0.0024385152
-0.0027329586
-2.8397905E-4
0.0023883567
0.0031830457
0.005626636
0.005076627
0.0024077436
0.0030673167
0.0029546476
0.0033748606
0.005364083
0.005119369
0.004629086
0.003152693
8.877399E-6
-0.002986141
-0.005029273
-0.0042863186
-0.0054039075
-0.00811268
-0.006714849
-0.006313247
-0.006693493
-0.0049050758
-0.005094662
-0.0053483923
-0.005600624
-0.0060350234
-0.0036381627
-0.0031668816
-0.0048911166
-0.0048666275
-0.004470017
-0.0035278792
-0.0010152865
0.002279563
0.0038937267
0.0063436683
0.012067378
0.015235128
0.018160723
0.021754473
0.018962845
0.013573419
0.008116889
0.0037322678
0.0037632945
0.0033725263
0.0012441444
-0.0023838778
-0.006830778
-0.009031149
-0.010182144
-0.005784703
0.002653503
0.0062186886
0.0054011014
1.3846433E-4
-0.00586491
-0.009163921
-0.013425813
-0.01692732
-0.02191563
-0.026320457
-0.021543637
-0.013661626
-0.0070214095
9.612866E-4
0.006610413
0.007990893
0.007420781
0.0064350767
0.003776196
-0.0014980843
-0.0078767035
-0.009672263
-0.0019732881
0.008170175
0.013434688
0.013582655
0.012258149
0.014543919
0.014717268
0.009974092
0.0063208076
0.0061534937
0.012135059
0.01787997
0.017633187
0.01573158
0.010826127
0.0028275666
-0.00977857
-0.022005308
-0.019660363
-0.013311688
-0.014146421
-0.011959033
-0.005319858
-0.0012757623
-0.003209706
-0.00654836
-0.009602856
-0.017189857
-0.021624338
-0.01906849
-0.01438818
-0.0056113885
0.0047913915
0.012039387
0.012229297
0.0075841546
0.008475087
0.011822
0.011735288
0.00954529
0.0068056732
0.010138602
0.014779263
0.012146129
0.007323922
0.0015229969
-0.003171414
-0.0027435035
-4.3069237E-4
0.002997337
0.0029897362
-0.002595259
-0.006163906
-0.008344307
-0.0091387285
-0.004454211
-4.3853925E-4
5.760978E-4
0.0019856696
2.9590437E-5
-0.0064288187
-0.0109943915
-0.010776112
-0.009826545
-0.011710493
-0.015760837
-0.014739789
-0.0021420273
0.009744995
0.014439034
0.026356652
0.035519436
0.024188632
0.0063486206
-0.009699688
-0.024148908
-0.028892508
-0.030299583
-0.031415068
-0.021496598
-0.001639396
0.01971306
0.03063607
0.025794063
0.02137694
0.024291454
0.020457098
0.008241715
0.0012945294
-0.0016230256
-0.013778795
-0.029436763
-0.035982307
-0.03484376
-0.02407815
-0.0044410387
0.009463756
0.01822775
0.032023974
0.033476967
0.01626992
0.01589362
0.03202339
0.029624633
0.013947822
-0.0076349415
-0.037101716
-0.04758852
-0.030957552
-0.013323805
-0.0065333326
-5.5844063E-4
0.003885012
-0.0041600866
-0.009500422
0.001068823
0.009174257
0.012042239
0.023694992
0.0340764
0.028030409
0.016611304
0.013326925
0.009152711
-0.0019402253
-0.011594195
-0.016696632
-0.01967302
-0.022948213
-0.025499895
-0.022202028
-0.014798025
-0.010998248
-0.015257198
-0.024604445
-0.033799943
-0.04776512
-0.06259872
-0.05278506
-0.0169623
0.019859893
0.049373966
0.07318727
0.098891884
0.12404184
0.11726145
0.0755111
0.028504081
-0.0040338887
-0.020580769
-0.05140388
-0.08778784
-0.08172091
-0.060500573
-0.04763301
-0.0083714565
0.050702028
0.104789
0.11904757
0.049255535
-0.056437723
-0.12217378
-0.15182169
-0.15051247
-0.09876078
-0.025588213
0.022338415
0.04415678
0.054015193
0.07724798
0.13624221
0.18205385
0.19074124
0.18710074
0.12576962
0.019013966
-0.06479962
-0.1383519
-0.15840948
-0.11181446
-0.107712865
-0.13333821
-0.12198101
-0.10234293
-0.09779795
-0.10054784
-0.08058767
-0.0381664
-0.011411673
0.008245617
0.035382915
0.07554527
0.12610446
0.1305042
0.08529072
0.0633898
0.04858288
-0.0065731322
-0.035017192
-0.0015181764
0.045853693
0.117141806
0.19603813
0.20511892
0.15514997
0.10278592
0.040970508
-0.03502543
-0.0954291
-0.15727217
-0.20373474
-0.18317422
-0.15440966
-0.13898705
-0.10738713
-0.09001622
-0.048794225
0.026927778
0.08090502
0.10839122
0.10133706
0.075040355
0.029135326
-0.035839103
-0.075329915
-0.112860486
-0.116265744
-0.054484066
-0.0054762014
0.035038672
0.07835534
0.112388
0.14058512
0.13493842
0.1229357
0.07862389
-0.014271046
-0.064898655
-0.089178964
-0.08812445
-0.025529029
0.018491425
0.020954788
0.0134837525
4.2573712E-4
-0.004726744
-0.007900401
-0.0062459125
0.006056609
0.015477702
0.009950018
-0.011722461
-0.034591455
-0.053603448
-0.05793356
-0.044766914
-0.03552892
-0.024391517
-0.009258362
-0.0014317514
0.003188019
0.005742932
0.009682631
0.012616621
0.014018948
0.0207318
0.028471509
0.03644453
0.039538413
0.033364985
0.02573337
0.016343419
1.0345749E-4
-0.017888473
-0.019315552
-0.0057918034
0.001414793
0.003970188
0.0077514374
0.01468692
0.022993445
0.016018828
0.0015864284
2.5890634E-4
0.0030510484
-0.0036476676
-0.014446438
-0.01947616
-0.019527826
-0.01906714
-0.019505695
-0.018911557
-0.015691906
-0.014492416
-0.01284171
-0.007205127
-0.002478365
0.0025422683
0.00626107
0.006110119
0.006754496
0.0055863652
9.867493E-4
-0.001121758
6.802974E-4
0.002405481
0.0016421083
0.002328437
0.004625139
0.0032281573
7.8437E-4
8.6872285E-4
0.0019462643
0.003120881
0.0028528778
0.0026956792
0.0047104573
0.0066367304
0.008721735
0.009370572
0.0067112693
0.006952761
0.009874076
0.0076805437
0.0033398771
0.0035055233
0.003912949
2.6277386E-4
-0.0030521175
-0.003248832
-0.0012385072
-6.175166E-4
-0.0035803304
-0.0035779325
-0.0023603532
-0.0053268895
-0.0042653647
-4.0461696E-4
-7.4698427E-4
-0.002808164
-0.0066194227
-0.008291519
-0.0065132463
-0.0068264306
-0.005769762
-0.0041174055
-0.0063877795
-0.0062093567
-0.0019055683
-3.241722E-4
-1.8695337E-4
0.0024957785
0.0028985667
7.93448E-4
-4.768431E-4
-0.0024202783
-8.9067424E-4
0.0017642787
-3.6602485E-4
-8.3420036E-4
1.8825069E-4
0.0012356053
0.0044370745
0.0040632947
0.0027130812
0.004321015
0.0044633388
0.0037527848
0.0039233044
0.0035676484
0.0021600837
0.0040137386
0.0075400597
0.0036143442
-0.0018139724
-0.0024363496
-0.0023778654
3.3441538E-4
0.0013804109
-0.0029942654
-0.0030144162
2.979408E-4
-0.0017642289
-0.003868676
-0.0012851283
-6.684073E-5
2.6518275E-4
0.0017146099
2.5555314E-4
-0.0012357446
-9.446478E-4
-0.0015208126
-0.0030554521
-0.00525673
-0.0040399316
-8.3006115E-4
-4.59564E-4
-0.0012555554
-0.0028110836
-0.0016989011
0.0010371807
8.653745E-4
0.0019426997
0.0015371027
-9.917062E-4
-8.6340867E-4
-0.0010394946
1.6664396E-4
0.001378182
-6.5141614E-4
-0.0010386158
-3.0649963E-4
4.7957123E-4
0.0015438477
0.0017136814
0.0023747252
0.0024733737
0.0023801185
0.0023859073
8.9519995E-4
-3.801236E-4
-3.8185783E-4
5.1959604E-4
4.8826056E-4
-3.6409154E-4
-7.766141E-5
-4.000748E-4
-0.0013903658
-0.0012838842
8.616288E-4
0.0019333948
-0.0013268752
-0.0022336398
-5.2920985E-4
-0.0022377993
-0.0027074178
-5.2686944E-4
1.2504672E-4
-3.1425495E-4
-0.0011729955
-0.001960868
-1.2326946E-4
0.002395583
3.179915E-4
-0.0015955153
-1.5994892E-4
-4.0146348E-4
8.227298E-4
0.0022736923
8.600507E-5
3.5516938E-4
0.0019440408
0.001446742
-1.7628698E-4
-0.0015312623
-1.4409354E-4
-4.2100862E-4
-0.0011096977
0.0015719502
6.4620766E-4
-0.001536963
4.018256E-4
0.00274791
0.0030385442
3.4860199E-4
5.3497934E-5
0.0030861865
8.748909E-4
-0.0019372952
-5.2457856E-4
-0.0010356316
-8.798239E-4
0.0014596225
8.412513E-4
-5.488205E-4
-0.0011773774
-0.0018930341
-5.772298E-4
9.57642E-4
6.743484E-4
-0.0011762368
-0.004455576
-0.0043835216
-1.7944984E-4
0.0010251767
-0.0012880142
-0.0017973564
-1.7878725E-4
2.53968E-4
-6.866927E-4
-7.3394645E-4
-6.278277E-4
-5.2020216E-4
8.932937E-4
0.0015989507
0.0016885586
0.0026167622
0.0025423358
0.0014369858
5.6214206E-4
3.7352336E-4
1.688167E-4
-2.4438225E-4
8.599893E-4
1.5913078E-4
-0.0017005816
3.2296302E-5
6.7539996E-4
0.0013883482
0.002327716
-0.00238156
-0.0032255913
1.5218402E-4
-0.0011320977
-0.0012387724
3.894131E-4
7.363813E-4
-7.6034004E-5
-0.0012283529
5.9649785E-4
9.2024653E-4
1.3299413E-4
-7.7546036E-5
-0.0022163107
2.238763E-5
6.601926E-4
-0.003283699
3.139496E-4
0.0046954765
0.002457674
-5.8778434E-4
-0.001685199
-0.0013326062
-0.0020214627
-0.0014530268
-3.712817E-4
-4.556867E-4
0.0020553411
0.0015508274
-0.0017673983
-0.0012469793
9.248306E-5
0.0011432862
6.680695E-4
-7.04656E-4
1.5982293E-4
8.438112E-4
0.0016648888
0.0010809904
-0.0011438064
-2.854676E-5
0.001265404
5.8148602E-5
-9.007291E-4
-6.517166E-4
1.8462054E-4
7.355541E-5
-2.890966E-4
-5.9377204E-4
-7.877002E-4
-7.0061E-4
-0.0013451632
-3.4676757E-4
0.001206168
0.0013677441
0.0023377144
0.001988763
4.5069936E-4
-5.782793E-4
-0.001179104
1.812785E-4
2.966692E-4
-2.5901909E-4
6.664895E-4
-6.2226277E-4
-0.0011748025
-1.1004323E-4
-6.622116E-4
-6.755673E-4
-1.0847173E-4
3.3826215E-4
-1.3287993E-4
1.1207297E-4
0.0018631002
-0.0019322453
-0.0059933313
-0.003396023
-0.0018186306
1.19753546E-4
0.0031983352
0.0016529628
9.099293E-7
7.6654996E-4
0.002161184
0.0031881433
0.0020899363
1.3434861E-6
-0.0012319657
2.8260093E-4
0.0015699085
4.4588055E-4
0.001234474
9.830111E-4
-3.929045E-4
0.0013332397
3.2907425E-4
-0.0029093765
-0.0030526556
-0.0024880068
-0.0017882793
-1.4116589E-4
0.0013030368
0.0015640778
7.520865E-4
2.2007695E-4
3.4936325E-5
-7.3474733E-4
-0.002117629
-0.0015842762
7.5057714E-4
0.001173117
7.178993E-4
8.1706536E-4
0.0013598489
0.0016838218
-2.2549633E-4
-5.7956314E-4
0.0012351057
8.492138E-4
-1.2125874E-4
-5.876252E-4
8.7765555E-5
5.7410746E-4
-0.0013737811
-4.2533677E-4
0.0016443278
-3.0354972E-4
-0.0026099829
-0.004760876
-0.004388508
1.3910605E-4
0.0018603569
0.0011596716
0.001292306
2.1991708E-4
-6.811542E-5
0.0017899631
0.0023383044
5.81809E-4
-3.8269808E-4
-2.0363861E-4
-0.0013166174
-8.5166347E-4
0.0016516256
7.3436124E-4
-0.0010753692
-3.064528E-5
5.21354E-4
3.4084986E-4
2.4094523E-4
9.7405806E-5
6.527342E-4
-6.6008756E-4
-0.0021377078
-4.152709E-4
6.402561E-4
5.529656E-4
0.0012258921
0.0011904996
0.0010545205
2.8733074E-4
-6.85798E-4
5.1284186E-4
0.0011750602
2.753562E-4
-2.1700855E-4
-6.620792E-4
-2.305146E-4
9.093034E-5
-6.937764E-4
-4.3093514E-5
-1.7831821E-4
-0.0015716299
1.3289685E-4
0.0012473413
-8.766351E-4
-0.001635657
-8.862371E-4
-4.5120783E-4
-4.3812784E-4
-6.964188E-4
-8.843921E-4
-0.0014469881
-6.3462014E-4
0.0011128732
0.0011786104
0.0014101828
0.0017399888
0.0012727549
0.0010148197
-1.0157868E-4
-3.5907835E-4
6.28749E-4
3.3042184E-4
1.3755118E-5
-2.328899E-4
-6.8937754E-4
-6.491204E-4
-0.0016754364
-0.001705661
0.0015725035
0.0035556627
0.0013402238
-0.0013422465
-0.001170801
7.917387E-4
9.034901E-4
-0.001208497
-0.0011217152
5.1415357E-4
-1.1522225E-4
-0.0012029032
-0.0013540742
2.4651844E-4
0.0027529926
0.0024197872
0.0018220529
0.001152747
-0.0013120542
-7.787201E-4
4.185238E-4
-8.9898653E-4
-0.0016315471
-0.0012990276
5.5235585E-5
-4.2274437E-4
-0.0019969787
-9.433083E-4
-3.7672473E-4
8.339389E-4
0.0012334248
-0.0016318667
-3.672363E-5
0.0017900292
-0.0010651147
-0.0011049367
-6.2412897E-4
-8.05104E-4
0.0012959071
0.001201453
-1.610054E-4
4.9726706E-5
-1.4285867E-5
7.2547125E-5
9.5636613E-4
0.0011960032
5.092944E-4
5.613343E-4
2.2323425E-4
-0.0014232893
-0.001086737
6.1579404E-4
8.583136E-4
2.20747E-4
-4.028745E-5
0.0010001871
0.001520619
-4.2972763E-4
-0.0016754715
-7.806332E-5
8.315082E-4
-4.6707076E-4
-8.866303E-4
8.521814E-4
0.003218728
0.0021053178
-0.0015605738
-9.680285E-4
-1.4738415E-4
-0.0013586336
0.0011456554
0.0015152366
-0.0010673025
-0.0018336193
-0.0038536345
-0.0027653242
9.0143725E-4
0.0017180447
0.0021807235
-1.8017163E-4
-0.0015479053
7.777032E-4
-0.0013835789
-0.002328043
9.725637E-4
0.0013744689
0.0011688197
6.276269E-4
-2.0957076E-4
8.454427E-4
3.2240907E-5
-0.001248482
1.3259923E-4
6.77119E-4
-8.236472E-4
-9.05086E-4
6.985756E-4
9.458396E-4
0.001419395
0.0022041185
1.4376387E-4
-0.0010874303
-6.1259983E-4
-0.0013266262
-7.9168903E-4
-3.7307307E-4
-7.5753534E-4
6.9567387E-4
5.506144E-4
-4.305761E-4
-1.4658268E-4
-5.798037E-4
0.0016927519
0.003328929
1.6927869E-4
-1.5637754E-4
7.1478443E-4
-8.6393865E-4
-4.7320107E-4
-4.4346598E-4
-5.0468295E-4
0.0013281512
0.0015795961
8.866396E-4
-0.0010033693
-0.003199818
-0.0022830265
-9.640293E-4
1.4788838E-4
0.0011731498
-1.414784E-4
-6.397557E-4
5.126398E-4
2.2447255E-4
-0.0010694974
-0.0020829418
-0.0017892298
3.3582115E-4
0.0020420516
0.0012812307
5.6158897E-5
4.5322353E-4
0.001433335
0.001261145
2.7423195E-5
6.450137E-4
0.0017373436
-5.9547165E-5
-0.0011096464
-7.7973725E-4
-0.0010263161
-2.1381336E-4
3.1782687E-4
3.388483E-4
1.13921815E-4
-0.001089959
-4.669177E-4
9.1830944E-4
2.0265246E-4
-0.0013740546
-0.0016163246
-1.5687472E-4
-1.628604E-5
-2.4228203E-4
4.2892716E-4
6.150885E-5
0.0015235129
0.0021238022
-7.981299E-4
-0.0013100384
-7.5208105E-4
6.6735614E-5
0.0024957892
0.0018886239
3.1290157E-4
2.1975124E-4
-2.1425101E-5
9.413223E-5
-6.6615397E-4
-0.0011270677
-9.6292474E-4
-0.0014677193
-1.2490134E-4
0.0013271795
1.504419E-4
-0.0012486104
-7.61207E-4
1.2133621E-4
-4.4225465E-4
1.1444987E-4
9.5990667E-4
5.2865135E-4
0.002382631
0.0024065601
-7.6346117E-4
-5.876783E-4
5.0235754E-5
-3.814573E-5
0.001536954
-3.943014E-4
-0.0040337276
-0.0024434258
3.9405175E-4
-5.339877E-4
-9.828192E-4
3.3522674E-4
-4.754775E-4
-0.0013388533
-7.592407E-4
-0.0012789746
-0.0016448427
-5.275257E-4
7.940762E-4
9.4464835E-4
1.638887E-4
-1.6011012E-4
3.266888E-4
0.0017182694
0.0024917296
0.0022921367
0.001799292
4.7302048E-4
0.0018361236
0.0036809035
0.0010346838
1.0785862E-4
0.0010335413
-2.3214801E-4
-3.7610298E-4
-5.043145E-4
-5.941965E-4
3.7111485E-4
-9.3132816E-4
-0.0022018768
-0.0017446574
-0.0017236162
-0.001294916
-5.616063E-4
-0.0014838036
-0.0026995547
-9.1903814E-4
3.550053E-4
-0.0014599971
-3.215063E-4
0.0023816419
0.0020912027
0.0015814914
6.490891E-4
-5.487565E-4
2.3869846E-4
7.254799E-4
-6.137054E-4
-0.0017243015
-4.5734245E-4
0.0011662663
2.5012437E-4
-6.7377684E-4
1.8380092E-4
8.6611486E-4
5.2047847E-4
-1.05027706E-4
-7.2732706E-5
5.6821946E-4
1.4901102E-4
-9.14674E-4
-2.3376335E-4
2.7968697E-4
-6.91556E-4
-7.36966E-4
-3.0196932E-4
3.138334E-5
-2.5327614E-4
3.2894473E-4
0.003328611
0.0026067814
2.5885203E-4
0.0012505895
2.6747477E-4
-8.431752E-5
4.711435E-4
-0.0020550373
-0.0014222119
8.2890555E-4
8.640001E-4
6.9252285E-4
-2.96288E-4
3.6771176E-4
2.3730478E-4
-0.0028989015
-0.0024296287
2.5265096E-4
2.479435E-4
-3.486192E-4
-2.1684974E-4
-0.0010096282
-0.0013751098
2.8639636E-4
0.00100283
0.0012448112
9.6610014E-4
-0.0014407279
-0.0012002108
1.2912505E-4
-4.039314E-4
8.3448074E-4
0.002105973
0.0011228732
-8.635016E-4
-9.999261E-4
5.838253E-4
-7.0595986E-4
-0.0014207423
5.0863087E-5
-7.2668644E-4
-1.4586121E-4
0.0024212145
0.0028325932
0.0023233125
0.0018587082
5.3822086E-4
-0.0011536435
-0.0022438834
-0.0029322016
-0.0026698844
-0.001219628
-5.653027E-4
1.4839442E-4
6.9677347E-4
-0.0013855582
-0.0024171483
-1.5759426E-5
0.0013797494
8.556792E-4
5.488019E-4
-7.438231E-4
-0.0018101676
-4.6307655E-4
2.7046012E-4
-4.7127498E-4
-8.757052E-4
-5.5051484E-4
7.0859405E-4
0.0018390466
0.0031489586
0.003394454
0.0017149455
0.0027805676
0.0047502145
0.0031847567
0.001116704
6.8212487E-4
0.0020048195
0.0031960744
4.573587E-4
-0.005009161
-0.0075350464
-0.006081927
-0.0053897006
-0.0033716948
0.0022966242
0.005197326
0.0038888499
-1.20673314E-4
-0.0050066104
-0.0056901816
-0.004089193
-0.0034399363
-0.0021637096
-9.0435264E-4
-0.0025781556
-0.005943332
-0.003155482
0.0042964513
0.006625912
0.0061619026
0.006552492
0.004967156
0.0023566296
5.582898E-4
6.4453576E-4
0.0021187302
0.0016233929
-1.9563104E-4
2.6270945E-4
8.404325E-4
-0.0011883758
-5.3335575E-4
0.0019985796
-1.6426513E-4
-0.001927467
-8.036747E-4
-7.475955E-4
-4.143447E-4
-0.0013027324
-0.002180175
-2.3567257E-4
1.7105739E-4
-5.883249E-4
-0.0012795024
-0.002866743
-0.0028300076
-0.0010723
0.0014598991
0.0018591437
-3.8030942E-4
-2.6861372E-4
7.0858805E-4
0.0012098309
0.0020424204
0.0010042653
-4.1684488E-4
-0.0014302165
-5.165747E-4
0.0011447856
-9.77526E-4
-9.572834E-4
6.120515E-4
-0.0012081529
-3.5563423E-4
-9.7637916E-5
-0.0017237806
0.0013172784
0.0031182426
0.0016262489
5.3060724E-4
-4.570433E-4
3.8610387E-4
7.099669E-4
-1.5021686E-4
-1.1577896E-4
-4.765631E-4
0.0016235412
0.0029085835
-8.803274E-4
-0.0017875499
-1.9721001E-4
-5.2010024E-4
3.0608196E-4
-6.5617124E-4
-0.002751111
-0.001261616
-2.7673075E-4
-6.7493806E-5
0.0012898897
0.0010382632
4.4544603E-4
4.4890453E-6
-9.881745E-4
-0.0010903461
-0.0011871016
-6.740219E-4
-3.2456013E-4
-0.0014508603
-1.6611644E-4
0.0023836845
0.002621042
8.588361E-4
-0.0018304036
-7.486831E-4
0.0021193041
9.973568E-4
9.838545E-4
0.0023729613
-1.4397565E-4
-0.0030928282
-0.0032176583
-9.901042E-4
0.002057233
0.0028239992
8.8767917E-4
-0.0016082445
-0.0016912207
0.0011043341
0.0022416594
8.5208484E-4
8.5149007E-4
2.9493353E-4
-0.0016627575
-4.7660287E-5
0.001723506
-2.3934696E-4
-0.0018256735
-0.0015315779
9.405913E-4
0.0017003459
-9.1891084E-4
4.005131E-4
0.0020812384
-3.4833158E-4
-0.0022551767
-0.003658031
-0.0025934663
-5.693997E-4
-5.0338655E-4