-0.0023269753
-0.00262372
1.2702965E-4
4.9199053E-4
5.1061706E-5
9.905084E-4
4.781963E-4
-5.975033E-4
5.9414044E-4
7.683871E-4
-5.898774E-4
0.0016916973
0.0043895915
0.0026773051
7.5140194E-4
-6.5290293E-4
-0.0024567351
-9.501958E-4
8.3661167E-4
-8.764029E-4
-0.0013114577
3.607653E-4
8.619417E-4
0.0017016368
0.00259638
0.0021480513
0.0021765123
3.3420662E-4
-0.003118153
-0.0031155671
-0.0027224398
-0.003002028
-5.862913E-4
6.725182E-4
-1.2344377E-4
-6.7973643E-4
-0.0011323807
2.8841666E-4
0.0014618404
3.035343E-4
5.671949E-4
0.0023390632
0.0019908014
-4.0560128E-4
-0.0022821454
-0.00295962
-0.0015864697
9.777404E-4
8.787828E-4
1.3498461E-4
0.0011343395
0.0013473218
4.2650828E-4
-0.0010859253
-0.0014569048
-8.3119306E-4
-4.54028E-4
0.0016798121
0.0019124891
-5.880247E-4
-0.0010853136
-0.0015649132
-0.001103524
0.0018449466
0.0034259148
0.0024032015
-0.0010473793
-0.00226989
3.304445E-4
2.4125686E-4
-8.441352E-4
3.498898E-5
-4.7676466E-4
-7.452529E-4
7.4949116E-4
0.0015095691
0.0022748706
0.0028289843
3.4942833E-4
-0.0021972663
-0.0021289887
-0.0019588657
-0.0010160322
-1.9299392E-4
-8.1963185E-4
2.735152E-4
0.0011431832
6.5790786E-4
0.0010762609
3.5352597E-4
-0.0013542773
-0.0020539574
-0.0018360508
-0.0011947615
-3.4135766E-4
0.0011098023
0.001013794
1.3002055E-4
0.0016881372
0.0023660588
4.865673E-4
-8.890873E-4
-3.4092678E-4
9.690013E-4
-1.293838E-4
-0.0017204032
-7.46012E-4
1.6480974E-4
7.0271187E-4
0.0010147574
-4.5035154E-5
-8.174994E-4
-7.175435E-5
0.0020209309
0.0016834653
-0.001726574
-0.0015658429
6.118475E-4
-8.95148E-5
-8.256377E-4
-4.459406E-4
-5.9093616E-4
-0.0011655098
-5.174968E-4
8.7492407E-4
0.0010297701
0.0015078257
0.0011666924
-8.9566375E-4
-9.3621353E-4
-3.6091366E-4
-3.544812E-4
0.001253857
0.002383767
6.0010777E-4
-0.0015812679
-2.5463285E-4
9.276306E-4
-4.0415837E-4
2.012434E-4
4.0829243E-4
-4.610336E-4
-5.0155254E-4
-0.001723316
-5.918286E-4
7.5283E-4
-7.22348E-4
1.547277E-4
5.7543284E-4
-4.8916606E-4
-1.02974715E-4
2.1770046E-4
0.0016248256
0.0013747093
-0.0014193429
-0.002169091
-0.0021225787
-0.001130115
0.0010405463
0.0016569322
0.0020504175
0.0018603699
3.6551678E-4
-1.4896781E-4
-3.606625E-5
6.647594E-4
0.0016421428
-6.182438E-4
-0.0038990402
-0.0032401057
-0.001263616
-2.359625E-4
4.4661917E-4
-5.9203503E-5
-4.120272E-5
6.902363E-4
6.783466E-4
5.685413E-4
5.699352E-4
0.0019006273
0.0018101819
-9.435451E-4
-4.6252846E-4
8.7348756E-4
-1.5336303E-4
3.5811675E-4
9.932999E-4
3.3158064E-4
-3.424304E-4
-7.5354194E-4
4.7994527E-6
6.806337E-4
3.3343234E-4
7.6169E-5
6.23061E-4
1.2243569E-5
-0.0015194427
3.49378E-4
0.0013561589
4.1951102E-4
0.0020761855
-0.0019010348
-0.0066284
-0.0012450898
8.456225E-4
-0.0019600017
-4.2452847E-4
-8.4707724E-5
2.9372817E-4
0.0019353355
4.0344537E-5
-5.3991296E-4
0.0013487104
0.0015432145
0.0010181915
3.2883245E-4
-0.0010039043
-0.0018896726
-0.0011728794
1.7938801E-4
4.869199E-4
2.3624493E-4
4.862462E-4
9.209386E-4
7.303897E-4
0.0011011468
7.6941424E-4
-0.0016137335
-6.0962234E-4
0.0020858939
9.372674E-4
-1.0399237E-4
-6.1470305E-4
-7.245598E-4
0.0019216022
0.0021433183
-6.3272344E-4
-0.0024866022
-0.0035717317
-0.0014585378
0.0018969853
7.449569E-4
-7.2271365E-4
8.039363E-4
6.451297E-4
-4.7762692E-4
-7.498624E-5
1.075508E-5
7.599435E-4
0.0014925319
-2.3150048E-4
-7.042522E-4
6.154064E-4
-6.010158E-4
-7.861696E-4
0.0024685257
0.0016390546
-0.0023050862
-0.0017296001
-8.97002E-4
-0.0021714254
-6.340502E-4
8.412703E-4
5.708358E-4
0.0015452817
0.0019063193
6.8490795E-4
-7.375795E-4
-0.0021576055
-0.003280555
-0.0036645806
-0.002461779
-4.7850673E-4
7.827629E-4
0.0011999798
3.236764E-4
5.182896E-4
0.0028903265
0.0025752487
5.575619E-4
0.0018501681
0.003340231
0.0026140548
0.0018735933
0.0011531583
7.309237E-4
1.467724E-4
-0.0013749724
-0.002157202
-0.0021072347
-0.0011871612
1.3067479E-4
4.0190414E-4
0.0010550492
6.9406675E-4
-0.001756318
-0.0025002614
-0.0020187527
-0.0014099753
2.1699126E-4
-3.071416E-4
-0.0025092757
-0.0016715084
4.475487E-4
-1.7632994E-4
-0.0010173413
5.1310245E-4
0.0015251378
0.0013376303
0.0014283985
9.52168E-4
0.0010571653
0.0021109814
0.0011488321
-3.9561535E-4
2.2858063E-4
5.347861E-4
-3.084862E-4
-8.544731E-4
-0.001591634
-9.780944E-4
2.4865332E-4
-3.5061216E-4
-1.205769E-4
-1.995742E-4
-0.0013936303
-1.7127294E-4
2.0585515E-4
1.0852016E-4
0.0017044618
1.9329616E-4
-9.067097E-4
0.0012723794
0.0017663483
0.0010392574
-3.2907946E-4
-9.996223E-4
2.347712E-4
-4.0345636E-4
-5.2917853E-4
9.6182455E-4
-6.3700594E-5
-4.2321833E-4
0.0014831685
0.0013548003
-0.0015069536
-0.0026740667
-2.1779462E-5
3.4556593E-4
-0.002174142
-0.0013585757
4.25041E-4
1.6642021E-4
-6.9565256E-4
-7.336431E-4
6.144691E-4
-8.604129E-5
-0.0011856863
3.3734084E-4
0.0010372654
0.002014072
0.0026562049
0.0010541575
0.0012314823
7.2845817E-4
-0.0015663021
-0.0011075545
-1.9468807E-4
-3.948784E-4
-1.7889906E-4
1.662744E-4
5.725688E-4
6.916401E-4
0.0011208163
0.0015258093
3.980474E-4
-0.0011851324
-0.0022457915
-0.0033521932
-0.0029393882
6.1133335E-4
0.001615075
-0.001833304
-0.0014077841
5.2178605E-4
-4.9188343E-4
0.001050595
0.0019550384
4.280524E-4
1.3316164E-4
-7.3453115E-4
8.699149E-5
7.378726E-4
-7.7320146E-4
5.9273496E-4
6.8158656E-4
-2.112706E-4
0.0017825011
0.0014286625
8.7099615E-4
9.033972E-4
-0.0012042662
-7.121267E-4
9.235323E-4
7.853253E-4
7.033491E-4
-5.754082E-4
-0.0019499661
-2.2914179E-4
0.0016473202
-9.223726E-4
-0.0031795856
-0.0010236157
-1.8532139E-4
-9.64738E-4
-2.0546246E-4
0.0011197386
0.0021556534
6.419354E-4
-0.0011378637
-6.292288E-4
-6.1405054E-4
-4.2531922E-4
-1.8013183E-4
2.6413111E-4
0.0012419373
-2.0654907E-4
-3.7165283E-4
0.001177935
-7.277558E-4
-0.0023936308
-0.0010103597
3.5382833E-4
4.829649E-5
-1.0080336E-4
9.7584404E-4
2.1916673E-4
-1.7876115E-4
0.0018895465
0.0017819671
6.191868E-4
0.0011024494
0.0017855561
0.0013310029
-8.602618E-4
-0.0013937072
2.8009392E-5
-5.304414E-4
-0.0010638156
1.5112082E-4
6.7606376E-4
-5.540961E-4
-0.0016803136
-4.8121315E-4
8.2997954E-4
6.1731087E-4
-1.14837894E-4
-0.0016640105
-0.001723974
-2.3745128E-4
-3.6064957E-4
-4.607617E-4
-6.7717256E-4
-0.0018719519
-8.092252E-4
7.493795E-4
5.652466E-5
-6.800043E-4
-1.4720506E-4
0.0015457483
0.0028341052
0.0023261458
0.0014846885
8.803524E-4
1.1761425E-4
-1.5905849E-4
2.0482545E-4
2.9635857E-4
-2.67173E-4
-7.578174E-4
-0.0010455283
-5.9138774E-4
6.903853E-4
6.204994E-4
-5.0169695E-4
-5.1853934E-4
2.4936078E-4
5.5550353E-4
-3.1587642E-4
-0.0017400287
-0.0017268333
-2.6427396E-4
1.9485258E-4
3.203887E-4
0.0011253959
-4.6565797E-4
-0.0017426421
6.685007E-4
0.0014840232
3.509057E-4
3.225296E-4
-1.8611293E-4
-8.693137E-4
-7.178471E-4
3.6455182E-4
0.0012263599
9.408166E-4
0.0011126582
7.442726E-4
1.24294265E-5
6.533149E-5
-9.5869694E-4
-0.0011801588
-1.562042E-4
5.2710133E-5
-1.0207805E-4
-0.0021913692
-0.0033799314
-3.7890457E-4
0.0012807426
3.5425354E-4
6.5315247E-4
0.001197876
7.364521E-4
0.0011939018
0.002031181
7.467788E-4
-2.2007599E-4
1.0701522E-4
-3.8374805E-5
8.59618E-4
1.9601473E-4
-0.002208167
-0.0019285833
-0.0016973435
-0.0014020931
0.0011785739
0.0024786175
0.0015401626
-1.2692079E-4
-2.996902E-4
0.0010830482
0.0013133221
1.5889476E-4
-0.0016083902
-0.0012555543
1.5040487E-4
-0.0013995728
-0.0022997297
-8.7120506E-4
7.141783E-4
0.0013322204
2.1701895E-4
2.48923E-4
1.3943801E-4
-9.4533234E-4
2.5148378E-4
7.1022153E-4
0.0012714652
0.0029431272
0.0012540092
-9.993274E-4
-0.0016934723
-0.0013613427
-3.1659045E-4
-8.421946E-4
-9.5438954E-5
4.7296882E-4
-0.002361431
-0.0022021686
6.083342E-4
3.890487E-4
7.5933326E-4
0.0030193692
0.0016892216
5.9581886E-4
0.0042780577
0.0030916058
-0.003526353
-0.004847501
-0.0023111026
-3.7884177E-4
-4.067434E-4
-0.001811427
-2.1134614E-4
0.0018394568
0.0022883574
0.00320484
0.0019471337
-1.5372888E-4
-3.4843312E-4
2.3571018E-4
7.14751E-4
-0.0011543549
-0.0036472331
-0.0033286673
-0.0016147579
-4.924431E-4
-0.0013946001
-0.0023427708
-0.0012521239
-5.58262E-4
2.1175886E-4
0.0013770371
0.0021038512
0.0036545105
0.002257401
-0.0010315304
5.972108E-4
0.0024225456
9.4648777E-4
-3.3274473E-4
-0.002306227
-9.427408E-4
0.0041863425
0.0033919136
2.4694414E-4
0.0023070672
0.0035286944
3.556186E-5
-0.004323535
-0.0063368217
-0.0059266035
-0.0041707517
-0.0018616411
-0.0010730966
-7.165965E-4
9.30362E-4
9.8648E-4
2.2770154E-4
2.197871E-4
4.1407284E-6
0.0015421823
0.0024921258
0.0011767901
0.0016941873
0.0015396106
-2.1036404E-4
0.0017429541
0.0069353734
0.01086937
0.008504656
0.0021493044
-1.0797973E-4
-3.486374E-4
-0.002437107
-0.0050914446
-0.0074927425
-0.007060332
-0.0047036363
-0.0037567802
-0.00416928
-0.0039805965
-0.001717278
-0.0013715905
-0.0033070298
-0.0029022663
-0.001753346
-4.750166E-4
5.515834E-4
-1.6618698E-4
6.4273854E-4
0.0023221313
0.0023727214
0.0012935783
5.200692E-4
0.0014312431
4.2487623E-4
-0.0014674834
0.0010281174
0.004784419
0.008312586
0.011954839
0.010467694
0.0043725367
5.759633E-4
-0.0019420056
-0.006583282
-0.0060906773
-9.247654E-4
-0.002578711
-0.007190868
-0.004609811
0.0029086547
0.008118685
0.007984622
0.0032371648
-0.0034663144
-0.005236882
-0.0031288608
-0.0040761926
-0.0040410873
-0.0027396881
-0.0032296109
-0.0025357779
-0.0028123732
-0.0021970028
0.0031352453
0.006879718
0.0031741718
-0.0058885715
-0.009487036
-0.0021948519
0.006604596
0.007866942
0.0010830493
-0.0055916994
-0.0055550747
-0.002853134
1.1200629E-4
0.0029421155
0.0010373815
-0.0023464093
6.0938887E-4
0.005577358
0.0072347554
0.0064337784
0.0018050332
-0.0015964238
-0.0015537514
-0.0022292947
1.5537737E-5
0.0012766175
6.109544E-4
0.003344875
0.0016223877
0.002813902
0.010063728
0.0026357137
-0.009039866
-0.006564367
-0.0031597554
-0.0032986752
0.0017483429
0.0056609996
-9.137553E-7
-0.005055243
-0.002797605
-0.0022861392
-0.0019791627
0.0020547411
0.0030068601
0.0018980425
0.0019112157
-4.389612E-4
-0.0035949245
-0.0039184806
-0.0038160789
-0.0038064537
-0.0026792025
-0.0032317499
-0.0037901488
-0.0022283378
-0.0013981024
-1.9774721E-5
0.0036315217
0.007131713
0.0068125296
0.0016284233
-0.0035179418
-0.003655109
-5.4400178E-5
5.16587E-4
-0.0016119591
1.0652258E-4
0.0019278789
0.0011209738
0.0019266844
0.005534237
0.009715501
0.008717753
0.0064936373
0.006486449
-0.0012501908
-0.0101897
-0.0087971855
-0.00407979
-0.0013825693
-6.631224E-4
-4.1141556E-4
-7.6224336E-5
-0.0019585858
-0.0027898136
-4.5373387E-4
0.0023177536
0.00275983
5.614563E-4
-5.1975367E-4
-8.821485E-4
-9.858961E-4
6.346979E-4
8.318661E-4
0.001147751
0.002108267
1.4581559E-4
-0.001614072
-0.0023506815
-0.0020757501
-2.6793685E-4
-0.0024517179
-0.0052837064
-0.0037972268
-0.0030485836
-0.0028264653
-0.0016428865
-1.3764073E-4
0.0024925058
0.0025514148
0.001473302
0.0036279736
0.005201441
0.0025982293
-0.0026409966
-0.0042420872
-0.0022328596
-0.0032334826
-0.0026184653
1.0322277E-5
-0.0015581629
-0.0010229058
0.002019743
0.0029933595
0.0051843193
0.006665517
0.0076098293
0.011867562
0.014247842
0.009609452
0.0016276846
-0.004130184
-0.007793481
-0.00861693
-0.005868696
-0.004594236
-0.0031877526
9.755249E-4
0.003892803
0.0048533557
0.0019403585
-0.0049760593
-0.011457394
-0.015416772
-0.0145200435
-0.013250801
-0.015987398
-0.014604259
-0.0065708766
0.0016535617
0.0076424023
0.012934948
0.017203923
0.01790697
0.017355002
0.015142637
0.0077441954
0.0013683685
8.104872E-5
0.0013461184
0.004023904
0.0048681092
0.003086683
-4.1131236E-4
-0.0062203207
-0.008640938
-0.0013672315
0.009766594
0.01225263
0.0053828456
-0.0018793013
-0.0063619674
-0.006970519
-0.003781907
-8.570499E-4
4.0578042E-4
0.0016333783
0.0044935937
0.0030460698
-0.007908503
-0.017490922
-0.020818802
-0.024765799
-0.02630085
-0.020941311
-0.015081856
-0.016974375
-0.022084633
-0.019592715
-0.009189904
0.0042969966
0.013308453
0.015643118
0.020367337
0.027018372
0.032208458
0.03452648
0.026976977
0.017822536
0.021555822
0.036260918
0.045833454
0.038839873
0.02663479
0.013052046
-0.0046155727
-0.01202387
-0.015081406
-0.028120486
-0.042338286
-0.04772753
-0.04379661
-0.04280885
-0.04742744
-0.044514712
-0.037338194
-0.03153756
-0.02672118
-0.024505895
-0.020943953
-0.011617243
0.0108545255
0.04324775
0.06879867
0.08072705
0.08343897
0.09160924
0.09504503
0.059605982
-0.0022284526
-0.048918772
-0.05704639
-0.03557637
-0.021304963
-0.018447472
-0.010492921
-0.008343303
-0.016632983
-0.02901106
-0.04263009
-0.049562257
-0.04602121
-0.03547917
-0.023551546
-0.013372208
-0.008077175
-0.0026494914
0.013706257
0.03061244
0.044915028
0.065081075
0.072075486
0.057091173
0.03485297
0.00920441
-0.013185794
-0.017830683
-0.0142078
-0.025185376
-0.034789406
-0.024285603
-0.015588015
-0.015302695
-0.017040044
-0.019237548
-0.010893821
-4.5100832E-4
0.004801033
0.015371345
0.031025639
0.047259964
0.06494963
0.087497525
0.099447004
0.08650868
0.0642737
0.034526307
-0.004775394
-0.04969938
-0.10865253
-0.15688981
-0.16717307
-0.14863597
-0.10682946
-0.04801163
-0.0011138641
0.0057979785
0.009657006
0.03809133
0.032800436
0.011379636
0.012629767
-0.016289255
-0.05585866
-0.07339551
-0.0654346
0.004346382
0.068816334
0.092802
0.15294112
0.22319388
0.25063643
0.23264532
0.1675352
0.091227315
0.019488696
-0.08773312
-0.23038733
-0.2996025
-0.2464707
-0.17974475
-0.113004915
-0.008109272
0.060395602
0.08086369
0.093876526
0.10805214
0.110858835
0.069484316
0.03150193
0.018960843
-0.017057197
-0.0483794
-0.058014423
-0.048560023
-0.040074725
-0.09967292
-0.15327732
-0.11754641
-0.05985417
-0.014949201
0.011318566
0.02994073
0.068775855
0.06917955
0.0020164067
-0.081452146
-0.12477915
-0.08981216
-0.015707988
0.056850616
0.11110965
0.11112777
0.113627575
0.16561793
0.20478992
0.22149405
0.2164224
0.1726098
0.14393614
0.0955728
-0.05768721
-0.20865187
-0.24437104
-0.22720665
-0.20002139
-0.16334428
-0.14305757
-0.11050949
-0.045100793
0.020029718
0.064764775
0.058126803
-0.024524773
-0.1317812
-0.16617127
-0.11638623
-0.05961461
-0.0063507343
0.05430474
0.110316314
0.17969705
0.22858615
0.23846649
0.21997201
0.13627228
0.045472283
-0.011803863
-0.09731468
-0.16703367
-0.17021553
-0.13073903
-0.066061415
-0.022893371
-0.011432804
7.846495E-4
0.016588716
0.030722396
0.03016904
0.020806115
0.018591268
0.008753703
-0.009586599
-0.015765982
-0.005721747
0.012364168
0.037287448
0.05397
0.04632607
0.03506997
0.016828284
-0.01862805
-0.026998105
-0.007881494
-0.007763976
-0.023643041
-0.030922405
-0.024471343
-0.017942447
-0.025604755
-0.03873075
-0.04076576
-0.027088944
-0.009509637
0.0018573678
0.0109947575
0.01760464
0.021772921
0.026205525
0.027135793
0.02679909
0.027715173
0.023191491
0.012285278
0.0043866173
0.0026338068
-5.385772E-5
-0.0048500695
-0.009128136
-0.012895278
-0.01555332
-0.01727409
-0.016849292
-0.015656315
-0.013905605
-0.008264968
-0.0027956879
0.0014636777
0.0067265597
0.009568712
0.010242647
0.009227921
0.0072210394
0.007165677
0.0077183605
0.007639985
0.0066938344
0.0057374085
0.0051444303
0.0037148218
0.0030270456
0.0018710598
-5.4774806E-4
-0.0030243227
-0.0061817127
-0.006528352
-0.0048139617
-0.004645386
-0.0036301685
-0.0023112192
-8.161886E-4
0.0015991094
0.003113757
0.004121787
0.0024690188
-9.507259E-4
-0.001612992
-0.0013004888
-0.00112335
-0.0012614637
-0.0018422942
-0.0015309934
-0.0032295347
-0.0049215993
-0.003009883
-0.0014116837
-8.7949913E-4
-0.0028172527
-0.0063583
-0.0041166022
8.9194806E-4
0.0032077918
0.0034887535
0.0018614202
0.0019257515
0.0032890458
0.0011249539
-0.0018666977
-0.002077216
-0.0025908363
-0.0052916957
-0.0043253205
0.00149173
0.0056176675
0.0075272718
0.009107454
0.010557234
0.00990769
0.0052424097
0.0018984524
-3.613664E-4
-0.005221053
-0.008234881
-0.007565726
-0.003518324
7.784121E-4
0.001377347
0.0015460704
0.0011721713
2.7729735E-5
5.177391E-4
9.6720655E-4
8.2870224E-4
-0.0016491157
-0.005209681
-0.004604669
-0.0013805026
2.8519996E-4
-9.305604E-4
-0.0016128033
-2.7370243E-4
-6.9495686E-4
-0.001228515
-5.687161E-4
-1.896962E-4
7.43166E-4
9.571173E-4
2.1253455E-4
-8.3688274E-4
-7.046401E-4
0.0013736124
0.0011211282
-3.3069018E-4
-4.8429234E-4
-0.0022015944
-0.0028893417
-9.674932E-4
-8.094022E-4
-9.843289E-4
0.0019393392
0.004173032
0.0025906193
6.74172E-4
0.0011396331
0.0023942403
0.0025248085
0.0018012405
0.001151523
0.0020054167
0.0041519064
0.002487705
-0.0025279066
-0.0042249593
-0.003442927
-0.0027639396
-0.0010962845
-4.3288126E-4
-0.0022030598
-0.00298521
-0.0018693438
-0.0010107866
0.0011014815
0.0014822955
-0.0019247873
-9.4220473E-4
0.0021726869
0.001643368
0.0013152569
-8.864848E-5
-0.0016139569
-7.434458E-4
-5.821007E-4
-2.6203127E-4
6.659978E-4
0.0011884883
9.06553E-5
-0.00147978
5.30082E-4
0.0013041997
1.682915E-4
8.8442804E-4
-0.0015358699
-0.0029533366
7.5140264E-4
0.0012723429
-8.3158555E-4
9.12891E-5
0.001644232
9.467664E-4
-5.223989E-4
-9.970013E-4
-1.6886056E-4
0.0012514837
0.001136153
-3.5527475E-5
2.1320118E-5
5.358302E-4
2.576357E-5
-1.3084474E-4
0.0013491394
0.0011596679
-3.1708006E-4
3.099611E-4
-6.9663743E-4
-0.0029851946
-0.0028520073
-0.0018179072
2.9951788E-4
0.0015084156
9.120566E-4
0.0012571191
5.417697E-4
-5.214824E-4
2.6547708E-4
0.0011630976
0.0015410131
8.584753E-4
2.5680175E-4
7.994158E-4
8.3374145E-4
2.7614273E-4
-5.2726245E-4
-0.0010879936
-3.6550543E-4
2.1693083E-4
-0.0014298204
-0.00350099
-0.0041353875
-0.0044587995
-0.0019906238
5.891385E-4
-0.004272313
-0.008494569
-0.0044040917
0.0010349188
0.0036700915
0.0022351407
-8.968458E-4
3.4146884E-4
0.002420931
8.4764656E-4
-8.136367E-4
2.8953762E-4
0.0020846585
0.0016068313
0.0013277344
0.0031904983
0.005044468
0.0075477343
0.00793685
0.0038280452
7.813709E-4
-4.539804E-4
-6.4418593E-4
8.347983E-4
-5.455491E-4
-0.0023723037
-0.002139557
-0.0044011897
-0.0047885748
-0.0010160588
6.427423E-5
-0.0015086656
-0.0021324907
-0.0013460739
-0.0010168188
-0.0028354703
-0.0037906328
-0.0025084713
-0.0013110857
-2.4114191E-4
3.338443E-4
-3.66213E-4
-0.0010149726
-9.319448E-4
-4.8398998E-4
-2.0126309E-4
-1.9712516E-4
2.3750262E-4
9.597758E-4
0.0012483703
2.5067222E-4
-0.0010710305
1.4091165E-4
0.0019663433
0.0024593107
0.002592036
5.257286E-4
-6.7505427E-4
5.6460453E-4
-2.4405037E-5
8.143071E-4
0.0022757675
9.678634E-4
0.0014170688
0.0019724187
8.5940305E-4
4.7736565E-4
9.3923946E-4
0.0024187395
0.0020374758
0.0017638932
0.0021538355
-0.0012613841
-0.0025216069
-0.0017693294
-0.0026546184
-0.0014056171
-0.0017678613
-0.0019772623
5.050956E-4
-6.396316E-4
-0.0032600702
-0.004373705
-0.0029612563
5.8452042E-5
3.7037194E-4
6.5299025E-4
7.0904486E-4
1.9517416E-4
5.4034224E-4
-0.0022326054
-0.0034129594
-3.3863029E-4
0.0011461122
0.0012489847
0.002422114
0.0047370815
0.0024785623
-0.0018451738
3.8311785E-4
9.214474E-4
-0.0015451264
-5.910539E-4
-9.388512E-4
-1.1082538E-4
0.0023112285
9.465744E-4
-9.304018E-4
-0.0016302014
-7.214945E-4
0.0010181646
5.3046126E-4
-3.0043843E-4
-7.013576E-4
-7.820251E-4
9.2348334E-4
0.0026046068
0.0016186839
-2.3170999E-4
7.9263834E-4
0.0021312933
9.089176E-4
-2.714596E-4
-0.0015680934
-0.003120639
-0.0020275852
0.0011572231
0.0023548321
7.9096E-4
5.9409114E-4
0.0014697586
-1.0380857E-4
-0.0019255348
-8.6116075E-4
4.9629656E-4
-9.0786425E-4
-0.0015606554
-7.079946E-4
-0.0017551996
-0.0015386189
-3.7136287E-4
-9.424644E-4
-5.7265116E-4
-4.5890512E-4
1.6947632E-4
0.002323827
0.0020158924
0.0010699397
7.753833E-4
-1.404952E-4
-8.4765146E-5
6.0247E-4
9.1392617E-4
-2.9096156E-4
-0.0011012671
5.0783565E-4
5.230236E-4
-3.4155542E-4
2.341768E-4
5.7238544E-4
0.0018642652
0.0029787903
0.002286094
7.8282895E-4
-0.0011760355
-6.6141615E-4
6.9696316E-4
-0.0014164844
-0.0033922635
-0.002520209
-7.231697E-4
4.4975564E-4
2.4456717E-4
-2.2540003E-4
-1.7356049E-4
1.1229025E-4
5.675549E-4
5.5263675E-4
1.977803E-4
-1.8338578E-4
-0.0014415272
-0.0030811275
-0.0028105222
-7.438179E-4
4.929898E-4
0.001183112
0.0028630898
0.0033648068
0.001453496
-2.2363565E-4
-5.9200096E-4
-9.044973E-4
-0.0016214678
-0.0017021068
1.40485E-4
0.0014027247
3.3390196E-4
6.81764E-4
0.0019855057
0.0015833909
0.0011904354
1.1603444E-4
-0.0012539004
-2.8751887E-4
7.59604E-4
-8.070225E-5
-9.066237E-4
-2.5548172E-4
-3.2039362E-4
-0.0021869962
-0.0017927673
5.2270637E-4
0.0010608612
0.0010754255
0.0011020609
2.9224844E-4
-1.4019472E-4
7.315331E-5
7.248256E-4
0.0011841146
-8.070741E-4
-0.0027109636
-3.8351308E-4
0.0013117605
-1.1399607E-4
-4.9876265E-4
-4.730817E-4
-1.9223418E-4
1.529837E-4
-6.696841E-5
0.0012767
5.1639776E-4
-0.0011852393
3.2807447E-4
-4.126998E-4
-0.0017383967
-6.8565176E-5
7.7013916E-4
3.3386456E-4
-9.020335E-4
-8.542802E-4
-1.7394425E-5
-3.947856E-4
0.0014816542
0.0023242866
4.0360933E-4
1.2692902E-4
-4.1453558E-4
-4.2411298E-4
3.1183506E-4
-6.013023E-4
-7.668742E-5
8.608005E-4
8.242314E-4
0.0011519473
2.551368E-4
-6.585202E-4
-7.866691E-4
-7.57626E-4
-6.357476E-4
-0.0016728917
-9.0794684E-4
0.0017181508
0.0011785037
-3.2369932E-4
4.9912458E-5
5.8053364E-4
8.2605093E-4
7.914283E-5
-6.7517126E-4
-6.496458E-5
3.768587E-4
3.2507683E-4
-4.904639E-4
-8.959577E-4
7.8948017E-4
9.0314355E-4
-9.851679E-4
-0.001596615
-0.0022362862
-0.0027726279
-0.001113833
0.001364858
0.001341869
-1.8181182E-4
0.0014721161
0.002340733
-6.549426E-4
-0.0010438216
-4.2932064E-4
-0.001319701
2.3713368E-5
7.7035435E-4
4.5187818E-4
0.0014209014
0.0015347599
0.0020564196
0.003170402
0.0024981387
9.427223E-4
-9.5027365E-4
-0.0021897394
-0.0021372535
-0.0028823933
-0.0025560418
0.0012755647
0.0030337896
6.797318E-4
-2.9742657E-4
-3.9673186E-4
-7.659792E-4
3.747678E-5
-4.038494E-4
-2.3020092E-4
0.0011189458
-0.0015606197
-0.00323552
0.0014603512
0.0030376064
-0.0017979604
-0.0028467053
-3.31257E-4
-3.0458323E-4
3.0727455E-4
0.001833654
0.0019549485
2.451056E-4
-0.001833176
-9.573352E-5
4.5172675E-4
-0.0020111112
-4.1698734E-4
0.0017409548
0.0013024536
-1.5683717E-4
-0.0010683989
5.9074484E-4
5.1944144E-4
5.6980946E-4
0.001820601
1.1325425E-5
1.893654E-4
5.5855955E-4
-4.8057214E-4
1.2199416E-4
-0.0016885825
-0.0013857584
-1.5605532E-4
-0.0014809279
0.0020233602
0.0036935948
0.0012097692
7.271446E-4
-5.860643E-4
2.5818812E-5
-1.3231874E-5
-0.0029851918
-0.0017708638
1.5011827E-4
7.8475865E-4
0.0016728964
4.5779473E-4
2.813142E-4
1.052162E-4
-0.00243386
-0.0025371963
-2.8872423E-4
1.4482255E-4
-6.13664E-4
1.804603E-4
6.956346E-4
-3.2416638E-4
8.024193E-4
0.0017929098
-2.9634306E-4
-0.0013195056
-0.0019118546
-0.0020869945
8.520207E-4
0.0019639924
9.310454E-4
0.0012163038
0.0013351351
0.002127716
0.0021141632
9.0460695E-4
8.7326387E-4
-0.0013168895
-0.0036287515
-0.0023563544
-3.8181763E-4
0.0011805559
0.001629218
0.0010434546
-2.4524477E-4
-6.3185487E-4
8.2370936E-4
-6.3444406E-4
-0.0014497725
4.2977137E-4
-0.0012054495
-0.0017442527
2.7214765E-4
9.025762E-4
0.001275654
2.5030284E-4
-2.1660006E-4
3.096703E-4
-9.036256E-5
9.7846E-5
-6.7418435E-4
-9.765214E-4
5.986072E-4
0.0012356828
2.3001194E-4
-0.0016345702
-9.27016E-4
0.0011981459
0.0012853841
0.0011891867
9.570203E-4
5.901876E-4
-3.7556325E-4
-0.0012352255
2.2821466E-4
3.0452175E-5
-8.5344986E-4
7.54349E-4
9.114844E-4
-1.6780497E-4
-2.2486359E-4
7.101484E-4
0.0015378933
6.001535E-4
-2.6110507E-4
-2.541885E-4
-6.6484517E-4
-0.0012384125
-0.0014458022
-0.0016584243
-0.002520198
-0.0025325634
-0.001184675
-2.544536E-4
-1.9596971E-4
5.793012E-4
0.0021564786
0.0013543817
-1.891227E-4
-3.3353426E-4
-0.0011854686
-0.0010205131
1.9031447E-4
0.0019186664
0.003210369
0.0013311203
0.0017810762
0.0036686093
0.0022507538
0.0013005782
-1.7461875E-4
-4.1763354E-4
7.104631E-4
-0.0014794691
-0.0023133326
-0.0017370947
-6.3802063E-4
0.0014229629
1.4730704E-4
1.4005402E-4
2.3260697E-4
-0.0023968322
-0.0011871004
-0.0011901703
-0.0037241383
-0.0017943569
2.352832E-4
-8.646802E-4
-0.0012095297
7.224898E-4
0.0013553681
-1.7681166E-4
-1.0815685E-4
8.086044E-4
0.0012311195
0.0012106581
9.619986E-4
0.0010767875
-2.8216056E-4
-7.7169243E-4
6.9345644E-4
5.745544E-4
-3.1720367E-4
-0.0013143899
-8.3431427E-4
0.0015466212
0.0014582502
1.4855374E-4
1.6429065E-5
-2.7556604E-4
-5.660862E-4
-1.3219084E-5
9.4984093E-4
4.875972E-4
-5.3866644E-4
-3.085803E-4
0.0011510962
0.0021960791
1.776788E-4
-9.389608E-4
5.188757E-4
3.1788204E-5
-2.8403694E-4
-6.629182E-4
-0.0020307305
-5.238442E-4
0.0014941626
0.0022430338
7.1839325E-4
-0.002616036
-0.0013073452
5.235861E-4
-0.0016074784
-0.0017064626
-7.013779E-4
-9.0642617E-4
-7.21315E-4
-1.1404279E-4
0.0013225216
0.0018915028
6.629786E-4
-8.1020885E-4
-0.0012315315
7.403053E-6
9.99147E-4
0.0012307591
0.0010938186
0.0014491547
0.002741911
6.4250914E-4
-0.0016041496
-6.289796E-5
-6.5105304E-4
-9.477095E-4
5.041306E-4
-6.2205316E-4
-0.0010979857
-0.0015046779
-0.0020912597
-0.0010053449
-0.001230893
-8.69016E-4
-5.788559E-4
-0.0017900474
-0.0015748374
-0.0015434346
-2.0183717E-5
0.0028567433
0.0036721432
0.003991476
0.002523731
0.0018354767
0.0026257304
-0.0010054801
-0.004411154
-0.0033262465
3.2438702E-4
0.004124734
0.0042521656
0.004148335
0.004612215
0.001754967
3.518249E-5
-1.00739E-4
-0.0031648926
-0.0054579973
-0.003898455
-0.0032841642
-0.0037987123
-0.0016115874
-5.532257E-4
-0.0014861781
-4.948058E-4
7.384008E-4
5.0203304E-4
-0.0010145552
-6.917967E-4
0.0020746344
0.0016297399
5.223934E-4
0.0012271389
2.5422155E-4
2.1960333E-4
0.0012368783
0.0011193597
2.2794511E-4
-0.0015596827
-5.4485863E-4
0.0017701205
7.3648925E-4
1.0851123E-4
2.9694792E-4
-7.0756197E-4
-3.723288E-4
-1.0316542E-4
-4.91622E-4
2.8917042E-4
-6.498476E-4
-0.0024367212
-0.0016888706
-7.814268E-4
-4.0821844E-5
8.534153E-4
2.6722706E-4
3.8663356E-4
0.0014909871
0.002293287
0.0024819076
5.8551773E-4
-6.0992592E-5
0.0021328295
0.002179039
-1.0545574E-4
-0.0012526661
-0.0012061809
-9.386792E-4
5.196282E-4
9.745483E-4
-0.0020875307
-0.003047784
-4.140122E-4
0.001278761
0.002500761
0.0022691858
2.9891116E-6
-0.002041608
-0.002739353
-2.8449183E-4
0.0016268059
2.0186271E-4
-8.8560785E-4
-0.001526369
-0.0012687413
-8.730245E-4
-0.002350991
-0.00214562
-9.6004654E-4
-4.731822E-4
1.8523973E-4
-3.7870664E-4
6.28233E-4
0.0021797358
0.0010395106
0.0010402247
5.937969E-4
-0.0013805805
-6.1704475E-4
6.741533E-4
5.427183E-4
3.242831E-4
8.0082664E-4
0.0016511183
6.0088903E-4
5.4010435E-4
0.002477711
0.0011548285
4.1789227E-4
0.0038881986
0.004192547
8.073291E-5
-0.002194095