-6.929675E-4
-0.0011910467
-0.0015495572
-0.0023991195
-0.0011764289
-0.0011369765
-0.0017179121
-0.0012398276
-9.6665655E-4
-0.0014519484
-0.0025092808
-0.0018514582
-9.30528E-4
-0.0021126678
-0.0021759695
-8.8011153E-4
-5.362471E-4
-5.708849E-4
-2.9292877E-4
7.6645304E-4
0.0021963217
0.0024309654
0.0012209598
-4.632482E-4
-7.8066596E-4
0.0010757619
0.0019997123
7.718556E-4
0.0013647322
0.0030880722
0.001414444
-6.6070043E-4
8.756668E-4
0.0016180289
-7.3311577E-4
-0.0014158897
-1.044141E-4
5.049391E-4
9.7289047E-4
6.085542E-4
1.6704967E-4
0.001218799
0.0014034783
4.710383E-6
-0.0019212157
-0.0023074301
-4.135234E-4
-6.301183E-4
-0.0019006118
-0.0015505411
-0.00130612
0.0017700932
0.0030171387
-0.0037342852
-0.0064817136
-0.0011636419
9.921631E-4
-0.0017149665
-0.0044950885
-0.0036145276
1.4841247E-4
0.0015412997
0.0021334044
0.0029605858
0.001910909
0.002324566
0.0013123319
-0.0017036037
0.002299659
0.0067572515
0.0033133938
6.8896223E-4
0.0018156329
0.002042888
4.030515E-4
-8.7886944E-4
1.789383E-4
-6.132635E-4
-0.0026036424
-9.7429636E-4
2.060105E-4
6.553259E-4
0.0015081047
-0.0016016619
-0.0038743902
-0.0020836415
-0.002244342
-0.0031460633
-0.0021928432
-0.0017323551
-5.730287E-4
7.523513E-4
-3.6916943E-4
-8.7852526E-4
9.151768E-6
5.1803765E-4
0.0025078359
0.0033150283
9.3349343E-4
3.808679E-4
0.0017652406
0.0019547974
8.8796325E-5
-0.0032960575
-0.0030927837
9.0127805E-4
0.0021685716
0.0014753465
0.0013655642
-3.9908785E-4
-0.0022858973
-0.0017212926
-8.18506E-4
-0.0013633098
-0.0018180857
0.0011905449
0.005251025
0.0022415584
-0.0037191003
-0.0027483713
0.0012658001
0.0027727552
0.0016225423
-7.3286664E-4
-2.8536643E-4
5.868611E-4
-4.7292825E-4
-4.019143E-4
-0.0011140832
-0.0019324649
-3.2659833E-4
9.5717603E-4
0.0017996796
0.002030587
0.0011152105
6.609395E-4
2.1461373E-4
4.1314788E-4
5.753654E-4
-0.0015207303
-0.0022743777
2.93212E-4
0.001107173
-0.0010460663
-0.002260275
-0.0020582764
-6.068286E-4
0.001420665
0.0012810843
3.1302858E-4
-3.7306082E-4
-8.269091E-4
1.3543757E-4
9.454199E-5
-0.001424245
-0.0013971686
6.5765186E-4
7.6120277E-4
-0.0025991104
-0.0026655933
-6.8726233E-4
-0.0010951293
9.797032E-4
0.0022964298
9.3104976E-4
0.001842484
0.0014934099
5.139096E-4
0.0015545158
0.0013618607
5.6275865E-4
4.965669E-4
0.0013122574
9.441195E-4
-0.0011478892
-6.245094E-4
3.7458472E-4
4.7754718E-4
0.0022273767
0.0010795756
-0.0018390964
1.7564841E-4
0.003258953
0.0023089624
-0.001115369
-0.0050548147
-0.0057386174
-0.0021778673
-4.0878978E-4
-8.2812004E-4
-3.2504427E-4
-2.5398406E-4
4.508382E-4
0.0010652504
-9.3353516E-4
-0.0025178138
-0.0017755635
3.7859092E-4
0.002783947
0.0031285228
0.00121562
-5.503285E-5
1.6221002E-4
-3.256417E-4
-4.5857167E-5
0.0011078115
-3.9860268E-5
-8.16266E-5
0.0012414714
7.8946847E-4
0.0014816395
0.0016049704
-1.7427032E-4
-9.7004307E-4
-0.0021250872
-0.0020508543
-6.9790584E-4
-7.522077E-4
5.087703E-4
0.0017893463
0.0014226008
0.0010459018
-4.980779E-4
-9.2255085E-4
6.344514E-6
-6.4709847E-4
-8.734143E-4
-4.939141E-4
1.6302755E-4
9.125667E-4
1.8178675E-5
-1.5976962E-4
1.2643012E-4
-3.317275E-4
-5.7833054E-4
-0.0019791387
-0.0018143036
-4.7598162E-4
-0.001060118
8.417895E-5
0.0012571563
4.0697062E-4
5.249776E-4
1.91575E-4
4.1703501E-4
0.0022215284
0.00229303
0.0015327287
0.0019672299
0.0023124875
0.0020075003
0.0018263488
-1.5301138E-4
-0.0031641652
-0.0024016113
-4.789557E-4
-2.4199588E-4
6.1179127E-4
3.1710882E-4
-0.0018105347
-0.0022254118
-7.647349E-4
-0.0023093552
-0.006117692
-0.0052943444
-0.0011964286
0.0017925618
0.001443002
-0.0016325084
-8.088373E-4
0.0011042753
1.5094198E-4
8.391486E-4
7.6440925E-4
9.206549E-4
0.0038839846
0.0046493933
0.0038210612
0.00271498
0.001653406
0.002045775
0.0015082347
6.150263E-4
9.7371536E-5
-4.8040095E-4
-4.3380572E-4
-0.0018192092
-0.0023198724
4.6464687E-4
0.0019114275
-1.2415172E-4
-0.0033920314
-0.003480574
-7.5378944E-4
-0.0012817553
-0.0021535
-8.448472E-4
-0.0018564573
-0.001823639
1.0511041E-4
9.884701E-5
4.1628224E-4
-1.3239287E-4
-0.0011168983
-3.7519223E-4
-8.9001574E-4
-3.257187E-4
5.7743676E-4
-2.952725E-5
0.0018326899
0.0016271361
-6.087923E-4
9.576509E-4
0.0029928617
0.0032472787
5.414726E-4
-0.002512307
-0.0014007883
6.523607E-5
0.001545161
0.0025991306
0.0010642051
0.001234396
0.001960854
0.001894002
0.0024819442
-3.0437476E-4
-0.0035671303
-0.001829814
4.7570106E-4
5.007283E-4
6.225111E-5
-9.0670434E-4
-0.0013921107
-0.0012853951
-0.0011794787
-7.8467725E-5
-0.0016986403
-0.0041146944
-0.0019370625
-0.0015667334
-0.002119144
9.933726E-5
-7.6691736E-4
-3.6857906E-4
0.0021900919
0.0011925949
8.174065E-4
4.1799093E-4
-0.0010288468
4.3634263E-5
0.0016466805
0.0025719951
0.0019878224
8.4303156E-4
0.0019251959
0.002168317
1.926141E-4
-3.0214112E-4
7.06125E-4
-5.509581E-4
-0.0021298514
1.0278014E-4
0.0022233075
0.0018549212
0.0028044214
0.0047205826
0.0020271346
-0.004686329
-0.0073002814
-0.006731754
-0.0058569517
-0.0015711163
9.7556406E-4
0.0011599527
0.0033328077
0.0021427304
-0.0010591185
-4.944336E-4
0.0012240758
0.0014262055
0.0014932955
0.0024730815
0.0012806897
-3.094227E-4
0.0011897516
7.695094E-4
-5.424115E-4
5.4267875E-4
4.6428118E-4
1.3086828E-4
1.2182038E-4
-8.567947E-4
-6.745606E-4
4.6478372E-4
6.700014E-4
-2.2783138E-4
-0.0014883301
-0.0031129029
-0.004026611
-0.0017623542
0.001496053
0.0020527616
-8.844337E-5
-0.002781323
-0.0035547982
-0.00277306
-0.001548629
9.903718E-6
6.943927E-4
6.8320695E-4
0.0014099878
0.0026397717
0.0035804661
0.0041933605
0.0034141252
0.001318354
7.8158826E-4
9.5607963E-4
3.975376E-4
6.475397E-4
5.553625E-4
-7.3956477E-4
-0.0017758054
-3.0136021E-5
0.0035575256
0.0020192564
-0.0032152124
-0.004170791
-0.0012633575
0.001112437
0.0010804108
3.1572534E-4
3.901202E-6
-0.0011350331
-0.0018314546
-0.0011943876
-9.498866E-4
-0.0021406654
-0.0030459901
-0.0018651631
-3.0284532E-4
6.9669465E-4
3.0528102E-4
-0.0011340894
-2.4026378E-4
0.0015291364
0.0021069804
0.0018773999
8.336066E-5
-0.0014528559
-0.0013192511
1.2229651E-4
0.0019537427
0.0022427663
5.5465626E-4
-0.0015143586
-6.0781586E-4
2.7474939E-4
-0.0015639492
7.115265E-5
0.0028364297
0.0034716618
0.004444554
0.0018580646
-7.706872E-4
9.0824947E-4
8.673966E-4
-0.001985473
-0.004132318
-0.0025152965
3.1699386E-4
1.474416E-4
-9.6941437E-4
-0.0028313342
-0.0026395835
6.6089723E-4
0.0014848674
0.001759888
0.0018643565
-4.7854608E-4
-0.0017259765
-0.0019003426
-0.0012658245
3.1463415E-4
4.1851576E-4
-3.0317306E-4
-9.689739E-4
6.049574E-4
0.0049704374
0.0048795566
-7.818785E-4
-0.0031967983
-0.0014671499
-1.329732E-5
0.0021553186
0.0023759806
-0.0011448759
-0.0029301357
-0.0018448214
8.4360153E-4
0.0022415647
-1.7777784E-4
-0.0010927361
-5.563748E-4
-0.0015785575
-5.7074183E-4
9.0878655E-4
8.5643434E-5
-8.743245E-4
-0.0018279561
-0.0024466063
-5.5501674E-4
0.0015667713
0.0012209071
0.0021485684
0.003304535
0.0013175176
4.060534E-4
-1.6024137E-4
-0.0012872604
-4.1847487E-4
-5.097792E-4
-0.0013281724
-0.0020645626
-7.8631344E-4
0.003496131
0.0024494184
-2.3459428E-4
6.4970244E-4
-0.0010278412
4.5507706E-5
0.0025200637
-3.6070793E-4
-4.1847303E-5
0.0012801308
-0.001611351
-0.0011207374
6.00761E-4
-6.0366746E-4
-7.021559E-4
-7.9358154E-4
-0.0017324903
-7.8802323E-4
-5.811135E-5
-2.3860307E-4
2.644583E-4
-4.8807258E-4
-0.0011545082
9.6949894E-5
2.3275515E-4
-5.445775E-4
2.426051E-4
0.00138454
0.0010653134
1.6089328E-4
-5.597634E-4
-7.349769E-4
5.225621E-4
0.0010929349
7.5763575E-4
0.0010762672
4.2950787E-4
2.175945E-4
0.0010417709
0.0017976692
0.0024819835
5.214307E-4
-6.436844E-4
-3.1079925E-4
-0.0033896344
-0.0037519732
-9.772979E-4
-0.0012576464
-8.176683E-4
6.7472935E-4
7.594888E-4
6.466582E-4
2.039558E-4
-3.1486974E-4
-9.503432E-4
-6.066804E-4
-2.101624E-4
-0.001969007
-0.0014153691
0.00166547
0.0025846446
0.0025418482
0.0012862779
-4.954967E-4
0.0012730141
0.001990903
-8.501023E-4
-3.6372253E-4
0.0018184711
0.0010061827
4.5958572E-4
6.0222792E-5
-0.0015679218
-0.0019255495
-0.0011477725
-1.2750537E-4
-7.3909345E-5
-0.0014695708
-0.0011490753
2.3017007E-4
4.7422166E-4
9.096208E-4
2.2251041E-4
-8.537129E-4
3.6745952E-4
2.1806144E-4
-0.0014996484
-8.4380276E-4
5.422184E-4
0.0011429893
6.819045E-4
-1.254436E-4
0.0010694308
0.0016452629
1.9176737E-4
-7.945205E-4
-0.0012107386
-7.7043736E-4
-5.417699E-4
-5.1800424E-4
0.0013535433
0.0015493918
-0.0010132982
-0.0024053315
-0.0023097266
-0.0015017356
-0.0013632077
-0.0023470314
-0.001646074
3.915595E-4
0.0017142073
0.002645697
0.0026896184
0.002590853
0.00428987
0.004626562
0.0018230758
-4.2962018E-4
-0.0016347566
-0.0015187442
-7.123428E-4
-0.0028471174
-0.0033410944
8.4157597E-4
0.0037162807
0.0029702245
-5.908228E-4
-0.0026605984
-4.1975672E-4
2.3856819E-4
-0.0012410757
-0.0014702715
-0.0015561477
-8.8285614E-4
1.6197393E-4
5.5818056E-4
0.0010102818
2.827652E-4
-0.0010032888
-2.6762235E-4
0.0025047348
0.0051320554
0.0053667272
0.0023092825
-0.0018112338
-0.002363433
-0.0011097236
-0.0031562906
-0.005896211
-0.005093509
-0.0013409432
-1.6167894E-4
-0.0037629616
-0.0045619584
-0.001971577
-0.0011016687
1.14443465E-4
0.0014215383
0.0016604833
0.0021734186
0.0038770735
0.006760795
0.006218994
0.002870415
0.0011860653
1.5849691E-4
-2.6548374E-4
-0.0016018547
-0.0031139348
-0.00129153
8.3424174E-4
0.0023419003
0.0030939546
0.0019115546
0.0024274017
0.0037662773
6.010734E-4
-0.0057961284
-0.0072869994
-0.0041375672
-0.0035643328
-0.0036173693
-0.0042170547
-0.00586078
-0.00401858
-9.1348164E-4
0.0027559442
0.0049545304
0.0040637804
0.005464944
0.006117105
0.0048328256
0.0022993172
-0.001270087
0.001375988
0.0013584439
-0.004421581
-0.002349258
0.0010280432
2.2493994E-4
7.0865493E-4
0.0016880307
0.0026551522
2.3627104E-4
-0.004037024
-0.004839739
-0.0034989722
-8.769555E-4
-1.5416605E-4
-0.001843407
-0.001829567
-4.289992E-4
5.8540876E-4
-2.3137055E-4
-5.3571095E-4
6.405956E-4
-6.594964E-4
-0.0023442754
-5.8533205E-4
0.0037139328
0.006684675
0.006854762
0.0069031864
0.0051860483
0.00130871
-0.0011609837
-9.2743355E-4
9.419325E-4
-7.216968E-4
-0.0043967306
-0.0037823576
-0.0017420964
-5.256826E-4
-0.0015410533
-0.007620949
-0.014242635
-0.016362032
-0.012935738
-0.0067545264
-0.004362829
-0.006077246
-0.0046056877
0.0028627603
0.010232489
0.01334573
0.015044102
0.016946334
0.019619446
0.023614978
0.0219403
0.011741318
0.0038512743
5.6339684E-4
-0.004240745
-0.006630489
-0.0055587683
-0.0052618785
-0.004340302
-0.0030933677
-0.0010836371
0.002385538
-5.3023285E-4
-0.0129348915
-0.026206985
-0.0335547
-0.03458872
-0.029339707
-0.017942823
-0.0041433033
0.0072883083
0.014566941
0.01859576
0.02232154
0.028403858
0.03021034
0.019933876
0.011229365
0.018012308
0.027293535
0.025229232
0.012468673
-0.0046413667
-0.0143660065
-0.013871703
-0.014630885
-0.021936795
-0.029018568
-0.02842228
-0.02136609
-0.018142557
-0.020983951
-0.020386677
-0.018821562
-0.022003667
-0.02280099
-0.02328359
-0.025390875
-0.015249979
0.007964712
0.031512916
0.050123557
0.06256346
0.06704111
0.06278774
0.048863903
0.02440081
0.0027570298
-5.1314227E-4
3.2585728E-4
-0.007257373
-0.011222297
-0.009076268
-0.006160103
-0.0014666581
-6.0260016E-4
-0.012648496
-0.02539589
-0.020122742
-0.012452458
-0.016178956
-0.018681193
-0.023172136
-0.030681195
-0.031330377
-0.030142885
-0.026498426
-0.01783193
-0.007545285
0.0031540175
0.009696756
0.018848337
0.033141527
0.037567142
0.03302963
0.028256614
0.027139334
0.0299577
0.018474093
-0.004190172
-0.008049247
-0.0047998684
-0.009280957
-0.0038887956
-0.003850131
-0.012766033
0.0015314666
0.022126868
0.026073137
0.019404134
0.0014148442
-0.009427098
-0.0049321055
-5.909682E-4
-0.0072403154
-0.043529414
-0.0883293
-0.100153446
-0.08870284
-0.06910622
-0.040463068
-0.0011507048
0.041418176
0.06466389
0.07474373
0.0816458
0.072504416
0.062289372
0.061012056
0.044110097
0.0120947175
-0.010549284
-0.019431384
-0.0181364
-4.1457024E-4
0.031348795
0.06065896
0.06869471
0.050469004
0.024124436
-0.00799742
-0.05737069
-0.090037264
-0.07886708
-0.06344398
-0.065098114
-0.063277125
-0.056290407
-0.03702825
-0.0075412164
0.0041969074
0.029017447
0.084915526
0.10017517
0.06457155
0.030528475
-0.004656635
-0.049643658
-0.08060424
-0.07473226
-0.059653897
-0.09214392
-0.14517279
-0.14203572
-0.065691635
0.0279143
0.07551336
0.097193345
0.129258
0.13827404
0.09058717
0.019630117
-0.0046462184
0.012387221
0.029624667
0.048950132
0.04247418
0.031873986
0.07135264
0.11425699
0.13160697
0.13048916
0.117948785
0.10180118
0.051467262
0.018942341
0.015647208
-0.07162552
-0.19364387
-0.26978388
-0.33765972
-0.3471214
-0.2725326
-0.18867041
-0.113269486
-0.057163473
-0.030018242
0.023483401
0.11182386
0.17979945
0.19991294
0.18971547
0.20359987
0.21918613
0.17703055
0.14264408
0.10497091
-0.01477896
-0.11009451
-0.10645266
-0.054129586
0.008486849
0.0098721795
-0.04819765
-0.08572073
-0.08818749
-0.073132575
-0.08866074
-0.13832113
-0.14509618
-0.121290706
-0.0912081
-0.0055487137
0.08154074
0.08025291
0.02476024
-0.019778444
-0.0379939
-0.05349952
-0.043176252
0.05966917
0.20384835
0.32068735
0.4122059
0.43254128
0.4082501
0.37587273
0.19939098
-0.14672774
-0.45829102
-0.5690143
-0.48411518
-0.322225
-0.18358172
-0.10397035
-0.06814788
-0.03148596
4.826257E-4
0.0065699294
0.010937371
0.020026825
0.008852438
-0.018755056
-0.029517509
-0.018886523
-0.007405344
0.0065385695
0.03133924
0.059282403
0.08108627
0.09760379
0.10880432
0.11030919
0.10767916
0.10435666
0.093655676
0.07341399
0.048784286
0.023843661
-0.0023761096
-0.024947923
-0.044665664
-0.06659395
-0.07576062
-0.07123975
-0.06660042
-0.054620262
-0.03457759
-0.015059788
0.0034877083
0.01831385
0.027340954
0.031465676
0.031624343
0.027622115
0.018657496
0.006885369
-0.0061304425
-0.018499488
-0.030059164
-0.04035747
-0.04448202
-0.045541395
-0.04536692
-0.037787568
-0.025660861
-0.013386171
-1.8441482E-4
0.012156035
0.021120517
0.026372828
0.030193035
0.030195499
0.023313902
0.017529028
0.014681164
0.009026681
0.0056814924
0.006101652
0.003340905
4.4541992E-4
0.0016033348
0.0023467424
0.0024778782
0.0030276054
9.782425E-4
-1.440326E-4
0.0017579868
0.0021972102
2.5814243E-6
-0.0038682087
-0.004442286
-5.50292E-5
0.0012859271
-3.1575025E-4
-7.063767E-4
-0.0022905977
-0.0030625337
-0.0010933452
-5.521466E-4
-0.0010859051
-2.382186E-5
-3.189924E-4
-0.0012776309
-7.2183493E-6
-4.3966723E-4
-0.0015446106
-7.458674E-4
-5.614992E-4
6.5071165E-4
7.762944E-4
1.7690585E-5
0.0034507387
0.003509478
-0.0020730158
-0.004407579
-0.0030746157
-0.0016789883
-0.0024232112
-0.004027529
-0.003797587
-0.0022991553
-2.459672E-4
-7.870946E-4
-0.0028051948
-0.001459383
-3.9600287E-4
-3.7128123E-4
0.0020196456
0.0025395667
8.610419E-4
0.0020373978
0.0038693182
0.0051654493
0.00728486
0.0046001384
-0.0012530363
-0.0022399283
-0.0019325508
-0.0017717484
0.0015991764
0.0036171784
0.0027968404
0.0024807751
0.00239747
0.0012765251
-2.735224E-4
-0.0013982556
-0.0030093433
-0.0033332629
-7.8693544E-4
3.9190162E-4
-2.4959754E-4
7.8566765E-5
-6.979785E-4
-0.0030047414
-0.0037517818
-0.0028954083
-0.0016973795
-6.62308E-4
-0.001332096
-0.001464391
6.136027E-4
3.2694408E-4
-0.0011420143
-4.1440048E-4
2.5380508E-5
-2.3181183E-4
-0.00118483
-0.0019781983
-4.29313E-4
8.535736E-4
-4.619601E-5
-0.0012115823
-8.249461E-4
3.8266304E-4
0.0012956182
0.0021744969
0.0022192346
0.0021399017
0.0012858129
-1.6178985E-4
0.0018938698
0.0022400597
-0.0014363659
-9.6409954E-4
0.0010754548
0.0010280247
0.0013758477
4.2586031E-4
-4.0217495E-4
8.043778E-4
0.0013281038
3.5168664E-4
-5.7590293E-4
-3.988356E-4
4.7729813E-4
5.8554764E-5
-0.0030005297
-0.0038496237
-1.296293E-4
0.0011741428
-2.3612018E-4
-1.6674117E-4
3.1003397E-4
4.9988704E-4
-4.885302E-4
-8.136233E-4
2.1143752E-4
-0.0011212088
-0.00231301
-0.0013010119
-3.7229303E-4
-5.119059E-4
-0.001656441
-8.6511887E-4
0.0010158683
0.001147484
6.6066266E-4
5.561702E-4
0.0023645638
0.0026060261
-2.2194412E-4
-6.5576186E-4
-0.0011733321
-0.0012923436
0.0014941966
4.9486134E-4
-0.002196649
-0.0027853802
-0.0029032566
-2.3428335E-4
0.0023083359
0.0020398207
6.04174E-4
-0.0015440125
-0.0016259897
-5.749855E-4
-4.546703E-4
7.388054E-5
0.0011750289
0.0012971936
-0.00140111
-0.0017198279
0.0010358992
-1.9710863E-4
-5.717314E-4
9.849733E-4
-9.5612614E-4
-0.0012497014
6.8949856E-4
0.0014201701
0.0013975833
1.09799796E-4
-9.612307E-4
-6.5127475E-4
2.8383257E-4
-9.637434E-4
-0.0030656257
-4.5039866E-4
0.0018384546
7.007207E-4
9.736873E-5
-0.0016077049
-0.0022652883
-5.1704835E-4
4.7919387E-4
0.0012689099
0.0014417304
0.0015362655
7.603878E-4
-8.106623E-4
0.0010208383
0.0024548003
5.0425215E-4
-0.001810747
-0.0033826784
-0.0019330449
8.964801E-5
-4.7468438E-4
-0.0010984114
-0.0013909414
-1.5897096E-4
0.0017397993
6.1003317E-4
-4.9721415E-4
1.324058E-4
1.0170735E-4
1.9230536E-4
2.655614E-4
-4.5128402E-4
-0.001080983
9.2134534E-5
0.0034001083
0.0027168074
-0.002399304
-0.0034002287
-6.303897E-4
0.0019748379
0.0028969964
0.0012088962
0.001104555
0.0011860079
-6.552477E-4
-7.467302E-4
-9.3973364E-4
-8.3692896E-5
0.0017006759
-3.5424076E-4
-0.0014624281
-1.1957284E-4
1.8602228E-5
-2.714517E-4
-9.48577E-4
-0.0015462004
-0.0021909047
-0.001539502
4.2897E-4
-3.6958157E-4
-0.001860414
-0.0016657491
-6.1702373E-4
2.57343E-4
2.8623694E-5
0.0012125863
8.30014E-4
-0.0012086495
4.0038157E-4
5.487941E-4
-1.7059642E-4
0.0015985972
6.098432E-4
2.8846844E-4
0.0024512848
0.0019175629
5.335283E-4
2.627004E-4
3.0523646E-4
0.0010281606
0.0019213578
0.0014521176
2.650867E-4
4.985263E-4
5.8764307E-4
-5.423765E-4
-0.0013088759
-0.0019180621
-0.0024340192
-0.0025481868
-0.0024137488
-0.001936133
-0.0021200576
-0.0035229393
-0.0026121275
0.0016231029
0.0028654095
0.0014808741
0.0014480435
-4.1638012E-4
-0.0017816072
-9.656686E-7
6.8620744E-4
2.846642E-4
-3.866387E-4
-2.892898E-5
0.001874864
0.001639458
4.922563E-4
2.0045854E-6
-4.1253254E-5
0.001514319
0.002186737
0.0014914221
4.2353096E-4
-0.0015443318
-0.0016725307
2.4805678E-4
4.0301663E-4
-0.0012053336
-0.0010330364
9.1689406E-4
0.0015149775
6.1758E-4
-5.646931E-4
-7.4650254E-4
4.3777958E-4
0.0012670856
8.147964E-4
-0.0013314196
-0.0020028686
1.4106026E-4
-3.0182896E-4
-0.0018030987
-7.180116E-4
-6.2543206E-4
-0.0013546449
-9.5095224E-4
-0.001166622
-0.0013703222
-5.147038E-4
-0.0010003196
-0.0016018017
5.207012E-4
5.933536E-4
-0.0019146383
-4.4721793E-4
0.0028394188
0.002950785
0.0012707912
0.0010963777
0.0020318732
0.0012075499
0.001698006
0.004041154
0.0029089907
-5.5375804E-5
-0.0020453222
-0.0024255035
-5.3671276E-4
6.3045305E-4
5.224236E-4
1.369751E-4
-8.8882545E-4
-0.001059999
-2.5352737E-4
-4.7553304E-4
-0.0025027737
-0.0030414194
-0.0014712107
-0.0013384242
-5.05167E-5
0.0015839846
5.024572E-5
-1.10138724E-4
-2.4276724E-4
-0.0017905873
-8.7387377E-4
-7.852856E-4
2.7756874E-5
0.0032923147
0.0032056973
0.0025261443
0.0017765915
-0.0015580178
-0.0011506391
0.0013237939
1.9837655E-4
-0.0016420754
-0.00210591
-8.093249E-4
3.203209E-4
-2.2847386E-4
8.302574E-4
0.0019021151
-2.3021918E-5
-0.0020637948
-0.0014097535
0.0010197673
0.0011495978
-8.219183E-4
-8.332418E-4
4.94041E-6
-7.2098583E-6
-4.391479E-4
6.502662E-5
0.002383102
0.0024606604
5.607611E-4
6.4929476E-4
2.3815768E-4
-8.367825E-4
-0.0013938828
-0.0025495675
-0.0015173693
-3.385767E-4
-0.0015271215
-4.2374502E-4
6.651788E-4
-9.3295804E-4
-0.001158915
-3.635356E-4
5.679652E-4
5.879676E-4
-4.2336676E-4
0.0016875804
0.0029272905
3.278178E-4
1.6371373E-4
0.0013070019
-3.912294E-4
-0.0016651674
6.130645E-4
0.0025239028
0.0024064623
0.0034632133
8.5499923E-4
-0.003293149
-6.3276273E-4
0.0014781778
2.8969485E-5
-0.0016524006
-0.0033779775
-0.0021351904
-0.002526561
-0.0023464325
0.0014701416
-0.0010582738
-0.0032106917
1.1608384E-4
7.994795E-4
0.001123735
1.5159517E-4
-2.349299E-4
0.0029428713
3.4306513E-4
-0.0046490156
-0.0035414963
4.5920644E-4
0.0031149609
0.0010996666
-0.0012925229
0.0013317984
0.0035521623
0.0027234182
0.0016223646
-1.303695E-5
-0.0014011811
-7.4448093E-4
2.8885083E-4
7.2294817E-4
0.0011202474
6.030539E-4
3.7341844E-4
0.0010676943
0.0010389392
0.0010599676
2.832433E-4
-0.0019842717
-0.0026292403
-0.0018339438
-6.008329E-4
0.0010666536
9.5012103E-4
3.534974E-4
4.3731683E-4
-6.234751E-4
-0.0015267819
-0.0022844966
-0.002393425
-1.485805E-4
4.2038236E-4
-6.8754127E-4
-7.8061086E-5
7.6218287E-4
9.972935E-4
-5.4284388E-5
-6.2871736E-4
2.670136E-4
-0.0010003167
-0.0017562167
-2.1735812E-4
0.0010166572
0.0020518443
0.0011321878
8.859512E-4
0.00243325
2.3348718E-4
-0.0020185034
-0.0016286253
-0.0016063269
6.368631E-4
0.0026672482
0.0012096589
8.991188E-4
0.0015395106
3.8085296E-4
-7.048771E-4
-0.0015288772
-0.0017171429
-1.6761372E-4
5.4585555E-4
-2.730028E-4
-6.756494E-4
-7.0739305E-4
-7.2639843E-4
-2.694363E-4
3.796656E-4
1.0034835E-4
9.559224E-5
5.685108E-4
-2.777608E-4
-1.1791391E-4
1.7191606E-4
-9.929468E-4
4.151642E-5
7.1797444E-4
1.6039416E-4
0.0012680707
8.9416455E-4
6.094864E-5
2.941009E-4
-8.4004976E-4
-0.001630903
-3.7667435E-4
0.0016723926
0.0015179274
0.0010550324
0.0028548834
5.094041E-4
-0.003693731
-0.0022644128
-6.039686E-4
-8.702919E-4
2.0948332E-4
1.3256914E-4
-6.9713197E-4
2.3467877E-4
6.489509E-4
2.3464797E-4
8.983628E-4
6.1913795E-4
-8.892399E-4
-0.0010458572
-5.4747734E-4
-3.1670678E-4
3.3763933E-4
0.0011482696
3.5472735E-4
-0.0017306557
-0.001383283
3.028152E-4
-9.875274E-5
-0.0010630933
-0.0011516848
-1.4196505E-4
9.0751855E-4
7.182823E-4
0.0015032977
0.0028873605
0.0018936679
-6.1804E-4
-0.0012511376
0.0011301534
0.0019463099
-7.232918E-4
-0.0015968361
1.8295484E-4
0.0012419563
7.028753E-4
-4.3772048E-4
-1.8948498E-4
1.233511E-5
-6.7908026E-4
5.5775983E-4
8.2533265E-4
-0.0013206794
-0.0017095844
-0.0014590463
-6.606163E-4
0.0011268833
-8.45443E-4
-0.0029221603
-1.1498707E-4
9.4628724E-4
-0.0011175254
-9.86622E-4
-1.3401272E-4
6.628314E-4
0.0023262368
0.0014485196
-6.6223094E-4
-1.8290245E-4
7.0183986E-4
7.139534E-4
1.01681304E-4
-0.0014229626
-0.0010154877
9.6244307E-4
4.7001967E-4
-0.0010621458
-3.9735128E-4
7.9684507E-4
7.6132745E-4
9.819941E-4
0.0014227739
6.865201E-4
-1.4561777E-4
4.5225085E-4
0.0014740401
3.8715318E-4
-0.001194538
-4.1899487E-4
-8.6526934E-4
-0.00164564
0.0012838761
0.0016186116
-0.0012549739
-3.2282705E-4
0.0015408172
0.0013085477
-2.9532053E-4
-0.003584839
-0.004095404
-1.336427E-4
0.0023143892
-1.2754185E-4
-0.003040408
-0.0018195267
-8.649804E-5
6.400188E-4
0.0025389008
0.001958371
1.2116277E-4
-9.54597E-5
-7.2531134E-4
2.56366E-4
6.4249523E-4
-4.8360167E-4
6.000655E-4
-3.086937E-4
-3.7092058E-4
0.0026418508
0.0015273874
0.0010075225
0.002323095
0.0010768308
6.612338E-4
-0.0014173302
-0.002724281
1.9365962E-4
1.8990626E-4
-7.974593E-4
-9.0082316E-4
-0.0018162444
2.81726E-4
3.996365E-4
-0.004250503
-0.005768573
-0.0026174372
1.8525934E-4
6.9801975E-4
0.001622964
0.0014073029
-9.198451E-4
5.146114E-4
0.002668592
0.0020812876
0.0033385223
0.0026660291
-0.0013751814
-0.0019725193
-2.4269983E-4
-9.399764E-5
-2.1044673E-4
7.709853E-4
0.0018133236
0.002302358
0.0038891295
0.0058241817
0.0035417
-0.0019526803
-0.004426029
-0.004859265
-0.005346771
-0.002316373
6.9380796E-4
-7.9664524E-4
-0.00219026
-0.0017198186
-7.684925E-4
1.7647173E-4
-5.3935265E-4
-0.0011503322
5.6768133E-4
0.0022333872
0.001963289
0.0011519731
4.1521457E-4
-0.0010243307
-0.0012335222
8.4211817E-4
0.0021594805
0.0011115926
-6.359895E-4
-4.6836238E-4
8.5164385E-4
2.7023023E-4
-6.088754E-4
-1.8660117E-4
5.785213E-4
0.0012581263
-3.7523202E-4
-0.0020417175
5.0079747E-4
0.002616985
0.0010595575
-9.7277283E-4
-0.001955515
-0.0019792991
-0.001388411
-1.9419478E-4
4.02071E-4
-4.2763227E-4
-4.146324E-5
4.6389716E-4
-0.0010953197
-8.0249767E-4
0.0023254482
0.0038896585
0.0029419477
0.0015706555
1.4811284E-5
-7.710962E-4
-1.6745817E-4
-0.0012622385
-0.002533089
-0.0012038188
-0.0011714125
-0.0018517874
-6.7129877E-4
1.6818599E-4
9.352437E-4
9.5620845E-4
-2.658346E-4
4.469568E-4
0.0017902029
0.001219488
2.6248952E-5
-6.5770297E-4
-8.3650503E-4
-0.0015898843
-0.0019390618
-2.725374E-4
2.3748195E-4
-4.8439656E-4
3.6771529E-4
-1.4877836E-4
-8.607675E-4
0.0010269372
4.2654976E-4
-9.792283E-4
0.0013653872
0.002139566
7.631743E-4
7.9865806E-4
2.1465393E-4
-3.158766E-4
1.6409442E-4
-5.9015804E-4
-0.001367682
-0.0011121104
-3.0771724E-4
0.0012227426
0.0014701367
3.1609682E-4
-5.5401895E-5
2.3352788E-4
4.0210882E-4
-1.8928177E-4
-2.0868021E-4
6.847944E-4
7.840799E-5
7.0458955E-5
2.2190869E-4
-0.0021416221
-0.0016962753
7.153655E-4
-2.764346E-4
-9.717576E-4
-3.0273464E-4
1.74382E-4
0.0012063847
1.9958233E-4
-0.0019182247
-4.0394324E-4
0.003223125
0.003397249
9.796737E-5
-0.0012761867
-4.276486E-4
-7.8335125E-4
-0.0015390348
-0.0015230787
-0.0014862748
-0.0014514162
-4.5205274E-4
0.0016904651
0.0016959257
-6.9088343E-4
-1.1299627E-4
0.0012082644
-0.0012765412
-0.0017769814
9.827627E-4
0.0011832567
4.64034E-4
8.5922447E-4
3.6990107E-4
-3.0776744E-5
5.281035E-4
7.5969374E-4
3.947166E-4
0.0010387719
0.0021859705
0.0010032974
-6.872298E-4
-7.1132113E-4
-4.823697E-4
0.0010297481
0.0023712593
-3.6813653E-5
-0.0023712954
-0.0020763697
-0.0021843514
-0.0016547866
-3.6033217E-4
1.2026329E-4
0.0014330712
-4.9280014E-4
-0.005658701
-0.0039402423
0.0016044633
0.0020092211
5.296388E-4
6.009847E-4
0.0015127567
0.0016034059
-4.365352E-4
-0.0013559385
2.854477E-4
4.5628558E-4
-5.961681E-4
0.0010435049
0.0024988968
0.0012775116
0.001257969
0.0013590289
-7.7091664E-4
-0.00178371
-8.552772E-4
1.16880816E-4
0.0010924555
0.002054376
0.0011774389
-0.0012997035
-0.0018015676
-1.9610864E-4
7.4031856E-4
2.2138107E-4
-5.2458694E-4
-2.9802375E-4
-1.8993515E-4
-6.1251456E-4
-1.9476125E-4
0.0010586362
0.0011976588
-6.986743E-4
-0.0016141623
-0.0010131241
-9.143317E-4
-4.3696316E-5
4.2638424E-4
-5.4465665E-4
-6.7479885E-4
-0.0012043576
-0.0021193128
-9.791245E-4
-3.603803E-4
-6.471104E-4
0.0017873143
0.0020136544
-0.0013635514
1.2695392E-4
0.00195089
-3.8319835E-5
1.7892553E-4
-4.99619E-4
-6.898821E-4
0.0017121538
0.0013786465
0.0018513333
0.0011688157
-0.0014431985
5.912508E-4
8.9020707E-4
-4.6161684E-4
8.987902E-4
8.6800405E-4
0.0017199308
0.0025622947
0.0017283974
6.2058016E-4
-0.0023116881
-0.0024152878
-6.4925523E-4
-0.0021998785
-0.0024926777
-2.9633055E-4
1.4190766E-4
-0.0013727673
-6.702119E-4
0.001142106
-4.0119936E-5
-0.0012078228
-0.002051993