1.7233107E-4
-0.0017781359
-0.002998872
-0.0010737492
6.7854807E-4
3.929539E-4
8.618004E-5
-4.3226345E-4
0.0010716339
0.003223719
3.3050103E-4
-0.0017782728
-7.819633E-4
-0.0017256849
-0.001551018
-1.0265598E-4
0.0018269314
0.0039011652
0.0013670104
-8.125032E-4
8.8423304E-4
7.310122E-4
-4.0272513E-4
2.3950517E-5
2.0647058E-4
-7.7032874E-4
-3.280245E-4
4.9177586E-4
-0.0021433374
-0.0027492002
4.1842405E-4
0.001811681
0.001421235
-3.5971895E-4
-0.0014327706
-0.0015630709
-0.0017343353
2.124406E-4
-8.125231E-4
-0.002799947
-7.30951E-4
-3.3810252E-4
0.0011341103
0.0030353575
2.8471526E-4
-5.1254116E-4
4.2739967E-4
-5.61427E-4
-7.209378E-4
9.1751E-4
0.0016562981
8.427308E-4
0.0029337266
0.0031745303
-7.1911997E-4
-5.3776935E-4
-5.375191E-4
-0.0021453954
-0.0014940052
-0.00157789
7.176938E-4
0.002937243
0.0015333608
0.0012472038
4.4140997E-4
-0.0013843861
-0.0017753651
2.553936E-4
0.0013454822
-0.0020916066
-0.0019266751
5.268256E-4
-2.228638E-4
0.0013204139
2.83316E-4
-0.002547041
4.6883295E-5
8.458487E-4
-8.897963E-4
-5.2680046E-4
3.3964825E-4
-3.404701E-4
-0.002414396
-0.0012793472
0.0012306022
6.953582E-4
-8.188682E-5
-4.844496E-4
-3.1076517E-4
3.0314657E-4
-2.8016244E-4
-5.730111E-4
-1.2434597E-4
9.7235374E-4
0.0013263103
1.1553594E-4
3.4632857E-4
7.544595E-4
4.5188956E-4
0.0022576265
0.0032358423
7.659744E-4
-0.0012307658
-8.1411545E-4
1.8622864E-4
0.00125002
9.1794436E-4
-0.0017419624
-0.0031107217
-0.001999989
-4.139959E-4
0.0010081447
7.645217E-4
-0.00119406
-0.0018382425
8.7361965E-5
0.0011364083
-3.086933E-4
-8.261509E-4
-7.399049E-4
-8.6824875E-4
-1.3984113E-4
-7.0033775E-4
-0.0010099496
3.2164992E-4
0.0010994165
0.0016665563
0.0012648826
0.0012433293
0.0022777275
8.036034E-4
-9.0139144E-4
-0.0013905838
-0.0010958291
0.0019250443
0.0028180687
2.3539591E-4
-0.0010185009
-0.0014949313
-0.0015464845
-0.0017213165
-0.0015648527
5.8731E-4
6.891138E-4
-8.111486E-5
5.951839E-4
-0.001120003
-0.0017998122
3.5969488E-4
5.1961996E-4
-6.756454E-5
7.39251E-4
0.0017041262
0.0015434241
6.668522E-4
2.537218E-4
-0.0013283538
-0.0029814164
-0.0012793248
0.0010543811
3.3182313E-4
-9.764576E-4
3.0474874E-4
0.0017348271
0.001031345
2.1239863E-4
-4.417405E-5
-4.6587858E-4
-0.0013457249
-0.0016463967
5.966552E-5
0.0014562068
0.0013221602
0.001135985
4.397679E-4
-0.0011732402
-0.0020865006
1.6272483E-4
0.0029258998
0.0016884742
-2.0788235E-5
1.281192E-4
-2.9051048E-4
-5.195947E-4
-4.5172404E-4
-2.378955E-4
2.715758E-4
-0.0010641003
-0.0024025552
-5.750271E-4
0.0010628805
-2.4577184E-4
-3.860192E-4
8.767577E-4
-0.0012713067
-0.0020582927
0.0014936734
0.0015137879
-3.519044E-4
5.187592E-4
9.229689E-5
-8.0943963E-4
-6.448941E-4
-6.493026E-4
8.915149E-4
0.0018551049
5.5435026E-4
-2.9332243E-4
-1.8526614E-4
3.3574365E-4
-3.7059508E-4
-0.002142349
-0.0015915337
1.0435104E-4
4.119026E-4
1.7756724E-4
5.331228E-4
0.0013058097
9.0043945E-4
-1.6709004E-4
-5.892541E-4
-6.401504E-4
1.858927E-4
9.595139E-4
0.0015640514
0.0018309541
1.360399E-4
-7.3253075E-5
0.001178161
8.686494E-4
7.540167E-4
-7.706778E-4
-0.0018362288
-3.0137348E-4
-0.0017769167
-0.002697989
-2.0565258E-4
7.0260157E-4
0.0010395816
-4.1104344E-4
-0.0025759793
-0.001231622
-5.3702906E-4
-3.8095392E-4
9.810268E-4
2.2378881E-4
-5.936972E-4
9.5085654E-4
0.0016631777
-9.995091E-4
-0.002365499
4.3816707E-4
0.0014640373
6.53657E-4
0.0010068845
0.001266308
0.00207911
0.0012150857
-0.0011486249
-0.001592341
-0.0013937028
1.8943059E-4
0.001410251
5.332901E-4
9.775736E-4
-3.3469492E-4
-0.0024344411
-4.1715978E-4
8.664892E-4
5.796115E-4
0.0011681833
0.0010105885
0.0012855168
0.0010414785
-0.0012175167
-0.0023226389
-0.001108803
4.975945E-4
0.0013336121
6.2641635E-4
-0.0016862701
-0.001353632
0.0016868754
4.3141554E-4
-0.002686163
-0.0031875754
-0.0036988186
-0.0021056863
9.933589E-4
0.0013110318
0.0012618297
0.0024981978
0.0029701446
0.0016696411
9.300981E-4
0.0012772372
9.959391E-4
0.00215967
0.0018848126
-9.828709E-4
-4.0994945E-4
8.556007E-4
4.53896E-4
1.235276E-4
-6.975263E-4
1.856799E-4
1.6903703E-4
-0.001440336
-0.0011530182
-0.001597905
-0.0025306644
-0.0033897657
-0.003149891
-2.2906205E-4
-1.6357542E-4
-3.6290972E-4
0.0021394894
0.0012744626
-4.441376E-4
-3.9107812E-4
-0.0013110972
-0.0023746914
-0.0025503857
-0.0021384002
-0.0012569283
4.004396E-4
9.584729E-4
4.832366E-4
0.0012784167
0.0013308442
7.1628456E-4
1.3997786E-4
3.7829662E-4
0.0025804257
0.0021772624
0.0015400847
0.0031265242
0.002256636
0.001784051
0.0016954993
9.970575E-4
0.0022909557
0.0026083824
0.0027747857
0.00211854
5.4097135E-4
0.0025642547
0.0034167385
0.0028484715
0.0028227689
-0.0019880405
-0.007058829
-0.0076723313
-0.007190112
-0.0069701504
-0.005410146
-0.0028244054
-0.0036081192
-0.0040227165
-0.0013317876
-0.0029074706
-0.0047358642
-0.0033769875
-0.0047488394
-0.0033302547
0.0035098358
0.007249399
0.0067548114
0.0047492776
0.002657993
0.0035250569
0.0047097337
0.003414225
0.0032026682
0.0028047296
0.0012616824
0.0011195915
-9.775368E-5
-6.6808646E-4
0.0018617512
0.0041018496
0.0049255323
0.00390426
0.0023303227
-6.008462E-4
-0.0056347894
-0.006401773
-0.0050610024
-0.004670797
-0.0016927384
-8.5965125E-4
-0.0018594975
-5.275843E-4
-6.446256E-5
4.2830134E-4
8.887818E-4
-6.032552E-4
-0.0012735939
-3.2010573E-4
-2.9004022E-4
-0.0019189308
-6.1500847E-4
0.0025071115
0.0011825132
-7.0570206E-4
-7.706917E-4
-6.5739837E-4
8.2766055E-4
6.939423E-5
-0.0012494983
4.5075873E-4
9.944129E-6
-8.375012E-4
0.0011813887
0.0018814817
0.0013309859
0.0013267852
0.0016148024
0.0015257348
-1.3288744E-4
-9.975899E-4
-1.571126E-4
4.1861486E-4
0.0011358835
6.7448046E-4
-7.0163957E-4
-4.21248E-4
-3.0297082E-4
-2.5759678E-4
4.948849E-4
-6.1558274E-4
-0.0017879412
-6.21326E-4
4.5508915E-4
-5.121318E-4
-0.0014233693
4.6957278E-4
0.0025723467
0.0018763863
-4.091616E-4
-0.0021805977
-0.0014992387
-6.0733466E-4
-0.0017374506
-0.0014807376
7.407984E-5
7.828606E-5
1.1987937E-4
0.001863423
0.0031777092
0.0021699024
5.2800146E-4
-3.2401356E-4
1.3132116E-5
4.6955355E-4
-3.0041876E-4
2.8531608E-4
9.953425E-4
-2.9556663E-4
-9.1635657E-4
-0.0014999927
-0.0013979373
-9.3461986E-4
-0.0021742997
-6.6215877E-4
0.0020345952
0.0021835158
0.0021916255
0.0010137681
-3.038472E-4
-2.9458377E-5
6.7610206E-5
-6.208949E-4
-0.0021018474
-0.0011524659
9.70721E-4
1.363073E-4
4.0380337E-4
0.0016021889
9.663477E-5
-0.0010919241
-2.961142E-4
2.5837513E-4
-3.741056E-4
-3.3738813E-4
-2.1630293E-4
-0.0012866458
-0.0011682954
1.7907373E-4
0.0015577717
0.0011904801
-0.0012535618
-0.002215304
-0.002391618
-0.002000121
-2.3686206E-4
6.275795E-4
0.002231498
0.0034312364
0.00204909
0.0012393752
5.454107E-4
-3.8747524E-4
4.46793E-4
0.0011473488
-7.121275E-5
-0.0011689223
-0.0014381704
-0.0023568298
-0.0015923628
-5.069E-4
-0.0026846377
-0.0028388044
-7.1948767E-4
-5.513326E-4
4.665789E-4
0.0023389226
0.002326806
5.8843684E-4
-6.1574514E-4
2.7174845E-5
8.4238127E-4
0.0020112945
0.0029511394
0.0025894807
0.0021317715
0.0011570369
3.9156643E-4
2.937539E-4
3.2958967E-4
2.6701397E-4
-8.70165E-4
-5.717073E-5
0.0023423028
0.002256341
0.0018048957
0.0012434784
-4.9125566E-4
-0.002384505
-0.0061876536
-0.009289225
-0.0067163217
-0.0018671772
-5.5751E-4
-0.0017508377
-0.002836025
-0.0018370538
0.0030625446
0.0053398004
0.0021930863
0.0015674477
0.00277579
0.0017969377
4.1075138E-4
-0.0010068577
-7.1780285E-4
0.001664602
0.0027229555
0.0014309646
-6.3912576E-4
-0.0016109017
-0.0010541779
-1.0840271E-4
1.9701336E-4
8.771014E-4
0.0017904714
8.974057E-4
7.7173015E-4
0.0018340385
6.820621E-4
-1.599031E-4
1.6766072E-4
-6.4877985E-4
-4.652844E-4
-1.8671055E-4
-0.0017288335
-0.0013309409
-6.5875816E-4
-0.0018952652
2.313106E-4
0.0021072454
1.5753966E-4
3.061433E-5
-6.702836E-4
-9.384911E-4
0.0016415252
-2.1513294E-4
-0.0025149474
-0.0021914158
-0.003177783
-6.605893E-4
0.0019172262
6.904096E-4
0.0012635149
0.0023662727
0.0030426825
0.004165184
0.0046807034
0.003730285
-3.4022928E-4
-0.0018672135
6.58744E-5
-0.0016703135
-0.0025457707
-5.266389E-4
-0.0020552203
-0.0044695465
-0.004664226
-0.00394024
-0.0031360178
-0.0040100883
-0.0028259738
5.9538195E-4
3.9364272E-4
7.674427E-4
0.0019688616
-1.3004309E-4
-3.4203604E-4
-2.7027226E-4
-6.527119E-4
0.0017934906
0.0031323733
0.006570426
0.007820864
0.0015256059
0.0028781665
0.007613153
0.0033234973
0.0010216191
0.0024594283
0.0023804195
7.636254E-4
-0.004041332
-0.0066092536
-0.0051560546
-0.0041620675
-0.0034877849
-0.0021538227
4.915924E-4
0.0012138952
-8.010676E-4
-0.0014687384
-0.0029586498
-0.0047905436
-0.0035306823
-0.0016369306
-4.4885432E-4
8.2605206E-5
0.0010288118
0.0024758445
0.0018822092
8.399788E-4
-9.622761E-5
-7.8895054E-4
0.0012636974
0.0034443752
0.0040611876
0.0039251936
0.0031135902
0.0022916764
-5.24986E-4
-0.0025797125
-3.1845804E-4
0.001556757
0.0021844774
0.0025386363
9.899869E-4
-0.0019825397
-0.005271648
-0.004534278
-0.0016327566
-0.0032494413
-0.0035414493
0.001162006
0.0028592362
-5.909045E-4
-0.0027724905
-0.0019721873
-0.002294354
-0.001864069
1.1254242E-4
-2.1881814E-4
5.5066333E-4
0.0023914124
0.0016274626
0.0020233572
0.0038118935
0.0038451508
0.0021960514
0.0012785404
0.003979658
0.006901988
0.005936788
0.0021178813
-0.003115495
-0.0068447827
-0.0062851007
-0.0029087912
-8.3441904E-4
-0.0014071178
-0.0018080405
-0.0035115401
-0.0076171258
-0.0069254884
-0.002085708
-8.6697855E-4
4.5495288E-4
0.0044979714
0.006211993
0.0057083825
0.002138726
-0.001424662
0.0015980906
0.0042296355
0.003446886
0.0029313436
8.285978E-5
-0.0021513558
-0.0014372654
0.002215838
0.005564562
0.0011625035
-0.0023107661
-0.0019176009
-0.0045150206
-0.005629477
-0.008597505
-0.009618834
-0.0025034905
0.0013823836
0.0022768902
-0.0014037408
-0.008319347
-0.0038379692
0.0020239921
0.002509328
0.005803211
0.0069639045
0.006402527
0.0079559665
0.009892057
0.010116174
0.008661306
0.008307311
0.004184905
-0.0026346357
-0.005980439
-0.0065081343
-0.0026940838
-0.0034785913
-0.011796447
-0.013239127
-0.008016248
-0.0024811185
3.894547E-4
3.0959616E-4
0.00284376
0.004794649
0.0047974503
0.0042741103
-6.727453E-4
-0.0055937422
-0.008036404
-0.010042733
-0.008130301
-0.0025201319
0.003108461
0.006391616
0.0061886106
0.0059514334
0.010954303
0.016496232
0.013259043
0.003454331
-0.0070738583
-0.012046064
-0.008090387
-0.0052570375
-0.0073448336
-0.008299645
-0.007154224
-0.005180107
-0.004383657
-0.0018258918
0.0040795906
0.008610951
0.012940647
0.015981225
0.0133561725
0.0069757947
7.1640435E-4
-0.003893967
-0.00806782
-0.008661483
-0.005435171
-0.0037624054
-0.0017662912
-0.0015006077
-0.004875584
-0.0053315274
-0.002297135
0.0027801206
0.006947459
0.0081882365
0.010466327
0.011267737
0.006216604
-0.004839982
-0.015549836
-0.016649332
-0.011870625
-0.006237247
-8.219129E-5
0.0042759585
0.008021928
0.009159894
0.0067518074
0.004544524
0.0016617458
-8.8919984E-4
-0.0010693265
-0.0011991215
-0.0027334099
-0.0028074444
4.4193043E-4
0.0019610852
0.0012923777
0.0027325058
0.0037759107
0.001518918
-0.0027485455
-0.003170463
0.0017213209
0.003980832
0.00412108
0.0074518654
0.011222828
0.009408118
-2.6178278E-4
-0.011616968
-0.020890415
-0.025771048
-0.021706589
-0.01633393
-0.01248793
-0.004399033
9.645384E-4
0.0015398508
0.002329222
0.0016544787
0.0023730397
0.005248674
0.0049781767
0.0032237421
0.004243971
0.007148311
0.0065059187
0.0020037154
0.0036561012
0.013741292
0.024103675
0.034550212
0.04414933
0.042603422
0.03073926
0.018123457
0.0035733588
-0.016418666
-0.036531948
-0.045126826
-0.037813805
-0.028113324
-0.024793448
-0.023039507
-0.02321515
-0.023345107
-0.018502403
-0.01574858
-0.018730622
-0.018146511
-0.01375045
-0.011888946
-0.004123677
0.012779089
0.024937553
0.02828923
0.026786547
0.022270625
0.01835296
0.014890276
0.012902738
0.017776273
0.03101962
0.04451327
0.047519565
0.04232817
0.03428736
0.026664216
0.020411186
-9.342038E-4
-0.04155646
-0.076484606
-0.08995728
-0.086828925
-0.07664848
-0.061121985
-0.04259346
-0.029815415
-0.018998804
-0.003578205
0.014603697
0.03363675
0.04632033
0.053235374
0.061792124
0.06070136
0.045357365
0.034681037
0.024880221
0.0017711375
-0.02023512
-0.035141826
-0.035162292
-0.008740274
0.016560407
0.036501486
0.058764417
0.05694339
0.044075318
0.0329079
0.0092452485
-0.009953333
-0.023245439
-0.04588334
-0.07689374
-0.0998838
-0.09622059
-0.08357123
-0.069102295
-0.04851393
-0.03612127
-0.010168911
0.03486516
0.06397436
0.07400271
0.07546477
0.06715653
0.05766882
0.058457572
0.04379842
0.007481761
-0.0051407153
-0.0047550923
0.0026403433
0.050743423
0.09307311
0.07466359
-0.0065296823
-0.097275466
-0.122518584
-0.11455938
-0.10024539
-0.05130867
-0.010155367
0.021612443
0.07200976
0.077709466
0.015158178
-0.04343666
-0.05984179
-0.05023309
-0.011830941
0.021359064
-0.01687349
-0.079364315
-0.09227434
-0.062541276
0.012361359
0.093462065
0.10358723
0.09638429
0.13904962
0.14720844
0.07516533
0.009486447
-0.0065246024
-0.0011114585
-0.019287208
-0.097291484
-0.16934636
-0.15366647
-0.090770155
-0.020969406
0.04106616
0.034351658
-0.0064779692
0.026586846
0.12603204
0.22194134
0.25581756
0.19419779
0.0733416
-0.049625244
-0.13030909
-0.15262297
-0.15013275
-0.16504996
-0.18892965
-0.15155369
-0.06630361
-0.0138620045
0.02716638
0.06809571
0.083732866
0.07136598
0.01511594
-0.03082617
-0.046672825
-0.06912652
-0.059780337
-0.03740868
-0.01818801
0.029141113
0.044708494
0.023980463
0.031373046
0.074968666
0.13666677
0.15538968
0.07442783
-0.04553754
-0.07104279
-0.0046309005
0.024489952
-0.0035402859
-0.031894945
-0.014740659
0.047035486
0.06559782
0.037179526
0.0047556874
-0.04525275
-0.062548116
-0.049762137
-0.06978812
-0.05478953
0.060090788
0.1919904
0.2053911
0.07722834
-0.05877244
-0.09803492
-0.08409142
-0.096147686
-0.12767771
-0.11353231
-0.046923153
0.003487851
-0.005434739
-0.058260612
-0.106788546
-0.08095386
-0.0075683407
-0.0040218495
-0.033664387
0.0072571924
0.06428766
0.07908636
0.07351718
0.06267807
0.052329615
0.038517475
0.05101065
0.09711961
0.10159992
0.06308221
0.031432748
-0.0041083526
-0.03441921
-0.05054771
-0.06286392
-0.048669882
-0.019122962
-0.007019054
-0.0069383197
-0.009728586
-0.009380147
-0.0081735635
-0.008752799
-0.0024203265
-0.0012213932
-0.008827072
-0.007960499
-0.00460728
-0.0083687855
-0.009671008
-9.281341E-4
0.011667876
0.018592542
0.021583589
0.022081349
0.018367365
0.014794974
0.009268484
0.0013758678
-0.0030239183
-0.009706557
-0.019791665
-0.022528334
-0.01962816
-0.017763706
-0.013941191
-0.009169314
-0.0060602697
-0.0019949907
3.583832E-4
0.0014049079
0.0045145378
0.0060290354
0.0064438516
0.00655349
0.0047626817
0.0036105043
9.6350705E-4
-0.0028777267
-0.003536312
-0.005116452
-0.0069604665
-0.0059563075
-0.006264112
-0.006303851
-0.005151655
-0.003739248
0.0017141346
0.0069076032
0.008455781
0.010143097
0.011790806
0.0131479725
0.011946874
0.008428058
0.007966732
0.007231673
0.0034657577
3.051061E-4
-0.0013805563
-2.8218472E-4
0.0014490787
9.8708704E-5
-0.0013697686
-9.4130595E-4
-4.0781935E-4
-9.838231E-4
-0.0024098747
-0.005627264
-0.01164282
-0.015149132
-0.011691265
-0.0052404855
-0.0017736611
-0.0024705285
-0.0033012812
-0.0021180192
-1.2801432E-4
0.0021185481
0.0054198215
0.009784259
0.00995728
0.0058656544
0.0042304937
0.0031063678
0.0012706334
0.0012621231
6.7373505E-4
1.5046685E-4
-3.159862E-4
-0.0037187655
-0.0091746515
-0.011845512
-0.0074696206
-0.0028786042
-0.0029761274
-0.001378527
2.4833466E-4
-0.0014503886
-0.0037233753
-0.0063706557
-0.0077288197
-0.0069540082
-0.0043471777
-1.8683843E-4
0.0024874068
0.005908881
0.010417229
0.010990133
0.010368375
0.009344667
0.0060917293
0.0062308367
0.008501322
0.0080799535
0.007908352
0.0062731667
0.0014185017
-0.0011921347
-0.0018226339
-0.002730981
-0.001268713
8.178166E-4
-2.57364E-4
-0.0016665792
-0.0014864085
-0.0025201838
-0.004016338
-0.0048359167
-0.0051858765
-0.0037310051
-0.003725846
-0.00539008
-0.005151454
-0.0049061747
-0.0037084674
-0.002613458
-0.003668911
-0.0020378774
-8.463343E-4
-0.00306558
-0.0034039775
-9.2984416E-4
0.0028273123
0.0050963867
0.005418622
0.0035522098
-0.0014481291
-0.0021715164
3.7765192E-5
-0.0013912041
-0.001140788
9.581417E-4
0.001618897
0.0014220696
8.3536946E-4
0.0017475691
0.0021522176
0.0024696102
0.0032994682
0.0013830055
0.0012794511
0.0030302932
0.0024132344
0.0033194197
0.0042531067
0.0016242508
-5.953191E-4
-0.0013929115
-0.0029863736
-0.0022547438
6.302663E-4
8.369352E-4
0.0022961504
0.0041539837
4.614925E-4
-0.002349641
-0.003010516
-0.004733387
-0.0038295707
-0.0012163831
9.03651E-4
-4.108879E-4
-0.004221363
-0.0032160454
-2.866967E-4
5.441158E-4
6.8282924E-4
-8.4854383E-4
-0.002243325
-0.002232943
-0.0018897197
-0.0011307972
5.1233626E-4
0.0015930627
6.3523126E-4
0.002053848
0.005062559
0.004490636
0.0018837288
-0.0013579295
-0.0012942195
0.0011884996
-9.10681E-4
-0.003049744
-0.0028088926
-0.0029868807
-5.180219E-4
0.0028237198
0.002266673
1.4882782E-4
0.0010748348
7.4589736E-4
-0.0018033946
7.3021266E-4
0.0012618431
-0.0022160714
-4.0712592E-4
3.4138182E-4
-0.0014250614
-0.0012812733
-0.0031719343
-0.0035246704
-0.001259048
-0.0019931432
-0.0046776575
-0.005156426
-0.002335974
1.13756534E-4
0.0014574074
0.0032278232
0.0036191342
0.0023547418
-8.6577894E-4
-0.0042219902
-0.0041350056
-0.0019597015
-1.5654764E-4
5.7073583E-5
-2.527154E-4
9.927425E-4
0.0024619587
0.0022746313
0.002052071
0.004056062
0.0042603463
0.0015966635
0.002172723
0.0030011747
9.0519455E-4
3.6211117E-4
7.1531525E-5
-8.403928E-4
-2.6550857E-4
4.4804328E-4
1.2532325E-4
-0.0010927775
-0.0011890773
-7.25546E-4
-0.0016899218
-6.2525E-4
0.0011990097
-3.042256E-4
-0.0011386176
2.9834951E-5
-3.305223E-5
-4.6535328E-4
-4.6843072E-4
-0.0018899706
-0.0037289339
-0.0025203582
-4.3011806E-4
-8.0485776E-4
-8.1560016E-4
-7.650659E-4
-0.0023374662
-0.0026767855
-0.0018336029
1.6261747E-5
0.0019518043
0.0012204065
9.6545863E-4
0.0013442438
9.395745E-4
0.0026890747
0.0032470766
0.0012164116
4.5321367E-4
8.27036E-6
-6.488116E-4
-9.148319E-4
-3.752272E-4
9.550537E-4
0.0011240777
7.4411696E-4
4.961448E-4
0.0011738815
0.002073043
1.01893595E-4
-5.2509154E-4
6.0006736E-5
-0.002817
-0.0026575702
4.8190192E-4
-1.2220694E-4
-0.0010319875
3.702769E-5
6.6884636E-4
-2.2879435E-4
-9.113923E-4
3.1882554E-4
3.5689346E-4
1.6510792E-4
0.0015117426
0.0012282953
0.0013451007
0.0018703641
5.9674453E-4
1.3427774E-4
-0.0010075063
-0.002540269
-0.0018412253
-9.658907E-4
-1.4514713E-4
5.3242926E-5
-2.718717E-4
-3.8306647E-5
-6.3129596E-4
-5.249613E-4
-5.740107E-4
-0.0010456787
7.1639946E-4
0.001124869
5.326839E-4
6.99474E-4
-5.2977685E-4
-2.8181606E-4
9.124156E-4
8.62373E-4
5.789206E-4
-6.4704404E-4
-8.5085555E-4
4.8371506E-4
7.431135E-4
-7.863955E-4
-0.0015731568
6.405002E-4
0.0010330788
-9.3233516E-4
-8.803935E-4
-3.4995074E-4
1.3005074E-4
-2.7141086E-4
-5.93638E-4
9.874196E-4
4.5920993E-4
-2.4846424E-5
9.027448E-4
-6.667158E-5
1.583277E-5
5.3328037E-4
3.215157E-4
0.0011934973
0.0011812389
9.0131257E-4
0.0014771873
0.0017735669
0.0016146912
9.014475E-4
-1.0307454E-4
-3.0143897E-4
9.632729E-4
0.0011564812
7.723021E-6
-6.1749393E-4
-0.002471584
-0.0031238738
-5.624186E-4
0.0010255025
6.7464326E-4
-2.2651094E-4
-0.001526119
-0.0033341474
-0.003514847
-0.0010893837
1.7572701E-4
-4.1134867E-6
-5.182277E-4
-0.0012799554
-6.89235E-4
1.7171972E-4
0.0013007094
0.0016076249
3.94374E-4
0.0012940783
0.0010145054
-0.0014419093
-5.8775564E-4
0.0010972038
8.9378667E-4
6.306203E-4
6.3104014E-4
3.077677E-4
7.8250276E-4
0.002530619
0.0017618672
-2.0499833E-4
4.6885674E-4
0.0012953149
0.0017862963
0.001974121
2.6286696E-4
-0.0018833957
-0.0021721385
-0.0012482932
-0.002528956
-0.002649101
0.0011630083
0.0027397757
0.002505001
0.0016202823
-0.0015535438
-0.0013827183
7.659346E-4
-5.874356E-4
-0.0021547463
-0.0024269572
-0.0019593423
-3.0332443E-4
-0.0010190327
-0.003960052
-0.003926421
-0.0020140365
-4.7710908E-4
0.0014051846
0.0011980436
7.241427E-4
0.0012516751
-5.7460426E-4
4.7682665E-4
0.00345524
0.0024417923
0.003086159
0.0022632363
-0.002521014
-0.002268521
-2.1778586E-4
6.121549E-4
0.0024094593
0.002213346
0.0032164936
0.0053973054
0.004209555
0.0017931729
-7.9230854E-4
-0.0027557898
-0.0033609553
-0.0027126465
-0.001198801
-0.0014239876
-8.2167477E-4
-4.8911545E-5
-0.0018526712
-0.0010730638
-1.5244953E-4
-0.0010370599
2.9370253E-4
1.6633425E-5
-0.0012804454
-0.0010644972
-7.71035E-4
9.844921E-6
-0.0020079354
-0.0038695734
-9.189414E-4
0.0012752716
0.0014329955
0.0011816273
-2.2182423E-5
-6.1177654E-4
-5.8650255E-4
-5.5527425E-4
-7.599036E-4
-1.8117442E-5
0.002280831
0.0023953316
5.5021525E-4
-1.6380714E-5
-2.3147376E-4
3.351216E-4
0.0023356068
0.0025806646
0.0016298206
0.0017155135
0.0010042563
6.2746427E-4
0.0011749842
4.7582353E-4
3.7778157E-4
2.975032E-4
-1.8493924E-4
8.157286E-4
4.4343554E-4
-2.5132607E-4
-6.133197E-4
-0.003260587
-0.002545423
0.0013234679
8.960455E-4
-0.0013877975
-0.0018418236
-0.0020409771
-0.0025841116
-0.0017494623
6.7381485E-4
5.278153E-4
-0.0016602884
-9.593429E-4
-1.6991548E-4
-0.0019237277
-0.0014853836
4.9050676E-4
-7.629081E-5
6.685281E-4
0.0031434142
0.0019169372
6.041679E-4
0.0018375637
0.0013073444
0.0010174871
9.189339E-4
-0.0016301764
-0.0010494929
0.0011786438
7.027349E-5
5.790183E-4
6.2913715E-4
-0.0024059222
-9.190983E-4
0.001979283
5.843189E-4
7.998665E-4
0.0018916923
-2.7523687E-4
-0.0012733317
-0.0015851714
-0.003787948
-0.0019965698
0.0021473758
0.0019267099
0.001510201
0.0018664441
5.241019E-4
3.6924524E-4
-2.080284E-6
-7.26785E-4
-8.295279E-4
-0.0022351395
-0.0016661055
2.1277487E-4
2.5108084E-4
0.0011458308
0.0018904166
0.0012689128
9.1395807E-4
2.5870296E-4
-5.686354E-4
-8.979064E-4
-8.259845E-4
-0.001221331
-0.0014981078
-4.6565515E-4
-2.9715346E-4
-5.9603044E-4
7.161435E-4
0.001658787
8.543842E-4
-1.05844774E-4
-2.0319489E-5
-6.330724E-4
-0.0015888384
-2.9299784E-4
0.0013375421
0.0011113904
-7.8278716E-4
-0.0017318965
2.3002093E-4
0.001021207
4.6902333E-5
-7.904255E-5
-8.904195E-5
-4.3785383E-4
-0.0017625821
-0.0011151363
0.0018638831
0.0020195523
0.0013296648
0.0011566867
6.40242E-4
0.0014377545
7.458691E-4
-7.173519E-4
-9.916958E-4
-0.0016901817
-0.001149032
-0.0012706652
-0.0020053256
1.0265484E-4
7.9395185E-4
4.917867E-7
8.8504277E-4
7.3201105E-4
3.780768E-4
0.0014053053
0.002112332
0.0022478239
8.0934266E-4
-0.0019182385
-0.0021329662
3.02929E-5
5.0129683E-4
1.6052966E-4
0.0010596396
0.0012422636
4.228701E-4
-0.0014895811
-0.0031869179
-5.379181E-4
0.002994711
0.0029193794
0.0016208686
-0.0011499958
-0.0037034033
-0.002081698
-6.050187E-4
-0.0016845893
-0.0020146018
-0.0018810318
-9.1107155E-4
6.132022E-4
-9.248005E-5
-3.6099527E-4
0.0011364385
8.457604E-4
-2.7562407E-4
1.759991E-4
9.993529E-4
9.2768465E-4
0.0010307882
0.0016614784
8.879835E-4
-1.8521334E-4
-1.486751E-4
-2.573776E-4
4.8364128E-4
5.967195E-4
-0.0011739337
-5.577871E-4
9.6701825E-4
-4.9448234E-4
-0.0027045743
-0.0035305968
-0.0020653137
2.3278997E-4
8.9362194E-4
0.0012478079
0.0015126009
0.0014317449
0.0017451644
0.0015064415
0.0010845088
5.0601794E-4
5.462692E-4
0.0022198255
0.0021870353
0.0010531134
9.966902E-4
3.3639686E-4
3.0506687E-4
-5.11405E-4
-0.0030386567
-0.002220991
4.2423335E-4
7.2484097E-4
-2.3065634E-4
-7.26783E-4
-1.9723567E-4
1.9761987E-6
-6.786809E-4
-0.0032506823
-0.0069099017
-0.005917943
-0.0030058394
-0.0035936215
-0.0034071982
-1.8659465E-4
0.0035342656
0.0048459615
0.0031543798
0.0014010316
6.272265E-4
0.002137043
0.0039720726
0.0017644028
7.635356E-4
0.0029187563
0.002441494
0.0013845337
0.0016439001
3.191109E-4
-6.527213E-4
7.8281906E-4
0.0016384289
2.9180732E-5
-0.0010439564
-1.298593E-4
2.901536E-6
-7.6783664E-4
-0.001983334
-0.0041288855
-0.0031606522
5.467243E-4
3.303193E-4
-0.0017662877
-0.0012821647
-8.9022197E-4
-7.567753E-4
-1.8577324E-4
-4.664314E-4
-5.4386456E-4
-0.0010644841
-7.6437095E-4
0.001684446
0.0017994313
2.0192678E-4
-2.7094022E-4
-3.522669E-4
4.5159136E-4
3.3904277E-4
4.0240175E-4
0.0018662417
8.145139E-4
-5.401044E-4
-5.4758193E-4
-3.7547603E-4
7.7578955E-4
2.837497E-4
1.577634E-4
0.001065819
-2.5648035E-6
0.001067274
0.0021500043
0.0011343079
0.0017427843
0.001220628
0.0012081207
0.0015658758
-0.0011351109
-0.0013761465
-9.860694E-4
-0.002069932
-2.9331047E-4
3.3403444E-4
-0.0012393604
-0.002804671
-0.003491234
-0.0010380344
-1.7553734E-4
-0.0014627321
-4.233866E-4
6.30823E-4
0.0010406178
2.1975893E-4
-0.0014477428
-1.7672093E-4
7.582807E-4
-2.3210671E-4
2.8052434E-4
4.638825E-4
4.526026E-5
5.539317E-4
7.322645E-5
-7.998958E-5
0.0016801516
0.0025251533
0.0016576931
3.8194063E-4
1.07893706E-4
0.001383482
0.0012644423
-1.6015428E-4
5.816445E-4
0.0018988735
9.1638585E-4
-5.2598515E-4
-3.954576E-5
1.3164876E-4
-8.115769E-4
-5.612689E-4
-0.0011258601
-0.0012571473
5.4750126E-4
-2.7112185E-4
-9.397994E-4
3.7921665E-4
5.034383E-4
7.7300926E-4
2.62542E-4
-6.7601784E-4
-0.00190921
-0.0033378887
-0.00126225
-5.987359E-4
-0.0017975628
-0.001201978
-0.0010513284
0.0024047215
0.0034005926
-0.0012494501
-8.8666234E-4
7.535333E-4
9.5524825E-4
9.882508E-4
-6.0116017E-4
6.926332E-4
-4.3388005E-4
-0.0021683795
4.0561217E-4
-8.071761E-5
0.0016558132
0.0032599906
-3.545802E-4
9.72186E-5
-2.8630724E-4
-0.0013631486
0.0011022455
7.29832E-6
-0.0011768969
-0.0015309918
-0.0015288013
0.0016991907
0.00203256
9.197593E-4
0.0010201114
4.2940685E-4
9.945955E-4
8.1895734E-5
-0.0012603637
-7.0100644E-4
-0.0011113214
-8.82807E-4
8.072183E-4
0.0024035575
0.002534417
3.2581566E-4
-0.0016645784
-0.0022052051
-0.001299596
3.9883694E-4
9.822286E-4
-3.411921E-5
-0.0016407288
-9.61593E-4
3.4071298E-4
-6.3797797E-4
-5.805692E-4
-2.1102684E-4
-0.0010672627
-8.1016525E-4
-5.247643E-4
2.3492378E-4
8.790509E-4
6.730086E-5
0.0011374064
0.0015997353
1.641363E-4
5.5863144E-4
-1.6665559E-4
-0.0013283824
1.0838639E-4
0.0011669068
8.494346E-4
-6.1530096E-4
-5.647676E-4
0.0016957487
0.0011285581
-1.8024763E-4
-9.347262E-5
-0.0016032467
-0.0018461111
4.7918438E-4
5.908357E-4
-0.0017257101
-0.0014206393
5.099783E-4
3.1767425E-4
1.5214735E-4
-7.0931326E-4
-0.0017502053
-2.4949293E-5
4.478676E-4
5.094865E-4
0.0011338175
-7.7390485E-4
1.3050387E-4
0.0028533752
0.0011045208
-5.559471E-4
9.6599606E-4
0.0024566306
0.0024194908
0.001331034
1.14341026E-4
4.7638768E-4