-2.8530108E-5
8.5532136E-4
7.1206136E-4
3.4602254E-4
-9.290951E-4
-4.778856E-4
9.4138196E-4
-2.3939087E-4
-9.992376E-4
-1.5806155E-4
3.408001E-4
0.001009451
4.142547E-4
-8.2015595E-4
7.814326E-4
0.0024277589
0.0014463086
5.7119795E-4
-4.411512E-4
-0.001505352
-0.0016925172
-0.0022120816
-5.0368067E-4
0.0013958158
-4.4190652E-5
-4.7882437E-4
-1.5012662E-4
9.846894E-5
4.4485388E-4
-0.0013513586
-0.0011674864
5.3012493E-5
-4.3063203E-4
4.136189E-5
-3.8041634E-4
8.3849195E-4
0.002478901
-2.0613434E-5
-5.2491797E-4
3.1220235E-4
4.602823E-4
7.199157E-4
-0.0020070216
-0.0021497176
9.2502334E-5
3.14843E-4
0.0015654974
4.963904E-4
-0.001243262
4.259937E-4
6.7158515E-4
3.0175314E-4
9.742036E-4
4.497155E-4
-6.3726254E-4
-6.865431E-4
-1.0823607E-4
-5.55515E-5
6.494934E-4
8.7944756E-4
8.3708635E-4
0.0023053272
0.0019215727
0.0015947031
0.0015305275
-0.0014519785
-0.0020548697
-0.001723145
-0.0027595835
-0.0010875058
-3.8338502E-4
-8.597689E-4
9.9439E-4
0.002476634
0.0012692956
-0.0023878098
-0.0041630506
-0.001724883
5.795961E-4
4.0975315E-4
-9.692649E-4
-4.6909548E-4
0.0016189876
0.0010553024
8.884509E-5
0.0015771597
0.0018286947
3.0122903E-5
-5.149951E-4
6.842514E-4
9.5425016E-4
-7.2883203E-4
-8.585611E-4
0.0012357107
3.9904367E-4
-0.0017635776
-2.9885932E-4
0.001174217
9.2010095E-4
9.990156E-4
1.722176E-4
-4.8734059E-4
-0.0010465373
-0.00276498
-0.0016967367
0.0013363055
0.0010399098
-8.351809E-4
-4.097678E-4
0.0010385495
9.287765E-4
4.5666812E-4
7.174632E-4
6.567908E-4
0.0014075274
0.0018682496
3.3420246E-4
4.2333562E-4
8.2652585E-4
-9.194955E-4
-6.814272E-4
-1.1748414E-4
-0.0022431565
-0.0029496497
-5.3149014E-4
0.0019546056
0.0029670896
0.0027502505
-0.0013904618
-0.0040794997
0.0011231453
-8.8703295E-4
-0.009868372
-0.00612594
0.0011417309
0.0021298258
0.002793037
9.731693E-4
3.0325624E-4
0.0015431106
2.1128294E-4
3.2164378E-4
3.095577E-4
4.1308772E-4
0.001477725
-7.119317E-4
-1.6844021E-4
0.0026081915
0.0013278766
0.001075876
0.0017903731
0.0010080227
0.0011149001
4.7326964E-4
-5.9180614E-4
-5.276603E-4
-9.793737E-5
0.0013539862
0.0020336132
3.299286E-4
-0.0011326695
-0.0013961422
-0.0015771976
-0.001527244
-4.0601706E-4
4.871267E-4
-0.0010454588
-0.002098448
-7.910334E-4
-5.567701E-4
-1.2330362E-4
0.0014690771
1.3382814E-4
-0.0012598869
8.1460044E-4
8.747776E-4
-0.0019028888
-0.0022513631
-0.0012794216
-4.8122853E-5
0.0017651328
4.0991596E-4
-6.623123E-4
0.00125558
-2.3691329E-4
-0.0015797678
8.205064E-4
-2.1126667E-4
-0.0021830816
-3.026406E-4
8.3107705E-4
0.0011260912
0.002550713
0.0021466059
0.0010006301
0.0010187388
-2.7566944E-4
-6.8016397E-4
0.0011318
0.0029062438
0.0049486244
0.0029824625
-0.0013291718
-6.638622E-4
-7.491554E-4
-0.0029274477
-0.0011854063
3.9849905E-4
-0.0013359324
-0.003096462
-0.0028543603
-0.0025116438
-0.0017232451
0.0014342462
0.0012179429
-0.0017931316
-0.0014193804
-0.0015423138
-0.0022870528
-4.6863413E-4
0.0012183433
0.0017973224
5.6179E-4
-9.6545735E-4
9.5146644E-4
0.0036141102
0.0034289218
0.0018521737
6.281961E-4
5.219299E-4
0.0011755859
-1.4135496E-4
-0.0017132749
-3.6023022E-4
-3.749584E-4
-0.0014457898
-1.9302593E-4
-5.08436E-4
-0.0011257752
4.3719015E-4
0.0010235504
0.0019047463
0.0028693785
6.786676E-4
-0.0020704833
-0.0021452792
-0.0019749217
-0.0032760825
-0.0012244117
0.0023847155
0.0012013459
0.001620258
0.0040562525
0.0011560569
-0.001281578
-0.0014858227
-0.0025315278
-0.0016305535
-5.368835E-4
3.3158655E-4
3.789093E-4
-7.750056E-4
8.605568E-4
3.4755984E-4
-0.0020440612
-5.3235306E-4
1.11505375E-4
5.6777766E-4
9.24233E-4
-0.0010192607
-3.701648E-6
9.277314E-4
-4.9845636E-4
-4.809063E-4
6.9735333E-4
0.0026395272
0.0017608919
2.2910262E-6
0.0014596088
4.2406633E-4
-0.0010935452
8.2525524E-4
8.953146E-4
-9.981291E-4
-0.0018332088
-0.001667597
-0.0012979683
-9.6964097E-4
-7.0273643E-4
-0.0012646936
-0.0018607004
-0.0015374316
-5.010819E-4
8.3814404E-4
0.0013265829
5.418094E-4
1.2262419E-4
0.0011744888
5.2247685E-4
-0.0015255394
-4.495242E-4
4.902124E-4
-5.0453213E-4
3.8673895E-4
8.977573E-4
3.2569613E-5
7.822066E-4
0.0010288343
-7.9814025E-4
-0.0013059246
-3.095728E-4
0.0011938396
0.003917287
0.0038921074
0.0025215808
0.0027650464
-2.9074543E-4
-0.0013771391
6.992596E-4
-0.001222946
-8.0107484E-4
0.0010156621
-3.968131E-4
-0.0016278096
-0.0029420191
3.6382035E-4
0.0028920034
-0.0017818775
-0.00212539
-4.1850217E-4
-0.0012490556
-5.613224E-4
-0.002260234
-0.005262526
-0.0077174213
-0.005406107
7.8467E-4
-0.0041263746
-0.009954887
-0.0026999242
0.003469529
0.0042820214
0.004321252
0.0029064508
0.0028235686
0.0041042333
0.005162816
0.0050042933
0.0041398755
0.0040390254
0.0028488839
0.0014738447
0.0015933503
0.0026863033
0.0042319014
0.0031405112
3.9657453E-4
2.4120159E-4
-3.407278E-4
-0.0035226822
-0.0038471306
-7.097205E-5
0.0027150037
0.0012083532
-0.0038298273
-0.006451656
-0.0054398314
-0.005466149
-0.004195424
-0.0020696707
-0.0019237493
-4.337887E-4
7.849346E-4
7.4851327E-4
0.0013313829
0.002121566
0.005229777
0.006388807
-3.3912782E-4
-0.008406951
-0.008284128
-0.0026962217
-7.1696704E-4
4.6355592E-4
0.0036216278
0.0032034507
6.3632696E-4
-0.0016966667
-0.003735974
-0.004940352
-0.004928114
-0.0018345613
6.052455E-4
0.0017423865
0.0028124084
0.0015672368
0.0033907143
0.005448551
0.0031598776
0.0021499342
1.6555918E-4
-2.4114324E-4
0.0034761955
0.0049682786
0.005288714
0.0036076612
0.0017980344
0.0027582375
0.002679206
0.0047812117
0.0044987346
-0.001384012
-0.0026718387
-0.0024345727
-0.0038804964
-0.0037250854
-0.004399531
-0.003870288
-0.0041693836
-0.0073410813
-0.006593216
-0.003924096
-0.0024246941
7.595463E-4
0.0017760467
4.3801113E-4
0.0016319563
0.001259316
-0.002216822
-0.0031061033
-0.002103966
-0.001749061
-8.7988033E-4
3.9572513E-4
5.744178E-4
-3.9573084E-4
2.0226215E-4
0.0020389191
0.0017966449
0.0011517593
0.00218689
0.0022810653
5.5146613E-4
-1.556525E-4
-8.025679E-5
7.223763E-4
0.0034431953
0.003082869
0.0023870494
0.005845812
0.0041251956
-0.0011397386
-0.0035081205
-0.005416472
-0.0021978251
0.0031351096
0.0028663462
0.002061823
0.0046837097
0.010785101
0.0145228505
0.008143068
-0.0017490227
-0.0069792783
-0.010354826
-0.012570983
-0.0111186635
-0.009459332
-0.0069639357
-0.0022361858
-0.0023583013
-0.0033117593
-5.5465585E-4
-1.5973489E-4
0.0018948189
0.0055194213
0.0049134567
0.002649457
-5.194391E-4
-0.0021203572
-0.0028999115
-0.0055745603
-0.0053263847
-0.0020194934
0.0034954147
0.0077092163
0.0060899523
0.004821533
0.0039998204
0.0016634674
0.0011473648
0.00160082
0.003709654
0.0038438512
0.001416223
0.0012775053
-4.1552578E-4
-0.0011569582
-1.0475271E-4
-0.002854179
-0.004595396
-0.0046780994
-0.0035495213
-0.0020341862
-0.0045835716
-0.0032513156
0.0010839197
0.0018204403
0.0032556946
0.0019020606
-9.522429E-4
-4.999116E-4
-3.4010492E-4
4.6565445E-4
-6.626571E-4
-0.0044491123
-0.005917387
-0.005048714
-0.001151065
0.0024547984
0.0036249324
0.004169761
0.0039600017
0.006317824
0.0072911843
0.005450731
0.0058757598
0.0025078817
-0.0025776322
-0.0027589048
-0.001841516
-0.0020113667
-0.0041821627
-0.004418168
-0.0011913097
7.3801423E-4
0.0025499675
0.003809362
0.001544705
-0.0040979297
-0.0050557386
2.943248E-4
-0.0039000926
-0.009684825
-0.0015971875
0.004143209
0.0027905286
0.004051441
0.00471981
0.0021939224
-0.0029333713
-0.0061377804
-0.004101352
-0.0023882256
-0.0024687904
-0.0026131778
-0.0037927625
-0.004478714
-0.003252343
-5.7624734E-4
0.0029447398
0.0036789028
7.3108013E-4
-1.5190076E-4
8.6623663E-4
-5.404779E-4
-0.002686707
-0.002708052
7.5243326E-4
0.005494312
0.008559355
0.01173734
0.014481288
0.014184162
0.0117138475
0.009145536
0.005004552
-0.0031636467
-0.009791309
-0.011024755
-0.010950051
-0.0083382875
-0.0016793701
0.0010702767
-0.0042240922
-0.009258667
-0.009173978
-0.008382008
-0.009508086
-0.01301519
-0.015236715
-0.01346912
-0.010428787
-0.004441961
0.0011947181
0.0038814473
0.009964418
0.015123849
0.016849162
0.018244948
0.016731868
0.016570304
0.016499113
0.0120610725
0.008116505
0.0025263985
-0.0033485496
-0.0034605763
-0.0020407971
-0.0017686422
-0.0014959497
-4.3842284E-4
6.004976E-4
-7.3866465E-4
-0.003371884
-0.0065794233
-0.008630075
-0.008660062
-0.009004967
-0.007819533
-0.006145001
-0.006419257
-0.006826527
-0.006834398
-0.004182115
-0.0011077104
6.224651E-5
0.0030968692
0.0038068106
0.0024987964
0.0036274146
0.0025815135
0.0012214481
-6.855931E-4
-0.0057786186
-0.0076058134
-0.008054222
-0.008876938
-0.007225642
-0.005397623
-6.644111E-4
0.0050958507
0.007789208
0.011009126
0.0131912595
0.014685469
0.017439561
0.019653004
0.02158415
0.018541934
0.012131686
0.009247878
0.0055176816
0.002046986
0.002078517
-0.0022094457
-0.011591168
-0.018657513
-0.02079166
-0.019037856
-0.017636025
-0.020430984
-0.020508448
-0.013356651
-0.007032112
-0.0017568534
0.004413605
0.0067425654
0.0076326854
0.006408656
0.0015010947
-0.0015747149
-0.0033110701
-0.0016966115
0.0048364517
0.006777286
0.003337198
0.0030488938
0.0077146664
0.014013314
0.017553246
0.016191278
0.011883119
0.0035729911
-0.011012498
-0.024768637
-0.03130431
-0.032165587
-0.027798707
-0.021378163
-0.015355844
-0.007268486
5.955445E-4
0.0068760337
0.0133217685
0.019421728
0.02555699
0.031144325
0.035403308
0.038741026
0.03982141
0.0358124
0.025902657
0.013846763
-6.66777E-4
-0.019506989
-0.03215587
-0.028202256
-0.014340885
-0.0053577353
-0.0064790505
-0.014456935
-0.025906507
-0.03461767
-0.038101487
-0.037787896
-0.033311445
-0.028610112
-0.02209771
-0.012315173
-0.0059475633
0.0014322615
0.009042713
0.009356212
0.010729315
0.0154759055
0.022617638
0.033806484
0.039630536
0.04364557
0.05064752
0.05215244
0.051998463
0.048571512
0.036941938
0.0272568
0.016334726
-0.005292318
-0.032564797
-0.054255974
-0.05953168
-0.051867217
-0.045285113
-0.043724503
-0.037319988
-0.023383135
-0.017608998
-0.018665908
-0.014499245
-0.012208968
-0.008642106
-5.288055E-4
8.892921E-5
-0.0011518424
0.0038886454
0.010936576
0.016346961
0.0155418515
0.012015312
0.012390813
0.01529105
0.019314228
0.01989892
0.012345824
0.0037504493
0.0012955222
0.00233551
0.006945221
0.015633529
0.021204576
0.020550163
0.016430017
0.0121498285
0.003562647
-0.018281953
-0.041013557
-0.049095746
-0.043888196
-0.020538196
0.01483896
0.03952708
0.046744656
0.042787805
0.038145024
0.034984462
0.02352028
0.0046617896
-0.01611626
-0.027223416
-0.018232036
-0.015635177
-0.03437818
-0.04435018
-0.035545476
-0.024535665
-0.01803647
-0.014426784
-0.014658411
-0.02348744
-0.03143905
-0.028503034
-0.020798396
-0.010215902
5.9962965E-4
0.012343282
0.027119095
0.02979085
0.018769732
0.010522404
0.01760578
0.035824075
0.039150394
0.032468077
0.040884655
0.049631402
0.040119793
0.016895195
-0.0037960308
-0.0042764577
0.0043135295
-4.6272046E-4
-0.0114681
-0.011184636
-0.005593956
-0.0022378487
0.0014263099
-0.010360069
-0.035134155
-0.045602925
-0.051424794
-0.06275761
-0.059578806
-0.039730534
-0.021165054
-0.01175581
0.0016447217
0.02308483
0.035146266
0.03408392
0.030214017
0.033956442
0.04164032
0.036334943
0.021974104
0.007919625
-0.004733618
-0.010132383
-0.014130324
-0.01511831
-8.961805E-5
0.019340424
0.025713343
0.013983366
-0.006278608
-0.013475219
-0.012903479
-0.020169096
-0.024784265
-0.023734104
-0.018547138
0.004196864
0.030484121
0.029233208
0.00963906
-0.0069919345
-0.026445227
-0.03916236
-0.021698866
0.005714191
0.014035152
0.011492394
0.009840386
0.005013131
-0.012547239
-0.028376887
-0.014175632
0.012393351
0.027411988
0.03845437
0.03230985
-0.0021606197
-0.03819611
-0.05512251
-0.054123633
-0.0373418
-0.01576498
-0.0011648101
0.016856253
0.03832437
0.053326666
0.067874454
0.08448319
0.10583137
0.108957805
0.07107646
0.030066486
-0.00941536
-0.07072267
-0.11655803
-0.11239777
-0.07317365
-0.039553475
-0.018340139
-0.0042791977
-0.01615941
-0.02133464
-0.024158863
-0.049778577
-0.030528583
8.686441E-4
-0.027969047
-0.055860564
-0.054571055
-0.036427405
0.0015255144
0.036811832
0.05787712
0.06537724
0.07009133
0.06158268
0.03146672
0.019793553
0.021897322
0.021311264
0.02656886
0.028169746
0.05509812
0.08963504
0.06248793
0.011013822
-0.009016809
-0.00938929
-0.007830704
-0.013263987
-0.016963433
-0.020236433
-0.02984876
-0.016641866
0.005641127
-0.004239047
-0.013230482
-0.018230394
-0.049072217
-0.060384303
-0.06381117
-0.09850079
-0.10298859
-0.06850066
-0.034206558
-4.2536235E-4
0.009305548
0.0018326447
0.0076890364
0.013463163
0.0010906811
-0.029430727
-0.054937173
-0.06198239
-0.051738825
-0.011181584
0.054109175
0.123261996
0.17076169
0.18432285
0.16871783
0.11309111
0.053785503
0.036769837
0.028481284
0.013755807
0.021001676
0.039256174
0.0348506
0.018892346
0.017831337
0.011140785
-0.024649061
-0.09347696
-0.16384375
-0.17604
-0.13491544
-0.06551412
0.018399524
0.084005706
0.12664764
0.10770377
-0.012445456
-0.15128043
-0.22869642
-0.2561342
-0.24857157
-0.2099514
-0.15511698
-0.081525445
0.0058733267
0.082265474
0.14405824
0.18606277
0.22101395
0.25719115
0.25280035
0.22923261
0.208011
0.13191518
0.0019139057
-0.11684881
-0.15311544
-0.104840375
-0.029331323
0.05311987
0.09657684
0.090266414
0.0977612
0.126075
0.10922942
-0.018702418
-0.16732317
-0.22904651
-0.2598572
-0.26539177
-0.23756734
-0.20061968
-0.13622902
-0.09121009
-0.05872702
0.0056328573
0.073917404
0.13969421
0.1723933
0.1835541
0.21186168
0.20261954
0.14470066
0.0890518
0.071505226
0.055667803
-0.0072852117
-0.062457204
-0.08607655
-0.062284656
0.024216475
0.0787294
0.07148506
0.009526612
-0.108994015
-0.19002223
-0.20087734
-0.16893487
-0.10263086
-0.048561063
-0.023767088
-0.011256446
-0.0042834003
0.0022897788
0.005440542
0.0070886645
0.01562127
0.03751501
0.060308103
0.073253095
0.08458291
0.08907556
0.08417912
0.062229335
0.026896594
0.019074718
0.03162862
0.029466823
0.018651525
0.0098459795
0.0062519037
0.0028516178
-0.009506451
-0.027687902
-0.041675195
-0.04304426
-0.039285917
-0.036362354
-0.028613381
-0.018917032
-0.009935359
-0.0025862772
0.0016559805
0.0047388417
0.0053622276
0.0057198517
0.006828156
0.0030199795
-0.004872225
-0.013076835
-0.020009775
-0.023663925
-0.024271851
-0.022267792
-0.01763104
-0.013077011
-0.010290946
-0.008525545
-0.007853174
-0.006349107
-0.0024375697
0.0010010852
0.003194574
0.0054731653
0.0084386235
0.013915828
0.019219112
0.019335125
0.017157365
0.01559669
0.013220005
0.013107995
0.015185805
0.014674626
0.013321563
0.013691377
0.014939291
0.014957209
0.013440708
0.012418076
0.008265031
0.002818249
0.0028725013
0.0024961587
-0.0015092519
-0.0045007877
-0.007139517
-0.009294037
-0.008920793
-0.008239452
-0.009786708
-0.010111754
-0.009277308
-0.011468791
-0.012854974
-0.011995965
-0.010220912
-0.008656407
-0.011664073
-0.013093414
-0.010202137
-0.00879683
-0.005767695
-0.0026032734
-0.001948109
1.0629996E-5
0.0022603855
0.0029380794
0.0020597375
0.0023778928
0.0036520339
0.003193703
0.004025766
0.0050347955
0.003959484
0.0017678805
0.002054001
0.0057243956
0.001403545
-0.0039214715
0.003214516
0.007154368
0.00422862
0.0052230386
0.007140203
0.007671171
0.006261284
0.0049326154
0.004552905
0.0022318026
0.0022934787
0.00353482
0.0020050535
0.0013281014
0.0013818182
0.001618077
0.0024505241
0.0015035084
-2.0455054E-5
2.2478383E-4
-2.2220101E-4
-0.0025868693
-0.0030842694
-0.003032896
-0.004665923
-0.0044447947
-0.004550834
-0.006585532
-0.0065009706
-0.00459514
-0.0027714144
-0.0035700537
-0.0063979947
-0.005932392
-0.003862728
-0.0029935872
-5.1149295E-4
0.0010105803
-0.0013139718
-0.0010132676
0.0021053604
0.0013864753
0.0011087945
0.0023866445
6.7724235E-4
0.0016974226
0.0040214797
0.0021965955
0.0026992357
0.0051555024
0.0051564816
0.0055831517
0.004159222
-2.9322965E-4
-6.8488665E-4
0.0018291553
0.0013051041
8.511153E-4
-2.5302282E-4
-0.0034150232
-0.0020403396
-2.7261575E-4
-0.0016626128
-0.0012553261
-0.0024224932
-0.0029797093
-6.651347E-4
-0.0011153475
-7.5140945E-4
-5.4906483E-4
-0.0025401206
-9.5195277E-4
-3.6077524E-4
-0.0018272277
3.2633374E-4
0.0014926335
-6.529837E-5
3.1596384E-4
0.0012757655
4.7399625E-4
-5.7833608E-5
-7.500305E-4
-9.6731895E-4
0.0014242532
0.0017088926
4.563797E-4
0.0013592698
5.8284745E-4
-8.2030345E-4
-6.1734254E-4
-2.1098825E-4
-1.5279872E-4
-0.0011400646
-3.198042E-4
0.0012319891
-3.6966093E-4
-0.0021959958
-0.0014852992
-4.0344486E-4
-0.0018776788
-0.0019345975
-1.1802799E-4
-0.0019929898
-0.0025703462
-8.2463404E-4
-7.1652007E-4
-4.251422E-4
-0.0016698446
-0.0010591685
0.0015090882
-0.0015480535
-0.005014346
-0.0033611415
-9.5740275E-4
-0.0012871756
-8.466187E-4
0.0015236438
2.5485977E-4
8.915622E-4
0.004278167
0.0013948174
-0.0011365066
-3.6030155E-4
-6.8258896E-4
-1.4401227E-4
5.748771E-4
0.0014316242
4.5429493E-4
-4.6077065E-4
0.0030480202
0.003943669
0.0028122987
0.003255517
0.001456637
1.598985E-4
3.9382125E-4
0.0016953781
0.0027151788
-2.1162066E-4
-0.0010342867
0.0012608038
-8.956844E-5
-0.0030458188
-0.0033547408
-0.0012887886
-7.0625707E-4
-0.002291023
-0.0028380824
-0.0027806098
-0.0020550154
-0.0011570734
-0.0021168217
-0.0031903347
-0.003446752
-0.0030957735
-0.0022164283
-8.9544035E-4
0.0013175792
0.0018720614
0.0011953816
0.0017583913
0.0016975569
0.0023400483
0.0029191533
9.643657E-4
0.001477893
0.002232149
-7.2807254E-4
-5.590568E-4
0.0013821973
-2.507148E-4
-7.788487E-4
9.86939E-4
0.0013662047
0.0010059181
7.900022E-4
-4.5157367E-4
-0.0014504765
-6.4314564E-4
-2.1709429E-4
-0.0014931723
-0.0021714221
-3.1187994E-4
0.0020006848
0.0023840256
0.00134745
-0.0011480215
-0.0014465811
0.0012566712
3.0027764E-4
-9.143394E-4
4.6850607E-4
6.866264E-5
6.975368E-4
0.0016631222
0.0021521368
0.0025735192
8.521752E-4
0.0027230855
0.0018739661
-0.0030903928
7.316059E-4
-0.0015425837
-0.009747401
-0.002518293
0.0041362643
0.0024348819
0.0040212013
0.0023152833
-0.001016343
-3.0304107E-4
-1.4291867E-5
-7.2075607E-4
-0.001806509
-0.0012000408
3.859441E-5
-0.0016366142
-0.0022786495
-9.2200335E-4
-0.0010950832
-0.0013290626
-5.1287003E-5
3.088566E-4
-7.431873E-4
-5.263758E-4
-4.737468E-4
-0.0018418279
-9.552667E-4
5.2406883E-4
-3.0027228E-4
-3.529345E-5
3.750165E-4
-6.291213E-4
7.324267E-4
0.0014119324
-4.6377402E-4
5.741884E-4
0.0021409076
0.0017382381
0.0010643387
-9.6146186E-4
-2.8956553E-4
0.002444312
0.0014221573
8.271538E-4
0.0019957894
0.0013690114
3.28208E-4
-8.714616E-4
-0.0024059298
-0.002584695
-0.001489674
-0.0010405513
-9.237108E-4
-4.4542138E-4
-0.001696553
-0.0023694253
-9.7430905E-4
-6.833661E-4
3.6384707E-4
0.0011136368
-3.308136E-4
9.929462E-4
0.002646762
0.0010269157
-4.539002E-4
-0.0020967552
-0.0022698361
0.0010711341
0.0019675442
-2.0447944E-4
-7.9806923E-4
-5.421503E-4
-2.3320591E-4
5.962549E-4
0.0013666825
0.0010850842
-9.273698E-4
-0.001330338
3.8968795E-4
-3.221301E-4
-0.0013218952
2.6435073E-4
0.0012780394
0.0016731696
0.0014062617
-0.0012106034
-0.0021752485
-2.3326598E-4
1.5205938E-4
-5.5503426E-4
3.9872924E-5
0.001012153
0.0013096692
9.6272107E-4
0.0012236596
0.0018696142
7.097057E-4
-0.001817441
-0.0030110555
-0.0017289654
4.2786714E-4
0.0014505164
3.5162683E-4
-0.001419014
-6.433574E-4
8.9496956E-4
0.0012571586
0.0021513987
0.001541149
1.2296526E-4
3.378651E-4
-7.35088E-4
-0.0018826544
-6.1758066E-4
8.6648983E-4
0.0014777911
0.0015336577
0.0015293428
3.680829E-4
-0.0021244618
-0.0023220447
-5.4521435E-5
3.4997388E-4
-0.0011852104
-6.713029E-4
9.98991E-4
0.0013098248
0.0011007632
3.728831E-4
5.2130496E-4
8.2584476E-4
-8.196286E-4
-7.566388E-4
2.847641E-4
-7.077742E-4
-8.8230445E-4
0.0011463688
0.0022762152
-5.7335035E-4
-0.0013661395
0.0020776703
8.3109835E-4
-0.0011700251
9.3076564E-4
0.0011195615
1.5404346E-5
-7.7702757E-4
-0.001097916
-3.5242754E-4
1.9706339E-4
3.1405938E-4
-0.0015394542
-0.002501386
-0.0010186066
-5.2685533E-5
0.0012805193
3.5511035E-5
-0.0016137603
0.0014693175
0.0028796203
0.0011825352
-0.0011145867
-0.0029329886
-0.001267325
-3.2890734E-5
-6.281427E-4
-3.6340143E-6
1.8971035E-4
-6.5814675E-4
-7.5304357E-4
4.3585844E-4
3.4056118E-4
-1.6342373E-4
0.0012546618
9.1062346E-4
1.6484689E-4
0.001337609
0.0011667116
2.6607836E-4
-0.0011893167
-0.0023135578
1.723792E-4
0.0025645948
0.0013969663
0.0011061737
0.0028147267
0.0019387786
8.179929E-4
0.0018381978
7.4493705E-4
-8.3090144E-4
-0.001088423
-0.0015376739
-6.296364E-4
7.302375E-5
-4.6990963E-4
-9.788421E-4
-0.0020384402
-0.0027037335
-0.0015540764
9.4784464E-4
0.0023048508
0.0012517058
-0.0025671667
-0.005072758
2.382399E-4
0.0019560948
-0.005689997
-0.005993319
-1.02709E-4
0.0020826708
0.0026199738
0.001349592
0.0014242191
0.0024954756
0.0011495323
0.0015375064
0.0017288957
4.6295748E-4
0.0011559109
0.0015574768
3.9934408E-4
-5.1134254E-4
8.1251044E-4
0.0012347456
-0.0016553459
-6.0183625E-4
0.002406512
5.06533E-4
-5.470642E-4
-5.56052E-5
-0.0014934255
-0.0012795093
-7.091677E-4
-0.0012057743
-2.4987062E-4
-4.748723E-4
-0.0011019504
4.8750668E-4
4.6924752E-4
-6.3197047E-4
-1.3591831E-4
-2.5544973E-4
-3.50785E-4
0.0010306415
0.0017842605
0.0010012721
-4.1566056E-4
-0.0011152391
-3.0173277E-4
1.806505E-4
-1.4590574E-4
4.8696995E-4
6.658885E-4
9.33703E-4
0.0022805356
4.0683922E-4
-0.0014263834
4.293167E-4
-8.92235E-4
-0.003579678
-0.0016605763
0.0010228822
0.0018540815
0.0014319455
2.1219318E-4
1.1899782E-4
9.0425694E-4
3.2269698E-5
-0.0011159844
-9.040957E-6
3.9919766E-4
-1.9215599E-4
2.7810098E-4
-4.5587265E-4
-9.1030827E-4
-4.0593056E-4
-0.0014046258
-2.9059628E-4
0.0021655173
9.92493E-4
-4.8367213E-4
-2.365082E-5
-1.724978E-4
-4.0160058E-4
-3.8098585E-4
-9.0056617E-4
-3.0507325E-4
9.909595E-4
1.6107927E-4
-8.140082E-4
5.9860345E-4
9.531067E-4
1.463063E-5
0.0014250177
0.0018659781
2.0714966E-4
6.9389556E-4
5.325975E-4
-0.0012978105
-8.369606E-4
7.239982E-4
0.0017092281
9.410966E-4
-5.2427413E-4
1.8760966E-5
-6.1681174E-4
-0.0010782923
0.0011193752
5.5407104E-4
-9.508428E-4
-8.8603975E-4
-0.0024047976
-0.0024029019
-0.0016176156
-0.0026265823
-8.664902E-4
0.0018879103
0.0024094938
0.0025186616
0.0010454085
-1.4634611E-4
5.882018E-4
2.4315457E-4
6.3090766E-4
0.0010963883
-8.702983E-4
-6.979707E-4
8.056198E-4
-8.0646954E-5
-3.2447983E-4
2.256279E-4
3.245412E-4
0.0014464376
0.0015936248
-2.2159069E-4
-0.0013353075
-0.0016726224
-0.0011842701
3.179101E-4
-1.21601115E-4
-0.0012818394
-4.295778E-4
-3.8525797E-4
-9.274335E-4
-1.11558824E-4
6.5120996E-4
0.001375653
0.0012544519
5.877608E-4
0.001074831
2.0608735E-4
-0.0010531617
6.724772E-4
0.0017993787
-2.5217637E-4
-0.0019135854
-9.4679935E-4
0.0011393689
0.0021427472
0.0012623029
-1.13349815E-4
-0.0011503403
-0.0015444737
-4.570092E-4
-3.2519927E-4
-9.331906E-4
7.63738E-4
0.0011541939
3.080556E-4
0.0016207406
0.0010051088
-8.223784E-4
2.1176424E-4
2.4760715E-4
-0.0017683258
-0.0011609336
4.960632E-4
1.9083911E-4
4.8123073E-4
-7.216875E-4
-0.0029245028
-0.0010076095
-4.4344147E-4
-0.0012624803
3.086048E-4
-7.9548854E-4
-9.505166E-4
5.916988E-4
1.1353511E-4
0.0020004187
0.002650679
8.572624E-4
9.552855E-4
0.0011702026
0.0015843665
0.0010084513
0.0014438821
0.0027182475
-4.634365E-4
-0.0017907689
-6.58869E-4
-0.0015862677
-7.41123E-4
0.0011507197
0.0027995051
0.0016290853
-0.0015428243
-0.0014457684
-0.0017210132
-0.0011763619
-0.0021879477
-0.0091971895
-0.009625685
-0.0028757981
0.0018380472
0.0041474244
0.0031776228
0.0018160759
5.6341104E-4
-1.0065333E-4
0.0022682368
0.0019032602
2.3013179E-4
0.0010290594
9.923279E-4
0.0015345323
0.0026387882
0.0021578548
0.0013619643
0.0011781745
4.9406395E-4
-0.0013699894
-0.0013903474
5.1069807E-4
0.0010987873
5.622391E-4
-1.8257588E-4
-9.1003126E-4
-0.00105057
-5.865457E-4
-0.0011452124
-0.0017241745
-5.0808466E-4
-2.6802946E-4
-9.682272E-5
2.8632357E-4
-0.0013576378
-0.0020166282
-0.0024777283
-0.00162848
0.0020305666
0.0018013939
-7.1377406E-4
-9.6911524E-4
5.0433155E-4
0.002299909
5.05177E-4
-0.0015003425
-0.001095356
-0.0012930464
-1.3992979E-4
8.682553E-4
1.1068543E-4
-8.5043104E-4
-0.0016047357
5.4087106E-4
0.001962381
6.7090726E-4
0.0021694382
0.0022833657
-0.0010458715
-7.229825E-4
0.0013533949
0.0014971517
0.0019091595
0.0012818557
-4.8351142E-4
-1.8447338E-4
5.8170117E-4
-2.4433262E-4
-0.0011097302
-5.3493688E-5
0.0018901462
8.488128E-4
-0.0014310067
-0.0017057194
-0.002002945
-0.0019188465
-0.0016400616
-0.0020665878
-6.100195E-4
7.1428885E-4
3.7649672E-5
3.4144617E-4
0.0011904562
6.2792987E-4
-4.0542384E-4
-0.0013663202
-0.003216913
-0.0032978733
3.5077726E-4
0.002451597
0.0020505672
0.0017692402
7.583067E-5
2.9448478E-4
0.002664037
0.0011657585
-4.6951778E-4
9.709629E-4
0.0015110577
6.8339414E-4
-0.0010789094
-9.4269885E-4
0.0012134855
-5.8929896E-4
-0.0019796623
3.8794152E-4
7.3494803E-4
0.0010378583
0.001214148
-4.2308608E-4
1.3354323E-4
-5.047652E-4
-0.0022145656
-4.2027715E-4
8.89047E-4
5.1174103E-4
-1.5183179E-4
-6.6439674E-4
-3.6508194E-4
-0.0014351155
-0.0020206007
-5.728809E-4
9.1988046E-4
0.0017364731
2.7019126E-4
-6.124535E-4
3.8194217E-4
-2.6387098E-4
-3.4585845E-4
3.3134653E-4
5.417297E-4
0.0020467439
0.00223853
-1.4233787E-4
-0.002623999
-0.002504416
1.19838274E-4
0.0010433565
-7.3535375E-6
-0.0011366159
-0.0015453543
-2.304369E-4
0.0010240836
0.0013045288
8.3436124E-4
3.0809097E-4
7.1758294E-4
4.5127922E-4
4.5686436E-4
-1.929623E-4
-0.0028807486
-0.0015428686
0.0016147281
-4.3731285E-5
-0.0012288833
1.725093E-4
1.6222271E-5
-3.711835E-4
-3.573601E-4
-2.1830323E-4
0.001299398
0.0014290995
2.250359E-6
1.5941524E-4
5.515693E-4
2.889912E-4
-4.966943E-4
-0.0015251986
-0.0011277231
-8.258035E-4
-0.0012353726
-7.284E-4
7.015316E-4
9.981E-4
-8.1688195E-4
-2.939381E-4
0.0011230934
4.180522E-4
0.0019950697
0.0018992827
-0.00126799
-0.0010097505
2.9579995E-4
7.977256E-4
0.00131301
0.0010983862
5.282278E-4
1.2027064E-4
0.0010894996
0.0016734971
0.0010901403
-0.0010062908
-0.0032957778
-0.0012330387
5.7594683E-5
-9.087995E-4
-8.6745416E-4
-0.0013973428
3.4573316E-4
8.020191E-4
-8.389094E-5
-9.0995175E-4
-0.004779604
2.0589895E-4
0.002691373
-0.008961019
-0.008553682
4.7535117E-4
0.0031117273
0.0056788437
0.0050821938
0.0039284853
0.0034778765
0.0013587795
0.0010172474
1.6505517E-4
0.0018164035
0.0025610547
-0.0012733049
-0.0018873
-0.0015692093
-1.3330056E-5
0.0024350043
8.6430315E-4
-2.0520733E-4
-5.62019E-4