-0.0012191428
3.729276E-4
-0.0014612464
-0.0014941565
0.0010129944
-0.001682933
-0.0029182876
2.2308141E-4
4.6151388E-4
7.2250713E-4
0.0011389402
-9.3734986E-4
-0.0014189851
-6.4606714E-4
-0.0014864788
-0.0012235665
0.001251481
7.4022013E-4
-4.0880032E-4
0.0013415001
-2.7991857E-4
-0.001030602
0.0019001545
9.273228E-4
1.1618478E-4
3.9127146E-4
-2.2785571E-4
0.001218317
2.0419275E-4
2.0643522E-4
0.0037534588
0.0025483244
-2.889573E-4
-6.197684E-4
-2.126991E-4
6.9795834E-4
-8.31759E-5
-6.203316E-4
0.0012324207
0.0020253723
5.95296E-4
-6.89664E-4
-7.077832E-4
-8.381982E-4
-0.0018141998
-0.0024368512
-0.0012957209
-0.0011802755
-0.0035430014
-0.0022446585
8.350227E-4
4.923554E-4
7.976845E-4
7.5706304E-4
-0.0011840198
-0.0014024903
-7.552925E-4
-2.6349686E-4
5.987663E-4
0.0013927196
8.469845E-4
1.9614788E-4
0.0019754567
0.0030392283
0.0026602768
0.0017840636
-5.6737824E-4
-7.588339E-4
-2.3031677E-4
-0.0012366655
-6.9899147E-4
-7.091249E-4
-0.0017881233
-0.001699178
-6.4367667E-4
2.695861E-4
-6.659788E-4
-7.0606155E-4
-1.5922972E-4
-0.0018396253
-0.0010949587
0.0012619104
0.0011658545
0.001508526
0.0017976848
7.7730493E-4
0.0016997019
0.0028500366
4.835388E-4
-9.5788715E-4
0.0018259851
0.0033132688
0.0016992508
3.05233E-4
-9.5014443E-4
-0.0017393555
-9.07264E-4
-4.377256E-4
-0.00122797
-0.0015075995
-0.0012788576
-8.7732513E-4
-1.356903E-4
-3.0576135E-4
-8.4197824E-4
-8.499308E-4
-1.012991E-4
6.688237E-4
-0.0010144423
-0.001701765
3.9762404E-4
4.7978843E-4
-6.187597E-4
-0.0014217156
-0.001691618
-8.938231E-4
-9.872174E-4
5.513346E-4
0.0015921259
-8.6241047E-4
2.4393483E-4
0.0019324351
-5.3263997E-4
-9.656375E-4
-1.3311314E-4
-3.7161924E-4
-3.3026075E-4
-8.2780205E-4
-6.507302E-4
2.1056044E-4
0.0011499267
0.002239172
0.0020020024
0.0019657915
0.002482995
0.0025840485
0.0033921187
0.0028760808
0.001562645
0.0015721191
1.1521981E-4
-0.0017798003
-0.0022642263
-0.0022794616
-3.9239167E-4
0.0011616981
1.5000129E-4
-0.0013227987
-0.002220222
-0.0012081697
-0.0012240364
-0.0043765055
-0.004207128
-8.492285E-4
-1.1600166E-5
-5.7535124E-4
-4.3650946E-4
-3.0906431E-4
-0.0014844257
-0.0025078545
-5.8949925E-4
0.0012804917
7.8391837E-4
0.0019578552
0.0038377088
0.0020180007
9.2034905E-5
4.4010085E-4
6.8613584E-4
0.0020006914
0.0022200763
4.3776116E-4
0.0011168425
0.0011181334
-0.0012873892
-0.0022121177
-0.0012029547
0.0012317944
6.162306E-4
-0.0024392824
-0.0012991026
3.6453575E-4
1.7013881E-4
7.7024696E-4
0.0011499212
5.685334E-4
-0.0021791058
-0.0031121129
7.8416255E-4
0.0024923855
6.6328596E-4
-2.693153E-4
1.3344643E-4
8.604856E-4
8.0188125E-4
3.441838E-4
-2.103419E-4
-0.0012094162
-9.802321E-4
0.001025975
0.0017602438
1.3688522E-4
-4.164634E-4
-5.360874E-4
-0.0017231114
-8.322999E-4
2.6953433E-4
-1.5674246E-4
7.325774E-4
0.0011060216
-5.718514E-4
-0.0012749028
5.9308295E-5
8.2007656E-4
2.9857634E-4
-3.5060494E-4
-0.0011645411
4.6037643E-5
0.0017409623
0.0012965031
0.0020137667
0.0019078186
-1.6511933E-4
-6.431858E-4
-6.2253565E-4
1.19035634E-4
-1.1003486E-4
-0.0028374763
-0.0028110214
-9.863821E-4
-0.0013019496
-0.0015011178
-4.3794286E-4
-3.131283E-4
-0.0012144865
-0.0014895253
-0.0019223598
-0.0011057099
0.001483455
0.0016366948
7.52902E-4
7.5947E-4
3.5273135E-4
2.3101887E-4
1.6736152E-4
5.7344855E-4
1.4127386E-4
3.0161205E-4
0.0035498762
0.0028120617
-5.3106076E-5
9.3458156E-4
9.7476033E-4
0.002332859
0.005552971
0.0054464946
0.0033529443
-2.4639908E-4
-0.0022312037
-0.0018025568
-0.0026130192
-0.0020102817
-0.0012972525
-0.0023095373
-0.0026169473
-0.0034821182
-0.0028112975
7.622257E-4
0.0022683588
4.9581853E-5
-0.0019735391
-0.0016697289
-0.002192436
-0.004078161
-0.004197466
-0.0011009771
0.0018650751
-6.563849E-5
-8.929613E-4
0.0020144104
0.0016441491
7.4501545E-4
9.4346324E-4
9.666324E-4
0.003076063
0.0029195899
0.0016883415
0.0021075902
9.254639E-4
7.8058196E-4
4.699294E-4
-7.129673E-4
9.4953104E-4
0.0019466269
0.0014939292
-2.1957343E-4
-0.0032594078
-0.0030335526
-0.002007914
-0.0025004097
-0.0021010328
-0.0010931712
7.020948E-4
0.001496021
0.0015751517
0.0025042659
0.0013616611
-2.9529696E-5
3.9081214E-4
6.9689244E-4
0.0010388223
6.3907806E-5
-0.0017250542
-0.0018613222
-0.0013952109
-3.2491484E-4
0.0012459283
0.0015061704
6.0869707E-4
-1.7308931E-4
-2.0733749E-4
-1.2214675E-4
4.8356035E-4
8.125706E-4
-0.0015213401
-0.0027638278
-0.0015093171
-0.0016454462
-8.661786E-4
1.7796039E-4
-0.0012155876
-4.7359036E-4
0.0012017931
4.3445444E-4
4.6334323E-4
0.001151653
9.1589923E-4
7.357821E-4
7.8405E-4
0.001547443
0.0023711629
0.0011931746
-9.393885E-4
-6.191834E-4
5.7736534E-4
-5.631134E-4
-0.0011620653
-0.0012387042
-0.0016927534
0.0013115073
0.0032385234
7.671282E-4
3.6383295E-4
9.335541E-4
-3.357977E-4
-7.7315175E-4
-0.0016440041
-0.0033089495
-0.0031081217
-9.648385E-4
2.728923E-4
-5.126167E-4
4.939776E-4
0.0015990558
-3.83545E-4
-3.143205E-4
7.0697995E-4
-5.0870527E-4
-5.3322132E-5
0.0013559054
0.001828769
0.0014263248
4.896836E-4
7.555873E-4
6.5287395E-4
1.8714552E-4
-4.976018E-4
-0.001501695
0.0010250168
0.0029729938
9.6257223E-4
-2.6419308E-4
-7.446827E-4
3.7100515E-5
0.0010631175
-6.275068E-4
-0.0013309038
-0.0010226186
-0.0015198604
-0.0015358039
-0.0012846605
-1.6377322E-4
3.0439615E-4
-4.2093484E-4
-7.646657E-4
-0.001255667
-8.917852E-5
5.2129466E-4
-0.0014284682
-7.625639E-4
2.8549993E-4
-2.0621032E-4
0.0015972664
0.002431296
0.0023161871
0.0031215616
0.001073511
-8.957328E-4
-0.0012153717
-0.0030274598
-0.0028852276
-1.2393901E-4
0.0017333467
0.0014914098
-6.4801384E-4
-5.1870744E-4
0.0019335157
0.0014025711
-7.847613E-4
-0.0015457685
-0.0012640984
-2.5643856E-4
-2.0277644E-4
-0.0014039065
-9.598371E-4
3.214135E-4
2.963744E-4
9.012773E-4
0.0018082126
0.0015731876
0.0011947949
1.802822E-4
-2.745289E-4
3.120435E-4
1.9978605E-5
5.232592E-4
9.776864E-4
-0.0010794227
-0.0027769436
-0.0016699707
9.304142E-4
0.0016802181
3.6610913E-4
8.3220984E-5
3.2615478E-4
7.698735E-5
5.61457E-4
8.8774605E-4
-5.828641E-4
-0.0014318327
-7.119214E-4
-0.0019042044
-0.0024176296
-4.1331772E-5
0.0010781041
9.619507E-4
-3.9095271E-4
-0.0019040674
-3.932724E-4
0.0011631933
0.0015172285
0.0011438973
2.2630107E-4
9.777208E-4
8.602001E-4
-7.337324E-4
-0.0011794118
-0.0012584729
-7.649018E-4
4.1008045E-4
0.0017377301
0.0017605774
1.4502202E-4
7.658665E-4
0.0019475913
0.001235394
0.0019529407
0.0020162042
-1.8734214E-4
-7.8456034E-4
-8.135862E-4
-0.0015640008
-0.0014369875
-0.0018827592
-0.0018446856
-7.277679E-4
-0.0015735275
-0.0011470689
0.0010616914
7.4569957E-4
3.4503665E-4
8.8234665E-4
0.0015071096
0.001426213
-8.1786874E-4
-9.055679E-4
1.8693451E-4
-8.89783E-4
-3.631474E-4
4.92941E-4
-5.0507438E-6
-4.3761576E-4
-0.0013822179
-0.0013077854
-0.0012721785
-0.002117916
-8.9715683E-4
3.562121E-4
-2.5355065E-4
4.8185335E-4
0.0016100877
1.7691558E-5
-9.1042306E-4
7.668158E-4
0.0013282434
4.930299E-4
6.212359E-4
0.0013291611
0.001364313
0.0021010449
0.0030162483
0.0023206484
0.0031591412
0.0029008342
-3.3747684E-4
-9.145212E-6
5.065701E-4
6.484762E-4
0.0035563943
0.0013754623
-0.002897948
-0.0043044975
-0.0060727764
-0.0055807545
-0.0048019392
-0.003697584
-1.11318914E-4
-1.3980335E-4
-0.0013586305
-3.1199522E-4
-7.279066E-4
-0.0010313422
2.5013063E-4
0.0014391094
0.0017766096
0.0014091912
0.0010195416
5.3640455E-4
4.9212173E-4
0.0014877985
0.0020314886
0.0010637967
0.001039825
0.0020479492
0.0010146076
2.588511E-4
0.0011608995
0.0012375888
0.0012180469
0.0018705745
0.0023089293
3.1071928E-4
-0.0027887523
-0.0019449657
6.415907E-4
0.0010049229
-7.8322896E-4
-0.0026576403
-0.0016302591
-3.7660566E-4
-0.0010164531
-0.0016785517
-0.0019461387
-8.520993E-4
5.1469076E-4
0.0017340252
0.002376356
2.3756124E-4
-0.0012036479
-0.0016840477
-0.0024493232
-0.0011059104
-0.001187514
-0.0010029811
0.0013652445
-6.498496E-4
-0.002982256
-0.0013227789
2.3445237E-4
0.0016353999
0.0016429778
7.9489814E-4
0.0013309798
7.996239E-4
1.9493877E-4
9.1218954E-4
0.0012383974
0.001158175
0.0017124828
0.0025357795
3.3275865E-4
-0.0026096636
-0.0013904222
5.9214723E-4
0.0020830492
0.0039670384
0.0034323486
0.0014172513
2.6697302E-4
4.894921E-4
9.381888E-4
0.0013620307
0.0026817373
9.799647E-4
-0.0034025519
-0.0059029255
-0.007128433
-0.005674986
-0.0022709116
-9.617149E-4
-7.989151E-4
-0.0011191904
-0.0018105136
-0.0018586833
-8.9638284E-4
1.446667E-4
-1.0980208E-4
0.0011724446
0.0031578187
0.0018324109
1.9061894E-4
6.994918E-4
0.0013060591
3.743025E-4
4.9672154E-4
0.002505133
0.0014467237
1.4256162E-4
0.0013572188
0.0014845255
0.0026689402
0.00289444
2.7314923E-4
-9.5482805E-4
-0.002917113
-0.0036185193
-4.132766E-4
0.0010913895
0.0016724039
0.0031983394
0.0028799472
0.001026005
-3.8225026E-4
-4.2325858E-4
-2.0203738E-4
-1.13786904E-4
-0.0010508487
-0.003955071
-0.0046380507
-0.0032728622
-0.0020616564
0.0011636374
0.002103626
3.646127E-4
7.687269E-4
-8.8608806E-4
-0.0028432123
-3.2861985E-4
0.001789624
0.0013986505
-0.0019387135
-0.0053418893
-0.0032642288
-5.969439E-4
2.6112382E-4
0.0026526556
0.0049973275
0.0058568595
0.0037520444
5.9304875E-4
1.9677992E-4
0.0012737452
0.0034041735
0.004105536
0.0017332957
1.6426021E-4
-9.320819E-4
-0.0013742527
-0.0011912663
-0.0048599136
-0.0076778242
-0.0040316395
-9.5793727E-4
-0.0017508684
-0.0016692037
-0.001026303
-1.8036828E-4
0.0016381888
0.0019492203
0.0029272926
0.003109891
-9.322179E-4
-0.0011172043
0.0016827746
-8.356165E-4
-0.0035049652
-0.002166128
-4.8648293E-5
0.001510896
0.0032724026
0.0035604825
9.977773E-4
0.0011150755
0.0037769617
0.004440044
0.0035072425
-0.00143202
-0.004918152
-0.002416449
-0.0028078503
-0.004269182
-0.002380952
-9.488949E-4
-1.4877493E-4
-5.2432576E-4
-2.6857777E-4
4.625801E-4
-9.066836E-4
8.3813246E-4
0.004640207
0.004625405
0.0014223814
-0.003097818
-0.0038287928
2.8773767E-4
0.0010647832
-0.0021037087
-0.0013218385
0.0031112304
0.0042590783
1.7009984E-4
-0.0042228093
-0.001667849
0.00315505
-1.8895174E-4
-0.0038476335
-6.2329037E-4
0.0023391468
0.0033693921
0.0021773796
1.9345958E-4
8.7276095E-4
-0.0019962077
-0.006110669
-0.0043933974
-0.003196266
-0.0024425932
7.7781564E-4
5.375802E-4
1.0184935E-4
0.003219262
0.003707051
0.0024748673
0.0023287572
1.415663E-4
-6.554816E-4
0.0015548893
-0.001691656
-0.0076293373
-0.005519754
-0.0017210528
-0.0020798852
0.001217558
0.0055671693
0.0075867316
0.012325502
0.015062563
0.013653605
0.009755855
0.0015866931
-0.0027865411
-0.002574803
-0.0052742236
-0.0059642685
-0.0032768254
-0.0027697014
-0.006139444
-0.01297544
-0.018578779
-0.019301085
-0.016909137
-0.013810065
-0.010223701
-0.007102287
-0.005913837
-0.0016516463
0.0057659154
0.008014189
0.0069316644
0.008256221
0.009618502
0.008090798
0.007400679
0.0113574825
0.015111499
0.01626115
0.017141815
0.017206006
0.01736482
0.018777536
0.021423886
0.01900789
0.007310604
-0.004872456
-0.018113308
-0.030440547
-0.028542448
-0.020862598
-0.016851734
-0.012800817
-0.010936407
-0.009052798
-0.006759927
-0.00738202
-0.008140739
-0.009893098
-0.012218944
-0.011830389
-0.009437746
-0.008379922
-0.009122562
-0.0058063497
6.815646E-5
0.0060097096
0.015502928
0.02088368
0.01823099
0.014334151
0.011773357
0.013249832
0.018158212
0.02158806
0.021139989
0.018127156
0.016058058
0.012628348
0.007861875
0.0058954316
0.0043864925
0.0031920257
0.0020106363
-0.003717823
-0.012952764
-0.02242528
-0.031724233
-0.037973147
-0.037096437
-0.035179794
-0.033060502
-0.019275323
-0.0019171739
0.007943718
0.013444388
0.009633688
0.002630212
0.0034492149
0.0027263495
-8.921304E-4
-9.876163E-4
7.2446046E-4
0.007156257
0.016688984
0.020864628
0.021838523
0.022836644
0.024137804
0.029042808
0.026783856
0.010029971
-0.005026479
-0.013586362
-0.018367093
-0.014642071
-0.007969217
0.0015299668
0.0121506695
0.009817865
-0.0017216742
-0.011163783
-0.016170874
-0.019997526
-0.027449751
-0.032480042
-0.03441799
-0.034806084
-0.024643209
-0.011710985
-0.0032735511
0.011171507
0.026011666
0.028026659
0.017903721
-0.0013690799
-0.020030607
-0.023493826
-0.016541839
-0.009621226
0.0023236515
0.020815596
0.04043271
0.057472255
0.06577949
0.069527745
0.073806584
0.066338986
0.046852026
0.026480418
-0.0049095866
-0.048003167
-0.07055323
-0.061863706
-0.057495605
-0.07747799
-0.092214145
-0.08088963
-0.062518306
-0.046378806
-0.020783644
0.010837745
0.039753094
0.065800786
0.073081926
0.049594928
0.016443346
-0.010459861
-0.028634658
-0.026904503
-0.009383059
0.0025296714
0.005914899
0.025802935
0.070728116
0.10844394
0.117538996
0.102030426
0.07142342
0.038934235
-7.035977E-4
-0.054753553
-0.106074914
-0.12565643
-0.10289722
-0.071702704
-0.045878187
-0.016762221
-0.0123304445
-0.01386133
0.0037583816
-0.016596377
-0.07355325
-0.10449014
-0.09899878
-0.053109452
0.023750918
0.08948244
0.12689
0.13350606
0.1338729
0.14856118
0.11717447
0.038844787
-0.0030683565
-0.01712823
-0.027122654
-0.018892337
-0.007223289
0.0029509785
-0.010424352
-0.048912004
-0.08009462
-0.10123125
-0.07626845
-0.03467251
-0.03573738
0.003524656
0.06390624
0.016679715
-0.10419171
-0.1893971
-0.16857764
-0.07267788
-0.025105499
-0.02803268
0.006660754
0.07193124
0.14325431
0.21141137
0.22250283
0.21763651
0.2606261
0.24926707
0.14106253
-0.003368915
-0.17829658
-0.2927263
-0.2689497
-0.19931892
-0.12901562
-0.04090975
0.01746078
0.04491879
0.08330053
0.111896396
0.13827509
0.14658967
0.029514827
-0.15454328
-0.2425894
-0.2279791
-0.14775552
-0.03859079
0.040054806
0.080164045
0.090858206
0.080288924
0.06730669
0.07557887
0.07938724
0.020262454
-0.055338558
-0.07415859
-0.051806625
-0.05082447
-0.09023716
-0.08185036
-0.014028869
0.028260134
0.052450925
0.06485631
0.05821195
0.06342397
0.07517694
0.094802186
0.1208704
0.13295397
0.12365614
0.07753692
0.011746422
-0.03284199
-0.054419808
-0.08383812
-0.1172468
-0.11131162
-0.08200086
-0.067047685
-0.0673376
-0.07379458
-0.0647328
-0.05127489
-0.04162765
-0.024006259
-0.018018592
-0.01249329
-7.8501855E-4
0.008482479
0.022000527
0.014096742
0.012070519
0.041117646
0.058499455
0.07442145
0.09245625
0.09910498
0.09614541
0.06407635
0.032486886
0.005886748
-0.037346996
-0.051954206
-0.048839744
-0.058333177
-0.058088303
-0.054102857
-0.046189975
-0.030476382
-0.020446194
-0.011393532
-0.0034167205
0.0026851175
0.0086490605
0.011875668
0.017363822
0.022881063
0.024694601
0.023270592
0.020015705
0.016904604
0.009378067
0.0014041906
-0.001721246
-0.0031630357
-0.0021134585
1.1362555E-4
0.002578868
0.004868144
0.005990406
0.008360612
0.007585609
0.0040946603
0.0039746137
0.0031089168
5.186439E-4
-0.0015995302
-0.004529894
-0.004288114
-0.0010376542
-9.563928E-4
-0.0017198994
-0.0010222397
-0.0026536174
-0.004784224
-0.0054170922
-0.0069213198
-0.009675472
-0.012907674
-0.0146067245
-0.0152617935
-0.016197767
-0.0151097
-0.013017018
-0.010594143
-0.0070991507
-0.0047138617
-0.0023806598
9.733435E-4
0.003977573
0.006912148
0.009433955
0.011003669
0.01226496
0.013112666
0.012371154
0.010546266
0.010307738
0.01171443
0.01195438
0.010831111
0.010157801
0.00982621
0.0089453515
0.007294295
0.0050752494
0.0015559731
-0.0026427575
-0.003124529
-0.0020560017
-0.00380029
-0.003568573
-0.0020448237
-0.0028169372
-0.004530741
-0.009479566
-0.013910638
-0.01410306
-0.013425998
-0.011250249
-0.011236102
-0.011996741
-0.0070978496
-0.0038239716
-0.002541665
5.7546434E-4
-1.2553607E-4
-0.0015301881
-0.0016496601
-0.0025195733
-1.8700988E-4
5.9843744E-4
-0.0015357925
0.0028298423
0.009960964
0.01114736
0.008530468
0.006561385
0.0073045334
0.008860402
0.008044542
0.0048430827
-2.6937696E-4
-0.0036093749
-0.002017181
-3.319937E-4
-0.0010690717
1.921853E-4
0.0039152256
0.003319711
-0.0014548058
-0.0017370132
-4.4566617E-4
-0.002098579
-0.0017332141
-9.746878E-4
-6.385998E-4
-8.663518E-5
-0.0020236429
-0.001970873
-9.698141E-4
-0.0023774037
-0.0025027017
-0.0018122197
6.6558954E-5
0.0011751328
9.511622E-5
0.0015383638
0.0020861353
0.0011549224
0.0014970129
1.964203E-4
-2.3143295E-4
-1.2170398E-4
-9.067614E-4
-3.527397E-4
-9.3830755E-4
-0.0012970483
7.667363E-5
8.4971666E-4
7.499536E-4
-3.7860905E-4
9.5391755E-5
0.0016540047
5.5471365E-4
-0.0014303009
-0.0017510238
-5.674747E-4
-2.785199E-4
-2.5425418E-4
6.209476E-5
-0.0022002042
-0.003033751
-0.0015977136
-0.0019366206
-0.0013972459
7.241012E-5
0.0020034544
0.004040726
0.0032129043
0.0026532272
0.0023513748
-1.6337085E-4
-3.326804E-4
8.839763E-4
-0.0018084348
-0.00398465
-0.0020083385
-0.0014727064
-0.0014944752
1.14161856E-4
-0.001192793
-0.0022861627
-0.0010317615
5.657372E-4
0.003117777
0.0033506278
0.002975145
0.001831058
-0.0021449847
-0.0010682647
7.134755E-4
-0.0021527542
-0.002123989
-8.160309E-4
2.2416303E-4
0.0012860398
7.82178E-6
8.328774E-4
0.003271287
0.004063764
0.0034159147
5.849479E-4
-0.0011154335
3.9640316E-5
0.0022446783
0.002792329
-4.5762368E-4
-0.0024969042
-0.0025561706
-0.0038089722
-0.0021201933
9.134434E-4
0.0018322702
0.0042751706
0.004807698
8.1819354E-4
5.5230867E-5
0.003333818
0.004481021
0.0015315101
-0.0044083144
-0.008382148
-0.007832243
-0.0059644235
-0.0031980742
-0.0013707655
-0.0026967637
-0.002602824
-5.035481E-4
-5.009327E-4
-0.0014584528
-8.313251E-4
2.0587676E-4
3.7637484E-4
0.0010067596
0.0016324822
8.7615364E-4
2.1718153E-4
4.758192E-4
0.0020813632
0.0033564107
0.0024056833
0.0019225043
0.0013575773
0.0017147186
0.004617314
0.0031766933
-1.10656445E-4
3.2318154E-4
1.128853E-5
-4.6218105E-4
-0.001334263
-0.0019087221
1.20963276E-4
-0.0018798374
-0.0037263422
-1.6964269E-4
0.0014521057
5.5078865E-4
-0.0023369964
-0.004007048
-0.0016889772
-0.0011601318
6.28423E-4
0.00204868
-0.0011171207
-3.5978307E-4
0.002106474
0.0015649484
-2.4082563E-4
-0.0033110261
-0.003154676
-0.0017962594
-0.0011865369
3.2530367E-4
-0.0010983787
7.329034E-5
0.003137958
4.5534405E-5
-0.0015219618
7.90346E-5
7.037542E-5
0.0010882406
0.0011761475
-2.3219349E-5
2.1429759E-4
-3.9719645E-4
-0.0010962931
0.0010415546
0.001943482
-2.3697228E-4
-3.8795645E-4
5.9896098E-5
-4.4448534E-4
7.201012E-4
6.439964E-4
9.028764E-5
-2.2256898E-4
-0.0019425228
-0.0013303817
-0.0012168183
-0.0019909476
7.5546E-4
0.0020761457
0.0019715845
0.0027313614
9.24767E-4
-0.0019523975
-0.0011633749
0.0041284845
0.0058826716
0.0022270218
0.0017287005
0.0015725093
-0.0012915859
-0.0022693109
-0.002804018
-0.004150018
-0.0040190187
-0.0020356628
-0.0012794699
-0.0023015337
-0.0020285079
-0.0015449232
-0.0012490987
-4.7071808E-4
3.1204437E-4
7.8762823E-4
-5.684869E-4
-8.8610855E-4
-5.992263E-4
-0.0013711686
1.6770685E-4
3.4477387E-4
0.0011034268
0.005375215
0.0065096603
0.0068580606
0.0051983255
8.222675E-4
0.0029355534
0.0057890676
0.0032293994
-7.0993387E-4
-0.0046516084
-0.005631016
-0.004043222
-0.0023807886
-0.0010825013
-2.1400992E-4
7.7133975E-4
-0.0010666115
-0.003463767
-0.0024581128
-0.001454843
-0.0010419664
-0.0011541392
-0.0011977822
-5.501549E-5
-3.0093582E-4
-3.1790754E-4
-5.863246E-5
-7.07457E-4
1.2207426E-5
-4.565775E-4
9.096618E-5
0.0039442554
0.0037552556
3.154242E-4
-8.962518E-4
-2.568442E-4
7.56164E-4
4.452813E-4
5.605745E-4
0.0017177657
0.001156794
-1.4314508E-4
-7.217047E-4
2.8447135E-4
0.00136332
9.197902E-5
-2.451337E-4
-8.5875245E-6
-0.0011069068
1.7945074E-4
0.002464439
0.0025056736
0.0011406202
-3.3760985E-4
-1.8661254E-4
2.3814588E-4
-7.354831E-4
-0.0016006441
-0.0014717368
-0.0011417855
-0.001639106
-5.706838E-4
4.044377E-4
-0.0024756014
-0.0019127653
0.0019171007
1.9634327E-4
-0.0026247809
-0.0021996528
-4.5415858E-4
0.0015861314
0.0018916298
0.0013823208
2.7011236E-4
-2.900129E-4
9.79387E-4
-1.65485E-4
-0.0010406605
5.028968E-4
4.249789E-4
0.0010177519
0.0018979443
0.001303434
-2.3888137E-4
-0.003050458
-0.0018518552
6.3704996E-4
-7.946063E-5
0.0019715792
0.0027478284
6.9963844E-6
-8.672053E-4
-0.002761386
-0.0024431476
4.463243E-4
-2.919074E-4
0.0012614736
0.003389716
6.6233927E-4
-1.12069894E-4
8.220692E-5
6.669212E-5
0.0025289797
0.0012786635
-0.0015760887
-6.988575E-4
8.0493526E-5
0.0011373741
0.0016735212
2.983222E-4
6.6038786E-4
3.6534248E-4
-0.0012430847
-0.0017149155
-0.0024702656
-0.0019714355
-0.0018148256
-0.0023068301
-8.7985434E-5
-7.208913E-4
-0.0033109458
-0.0021078421
-0.0017890835
-0.0028096712
-0.0020548175
-2.0170554E-4
0.0014400412
0.0013724731
0.0018125367
0.0024037785
0.0017492071
0.0023965037
0.0020355107
5.533378E-4
0.0014264793
0.0026685556
0.0024610946
0.0016511426
0.0016191809
0.0020954974
0.00273741
0.0042667314
0.004779621
0.0035395212
-3.7857587E-4
-0.0055332626
-0.005716846
-0.003493074
-0.0027391315
-0.0017907328
-0.0018955235
-0.0020274946
-0.0020495497
-0.00261935
-0.0015847106
-0.001207251
-2.2548552E-4
0.002400552
0.0012035192
-8.59553E-4
-5.6919675E-5
-3.5995414E-4
-9.866175E-4
0.0010293209
0.0019062717
-4.162033E-4
-5.110289E-4
3.355045E-4
-0.0012113544
7.925923E-4
0.0033316528
0.0013429251
3.2479013E-4
-7.870602E-4
-0.0010567188
0.0027166659
0.0021534616
-0.0024092721
-0.0031417203
-0.0018947908
-0.0011349465
-8.847375E-4
-0.0010883466
-2.115313E-4
0.0017907529
0.0022237499
0.0011050731
0.0017976322
0.0021509342
0.001551013
0.002597454
0.0010676285
-0.0013591937
-7.5345254E-4
-5.9985433E-4
2.9298713E-4
0.0010257559
-3.9772686E-4
-6.4019725E-5
7.691967E-4
2.9666148E-4
-2.9012936E-4
-7.14033E-4
-9.08828E-4
-0.0010568114
1.6890283E-4
7.96207E-5
-0.001446043
3.993037E-4
6.496832E-4
-0.0025280365
-0.0027179548
-2.8077344E-4
0.0013261525
5.7579036E-4
-7.411836E-4
-8.5566344E-4
3.2299905E-4
0.0013064159
-0.0022402392
-0.004216436
-4.0224782E-4
6.5406505E-4
4.10419E-4
0.0010772641
-7.05082E-4
-0.0015437478
-0.0012678581
-0.0011452201
-1.5367998E-4
0.0013841394
0.0027793313
0.002095387
7.479324E-4
-7.1088463E-4
-0.0011539686
0.0019985198
0.0025226744
7.910996E-4
0.0013897477
-9.929006E-4
-0.0025325126
0.0017595633
0.0041061733
0.0024639266
8.614091E-4
1.6813807E-4
8.7295804E-5
-3.2217067E-4
-5.7265325E-4
8.276435E-4
0.0019407789
5.3960213E-4
-9.78066E-4
-6.4602226E-4
-8.0935267E-4
-0.002615197
-0.0028561198
-9.19199E-4
2.6123042E-4
0.0011781445
0.0018328062
0.0022348023
0.0026814062
1.3629183E-5
-9.41623E-4
0.0020305149
0.0021961036
0.002423884
0.0016682573
-0.0027732237
-0.0038079584
-0.003583242
-0.0044475063
-0.0051547424
-0.006885808
-0.005270437
-0.0031899493
-0.002920291
-0.0015180811
-0.003056714
-0.0028077636
1.16766154E-4
-0.0019359178
-0.0018388439
0.0016108911
0.0020444952
0.003231424
0.0053780475
0.0061930353
0.005707748
0.004352047
0.005048667
0.006574269
0.007781798
0.009462253
0.008788836
0.0067373314
0.0050844676
0.0034695477
0.0046241507
0.006542643
0.004018479
-0.0030491338
-0.011997732
-0.017705387
-0.016678842
-0.012347151
-0.009000331
-0.006019002
-0.0026612314
-0.0012891741
-0.0014458029
-0.0017622829
-0.00247859
-0.002108211
-0.0018937959
-0.0016529018
8.7737804E-4
0.0013482507
-1.4272839E-4
4.6017932E-4
0.0012022159
0.0030828665
0.005565385
0.005136642
0.005631162
0.0070745647
0.00514332
0.0029886176
0.0025670114
0.0017022769
6.197119E-4
-6.918674E-4
-0.0020772626
-0.002262259
-0.001426327
4.707121E-5
9.358792E-4
5.078442E-4
1.5655377E-4
-1.3944095E-4
4.2956675E-4
0.0013156902
1.3892745E-4
1.6791997E-5
2.2978666E-5
-0.003101319
-0.0032721518
-5.2644097E-4
-6.656667E-4
-0.0014742004
-0.0015359735
-0.00161924
-0.0013871446
-0.0015948807
-0.0011350337
-7.2489795E-4
-0.0016895485
-0.0010266359
8.425183E-4
6.515824E-4
-3.520158E-4
-2.0716613E-4
8.233529E-4
0.0015043311
0.0011544343
0.0020225355
0.0039507323
0.002461587
-2.5730347E-4
0.0016334493
0.0035110794
-8.507309E-5
-0.002670323
-6.383931E-4
0.0010790109
0.0014247402
-8.0163684E-4
-0.004231311
-0.0016882458
0.0014226524
-0.0012847501
-0.0025381076
-0.001456287
-0.0015522009
-0.0011115196
4.575443E-4
0.0024012187
0.001729723
-1.4946643E-4
0.0011739231
0.0013882573
-7.388993E-4
-2.4610327E-4
0.0012765183
7.671062E-4
-6.2929385E-4
-8.117838E-4
1.8594699E-4
6.1053265E-4
-1.2864979E-4
-0.0014046127
-8.2203164E-4
8.127927E-4
-7.6727105E-5
-8.2477745E-5
7.247781E-4
-0.0015952045
-0.0019826032
-0.0011356155
-0.001808247
3.04897E-4
0.0013096518
0.0015951048
0.0036219629
7.020933E-4
-9.980077E-4
0.0017122334
7.131563E-4
-9.307357E-5
8.870652E-4
0.0013226735
0.0022633653
0.0011098532
1.1183768E-4
6.141582E-4
5.469776E-4
4.3730784E-4
-4.5340223E-4
-5.471899E-4
-9.6881785E-4
-0.0020285978
-0.0018651508
-0.0041739154
-0.0035456396
0.0015679103
0.0015389489
1.2400621E-4
6.221586E-6
-0.0011289768
2.7535693E-4
0.0012541969
2.2284224E-4
-2.9855102E-4
-0.0012932237
-0.001699065
-6.659311E-4
7.4728933E-4
6.0760294E-4
-0.0011319901
-0.0011737756
5.750497E-4
0.0017530611
6.164192E-4
-0.001062543
-1.06073276E-4
0.0014660115
0.0021327347
0.0017129943
-2.8913177E-4
-0.0013266404
-1.3952702E-4
0.0016533216
0.001499405
1.4130141E-4
3.7663945E-4
1.9583128E-4
-7.577001E-4
4.5218087E-5
0.0015950191
0.0014672962
1.8801521E-4
6.012953E-4
9.560686E-4
-2.73997E-4
-0.0013662592
-0.0022136008
-5.9262756E-4
2.2762945E-4
-0.0017868135
-8.2218717E-4
-4.6915407E-4
-9.659894E-4
3.6012146E-4
-6.509901E-4
1.6042804E-4
7.0927624E-4
-0.0010311689
0.0012107594
2.3807821E-4
-0.0022867082
5.3701835E-4
0.0013053319
0.0011631675
0.0015635681
9.041109E-4
0.001490342
-2.0208207E-4
-0.0011558906
3.6891017E-4
-0.0010137222
-0.0015004207
-7.3068216E-4
-0.002155294
-0.0019919227
5.854778E-4
0.0013244001
-0.0011071459
-0.0019389668
3.8963245E-4
0.0015309768
0.0013646951
0.0011354239
6.637429E-4
-9.0254296E-5
-0.0011644356
-8.8752844E-5
0.0015919782
2.4876272E-4
-9.4204536E-4
5.1145817E-5
0.0015792982
0.0024882157
0.0016817782
0.0011475302
0.0013676949
-5.049433E-4
-0.0023381705
-9.820763E-4
6.7107123E-4
-6.2551483E-4
-0.0015508598
-1.2028047E-4
-3.701521E-4
-8.8018423E-4
-1.6315377E-4
-0.0011490122
-0.0016948729
-0.0023547146
-0.0024141562
0.0013834522
0.0023838328
0.0011762172
0.002633647
0.0022441582
0.001290076
6.862466E-4
-0.0013021858
-0.0014634312
-7.1684096E-4
-2.4104385E-4
-7.083211E-5
-7.713253E-4
-9.415187E-4
-0.0014658396
-0.0015868832
-8.193369E-4
-7.522212E-4
1.5239407E-4
0.001563509
0.0015036821
1.52571E-4
-2.1875033E-4
2.1985709E-6
-0.0015968669
-6.16172E-4
0.0022074673
0.001525995
0.0012204817
0.0010698906
4.8210153E-5
0.0016592987
0.0015661175
-7.537532E-4
6.278943E-4
0.0037942082
0.0027479487
-0.0012977021
-0.0018565794
-5.449026E-4
-4.8095282E-4
-8.03476E-5
-0.001962513
-0.0022685567
9.761184E-4
-0.0018522872
-0.005263012