1.21829784E-4
-5.065657E-4
-0.0016449484
-0.0010320542
2.3974998E-4
-0.0016996132
-0.0012070193
6.2070816E-4
-5.138692E-4
-8.182042E-4
-0.0018851691
-0.002671148
-5.1177945E-4
0.0012541092
0.001668724
-0.0013122194
-0.0029623616
0.0011826869
0.0014688792
-6.390108E-4
4.973322E-4
-0.0010487445
-0.0018320114
6.234216E-4
0.0012829719
0.0016859664
0.0013292687
7.9747284E-4
0.0021639708
0.0017798669
9.145957E-4
5.3970485E-5
-0.0024315678
-0.0011866742
0.0020164214
4.8448105E-4
-0.0017721893
3.1676702E-4
0.0029927753
0.0018981979
-5.832017E-4
-0.0015329676
-0.0013571338
-8.041189E-4
-5.0417037E-4
5.935223E-4
8.5764326E-4
-0.0012725998
-0.001192192
-3.200322E-4
-0.0011979883
-7.974525E-4
-0.0013818057
-0.0012350935
0.0017002524
0.0013546991
-4.4236987E-4
-3.2187163E-4
-3.136912E-4
-4.5798442E-4
-0.001331697
-7.8253757E-4
9.002417E-4
5.7881156E-5
2.3754453E-4
0.0017099914
9.0798596E-4
3.4568194E-4
2.2019312E-4
-7.506599E-4
-1.9174906E-4
0.0014144774
0.001933135
0.0015908427
-3.270085E-4
-0.0026358566
-0.0014651142
0.0012446739
0.0019610438
0.0014612282
6.785913E-4
2.626776E-4
-8.5750053E-4
-0.0015164202
4.1403476E-4
3.699171E-4
-4.7206003E-4
6.5829325E-4
-0.0013502928
-0.0026918408
-7.258776E-4
-7.887318E-4
-6.4926135E-4
-4.2890388E-4
-0.0012521709
-5.189478E-4
-3.0870154E-4
2.9868196E-4
5.1677134E-4
-9.138066E-4
7.7295135E-4
0.002209769
0.0018423771
0.002950625
0.0017723107
1.8306708E-5
-2.224657E-4
-0.0014221455
-0.0011757383
3.1565156E-4
0.0011461216
0.0011131568
-3.643419E-5
-6.9755316E-4
-3.4218747E-4
9.973481E-4
0.0010140629
-0.0011142261
-7.808283E-4
5.2245473E-4
-8.0433825E-4
-0.002489317
-0.0019954813
1.3865672E-4
5.6538644E-4
5.815802E-4
6.0621643E-4
-0.0018501824
-8.175172E-4
0.002066206
-6.9918833E-6
-8.486143E-4
8.858214E-4
0.0013560358
0.002153113
0.0014037366
-7.917671E-4
-7.630631E-4
-3.0976593E-5
-5.247555E-4
-0.0013137114
-0.001391665
1.5385868E-4
0.0011635062
-8.67521E-4
-0.0018851383
-2.808763E-4
4.4829503E-5
6.9287125E-5
6.611561E-4
2.6567953E-4
3.8080855E-4
3.1789017E-4
-5.398728E-4
5.807358E-4
0.0015653343
-5.4874213E-4
-0.0011021614
0.0013521326
3.1916707E-4
-0.0038737536
-0.004660399
-0.00290485
-0.0019500148
-9.722129E-5
0.0013269375
4.3248868E-4
0.0016765415
0.0034274412
0.0019048366
0.0019680776
0.0024399587
9.862053E-4
0.0011239625
6.427507E-4
-3.127064E-4
6.3210505E-4
0.002337736
0.0039341697
0.00280799
0.0018547446
0.0023295367
9.04695E-4
0.0015140214
0.0015982355
-6.5228244E-4
-8.554923E-4
-0.004108703
-0.0069330917
-0.0048766723
-0.004829986
-0.004205597
-0.0030847215
-0.0037603073
-0.0019226795
-0.0017162497
-0.0032012633
-0.0021675734
-0.0014011544
-0.0020074756
-0.0025480108
0.0012627839
0.0052999766
0.0035341883
0.0039959173
0.005196441
0.0040956037
0.004725702
5.6782487E-4
-0.0027144789
0.001670009
0.003588077
0.002887782
0.0016990295
5.658562E-4
0.0017208968
4.825765E-4
-2.2917194E-4
9.6913724E-4
4.9881905E-4
6.2556163E-4
-9.7563426E-4
-0.0017464876
-1.6994875E-4
-0.0014417333
-0.0015024807
-0.002032379
-0.0043643992
-0.0029785878
-0.0023724895
-0.0022752509
-6.916838E-4
-1.2911583E-4
0.0018320603
0.0015374455
-3.9057582E-4
0.0014766256
0.0013809444
-0.0014615973
-0.0024679871
-0.0019028566
2.8924306E-4
0.0018460884
5.8960693E-4
-6.5136474E-4
1.587678E-4
5.8849924E-4
-2.3203788E-4
4.2797186E-5
6.5034156E-4
5.1495916E-4
3.7343745E-4
9.23905E-4
0.002730512
0.0035484883
0.0018974794
-6.0472003E-4
-0.0017971676
-7.8743097E-4
-1.0690282E-4
-0.0010368552
-0.0019052308
-0.0012337046
-6.145268E-5
-6.51954E-4
-5.124288E-5
0.0018449676
0.001046279
2.2383769E-4
-2.44534E-4
-0.0014967301
-9.3286874E-4
-2.4004754E-4
2.5466701E-4
0.0014412006
0.0011328063
3.5290958E-4
2.201312E-4
2.4846965E-4
3.558998E-4
-2.009888E-4
-1.3068877E-4
8.629753E-4
-6.0561747E-6
-0.00176638
-0.00129191
-3.1522333E-4
-2.1908843E-4
0.0012216864
0.0022615355
3.0987957E-4
-0.0013415422
-5.6236086E-4
-3.1109947E-5
-7.091164E-5
1.7176964E-4
-0.0011227075
-0.0020725538
-8.340578E-4
-1.9158918E-4
-1.17016425E-4
-6.417906E-4
-0.0017064161
-9.418859E-4
5.896841E-4
0.0019537818
0.0020570466
7.5038447E-4
7.073283E-4
-2.3671218E-4
-0.0013655188
6.4171554E-4
0.0017959763
4.6939836E-4
-9.4839075E-4
-7.426357E-4
0.0017367719
0.0031036204
0.0012899474
-5.306763E-4
-3.556333E-4
-4.3322358E-4
1.1061819E-4
0.0021862679
0.0014688115
-3.6542275E-4
-0.0018870966
-0.0038716528
-0.0018137054
3.845578E-5
-8.166148E-4
-9.730465E-4
-0.0032728629
-0.0030004345
3.446306E-4
2.6661233E-4
-1.3817872E-4
-0.001687972
-0.003369589
-5.92092E-4
0.002391002
0.0036900807
0.0037441382
0.0034146707
0.0030920736
5.7217287E-4
-8.5217826E-4
-6.591901E-4
-7.701795E-4
-1.8633682E-4
-7.497785E-4
-8.003755E-4
-5.5743563E-5
1.8593145E-4
0.0021031434
0.001877029
-4.0177294E-4
-5.6031847E-4
-4.0860559E-4
4.6496018E-4
3.0393963E-4
-0.0017111676
-7.811746E-4
-1.2600991E-4
-0.0021800778
-0.0015801776
0.0014172283
0.0022248442
2.7008495E-5
-0.001985609
-0.0018302655
-4.8223653E-4
0.0012072456
9.358625E-4
-6.9622387E-4
2.883861E-4
0.0013778976
9.196833E-5
-7.183589E-4
-8.648523E-4
-7.536793E-4
-0.0010135359
-0.0022583567
-0.0011993459
7.2206126E-4
4.459506E-4
0.0011897542
0.0018679771
2.5187898E-4
-4.8036756E-5
8.2012825E-4
3.3189476E-4
4.6825942E-4
0.0025761677
0.0030561034
8.3275617E-4
5.1768514E-4
0.0019096017
6.1725493E-4
-0.002516167
-0.0035356642
-0.0018490341
-0.0011554107
-0.0018928548
-8.450373E-4
5.6264654E-4
3.4302028E-4
3.6017463E-4
5.629253E-4
-8.20278E-4
-0.0012460992
0.0012849567
0.002305316
0.0013128562
0.0017018423
0.0012510808
-5.906499E-4
-0.0016027378
-0.0018957412
-0.0015356975
-0.0015930003
-0.002123962
-0.0011015265
6.479195E-4
1.925724E-4
-0.0011591801
-1.1235482E-5
7.109388E-4
2.1723632E-4
0.0012090013
-5.468348E-4
-0.0036775416
-0.0027607006
-3.9969388E-4
0.0016822842
0.0019695356
0.0012717666
0.0026685463
0.0024395457
0.0019967095
0.003767251
0.002066017
-5.5723946E-4
6.1053055E-4
0.0016917024
0.0024158224
0.0040327385
0.0025697884
-8.4380925E-5
-9.198096E-4
-0.0049318974
-0.008055854
-0.005609956
-0.0045213206
-0.0024065736
9.15365E-4
-4.8655478E-4
-5.6731235E-4
-2.9433659E-5
-3.3915517E-4
0.002849848
0.0025185144
0.001045875
0.004079343
0.0038112188
9.7366795E-4
-6.5135496E-4
-0.001494708
-0.0013434731
-0.002750284
-0.0031415345
-0.001201676
-4.478202E-4
-5.5147003E-4
-0.0012380515
1.6134339E-4
0.0031283924
0.0021835135
2.7432392E-4
5.1103975E-4
9.642088E-4
9.892161E-4
-5.743544E-5
-0.001124717
-9.071529E-4
-3.327794E-4
-6.7551446E-4
-3.7572344E-4
0.001406677
5.559616E-4
-6.8067235E-4
0.0012032844
0.002631114
0.004472585
0.005114644
0.0020170896
-6.276713E-4
-0.0036412228
-0.0069264336
-0.008181315
-0.007300238
-0.003485096
-0.0014691111
-0.0011112995
7.270477E-4
1.14025046E-4
-5.692387E-4
0.0014054443
0.0044673355
0.0074450066
0.0068707364
0.004826313
0.0019807394
-0.0020812245
-0.0011891446
0.0018234751
0.002867836
0.0056840675
0.0074723465
0.0047819978
0.0024496783
0.0025005587
2.9934547E-4
-0.003651686
-0.006731463
-0.01024574
-0.011249039
-0.008375231
-0.0053200903
-0.0032903554
5.420973E-4
0.0052444735
0.001953878
-0.0038905186
-0.0038553365
-0.00497816
-0.0036357183
-0.0013263819
-0.0029391842
2.787258E-4
-0.0015660268
-0.0062878947
0.0015034252
0.0067444933
0.006254806
0.007577366
0.0068824915
0.0097049065
0.0129032945
0.010184305
0.005618552
0.0012699199
-0.0014970903
-0.0048982683
-0.0073734326
-0.0053368947
-1.09986126E-4
0.006605401
0.0068663433
0.0024320525
-1.5842133E-4
-0.0065464824
-0.0112897605
-0.0086659705
-0.005432396
-0.0034372977
-0.0027685661
-0.0016674064
-0.0017502573
-0.005255397
-0.0025129714
0.0034678604
2.2965018E-4
-0.005024123
-0.004627938
-0.00198752
0.0023551127
0.004849605
0.0017993039
5.3693214E-4
0.0045545534
0.006984159
0.005483484
0.0042190594
0.006355543
0.0074594063
0.0023687186
-0.0021951317
-0.0018812378
-0.0019923863
-0.0027744567
-0.0010676195
0.00248103
0.004774126
0.0032513796
-0.002083649
-0.0079477215
-0.0074109854
-2.2895666E-4
0.0043285093
0.0025982615
-0.0017506268
-0.004824751
-0.0036071863
2.2451066E-4
-3.0370525E-4
-0.00722658
-0.013229228
-0.012399125
-0.0045698867
0.0040180585
0.0050728996
0.0046818997
0.0074403696
0.004473876
7.6368585E-4
0.0021569508
6.331729E-4
-6.8078033E-4
0.0027270354
0.004712964
0.0024074442
4.8520096E-4
0.004471753
0.0073018265
0.005986395
0.010029643
0.011223304
0.0013425808
-0.008109249
-0.010966559
-0.0075245253
-0.0024123704
-0.0022394499
-0.0028552948
-0.0014240361
-9.898526E-4
-8.84662E-4
-8.333817E-5
-0.0015935454
-0.0059825066
-0.006781662
-0.0051281145
-0.0065330924
-0.005230735
-7.6873554E-4
0.0012986187
0.004056974
0.0071766186
0.00620935
0.003567162
0.0033082832
0.004864097
0.005754303
0.0043792
2.2622735E-4
-0.003066885
-0.0029617194
-0.0032720238
-0.004024281
-0.0016915961
9.4422855E-4
0.0014208757
0.0031012355
0.0041645444
8.089548E-4
-0.001614419
-0.00185127
-0.0033595634
-0.002876247
-3.8948486E-4
0.0010534535
4.4220357E-4
-0.0020487292
-0.0033607099
-0.0028650595
-4.2231736E-4
0.002395553
0.0047059497
0.009415237
0.00911661
0.003005415
3.176227E-4
-0.0023946872
-0.0035816838
-0.0019047451
-0.004837752
-0.007765864
-0.007089876
-0.004716542
-0.0018945729
-0.0013689859
-1.5251954E-4
8.5374055E-4
0.0012657801
0.0036826239
0.0025033157
4.8218828E-4
0.0014423069
0.0017518783
0.004641772
0.007815732
0.006840634
0.0045283735
0.0012009873
-5.5623805E-4
-2.1050296E-4
-0.0027719946
-0.0059763724
-0.005017359
-0.0021995057
-3.631004E-4
0.001332314
0.001819254
-1.2315708E-4
-0.003480047
-0.0068878788
-0.0066337804
-0.0043425905
-0.003674127
-0.0011936321
4.4217816E-4
-0.0014696295
-8.411944E-4
0.0023921037
0.0048749116
0.006690656
0.009283506
0.0108729
0.007053412
0.0026412935
9.875781E-4
-0.0013339963
-0.0028838061
-0.0061511854
-0.012153177
-0.016079077
-0.016074805
-0.008527915
0.0010750216
0.004618715
0.0065104007
0.0072250417
0.007515774
0.010156442
0.00993072
0.006544523
0.0047396445
0.00657215
0.00727187
0.003418405
0.0026859557
0.0020773842
-0.0032201374
-0.003196855
-4.6234202E-4
-0.002558478
-0.0034882068
4.2433402E-4
0.0031591775
-0.0038764102
-0.015053981
-0.017510569
-0.014694587
-0.013383119
-0.01143933
-0.008235646
-0.0054438035
-0.0027840182
-5.865242E-4
1.015285E-4
0.0022683404
0.0075152153
0.012328754
0.015789963
0.017931556
0.01733459
0.015325553
0.014002287
0.010645993
0.0021576942
-0.005670606
-0.009765346
-0.014034405
-0.01580821
-0.01502032
-0.01385663
-0.009065768
-0.0054771067
-0.005387504
-2.7423428E-4
0.009983435
0.018185353
0.022015933
0.02433012
0.024915088
0.019095311
0.0067512607
-0.009355871
-0.021483755
-0.020811884
-0.015053465
-0.014230504
-0.014873441
-0.013356196
-0.009928054
-0.0041250386
0.0031120472
0.00715699
0.009305525
0.014208141
0.012163817
-0.0017474822
-0.018179685
-0.03183838
-0.03508504
-0.02639272
-0.013102381
0.0014722871
0.008867464
0.010136256
0.016485373
0.027556328
0.039810777
0.04762768
0.048036892
0.03941408
0.016831404
-0.0063266507
-0.018728299
-0.027097765
-0.031730816
-0.031560518
-0.029090086
-0.025186485
-0.015125191
0.0033703637
0.01793967
0.026493141
0.03487323
0.04028731
0.03718475
0.013967355
-0.017769113
-0.034465894
-0.04213737
-0.04641083
-0.04825245
-0.047242947
-0.028978039
-0.0030317435
0.010670525
0.019507155
0.026720105
0.0235336
0.01414118
0.008471127
0.008301023
0.007251409
-0.003627024
-0.01869183
-0.0214604
-0.010731167
0.004236483
0.016111167
0.02056573
0.018535757
0.010163436
-2.3347673E-4
-0.00456374
-6.016326E-4
0.01110976
0.027712842
0.04797603
0.059205163
0.044745386
0.018882206
-0.009918767
-0.043867826
-0.063180394
-0.061308593
-0.040149197
-0.011649681
0.00218474
0.019110514
0.044684313
0.060391083
0.06428087
0.040218182
0.0035056258
-0.017953081
-0.04673849
-0.07715636
-0.08640903
-0.085639805
-0.0839321
-0.08027146
-0.06372098
-0.037338007
-0.0028208324
0.047825713
0.07419023
0.06360529
0.0484216
0.016198102
-0.010615179
0.018142577
0.07693833
0.12212399
0.14108808
0.1355
0.0911436
0.012092375
-0.035013344
-0.052495964
-0.08927185
-0.10734503
-0.101753
-0.10370071
-0.1036495
-0.098614626
-0.043988854
0.052884277
0.09745274
0.105665386
0.11053142
0.08159485
0.03398309
-0.019572979
-0.050937895
-0.032464422
-0.024405781
-0.06338911
-0.10484364
-0.09120405
-0.008867876
0.08044791
0.11520896
0.12474208
0.14835261
0.12741148
0.051605247
-0.020269865
-0.1316503
-0.2555557
-0.28312814
-0.24331565
-0.15919617
-0.03653848
0.05133164
0.10167761
0.14063525
0.14893816
0.14009847
0.14932607
0.1284636
0.05120116
0.021809258
0.041860197
0.0415716
0.03556752
-0.0021786485
-0.053166147
-0.09255571
-0.13798627
-0.093321525
0.014746621
0.05451059
0.03857884
-0.010842942
-0.056937106
-0.07742372
-0.10688694
-0.08557692
-0.0041107778
0.044588745
0.075558335
0.12562041
0.11881384
0.051490027
0.010000209
-0.045712274
-0.10474199
-0.063875616
-0.0123381335
-0.0014636248
0.046375968
0.053414043
-0.031362116
-0.0848924
-0.044961847
-0.0022866277
-0.025093012
-0.04453649
-0.043711185
-0.08026954
-0.073311076
0.041019417
0.15638709
0.20169492
0.16813985
0.062008895
-0.01802466
-0.02053639
-0.0031812093
7.0901384E-4
-0.02197876
-0.045937523
-0.041025974
-0.028777031
1.1313343E-4
0.028041616
0.018023258
-0.0020623708
-0.016283
-0.019771662
-0.03294813
-0.076168805
-0.09577029
-0.080076426
-0.054872755
-0.021964412
0.0090018995
0.047619574
0.07654863
0.07317617
0.06070495
0.04592681
0.037810713
0.03789344
0.02454627
6.851188E-4
-0.020173898
-0.02829458
-0.033205938
-0.04312229
-0.046497125
-0.049369894
-0.045561355
-0.026492694
-0.0096241655
0.004194284
0.017080385
0.025181467
0.028359199
0.022357404
0.018850105
0.027508637
0.03741529
0.042436086
0.045307647
0.04561547
0.038083237
0.023109326
0.007565677
-0.0053546694
-0.016721036
-0.029400444
-0.043403737
-0.05160413
-0.04646922
-0.03506701
-0.025990307
-0.015458459
-0.0086987205
-0.008256706
-0.005403789
-0.003912227
-0.006139237
-0.0074812216
-0.006657418
-0.0031211502
-0.0017859464
-0.0017969987
7.944043E-4
0.0042782603
0.01012554
0.01302962
0.013299796
0.018489955
0.020564219
0.018141743
0.016802888
0.014028046
0.0115942545
0.009686439
0.007931599
0.006262865
0.00214231
-3.1352293E-4
-0.0010836809
-0.001799811
-9.2213164E-4
-0.0017310702
-0.002541196
-0.0021910316
-0.0025301361
-0.0021615622
-0.0034833278
-0.0045890827
-0.0023352853
-0.0012787473
-0.0037956128
-0.007838362
-0.008517882
-0.005713623
-0.006416601
-0.009459104
-0.008623173
-0.008089343
-0.011218073
-0.010400861
-0.0062901094
-0.0033820732
0.0011088236
0.0024218396
0.001446198
0.005055658
0.00849224
0.0098119415
0.008442729
0.006613257
0.009145612
0.00775918
0.0033278207
0.0028773511
0.0013597684
-5.8656506E-4
-0.0013198669
-0.0012531595
3.6674595E-4
-6.019333E-4
-0.0019011392
-8.2019385E-4
2.4776705E-4
0.0015494893
7.3160656E-4
-0.0010493662
-8.588882E-4
-0.0014245351
-0.0023807262
-0.0037999826
-0.00487322
-0.002407769
-3.232503E-4
7.318005E-4
0.001998179
1.3106198E-4
-3.5690793E-4
0.0016668369
0.0015985285
0.00206429
4.959069E-4
-0.0040281992
-0.004306806
-0.0020221528
-8.844145E-4
-7.8534044E-4
-0.0012837552
-8.1296725E-4
-6.1548623E-4
2.2472092E-4
0.0011399098
-0.0012687765
-0.0018832736
0.0011939759
0.0023930224
0.0023506202
0.0031475371
0.0028813598
0.0022314559
0.0033896575
0.0036215838
0.0024148
0.0036800015
0.004739829
0.0021424321
-0.0017564081
-0.003891958
-0.0034070367
-0.003352007
-0.0033285513
-8.486173E-4
6.027543E-4
2.8135514E-4
4.460597E-4
5.154703E-4
4.9911364E-4
4.0733037E-4
-0.0012635802
-0.0040243813
-0.004226269
-0.0037114292
-0.005083935
-0.0024485537
0.0016930117
0.0012550877
0.0010794175
0.0010586558
4.276348E-4
0.001350525
-2.950941E-4
-0.0016443832
7.199645E-4
0.0020590038
0.0020165564
-3.6092833E-4
-0.0053152787
-0.006238691
-0.001623391
0.0021982738
0.0014347731
-4.0825972E-4
-9.560932E-4
-1.959317E-4
0.0022959248
0.0019138742
2.9757383E-4
0.0014955912
2.1451926E-4
-0.0013027338
2.6118942E-4
0.0012472802
0.0017978138
9.5746946E-4
5.141356E-4
0.0019341776
9.873502E-4
-0.0011334629
-0.0017110402
1.0431644E-4
0.0019416726
9.014352E-4
-8.844251E-5
-9.922086E-4
-7.596169E-5
0.0023736074
4.1700475E-4
-0.0013228834
-7.4687967E-4
-2.2407816E-4
7.1116356E-4
-0.0017323353
-0.0027131788
-1.5527284E-4
-3.763793E-4
-6.2371185E-4
-9.1717177E-4
-0.0016528076
-0.0014071228
-0.0027902988
-0.0027419752
-0.0017322088
-0.0018631391
-0.0015504574
-0.0022244996
-0.0014988901
-1.3488968E-4
-3.1836046E-4
0.001106759
0.0021352272
0.002184917
0.0022848798
0.0017834074
0.0029705032
0.0026348657
-1.7309614E-4
4.9399187E-5
9.618068E-4
1.5078347E-4
0.0013800954
0.00327583
0.0024640372
0.0018443463
0.0013560045
-0.001677599
-0.0031465665
-0.002414085
-0.0021935375
-9.152043E-4
1.31413535E-5
-9.964743E-4
-0.0022577047
-0.0018914432
-4.9127324E-4
-9.468527E-4
-8.1266207E-4
-1.9439198E-4
-0.0020951745
-8.2169083E-4
0.002054478
7.8487064E-4
3.3638882E-4
6.905157E-4
-4.1210165E-4
-2.8373578E-4
-1.3863E-4
-2.9256704E-4
-3.1530968E-4
-3.9978037E-4
5.009119E-4
-2.6543633E-4
-9.6331566E-4
0.0022755489
0.0033126243
7.194272E-4
5.4933503E-4
0.0012583606
9.3222153E-4
7.8043115E-4
4.607109E-4
3.511515E-4
-7.960144E-5
6.904695E-4
0.001984777
-3.653136E-4
-0.0014857795
3.1423746E-4
2.0179221E-4
4.7074564E-4
4.7628747E-4
-7.752601E-5
0.0011701906
4.2642114E-5
-0.0024919703
-0.0030448132
-0.0030523739
-0.003840075
-0.005116838
-0.002935933
7.319213E-5
2.24012E-4
0.0018914973
0.0034595074
0.0033959893
0.0011451882
-0.0024689015
0.0017515086
0.005873263
5.4114044E-4
-0.0011165714
0.0014708927
4.1366555E-4
1.0372036E-4
-4.096534E-7
-0.0018007971
-2.8750242E-6
0.0027643384
-1.4755497E-5
-0.0011335589
0.002350288
0.0018004517
-7.135338E-5
-0.0012952551
-0.0038238512
-0.0012818835
0.0018971866
-8.219693E-4
-0.0026555613
-5.8917026E-4
0.0014167235
5.5654166E-4
-0.001205327
-0.0013506677
2.5198923E-4
0.0021905694
6.6402194E-4
-5.461951E-4
0.0014594727
0.0013796666
0.0011318781
7.9324434E-4
-9.581423E-4
-1.8338513E-5
2.8964796E-5
-0.001183525
-7.2044355E-4
-0.0016389398
-0.0019534482
-7.768194E-4
-4.19587E-4
3.7268596E-4
0.0012830048
8.1303343E-4
-7.0998905E-4
-7.4261625E-4
3.8569287E-4
-3.158875E-5
3.5814595E-5
0.0015838266
0.0020425236
-1.2076165E-4
-0.002496603
-0.0013441696
4.52063E-4
1.63256E-4
-1.4960044E-4
2.5135276E-4
0.0010528774
0.0015129489
0.0018851558
0.0010722996
-0.001065264
-0.0010118401
-8.641219E-5
0.0014637588
0.0027770805
1.5426581E-4
-8.6226116E-4
1.2660009E-4
-7.0548855E-4
-3.3185E-4
-0.0015158013
-0.003325444
-0.0013524248
5.2702625E-4
6.4652966E-4
1.843107E-4
5.018459E-4
0.0013869277
6.587354E-4
-0.0013489416
-0.0027539001
-1.7350492E-4
0.0018306599
-7.619698E-4
-3.3588047E-4
0.0014725089
8.129953E-4
2.468805E-4
-0.0011104121
-9.1810536E-4
-1.21723344E-4
-4.1350027E-4
2.1987646E-4
5.9507845E-4
0.0025502814
0.0025429814
-9.984232E-4
-0.0016080159
-0.0018213273
-0.0010073346
9.2471513E-4
5.429384E-4
0.0027982409
0.0031793802
-7.4119004E-4
-0.002079632
-0.0025171177
-0.0019901355
-5.413628E-4
4.5710753E-4
0.0012932117
-7.101955E-5
6.490107E-4
0.0017310873
-2.1075185E-4
0.0013107846
0.0013758318
-0.0027830892
-0.0024589219
-7.4867254E-5
-3.1912065E-4
-5.255574E-4
1.212442E-4
-8.65986E-5
-4.5640813E-4
1.8546285E-5
4.4141227E-4
8.364577E-4
6.523633E-6
-2.4390822E-4
9.635851E-4
-0.0014621231
-0.0023025172
0.0018799999
0.0024288814
9.70344E-5
-6.765536E-4
-5.0047686E-4
-5.7045225E-4
-0.0015509145
-2.7993106E-4
0.001386882
9.875342E-4
0.0016834378
0.0011403833
-8.3918456E-4
-9.609826E-4
-3.0835907E-4
0.0010877206
0.0021546902
0.0012795709
-5.7765254E-4
-0.0018483533
-7.438275E-4
1.5330713E-4
-0.001287657
-7.9539197E-4
0.0026892023
0.003069317
-6.3028635E-4
-0.0011742932
3.8697227E-4
-5.8109005E-4
-9.541534E-4
-0.0019283384
-0.0026735608
5.3072936E-4
0.00177085
6.4732676E-4
6.377204E-4
-4.1431712E-4
-0.0018895688
-0.0028541852
-0.0016151606
-2.8281665E-4
-0.001231534
0.0012536809
0.002682945
8.782796E-4
0.0030601833
0.0027755254
-2.587053E-4
-5.00308E-4
-0.0016290001
-6.7449536E-4
0.001010422
-1.6584863E-4
2.6603893E-4
2.8274802E-4
-0.0012369036
-0.0016523644
-6.138766E-4
0.0012638617
9.4862917E-4
-8.728381E-5
3.0534744E-4
0.0010528243
0.0015655615
-3.04158E-4
-0.0018187768
-3.2580318E-4
0.0011430563
0.0010529464
-7.7510776E-4
-0.0014445441
-7.6233805E-4
-7.9242E-4
5.988919E-4
0.0012256509
7.3133846E-4
9.518106E-4
-8.2820916E-5
-4.9753922E-5
7.3479436E-4
3.615453E-4
-6.399106E-4
-0.0027692744
-0.0021084454
-8.044488E-4
-0.0014735935
7.8958005E-4
5.040886E-4
-0.0026521373
2.3318375E-5
0.003584932
0.002805148
1.7047524E-4
-9.082063E-4
0.0015984284
0.0024582748
-3.6398796E-4
-8.4311306E-4
0.0011347348
9.2380104E-4
-1.1412499E-5
9.442279E-4
8.734652E-4
1.6772232E-4
9.3001657E-4
1.0823914E-4
-0.0010127209
-2.8410472E-4
-5.460373E-4
-8.5090613E-4
7.388241E-5
3.2284082E-4
-2.584901E-4
-2.2911426E-4
6.6368683E-4
-6.2969734E-4
-0.0035401941
-0.004293289
-0.0038946415
-0.0019821902
-3.747324E-4
-0.0022508532
-0.0023781662
-0.0010091971
-0.0013193339
-7.5396465E-4
-5.879805E-4
0.0012879824
0.004501392
0.0023871202
-6.203175E-4
3.2788666E-5
0.002171349
0.0038968802
0.0033207478
0.00370432
0.0043173195
0.0025252
0.0027928886
0.0032929694
0.0015471608
2.903816E-4
-2.1806137E-4
4.5155187E-4
9.307119E-4
5.046142E-4
-6.3089054E-4
-0.0035010139
-0.0049919053
-0.0040735067
-0.0023878706
-0.0012691028
-0.0019287679
-0.0021287426
-0.0017038292
-9.6980674E-4
-6.611462E-4
-0.001161568
-2.311375E-4
-0.002646331
-0.004014754
0.0014276764
0.0010666182
2.2956414E-5
0.0076363017
0.009936679
0.003466449
-0.0031729718
-0.0037109153
-6.118738E-4
-0.0018849652
-0.0027222608
-0.0019675957
-0.002383347
-0.0014923278
-0.0036215177
-0.0029498446
0.0039314255
0.0057177027
0.0042517255
0.0020093003
-0.0016177406
-0.0010850481
5.3354027E-4
8.666189E-4
5.343246E-4
-0.0013482429
-0.0012782121
-4.3705452E-4
2.2573692E-4
0.0027558338
0.0036526877
0.002465286
0.0011537104
-1.2855041E-4
1.0508879E-4
3.0275798E-4
-8.3424675E-4
-0.001514211
-0.0015407108
-3.6938206E-4
7.2585716E-4
-5.464424E-4
-4.4364235E-4
0.001398581
7.042872E-4
1.7516215E-4
3.1289083E-4
-5.802507E-4
1.751805E-4
-8.8666304E-4
-0.0032342963
-9.154507E-4
0.0011425896
4.3770892E-4
2.7041047E-4
1.6427548E-4
6.731911E-5
-0.0012694598
-0.002949497
-0.0028432552
-0.0021093285
-0.0010461751
-0.0012618976
-8.555664E-4
0.0015528
0.0013324639
7.96367E-4
6.002954E-4
-0.0011249789
-8.337652E-5
7.068091E-4
2.4794677E-5
0.0013846642
0.0012090284
3.9610392E-4
9.973288E-4
0.0010935267
0.0010555489
1.10639936E-4
-7.336886E-4
2.0065751E-4
0.0015085835
0.0013614909
-3.4296868E-4
2.3316036E-4
0.0021004488
9.0159965E-4
3.5096682E-4
0.0018065049
0.0011260761
7.0886785E-4
0.0025126531
0.0024687771
0.0014173759
5.811613E-7
-0.0037145778
-0.004239447
-0.002305258
-0.0028758813
-0.0020942255
-8.437966E-4
-1.5365396E-4
8.7937055E-4
-5.809098E-4
-0.0015395014
-0.0014203875
-2.9166852E-4
0.0018054238
2.5210765E-4
2.422079E-4
0.0012752803
-0.0014943472
-0.001436559
-0.0011193798
-0.0026491592
-6.992927E-4
0.0024044607
0.0036056987
0.001976463
4.2272176E-4
-2.556098E-4
-0.0012224715
4.2471327E-4
3.7108507E-4
-6.2245315E-5
0.0027228002
8.782952E-4
-0.0020234429
-9.300076E-4
-9.9490484E-5
0.0010134309
1.6821035E-4
-0.0030080476
-0.0027909856
-5.5026365E-5
0.00139913
0.0017781769
0.0010326479
1.7122182E-4
0.0023474623
0.0027074541
8.004992E-6
4.0563964E-4
-8.446942E-4
-0.0021990514
5.729696E-4
1.938025E-4
-8.0730516E-4
-9.455671E-4
-0.0015520087
7.007709E-4
2.8904944E-4
-3.0817863E-4
0.001300976
-0.0010069871
-0.0011014404
0.0011562259
5.9671194E-4
2.039225E-5
-0.0012939555
-0.0015003918
-8.378455E-5
3.4852335E-4
0.0011669598
2.1511715E-4
-0.0010428948
-7.2674186E-5
-5.3949025E-4
-5.9784885E-4
8.495341E-4
0.0012775613
0.0015812196
3.1153206E-4
-0.001087293
1.6199374E-4
-1.4383424E-4
-0.0010001555
-1.5096965E-7
-1.9322618E-4
5.496913E-4
0.0020066386
0.0015748371
0.0018574253
0.0016202965
-2.7130297E-4
-0.0033556677
-0.005934418
-0.0029725695
4.7347974E-4
4.5719207E-4
0.0012686293
0.0010208065
0.0013180146
0.00394242
0.0037305227
0.0012216037
-9.95515E-4
-0.0032016651
-0.004100303
-8.5808436E-4
0.0017030995
-0.0014806035
-7.6606503E-4
0.0022636235
-0.0016515394
-0.0020057864
0.0014457037
8.688295E-5
2.6351368E-4
0.0013651768
-4.7423225E-4
-0.0010624338
-1.0391279E-4
0.0011008612
0.0015212061
2.2903952E-4
-6.857127E-4
-7.3515077E-4
-0.002007833
-0.0024225144
9.905349E-4
0.0027195455
5.953031E-4
6.067584E-4
0.0016062364
7.445192E-4
9.3926974E-5
-1.6802147E-5
-2.4184257E-4
-7.5098395E-4
-1.03242375E-4
0.0011986102
2.7668432E-4
-3.6842359E-4
-9.544523E-6
-0.001811036
-0.0025028987
-1.2932766E-4
0.0017103888
0.002734861
0.0020583684
-0.0013995762
-0.0023111564
2.924763E-4
0.0012452712
3.8711145E-4
-0.0011489309
-0.0021898623
-8.7000075E-4
6.5563055E-4
9.533602E-4
-2.869557E-4
-0.0025471551
-0.0025449127
-7.597319E-4
7.64889E-4
0.0013698204
5.5231526E-4
-1.5645745E-4
-3.0921373E-4
1.3450588E-4
3.838764E-4
-8.8847376E-4
-0.0010458486
5.366062E-4
0.0018153591
0.0015894762
4.8479091E-4
0.001451941
0.0017678555
7.4400083E-4
0.0025261769
0.0024618646
-8.31684E-4
-0.0023488556
-0.002290118
-6.254007E-4
0.0014648223
0.0011148404
-0.001012262
-0.0024458265
-0.0015231427
5.1381812E-5
0.0011517684
0.0016154206
5.2596035E-4
-2.3802827E-4
-4.2166666E-4
-0.0011148748
-0.0012131123
-1.4083878E-6
0.0010566466
-1.347055E-4
-8.7686034E-4
-9.853917E-4
-0.0033291222
-0.0027318357
9.846103E-4
0.0018568758
0.00125414
9.743669E-4
3.3540328E-4
-4.4498823E-4
-2.2021124E-4
-2.5192578E-4
-0.0017094255
-3.4221716E-4
0.0019060004
0.001087973
-7.020365E-5
-0.0014417474
-0.0011326495
0.0011650446
0.0014174461
5.083866E-4
1.4794865E-4
0.0013457988
0.0012246323
3.7763075E-5
0.0028767143
0.002677562
-6.286457E-4
-5.492937E-4
-0.002234638
-0.0017980773
0.001162345
-9.247463E-4
-0.0017576878
-3.7367936E-4
-3.9472862E-4
2.7636316E-4
-4.4317797E-4
-8.649945E-4
7.786429E-4
0.0011714731
7.543274E-4
-3.0310985E-4
-0.0023656643
-0.0018839829
0.0014603421
0.0015874017
-0.0018059945
-0.0023520314
-2.3124226E-4
0.0014821212
0.0015156153
-9.5310555E-5
5.486252E-4
0.0025512928
0.0021955643
7.216406E-4
-0.001201881
-0.0020763308
-0.0014134478
-0.0014971476
-0.0011270386
-0.0016900784
-0.0028364828
6.80867E-4
0.0027420463
2.6415574E-4
0.0014253272
0.0020093808