6.434577E-5
3.4524026E-4
7.061409E-4
0.0018275895
9.843564E-4
-1.82674E-4
0.0017235108
0.0012497618
-0.0014829319
-0.0017478549
-0.0022542165
-0.0036100606
-0.002337568
4.889593E-4
0.0013063871
9.6083083E-4
7.125126E-4
9.0949514E-5
1.7374348E-4
-3.478008E-4
-0.0014583145
-0.0017433504
-0.0012812684
0.0019136589
0.0031941764
-1.285503E-4
-5.59464E-4
9.893412E-4
0.0010193344
0.0011399612
-1.0967124E-4
-0.0013317701
-6.5256323E-4
-2.2628042E-4
-7.146163E-5
3.0492505E-4
-1.3176732E-4
2.6130443E-4
0.0017518932
-4.5382674E-4
-0.0027466584
0.0010046854
0.0032482487
0.0011164113
1.1889598E-4
-8.3200634E-4
-0.0018371117
-8.471686E-4
2.8080956E-4
1.2960246E-4
-2.572296E-6
-5.5350574E-5
-7.175693E-4
2.8001211E-4
0.0016400993
9.99255E-4
0.0010071436
6.725554E-4
-9.985907E-4
-0.0013652905
-8.014214E-4
-7.898001E-4
-0.0015015635
-7.708241E-4
7.340165E-4
-5.2095245E-4
-0.0019965249
-0.0021017992
-0.0016117018
7.701916E-4
0.0019328695
9.311138E-4
9.822565E-4
4.280556E-4
-7.957087E-4
-1.13775E-4
9.13312E-4
9.367073E-4
3.1768548E-4
1.0374512E-4
0.0012568405
0.0010532443
-4.726753E-4
5.9172995E-5
9.00774E-4
4.3726852E-4
-5.4603495E-4
-7.2915445E-4
0.0011657327
0.0012062652
-8.5457554E-4
-4.3597666E-4
5.6312507E-4
4.7733172E-4
5.470484E-4
3.6620218E-4
-6.351275E-4
-0.001287589
6.135169E-5
6.467613E-4
1.4143817E-4
-2.5944263E-4
-0.0029195116
-0.0025458017
0.0010995453
6.960515E-4
4.3276206E-4
7.832221E-4
-0.0016270695
-0.0015704442
3.0973708E-4
4.8748625E-4
3.7215214E-4
4.6624256E-5
-3.663798E-4
-3.5001233E-4
-0.0015432655
-0.0029441519
-6.946471E-4
0.0015527378
1.795799E-4
3.168426E-4
0.0014339505
0.001115282
0.0012283017
4.798629E-4
1.4348378E-4
7.7613164E-4
0.0010304311
0.0016958409
0.0012714633
0.0014891753
0.0013609434
-0.0017222215
-0.0015520548
9.946522E-4
7.7535544E-4
-3.9548188E-4
-8.292744E-4
-1.4919807E-4
-0.0011587623
-0.0020331158
2.664942E-4
1.1890802E-4
-6.9635274E-4
9.0219366E-4
8.9443434E-4
-8.689167E-4
-0.0034811192
-0.003245978
-6.3660555E-5
7.3160947E-4
9.184729E-4
0.0013206122
0.0016444589
0.0015358033
-0.0015286673
-0.0022374052
0.0011001417
0.0027502663
0.001407453
-7.438716E-4
-5.242469E-4
5.744779E-4
5.813431E-4
-2.4118136E-4
-0.0018757358
-2.1184872E-4
9.6506515E-4
-0.0018609349
-0.001063053
8.203811E-4
1.827137E-4
6.2385824E-4
-1.7391848E-4
-0.0011061974
-2.2434902E-4
-0.0010010849
-0.0017905728
-3.006717E-5
9.4382494E-4
4.9185477E-5
7.8060775E-4
0.001883703
6.378443E-4
-2.5726593E-4
1.5918243E-4
6.754745E-4
0.0016193577
0.0015184921
-7.505542E-4
-0.0017045962
3.599796E-4
0.0018095257
0.0021626728
0.0013252394
-0.0016332456
-0.0016320983
5.5160356E-4
-2.9710957E-4
-9.492827E-4
-7.090604E-5
-3.6973716E-4
-7.839531E-4
-3.0895186E-4
-4.6535712E-4
-9.913001E-4
-3.728828E-4
-7.046247E-4
-0.0021957012
-0.002576849
-0.0015458305
0.0015786357
0.0026344045
2.1999193E-4
5.548083E-4
0.0012184983
-5.6712545E-4
-9.2811557E-4
-9.7561127E-4
-9.1033167E-4
0.0014179578
0.002775076
4.4482414E-4
-0.0012671448
6.1738066E-4
0.002710498
0.0033764285
0.0021070144
-1.3980156E-4
-2.3073313E-4
-3.850758E-4
-0.001064589
-5.6397065E-4
-3.4571908E-4
2.056411E-4
-2.481894E-5
-6.318464E-4
-2.0672784E-4
-0.0012995264
-7.966394E-4
0.0014836473
1.5222283E-4
-0.0022420904
-0.002612818
-0.002234526
-0.001864849
-7.337467E-4
2.5958798E-4
-0.0015815173
-0.0028115318
-5.2615587E-4
0.0017617733
0.0022119766
0.0017569637
0.0017041473
0.0011910037
0.001644321
0.003582827
9.4392616E-4
-0.0015879575
6.9597544E-4
-2.6557388E-4
-0.0010798839
0.0018474733
0.0015861375
9.620596E-4
0.002501801
0.0021425243
8.1335887E-4
-8.0517936E-4
-0.0026968322
-0.0025042538
-0.0017767265
-0.0017744444
-8.425936E-4
-0.0011927888
-0.001531992
0.0011848807
0.0014269174
-7.801902E-4
-5.605037E-4
-2.579832E-4
-7.291824E-4
-0.0010009804
-5.0473365E-4
5.573405E-4
-1.5741185E-4
-4.956648E-4
3.095834E-4
1.5581943E-4
2.3740093E-5
-9.750396E-4
-0.0017964977
-3.7760838E-4
5.6628085E-4
3.8754314E-4
1.3711612E-4
-1.3728261E-4
7.9776073E-4
0.0017823541
4.0893574E-4
-8.1434933E-4
2.1557698E-5
2.686212E-4
0.0010994604
0.0029382391
0.0021225906
2.5092566E-4
-6.972284E-4
-1.11300695E-4
0.0019455792
0.0012338653
-1.3326165E-4
0.002391509
0.0045308126
0.002403097
-0.0012858558
-0.003692996
-0.0046749073
-0.0021874257
-1.9829464E-4
-0.0041577024
-0.004634584
-6.238269E-4
-3.670733E-4
-1.830388E-4
-9.074459E-4
-0.0014666015
0.0014834568
5.1301805E-4
-7.0805225E-5
0.0025923767
8.358886E-4
-5.2550336E-4
-5.4404343E-4
-0.0010321875
0.0016191581
0.0010618321
-0.0018086169
-4.042492E-6
0.0010404757
6.0622353E-4
0.0023805785
0.002513976
0.001185011
0.0018426896
0.0014995111
-3.366772E-4
-1.30910685E-5
2.7017255E-4
-7.622666E-4
-0.00168254
-0.0029672685
-0.002026737
-8.916954E-5
3.5349771E-4
0.0012462708
3.5308526E-4
-6.0178456E-4
-5.353334E-5
-8.621906E-4
0.0010063468
0.0013707889
-0.0027049566
-0.0018252002
1.6136577E-4
-5.5398955E-4
6.214079E-4
0.0011889451
5.143766E-4
-8.5577834E-4
-0.0014212526
-2.2781316E-4
-8.393048E-4
-1.2902307E-4
0.0015617153
8.792181E-4
0.0011849077
9.651082E-4
9.1453566E-4
0.0020120523
2.52009E-4
-0.0012525121
-0.0011745839
-7.2904004E-5
0.0017927616
-2.6140246E-4
-0.0021106012
-4.8115937E-4
-4.089934E-4
-4.6880657E-4
1.03348364E-4
4.3034484E-4
0.0018064908
7.7215786E-4
-6.616601E-4
9.7491854E-4
-8.5657564E-5
-0.00206256
-5.3518405E-4
-2.6825294E-4
-3.4487262E-4
4.393677E-4
-0.0012032912
-0.0018202749
-1.8482102E-4
5.881176E-4
2.0044748E-4
4.53146E-4
0.0017713908
3.8845508E-4
-3.8334297E-4
0.0019506848
7.7613624E-4
-4.8563044E-4
1.347464E-4
-8.213138E-4
-9.866294E-5
-5.3694885E-4
-0.001151132
6.3954E-4
-7.284984E-4
-8.1946165E-4
0.0012874181
0.0012441939
0.0013514588
-7.339294E-5
-1.7290727E-4
1.9973608E-5
-0.0037596417
-0.0023225495
0.0019985533
0.0015923113
4.2223345E-4
-0.0011034181
-0.0010198272
4.0614832E-4
4.0799545E-4
0.0017296703
0.0017490732
6.768759E-4
0.0014289629
0.0015701675
0.0020355142
0.0011814049
-0.0017325213
-0.0022811638
-0.0013217366
-0.0010944011
-0.0023488281
-0.0027502766
-7.7978574E-4
-5.420881E-4
-3.8828453E-4
6.356613E-4
-3.618818E-4
4.707934E-4
0.0025776378
0.0013508243
-0.0011011037
-0.001962059
-0.0012713982
-9.130756E-5
6.221457E-4
6.210918E-4
6.472883E-4
9.123638E-5
-3.868318E-4
0.0016485237
0.0016971059
1.9220075E-4
0.0021343036
0.0012863487
-8.937459E-4
5.0317694E-4
-6.9275015E-4
-0.0019948534
-6.140412E-4
-7.408901E-4
-1.9098859E-4
0.0013952977
0.0010727175
-3.1668102E-4
2.1073456E-4
0.001287938
-7.7257707E-4
-0.00212821
-0.0016401353
-0.0013315876
0.0013838323
0.00256817
5.7437125E-4
0.0010233712
0.0019132638
1.7089611E-5
-0.0017426045
-0.0016446066
-0.0022190083
-0.003069165
-0.0014721913
-9.3177E-4
-0.0016343893
7.574347E-4
0.0031301705
0.0024463604
9.3666674E-4
0.0013289214
0.0027716309
0.0011730726
-0.0010989634
5.4609736E-5
0.0017301032
0.0022434394
0.00247147
0.0017971145
-7.817205E-4
-0.0047306065
-0.0061019827
-0.0036546604
-9.320624E-4
7.684415E-4
5.5859983E-4
-0.0021014323
-0.0025589904
6.5186695E-4
0.0011670844
-0.0015005772
-0.0022241957
-0.0024042137
-0.0024831104
-7.29974E-4
4.423891E-4
0.0010155472
0.0010208957
0.001667411
0.0048508593
0.0054030493
0.0044435873
0.0053494386
0.004226576
0.0028460606
0.001681192
-5.236228E-4
-0.0010740572
-0.0012128167
2.0721915E-5
0.0018894894
0.0011914332
1.0886053E-4
-0.0017399194
-0.0035556257
-0.004505155
-0.0056047486
-0.004241363
-0.0036663823
-0.004534196
-0.0029370335
-0.0016974488
-4.1899487E-4
6.509317E-4
2.7696716E-4
0.0013869335
0.001705576
0.0015961214
0.002509597
0.001768821
7.0415443E-4
-0.0010184785
-0.0016616549
5.281695E-4
3.2662097E-4
-2.97029E-4
0.001047118
0.002076679
0.0046013915
0.006318784
0.0065921494
0.0067423317
0.0026288668
-0.0019248128
-0.004102713
-0.00892492
-0.0114710275
-0.007014848
-0.002333755
-8.590982E-4
8.247946E-5
1.681418E-4
1.45266495E-5
0.002436573
0.0036140028
0.0019589905
0.0017816417
0.0028324702
0.0044311546
0.004281493
0.0020362607
0.0018363917
-3.8123527E-4
-0.0039432854
-0.0034762966
-0.0028628951
-0.0018255555
9.03543E-4
0.0024721052
0.0021260246
9.837168E-4
0.0030752993
0.0046333144
0.0017833012
-3.2592268E-4
-0.0019116938
-0.0034317705
-0.0053774845
-0.0072444896
-0.0046269447
-0.0041084
-0.004816064
6.2626705E-4
0.0026188653
-2.9946797E-4
-5.780928E-4
9.3002565E-4
0.004013983
0.004951254
0.0024091164
0.0015259612
5.4869533E-4
-8.1377715E-4
-6.8551546E-4
-0.001647894
-0.0012073438
0.0010950037
0.0011406777
9.934404E-4
-2.6221384E-4
-0.003158704
-0.0019335776
0.0010817144
0.003290204
0.00576912
0.0039484166
-3.3514187E-4
-0.0012981979
-7.190831E-4
-3.8625274E-4
0.0013029159
0.0028372456
-0.002150115
-0.010434585
-0.009821529
-0.0026412476
0.003013481
0.010125198
0.015230859
0.010115511
0.0022706399
-0.0015205354
-0.0048537403
-0.0062235976
-0.0048909867
-0.0026721482
-6.2843005E-4
-0.0012988175
-0.0013712038
-7.064302E-5
-3.9591402E-4
-0.0018444207
-0.0033980492
-0.0019310733
-0.0020609987
-0.0036627075
0.0010432156
0.0010370349
-0.0045040436
-0.003988878
-0.0015263814
0.002546763
0.005485708
0.0045538177
0.004798311
0.0027990718
0.0026981079
0.0039908136
-0.0011953706
-0.0026371176
-2.1327932E-4
-0.0011665024
-7.241015E-5
9.76978E-4
3.7761775E-4
0.0031036185
0.0040653823
-0.0018424835
-0.0061956686
-0.0045099785
-0.0030266715
-0.0026458083
-0.0024815048
-0.0015938012
3.83212E-4
-0.0016042489
-0.0041692527
-0.002981962
0.0010686642
0.00891049
0.012944536
0.009709234
0.0068505392
0.006569672
0.0050121746
-7.0238323E-4
-0.0061491504
-0.007836062
-0.0069652908
-0.004505922
-0.0040188516
-0.0030603558
3.6734898E-4
0.002304874
0.0014060173
-0.0046803816
-0.009936628
-0.00917613
-0.0080855265
-0.004159121
0.0026978194
0.005755968
0.0046123373
0.0029356095
0.0041337227
0.0044154245
0.004483574
0.0080681
0.009749265
0.009980235
0.00753493
0.0016644832
0.0023233038
0.0052482453
0.003307809
0.0027505741
0.0030411002
7.081455E-4
-7.73872E-4
3.6186868E-4
8.449482E-4
-0.0018794956
-0.0073341704
-0.012592678
-0.013014704
-0.00957298
-0.0064693163
-0.00494428
-0.006526661
-0.011595617
-0.017545858
-0.018614415
-0.01355321
-0.009107378
-0.0064544613
-0.0042677834
-0.002583951
-9.1727736E-5
-6.637466E-4
-0.002029858
0.0012266006
0.0045108683
0.008547608
0.015007048
0.018851621
0.024224857
0.03361879
0.037355304
0.03372221
0.028813891
0.022568343
0.01659066
0.012270568
0.004217136
-0.0068835467
-0.014207441
-0.012794432
-0.005316752
-0.003017078
-0.008747393
-0.01836218
-0.029089566
-0.03698256
-0.04182356
-0.039072916
-0.029708195
-0.027317043
-0.028179808
-0.021345736
-0.0077607073
0.0076537183
0.018193975
0.02543019
0.029233724
0.026647396
0.026217954
0.026171071
0.019676264
0.0091558555
-0.0013860574
-0.0027851488
0.0012090852
0.0018051645
0.0060121
0.014632265
0.020662218
0.016237304
0.0032907203
-0.0044506905
-0.010097983
-0.016717166
-0.01856891
-0.020157602
-0.022092778
-0.023568168
-0.02070255
-0.009887375
-0.002224587
0.002986605
0.013133466
0.024284285
0.031461615
0.027078139
0.011219052
-0.009477839
-0.025259225
-0.025004689
-0.01858929
-0.01336128
-0.0036503514
0.003931046
0.007716022
0.010717701
0.009508459
0.009250762
0.015745262
0.022938108
0.02053777
0.005501659
-0.015354482
-0.026287513
-0.015746811
0.005785673
0.023725
0.028480297
0.012819686
-0.00860591
-0.018932907
-0.022672603
-0.023815868
-0.014841998
0.0039129984
0.017115645
0.026157018
0.038069528
0.035628784
0.019960832
0.006592895
-0.013014478
-0.037781402
-0.044295862
-0.027473746
-0.013819874
-0.014768764
-0.014460844
-0.008301996
0.005488925
0.018467257
0.013248313
-0.0032168971
-0.02574476
-0.04463339
-0.046374008
-0.04124734
-0.036659505
-0.04870087
-0.07313311
-0.06721289
-0.0305112
0.013896233
0.057688706
0.0977308
0.13115495
0.13935098
0.13381535
0.123569734
0.07469789
0.0134882
-0.008570962
-0.004550228
8.0271513E-4
-0.0025920174
-0.014157185
-0.015888087
6.0414744E-4
0.012764307
0.005652136
-0.009304877
-0.038864337
-0.08210066
-0.1115122
-0.12643997
-0.13363497
-0.12442609
-0.09956831
-0.06585613
-0.02653675
0.010267026
0.03133008
0.051181097
0.089835785
0.121646106
0.12388389
0.11485266
0.11654257
0.11266583
0.06715292
0.0019155438
-0.034892593
-0.042358242
-0.0306733
-0.018957065
-0.029789502
-0.04062749
-0.047774885
-0.07275093
-0.08120807
-0.06666104
-0.07427161
-0.08758053
-0.08417159
-0.07485446
-0.04294395
0.0024533153
0.029373646
0.04910798
0.085827865
0.13033217
0.13727981
0.105117194
0.09641032
0.117088474
0.11158027
0.06325039
0.010919509
-0.014663054
-0.026689572
-0.024184017
-0.015797427
-0.05417671
-0.11134852
-0.120733574
-0.10662841
-0.10186063
-0.101098925
-0.083171256
-0.048796367
-0.03306889
1.9889732E-5
0.069178
0.104567535
0.09843251
0.06551543
0.040350806
0.072927006
0.089864194
0.0601674
0.041665938
0.028073594
0.033125762
0.07226056
0.098018385
0.06058654
-0.039792616
-0.13183673
-0.17231505
-0.17261279
-0.16277634
-0.1736843
-0.15891305
-0.081035234
0.01282358
0.070054054
0.07664445
0.060142245
0.009690986
-0.08069086
-0.119141005
-0.059923396
0.039423436
0.12575792
0.1810091
0.19348837
0.17017862
0.1265969
0.047984663
-0.020348549
-0.019068027
0.007846524
0.025128065
0.023670446
0.025619546
0.0588028
0.04779844
-0.016258044
-0.07577988
-0.1301446
-0.14031126
-0.101196
-0.041122932
0.02413289
0.048546657
0.05636241
0.070258275
0.07235327
0.046471793
-0.052526828
-0.12054953
-0.07318361
-0.053946756
-0.079730526
-0.06498851
-0.047925416
-0.035290327
0.0049526887
0.053005356
0.056649935
-0.0060137147
-0.077306084
-0.09919752
-0.06583178
-0.0151563715
0.010186089
0.008973116
2.801559E-4
0.04294203
0.13338438
0.15421796
0.09803918
0.031273145
-0.015773598
0.0059115416
0.04177923
0.018972551
-0.0038155348
0.0076592593
0.05002153
0.10197537
0.11388777
0.10905522
0.09970673
0.04007472
-0.061244868
-0.14845008
-0.17590305
-0.15340494
-0.11801776
-0.0768579
-0.04216099
-0.02552569
-0.017211612
-0.012356411
-0.011353021
-0.016441213
-0.023457106
-0.022855194
-0.012453447
0.004916136
0.019298585
0.025636086
0.029266542
0.031235954
0.029506491
0.023064934
0.017781235
0.025310593
0.040297944
0.047707498
0.049813464
0.050115097
0.04486813
0.03643254
0.022365754
0.0066508707
-0.0016959385
-0.01617628
-0.037346482
-0.04577387
-0.04319026
-0.03549856
-0.023907486
-0.016796192
-0.012792476
-0.0065623852
-0.003328417
-0.002318707
0.0017749021
0.0036312488
0.002422562
0.0020145427
1.279193E-4
-0.0018846154
-0.0049660653
-0.009448955
-0.010016378
-0.010214099
-0.0123253735
-0.011071582
-0.0074699335
-0.005732124
-0.0032403779
0.003095349
0.008171687
0.011828907
0.018289244
0.022119377
0.021118967
0.0197971
0.017817898
0.012026936
0.0056405338
0.0044824234
0.004277925
0.002844809
9.32987E-4
-0.00515017
-0.007960786
-0.0051009627
-0.0014931919
0.004921901
0.004709946
-0.0026791734
-0.005860337
-0.009981477
-0.012525448
-0.01051662
-0.014983907
-0.019554975
-0.015374782
-0.009855039
-0.0065341713
-0.003436216
-1.1354343E-4
0.0021386207
0.0037584987
0.008476248
0.011459159
0.006951882
0.00520188
0.009465427
0.01041053
0.011354885
0.013332782
0.008164366
-5.3018465E-4
-0.0057017216
-0.0063972794
-0.0040830174
-0.001751877
-5.2185263E-4
8.5058787E-7
-1.6213994E-4
-0.0019345836
-0.0040485426
-0.0046144538
-0.0050004665
-0.005338772
-0.006245019
-0.0056117694
-0.0017722083
-5.02403E-4
1.2625204E-4
0.0022601194
0.0021018104
0.002701695
0.0028667748
0.0015770678
0.0027348096
0.004254309
0.004175427
0.0025201223
0.0024298565
0.004069641
0.0026999624
1.8529592E-4
-0.0028416023
-0.004199215
-0.0023580836
-0.0034098078
-0.0036594458
-0.0021425663
-0.003182931
-0.0012852967
0.0013472037
2.9003315E-4
-6.88381E-4
2.9387683E-4
0.0023218135
0.0017181042
5.451183E-4
0.0021075301
0.001555988
2.782127E-5
9.813134E-4
0.0010992361
-6.8280223E-4
-0.0017991695
-0.0013591249
-0.0014320767
-0.0016046234
-7.0621894E-4
-0.0010881872
-9.5683744E-4
0.001048837
0.0017442993
0.0017381456
8.388832E-4
-7.485887E-4
3.5272166E-4
0.0010046917
-5.0578103E-4
-9.567617E-4
-0.0018773043
-0.0023196307
-6.4204395E-4
8.6473377E-4
0.0025338258
0.0028970386
0.001585962
0.0017183501
0.0027318483
0.0035109604
0.0022229238
2.5311994E-4
3.511758E-4
-0.0016345395
-0.002779321
-8.473448E-4
-0.0026114723
-0.0036553473
-0.0015226913
-0.0016967544
-0.0014981312
-0.0010159567
-0.0016930671
-9.863192E-4
-4.2633442E-4
1.0401429E-4
3.587052E-4
-0.0023774204
-0.005125008
-0.0049696686
-0.0028820364
1.1350298E-4
0.0011492309
-4.074148E-4
3.287881E-4
0.0028977615
0.002046702
6.9541327E-4
0.0026063363
0.0049844985
0.0073621576
0.008753376
0.0060149767
0.0024443362
0.002010774
0.0030094131
0.0024833211
-3.723854E-4
-0.0016793527
2.3750501E-4
2.1151737E-4
-0.0019511415
-0.0025484639
-0.0031751976
-0.004511262
-0.0046080938
-0.003883451
-0.0029523775
-0.0013694486
-5.5007293E-4
-0.0019334143
-0.0029921748
-0.0022023234
-0.0023435545
-0.0032324153
-0.0021212085
-0.0014361835
-0.0027820007
-0.0015539067
0.0015854768
0.0027329724
0.003924827
0.0034248533
2.0661985E-4
1.7761779E-5
8.7086053E-4
-2.01833E-4
8.6911954E-4
0.0021805542
-1.0482697E-5
-0.002134789
-0.0019544077
-0.0017608628
-7.524248E-4
8.7106647E-4
-4.3863244E-4
-8.8104646E-4
0.0018876455
0.002194073
0.0013609033
0.0026966482
0.0031642374
0.0019405223
5.926567E-4
2.3596913E-4
0.0011396795
8.6905627E-4
-0.0014450393
-0.0032554609
-0.002927919
-9.519121E-4
5.981742E-4
0.0010746092
0.0013578028
5.139656E-4
3.162959E-5
8.027235E-4
1.2630023E-4
-9.349312E-4
-0.0019815462
-0.0035356148
-0.003465246
-0.0011263516
0.0028923152
0.00394232
0.0012655576
-0.0013000438
-0.0043511093
-0.0033497622
-7.1168714E-4
-0.0031480312
-0.0023797965
2.2073466E-4
-6.8688684E-4
3.1435455E-4
6.952324E-4
-1.1408622E-4
0.0010201732
0.0014314466
2.7796952E-4
-8.796151E-4
-1.7751033E-4
5.1728473E-4
2.753168E-4
-2.4051771E-4
-0.0018568389
3.2845157E-4
0.004286016
0.0037393216
0.0024517141
0.002339631
0.0024881174
0.0020864985
0.0025003182
0.003847134
2.9494904E-4
-0.0027976297
-0.0011228103
-0.0012886007
-0.0015151382
-0.001018056
-0.0012337717
-8.485346E-4
-0.0021488075
-0.002287598
3.0854815E-5
-9.930835E-6
-0.0010081809
-6.9776113E-4
-7.6947996E-4
-2.0072382E-4
4.484707E-4
-0.0014547409
-0.001302995
2.234826E-4
-0.001064557
9.567787E-5
-5.1854464E-4
-0.003042056
4.6379937E-4
2.0339948E-4
-0.0012491836
0.0036194683
0.0023287202
-0.0017039041
-3.237924E-4
6.553073E-4
0.0011853826
0.0023553357
0.002279383
0.0010296296
4.0158193E-4
-7.457269E-5
-8.533869E-4
3.7859628E-4
7.853669E-4
0.0011124002
0.002729343
0.0011441538
-2.843839E-4
-0.001007656
-0.0017258043
4.1994217E-4
6.50765E-4
3.9728344E-4
3.739709E-4
-0.0025693749
-0.0029124983
-0.002384491
-0.0026545324
-6.577205E-4
3.1936963E-4
3.86676E-4
3.6372477E-4
6.503069E-4
0.0010235255
1.8467127E-4
0.0021914947
0.0033834297
-4.675279E-5
-0.0018120743
-0.0015993974
-3.9270474E-4
0.0015290972
9.272141E-4
9.132589E-5
6.593146E-4
-2.598941E-4
-0.0019136477
-8.9092884E-4
9.833774E-5
-0.0027760724
-0.0042485804
-7.557638E-4
0.0020538096
-1.0449291E-4
-0.0028415832
-0.0016122477
1.372388E-4
0.0014085957
0.0016152591
-0.0011963155
-7.2865625E-4
0.0017793082
0.0017976372
0.0037477808
0.004181908
0.0021792613
0.0018843249
-1.08825545E-4
-0.0014720069
-4.436841E-4
8.1410067E-4
0.0032018644
0.001606592
-0.002766228
-0.0019340393
4.5551482E-4
1.7307475E-4
-1.4943343E-4
1.4320524E-4
-5.4209353E-4
-0.0016376448
-0.0017353699
-0.0018820781
-0.0017368086
-0.0016522418
-0.0026878596
-0.0013741377
9.3521964E-4
6.273916E-4
-4.6103498E-5
-0.0012734553
-0.002122509
-5.717253E-4
-1.3373667E-5
-2.0440448E-4
7.870609E-4
0.0015019835
0.0022501557
0.00241857
0.0012382335
5.3896372E-5
6.331966E-5
0.0025519494
0.0035872469
-1.5405631E-4
-0.0017748872
3.7473586E-4
0.0010567803
0.0015075231
0.0011779208
-0.0014004415
-0.001986588
1.11922345E-4
0.0016693865
5.592032E-4
-0.001753683
-0.002369967
-0.0020521367
-0.0011961298
-7.688291E-4
-0.0010260707
-2.2981E-4
-7.429552E-4
-8.505606E-4
5.071532E-4
-2.5398098E-4
0.0010563362
0.0027240773
9.1553666E-4
0.0014403204
0.0013494842
-0.0011981694
-8.3235285E-4
1.5976122E-5
2.1207989E-5
5.379733E-4
7.091549E-4
-2.5527214E-4
-0.0023209148
-0.002077568
-1.4923189E-5
2.9924531E-6
-0.0013260435
-0.0017864604
4.8458044E-4
0.002996321
0.0023908264
9.801041E-4
-0.0010019605
-0.0037299544
-0.003373607
-6.9868524E-4
-3.7476432E-4
-5.574224E-4
0.0033102983
0.0067098085
0.004558098
8.594233E-4
-3.7911782E-4
8.17475E-4
0.00146097
-8.52979E-4
-0.002777369
-0.0025111858
-0.002543228
-0.0025907797
-0.0013137636
-3.3197293E-4
-4.2701943E-4
4.1128067E-5
7.172616E-4
3.656371E-4
-4.301585E-4
-5.013578E-4
8.0127607E-4
0.001315916
-1.5075543E-4
-7.5394334E-4
-2.4295448E-4
1.20238954E-4
0.0011354837
7.569324E-4
-0.0017656095
-0.0010384757
0.0018841139
6.862571E-4
-4.2212036E-4
0.0016412735
0.0016555532
8.8580936E-4
6.5216975E-4
-5.0642685E-4
-3.9375256E-4
-0.0010519379
-0.0016304567
6.6632155E-4
4.9550855E-4
-9.146539E-4
-4.8045965E-4
-8.880779E-4
6.6956464E-4
0.0025968777
0.0013227005
5.8807037E-4
-2.2749551E-5
-8.4854424E-4
-0.0010925983
-0.002993265
-0.0031126658
-2.7615577E-5
0.0013734713
-3.530094E-5
-0.0011950303
3.82653E-4
9.4589964E-4
-0.0011975646
-2.950355E-4
0.001448739
7.769629E-4
0.001006791
-2.3137516E-4
-0.0016274744
6.6240446E-4
0.0013841317
-1.663286E-4
-6.037963E-4
9.166952E-4
0.00329801
0.0015200403
-3.920359E-4
0.0010014061
-9.642474E-4
-0.0017826168
0.0010320324
8.098561E-4
9.92206E-5
-3.2526912E-4
-0.0012458684
-7.152614E-4
-0.001182153
-0.0010492224
4.298416E-5
-8.0698053E-4
-0.0012937427
-6.8394607E-4
2.7627303E-4
0.0011003902
0.0012046715
0.0012365908
-2.549443E-5
-6.573495E-4
6.9002813E-4
5.848166E-4
4.993686E-4
2.3139527E-4
-0.0026466318
-0.0030019432
-5.656575E-4
3.1248524E-4
0.0013340138
0.0019855143
0.0020170927
0.0025496613
6.6390356E-5
-0.0022553832
-0.0010178776
-8.211538E-4
-1.01074074E-4
0.0020024886
0.0015339503
1.07168475E-4
-7.6288066E-4
-0.0013569449
-0.0013482787
-6.9584587E-4
3.9364566E-4
-2.0447542E-4
-0.0014337862
-6.506947E-4
9.2136103E-4
0.0018322481
9.386041E-4
-7.091611E-4
-9.846783E-4
-8.6572877E-4
-8.671249E-4
-9.220007E-4
-0.0010656816
-2.3184705E-4
0.0011306007
0.0014676586
0.0013994128
0.0019875418
0.0018872346
0.0016453979
0.0019653726
7.307697E-4
-3.1530124E-4
2.636561E-4
9.1232956E-5
-6.747378E-4
-6.6875655E-4
-5.3257634E-5
2.152096E-5
-1.1203828E-5
-4.5158362E-4
-0.0021190664
-0.0019332087
-9.5442066E-4
-0.0011106494
-0.0010851267
-0.0022626978
-0.0018177332
8.46983E-5
-3.2507724E-4
-4.37886E-5
3.8430965E-4
6.9502636E-4
0.0013999094
-2.769539E-4
-0.0011032076
-7.3342345E-4
-4.9241656E-4
5.422512E-4
1.8423451E-4
4.379994E-4
7.9249736E-4
-4.4040342E-5
0.0013224891
0.0018569598
4.5905635E-4
-7.419501E-5
-5.0451026E-6
0.0010147984
0.0010616585
-7.353047E-4
-0.0011447383
0.0010010623
0.0022714408
0.0011521234
0.0015559284
0.0020671252
9.769524E-4
0.0010025274
-8.3527295E-4
-0.002935476
-0.0012547398
-7.157536E-5
-3.1528375E-4
-5.3271226E-4
-5.6413625E-4
1.1501539E-4
-4.5909692E-4
-6.437475E-4
-5.31312E-4
-0.0031322043
-0.0019397173
0.0020035994
-0.0016818618
-0.005313763
-0.0020633629
-0.0010409388
-0.0017423766
-5.059999E-4
6.659308E-4
0.0029324966
0.0028961657
4.0668968E-4
0.0013425256
0.0019210443
-7.0583506E-4
-5.3596304E-4
0.0022915828
0.0019875653
5.85036E-4
4.530942E-4
-6.439303E-4
6.6972076E-4
0.0026987332
0.0014674473
0.0017144902
0.0011927086
-5.968798E-4
4.9688073E-4
-2.3560607E-4
-0.0017836561
-0.0014683653
-0.0012217866
-2.15475E-4
-2.9044328E-4
-5.2832736E-4
-7.631571E-4
-0.0028407406
-0.0020391985
7.941064E-5
2.73534E-4
0.001289722
0.0010628104
-0.0012038018
-0.0016180085
5.97489E-4
0.0017265286
4.7864972E-4
2.4437878E-4
6.873999E-4
-1.5200998E-4
-0.0016993374
-0.00163264
0.0010693333
0.0012850714
-0.0014130506
-0.0022155684
-9.90421E-4
0.0014930838
0.0019236833
1.1800483E-4
2.1830952E-4
-8.8270294E-4
-0.002140333
-1.3528306E-4
-1.8250637E-4
-0.0011320151
5.3878134E-4
0.0015144369
0.0015900544
7.378174E-4
1.9735451E-4
0.0016899233
6.7576196E-4
-1.7949297E-4
0.002243598
0.0016695585
1.8086155E-4
-3.6826392E-4
-0.0015580987
0.0016419201
0.002897437
-0.0021563119
-0.0020794785
0.0016455395
0.0014587654
1.4716457E-4
-0.0013470725
-0.0028028695
-0.0027109818
-0.0017626063
-7.840969E-4
-3.348704E-4
3.1718715E-5
6.107193E-4
9.3933335E-4
2.4175622E-4
-8.6982804E-4
-3.6748237E-4
-1.6125891E-4
-0.0012307562
-0.0012323724
-0.0011862987
-0.0010191747
4.1167386E-5
2.638366E-4
4.4732925E-4
0.0011315235
9.838778E-4
-4.6598967E-4
-0.001431459
5.6583574E-4
0.0017558673
7.9037907E-4
0.0024305047
0.003114745
0.0011322881
0.0015552671
0.00138371
-2.6660587E-4
4.560416E-4
9.378685E-4
-1.361049E-4
-0.0010610005
-9.352707E-4
1.963492E-4
7.70802E-5
-6.2608847E-4
-2.4351396E-4
1.6855038E-4
5.1684514E-5
-6.7344017E-4
-5.5456127E-4
-4.356756E-4
-0.003261236
-0.0052730064
-0.002436297
0.0015947706
0.001351359
-0.0012804533
-6.492576E-4
4.2889206E-4
-8.3163584E-5
7.433233E-4
4.0000645E-4
4.4192595E-5
0.0016873983
0.001447293
0.0010381351
0.0011170671
-5.904569E-4
-0.0010842155
-8.190071E-5
2.2398785E-4
-5.5583665E-4
-5.4350024E-4
0.0015231837
5.7707826E-4
-0.0014479735
0.0020694411
0.003326554
-0.0015923788
-0.0028265514
7.161804E-4
0.0022728436
0.0012193485
2.8918905E-4
-3.1529643E-4
-9.908753E-4
-7.2983623E-4
-3.358485E-4
-1.7139739E-4
7.9903967E-4
7.1527634E-4
-2.7067383E-4
-1.910499E-4
5.306928E-5
-3.3633516E-4
-0.0021813696
-0.0029973302
-8.2369405E-4
-3.937567E-4
-4.123664E-4
0.0014667386
1.7332447E-4
-0.0017993251
-2.8498797E-4
0.0010381268
4.0506874E-4
-4.6400022E-4
5.3786694E-5
4.9866125E-4
-5.561028E-4
-1.09515495E-4
0.0018960729
0.00204689
8.457087E-4
7.9236005E-4
7.36974E-4
-2.9919817E-4
1.5634103E-4
0.0010048208
0.0012629246
0.0013666777
-0.0012159623
-0.0010571479
0.0023142116
-9.539276E-4
-0.0043595713
-0.0023915165
-0.0017495232
-6.0139864E-4
2.9519293E-4
-2.9382276E-4
0.0010528115
1.6303273E-5
-0.0016842838
-2.0105272E-4
-1.4297571E-4
-3.4712066E-4
9.476637E-4
0.0016465525
0.0016027188
0.0013186528
0.0020824897
0.0015542782
-4.8440046E-4
-3.2340843E-4
-8.407903E-4
-0.0022057297
-0.0014747997
-0.0012379055
-7.587754E-4
0.0011505967
0.0017091811
0.0017597766
0.00153966
-0.0012382498
-0.003071778
-0.0010293437
3.5651008E-4
-2.523074E-4
-4.9067585E-4
-1.3921331E-5