2.9798667E-4
-4.51532E-4
-0.0024661226
2.1932912E-5
0.0011080141
-3.765567E-4
-8.263936E-5
-1.9920668E-4
-1.7211291E-4
2.681659E-4
5.395525E-4
5.921536E-4
-7.8364584E-4
-7.3991995E-4
0.0010906145
0.0018274194
0.0013896782
6.6583644E-4
7.5504417E-4
2.444912E-4
-6.3675735E-4
-3.2362088E-5
-4.58305E-4
-0.0010618748
-5.759601E-4
-0.0013659501
-0.0013728926
-2.5771622E-4
-1.4088805E-4
2.950762E-4
6.2682724E-4
2.4753794E-4
3.7889308E-4
5.4108613E-4
6.778281E-4
0.0012532705
9.915805E-4
8.162347E-4
0.0018857329
2.791841E-4
-0.0027851767
-0.0017304192
9.533482E-4
0.001833867
1.0318519E-4
-0.0021096894
-7.979124E-4
3.1127786E-4
6.1378296E-4
0.0016511704
-6.2874355E-4
-0.0018960405
-5.9804664E-4
-6.3586666E-4
2.2959603E-4
-7.18828E-4
-0.0024011114
-7.0936745E-4
-6.05695E-4
-0.0012452792
1.5227806E-5
0.0011936243
0.0017432227
1.831696E-4
-7.2789297E-4
0.0016997403
0.0028548136
6.3572335E-4
-4.0324885E-4
5.568743E-4
-7.246826E-4
-0.0017112098
-0.001029747
-0.001297727
8.908844E-4
0.0025422298
6.877455E-4
6.479584E-4
6.4150867E-4
-1.1920534E-4
2.9497622E-5
-0.0013856041
-0.0015787445
2.9990674E-4
0.0011499753
0.0018770475
0.0014792924
-7.339247E-4
-6.564741E-4
8.4907695E-4
-6.039106E-4
-0.0012726595
6.1221764E-4
-1.6012913E-4
-0.0010908191
5.2532418E-5
-6.786367E-4
-0.0015414236
-8.162542E-4
-1.4646359E-4
4.4978384E-4
-2.3486436E-4
-0.0020859388
-0.0018807655
5.70775E-4
0.0017820692
7.921974E-4
-5.477346E-4
-7.39246E-4
5.35883E-4
0.0012911484
0.0011807889
0.0012021291
5.1996316E-4
4.7185062E-4
0.0016023067
0.002385718
0.0026929555
0.0010527283
-0.0017544861
-0.00226898
-9.758268E-4
-2.9713573E-4
-9.901306E-4
-0.0019773103
-0.0018322263
-8.3637534E-4
-1.8348946E-4
9.8981414E-5
5.64424E-4
4.7257013E-4
1.8465087E-4
-3.4010503E-4
-0.0024627796
-0.002786496
3.5025764E-4
0.0021174622
0.001004143
2.2112377E-4
9.7142166E-4
0.001066153
0.0010999582
0.002220654
0.001554835
3.6609368E-4
1.2677631E-4
-2.8033787E-4
4.5621025E-4
-2.2870731E-4
-0.001246584
3.7702077E-4
-1.4214492E-5
-2.0689711E-4
6.641328E-4
-0.0012305891
-8.4305264E-4
-7.7911594E-4
-0.0036502364
-0.0019660147
9.559288E-4
0.0011037939
8.419915E-4
-1.4753842E-4
-1.2389233E-4
8.8114035E-4
0.0015668729
0.0011232226
-0.0010678428
-9.935418E-4
5.158347E-4
-2.4106387E-4
-9.594773E-4
-2.259113E-4
6.423859E-4
4.702889E-4
0.0010131431
0.0015584085
-0.0012619176
-0.0028081306
-0.001960067
-0.0018540827
1.6913895E-4
0.0014660031
7.7997125E-4
0.001581393
0.0016286975
0.0010935301
0.0012549767
8.879842E-4
4.992887E-4
-5.3947537E-5
-4.0671288E-4
-2.2872486E-4
7.33882E-4
0.0022044939
0.0016765083
1.2770723E-4
-8.59061E-4
-0.002040763
-0.0016454082
1.378917E-4
-5.682152E-4
-0.0026499603
-0.0018930531
-4.5419316E-4
-7.013374E-4
-6.479879E-4
-0.0011795573
-0.0021184557
-0.0012043135
8.168291E-4
0.002135952
0.0014078291
5.860579E-4
5.7575584E-4
-3.7523074E-4
-2.666617E-4
4.861972E-4
-2.209689E-5
6.9729096E-5
6.896223E-4
9.898422E-4
0.0010839511
0.00115614
4.6023648E-4
-4.0995845E-4
6.1157346E-4
-1.3423875E-4
-0.0015091854
-1.875838E-5
-7.4492255E-4
-2.7520888E-4
0.0022579515
1.9506335E-4
5.6415425E-5
0.00212214
8.097059E-4
2.2063384E-4
2.0028947E-5
9.5552E-5
9.138129E-4
-1.231753E-4
3.6967584E-5
0.0012035212
2.4170941E-4
-0.002453632
-0.004223076
-0.0017385237
1.59511E-4
-0.0011705842
-5.754163E-4
1.5175817E-4
5.825205E-4
0.0019475342
-6.2241516E-4
-0.0037524644
-0.002070257
-3.2928956E-4
-8.1072975E-4
-8.2615245E-4
4.0411393E-4
0.0013814253
7.6498784E-4
5.6848413E-4
0.0016024333
0.0018078765
0.0013540883
8.019646E-4
5.6288246E-4
9.265423E-4
4.058522E-4
-6.4951857E-4
-0.001305093
-0.0016080758
-0.0012068929
-8.250811E-4
6.837395E-4
0.0029028053
0.0020168906
5.274607E-4
6.889941E-4
1.3721899E-4
8.69428E-4
0.0014193569
-0.0013424585
-0.0024061687
-1.5176473E-4
0.0018559629
0.0017919325
1.9754306E-4
4.708597E-5
7.7428274E-5
-7.682901E-4
1.1213777E-4
-9.948295E-5
-0.0023809215
-0.0025132657
5.0355807E-6
0.0013662888
-6.8869814E-4
-0.0020248916
-0.0023522228
-0.003941716
-0.0019937458
0.0012922912
0.0011784086
3.1710294E-4
-7.935236E-4
-5.3887535E-4
5.910882E-4
5.726314E-4
0.0023528256
0.0025397115
-3.0080683E-4
-3.6094422E-4
5.607943E-4
-1.166102E-4
3.60299E-4
0.0016878439
6.73435E-4
-7.434416E-4
0.0011016075
0.0020411701
3.334748E-4
-4.3906804E-4
-8.750943E-4
-8.3431375E-4
-5.422533E-4
-0.0010748865
-3.3017618E-4
7.700301E-4
6.7989976E-4
-1.1589719E-4
-0.0010280719
4.284577E-4
0.0021588157
2.0287889E-4
-5.200596E-4
0.0020103615
0.001200753
-0.00124062
-0.001193858
-0.0015068025
-5.0804712E-5
0.0019513648
-1.9409599E-4
-0.0014525611
-0.0010357439
-5.813054E-4
7.7890034E-4
-5.7094486E-4
-0.0015612503
-3.5497276E-4
-5.421615E-4
9.760923E-5
-3.505707E-4
-0.0023647954
-0.0020358104
-0.0017674303
-0.0010182221
0.001079389
0.0013057033
0.0011846523
0.002380366
0.0021568905
-6.242401E-4
-0.0016510477
3.324049E-4
0.0011960404
0.0016912641
0.0025306826
0.0021930726
0.0018948555
4.0789178E-4
-0.0013502114
-0.0010326558
-8.2283147E-4
1.3189008E-5
0.0010991652
-2.1902529E-4
-8.9571933E-4
-8.933534E-4
-0.0020464363
-0.0012926122
1.7956884E-4
1.0776604E-4
-4.1803072E-4
-0.0017688385
-0.0015329608
3.7962387E-4
5.5166584E-4
0.0017625554
0.0023885823
-0.0010938398
-0.0022069472
-3.680393E-5
9.622271E-4
0.0011363669
2.946525E-4
1.9004178E-4
7.763232E-4
-5.4642715E-4
-8.3287543E-4
5.5118266E-4
0.0012190125
8.7464444E-4
-2.0073335E-4
-9.0343674E-4
-0.0023440574
-0.0020712288
0.0016746032
0.001542517
-0.0011030621
-4.9634656E-4
2.2999027E-4
2.977833E-4
-8.6937234E-4
-0.0021815095
-1.9164223E-4
2.6170182E-4
-0.0010025087
4.319833E-4
0.0010073896
8.467526E-5
2.7256165E-4
9.986076E-4
0.0016996076
0.0016092787
0.0013815579
0.0016512647
0.0015401199
0.0014799003
8.112388E-4
-4.5760535E-4
-1.8520434E-4
-1.5808636E-4
-0.0017453731
-7.3438336E-4
0.0012096603
-0.0010494024
-0.0027749047
-0.0015904312
-8.9841004E-4
3.9378193E-4
3.4523735E-4
-5.097305E-4
8.631091E-4
-1.912106E-4
-0.0016555062
-0.0012740748
-0.003543055
-0.003962522
-0.0013061999
-1.0590014E-6
4.7859902E-4
-4.844337E-4
8.667204E-6
0.0023180258
0.0017002961
0.0024253947
0.0049877632
0.0027852461
-4.597584E-4
-9.4912096E-4
-0.001910243
-3.2883926E-4
0.0033543957
8.9833234E-4
-0.0028058137
-0.00194579
-5.044395E-4
0.0019806847
0.001330654
-0.0030028624
-0.0023603954
6.747842E-4
0.0040034205
0.0070867618
0.005558523
0.0025668482
-0.0011142445
-0.0034142504
-0.0018556453
-0.0011355339
-2.266944E-4
-3.6699392E-4
-0.0020239186
-0.0014288632
-8.518748E-4
0.0034160924
0.0061549745
-0.0019874382
-0.00899462
-0.010241281
-0.008676854
-0.0031345978
-3.7601465E-4
8.800286E-4
0.0033953788
0.0027772242
0.0012106515
-9.5482515E-5
-5.854845E-4
4.9320556E-4
3.5804175E-4
9.643912E-5
0.0011603005
0.0019319117
4.1236443E-4
-4.2814686E-4
0.001947932
7.5803086E-4
-8.881858E-4
0.0041903015
0.007710287
0.008439081
0.010007317
0.0056938026
-0.0036454468
-0.009362163
-0.008333637
-0.006074146
-0.0072024455
-0.005326177
-2.6671228E-4
0.0024163125
0.0050981417
0.0053224657
0.0025668072
0.0015488751
9.356574E-4
0.0029484683
0.0039552543
-0.002142089
-0.0055764196
-0.0044555017
-0.0053051133
-0.003684515
0.0024647776
0.0060785366
0.0010109195
-0.005932953
-0.0049935486
-0.001795232
-0.00219795
-0.0025078817
-6.9838505E-5
0.002731451
0.002861319
0.0012063029
-0.0012787547
-9.780184E-4
0.0029158816
0.0027178081
7.3500996E-5
-5.801711E-4
-0.0012273905
-8.201942E-4
-2.0632938E-4
0.0017038527
0.004148011
0.0026114662
0.0017970862
0.002450828
0.003166616
0.0042602047
1.7234428E-4
-0.0019758684
2.6894108E-5
-0.0040228306
-0.004294675
0.0028349187
0.0020667468
-0.0048899115
-0.005987794
-0.0018581625
3.709352E-5
0.0011882699
0.004872983
0.004947724
0.0011534299
-6.0673174E-4
1.3257242E-4
0.0010162796
-0.0013752851
-0.0045475103
-0.0038466896
-0.0031866946
-0.003702609
-0.0019334322
-9.2506217E-4
-0.002628478
-0.0022136024
5.130225E-4
0.0016492471
0.0038433394
0.007237418
0.004348579
-0.0030364383
-0.0045586466
-0.0011006368
-9.5957227E-4
-0.0012686477
0.0024516308
0.004971856
0.005875669
0.007527911
0.0073160185
0.005720633
0.0028309044
-0.002176281
-0.006285892
-0.0068266005
-0.0041614906
-0.0020518878
-0.0014438473
-0.0020247842
-0.004441624
-0.003235846
-1.3822023E-4
-0.0014505038
-0.0021286213
-0.001384708
-0.001782351
-0.0020280217
-0.0032605522
-0.0015150377
0.0026739452
0.0028053324
0.0022350475
0.0032189859
0.0051331404
0.0073080244
0.005868552
0.00515292
0.005712246
1.440545E-5
-0.005892559
-0.006017503
-0.0047884076
-0.0016568591
0.0016467822
2.70402E-4
-0.0016736483
-0.0012469913
-3.1942065E-4
5.3948166E-5
-0.0021490518
-0.0036608113
-0.0019243128
-0.0020709154
-0.0027214072
-6.313426E-4
0.0019924173
0.0042071003
0.0030210516
0.0012976938
0.0050792187
0.006716657
0.0028239798
6.653499E-4
-8.372667E-4
-0.0025075555
-1.8754054E-4
0.0023314068
-1.7511018E-5
-0.0038234189
-0.0049992646
-0.004788629
-0.00478991
-0.0037999887
-0.0017471524
-4.02187E-4
7.0997176E-4
0.001220786
-5.792537E-5
5.3824787E-4
0.0026411891
0.0019614412
3.101513E-4
-0.0014915698
-0.0029062638
-0.0014456619
5.764834E-4
0.0019270682
0.0031701778
0.003457869
0.0030377042
0.0015651089
-4.3028427E-4
-5.707499E-4
0.0023351735
0.0031313829
-5.9021084E-4
-8.8762137E-4
-4.9851654E-4
-0.003135786
-6.792407E-4
0.0016776688
5.9856044E-4
0.0018442114
4.2342962E-4
-0.0021770939
-0.0016322256
-0.0011300154
-5.527127E-4
-3.6981233E-4
0.0014088716
0.004876333
0.0056624506
0.004300418
-8.772731E-4
-0.0072377697
-0.008163029
-0.006095021
-0.003636551
-0.002346169
-0.0022186271
-8.2403107E-4
2.439044E-4
0.0016492392
0.0030535494
0.0025166906
0.0028775868
0.0032494464
0.0012950121
-0.0015124487
-0.003487441
-0.0030581194
-8.670838E-4
0.0011893014
0.0025275357
0.0033764262
0.0033018219
0.0024631897
0.0016634656
3.3286767E-4
0.0012600522
0.0026646205
-0.0012859716
-0.0036114727
-0.0016491344
-0.0021032798
-0.0029660237
-0.0032756082
-0.0036771502
-0.0029890076
-0.0023562931
-3.7688157E-4
9.180768E-4
2.4043676E-4
0.001697922
0.004027346
0.004569367
0.0031998744
0.0019942191
0.001455204
-7.9298316E-4
1.646776E-4
0.0034208365
0.0025108464
0.002815663
0.0032182983
-8.267248E-4
-0.0025109393
-7.394073E-4
0.0016407956
0.0033054135
8.934736E-4
-0.0029646377
-0.0033436767
-9.4030175E-4
6.337782E-5
-5.9810054E-4
-6.2759913E-4
-0.0023285511
-0.0038294313
-0.00381129
-0.0074906494
-0.010194134
-0.008149856
-0.007230932
-0.006117261
-0.003043469
-4.3010415E-4
0.002948793
0.0068451934
0.009580621
0.010905044
0.010167715
0.008196041
0.0068246145
0.004612838
0.0014323114
0.0022778728
0.005519127
0.0045429594
-1.5822889E-5
-0.003695472
-0.004732657
-0.0076024667
-0.010751784
-0.0067448793
-0.0035271288
-0.0035714277
8.375737E-4
0.0049505373
0.009697511
0.013676902
0.008829533
0.0015912247
-0.008159959
-0.018247543
-0.01672501
-0.010033354
-0.0034257357
0.0034659016
0.0062371697
0.008105986
0.009730628
0.012174802
0.014710139
0.00999309
0.004607364
4.956314E-4
-0.008617956
-0.014944653
-0.016024807
-0.015173751
-0.013252511
-0.013578042
-0.010004499
-4.075425E-4
0.0056026345
0.008561624
0.012160652
0.0123273665
0.009406468
0.007835678
0.0070501175
0.0066916607
0.00774712
0.005871357
-2.3947003E-4
-0.0054458575
-0.008014061
-0.010127443
-0.012768628
-0.012891822
-0.010209796
-0.008229001
-0.004521104
9.181491E-4
0.0036816527
0.0041254573
0.0039623925
0.0064156265
0.0074351653
2.1625026E-4
-0.0042658746
-0.0011997414
3.9655872E-4
0.0027423906
0.0065880977
0.010408559
0.018548114
0.024955366
0.023249565
0.016639436
0.009569414
0.0055751265
-0.0011896886
-0.013423188
-0.018379519
-0.015904993
-0.016774822
-0.01786547
-0.017513549
-0.018848123
-0.01734413
-0.013793005
-0.0124092065
-0.011673973
-0.010668401
-0.0082079
-0.005669708
-0.0042434046
0.0011800323
0.008866275
0.010444392
0.004991226
0.0022781824
0.00939796
0.01765922
0.020874666
0.022382269
0.021388417
0.018503264
0.015730815
0.014334177
0.015829384
0.015627488
0.009420168
0.0028358125
0.004754933
0.0061718035
-0.0030780064
-0.00875244
-0.010916705
-0.020337187
-0.027157862
-0.031285908
-0.036231913
-0.035791457
-0.030823657
-0.020689467
-0.009872717
-0.0033295252
0.0023576973
-6.3710794E-4
-0.011441152
-0.010562076
4.0222364E-4
0.005952899
0.012312516
0.026178114
0.03839526
0.04414028
0.035869185
0.015955757
0.003952555
-0.0038317472
-0.011790188
-0.009787582
-0.0074782213
-0.009825221
-0.009547009
-0.007482146
-0.0053555393
-0.0040349658
0.0026960422
0.013309035
0.016713927
0.02206987
0.035222184
0.048826024
0.061809674
0.062303342
0.04515655
0.023046901
-0.0054564727
-0.037948146
-0.061296698
-0.07504499
-0.0759811
-0.06987948
-0.073260866
-0.07056539
-0.049882606
-0.033953015
-0.026865294
-0.017646784
-0.014617291
-0.020815087
-0.020760665
-0.011287039
-0.0036420573
0.012058243
0.043218736
0.06912885
0.08518144
0.09513904
0.093470275
0.094271354
0.101638585
0.09549965
0.081323974
0.07391566
0.050003123
0.0016481722
-0.03394582
-0.05413213
-0.08041057
-0.1035635
-0.11268551
-0.09795128
-0.06612481
-0.0562897
-0.07371235
-0.08945122
-0.09947035
-0.0971549
-0.06838764
-0.03714096
0.007228406
0.09081531
0.14489959
0.16295391
0.21461903
0.24255739
0.18879323
0.078539275
-0.060533743
-0.15138726
-0.16215661
-0.14053832
-0.10230059
-0.07687767
-0.072817124
-0.044931963
0.010064842
0.07793887
0.124372564
0.10155718
0.044744007
-8.7948417E-4
-0.043911003
-0.0725838
-0.08123768
-0.0898242
-0.07088093
-2.3004292E-4
0.07110124
0.10447712
0.08717343
0.007434935
-0.054855507
-0.031949148
0.023913639
0.06930989
0.07003961
0.011785246
-0.05088338
-0.09518493
-0.10614918
-0.08898111
-0.088221885
-0.0682474
-0.024645155
-0.006222026
0.026280072
0.101760104
0.1780989
0.1990188
0.17372736
0.15487665
0.10305804
0.026114542
0.033392943
0.105182424
0.12542343
0.05670078
-0.07038375
-0.23009706
-0.33589894
-0.30307484
-0.24232817
-0.22066963
-0.15456499
-0.065637216
0.01166434
0.06411488
0.06834973
0.085267626
0.09716437
0.07109373
0.05782365
0.025804536
-0.0077616097
0.032639064
0.10764091
0.1418389
0.10912887
0.09445911
0.14841054
0.15935473
0.09444266
0.001991245
-0.08316937
-0.097769745
-0.084872685
-0.105591446
-0.12096861
-0.13532475
-0.15367545
-0.15263093
-0.14167428
-0.12499221
-0.100874335
-0.043742497
0.03536531
0.07721481
0.118314266
0.18853469
0.22962728
0.2332304
0.2100258
0.1414229
0.054462083
0.014404373
0.02106402
0.006743765
-0.035832226
-0.065710716
-0.073944435
-0.07065294
-0.0823292
-0.11253623
-0.12524337
-0.10532507
-0.073991396
-0.05970717
-0.06275363
-0.06976188
-0.07229311
-0.05654926
-0.029827014
-0.0051011974
0.019708192
0.03817786
0.05094456
0.062098805
0.06643658
0.07081583
0.080368824
0.08435438
0.07780822
0.066368826
0.05279663
0.037169505
0.019444741
4.3265533E-4
-0.014472816
-0.025954215
-0.0375705
-0.04271248
-0.03899959
-0.030111281
-0.018200612
-0.0068139657
0.0037528009
0.01217851
0.016975561
0.021725638
0.024793878
0.021363059
0.011876346
2.4099822E-5
-0.010126249
-0.017881801
-0.023626812
-0.026628738
-0.028726835
-0.029493295
-0.026583062
-0.023892105
-0.022683378
-0.018943803
-0.014241492
-0.009559655
-0.0049492335
-0.0019960827
0.0020454074
0.0060857194
0.008497796
0.0111745875
0.01248038
0.014532295
0.01711824
0.015738185
0.0131817935
0.011304078
0.009874018
0.009890387
0.01182834
0.014473676
0.011843594
0.0068011177
0.006156068
0.004931335
0.0010989042
-0.0024614204
-0.0037375514
-0.0024736181
-0.0034336424
-0.0054459097
-0.00825389
-0.012971709
-0.011386555
-0.006492366
-0.004654351
-0.0013859537
0.0012281317
8.6930423E-4
-8.786588E-4
-0.0024626504
-0.0011157482
-8.011061E-4
-0.0020638027
-0.0013780606
-0.002103063
-0.0033619467
-0.0025432683
-0.0015978147
-6.7816384E-4
6.064451E-4
8.3337567E-4
-0.002086667
-0.0037304177
8.804843E-5
0.0031393392
0.0045142397
0.005605346
0.0018105089
-0.0022927984
-0.0016929188
4.4895714E-4
0.0022716254
0.002023565
9.535224E-4
0.0010164325
0.0011180992
0.0029936417
0.005122015
0.0045140414
0.0045380318
0.005828091
0.0043993457
1.8962807E-4
-0.0017999203
1.307818E-5
3.0630114E-4
-0.002103748
-0.0029987115
-0.001936638
-0.0014759914
-0.0032804527
-0.005193695
-0.003551549
-0.0012545619
-0.0020378467
-0.0021888872
-0.0014744467
-0.003634983
-0.0041919313
-0.0019460433
-0.0017564866
-0.0010579221
5.27612E-4
4.0139141E-4
0.001149152
0.0018847163
0.0012861616
3.5516574E-4
-6.731861E-4
8.7825005E-4
0.0035657242
0.0039021908
0.0036833119
0.003257775
0.0010182498
-9.456063E-4
1.6727624E-4
5.133506E-4
-0.0020853574
-0.0013856251
0.0017413382
0.0019071674
2.082814E-4
-9.075919E-4
4.314537E-5
-4.0481891E-4
-0.0021477446
2.0224116E-4
0.0013458581
-4.8054307E-4
-8.467603E-4
-0.0031062749
-0.0036272584
9.423333E-4
0.0011844925
-0.0031732572
-0.0026715866
9.735532E-4
0.0010168429
-4.0325445E-5
1.7894187E-4
5.979458E-4
0.001548119
4.250614E-4
-7.211529E-4
5.241755E-4
-1.857606E-4
-8.5704017E-4
-4.1198442E-4
-1.8690486E-4
0.002122556
0.0023277185
4.4621562E-4
7.6513627E-4
4.3592235E-4
5.6583078E-5
0.0011034128
0.0015109852
0.0010917088
-1.2888225E-4
-0.0014957698
-0.0021937457
-0.0025999981
-0.0031209362
-0.0018248914
0.0013200477
0.0012718503
-9.893308E-4
-0.0015661842
-9.210344E-4
0.0011236012
0.0014162961
-7.593895E-4
-7.860788E-4
-1.6124402E-5
4.6518253E-4
0.0012497506
-1.9189405E-4
-0.001028418
8.2369294E-4
5.580163E-5
-0.0015239819
5.9561676E-4
0.0014443855
0.0014261521
0.0023565686
-7.930423E-4
-0.002538692
3.170285E-4
8.4944925E-4
-2.4962405E-4
-0.0011451561
-0.0010920163
-3.4612187E-4
-6.089414E-4
6.3293637E-4
-4.678342E-4
-0.0032175416
-7.900726E-4
7.31653E-4
5.0968898E-5
0.0011046528
7.816004E-4
-6.549113E-4
-0.0015422209
1.7133816E-4
0.0028056896
0.0012537622
-6.042798E-4
2.0146945E-4
3.356223E-4
-1.7279743E-4
-4.7787435E-6
-0.0010030626
-0.0020223244
4.341236E-4
0.0013280688
3.1647236E-5
0.0014555267
1.8089589E-4
-0.0015529192
1.6500785E-4
-0.0010954195
-0.0014078948
3.9558412E-4
-2.2416153E-4
0.0011881503
0.0022334063
3.0007862E-4
3.3698315E-4
3.0365688E-4
-0.0011403392
-7.2603143E-4
-2.3698065E-4
-5.0161046E-4
3.1460368E-4
-6.883246E-4
-0.0022472106
7.3403135E-6
9.964855E-4
-1.497318E-4
8.840894E-4
-2.1336933E-4
-0.0027131762
-0.0014257905
1.3116711E-4
3.781684E-4
0.0011989764
4.896517E-4
-9.47697E-4
-7.517511E-4
-2.8363135E-4
0.0019927816
0.004165679
9.973047E-4
-0.0012056205
5.7297868E-5
-0.0014315809
-0.0020249595
5.709355E-4
0.0018985857
0.0012897748
2.4942926E-4
7.1683124E-4
7.810905E-4
-7.7005726E-4
-0.0011999609
-0.0025277326
-0.003736382
-8.6716923E-4
0.0021655008
0.0024107462
0.0014763906
3.7902105E-4
1.4143865E-4
-4.304718E-4
-0.0017907056
-7.1134017E-4
0.0013461914
0.0010145045
6.5967557E-4
-3.738048E-4
-0.0024209446
-6.20114E-4
0.0018225705
0.001139612
6.510676E-4
2.9148758E-4
3.854635E-4
7.964765E-4
-6.182162E-4
-0.0010153636
-4.676738E-4
-0.001220494
-4.8533836E-4
0.0012087411
9.896755E-5
-0.0022354708
-0.0019388893
-2.135585E-4
5.6757836E-4
8.833265E-4
-3.3574502E-4
-0.0017304465
-4.8638685E-4
3.7141624E-4
-1.8616571E-4
3.3344605E-4
0.0018003313
0.0021441982
-2.106077E-4
-0.001433854
4.3833442E-4
7.7408797E-4
-5.7985908E-5
2.0507247E-4
2.6886794E-4
-1.6152461E-4
7.700565E-5
0.0017969781
0.001511484
-9.2314347E-4
-6.2733085E-4
3.9008592E-4
6.1140937E-4
5.206549E-4
-0.0010767677
-8.719086E-4
6.030139E-4
4.6300716E-4
-6.1810674E-4
-0.0016201014
2.6819814E-4
0.0020051661
8.248801E-4
-2.4387235E-4
-0.0028855589
-0.003303336
9.535079E-4
9.911766E-4
-0.0017129595
-1.8844158E-4
0.002044937
7.370742E-4
-0.0011049578
-3.3498567E-4
3.4534695E-4
0.0010894011
0.002114044
-4.3921795E-4
-0.0024596874
-0.0012907971
-0.0012958741
-8.2216144E-4
0.0010378269
0.0011774251
4.885591E-4
4.5745072E-4
5.9408956E-4
8.224327E-4
7.4283243E-4
4.2825093E-4
0.002093238
0.0035996235
4.751287E-4
-0.0028490077
-0.002668328
-0.0019828405
-2.845513E-4
8.8021957E-4
-7.0441194E-4
-1.20887435E-5
0.0017078011
5.787258E-4
6.960732E-4
-7.1208767E-4
-0.004854912
-0.0024380009
0.0025845403
0.0013810673
-0.0012514977
-7.3597755E-4
0.0011134208
6.838284E-4
-6.141656E-4
2.4189046E-4
-3.6153776E-4
-0.0012749908
-4.263626E-4
4.2609978E-4
0.0017585785
-1.5006377E-4
-9.72367E-4
0.0030820007
0.001908463
-4.099179E-4
8.5118564E-4
-5.876756E-4
-8.867593E-4
1.8633882E-4
8.304366E-4
0.0020521327
4.1842987E-4
-0.0014080382
-0.0025339453
-0.0027761578
-2.7088675E-4
3.208169E-4
8.9464936E-4
0.002047037
6.984657E-4
6.293782E-4
6.368427E-5
-9.950914E-4
2.609152E-4
-9.914204E-5
-0.001635578
-0.0019243226
-4.784432E-4
5.9539545E-4
-0.0013133243
-0.001481616
3.7476228E-4
9.682808E-4
0.0016760997
7.05222E-4
-9.7259134E-4
3.106653E-4
0.0022338156
0.002266029
0.0010884166
6.925346E-4
0.0012480103
-4.3784312E-5
-0.0025203452
-0.0019909232
-1.5416499E-5
-3.8874644E-4
-0.001569715
-0.0021986298
-2.6294292E-4
0.0028644525
1.5652203E-4
-0.0030177422
-4.697136E-4
0.001124297
4.3966668E-4
-6.147113E-4
-0.0014716203
-3.9265788E-4
6.559332E-4
0.0015919035
0.0021592996
2.760464E-4
-0.001307839
-1.4820064E-5
0.0013982409
0.0011375566
0.0029019557
0.0034369
-0.0019435612
-0.004239445
-8.960874E-4
0.0033858365
0.006627227
0.002719555
-0.0026020068
-0.0023680262
-0.0038972183
-0.0054518273
-0.0026126693
2.261487E-4
5.8404944E-4
-5.8552134E-4
-7.949595E-4
-7.566319E-4
-3.217001E-4
6.022067E-4
-9.985709E-4
-2.3871966E-4
0.0032260583
0.0028783984
0.0014306782
4.0628063E-4
-0.0010852405
-0.0018277923
-0.001064718
0.001550026
0.0010603571
-0.0010784335
5.1692355E-4
0.0014971159
0.00118632
3.6890182E-4
-0.0013108338
-3.8794914E-4
-3.10859E-4
-0.001832359
-8.019893E-4
3.8036515E-4
0.0016308543
0.002701689
4.0141345E-4
-0.0021761481
-0.0014324134
-1.0551358E-4
-6.6816626E-4
-4.3203626E-4
5.909748E-4
-3.2891775E-4
-5.874274E-4
0.0011607792
0.0017080198
7.507339E-4
8.454417E-4
1.3142894E-4
-0.0025166671
-8.4380317E-4
0.0016652826
-0.001276062
-0.0019938126
-3.7819962E-5
4.3553722E-4
7.0018665E-4
-7.775923E-4
-3.1140202E-4
9.449619E-4
-4.8156112E-4
0.0014967206
0.0019196265
-0.0011061566
4.4257133E-4
9.804392E-4
1.264895E-4
0.0021682747
3.5389725E-4
-0.0035030474
-0.0034585935
-8.1562024E-4
0.0024163343
0.0021473859
-9.902143E-4
-8.0035307E-4
9.269775E-4
-3.4123214E-4
-8.2028494E-4
0.0010761409
-2.767297E-4
-0.0023987805
-5.6436716E-4
5.8500754E-4
0.0011519621
0.0017727523
-8.3006476E-4
-9.654141E-4
0.0012747392
1.2851928E-4
-2.882063E-4
4.1383415E-4
1.9742361E-4
7.15864E-5
-9.428469E-4
-4.9312826E-4
2.4231519E-4
-2.3642244E-6
0.0015170474
5.797254E-4
-0.0014017483
-5.1540014E-4
-0.0011417659
-0.0015247826
-1.2225361E-4
0.0011460818
0.0024534971
4.8026838E-4
-0.002028124
-5.9168926E-4
3.5878536E-4
-0.0010064247
-9.4190997E-4
0.0016152653
0.0019673535
1.4207399E-4
0.0013830018
0.0021311054
-5.446498E-4
-0.0027666704
-0.0021506238
8.86989E-4
0.0013400926
-4.6640277E-4
3.1306624E-4
7.930335E-4
7.201378E-4
0.0015747081
8.1369904E-4
-1.4908396E-4
-4.3321677E-4
-2.6740547E-4
-2.6329426E-4
-0.002167929
-0.0024002236
-5.69672E-4
1.0703678E-4
-2.8427878E-5
-0.0015170233
-0.0010330443
0.0016707752
0.0010527174
7.6189166E-4
0.0017190378
1.82715E-4
-2.7986462E-4
-4.4750466E-4
-0.0019429958
-0.0017270228
-0.0011904849
-0.0012510231
-5.228777E-4
3.2574518E-4
1.6597382E-4
-1.3124036E-4
0.001254026
0.0022843522
0.0015403342
0.0012596516
0.0014407231
8.9105766E-4
-2.575578E-4
-2.4489374E-4
0.0011916936
8.21578E-4
-7.5507886E-4
-6.003491E-5
0.0014639331
7.6578354E-4
-3.7202972E-4
-7.745381E-4
-0.0025006956
-0.0014424265
0.0023700865
7.6835393E-4
-0.0022171182
-9.645413E-4
4.2802974E-4
1.8955005E-4
-0.0020598015
-0.0030784039
-9.5511845E-4
-2.0378856E-4
2.536524E-4
4.0309675E-4
-0.0012506372
-5.2115123E-4
8.9206715E-4
5.824944E-4
7.5470004E-4
9.854833E-4
0.0013289914
7.796285E-4
-0.0011589382
-8.781256E-4
0.0013052452
0.0017336351
3.235758E-4
-5.96951E-4
-4.2952303E-4
2.299945E-4
4.5994343E-4
-8.2187395E-4
-4.9522455E-4
0.0015119837
9.059322E-4
9.101535E-4
8.077786E-4
-0.0023766896
-0.0015543862
0.0011348065
-3.9237385E-4
-8.808518E-4
6.023677E-4
0.0013651302
0.0013757132
-2.9024974E-4
-0.0016603812
-2.9313122E-4
0.0015755491
-2.016261E-5
-0.0027727787
-0.0016716982
0.0013963263
0.0036221556
0.003274032
6.111424E-5
-0.0019306606
-0.0022990457
-0.0025102056
-0.0023308224
-0.0022038918
-0.0010433149
5.0144014E-4
0.0014811689
0.001762699
5.571176E-4
-3.539391E-4
-0.0012331582
-0.0016768721
9.7702614E-5
0.0011513702
0.001550588
0.0021578346
0.0014659154
4.561104E-4
-0.0013472085
-0.002326363
-4.740115E-4
0.001335846
0.0018983417
9.657678E-4
-6.586251E-4
-1.9780957E-4
0.0017950052
0.0031152999
0.0024832017
-1.3757098E-4
-0.0027489217
-0.0030732625
-0.001323981
-8.022528E-5
-4.5898973E-4
-0.00174989
-0.0024438868
-0.0014775292
1.2015436E-4
0.0012574812
6.773139E-4
-1.15125775E-4
9.1994763E-4
7.7329E-4
5.766746E-4
0.0010053419
-0.0013680708
-0.0013457543
0.0010106226
-9.141014E-6
6.6142075E-4
0.0019966753
-9.7444936E-5
2.3867063E-4
0.0019415626
5.5437436E-4
-0.0015758103
-0.0022044475
-7.988342E-4
3.2750927E-4
2.995226E-5
3.6375938E-4
6.6263904E-4
2.5027685E-4
-2.9923027E-7
1.5306551E-4
-2.6900313E-4
-0.0020353491
-0.001987105
4.8344443E-4
0.0012625565
-2.6487414E-4
-0.001695517
-0.0013936879
-3.1174594E-4
4.0653147E-4
0.0013250953
0.0012458725
3.6210372E-4
2.0607769E-4
-2.2045864E-5
-1.4850115E-4
-4.4487064E-5
-4.955967E-4
-5.6129036E-4
0.0010795975
0.0023759864
-2.5070682E-5
-0.002436082
-9.0266013E-4
8.357767E-4
0.0010420135
0.0010326846
0.0010858809
0.001332549
0.001126451
0.0010080818
0.0010370343
3.7763309E-4
-6.0125894E-4
-0.0016565026
-0.0017346952
-0.0011598022
-0.0012761118
-9.0957165E-4
-1.1975325E-5
7.380374E-4
6.8650267E-4
-0.0011532048
-0.0024498964
-0.0013815529
9.1064145E-4
0.0017962009
-2.778936E-4
-9.3227375E-4
5.074491E-4
-1.2190824E-4
-7.03022E-4
-0.001196654
-0.0016146726
7.4251334E-4
5.054401E-4
-8.530497E-4
0.0014352908
9.5055025E-4
-4.1549662E-4
0.0011606438
0.0018307518
0.0019789608
5.879809E-4
-5.7151675E-4
4.0181534E-4
-1.7132825E-4
3.3565043E-4
3.8640367E-4
-0.0017139731
-2.1898346E-4
9.730704E-4
-1.2979188E-4
6.418094E-4
0.00133048
9.941938E-6
-0.002554021
-0.0010762007
0.0031049903
7.7809853E-4
-0.0028818578
-0.0015375942
-2.6660645E-4
-3.4728803E-4
5.164286E-4
0.0015517963
-8.57538E-4
-0.0036252928
-6.559012E-4
0.0017138002
9.0893365E-5
1.7745107E-4
8.78155E-4