-0.0014373539
8.3722186E-4
0.0018789966
6.424019E-5
2.2477769E-4
8.2060054E-4
4.5262207E-4
8.09715E-4
-6.270269E-4
-0.0018646779
-5.131345E-4
-8.532576E-4
-0.0014765859
4.3383715E-4
0.0011442505
6.3694426E-4
0.0021442058
0.0028209297
8.018053E-5
-0.0019436359
-0.0015533044
-8.429806E-4
-0.0010651605
-0.0022858598
-0.0010863766
0.0014524008
0.0020380784
0.0039036518
0.004999301
0.0021882989
2.5825814E-4
0.0011719142
0.0014662849
-0.0017260177
-0.0037703472
-9.20448E-4
5.20776E-4
-0.0010125538
-0.0011209421
0.0011877288
0.0030778905
0.0016161887
2.2983167E-4
-3.9796115E-4
-0.0019747585
-0.0026374317
-0.004772176
-0.0052594296
-0.0013354783
6.5338705E-4
0.0021436203
0.0027765804
-3.5452627E-4
-0.0013545207
-5.7794567E-4
-6.063418E-4
3.6861154E-4
8.674402E-4
7.476803E-5
-4.874698E-4
3.1563418E-4
8.3932135E-4
5.778958E-4
8.4736856E-4
-3.6318923E-4
-0.0015083977
-3.3778645E-4
0.0011637632
0.0024028088
0.0019686949
1.8244013E-4
-0.0012732918
-0.0022049146
-8.62543E-4
0.0015816108
0.0026289152
0.001952729
0.0010758218
6.35106E-4
-0.0011059924
-0.0010191925
-7.3379267E-4
-0.0028596392
-7.362418E-4
0.001132625
-1.1084385E-4
0.0016092928
0.0012161302
-5.799376E-4
1.0015861E-4
-2.4801504E-4
-7.272853E-4
-0.0013818401
-0.0013199673
2.593364E-4
0.0013460987
0.0018102512
-7.6291786E-4
-0.0030263884
-0.0018835489
-0.0011170446
1.4843354E-4
9.2937157E-4
3.4340264E-4
1.6809021E-5
-1.9103815E-4
0.0011863475
0.0012970297
6.8107015E-4
5.645837E-4
-0.0025194553
-0.0017463381
0.0023527378
0.0020498503
0.0017221558
0.001703459
8.673742E-4
5.898283E-4
-9.61442E-4
-9.924001E-4
-1.0034775E-4
-5.501839E-4
-2.301756E-4
-0.0013166475
-0.003932072
-0.004087151
-0.0018778313
-3.153017E-4
2.8234E-4
0.0017592197
0.0022941518
4.480412E-4
-0.0013650755
-9.5081475E-4
8.483197E-4
5.313467E-4
-8.720392E-4
-3.620601E-4
7.756518E-4
0.0015547678
0.0016957169
0.0022935674
0.003351521
0.0025213866
0.0020876888
0.0023906708
5.791773E-4
-0.0010738586
-0.001935617
-0.003537884
-0.00432515
-0.003943689
-0.0034501646
-0.0025732897
-4.407652E-4
0.002152498
0.0029911874
0.002498749
0.0014920783
-9.387369E-4
-0.0014014153
0.0017262709
0.0019477052
-0.0013420339
-0.0025623275
-0.0016034099
-1.0693658E-5
0.0010898862
0.0014294493
0.0013618397
1.3250571E-4
3.438201E-6
-4.376867E-4
-0.0020413848
4.3013625E-4
0.0017366083
2.436214E-5
0.0017502084
6.4554357E-4
-0.0030949805
-0.0029349476
-0.0030080725
-0.0017707384
0.0018602342
0.0030987454
0.0027301703
0.0014483904
5.1153504E-4
0.0014605534
0.0025399567
0.0021203144
3.3367256E-4
-5.7223556E-4
-0.0013315246
-0.0013148863
1.6590973E-4
-0.0020860482
-0.0030695742
5.2735774E-4
-8.219526E-4
-0.003410684
-0.0010738277
-9.31382E-5
-0.002108059
-0.0030404376
-0.0011339642
3.4139128E-4
-2.8981947E-4
1.3932705E-4
0.0012877906
0.0018155228
0.0021889042
0.0024110684
0.0013666298
-6.330733E-4
-6.205204E-5
8.1599475E-4
1.2667669E-4
0.0014332383
0.0020565323
0.0016107442
0.0018640361
2.3559295E-4
-2.1027915E-4
8.6026045E-4
4.432392E-5
-2.9006702E-4
-3.6683035E-4
-0.0017047656
-0.0020314013
-4.367513E-4
5.1290676E-4
-3.6642235E-4
-5.068248E-4
-5.0099514E-4
-0.0011526609
-2.572693E-4
6.9792185E-4
3.4904722E-4
-7.143972E-4
-0.0019146575
-0.002723606
-0.0028940775
3.399102E-4
0.0034435028
0.0011761707
-9.95117E-4
-0.0012763189
-3.393338E-4
0.0023517457
4.883104E-4
-0.0034828107
-0.0030886938
-0.0013968191
-4.2631547E-4
-4.889758E-4
3.3117994E-5
0.0010218607
6.8224745E-4
0.0037296643
0.006311551
0.003343884
0.0013441828
1.3242252E-4
-0.001325318
-0.0015158319
-0.0025754108
-0.0016649519
5.0037215E-5
-6.0197177E-5
4.466599E-4
6.857487E-4
0.0018774351
0.0018608693
-0.0015298241
-0.0011571397
0.0010343723
3.109332E-4
2.191624E-6
1.6143241E-4
7.811531E-4
7.237471E-4
-9.102051E-4
-8.7429653E-4
-8.233059E-4
-0.0018475057
-0.0026709496
-0.0030195175
-7.401834E-4
0.0011812412
0.0015442467
0.0028463523
0.001485007
-0.0010911347
-0.0017973107
-0.002208586
-3.680464E-4
0.0010501994
-6.6144206E-4
-0.0021671837
-0.0027156342
-4.7417195E-4
0.0016667332
-6.483254E-4
-0.0011280812
8.919638E-4
0.0012853913
0.0019702883
0.001764338
4.8583295E-4
9.770509E-4
0.0018928788
0.0012058889
-1.937916E-4
-6.864331E-4
-4.6969677E-4
2.0958153E-4
-9.215611E-5
-0.0016574032
-7.304593E-4
0.0012867403
0.0016903869
0.0013496353
-6.9238864E-5
-5.014334E-4
-4.2412253E-4
-6.289569E-4
8.6717826E-4
1.2692194E-4
-0.0016161873
-4.5911214E-4
-4.232622E-5
-2.890326E-4
-4.2407776E-4
-5.6903454E-4
2.4180343E-4
2.21317E-5
5.43864E-4
0.0019120495
0.0010080194
1.3921407E-4
-4.1739416E-4
-0.0013446043
-6.7824025E-5
8.457276E-4
-0.0012288683
-0.0016629198
-5.7876017E-4
-0.0016233422
-7.6291995E-4
8.828447E-4
-1.9271979E-4
-3.9024884E-4
-0.0015207232
-0.0015631227
0.0021515752
0.0019644958
-5.3466245E-4
-0.0016922866
-0.0019412679
6.839248E-4
0.0012307297
2.6135732E-4
6.4402714E-4
-5.69599E-4
2.692004E-4
0.0010208981
-3.810792E-4
0.0018936432
0.0036745002
0.0015196302
-9.163772E-4
-0.001973342
-0.0015589087
-5.6897325E-4
0.0015716928
0.0021079797
-5.609063E-4
-0.001898771
-0.0018962345
-9.0765086E-4
0.0017360386
0.0026502484
8.492897E-4
-5.4970756E-4
8.9460023E-4
0.0012673399
-0.0011733612
-8.692893E-4
3.010688E-4
-1.4755432E-4
9.0842275E-4
4.0342024E-4
-0.00104603
-6.133099E-5
-0.0013305092
-0.002380351
8.4072E-4
0.0015578031
1.3026434E-4
-8.9454E-5
-0.0024267535
-0.0031377806
-2.231637E-4
-1.1741931E-5
-0.0022472292
-0.0028500706
-0.0023852882
-0.0018757243
8.501579E-4
0.0038044946
0.0029365723
0.0016761501
4.5132684E-4
-6.124094E-4
0.0019856605
0.0024656043
7.465145E-4
0.0018125675
0.0014510653
1.5459573E-4
-2.1761064E-6
-5.3882535E-4
-8.1587525E-4
-9.28083E-4
-2.0638108E-4
1.2118909E-4
-1.486075E-4
9.642132E-4
4.1317995E-4
-0.0019311778
-0.0023725724
-5.287409E-4
5.40101E-4
-4.6883064E-4
-2.0895428E-4
-6.2619254E-4
-0.0025764846
-0.0015948131
8.088895E-4
0.0031586706
0.0025800373
-7.953801E-4
-3.959981E-5
0.0012349943
9.280674E-4
0.0014336556
-7.0919364E-4
-9.656452E-4
0.0011694436
-6.610086E-4
-0.0019079907
2.0321665E-4
0.0010464797
-5.8923167E-4
-0.0013096582
-0.0012191967
-0.0019414452
-3.3519676E-4
2.1851793E-4
-0.0013562298
6.0383766E-4
0.0010034018
1.2688106E-4
0.0022113689
9.9881E-4
-0.001002059
-1.15836985E-4
5.5299474E-6
6.9060246E-4
9.165168E-4
-8.148565E-4
-0.0014535163
-4.27055E-4
8.4399816E-4
6.0287537E-4
-6.054431E-4
-2.116693E-4
0.0016578027
0.002202584
3.0581444E-4
-0.0012556349
-0.0024620292
-0.0029351672
3.1135886E-4
0.0020002073
3.1266446E-4
7.8468706E-4
6.744703E-4
-8.424612E-4
-6.106164E-4
-0.0010617563
-0.0020043657
-0.0014539245
4.799187E-4
0.002253318
0.001865144
0.002389006
0.0034628466
9.589135E-4
-8.815107E-4
-3.0593757E-4
-9.81759E-4
-0.0010750679
-2.3523552E-4
-7.6025043E-4
-0.0013234004
-0.0013602967
-5.781831E-4
0.0012624712
0.0016141693
7.5116893E-4
6.917471E-4
-2.3952754E-4
-0.00173237
-0.0010142525
-2.0346127E-4
-0.0010362682
-9.3189423E-4
-9.973065E-4
-0.002287824
-0.0017750895
-6.9761975E-4
-6.5845903E-4
3.2298203E-4
0.001666221
0.0025836278
0.002467652
7.727891E-4
4.668578E-4
0.0011357716
5.868157E-4
0.0012462854
0.0021090733
0.0012040697
5.631178E-4
-2.0873956E-4
-2.463996E-4
0.0010826027
5.952401E-4
9.916884E-5
6.958926E-4
-3.295556E-4
-5.945796E-4
3.4475367E-4
-4.061191E-4
-0.0014480317
-0.0014795145
-0.001340803
-0.0010870205
-6.150453E-4
-8.6570426E-4
-0.0018852053
-0.0019869448
-0.0013987287
-0.0012707394
-0.0020553132
-0.0021703294
4.1302448E-4
0.0016267031
5.321482E-4
0.001242477
6.0960365E-4
-0.0020408016
-0.0013130506
0.0018648674
0.003314766
0.0020844527
6.8728183E-4
0.0016289271
0.0030317933
0.0024432687
0.0014922114
0.0013286712
7.3861884E-4
0.0019825916
0.0043135714
0.0029105134
4.850226E-4
-0.0022128506
-0.0061978013
-0.005824994
-0.0034507148
-0.0017182864
0.0025786995
0.003591893
-3.539597E-5
-0.0018070122
-0.00262634
-0.004626522
-0.0057605943
-0.0032091492
6.708591E-4
0.0010898641
6.602036E-4
5.9321587E-4
-7.736436E-4
-4.5861315E-4
0.0011194191
0.001866029
0.0021789123
0.0024316476
0.003888773
0.003930581
0.002084952
0.001897308
-9.416504E-4
-0.0053592394
-0.0031680937
2.9773827E-4
-5.803596E-4
-9.996567E-4
5.6762052E-5
9.787559E-4
0.0012614152
9.813413E-4
0.0028841055
0.004902482
0.001483091
-0.0033680885
-0.0030323132
-0.0018216394
-0.0031316478
-0.0012263216
0.0027088607
0.0022036491
-2.9727945E-4
-0.0013618554
-0.0014761861
-3.0137098E-4
4.2126095E-4
-0.001131305
-0.0018293683
-1.3713636E-4
-4.9357384E-4
-0.002532674
-0.0013572829
5.420717E-4
0.0010246993
0.001993948
0.0017956832
0.0015386083
0.0022869797
0.0012910382
-1.1927931E-4
-5.515961E-4
6.8951736E-4
0.002969272
0.0019206604
-8.7854284E-4
-0.0016222431
6.453641E-5
0.002780985
0.0031908997
0.0030719114
0.0011430177
-0.0051087295
-0.0062786997
-0.0028855258
-0.0023764353
-0.0012524325
-0.002187917
-0.0058389013
-0.0045812177
-0.0010534351
-8.2932465E-6
-6.64645E-4
-7.783667E-4
0.0015142735
0.004004765
0.0043345867
0.0024486792
9.650978E-4
0.0026829094
0.005308927
0.0052790493
7.365477E-4
-0.0030921528
4.565934E-5
0.003461627
0.0033553038
0.0037789077
0.002652606
3.4036397E-4
2.6944326E-4
-1.370606E-4
-0.0029425987
-0.0053998954
-0.0053772214
-0.004720141
-0.004384726
-0.0036877035
-0.0032064505
-0.0031097177
-0.0036721865
-0.0025233245
0.0014805958
0.0027671598
0.0010036634
9.5847226E-4
0.0016907057
0.0012526094
0.001544695
0.0032861822
0.0024274648
5.061913E-5
0.0021208543
0.0043129213
0.0030072615
0.0036705334
0.0036779062
-0.002217968
-0.006789093
-0.0034481417
9.3925075E-4
-2.136871E-4
-0.0018767897
8.615559E-4
0.00444684
0.0048128827
0.003738564
0.0026543597
-3.4830344E-4
-0.00276308
-0.002458193
-0.0011508103
0.0023259178
0.00416877
-9.444776E-4
-0.0077074193
-0.010351602
-0.008367483
-0.0037615453
7.036539E-5
0.0028090735
0.0056144153
0.007587609
0.006928498
0.004130249
-2.487842E-4
-0.0056308066
-0.007474359
-0.0070315516
-0.0065621417
-0.0017375319
0.00280853
0.0025746613
0.0011664488
-2.121577E-4
0.002321076
0.0068789413
0.0071011567
0.0054002865
1.4939221E-5
-0.009008213
-0.010797519
-0.0044747014
-7.1483274E-4
-0.0016397473
-0.0017076818
-0.0020848257
-0.0028938185
-6.531663E-4
0.00215458
0.0065781223
0.012051676
0.013070272
0.012799915
0.012796941
0.010415907
0.0047457744
-0.0043579186
-0.010345132
-0.00901726
-0.0041148895
-0.0011083874
-0.0026727489
-0.004406871
-0.0055703092
-0.007559211
-0.008262845
-0.009682633
-0.009864243
-0.0074216723
-0.0050512473
-0.0013206104
-6.696616E-4
-0.0023831713
6.860648E-4
0.0029229256
0.0033690366
0.005863607
0.006310779
0.007535464
0.01054258
0.0074987984
7.6630345E-4
-0.002025077
-0.002152086
-0.003376659
-0.0035916152
-6.7457487E-4
0.0010839433
0.0010807085
0.0022608056
5.993766E-4
-0.0016768286
0.002122837
0.007139513
0.009815271
0.009150749
0.0042384705
0.0033688433
0.007543658
0.008818139
0.0061336593
0.0022704557
-9.26759E-5
-0.0023875716
-0.0048554777
-0.0055235443
-0.008507769
-0.012568397
-0.013329589
-0.010813041
-0.0044300407
2.0357514E-4
-2.6904073E-4
-8.9822395E-4
2.2634133E-4
0.0018805477
0.0013985899
5.5420084E-4
0.0010661699
-0.0010244342
-0.0039933845
-0.007570536
-0.01131735
-0.009466791
-0.007896152
-0.009328498
-0.004341916
0.00459231
0.008709155
0.0061939056
-8.6429215E-4
-0.0051504667
-0.0029361579
-0.0030355712
-0.011233
-0.019487025
-0.019939367
-0.011977691
0.0022731062
0.016297396
0.025658151
0.03354478
0.04184657
0.050075732
0.055918388
0.052562915
0.039934035
0.0263066
0.012242826
-0.007103934
-0.02884582
-0.04644584
-0.05556541
-0.054463383
-0.044675678
-0.029168481
-0.018531455
-0.021753768
-0.02322311
-0.012406156
-0.006343157
-0.007605562
-0.0066880994
-0.0070241494
-0.006958786
-0.0064919535
-0.008993097
-0.008879205
-0.00484492
0.0071531767
0.026776424
0.0407665
0.05116841
0.06002052
0.05889952
0.052554205
0.04562358
0.03451458
0.011313777
-0.023657009
-0.047010534
-0.05022235
-0.04831324
-0.045611594
-0.04057839
-0.032441087
-0.023256073
-0.014042901
0.003555309
0.020897862
0.022576008
0.021459289
0.027397681
0.028970037
0.025770772
0.022558905
0.01099748
-0.0060255253
-0.018859547
-0.034658603
-0.049270544
-0.0499822
-0.046596214
-0.04831295
-0.05082622
-0.044512995
-0.022362813
0.0076600253
0.028215017
0.02209123
0.0074858423
0.016812801
0.033944376
0.051236648
0.07850938
0.09622457
0.09936642
0.090395905
0.07210299
0.06118253
0.050492894
0.029830258
0.010896101
0.0081671765
0.009218006
-0.013777099
-0.04654086
-0.07026321
-0.09336524
-0.12530479
-0.16168727
-0.1588858
-0.113078855
-0.07346016
-0.039084032
-0.002945405
0.021226147
0.035462406
0.043359943
0.042172257
0.019254163
-0.009797621
-0.018527752
-0.017398475
-0.021593481
-0.01979649
0.0256041
0.081733555
0.08463076
0.0702111
0.054741215
0.03641419
0.044245593
0.061319243
0.0922256
0.10845509
0.06661815
0.018341118
-0.030492019
-0.07637147
-0.07851653
-0.060495157
-0.016541783
0.047818393
0.080464244
0.093771294
0.11065044
0.10434679
0.04334768
-0.033841264
-0.07717145
-0.123135515
-0.19619755
-0.26976323
-0.29798612
-0.26359844
-0.21614642
-0.15340962
-0.06831705
0.0043621524
0.08556162
0.16374761
0.23324005
0.31703052
0.3328335
0.24671277
0.13546856
0.034905493
-0.056706607
-0.116351075
-0.08076527
0.04199666
0.14071496
0.15097795
0.088263825
2.3122546E-5
-0.09592019
-0.19057016
-0.22317775
-0.19397345
-0.14121269
-0.05601432
0.019333575
0.023440478
-0.03183757
-0.07870432
-0.07540159
-0.05799059
-0.0304693
0.042066213
0.13085584
0.18535155
0.1959177
0.18647344
0.15347257
0.08440472
0.015026647
-0.035585284
-0.054068618
-0.019545892
0.016154068
-0.012326227
-0.06873844
-0.079132184
-0.09409919
-0.1756153
-0.24728066
-0.26309982
-0.22364381
-0.12811297
-0.02877625
0.061853368
0.1342657
0.17221357
0.20858805
0.23309417
0.23730613
0.20023906
0.10845368
0.03697443
-0.040173557
-0.13951656
-0.14307418
-0.059067063
0.02922987
0.090358876
0.11271494
0.11941004
0.10977152
0.06548409
-0.032279897
-0.16693689
-0.2516938
-0.24990053
-0.17324428
-0.07172045
-0.019282399
0.010944793
0.04034424
0.043411877
0.036180012
0.019747222
0.008572288
0.020203395
0.035014413
0.04569531
0.03400099
0.015197338
0.02777095
0.03459253
0.01115786
-0.010960176
-0.017321702
-0.010904269
-0.0047434093
-0.008862822
-0.0140425395
-0.012237834
-0.004929187
0.0029536919
0.0044443626
7.6204026E-4
0.0012893975
0.0017400547
-0.0025345152
4.7754298E-4
0.010650816
0.018632758
0.025975121
0.033547726
0.035076044
0.02753024
0.018661354
0.011998133
0.010501881
0.01499791
0.0068525663
-0.009627771
-0.011404005
-0.00584532
-0.0044696624
-0.0074168537
-0.012336443
-0.016155895
-0.023143876
-0.031079838
-0.034939248
-0.0353272
-0.031827904
-0.027872922
-0.022949371
-0.016222602
-0.010865305
-0.004841947
-3.5745914E-5
0.0030822547
0.006168747
0.0063440264
0.007486101
0.0099438075
0.010257486
0.012078397
0.014705725
0.01536999
0.0154523095
0.016581
0.01671598
0.014277977
0.013894352
0.013543359
0.012592041
0.014538498
0.010246417
0.0038326418
0.0054937354
0.0045155846
7.787279E-4
0.0017305643
0.002184337
-0.0014489673
-0.009464279
-0.015005672
-0.011989317
-0.009051174
-0.011298683
-0.013468942
-0.012706245
-0.011323888
-0.012296002
-0.0136721935
-0.011121726
-0.0072537567
-0.006825101
-0.0053297756
-0.0012266891
-8.050289E-4
-0.0023368713
-4.7225357E-4
0.005458278
0.01001137
0.008533022
0.0068681217
0.0055989507
0.004396635
0.0076817423
0.008128807
0.005844844
0.006332513
0.0045977547
0.0021844166
7.9912366E-4
1.1712252E-4
7.0677383E-4
-5.021945E-4
-2.7081862E-4
7.0513797E-4
2.5306046E-5
-3.7799412E-4
-0.0033578826
-0.0044386946
-0.0022678054
-0.0017387855
-0.0012760174
-0.003628851
-0.0055380417
-0.0032789803
-0.0028274683
-0.002439929
-0.0018359519
-0.0015401941
9.0299343E-4
5.646341E-4
-0.001186183
3.7128536E-4
0.001826817
5.771131E-4
-3.8398063E-4
0.0010081612
0.0016818882
0.00272763
0.0038208289
0.0018751959
0.0019550992
0.0024479313
2.0480469E-4
8.947488E-4
0.0021965848
-2.4336672E-5
-0.0016855026
-1.9211882E-4
-1.7577359E-4
-0.0029286137
-0.0023020334
-8.2437805E-4
-0.0017286801
-0.0011795809
-0.0014575314
-0.0031910783
-0.00317937
-0.0014811105
-5.756093E-4
-0.002463423
-0.0026072878
-6.249587E-4
-4.756547E-4
2.9679452E-4
0.0011908356
0.0010341075
0.0015253916
0.0022686503
0.0030613162
0.0021063874
3.5004428E-4
-1.08598346E-4
-0.0011663535
-0.0011623839
4.6186862E-4
5.700849E-4
-7.5039046E-5
-2.7501155E-4
-2.2987969E-4
3.082655E-4
3.736373E-4
-5.033507E-4
-1.2304769E-4
0.0026084522
0.0059894184
0.008103367
0.0074947863
0.006615629
0.0075578433
0.006057212
0.0025552663
0.0016719854
0.0023033884
0.002808356
0.0023399661
9.832198E-4
-3.815161E-4
-0.005211423
-0.011332983
-0.011248857
-0.0087286215
-0.009024237
-0.009133313
-0.009166999
-0.010221049
-0.010184888
-0.01024452
-0.011237858
-0.010072413
-0.0057353573
-8.9671515E-4
0.0024125134
0.004439746
0.005382579
0.005664917
0.0067117154
0.008879848
0.01173627
0.013847795
0.013993491
0.014317652
0.014906976
0.01265455
0.009191792
0.0073842993
0.0065657985
0.004716547
-7.199885E-4
-0.005729462
-0.0047881305
-0.0031581665
-0.0039157923
-0.004451661
-0.0072413855
-0.0110523375
-0.010702609
-0.008640565
-0.008997186
-0.009425839
-0.0077708964
-0.006746029
-0.0065020793
-0.0048807333
-0.0027836517
-8.594529E-4
0.0010208231
0.0018243443
6.2150706E-4
1.0686403E-4
0.0017686097
0.0016838529
0.0023480256
0.0061514433
0.007355177
0.0060675265
0.0046842024
0.004416992
0.0052825245
0.0032635476
0.0012178886
6.821693E-4
-9.4685884E-4
-0.0015788561
-0.0029512378
-0.003472112
-0.0010070435
-5.114141E-4
-4.1374943E-4
5.1076757E-4
-6.987908E-4
-0.0030085542
-0.00403798
-0.003635311
-0.0047186497
-0.0045454972
-9.680798E-4
5.244335E-4
2.5793895E-4
5.062457E-4
0.0017967568
0.0023070266
-0.0013055645
-0.002183917
3.0863305E-4
-1.6779423E-4
0.001102556
0.002798246
-4.457009E-4
-0.0025906547
2.1759537E-5
0.0015688981
8.1257004E-4
0.002967209
0.0037136525
5.5371714E-4
-9.4432406E-5
-7.662271E-4
-0.0021133397
-0.0013872735
-0.001140484
-1.044921E-4
4.321767E-4
4.9861183E-4
0.0018862925
0.0014685865
0.0023134926
0.0025986682
-2.7608505E-4
9.5285755E-4
0.0019501789
-0.0010382199
-0.0019901895
-0.0026199806
-0.0037865941
-0.0039320565
-0.0039785393
-0.0029719363
-0.0023239462
-0.0032292258
-0.0032517402
-0.0015172627
-3.5849033E-4
-7.277433E-4
-9.324751E-4
-8.095628E-4
-2.4588525E-4
-4.8447706E-4
-0.0018705226
-4.920395E-4
0.0017280092
0.0022127589
0.002780137
0.0023327784
0.0028241735
0.004233572
0.003012958
0.0026907998
0.0032953867
0.001681029
0.001077169
0.0014683724
3.927293E-4
1.8231438E-4
6.1908783E-4
-8.1811915E-4
-8.6166E-4
0.0012215065
0.0010211632
-3.6100482E-4
-0.0015533154
-0.0028606055
-0.0027054856
-0.002338731
-0.0012576843
-3.08896E-4
-0.0022926962
-0.0015265205
0.002333097
0.001442736
-0.0014555921
-6.6093315E-4
6.2203436E-4
6.0228117E-6
9.887948E-4
0.0029656193
0.0013851975
-6.3573074E-4
3.27561E-4
-1.9441142E-4
-0.0023309453
-0.0011332054
0.0019149787
0.0018756903
-2.8886026E-4
-4.4362588E-4
6.227494E-4
9.5941836E-4
0.0013773347
2.1608401E-4
-0.0015055868
1.3005933E-4
0.001409747
7.5861014E-4
0.0010838658
-4.174538E-4
-0.0023718176
-0.0018120307
-6.0167303E-4
0.0020856706
0.0031665424
7.9730316E-4
6.0096892E-5
7.454858E-4
0.0013494069
0.0013155811
7.8115094E-4
0.0012429819
-3.113094E-4
-0.0017290047
-8.6327695E-4
-0.0016470819
-8.336229E-4
4.3947456E-4
-7.4177905E-4
0.001079049
0.0018765222
-0.0013155204
-0.0018839916
-4.990129E-4
-6.0135186E-5
-3.8551018E-4
-3.127774E-4
6.737621E-4
3.7191404E-4
3.732864E-4
9.554289E-4
-7.289099E-4
-0.0018031871
-5.6843343E-4
5.40404E-4
7.347037E-4
0.001113149
0.0017325039
0.0011627331
0.0011901007
9.032918E-4
-0.0010705097
3.0128575E-5
6.069613E-4
-0.0013486263
3.7475824E-4
9.1158395E-4
-0.0019710597
-0.0029355348
-0.0017690379
8.2678656E-4
9.794154E-4
-0.0011821548
-0.0015636752
-0.0014076153
5.0541863E-4
0.0019423112
1.7468414E-4
-3.6430734E-4
-5.0315104E-4
-4.3407726E-4
0.0022173915
0.0035815004
0.0015605472
-7.79528E-5
3.019914E-4
-1.3000597E-4
3.6914635E-4
0.0017559796
2.1525064E-5
2.3155341E-4
0.0018786362
1.3483428E-4
-0.001297237
-0.0026164006
-0.0022737673
8.1220607E-4
0.0027223607
0.0042120814
0.0030672457
2.1478784E-4
-0.0016093156
-0.004169979
-0.0037327963
-0.0028934213
-0.0033541135
-8.452946E-4
-8.396715E-4
-0.0016392024
5.4658484E-4
0.0012447848
0.0024684453
0.0025048365
-4.6988387E-4
-0.0010961886
-8.886965E-5
-5.4897926E-5
-0.0010338736
-0.00103946
5.993126E-4
0.0010482158
0.0017101923
0.001953158
5.134624E-4
0.001423107
0.002261583
8.4996555E-4
2.483325E-4
-6.5089285E-4
-0.0012390097
-9.439593E-5
8.979785E-4
0.001014567
8.6893306E-5
3.1261898E-5
8.4487617E-4
-9.469716E-5
-1.20990815E-4
9.564563E-4
6.931655E-5
-0.0010289481
-0.001038749
2.2315643E-4
0.0010085511
-0.0010203782
-0.0025139153
-0.002047555
-0.0012201229
1.687635E-4
0.0012420474
0.0012105413
-1.286174E-4
-4.0075197E-4
9.139657E-4
-3.9962976E-4
-0.0020756805
-0.002175113
-0.0026465473
-8.2169997E-4
7.4689323E-4
-2.3818262E-4
2.3462872E-4
0.0011372196
0.0025538197
0.0034917707
6.7135517E-4
5.728472E-5
0.0019438205
2.4706096E-4
-4.923197E-4
0.0013229676
5.2705925E-4
-6.646535E-4
8.482531E-4
0.0015928887
9.628403E-5
-5.95197E-4
-8.242508E-4
-0.0014616301
-7.509051E-4
-5.8898336E-4
-8.958245E-4
5.6861737E-4
0.0014105798
0.0014553963
3.341699E-5
-0.00282016
-0.0014860074
8.2431955E-4
-2.5325175E-4
-8.2864787E-4
-0.0018202264
-0.0010758766
0.0038495706
0.0042395764
-3.7344482E-5
-0.0010584962
-2.561846E-4
-9.18383E-6
1.6239363E-4
-7.913077E-4
-7.9207256E-4
9.210685E-4
4.7610112E-4
-5.561818E-4
-3.4319557E-5
-0.001341833
-0.0032397837
-0.0026604508
8.481035E-5
0.0020593405
4.287503E-5
-6.6111196E-4
0.001164538
-5.5616203E-4
-0.0012979198
2.99181E-5
-0.0012455354
-8.926279E-4
0.0014210504
0.0012498552
-3.833201E-4
1.0013002E-4
0.002704452
0.0034548275
0.0024543188
0.0014888827
7.767408E-4
9.4494317E-4
5.3228624E-4
2.3296423E-5
-9.899247E-4
-0.0025710901
-1.0388239E-4
0.0022808684
1.0523495E-4
-0.0011969152
-3.1530057E-4
9.470412E-4
6.858158E-4
-0.0016778016
-0.001752576
5.1901716E-5
1.4681775E-4
-7.788266E-4
-5.9670175E-4
4.336285E-4
-0.0011867976
-0.0033048578
-0.0015375279
-2.1312335E-4
-4.7310398E-4
6.144392E-4
-2.5229537E-4
-0.0019879162
2.4985024E-5
0.0024310944
0.0026382054
0.0018606657
1.775365E-4
-4.992155E-4
-0.0012462777
-0.0030837876
-0.0012873862
0.0017260124
0.00154647
0.0013482064
9.58264E-4
-9.105441E-5
3.29123E-4
5.787438E-4
2.8056433E-4
0.0013895663
0.0027165124
0.0013204805
-6.765597E-5
0.0011595794
3.2569084E-4
-0.0010549019
-2.3468773E-4
-9.48795E-4
-8.2918274E-4
2.727579E-4
1.105729E-4
6.904235E-4
-6.9491676E-4
-0.0019162468
-4.449165E-4
-9.655069E-4
-5.788792E-4
0.0012066859
-3.2793116E-4
-0.0022178302
-0.001817906
-2.5831177E-4
6.616641E-5
-8.919165E-4
-6.5672684E-5
3.9530906E-4
-0.0011991225
-9.7241165E-4
0.0016297876
0.0022520523
5.492182E-4
7.825549E-4
9.5921673E-4
-7.319172E-4
2.0168557E-4
0.0017148021
5.418974E-4
3.5101068E-5
0.0012868224
0.0020243805
0.0011775369
4.189127E-4
2.8898925E-4
-3.381145E-4
-1.2113059E-4
-3.243493E-4
-0.0025131353
-0.0028971366
-0.00186953
-0.0019765717
8.7430126E-5
0.0029271012
0.0017829445
-3.972532E-4
-0.001753942
-0.0025484087
-0.0010034158
-4.8283636E-4
-0.0011111073
-3.3176754E-4
-0.0010247538
-0.0011658875
3.1131465E-4
5.6729384E-4
0.001317941
0.0021527547
0.0032862788
0.0044676475
0.0029133973
0.0022338792
0.0016227528
-0.0021502518
-0.0024548776
0.0013422573
0.0011448893
-0.002038619
-0.0021554998
-7.8530365E-4
-1.4482783E-4
3.9081165E-4
-2.7309154E-4
-0.0011399188
-0.0016265595
-0.0013513117
3.0705344E-4
2.3392221E-4
2.065409E-5
7.2880415E-4
-6.617303E-4
-0.0019690858
-0.0023120858
-0.0010523282
0.0010499638
4.621021E-6
-3.3376162E-4
0.0014276092
0.0013965247
6.7395665E-4
4.51834E-4
5.059579E-4
7.568704E-5
1.8626424E-4
7.721755E-4
-7.9871557E-4
-0.0010949692
0.0012735786
0.0026319881
0.0016036385
-0.0011935182
-0.0019222985
-9.285872E-4
-0.0010959966
-6.52358E-4
3.9773964E-4
0.0014469266
0.0025062328
0.0028609566
0.0013663373
-0.0016347548
-0.0013552697
0.0014261798
0.0017476451
1.5316649E-4
-0.0013859374
-0.0018728046
-0.0013801726
-3.3273312E-4
-0.0020363524
-0.0052276235
-0.0017158272
0.002358197
6.819415E-4
1.9967913E-5
9.819089E-5
2.5697943E-4
7.1080757E-4
-5.768565E-4
-4.905056E-4
-3.346708E-4
-6.831933E-4
6.63668E-4
0.0013353772
0.0012287633
0.001083029
0.0015518568
0.0023699817
0.0020618713
0.001319282
-4.8644145E-4
-0.0015274778
-6.962587E-4
1.20316006E-4
0.0015118223
0.0014983277
1.8644193E-4
-0.0010362238
-0.0026044184
-0.0017780996
-5.728698E-4
-2.3549002E-4
6.527814E-4
-8.857041E-4
-0.0017614594
5.5194413E-4
0.0013992516
-8.546583E-4
-0.0030897101
-0.001809613
-1.6051946E-4
-3.3897418E-4
9.4054696E-5
-2.4803488E-5
3.9357677E-4
7.7300455E-4
-5.2074075E-4
-7.0316135E-5
4.9042434E-4
0.0010026742
0.0020408994
-6.7952174E-6
-7.317532E-4
4.0270877E-4
-1.1149188E-4
0.0014810482
0.002441297
0.0010822095
0.0016308053
0.0016804748
6.9758866E-4
8.6827733E-4
0.0016126542
0.0015423603
1.0226644E-4
4.2935598E-4
-5.5428056E-5
-0.0037901334
-0.0042191735
-0.0029547077
-0.002621574
-7.8317453E-4
-0.0013623311
-0.0022615762
-7.8216457E-4
-0.0012720749
-6.477033E-4
0.0018605763
0.0011567553
-0.001469071
-0.0024567693
-0.0010656682
3.6849824E-4
0.0014341901
0.003432011
0.002701076
-1.6519455E-4
0.0010502706
0.0037092778
0.0023521148
0.0010664967
0.0019945544
6.988064E-4
-7.121711E-4
-2.700119E-4
-0.0012806327
-0.0013127611
3.835288E-4
1.2402648E-4
-0.0015729031
-0.0027434141
-0.0012432327
9.555359E-4
2.7741725E-4
-3.9823243E-4
-9.0727815E-4
-0.002577317
-0.0027411806
-0.0019948855
-9.330105E-4
9.574056E-4
0.0020759453
0.001866364
0.001114596
9.063711E-4
4.434683E-5
-0.0010572121
4.455666E-5
9.921476E-4
0.0017325301
0.002305825
5.566934E-4
-1.2094291E-5
1.985309E-4
1.5411086E-4
7.906089E-4
-0.0010459868
-9.908476E-4
0.0014749316
1.8732695E-5
-0.0018788768
-0.0017223533
9.733275E-5
0.0016266434
7.6138455E-4
0.0016100949
8.8729244E-4
-0.0017182579
2.029821E-4
3.672426E-4
-0.0030164134
-0.0031680102
-0.0010944284
-7.410708E-4
-0.0022895648
-0.0015588375
6.838184E-4
7.3440245E-4
3.599973E-4
3.0798776E-4
0.0011764677
0.001723561
-2.1097912E-4
-0.0013909803
-0.001144395
-2.6318143E-4
0.0016043489