-4.3503096E-4
-1.7784441E-5
-9.544607E-4
0.0012662864
0.0035216087
0.0016587629
5.717715E-4
5.027389E-4
-1.3525499E-4
-3.1847914E-4
1.9462542E-4
4.2670654E-4
-2.8193064E-4
-1.5861676E-4
-0.0012242472
-0.0035696975
-0.002180119
6.418086E-4
0.0014558991
4.4734345E-4
-2.1209253E-4
0.001666415
4.768819E-4
-0.0022522642
-1.8062558E-4
8.660772E-4
4.2860593E-5
-6.20448E-4
-0.0034951512
-0.0032400282
6.0618843E-4
0.0022531669
0.0020131865
9.121051E-4
2.7859724E-5
6.4139534E-4
0.0016261108
0.001784831
0.0012785206
5.265582E-4
3.1146567E-4
0.0015406911
-1.9659064E-4
-0.0054998235
-0.005323485
-7.26913E-4
0.0012282537
0.002214085
0.0027861386
0.0016228089
8.2227297E-4
0.0016234667
0.0015761692
-4.2048428E-4
-9.942404E-4
-6.0936273E-4
-0.0010737989
-3.3598806E-4
6.8842707E-4
5.539779E-4
-1.8293086E-4
-7.390383E-4
3.394111E-5
1.9137106E-4
-0.0011734895
-0.0011266917
6.5885513E-4
0.001605329
4.3082755E-4
-0.0013713926
-0.0021193335
-0.002544238
-0.0022698706
-2.0133592E-4
6.7848957E-4
-7.28205E-4
-9.22436E-4
1.8556719E-4
0.0011272383
0.0014489923
0.0010616933
0.0015855114
0.001649712
6.903025E-4
9.621645E-5
-8.220297E-4
5.7308836E-4
0.0025136806
7.3830684E-4
-9.227825E-4
-0.0010687759
-3.6613466E-4
7.0262613E-4
0.0011828967
0.0022515277
5.936787E-4
-0.0018364489
-0.0015460893
-0.0028678777
-0.002046108
6.84447E-4
-3.134164E-4
-4.8379455E-4
-0.0011727927
-0.0027954944
1.18135686E-4
0.0024256234
0.001713354
0.0018607301
0.0013575658
-6.2976475E-4
-0.0015346206
-6.7218975E-4
-6.760048E-5
2.3155779E-4
0.0012239561
0.0011387483
-2.3270157E-4
-4.1673367E-4
8.486777E-4
9.3927124E-4
-6.519819E-4
-0.0016155016
-9.1136823E-4
-2.0130047E-4
-0.0013399427
-8.638017E-4
0.0019300749
0.0012300763
-6.970717E-4
-0.001110825
-0.0026081607
-0.0023041794
3.7343698E-4
0.0024076137
0.0020683266
-2.217326E-4
1.79972E-4
8.129921E-4
-0.0012140023
-4.0288363E-4
0.0019381309
0.0017273136
1.4917084E-4
-7.5914786E-4
-2.1980895E-5
7.8544785E-5
-5.9087146E-5
4.8696008E-4
-4.5533845E-4
-8.0840976E-4
-3.980405E-4
-9.785469E-4
-4.5288756E-4
6.536738E-4
0.0015798212
0.0022796642
9.7471237E-4
-0.0015037616
-0.0027318688
-0.0019438977
-0.0017556516
-0.0019127704
8.1015227E-4
0.0020742065
3.0572034E-4
2.106024E-4
-5.430021E-5
-0.0012105923
-1.4072853E-4
0.0011036943
-1.5737975E-5
-7.687495E-4
0.0013755143
0.0026281015
7.3439814E-4
-6.919958E-4
1.6055607E-4
0.0015289774
2.0120147E-4
-0.0015558482
-4.7425195E-4
-9.2774024E-4
-0.0015980286
-3.670239E-5
-3.9825053E-4
-5.240904E-4
2.336791E-4
-7.398695E-4
-6.555798E-4
1.15903145E-4
-2.2893697E-4
-7.742768E-4
-0.001440871
-0.001954602
-0.0017633785
-4.9471937E-4
0.0012822583
0.0027870352
0.0029844872
0.0016384426
0.0010374347
7.0252083E-4
6.3625853E-6
6.3162163E-4
0.0014627331
0.0013114049
-2.7155573E-4
-0.0011508691
6.423995E-4
6.0544413E-4
-4.544103E-4
7.0949906E-4
3.547741E-4
-0.0011159884
-0.0022113214
-0.003336342
-0.0019805345
-3.5309622E-5
2.9025684E-4
4.721026E-5
-0.0012998069
-0.001759384
-0.0013761139
-0.0025210425
-0.0021096265
3.1715113E-4
0.001708966
0.0017007529
4.8531196E-4
-1.3476967E-4
1.5710205E-4
5.4897345E-4
7.435859E-4
-0.0012681491
-3.621728E-4
0.003690866
4.9662363E-4
-0.0045264503
-0.0038870363
-0.0027552927
-6.7480357E-4
5.463074E-4
-0.0015611479
-0.0012260826
4.5381105E-4
2.7941773E-4
5.0833525E-5
1.483274E-4
0.0010441697
0.0019808707
0.0014035874
2.0975775E-4
4.1467347E-4
0.0017691415
9.84816E-4
-5.300844E-4
-7.9599384E-5
-6.2436156E-4
-8.348881E-4
0.001338724
0.001912192
0.0013663771
0.0012238928
1.5897584E-5
-9.666877E-4
-0.0023033621
-0.0039450023
-0.0025834914
-5.053302E-4
-0.0015081081
-0.0027845865
-0.0014355686
-3.510725E-4
-4.5189544E-4
1.9699206E-4
-3.5809964E-4
-6.245603E-4
7.3738344E-4
-6.333141E-5
-7.990898E-4
-6.936602E-4
-0.001429237
-7.0803403E-4
-2.0532603E-5
8.106084E-4
0.0014599703
3.0391687E-4
6.200136E-4
-9.2736474E-4
-0.0042046895
-0.003004851
-0.0015206161
-0.001328049
-0.001120261
-0.0027760377
-0.0029304414
-0.0016352398
-0.00132197
-2.7506275E-4
-3.1383213E-4
-0.0025432182
-0.0021951017
3.1986125E-4
-6.371495E-4
-0.0016471709
6.3338183E-4
4.3568868E-4
-0.0011240767
-1.9721851E-4
-2.669477E-4
-7.647452E-4
0.001490186
0.0030889981
0.00222892
0.0024741318
0.0023775455
6.099009E-4
8.9715945E-4
0.0015198308
0.0018862151
0.0033998312
0.0019318342
-3.8495302E-4
6.49038E-4
0.0017943004
7.3081994E-4
-0.0012332784
-0.0011831201
-2.4853618E-4
-9.721825E-4
-4.1380737E-4
6.8434345E-4
7.8698137E-4
0.0014929053
1.4152977E-4
-0.0017848941
-0.0015438083
-0.0016739754
-0.0013438805
-0.0032284919
-0.0073362757
-0.005328842
-0.0024576064
-0.0037956499
-0.0023954974
5.227955E-4
0.0022689751
0.0015266087
-0.0012167997
6.7655544E-4
0.0022215103
-5.861665E-4
-0.0018693628
-0.003818115
-0.005282159
-0.0025598824
0.0015601141
0.0043882327
0.004326355
0.005881594
0.0076983375
0.0034678553
-7.4535917E-4
-0.0010972542
4.484682E-4
5.3376314E-4
-0.0022109323
-6.6782295E-4
0.002072222
0.0015816074
0.002747558
0.0028315722
0.003268431
0.0055295196
0.0042477115
0.0016435116
-0.0017427688
-0.0039825207
-0.0022973227
-0.0016098501
-9.155996E-4
-3.630255E-4
-0.0014436533
3.5616403E-4
0.002716055
0.0034959621
0.0020995608
-0.0027359796
-0.004465386
-0.0023551113
-0.0010693213
-8.1884523E-4
-0.0019792102
-0.0024128198
-0.0017600361
-0.0014168328
-7.103156E-4
-0.0021687371
-0.0036993092
-0.0028769574
-0.0036584658
-0.0037507012
-0.002040272
-0.0023043065
-0.0023150886
-8.191154E-4
9.0022135E-4
0.002259837
0.0020985783
0.0019315233
8.4698934E-4
-0.0012459509
4.1768287E-4
0.002099994
2.746686E-4
8.168866E-4
0.0038105792
0.004954943
0.0031847125
0.0032499828
0.008295557
0.0077538732
0.0023090052
0.0034803709
0.0048574284
0.0034473732
0.0024347045
-0.0015200874
-0.004320741
-0.005753941
-0.007297181
-0.00498931
-0.0038736346
-0.0045560547
-0.0025327394
-8.70458E-4
-0.0016021944
-0.0027468263
-0.0011711053
-7.444316E-5
-0.0031652632
-0.0067679193
-0.00840358
-0.004375025
0.0014688881
0.0020340728
0.002952478
0.0031357056
0.0017715191
0.0021641476
-0.001899297
-0.0035796445
-8.347997E-4
-0.0029808136
-3.182978E-4
0.0049060136
0.0037200565
0.005036294
0.005007769
0.002902909
0.0058702463
0.0031310471
-0.0047893575
-0.007150294
-0.0065851947
-0.0032953988
0.0018215738
0.0030380143
0.0022278354
0.003682988
0.0066934703
0.00543859
-0.0014998126
-0.0067018517
-0.0067348676
-0.0024769804
0.0031476263
0.0018161444
-0.0058278968
-0.009305887
-0.007740489
-0.005673694
-0.003182399
-0.0011669503
7.455021E-4
0.0033399488
0.0034096783
0.0021410238
0.001646183
1.04041304E-4
4.7057195E-4
0.0032263696
0.005132568
0.0066072876
0.004700526
-3.1836628E-4
-0.002590838
-0.0012434706
0.002500807
0.00535315
0.0049430686
0.0022706043
-0.0023807392
-0.004342963
-0.001619646
4.2669126E-4
-2.848187E-4
-0.0019734905
-0.0023553967
-0.0020519136
-0.0013294893
6.0975255E-4
2.2415962E-4
-0.0011023672
-6.1289326E-4
-2.771288E-4
4.1085898E-4
-0.0012091439
-0.0049322685
-0.00524819
-0.003459789
-8.525888E-4
0.0018936392
0.0024466782
0.002284166
0.0033353758
0.0058858464
0.0059203333
0.0027325978
0.002585165
0.003350448
3.2553772E-4
-0.0033326123
-0.003800754
-9.7085326E-4
0.00129256
0.0021645925
0.0033572752
0.0041336305
0.006718916
0.009980883
0.006803905
-8.621896E-4
-0.0033341856
-0.0019891185
-0.005366374
-0.008003722
-0.005117594
-0.0050453627
-0.0059102285
-0.0032491246
-0.0025355122
-0.0033405032
-0.0023069324
5.190344E-4
0.0030083552
0.0022156895
6.445354E-4
8.644541E-4
0.0016383025
0.0019220761
0.0011920329
-2.6059843E-4
-0.0010281915
0.0012235021
0.004338408
0.0047420813
0.0037647346
0.002005867
0.0014661059
0.0023928354
0.0024743811
0.0034816507
0.0023571246
-2.0653482E-4
8.3629094E-4
4.909387E-4
-4.7490792E-4
7.9963857E-4
-9.422991E-4
-0.005740757
-0.009094991
-0.0066044168
-0.0013333309
0.0012630287
0.0023938038
-2.5384536E-5
-0.0025634747
2.0633159E-4
0.0033740222
0.0046243337
0.0036163845
0.0023682083
0.0026610107
0.0019029179
0.0021509395
0.0015653347
2.9511572E-4
0.0017732217
0.0012528601
0.0012386546
0.0023712732
1.4956229E-4
-2.8490648E-4
4.463107E-4
-0.0011483412
-0.003956467
-0.005607031
-0.00313251
-0.001540817
-0.0017281655
-0.0012536205
-0.002973119
-0.002846983
-7.4226136E-4
-7.1309233E-4
-7.6390745E-4
-8.86058E-4
-0.001088051
-0.002771211
-0.003997849
3.3080942E-4
0.004140109
0.0047090403
0.005585783
0.004588113
0.004543934
0.006305916
0.0040989215
0.0013259889
0.001534062
0.0011744339
9.225422E-4
0.0016077592
0.0015492741
0.0014369934
2.941718E-4
-0.0017773487
-0.0015330587
7.253167E-4
0.0024045582
0.002957591
0.0032569552
0.0032401974
0.0038779476
0.004245435
-0.0020800026
-0.010989492
-0.0117438175
-0.008417284
-0.0067269374
-0.004991273
-0.0036498874
-0.0023139243
-7.67173E-4
-7.9340243E-4
-8.1360777E-4
9.3594694E-4
0.0019830614
0.0012066752
6.8911386E-4
0.0011965998
0.0031910106
0.0042055496
0.0022919632
0.002522994
0.0034269658
7.7556295E-4
-6.043354E-4
-5.532355E-4
-6.017068E-4
1.3464381E-4
-0.0021214336
-0.003805419
-3.632963E-4
0.0036169356
0.006637282
0.0066286423
0.0038332352
0.0046564066
0.004798868
-1.2013088E-4
-0.002860237
-0.0012489267
-3.3613454E-4
-0.0026773696
-0.004372295
-0.0028375164
-0.002083723
-0.001115733
0.0018591381
0.004101277
0.0063153254
0.007883367
0.0075741825
0.004954625
-6.7336793E-4
-0.0043874686
-0.0047281575
-0.0037665418
2.6353245E-4
0.004647194
0.0055926754
0.0045045144
0.0024846361
-0.0011802883
-0.0051442245
-0.007858347
-0.012059079
-0.015483471
-0.013661865
-0.010727251
-0.00755087
-0.0034712804
-0.0026085125
-0.0029501107
-0.0011991702
0.0016281183
0.0048799855
0.0074710557
0.008103103
0.006369489
0.0041180844
0.003589683
0.0045208544
0.0072734174
0.00973784
0.007900706
0.006077397
0.008407801
0.010528986
0.0111358
0.010001907
0.005995196
0.0022675667
-0.002935525
-0.011140566
-0.017942272
-0.02162403
-0.02044235
-0.014940786
-0.008268381
-0.00304282
-0.0019520426
-0.0013896995
-4.4897193E-4
8.132456E-4
0.0071506132
0.012686109
0.015817579
0.022415921
0.024667367
0.018846218
0.012492054
0.0059296093
-0.0043389793
-0.012880404
-0.013353455
-0.011773369
-0.013241977
-0.013798433
-0.011654643
-0.009184382
-0.0072515216
-0.004318792
-0.003588654
-0.005393832
-0.0042300206
-0.003573772
-0.004898384
-0.005390316
-0.0063622748
-0.0052225916
-0.0026956606
-6.580429E-4
0.0016531686
0.0038637647
0.008782655
0.012481787
0.013807445
0.016342346
0.014776012
0.01338224
0.013861592
0.009403581
0.006218979
0.0037697637
-0.0010769026
-0.0025304302
-0.0027500372
-0.0034129894
-0.0042907437
-0.005513115
-0.004214372
-0.0023925658
0.0021319871
0.0098520685
0.009543473
0.002355456
-0.0012907805
-0.004639927
-0.010658725
-0.013459108
-0.014195908
-0.014825778
-0.011010281
-0.0062110517
-0.0053272746
-0.0050616013
-0.0030169487
-2.4402741E-5
5.9058383E-4
-0.0013184025
-0.0011255305
0.0010245946
0.0043525426
0.0070022186
0.006717558
0.009705072
0.0141149135
0.012682265
0.011097448
0.009387194
0.0014583678
-0.005642342
-0.0056100865
-0.004517714
-0.004062385
6.472295E-4
0.004411128
0.004461338
0.00528504
0.0033315837
-0.0021467255
-0.013466668
-0.026247151
-0.021112025
-0.008905235
-0.0078879455
-0.007979901
-0.0065161334
-0.00620312
-0.008027605
-0.0087547405
6.3545496E-4
0.007929231
0.008001859
0.010882066
0.011861648
0.015594713
0.030262182
0.043256663
0.038684286
0.022441797
0.011594493
-0.0022441668
-0.02081526
-0.024928257
-0.022561464
-0.02081295
-0.010756104
0.0012905343
0.010267529
0.017997514
0.022782004
0.01343264
-0.013017066
-0.028858341
-0.029110176
-0.03456181
-0.034770723
-0.024223614
-0.017020015
-0.011820159
-0.009125256
-0.0077039944
0.002410219
0.011733811
0.011110108
0.015944716
0.02761464
0.02623426
0.021664787
0.027977824
0.020742405
0.0011453251
-0.0014109771
0.008754134
0.018273512
0.019339053
0.003179199
-0.0215484
-0.04073159
-0.047722023
-0.038948193
-0.0055840774
0.043700527
0.066453785
0.05687642
0.052504133
0.053498432
0.029017683
-0.0237641
-0.06157392
-0.055079944
-0.03636815
-0.027185285
-0.019422852
-0.026726969
-0.04348801
-0.042801797
-0.034851626
-0.031876653
-0.0237755
-0.008898172
0.0011469936
-0.0059610517
-0.012993439
0.0014653206
0.027408864
0.06642525
0.10898434
0.12445941
0.11481976
0.071058206
-0.012589382
-0.08811685
-0.12542786
-0.12108511
-0.069687456
0.0056278086
0.065071
0.08581476
0.07858321
0.059327878
0.027795887
0.011872245
0.017375108
-0.0077564693
-0.058785178
-0.0972552
-0.12358286
-0.121210024
-0.094059415
-0.06667665
-0.019287566
0.046180423
0.11842162
0.19615063
0.23473111
0.21498477
0.15191266
0.07217672
0.0052004424
-0.089371584
-0.18519104
-0.19518834
-0.18212777
-0.17649746
-0.120173156
-0.05380733
-0.009214851
-0.0097412225
-0.08017147
-0.13075624
-0.12054133
-0.08195102
-0.010772394
0.07086208
0.14489701
0.18663296
0.18895926
0.20320982
0.20031379
0.17763537
0.1760295
0.11321038
-1.2565807E-4
-0.06969328
-0.113005824
-0.097221635
0.028904758
0.17629437
0.21484306
0.12166941
-0.01798604
-0.13333821
-0.18349679
-0.19082113
-0.25153297
-0.3671764
-0.45727533
-0.43075174
-0.2570231
-0.066370524
0.067981936
0.18549526
0.25748175
0.2700947
0.23739699
0.1663681
0.12706363
0.16073307
0.19201119
0.13157757
0.014751047
-0.05495487
-0.047931876
-2.1820713E-4
0.04616683
0.08977743
0.12567918
0.105085425
0.027559467
-0.072674975
-0.14560431
-0.14670295
-0.13680172
-0.15167756
-0.15274298
-0.1490594
-0.12970425
-0.081523925
-0.030668896
0.028877487
0.08046951
0.103754275
0.124431245
0.12550099
0.07910389
0.027771063
0.010862012
-0.0051695188
-0.043700483
-0.05318766
-0.016773544
0.009140396
0.009052051
0.009702066
0.009946884
0.0025163484
-0.004150476
-0.007792379
-0.011477722
-0.013763172
-0.012229552
-0.0070545725
-8.232028E-4
0.007528283
0.016310662
0.020140601
0.023457356
0.028674394
0.030547136
0.028567147
0.024688268
0.019715726
0.011636951
0.0038011877
7.818756E-5
-0.006274289
-0.015161146
-0.025255345
-0.035962068
-0.038798347
-0.038659543
-0.03825527
-0.031893995
-0.026626274
-0.021999778
-0.013499631
-0.004999493
0.0036543086
0.01074557
0.015301164
0.020392219
0.023325643
0.02259676
0.020382445
0.015946032
0.010576817
0.0070684315
0.0046421024
0.0019274118
-0.0015041253
-0.0030654087
-0.0017020932
-6.792395E-4
0.0017684612
0.004478142
0.003614558
0.004070691
0.0051122564
0.0041931076
0.004211642
0.0028650973
0.0026449536
0.004487091
7.5135025E-4
-0.0041316147
-0.0041795424
-0.004301282
-0.0049780295
-0.0053673526
-0.0072421497
-0.006073871
-0.0019626021
-0.0026820907
-0.0045773564
-0.0023799445
-0.0025126582
-0.0039700596
-6.216777E-4
0.0027589323
0.0019453556
-1.2184123E-5
-6.2158867E-4
-4.8472322E-4
-0.0010484458
-0.0011964461
3.065248E-5
6.574772E-4
6.913203E-4
0.0013552117
8.6815684E-4
-7.7194744E-4
-9.9877405E-5
0.0020280126
0.0013797176
5.704793E-4
0.0027718765
0.0032863729
0.002634216
0.0042689857
0.0035106167
0.0011079552
0.0020168542
0.002566108
1.468092E-4
-5.714784E-4
0.0021199058
0.0020600455
-0.0014944496
-0.0021870749
-0.0013488177
-8.3021965E-4
2.3942515E-4
-7.146985E-4
-0.0016357532
-7.291593E-4
-5.489743E-4
-0.0019165264
-0.0038959119
-0.0037087556
-0.0029377015
-0.0028287345
-3.4085495E-4
3.2124427E-4
-0.0022679134
-0.0025709702
-3.1870964E-4
0.0021226231
0.0010628516
-0.0024485919
-0.0022592442
-2.6915275E-4
4.9935165E-4
0.0011970227
6.019013E-4
-1.1288991E-4
0.0017857959
0.0027980208
-5.426687E-5
-0.0016087741
-1.1707714E-5
5.5533444E-4
0.001115989
9.637307E-4
-0.001640145
-0.0012011445
7.734387E-4
-5.0071813E-4
-5.8437575E-4
6.640667E-4
-2.9501767E-4
-5.717512E-4
6.531329E-4
0.0012845792
0.001944575
9.841903E-4
-0.001545156
-7.2566775E-4
5.5231183E-4
-0.0014943214
-0.0018417315
-9.493793E-4
-7.5044925E-4
0.001431755
0.002025305
-2.0229594E-4
-8.3362026E-4
-5.3338943E-5
5.763931E-4
3.4056872E-4
-8.1521575E-4
-0.0018868145
-0.0015371585
4.931055E-4
3.045051E-4
-0.0020004434
-0.0021203458
-0.0015980834
-9.616913E-4
0.0015480748
0.0025673192
6.244366E-4
6.228771E-4
0.00253143
5.120729E-4
-0.002047622
-0.0011199929
-0.0012160809
-0.0017456263
-0.0016577528
-0.0023893348
-0.0021225316
-0.0010568966
0.0010978229
0.0019437026
1.2878577E-5
1.8613393E-5
-7.0212845E-4
-0.0025682629
-0.0013699443
-0.0011612731
-0.0016649731
-0.0014951758
-0.003007401
-0.00273432
-4.236851E-5
0.0015401507
0.0015626658
0.0019386325
0.002400103
6.300796E-4
5.0919334E-4
0.002406528
4.538243E-4
-0.0010096964
0.0012537319
0.0016934182
6.036765E-4
-4.4685954E-4
-0.0024375159
-0.0012528904
0.002241546
0.0014186723
-9.2041984E-5
-3.074159E-4
-0.0032018523
-0.0023482959
0.0013916764
4.5959587E-6
-5.697647E-4
7.0075033E-4
1.7416988E-4
8.180739E-4
-0.0013124268
-0.0058703455
-0.005457973
-0.0026278386
-0.0014038315
-3.8768322E-4
8.439242E-4
2.220357E-4
-0.0022297567
-0.002626387
-3.2070482E-5
0.002332652
0.0020522214
8.912306E-4
8.545691E-4
2.543781E-4
4.12525E-5
-9.557954E-5
-0.0012177487
8.2230667E-4
0.0024439509
2.1782484E-5
-2.2581538E-4
7.0163613E-4
1.5040694E-4
9.669043E-4
0.0014911412
4.6864638E-4
-1.8513037E-4
6.5711676E-4
0.0013500802
-0.0011343765
-0.003084691
-0.0022350424
-0.0029056561
-0.0022384245
2.7377825E-4
-0.0016860475
-0.0030279232
-7.618871E-4
-0.0013206439
-0.0014594528
9.82712E-4
0.0018786502
0.0018092701
-2.0766407E-4
-0.0020203828
-5.337184E-4
2.209742E-4
8.919719E-4
0.0016493199
-7.86472E-5
-0.0017059101
-0.0024597938
-2.6549547E-4
0.003544108
0.0017198802
-0.0017686595
-0.0011883553
2.3239975E-4
3.6308562E-4
8.6426706E-4
0.0023055242
7.7895616E-4
-0.0016424821
-1.0152439E-4
6.514282E-4
-6.8944114E-6
1.2005432E-5
-4.8304955E-4
0.00114263
0.001352229
-0.0013754703
-5.974105E-4
-8.444202E-5
-0.0027973317
-0.0033090643
-0.002305115
-0.0023241579
-0.0017831177
1.7216922E-4
8.0984965E-4
-0.0013704048
-0.0024002877
-0.0014278266
-0.0013358346
-8.501627E-4
2.4276225E-4
1.3482383E-4
-4.1126323E-4
-0.0015452525
-0.002254786
-8.6995325E-4
2.1064939E-4
0.0016717335
0.0040941434
0.0028045548
-4.2843795E-4
-0.0015791436
-8.2575466E-4
0.0022152967
0.0035509432
0.0012007391
-3.7480504E-4
-2.5721014E-4
0.00105042
0.0011808705
-0.0014345273
-0.0018363899
1.8503017E-5
1.1339303E-4
-0.0010131273
-0.0018788733
-0.0017410284
-0.0014023352
-0.0016337722
-0.0022331
-0.0029154855
-0.0025511482
-0.0019438849
-0.0015532238
-0.0014976253
-0.0024346276
-0.0014551394
4.0722455E-4
-9.1006514E-5
-5.809336E-4
-9.942265E-4
-0.0021140408
-0.0019543963
-4.4991137E-4
6.638399E-4
6.92168E-5
2.1790473E-4
0.0020270096
0.0020358555
8.043724E-4
-0.0010689676
-0.0037754073
-0.0031967817
-3.9723792E-4
-6.277348E-4
-0.0014944308
-6.397021E-4
-0.0016186308
-0.0020025768
0.0010296903
0.0020592657
0.0017187273
0.0020951522
-2.46327E-5
-4.3233784E-4
0.0017296916
0.001316238
9.5687073E-4
0.0015698525
0.0016711043
0.001827264
7.465069E-4
-2.2169535E-5
7.929825E-5
-2.0982778E-4
-1.5056499E-5
5.4566415E-5
-1.7876313E-4
-0.0019283958
-0.003908864
-0.0033687595
-0.0043107327
-0.004679684
-0.0020860606
-0.0020250352
-0.0019329372
-3.9280593E-4
-1.9421834E-4
-1.7199067E-4
-7.1654364E-4
9.0402627E-4
0.003952774
0.0043215714
0.003819337
0.0020128118
0.0014187056
0.002894656
0.0020864927
0.0020513472
0.0019665419
8.3801383E-4
0.0015582966
9.807085E-4
1.01183E-4
-0.0018956558
-0.0044822567
-0.0026031982
-0.0028982752
-0.0042666956
-0.0026672743
-0.0048727463
-0.005426664
-0.0015153685
-4.359852E-4
-0.0019273539
-0.0028980402
-5.5277E-4
0.0018396154
0.0019924955
0.0031730765
0.002626292
0.0023022615
0.004364829
0.0039412556
0.0020990786
0.0012692953
0.0024978446
0.004071087
0.0029741584
0.0017073429
3.1597115E-4
-0.0011272328
-0.0010436461
-2.6501663E-4
3.2303567E-4
-0.0016236424
-0.0020011405
-5.020201E-5
-0.0024367927
-0.0030782716
-6.2775754E-5
-3.3125683E-4
-6.8014767E-4
-2.4050107E-4
-8.993518E-4
-0.0010591659
-0.001438038
-0.0013627001
8.264836E-5
0.0016941313
0.0016816859
6.890499E-4
9.5759804E-4
8.3425693E-4
1.3386816E-4
-7.4280414E-4
-0.0023151515
-0.0013593453
6.6957594E-4
3.7665814E-4
-4.778846E-4
-7.737956E-4
-2.2623657E-4
6.887555E-4
0.0014432108
0.0011168817
-0.0011492481
-9.199531E-4
0.0018623117
0.00158792
-5.499641E-4
-0.00155563
-8.7740197E-4
5.675952E-4
0.0011723639
0.0028263843
0.0032228178
-6.316957E-4
-0.002196287
-4.2432008E-4
-6.392101E-4
-4.681052E-4
9.82398E-4
5.639097E-4
-2.2737984E-5
5.487273E-4
4.4020492E-4
-4.5976305E-4
-7.673091E-4
-0.0012157924
-0.0021077248
-0.0012035685
-2.589995E-4
-2.025751E-4
0.0016251142
0.0012138871
-0.0013695523
-5.741435E-4
-5.995736E-4
-0.0017625544
5.309511E-4
0.0012027267
-9.4949565E-4
-6.4105855E-4
4.0790034E-4
-0.0012207809
-0.0028629568
-0.001523704
8.646825E-4
0.00224447
0.001844308
-7.677267E-4
-0.0021678058
-0.0012597623
-8.3823147E-4
-2.8946795E-4
-2.30749E-4
-0.0010457012
-5.1364077E-5
6.7671685E-4
3.198395E-4
8.851662E-4
5.8581075E-4
5.439606E-4
0.0012979179
4.897887E-4
3.924493E-5
2.1737193E-4
7.284779E-4
0.0013178169
-7.221801E-4
-0.0016841189
-5.926628E-4
-3.984858E-4
0.0024872401
0.0041169487
3.4077893E-5
-0.0024883486
-0.0014476858
-2.1050568E-4
-2.1044858E-4
-8.6437404E-4
1.9452251E-4
2.7308948E-4
-0.0016861618
-0.0015432327
-3.5880646E-5
9.989737E-4
0.0015156193
9.340101E-4
4.9543387E-4
4.1067222E-4
-1.2324989E-4
-2.0228585E-4
3.4727817E-4
0.0012804413
0.0025440669
0.002998054
0.0018476895
1.7795277E-4
-3.0645885E-4
-2.2724747E-4
-1.7600609E-5
0.0013128329
0.0016526709
4.036287E-4
-4.3736634E-4
-0.0015173306
-0.0018920485
-0.0015357693
-0.0021126154
-7.7556487E-4
0.0013954565
5.6097587E-4
3.831897E-5
0.0011696973
9.797171E-4
-9.381669E-5
-0.0011898119
-0.0013649222
7.8279007E-4
0.0022737028
0.001633636
0.0010818439
-2.5372204E-4
-9.0610434E-4
-1.10253466E-4
-0.0015615046
-0.0014232537
0.0021522979
0.0036520485
0.0030302508
0.0013623959
-2.5863585E-4
-9.113814E-5
0.0012520715
0.0025420762
6.968041E-4
-7.670026E-4
0.0015362195
0.002174105
0.0023181464
0.0024591216
3.681504E-4
4.4474998E-4
9.5389434E-4
-4.078552E-5
1.5886652E-4
1.635577E-4
-7.6434296E-4
-0.002144887
-0.0022191133
-0.001267753
-0.00140239
-3.4466657E-4
-6.2128826E-4
-0.0034141846
-0.0019003643
0.0014301008
-0.0011180943
-0.0056640515
-0.0036871156
0.0016208658
0.003017888
0.0030711007
0.0032567326
0.0031578839
0.0034599276
0.0014997203
9.6232706E-4
0.0023763985
6.4035656E-4
8.613999E-4
0.0022610715
2.191186E-4
3.0805916E-4
0.0017359804
0.0014044427
7.8804966E-4
-7.670765E-4
-0.0010704284
-2.4537224E-4
-1.6087267E-4
7.398328E-4
6.697198E-4
4.0948635E-4
0.0012788239
-2.7809441E-5
-5.222369E-4
8.160059E-4
-5.518051E-4
-0.0015666086
-9.2777825E-4
-0.001278905
-2.9130408E-4
9.184158E-4
8.732796E-5
-3.6429628E-4
-2.5731736E-4
5.6387123E-4
0.0013078931
-4.3441635E-4
-4.3501245E-4
9.413393E-4
-0.0013360373
-0.0012284371
9.94397E-4
-0.0014251288
-0.0018262406
8.4382837E-4
0.0010649173
0.0019220978
0.001845201
3.7391222E-4
0.0010970385
0.0012100596
0.0022900896
0.002905177
-0.0015472474
-0.0028045948
7.4486557E-4
0.0020574245
0.001629536
1.1836067E-4
-9.066068E-4
-0.0013062779
-0.002006001
4.0630065E-4
0.0014643769
-3.5764626E-6
0.001410197
0.0011869423
1.3654456E-4
4.906201E-4
-9.678194E-4
6.29417E-4
0.002435517
-2.2104965E-4
-5.420744E-4
3.1845886E-4
-0.0010886809
-0.0017423138
-6.386105E-4
4.444128E-4
-2.4325565E-4
3.240058E-4
0.0016248579
-2.1388537E-4
-9.7063807E-4
3.266248E-4
2.1916247E-5
-0.0015637747
-0.0027973547
-0.0013158403
0.0014366271
0.0028171267
0.0026183373
0.001385584
0.0022968613
0.002488722
3.4350476E-5
5.62854E-4
7.9314975E-4
-9.653707E-4
-5.809753E-4
-1.0137928E-4
0.0014522688
0.0020948392
-9.647687E-4
-0.0020452256
-0.002604519
-0.00350067
-0.0012143719
2.0004013E-4
3.982249E-4
9.264972E-4
5.2693137E-4
4.8052258E-5
-0.0011451673
-0.0014873671
-9.670954E-4
-0.001014504
7.126836E-4
0.0012329448
5.9042766E-4
0.0023473252
0.0025713113
0.0012636753
0.0011571395
0.0010601446
-4.7765914E-4
-0.0022307334
3.1370125E-4
0.0027233858
4.5106612E-4
-4.7300328E-4
-4.1728516E-4
-5.61685E-4
4.971242E-4
-2.4321902E-4
-1.6056135E-4
0.0010016843
-4.5457353E-5
4.4696764E-4
0.0020207027
0.0010778125
1.7377605E-6
-2.2586939E-5
-4.4403673E-4
-4.047986E-4
-7.8642234E-4
-0.002538271
-0.001322752
0.0012572445
0.0010842244
0.0013937674
6.1848806E-4
-0.0010966233
-1.2347446E-4
-0.0010557912
-0.0024086304
-1.6178608E-4
0.0017873321
0.0016564775
2.330173E-4
-1.8868005E-4
-3.0205489E-5
-6.0464686E-4
8.227075E-5
2.1039597E-5
-1.6530076E-4
3.371461E-4
-9.2360284E-4
-0.0010157927
-0.0012928618
-0.0017016989
8.083262E-4
0.001186917
8.726697E-4
0.001817635
5.2296347E-4
2.240121E-6
3.3439155E-4
3.224316E-4
0.0010496784
7.217319E-4
2.6230403E-4
6.042329E-4
0.001416811
0.0025598437
0.00220655
1.89822E-4
-9.192616E-4
0.0013043602
0.0030932685
8.059123E-4
-7.7079365E-4
1.1659257E-4
-1.1182126E-4
-0.0011937538
-5.719501E-4
-8.4735453E-4
-0.0029739158
-0.0011083914
-7.4668607E-4
-0.006067047
-0.005066069
1.6111712E-4
6.713722E-4
6.258845E-4
6.167155E-4
-9.1941707E-4
-0.001306303
3.29352E-4
0.0017013599
0.0013470245
0.0010815563
9.395412E-4
0.0016199346
0.002642634
8.6330215E-4
4.4772163E-4
0.0025700678
0.00209281
9.872561E-4
0.001296092
2.9284527E-4
-0.0016384422
-0.0015350166
-4.082208E-4
4.4469707E-4
0.0021306498
0.0013426013
-0.0011930193
-0.0010916658
-0.00125896
-0.0010709878
0.0010546156
7.140009E-4
-0.0011092965
-0.0013744524
-0.0010964414
-8.112633E-4
-9.914598E-5
4.762321E-4
-2.7697533E-4
-0.0014601136
-1.9284723E-4
0.0026919479
0.0019607597
-5.777916E-4
2.075458E-4
6.8296934E-4
-5.88111E-4
-0.0016638625
-0.0021406964
-8.920968E-4
-0.0011541256
-6.46277E-4
0.001848599
1.4511227E-4
3.3880986E-4
0.0024589524
-4.6611895E-4
-0.0015064242
4.324208E-4
0.001846931
0.0025264618
0.0015540669
0.0016284717
0.0015782898
9.637304E-4
1.5722551E-4
-0.001433931
-2.956449E-4
-8.817321E-4
-0.0030217795
-0.0012981094
-7.4498536E-4
-2.8261065E-4
0.0010383838
2.7084677E-4
7.334272E-4
0.0016025761
0.0015352946
-2.4085991E-4
-0.0023957132
-0.001050655
-5.241937E-4
-6.1370747E-4
4.021793E-4
-5.763826E-4
9.533278E-5
0.001450762
2.8007186E-4
-2.9030585E-4
5.0858746E-4
0.0011470811
-3.2637807E-4
-0.0013353041
1.522006E-4
9.2061213E-4
0.0015083329
8.972515E-4
-0.0011780447
-8.485328E-4
-6.03903E-5
-3.2931997E-4
-3.308559E-4
-4.848852E-4
4.987498E-5
5.816422E-4
-7.3035096E-4
-8.6892844E-4
0.0014971416
0.0010705141
-4.6603376E-4
8.53018E-4
6.952932E-4
8.368452E-4
0.002240382
2.5913573E-4
-9.069612E-4
3.5682233E-4
9.993477E-4