-0.005127989
-0.0012544448
-6.6485076E-4
-8.909866E-4
-0.0014185027
-0.002349729
-0.002168523
-0.0018576132
-5.7589903E-4
0.0014466118
0.0011473005
2.0011343E-5
-8.281644E-5
-6.5563666E-4
-7.1976136E-4
1.4014763E-4
0.0012229199
0.002301505
0.0010383765
6.5851316E-4
0.0035382211
0.0035931896
0.0025132673
0.0027280916
-3.729652E-4
-0.0024883172
-0.0012380237
-0.0015332217
-0.001796565
-0.0020341608
-0.0034158574
-0.0033133535
-0.0035033852
-0.0042465017
-0.0038355575
-0.0035700153
-0.002373767
-7.881354E-4
-8.185528E-6
9.865711E-4
-1.6434355E-4
-0.0020635314
-0.001149484
6.981967E-4
0.0030089994
0.0048392345
0.0048968284
0.0053773727
0.005814028
0.0053847795
0.0048386157
0.0044226744
0.0047738613
0.0040642587
0.0019814754
9.188142E-4
-1.2226577E-4
-0.0019320314
-0.0024167025
-0.0010954931
-0.0010324036
-0.0028894653
-0.0036214276
-0.003969165
-0.0042095752
-0.00359534
-0.004112726
-0.0039205845
-0.0037313558
-0.0048168334
-0.0024454296
6.441598E-5
-4.806262E-4
-2.9647155E-4
-0.0011590195
-0.0010705765
0.0023825471
0.0025556965
-1.9265104E-4
-0.0010856586
-4.1382713E-4
0.0015290977
0.0029268095
0.003733678
0.0051158266
0.0040167156
0.0017061905
0.0014588231
4.9999374E-4
-8.4790547E-4
-6.155257E-5
4.7081348E-4
-1.1875211E-4
1.3453917E-5
0.0015699021
0.0033929232
0.0035563393
0.002546773
0.0022030885
0.003231025
0.0025254
-0.0014659986
-0.0026382445
-0.0022395405
-0.004987284
-0.0044674873
-7.760366E-4
-3.717435E-4
-0.0016887115
-0.0017408243
1.3416393E-4
8.6737727E-4
-6.176589E-4
-6.708321E-4
-0.0010405196
-0.0026051695
-0.001929825
-7.361353E-4
-0.0014816772
-9.5252757E-4
0.0012088635
0.0013215888
0.0018722567
0.0016321465
-0.0015373311
3.230223E-4
0.002543641
7.4204E-5
0.0018892365
0.0028488934
-0.0011315462
-0.001367611
0.0017021237
0.0021776399
5.652459E-4
0.0013063026
-0.0018220835
-0.0062737297
6.5302075E-4
0.001374043
-0.0070693973
-0.002281829
0.0034442274
0.0015234269
0.002228732
0.0015612781
-7.4483623E-4
-0.0026818065
-0.003823001
-0.0028276492
-0.0021559757
-1.9916333E-4
3.115661E-4
-0.0011887891
6.272669E-4
0.0016802428
7.293524E-4
8.1430003E-4
0.001424654
0.0018876548
4.0534252E-4
-7.130214E-4
1.0868066E-4
5.6366203E-4
0.0010731153
0.0014581763
0.001869671
0.002699091
0.002752547
0.0022720594
0.00201042
0.0014558516
-5.838038E-4
-0.0025137097
-0.0033649944
-0.0040712208
-0.003406018
-0.0027853656
-0.0025068074
-8.124263E-4
5.1551417E-4
0.001030612
-7.6878996E-4
-0.0038435445
-0.0023485774
7.174276E-4
9.873476E-6
-0.0015472447
-0.0010245662
-1.5939117E-4
-0.0014420269
-0.0047032316
-0.0063346103
-0.003277972
-3.325816E-5
-5.0489645E-4
-5.915485E-4
1.7251931E-4
4.6297192E-4
0.0014073743
0.0017584986
0.0020783672
0.0018930484
4.1030918E-4
5.458847E-4
0.0019077933
0.0030877911
0.0045489687
0.005430574
0.0053266417
0.0046988567
0.005103525
0.0067115407
0.0064133736
0.002843749
-0.0019629055
-0.0042463667
-0.0029892428
-0.00197611
-0.0013004921
0.0014442435
0.0024252804
5.416547E-4
-0.0012389694
-0.00549922
-0.010590913
-0.011143082
-0.008917392
-0.0060435343
-0.0034530764
-0.001909615
-0.0021953017
-0.0043867826
-0.002855053
2.5187858E-4
-6.712701E-4
-5.3706544E-4
-2.0191111E-4
-9.494975E-4
3.0746224E-4
-8.8875904E-4
-8.8683737E-4
0.0037816244
0.0044271206
0.0026117961
0.0038122442
0.0046441373
0.0041193273
0.004918306
0.007080377
0.0066557927
0.0044999807
0.006313024
0.007200718
0.0027031037
0.0017273263
0.0043609096
0.0033787389
0.004287039
0.0072567756
0.004058059
-5.447516E-4
-0.0020337831
-0.0030172158
-0.0012234165
5.672612E-4
-0.0028498014
-0.0076972307
-0.010313772
-0.009326424
-0.006809374
-0.007803356
-0.008857243
-0.007449949
-0.007909728
-0.007714342
-0.0051713753
-0.004819741
-0.0050461064
-0.0036382715
-0.0031012096
-0.0015074089
0.0017284899
0.0014627264
4.211945E-6
0.002755911
0.0071247695
0.010144148
0.0113340905
0.012422327
0.015077358
0.014713442
0.011634838
0.010369325
0.008323237
0.004415385
0.0011209267
6.565471E-5
4.6334232E-4
-5.53177E-4
-7.769131E-4
7.674236E-4
-2.289804E-4
-0.0028829153
-0.0036227182
-0.0041765817
-0.0075688106
-0.011686521
-0.012348153
-0.008961424
-0.0052527282
-0.0047207107
-0.0061342064
-0.0070733856
-0.0048149084
-0.0011467917
-6.039698E-4
0.0012976463
0.0037658673
0.0024253882
0.0022674897
0.0026500868
0.0026539848
0.002400172
5.8827735E-4
0.0024253028
0.0037448087
0.0017877149
0.0021314295
0.0027348783
0.0025388878
-0.0010025004
-0.0040791687
1.7626018E-4
0.0033654317
0.0028649995
6.788217E-4
7.245795E-4
0.005506516
0.0046903025
0.0037234372
0.0032588888
-0.0021803249
0.0016543854
8.923888E-4
-0.01066998
-0.00639188
0.0036263175
0.0033307893
4.7022614E-4
-9.84391E-4
-3.4661262E-4
-0.0017161447
-0.0026940696
-0.0011295003
-0.0019868298
-0.001364005
-4.0860526E-4
-8.3605095E-4
1.6857267E-4
-0.001662302
-0.0037495764
-0.0025216567
-0.001494961
-0.0010487091
-6.4586097E-6
0.0016618839
0.0019872286
0.002188486
0.003645929
0.0032044437
0.0024518182
0.0016494136
-8.5275597E-4
-0.0013366534
-3.206809E-4
-0.0012426217
-0.002772737
-0.0021665066
-3.1166046E-4
-1.273256E-4
-0.001329031
-0.0023349808
-0.0019235382
3.833641E-5
0.0011908854
6.4562756E-4
-5.092776E-5
7.423015E-5
1.1246461E-4
-4.3713616E-4
-8.968841E-4
-0.0012430424
-0.0016562846
-0.0015933152
2.8551836E-4
7.8133977E-4
-6.2573387E-4
0.0021306346
0.0027994057
-6.260493E-5
0.0029310498
0.0036184178
9.97256E-4
0.0023424402
0.0018457827
0.0036059485
0.0060245907
0.0014135431
-1.1023743E-4
7.3694676E-4
-0.002081629
-0.002123558
-0.0010260983
-0.0034963116
-0.00640743
-0.00478742
-0.0010364621
-0.0012880887
-0.0016387672
7.305721E-4
0.0019232554
0.001017952
-9.5745065E-4
-8.9628075E-4
-3.9421621E-4
-0.0024540687
-0.0024886609
-0.001631628
-0.0023502735
-7.690018E-4
8.9862105E-4
9.380456E-4
0.001106167
1.2389019E-4
7.0932694E-4
0.002541544
5.732889E-4
-0.0011767322
9.113892E-4
0.0033938435
0.0032761986
-6.240212E-4
-0.003081063
-0.0012696827
-8.630236E-4
-8.1799214E-4
0.0013153444
0.0023388187
0.0016581827
-8.6429564E-4
-0.0014151629
0.0027520494
0.003307059
-2.134618E-4
-1.5559091E-4
0.0011395648
0.0017682636
0.0017128364
-0.001344301
-0.002486341
-6.7791296E-4
-3.9655666E-4
-1.8570776E-4
-6.566284E-4
-5.935353E-4
0.0023514894
0.0020980542
-0.0014478862
-0.0027511586
-0.0018608341
-3.2992905E-4
2.4476857E-4
0.001117849
0.0028642463
0.0024043145
0.0016484221
0.002564076
0.0010644614
-0.0030438802
-0.002800444
0.0012703686
7.563635E-4
-0.0017344629
-0.0012904789
-8.040998E-4
7.917889E-4
0.0018779687
-3.9216515E-4
-6.9270737E-4
2.2398544E-4
-0.0013095355
-7.882364E-4
0.0013845835
6.3956965E-4
7.5158705E-6
2.2438473E-6
-0.002443892
-0.0033274537
-0.0016852578
2.9419165E-4
0.0034031617
0.002996948
1.2944122E-4
0.0018460688
0.0032019755
0.0010235416
0.0015389465
0.0038192214
0.0023261688
-0.0012612073
-0.002600049
-0.0014956284
0.0011883065
0.0021278379
-0.0016403683
-0.0049248594
-0.00427855
-0.0017159482
8.4104354E-4
-1.4302922E-4
-0.0029157563
-0.0028826154
-0.0018061547
-0.0019809823
-0.0033910824
-0.002424
0.0019514092
0.0028964262
0.0018288717
0.0034759874
0.003841196
0.003570607
0.004168214
0.0027133524
0.0017800715
0.0028809258
0.0026306
0.0015599086
0.001778303
-2.7187975E-4
-0.0043373588
-0.0029270193
7.9945993E-4
0.0013776754
0.0031166142
0.0035853444
7.002314E-4
7.6724926E-4
5.959229E-4
-0.008068879
-0.017752325
-0.012389593
0.0013738407
0.0042159464
3.0833305E-4
-8.098492E-4
-0.0010454311
2.9480897E-4
0.0012063585
6.955834E-4
0.0021374545
0.002639203
0.0011705329
2.3278882E-4
-9.102526E-4
-0.0019207156
-0.0015167334
-4.962098E-4
-1.1417306E-5
4.2878202E-4
8.727018E-4
8.891266E-4
7.343963E-4
8.399897E-5
1.0445208E-4
4.881224E-4
-2.592194E-6
4.125695E-4
0.0010611115
7.9953606E-4
-8.3121506E-4
-0.0033947814
-0.0024613196
0.0019111079
0.0051588314
0.003624016
2.9364068E-5
0.0012302211
0.0021892502
6.35217E-4
0.0020220992
0.0011854041
-0.002612482
-0.0052704285
-0.005702505
-0.0020749164
-1.032593E-4
-1.926139E-4
0.0014072111
0.0017828585
6.487675E-5
-0.0051745074
-0.0063574687
-0.002972712
-0.009135999
-0.011168713
-1.9162429E-4
0.0046235523
0.0040716613
0.0048920573
0.0042159664
0.0034328506
0.001468725
-4.8630463E-4
-8.004898E-4
2.542093E-4
0.0024979687
0.002143346
0.0017458585
0.0042386926
0.005678269
0.0037494628
-0.0018470086
-0.0052694883
-0.0031592115
-8.2000147E-4
0.001385429
0.002036884
-7.75999E-4
-0.0013499884
-7.7648944E-4
-0.0025591494
-0.0023662224
-0.0010667938
-0.002388731
-0.0026138606
1.1830938E-5
0.0017251394
0.0011908975
-5.862551E-4
-0.0013100887
-1.0079275E-5
-1.8124603E-4
-8.86974E-4
5.14496E-4
7.3894305E-4
5.8638596E-4
0.0014765123
8.916907E-4
7.1704545E-4
0.0012007081
0.0010923097
0.0014320066
1.8346182E-4
-0.0018173427
-0.0023273302
-0.0031181036
-0.004216701
-0.003992338
-0.0011722925
0.0023502575
0.0029275292
0.0012960046
7.7377533E-4
0.0024311475
0.0028340023
0.0020344772
0.0017848947
-0.0011425752
-0.002498568
-9.23148E-4
-0.0015151096
7.071595E-4
0.0028485626
6.21051E-4
0.0016140348
0.0027462803
-8.467514E-5
-0.001392919
7.058669E-4
0.0014846673
-0.0019624492
-0.0016579546
0.0023973684
0.001057579
-0.0022811857
-0.004558309
-0.0064494913
-0.0048522404
-0.0015178022
-2.9523973E-4
-3.8933396E-4
7.5845566E-4
0.0010653024
2.893045E-4
0.0018277649
0.0033346687
0.0039146133
0.0033937688
0.0022933069
0.0044323294
0.005570828
0.0037371882
0.0013493306
-0.0031486447
-0.0057782535
-0.0048634913
-0.0027118064
-6.172511E-4
-0.0021458366
-0.0029226558
-7.8013464E-4
-0.0019832745
-0.004907826
-0.00758224
-0.009949594
-0.009091886
-0.006341997
-0.0017334428
0.0037120604
0.0052014324
0.005622105
0.0083482815
0.010512605
0.010042225
0.0075097163
0.008306625
0.012585729
0.010565765
0.0039433343
0.0023999256
0.0029210486
0.0016730719
0.0023791876
0.0028263172
-7.802111E-4
-0.0066289473
-0.012457921
-0.012842968
-0.007573218
-0.004137631
-0.003054758
-0.004553521
-0.007033378
-0.0064948355
-0.0056087137
-9.450947E-4
0.0025637606
-3.249954E-4
0.002748919
0.0025011478
-0.001512234
0.004777291
-8.3903334E-4
-0.011568366
-0.0025310917
0.003566514
-4.6426892E-5
-0.0010635969
-6.55779E-4
0.0026800756
0.0037941067
0.0025134655
0.0031147953
0.0033552763
0.0041121994
0.0018962943
3.685685E-4
0.004979986
0.0075470507
0.008450176
0.011975958
0.014551935
0.013430775
0.009901729
0.0061410773
-6.4292434E-4
-0.008622838
-0.011983778
-0.012473261
-0.017056037
-0.028388208
-0.034169428
-0.02848425
-0.020492556
-0.012243625
-0.0065151355
-0.0029664028
0.0030648934
0.00636486
0.008278493
0.011474802
0.012761325
0.012522975
0.0072122016
7.272813E-4
0.0030804633
0.012746183
0.024177207
0.033405125
0.03820548
0.036224015
0.02922046
0.023756016
0.016147185
7.422169E-4
-0.01789652
-0.031293485
-0.037786625
-0.0433001
-0.04279737
-0.03144255
-0.02065445
-0.015867487
-0.011877692
-0.0058713024
-8.864701E-4
0.0025777419
0.008882452
0.014973654
0.018757913
0.019123426
0.010723033
0.0012658443
-0.001057801
-0.0010445247
-0.0018329284
-0.0011620551
0.0015560456
0.0024929403
0.004019662
0.007715659
0.006778847
0.0044466727
0.0052558985
0.0043553202
-0.0023536528
-0.012903971
-0.017928537
-0.01291687
-0.0016756095
0.006438372
0.0077720387
0.011744134
0.013199129
0.007340252
0.0011449031
-0.011705933
-0.022621866
-0.017742505
-0.006353566
0.00649155
0.017436897
0.021405073
0.019990772
0.016254116
0.008900607
-0.0105802985
-0.029680312
-0.032690756
-0.0324902
-0.031311926
-0.022855967
-0.0100229625
0.0094239665
0.0290483
0.03859193
0.03965835
0.037732385
0.035701644
0.030379612
0.016215429
-0.004289852
-0.018157952
-0.02332163
-0.028462479
-0.030855745
-0.03238602
-0.034842227
-0.030698698
-0.02077848
-0.0016682148
0.02165268
0.030903745
0.02690927
0.01801103
0.009818839
0.0054352847
-3.525745E-4
-0.0122596845
-0.025778241
-0.022280574
-0.0033791084
0.008565988
0.019552318
0.035358272
0.04400229
0.048147634
0.047613725
0.029682465
-6.65743E-4
-0.021815494
-0.032799527
-0.047101587
-0.06342865
-0.073202185
-0.06636319
-0.04885069
-0.03292152
-0.013479203
-2.730047E-4
0.003926313
0.021277357
0.0546856
0.088224754
0.10406369
0.10394403
0.09693079
0.071454756
0.027090516
-0.010046447
-0.013738106
-0.009348442
-0.030041752
-0.044939637
-0.04118833
-0.025975091
-2.814536E-4
-7.49969E-4
-0.030091442
-0.06653114
-0.10171859
-0.11945482
-0.11993386
-0.09489792
-0.06754863
-0.06317084
-0.03299255
0.0235401
0.08282895
0.1340087
0.13209681
0.113080055
0.105705254
0.062588364
0.00921521
-0.019835323
-0.031480387
-0.0140428245
0.033227723
0.076184794
0.07756528
0.058799338
0.024358688
-0.07576567
-0.1768343
-0.17543276
-0.11908248
-0.07625174
-0.023007838
0.046340976
0.08692513
0.088251926
0.06336218
0.019082842
-0.0083904825
0.0048863254
0.040496785
0.091442935
0.14909194
0.1873883
0.18783917
0.12101858
0.009254498
-0.04895678
-0.06807773
-0.14261918
-0.22378263
-0.23536284
-0.20500138
-0.14991248
-0.07205718
-0.022356613
-0.034943506
-0.057425614
-0.0439322
-0.030434204
-0.032773137
-0.030833768
-0.025326284
-0.011651313
0.011016795
0.04044175
0.07736845
0.10849906
0.13661812
0.17889513
0.23361437
0.26007047
0.22634524
0.15398705
0.038518086
-0.100364
-0.17562667
-0.18443811
-0.15358198
-0.0777979
-0.010430552
0.021218516
0.048985038
0.081843145
0.09787475
0.07693599
0.018225161
-0.09617105
-0.20233452
-0.19211681
-0.13857046
-0.09524881
-0.011854346
0.05545185
0.085854985
0.103909396
0.09253735
0.08745629
0.07156411
-6.4788916E-4
-0.09065222
-0.14844853
-0.1441544
-0.11149505
-0.08408296
-0.05772325
-0.067508556
-0.074168794
-0.006809043
0.09315564
0.16063744
0.15172228
0.08891945
0.053782023
0.040075555
-0.0015626131
-0.039553985
-0.026693152
0.016250838
0.055256724
0.07835504
0.09368276
0.12830278
0.13171557
0.070775546
0.035967823
0.02477871
-0.01366701
-0.041390933
-0.07247602
-0.11687579
-0.1395652
-0.13678777
-0.093197465
-0.04243352
-0.032947432
-0.03429278
-0.034150936
-0.038623977
-0.038279142
-0.039895132
-0.03690602
-0.023274157
-0.004370079
0.025188072
0.05250997
0.05393026
0.045329966
0.05648153
0.07009555
0.06513888
0.058110043
0.051411133
0.03693393
0.025715712
0.02841373
0.03794677
0.039812032
0.0424197
0.040485833
0.0047892006
-0.041780524
-0.06708408
-0.075997636
-0.06520566
-0.049048953
-0.044949774
-0.038388465
-0.029751116
-0.024326552
-0.018550022
-0.016079152
-0.00901347
0.004161766
0.014639085
0.024692677
0.02989966
0.027408682
0.024264686
0.013461549
-0.0069486275
-0.016240006
-0.012572369
-0.012576686
-0.00853407
0.005536882
0.015348182
0.018541496
0.016859517
0.010309333
0.005525104
0.0036066952
6.5897056E-4
-0.008427707
-0.019086428
-0.02018981
-0.016810192
-0.014495972
-0.011436606
-0.008080667
-0.0026419682
0.001543415
0.0047732326
0.01133329
0.014650306
0.014773389
0.016559787
0.01799468
0.019489227
0.01968242
0.016201893
0.011525356
0.010154785
0.01270973
0.01269764
0.0086671095
0.0047607482
0.002201648
6.66353E-4
-0.0025059734
-0.0061261915
-0.0068977573
-0.00667646
-0.0069235666
-0.008956432
-0.012774638
-0.016412001
-0.020393886
-0.024286361
-0.025487978
-0.023100767
-0.0204498
-0.019160394
-0.019131498
-0.019049348
-0.011764879
-0.0072521614
-0.0139087755
-0.008595634
0.007958787
0.014989148
0.018135695
0.01990174
0.019320454
0.020619938
0.018400017
0.012938509
0.008066176
0.00570692
0.0062135826
0.0049567115
0.0048888423
0.007645396
0.009293018
0.009399474
0.007271562
0.0061165118
0.004115789
-0.0020031363
-0.0046299347
-0.0047277296
-0.0069150394
-0.008262105
-0.007889525
-0.004736548
-5.726534E-4
0.002152886
0.002940598
-1.486319E-4
-0.0040016184
-0.0066173356
-0.0077128094
-0.0062628454
-0.006376665
-0.0066397884
-0.0052218805
-0.006192381
-0.0071426807
-0.0056547336
-0.0028301561
-0.0012670716
-0.003713358
-0.0047794953
-0.0032322307
-0.0036548642
-0.0031747292
-0.0014807087
-3.9283148E-4
0.0020606609
0.0031477232
0.0020064279
0.0015440956
0.0012960896
0.0025124112
0.0042559523
0.004809798
0.0066146604
0.0059954184
0.0035016509
0.004949162
0.006125904
0.006804715
0.00886686
0.009025882
0.009138357
0.007619336
0.0043007587
0.0035198207
0.0020741085
2.8331333E-4
3.916472E-4
-0.0010207254
-0.0034963095
-0.0038850014
-0.0029507421
-0.004684875
-0.007543471
-0.008131775
-0.008059427
-0.00618894
-0.004038949
-0.0043147914
-0.004579004
-0.0042604217
-0.0024793905
-0.0019996406
-0.003215182
-1.6237636E-6
0.0024171784
0.0016314844
0.004519892
0.0102487765
0.017061286
0.021306975
0.019213809
0.014749182
0.010068725
0.0067392015
0.0048063505
4.667402E-6
-0.0044873543
-0.005031724
-0.006822613
-0.009932916
-0.010257177
-0.011313136
-0.013480508
-0.012748834
-0.012853575
-0.015212838
-0.014902715
-0.011850798
-0.009356567
-0.008123191
-0.0063782157
-0.0037453647
-9.467247E-5
0.0044091893
0.005863704
0.0054983674
0.0075416714
0.009566338
0.010895586
0.012528575
0.013229314
0.0141795585
0.014633119
0.011963458
0.008090882
0.005371367
0.003168321
0.0013954294
-7.908493E-5
-0.0021996296
-0.004328686
-0.005888904
-0.007195873
-0.008060667
-0.007749279
-0.006140925
-0.006318175
-0.009523536
-0.010039357
-0.006215593
-0.0040580747
-0.0037707104
-0.0025204495
-0.0020659566
-0.001339027
-6.622404E-5
-9.0680475E-4
-0.001505198
9.349677E-5
0.002702285
0.004864309
0.004535558
0.0025729788
0.0016943001
0.0017970139
3.0838008E-4
-0.001232247
3.1196655E-4
0.0014532135
0.001449199
0.0015782524
-2.9870844E-4
-1.3253668E-5
0.0030203508
0.0033046787
0.0032761965
0.0039231074
0.0012911031
-0.002206897
-0.0024771972
-0.0026227324
-0.0048999805
-0.004956061
-0.00315256
-0.0020166023
5.677548E-4
0.0027643552
0.00316374
0.002678312
-7.868208E-5
-0.0010930564
2.2245845E-4
-0.0013657336
-0.0019620305
-0.0017296288
-0.0052123354
-0.005787955
-0.0030711966
-0.0028341832
-0.0035836622
-0.0034383605
-5.8067666E-4
0.001948759
0.002381084
0.0021149535
-0.0032938325
-0.003193055
0.00229031
-0.0072644353
-0.013160726
-9.886113E-4
0.005177765
0.0044619604
0.004365297
0.0014206253
5.3742E-4
9.3750586E-4
8.320685E-4
0.0015858976
0.0013794085
0.0015727661
0.002025063
0.0015039708
3.8774151E-4
-3.563229E-4
-1.1941491E-5
2.1833158E-4
0.0012848569
0.0014829657
-1.890877E-4
4.423214E-4
0.0014358483
6.1610626E-4
-3.847684E-4
-7.624386E-4
-1.1647147E-4
-0.0010528994
-0.0012963299
6.93623E-4
3.8111486E-4
7.0289266E-4
0.0024790019
0.002870314
0.0031571717
0.0014885702
6.6494016E-5
8.266297E-4
1.8276955E-4
5.8298884E-4
0.0019077312
4.661989E-4
-8.120441E-4
-2.767854E-4
-6.5358734E-4
-0.0012508794
-3.4506447E-4
-0.0013244034
-0.0020203236
0.00153848
0.0017624341
-4.2712453E-4
0.0011059584
-3.7770421E-4
-0.0034247462
-0.0016986096
1.6195494E-4
8.90089E-4
0.0019525973
0.001695208
0.002067018
0.0031456333
0.0012013882
-8.910211E-4
-6.445391E-4
-0.0019145869
-0.0014929044
0.0017046041
7.115437E-4
-0.001308832
-9.015546E-4
-0.0013104484
-0.0015564078
-0.0018952397
-0.0028070607
-0.0024566734
-0.0016465776
-0.0022999085
-0.0030407736
-0.0010922179
1.162364E-4
-1.254774E-4
9.596711E-4
6.3307E-5
-2.9020538E-4
0.0016649463
0.0016637726
0.0020881318
0.0032121243
0.0039990065
0.0039994717
0.0012724805
1.2241445E-4
7.825393E-4
3.6692148E-4
7.8791566E-4
0.0019519011
0.002331912
2.0376178E-4
-0.0015926159
-9.401766E-4
-0.0017532733
-0.0025837196
-0.002310753
-0.0014561474
-3.3221103E-4
-0.0017820188
-9.908978E-4
0.0014735289
-9.5356576E-5
-9.69922E-4
-0.0015451921
-0.0026108432
-9.7111426E-4
-1.2833936E-4
2.1008616E-4
1.9793626E-5
-0.0022499964
-0.0031744959
-0.0032150312
-0.0027172542
-0.0012636902
-9.936616E-4
-0.001037359
-1.690467E-4
0.0019564552
0.0034233683
0.0025737511
0.0024555256
0.0031280336
0.0029669304
0.0025034654
0.002669085
0.0045538615
0.00527967
0.00480123
0.005692972
0.004425765
0.0027882357
0.004779877
0.006330442
0.007763513
0.009144672
0.0031259304
-0.007083857
-0.011542202
-0.012018816
-0.011951303
-0.009534452
-0.006840369
-0.005300287
-0.0038334373
-0.0040171994
-0.005121183
-0.003454393
-0.0010638615
-0.0022811242
-0.0032696403
-0.001025822
0.0012789627
0.0035069364
0.00468366
0.004206118
0.0050825183
0.0061103133
0.0051849377
0.0035928693
0.0039514126
0.0057031247
0.005304878
0.0030350056
0.0011311369
0.0018756442
0.0019690478
-0.0019907095
-0.0023565504
-5.6674617E-4
-0.0022473533
-0.0025336521
-0.0024885756
-0.0023189958
-0.0013040849
-0.0022667628
-0.0011116456
7.253452E-4
2.7197436E-4
7.8048796E-4
0.0015432435
0.0018643508
0.0013295533
1.9242684E-4
-2.1715867E-4
-7.409444E-4
-9.230057E-4
6.5247215E-5
6.6686625E-4
-0.001984508
-0.003285315
-8.893563E-4
8.910354E-5
0.0012287424
-0.0029301168
-0.0055824807
0.0027585041
-0.0052444832
-0.017545283
-0.0039135157
0.0051668836
0.0027602382
0.0048002326
0.0032348118
0.0032804087
0.0035379773
7.20852E-4
0.001574628
8.5843E-4
3.6801372E-4
0.0016358204
0.0017479777
0.0033365092
0.002808478
5.9338595E-4
2.413637E-4
0.0013929268
0.0019747873
-1.2732748E-4
-7.365273E-4
-5.96045E-4
-3.1051014E-4
0.0019182449
1.4385876E-4
-0.0017555126
-1.1208721E-4
-7.534739E-4
-0.0020410854
-0.002036883
-9.7632676E-4
1.6880522E-5
7.345337E-5
5.616366E-4
-0.001268487
-0.0017431402
0.0016145709
9.448064E-4
-0.0014263139
1.0552041E-5
0.0014437987
7.6616136E-4
1.511443E-4
-9.126602E-4
-0.003379579
-0.0028664113
-5.9291604E-4
-5.115525E-4
2.3311254E-4
4.065757E-4
1.3112724E-4
9.338875E-4
8.5713225E-4
0.0018434841
-2.5681837E-4
-0.0042362562
-6.6467567E-4
0.0031737387
0.0018652293
0.0011816762
0.0019656692
0.0033716557
0.0026389617
3.0438756E-4
-7.2550436E-4
-0.002523518
-0.0027888163
-1.3104099E-4
6.5493415E-4
-0.0013262355
-0.0016318323
9.4852626E-4
0.0013165626
8.9750113E-4
0.0022648803
7.121513E-4
-9.5068815E-4
-0.0012950508
-0.0028766296
-9.805536E-4
9.854425E-4
-0.0011731456
-0.001426037
3.7048792E-4
0.0019682592
0.0028220282
0.0017069469
0.0010398765
7.390023E-4
2.1937779E-4
4.5959858E-4
-4.0664742E-4
-6.740479E-4
1.4342123E-4
-2.2978036E-4
3.0601927E-4
7.238278E-5
-0.0019134899
-0.0015077287
-2.3389288E-4
-8.7956956E-4
-0.0018607941
-4.7291527E-5
0.0029832898
0.002045053
-1.7557491E-4
-8.835195E-4
-7.7129435E-4
0.0012388428
0.0010568891
-0.0011619028
-8.981703E-4
-6.7589164E-4
-5.360508E-4
-4.9562714E-5
6.720619E-5
0.0020133872
0.0020312476
-4.993503E-4
-2.0464238E-5
-9.756701E-5
-0.0032510555
-0.0027919638
-8.449532E-5
-8.088637E-4
-8.2095736E-4
8.172731E-4
0.0012183588
0.0022248968
0.0016347552
3.5390527E-5
6.662646E-4
2.2527752E-4
-6.604236E-4
-2.2634318E-4
3.168152E-4
0.0012588886
0.0021417972
0.0034589595
0.0031799956
0.001184196
9.807239E-4
-4.5212652E-4
-0.0016950406
7.7909295E-4
0.0011513009
-0.001125315
-0.001955382
-0.0018021305
-0.0013642355
-0.0018075597
-0.0015172249
9.035643E-4
7.8832806E-4
-0.0012666819
2.274964E-5
0.001796137
6.338464E-5
-0.002265053
-0.0027558415
-0.0019592927
-6.7778485E-4
1.3874778E-4
3.2160757E-4
-2.0373974E-4
-3.6570246E-4
3.089882E-4
-7.804649E-4
-0.0016991242
-2.8474885E-4
5.081328E-5
4.7370806E-5
-6.122148E-5
-0.0013097243
-8.976783E-4
-8.620151E-4
-9.6932665E-4
9.824472E-4
0.0013252052
0.0015380253
0.0027142044
0.0028926267
0.0033278328
0.002601216
0.0023026925
0.0032750086
0.00218841
0.0010607528
-1.3009549E-4
-0.0014338999
-1.8515305E-4
0.001074424
6.853584E-4
4.198752E-4
-1.6111843E-4
-0.0029967395
-0.0035106419
-8.2616846E-4
-7.306003E-4
8.4460527E-4
-9.970256E-4
-0.0049722823
0.0034116611
9.173063E-4
-0.015204155
-0.010379562
1.7714101E-5
-3.5383104E-4
0.0020788976
0.0028753055
0.0015568818
0.002120336
0.0019774574
0.0018204785
8.313449E-4
8.582983E-4
7.928994E-4
2.4222022E-4
0.001732676
0.0013396874
7.969764E-4
0.0016977158
0.001301155
9.817865E-4
-3.6887283E-4
-0.0014805093
-5.2836275E-4
4.8452173E-4
0.001399214
0.0012945995
9.6299616E-4
5.790389E-4
-9.124009E-4
-0.001270645
-0.0012660146
-0.0011587847
-3.741042E-4
-8.1636495E-4
-2.5394987E-4
0.001369967
5.159962E-4
-0.0013485712
-0.0014034946
-3.9346883E-4
-7.936677E-4
-0.0010027863
9.599191E-4
8.256774E-4
-9.60106E-4
-2.552102E-4
-2.93494E-4
-0.0014852562
-8.532482E-4
3.3984857E-4
0.0013343137
-1.9844054E-4
-0.0029061723
-0.002401202
-0.0021592919
-0.0011805451
0.0018155298
0.0015533392
7.75229E-4
-6.565157E-5
-0.0022062422
-0.0010942643
0.0017127648
0.0038829462
0.0028564858
-4.2163476E-4
-1.06965796E-4
5.376526E-5
-4.3709163E-4
0.0012844804
0.0012973315
0.0011581874
0.0014916323
6.950814E-4
1.1992327E-4
-0.0011030034
-0.0014424542
-7.344744E-4
-7.0395865E-5
0.0014271385
0.0011574037
-6.113802E-4
-8.307584E-4
0.0010960178
0.0021682293
-5.424829E-4
-0.0027164512
-0.003043464
-0.0024586094
8.4146865E-5
-4.471574E-5
-0.0012022341
-5.8436726E-4
-0.001028085
4.7469963E-4
0.0010974843
-0.0010581593
-2.80749E-4
3.7309882E-4
9.521904E-4
0.0025228113
-5.0615297E-5
-0.0023908054
-0.0013942325
4.0597122E-5
0.0016040861
8.1566744E-4
-6.297307E-5
0.0018094804
0.0017115496
2.5375764E-4
3.9184056E-6
-5.3629733E-4
4.1726886E-4
0.001319418
-9.532928E-4
-0.0012743335
7.99837E-4
6.3739915E-4
0.0010286323
0.0025264183
0.0025836215
0.0018094131
-8.4248744E-4
-0.0029356536
-0.0018190538
-0.001472438
-0.0028434403
-0.0026038974
6.268195E-4
0.0029073842
8.427005E-4
-1.6118804E-4
0.0018636278
0.0020409944
2.8989388E-4
-8.201991E-4
-5.286113E-4
-0.001192039
-0.002908552
-0.0022086923
-0.0012803539
-0.0012409263
-2.4510175E-4
-3.2746568E-4
3.145501E-4
0.002899472
0.003129673
0.001998394
0.0021887568
0.0010561324
-0.0023557753
-0.0039348537
-0.0025701341
-0.0022345653
-0.0016608934
6.897243E-4
3.310485E-4
-9.835664E-4
-3.6124268E-4
-4.6920072E-4
-4.0492276E-4
-5.3556556E-5
-7.101166E-4
7.1276714E-5
0.0014192319
3.20239E-4
-0.0014269211
-0.0013364541
-2.1542095E-4
0.00166205
0.002430582
-4.6136673E-4
-0.0014695522
0.00185958
0.0035692668
0.0031998125
0.0021423316
7.640787E-4
0.0011845371
0.0020896986
0.001688531
8.3085755E-4
0.0013758026
0.0019996264
4.3641965E-4
1.798501E-4
9.826438E-4
-0.0010841204
-0.00274233
-0.0010981179
-5.490085E-4
-0.003403758
-0.0041002473
-0.0012426258
1.928079E-4
-0.0014501228
-0.003677655
-0.0017625362
8.435006E-5
-0.0015075587
-0.0013189723
-0.0036132038
-0.0016903533
0.0043933517
-0.0064587994
-0.0127215935
0.0013245307
0.00594634
0.0039681424
0.0060265176
0.0038248969
0.0031776028
0.0027719247
-4.0119918E-4
-3.0544403E-4
0.0023873176
0.0048324573
0.0038135226