5.142931E-4
-0.0012280702
-4.5633334E-4
7.138195E-4
-3.7337988E-4
-9.7963E-4
-2.7346602E-4
-7.016703E-4
-6.517218E-4
4.7168134E-5
-1.15938084E-4
7.128209E-4
0.0018556092
0.002047595
0.0025378533
0.0019615113
-7.3569454E-4
-0.0012816417
0.0018542642
0.0020588588
-7.9049316E-4
-6.648818E-4
-3.9231958E-4
-0.0021107218
-0.0034546615
-0.0034752577
-0.0010653654
-6.51021E-5
-0.0012595339
-2.6635145E-4
3.341747E-4
-8.08539E-4
-0.0010737405
2.6429797E-4
0.0019105861
8.317948E-4
-8.1988E-4
-5.006551E-4
3.6731278E-4
0.001642526
0.0019258094
0.0021199621
0.0022311367
-3.7769543E-4
-0.0012675532
8.259176E-4
0.0017886428
0.0018400932
9.5054356E-4
-2.8118974E-4
-0.0011177933
-0.0019644613
-0.0011705223
-4.5858684E-4
-9.940228E-4
4.3171876E-5
4.1025254E-4
-0.0012451301
-0.0010713675
-6.5427885E-4
-0.001489109
-5.728409E-4
-2.8651013E-4
-9.889498E-4
3.5741914E-4
7.7850773E-4
7.3259E-4
0.0011385545
-5.0169625E-4
-3.2816082E-4
0.0010710924
9.922577E-4
0.0021143337
0.0011524197
-1.7659052E-4
0.001328522
-5.6445407E-4
-0.0021234339
-3.5488114E-4
-0.0011990721
-0.002028437
-0.0017598479
-0.0010893391
7.4770337E-4
-8.8291435E-4
-0.0016934725
0.0018055888
0.0019841758
9.285983E-4
0.0023447708
0.0016903053
-4.0554185E-4
-0.00102986
-4.757268E-4
5.9266476E-4
0.0011333979
5.4348796E-4
2.0411344E-4
8.434031E-4
7.7339716E-4
1.6978646E-4
2.722232E-5
9.5691765E-5
0.0010097767
0.0017261556
5.8889994E-4
-0.0027134875
-0.0056366306
-0.0045664445
-0.002924527
-0.0025787074
-0.0010921288
-7.285384E-4
2.2216946E-4
0.0025567876
0.0014061945
-3.3885127E-4
-3.068381E-4
-5.120699E-4
8.924581E-4
0.0028375175
0.002443982
0.0014443786
0.00181553
0.002226417
0.0020768526
0.002073422
3.9211923E-4
-7.907907E-4
0.0011799277
0.0014102902
-2.4724414E-4
-0.0012018224
-0.002282669
-0.0010889332
-8.753687E-5
-0.0013914525
-3.7897707E-4
-9.843576E-4
-0.0038372122
-0.001232462
0.0019736597
7.007924E-4
-0.0011791774
-0.003029476
-0.0029844935
-0.0010404639
1.670112E-4
0.0020160624
0.001551184
-1.7297461E-4
0.0012277241
5.7681306E-4
2.7851824E-5
0.0021306428
5.878811E-4
-4.8239075E-4
7.2131964E-4
-3.4196935E-5
5.77794E-5
5.031147E-4
2.1234943E-4
-2.910954E-4
-0.0016981192
-0.0010300745
0.0012191404
0.002296358
0.0014942718
-1.1722622E-4
4.0688246E-4
2.1759637E-4
-0.0013980828
-0.0010720557
-0.0012421412
-0.0010740658
2.1254981E-4
-4.7006147E-4
-8.837925E-4
5.786356E-5
8.932971E-4
3.0193655E-4
-0.002252078
-0.0016784673
0.0020330378
0.0019559795
-9.780931E-5
5.7524E-4
8.4840896E-4
4.7455638E-4
0.002130714
0.0018999589
5.8758457E-4
0.0015213969
-4.4203261E-4
-0.0033135673
-0.0013156071
0.0010774515
2.6331662E-4
-0.0021887997
-0.0026724327
-2.8232817E-4
5.167464E-4
-8.792584E-5
9.338516E-5
-6.325855E-4
-9.603143E-4
2.448726E-4
-2.960902E-4
-0.002355105
-0.0019391186
6.070343E-4
0.0016820023
6.8224734E-4
8.137973E-5
5.72465E-4
5.015158E-4
5.266048E-4
0.001605517
0.002042353
8.817636E-4
-5.026453E-4
2.777097E-4
0.0012911676
-6.352561E-4
-0.0014973673
8.427922E-4
0.0013367346
-0.0010222291
-0.0016257227
-1.7711606E-4
4.8951403E-4
8.226252E-4
-6.6261036E-6
-5.0403347E-4
0.0014644322
7.019968E-4
-4.80562E-4
0.0012935742
6.8947213E-4
-6.0468E-4
-0.0016338968
-0.0017381274
8.167093E-4
3.7413583E-6
-0.0015066955
-0.0020518636
-0.0037272254
-1.9461411E-4
0.0021940342
-3.0974174E-4
4.5363853E-5
1.2984681E-4
-2.8604464E-4
5.558747E-4
2.7433733E-4
7.574526E-4
0.0013636401
0.0011180238
-4.7547978E-4
-0.002049526
-6.3927536E-4
7.372392E-4
0.0014953916
0.0016426219
0.0011054027
0.0018870729
7.33666E-4
7.98937E-4
0.002113359
-0.0015282668
-0.0018274676
5.960273E-4
-0.0016773605
-0.001366598
2.3054436E-4
-6.7191187E-4
5.2845156E-5
-6.375102E-5
-0.0015128844
-0.0014312732
-4.1366852E-4
1.4856643E-4
-4.8342207E-4
4.6911573E-5
9.993811E-4
-8.251772E-6
5.6448655E-4
0.00214614
0.0014931763
8.4119034E-4
1.8182716E-4
-0.0014821244
-0.0019932808
-0.0012854345
-3.471158E-4
5.960739E-4
3.2657155E-4
-0.0010069025
-4.9590674E-4
0.001773691
0.002052931
0.001507373
0.0016221752
-0.0011192912
-0.0040994785
-0.0024754712
2.5794512E-4
0.0011675177
0.0017305337
0.0017755171
1.3656121E-4
-0.0021896285
-0.0021016893
0.0012148034
0.003218849
0.001095526
-0.0016644464
-0.002900311
-0.0027133077
-3.3984266E-4
0.0021942446
0.0033093868
0.0027098432
-3.5597334E-4
-0.0023957526
-0.0014540524
-1.0917514E-4
0.0010777161
0.0021321527
0.002000417
5.2021147E-4
-9.923669E-5
2.697334E-4
-5.207363E-4
-3.9463124E-4
-5.3943176E-4
-0.0014736385
4.6525968E-4
-9.3376054E-4
-0.0037940394
-1.3089163E-4
0.001331606
7.758284E-4
0.001941772
-0.002038868
-0.002994822
0.001435253
-5.9315134E-5
-0.0029618083
-0.0016562206
1.9919446E-4
1.429301E-4
-6.5429806E-4
9.265092E-4
0.0023957654
0.002476443
0.002608528
0.0017529406
0.0016196623
6.4275775E-4
-0.0010912741
2.0761196E-4
0.0010541434
8.4238115E-4
5.3216645E-4
-9.809234E-4
-9.395171E-4
-0.0013257364
-0.0024099224
-7.3125015E-4
0.0014632939
0.002246444
5.144128E-4
-0.0019859907
-0.0022805473
-0.0023641542
-0.0022236905
-0.0013969317
-7.5433194E-4
-2.1076249E-4
9.5293E-5
7.377517E-4
2.5376998E-5
-2.0749126E-4
0.0016261984
7.6524256E-4
3.0398119E-4
0.0017174892
4.1007827E-4
7.456289E-4
0.002760548
9.6523995E-4
-9.862159E-4
5.191642E-4
0.0014471102
2.539478E-4
6.0723297E-4
0.0011144533
6.228041E-4
9.196664E-4
-0.0013385249
-0.0033367854
-0.0011658473
-3.3289273E-4
-5.3133466E-4
5.075711E-4
-1.0383596E-4
-0.0016208019
-0.0015641837
-0.0010194115
-0.0021296926
-0.0013922743
0.0019238004
0.0017497011
3.793683E-4
9.223494E-4
4.4946972E-4
8.504717E-5
7.1549363E-4
8.2884205E-4
-6.803905E-4
-0.0012340954
0.0016196094
0.0019525933
-1.5428555E-4
-4.6970395E-6
-5.6380226E-4
-0.0011227243
-7.5419346E-4
-7.858277E-4
4.6018936E-4
0.0017455574
0.002607271
0.001880319
-4.879805E-4
-9.931539E-4
-0.0021265978
-0.0029978692
-0.0015251088
-0.0016704949
-0.0014806199
-1.79804E-4
1.4207725E-4
8.325122E-4
0.0015687762
0.0024635615
0.0025402703
0.001263097
1.294708E-4
-2.2148607E-4
0.001519796
0.0021399867
5.6328863E-4
-4.1132446E-4
-0.0024355513
-0.0024449667
2.0466033E-4
5.6775863E-4
-1.743648E-4
-7.210647E-4
-4.145584E-5
8.091823E-4
-1.6648002E-4
-3.198778E-4
-0.0012914836
-0.002265569
-2.0226775E-4
7.1545976E-4
2.2610168E-4
-7.026681E-5
-8.3881675E-4
-7.616424E-4
-1.1463893E-4
-2.0108708E-4
-0.0014258339
-0.001013879
0.0011169518
7.700317E-4
2.4187836E-4
0.0015146717
0.0023721678
0.0019525714
8.2393974E-4
0.0013455637
0.0010247355
-6.682462E-4
-1.6204081E-5
-7.816379E-4
-0.0016128395
-2.153934E-4
-0.0021001925
-0.0028389182
-5.396276E-4
-0.0014158975
-0.0021612453
-7.944113E-4
0.001042584
0.0032597266
0.002794569
0.0022401186
0.0045065386
0.0051154033
0.002755504
3.3320216E-4
3.3709724E-4
1.960292E-4
-0.0024929326
-0.0024330374
-9.044579E-4
-0.0021710582
-0.0015536452
-4.3921077E-4
-0.002516358
-0.003262408
-0.002036102
-0.0024796946
-0.0041188337
-0.0031246247
6.1632326E-4
0.0017391144
4.867736E-4
0.0015052095
0.0016175942
-0.001052256
-3.96037E-4
0.0027793585
0.0031301547
0.0019748905
0.0017372913
0.003331515
0.0043329466
0.0025062023
0.0019675144
0.002849765
0.0029139372
0.00304267
0.0014170291
-0.002590687
-0.007224161
-0.009391978
-0.0089340685
-0.009228306
-0.007481378
-0.0049458966
-0.004626383
-0.0016098354
8.6600665E-4
0.0017643003
0.006278233
0.007374752
0.004835916
0.0079749385
0.012390097
0.010841825
0.0060715117
0.0019619083
-0.0015264432
-0.0036429267
-0.00246799
-5.3046126E-4
-9.40709E-4
-0.0014182874
5.985923E-4
0.0023176998
1.5764029E-4
-0.0038921514
-0.006451408
-0.006768249
-0.005662
-0.0059981113
-0.0073867333
-0.0063615846
-0.0044357483
-0.0036049217
-0.0018868997
0.0023432318
0.0058457153
0.0042927265
0.0026629744
0.00375669
0.0038251178
0.007787471
0.011901074
0.0069112433
0.0024791192
0.0020807872
-4.9788825E-4
-0.0026212574
-0.003858474
-0.003525414
-0.0018298107
-0.0027362974
-0.0040856875
-0.0042869565
-0.0026070483
1.0590227E-5
-5.379413E-4
-8.88319E-4
3.6626076E-4
-1.5456708E-5
-2.8154225E-4
7.2416E-4
0.0014040684
-9.509191E-5
-0.0017374477
-3.5943973E-4
0.0013983687
0.0022539527
0.003501268
0.0037941297
0.0015313266
-5.09909E-4
0.0015552063
0.002900688
4.5934314E-4
-0.0012246575
-0.0030190158
-0.0036752652
-8.504089E-4
-0.001386566
-0.004551882
-0.0032708116
-4.7412165E-4
1.7127446E-4
9.053053E-4
0.0020791907
7.23835E-4
-0.0019978613
-7.8790676E-4
0.002044995
0.0016685568
0.0012763442
0.0016711666
0.0010415624
0.001786475
0.002747049
0.001826723
0.0012752798
6.890878E-4
-0.0015543294
-0.0021264323
2.5890814E-4
1.9989393E-4
-0.0025412017
-0.003547844
-0.0032786191
-0.002863956
-0.0035192682
-0.003507553
-3.9358612E-4
9.2948065E-4
0.0011259007
0.0032947476
0.0042323875
0.005019904
0.00431817
-2.5559586E-4
-0.0028954572
-0.0017366069
-0.0014249536
-0.0023593914
-3.3035432E-4
0.0027643377
0.0026416755
0.0020948693
0.0025152664
0.0030094655
0.004470967
0.0060180523
0.0026449729
-0.005865221
-0.0077148858
-0.0043486482
-0.0057146973
-0.0058731255
-0.0046042865
-0.003386373
-0.0011001886
-0.002128201
-1.3719848E-4
0.0010217993
-0.0017817654
0.0027058735
0.005119215
0.00530337
0.008646039
0.002910794
1.0657463E-4
0.005755179
0.0030261788
-0.0037800195
-0.0051008654
-0.0018888898
-4.1538375E-4
-6.8973965E-4
0.002898823
0.0042836694
0.0038922057
0.00502985
0.0027438365
2.5259977E-4
-0.0025108093
-0.0064724297
-0.0068665845
-0.0052444823
-0.0031881377
-0.0023933735
-0.0028903233
-0.0016647037
-3.585352E-4
1.2285035E-4
-0.0013903457
-0.0038223732
-0.001558792
0.0031883928
0.005405596
0.0055793836
0.0029336442
-0.0032296793
-0.005869464
-0.001081447
0.0019531245
-9.943654E-4
-0.0035499618
-0.0018480028
0.0032793619
0.006033365
0.003397105
8.0588367E-4
5.889067E-4
-7.0774613E-4
-0.0031120214
-0.0019151708
0.0018275897
0.0023926152
0.0025197864
0.004871296
0.005485179
0.0059757223
0.005296832
-0.0020236666
-0.0061817025
-9.7038544E-4
0.0018690808
0.002083293
0.0036674049
0.0011434532
-0.0014646138
-0.001240924
-0.0028222192
-0.0062073423
-0.009525658
-0.007936184
-0.0028635552
-0.0022406753
-0.0040284605
-0.0030124376
0.0011178358
0.002959663
6.732026E-5
-2.8763088E-5
0.0014746465
-9.782874E-4
-0.0027530612
-0.0023533304
-0.0017171355
8.6530513E-4
0.0035145737
0.002490333
0.0017428941
0.0040013846
0.0056031425
0.008165926
0.008598679
0.0011610425
-0.0043787695
-0.0031506272
-0.0022707707
-0.0020952176
4.126645E-4
0.00309424
0.0012495205
-0.0020684993
-0.0028675806
-0.0036527927
-7.425124E-4
0.005575881
0.008139385
0.007581489
0.0046605323
0.0020699366
0.003616025
0.0027324795
-0.004748099
-0.012661249
-0.015828783
-0.014980433
-0.011452219
-0.007199297
-0.005183007
-0.002918017
3.89617E-4
0.0031798317
0.008322415
0.011972285
0.009799343
0.005980565
0.0012194908
-0.0037288342
-0.0037561976
6.523411E-4
0.0026947933
0.0019870496
0.004884872
0.008397345
0.0071781757
0.0037928107
0.0023173634
0.005861351
0.0071563544
-3.0081926E-4
-0.0077205608
-0.010659493
-0.010097443
-0.0065667154
-0.0037951553
-0.0026889322
-0.005120106
-0.00817143
-0.0065395893
-0.0058856467
-0.0068505183
-0.0041668043
0.0013310633
0.005680121
0.006235301
0.009223057
0.015040259
0.01618986
0.016178414
0.0140947355
0.006426404
-2.4513973E-4
-0.0062190006
-0.011864543
-0.011784853
-0.0089329975
-0.0064137485
-0.0032168357
-0.0018170357
-0.0031082248
-0.003938679
-0.0024051215
0.0011309936
0.004119442
0.005429226
0.007192178
0.0034572084
-0.010194163
-0.020586666
-0.022922076
-0.023684934
-0.015568365
0.0037252489
0.020684447
0.026169235
0.023168191
0.020930491
0.01924483
0.015483458
0.012862429
0.0034356108
-0.013066512
-0.021486534
-0.023428077
-0.023840545
-0.017965345
-0.0127893435
-0.0133207105
-0.009062428
0.0029020577
0.013561077
0.019108359
0.021309655
0.021487061
0.020308996
0.01435269
5.3416134E-4
-0.012431999
-0.011231433
-0.0023683482
-0.0024223267
-0.0049651433
-0.0027867442
-0.0021194054
0.0042765364
0.0141030885
0.014832828
0.012859872
0.008356694
-0.003198234
-0.015860638
-0.025160974
-0.025608884
-0.024562461
-0.02963342
-0.031342436
-0.032280583
-0.03167184
-0.02286627
-0.014637581
-0.0041979104
0.011200377
0.027001832
0.04612238
0.060016714
0.06968096
0.08093037
0.08017653
0.06828748
0.045975376
0.007613999
-0.028791718
-0.05497078
-0.070814006
-0.06373769
-0.044004757
-0.02944432
-0.015971014
-0.01062056
-0.020945137
-0.021674018
-0.0029065206
0.015180397
0.02370797
0.018089777
0.00494388
-0.007170377
-0.032322414
-0.06372573
-0.077224165
-0.06398179
-0.033104356
-0.0010391506
0.039575927
0.07782773
0.100160494
0.13387643
0.15094642
0.11445619
0.061891664
0.027067209
0.0117394375
-0.02215027
-0.081829764
-0.10969617
-0.1080299
-0.09188488
-0.06581611
-0.08142205
-0.11605889
-0.10040261
-0.035789512
0.043054778
0.098530784
0.11136398
0.074767224
0.008404576
-0.027338743
-0.03417966
-0.045887575
-0.02024138
0.05801399
0.11117375
0.09368442
0.04118802
-0.01016524
-0.0411568
-0.019287284
0.056141954
0.1181696
0.10560591
0.04510514
0.017171081
0.020597551
-0.051965658
-0.16597071
-0.13766085
-0.041814078
-0.07909886
-0.16441603
-0.17043565
-0.11799307
-0.058741145
-0.04731013
-0.023800677
0.067389004
0.14761487
0.21217614
0.26370278
0.24632785
0.1938531
0.122755304
0.009327531
-0.08524243
-0.106287055
-0.08864444
-0.051963642
-0.004147792
-0.02772946
-0.10085006
-0.10449317
-0.07727437
-0.06687601
-0.042694617
-0.028485933
-0.020541409
-0.019322388
-0.06414441
-0.12030765
-0.11849914
-0.051621165
-6.5865583E-4
-0.0073203174
-0.0019994604
0.04849895
0.11022288
0.15302531
0.17961712
0.20810354
0.21978034
0.19515882
0.14275624
0.09246259
0.061287142
0.016285773
-0.046471726
-0.102602266
-0.1356949
-0.12988393
-0.13105755
-0.15584789
-0.14292532
-0.1135148
-0.119399406
-0.11379628
-0.07787032
-0.075902574
-0.09223961
-0.06669469
-0.020053355
0.026374642
0.058818612
0.07782492
0.11097508
0.11407761
0.08033921
0.06211013
0.048772518
0.044223834
0.03897833
0.011158302
-0.0011234565
0.004214013
0.029244298
0.09752274
0.17103823
0.20233373
0.17767751
0.116380244
0.015986364
-0.13724
-0.24658424
-0.22460993
-0.14283238
-0.09753429
-0.083045244
-0.04997228
-0.01140949
0.003530868
0.022647623
0.043994658
0.035477046
0.012087125
-0.017533397
-0.053612806
-0.06248334
-0.044359546
-0.030785678
-0.016831048
-0.0017798016
-4.008099E-4
0.0031840564
0.021619787
0.040800363
0.055878546
0.06864289
0.070152834
0.05959367
0.043978497
0.023103744
0.004660079
9.620979E-4
0.0070918966
0.010776423
0.01076628
0.010143342
0.0073263803
0.005716232
0.0057272534
0.0017253562
0.0012784544
0.0013756166
-0.009110545
-0.016073007
-0.015034496
-0.01532259
-0.012445014
-0.0099061765
-0.012834514
-0.01568938
-0.019122815
-0.023908753
-0.027306434
-0.02908656
-0.028297221
-0.025484689
-0.021977365
-0.018223053
-0.014128898
-0.0064802133
0.0020151765
0.0066001085
0.01178655
0.016623888
0.017110012
0.016856786
0.01606058
0.016290767
0.017695583
0.0153265195
0.013376405
0.013332605
0.011556958
0.010046252
0.008150966
0.006072599
0.0054527367
0.0040430566
8.8805635E-4
-0.0020035496
-0.0018704995
-0.0020941761
-0.005524837
-0.006652397
-0.0053256946
-0.0045689684
-0.0027142393
-7.8828254E-4
1.0553195E-4
0.0011705116
4.7849788E-4
-0.0037490427
-0.0075547574
-0.008202626
-0.008165006
-0.006790134
-0.004614564
-0.0052604266
-0.0052420036
-0.0017898708
0.0017202669
0.0031335605
0.0024185118
0.0020310455
0.0038706893
0.006369478
0.0071104732
0.005597432
0.0033521568
-5.1148125E-4
-0.004108167
-0.0031630502
-0.0018202779
-0.0032551035
-0.004545936
-0.0038031416
-0.0013100791
-4.758849E-4
1.2957498E-4
0.002667539
0.0020986395
-6.36979E-4
-0.0013157597
-2.0210808E-5
0.0016802589
3.2227507E-4
-0.0026369474
-0.0039695236
-0.0039535314
-0.0031381124
-0.0019073377
0.00185189
0.0044605946
0.0026888754
0.0032610195
0.004939424
0.005334739
0.0067778546
0.006040132
0.00555558
0.0060226154
0.0033775265
0.0011735759
-6.9897296E-4
-0.002812091
-7.621384E-4
0.0017720528
-4.0651695E-4
-0.0028117606
-0.0025476173
-0.003953842
-0.004272269
-7.193516E-4
5.7248468E-5
-0.0019057143
-0.0041800546
-0.005820972
-0.0035134165
-0.0021330682
-0.0031477327
-0.0019886168
-0.0012967618
-0.00228318
-0.0037740017
-0.0028412826
0.0013690747
0.0015021699
6.6295837E-4
0.003681674
0.0031707506
0.0020194966
0.0038398195
0.002403657
3.7093443E-4
9.0224354E-4
0.0016065846
0.0016447913
2.2770707E-4
-5.9938664E-4
-0.0018365366
-0.0040197116
-0.0025883482
-0.0014672372
-0.0010502727
0.0024539258
0.00233111
6.373525E-4
0.002047498
0.0015807628
0.0018204506
0.0027354774
3.9118057E-4
-1.8575657E-4
0.0012770873
0.0014408312
7.663036E-4
-8.2707213E-4
-0.0011294374
-2.7884965E-4
-3.0852063E-4
8.890765E-4
0.0014609382
-2.593448E-4
1.5456235E-5
0.0016237568
0.0014563408
1.975159E-5
-0.0013410659
-4.3383415E-4
4.948553E-4
-0.0014863749
-0.0028202638
-0.002486764
-0.001900341
-0.0013459333
-0.0013948556
3.5204054E-4
0.002765169
0.0023508023
0.0010644859
2.484992E-4
-3.0839685E-4
-5.733535E-4
-0.0013395346
-0.0032987047
-0.005721707
-0.004533497
-7.246944E-4
3.533747E-5
-4.8374227E-4
1.0940852E-4
2.6091596E-4
2.7010147E-4
-5.455254E-4
-0.0013905965
3.9427282E-4
0.0016557206
8.4845E-4
0.0012971526
7.451671E-4
-7.694817E-4
0.0011316583
0.0024766433
0.0012793007
7.3375413E-4
-1.1501308E-4
4.894267E-4
0.0020084723
9.656809E-4
0.0010048425
0.0014698379
-0.0015629975
-0.0035414624
-0.0014727607
5.5874174E-4
-6.427932E-4
-0.0022918184
-0.0014502683
-0.0012336713
-0.002109055
-0.0010208788
3.416039E-5
-6.057144E-4
-0.0011020313
-6.9267047E-4
6.6108984E-4
0.002211266
0.0021504483
4.961097E-4
-0.0012192967
-0.002488951
-0.002400807
-3.810228E-4
0.0010692137
9.595726E-4
0.0012383643
0.0017495308
0.0013439861
2.6694714E-4
-1.08327324E-4
0.0011084386
0.0017862389
7.0073036E-4
7.714641E-5
5.2590517E-4
-1.6756656E-5
-0.0013249117
-9.230138E-4
6.74217E-5
-2.2595703E-4
2.868974E-4
0.0015952989
9.1625465E-4
-7.539286E-4
-7.677935E-4
-3.4497186E-4
-2.321599E-4
8.125352E-4
-1.3208592E-4
-0.0035358488
-0.0039124917
-0.0011873131
-0.0011140122
-0.0038797772
-0.0024772673
0.0012082816
5.5174377E-7
-4.613927E-4
0.0025159519
0.0036925573
0.0030418125
6.96055E-4
-4.065905E-4
7.084708E-4
-4.9631537E-5
-7.11197E-5
0.0013521138
0.001873542
0.0024821851
0.0028763423
0.0021927522
-3.6490976E-4
-0.0017212214
-5.376168E-4
-7.555409E-5
6.945133E-4
3.9773257E-4
-0.0012507851
-0.0011820692
-0.0011522945
-0.00100813
-0.0012225523
-0.001516082
-4.2712246E-4
-0.0013509706
-0.0016146216
-2.704153E-4
-5.2242266E-4
3.6021063E-4
4.8661832E-4
-7.047475E-5
5.2488665E-4
-5.2703737E-4
7.0293294E-4
0.0029307352
0.0015096513
8.0847857E-4
5.271942E-4
-0.0013415974
-0.0027038981
-0.002060448
8.435114E-4
0.0022401062
5.1741453E-4
-0.0022172753
-0.0034044436
-0.0010089854
0.001018114
0.0013740354
0.00188725
-7.1657344E-4
-0.0032669
-0.0010730015
0.001658124
0.0026313902
0.0022715186
0.0016392728
0.0014121975
-2.3696407E-4
-9.4800926E-4
-2.86144E-4
-0.0013341203
-6.116768E-4
0.0023126395
0.0035805057
0.003308395
0.0012312152
1.9551998E-4
0.0015787754
-3.0812403E-4
-0.0035083818
-0.0032131139
-0.00220742
-0.001257052
-1.8672798E-4
-2.7818137E-4
-7.8230153E-4
-0.0019067028
-0.0024681538
-0.0013106784
-5.4962706E-4
-6.43673E-5
1.8675503E-4
-8.463275E-4
-7.637844E-4
8.6661585E-4
0.0010193445
-1.1097222E-6
-3.827165E-4
-5.984846E-4
-3.1376912E-4
4.4281004E-4
5.8025797E-4
6.5972854E-4
-7.565813E-5
-6.431277E-4
0.0014152029
0.0040027816
0.0058893426
0.0036692654
-0.0027377077
-0.0031236988
-5.3703436E-4
-0.0021344086
-0.0015791822
1.6032906E-4
5.856751E-4
0.0020593768
0.0024105848
0.0021206422
1.5769614E-4
-0.002426619
-3.061752E-4
0.0022749184
0.0020374358
7.9695875E-4
-0.0015940253
-0.0033611595
-0.0044485475
-0.004495035
-0.0022313881
-8.346249E-4
-6.2388333E-4
0.0013214572
0.0033206693
0.0018430906
-0.00103688
-0.0015963129
-8.788566E-4
2.0097285E-4
0.001301536
0.001935368
0.0019336176
5.5814534E-4
9.454554E-4
0.0020346034
4.002537E-4
-3.5227224E-4
-5.9700967E-4
-3.803536E-5
0.0018572805
1.08897126E-4
2.40315E-4
0.0029682005
2.2782851E-4
-0.0014007158
-2.593423E-4
-0.0017958321
-8.7951316E-4
1.2511059E-4
-0.003055484
-0.003560096
-0.0018233734
-0.0015437896
9.177526E-5
0.00194994
0.0022569278
0.0020292657
8.7538216E-4
3.865213E-5
-1.9066257E-4
-5.989781E-4
-6.622566E-5
4.0914683E-4
-4.128199E-5
-3.9707313E-4
-4.9481064E-4
-4.5922163E-4
1.430732E-4
0.0016404988
0.0012312509
-0.0012651789
-0.0013775809
-6.597417E-4
-0.001383993
-7.716349E-4
9.02449E-4
8.5432094E-4
3.968284E-6
0.0010910013
0.0014350709
-4.5954857E-5
2.6298061E-5
-5.1290315E-4
-7.06208E-4
0.0011210743
0.0014719025
0.0023804707
0.0015263134
-0.001983082
-1.6332389E-4
0.0026779817
0.0016281116
7.053612E-4
-0.0013812189
-0.003692
-0.0026174386
-8.6750963E-4
-0.0022310715
-0.0038171827
-0.0010623436
0.0020092737
0.0017337624
0.0012344341
0.0011648367
1.7824012E-5
-8.101116E-4
1.1724597E-4
1.3611578E-4
-0.0011938899
-8.9776656E-4
-3.503247E-4
1.9527951E-4
0.0012958933
4.3447217E-4
-6.023404E-4
-6.290283E-5
-1.8152152E-4
-3.4515018E-4
5.1736715E-4
0.0010257135
0.0017650769
0.0024136405
7.5373397E-4
-2.4850955E-4
-4.1888363E-4
-0.0021964693
-8.212067E-4
0.0012487584
-4.4925796E-4
7.8499164E-5
0.0018090055
9.917336E-4
6.392633E-4
0.0012449954
0.0021817777
0.0021035064
-1.6956337E-5
-0.0016837496
-0.0022971346
-0.002898846
-0.0029614528
-0.0019059707
-3.7146725E-5
0.0014641205
7.1467366E-4
-0.0011348607
-0.0012855742
-0.0011028892
-0.0014665154
-0.0014702682
-9.528758E-4
-3.3079556E-4
-7.3439186E-4
0.0010740109
0.0041669146
0.0030359775
0.0014266474
0.0015931714
0.0019968804
0.0024683264
2.575428E-4
-0.002166894
-0.002160212
-0.0011881096
-6.510564E-4
-0.0020066223
-0.0010823244
6.863097E-4
-6.799286E-4
0.0013346442
0.003708551
7.4585003E-4
-1.893842E-4
0.0017305174
9.2890696E-4
-9.137752E-4
-0.0012324379
-0.0019836964
-0.0022890102
-7.0721586E-4
-2.569755E-4
6.854649E-4
0.0023920566
0.0012609216
4.4622496E-4
0.0010734707
0.0013445008
7.6674536E-4
-0.0014697358
-0.0021764848
-0.001379884
-0.0015827724
-0.001739655
-0.0014896627
3.436535E-4
0.0017274296
7.9152273E-4
-2.4178758E-5
-0.0020008315
-0.0024941484
0.0010814768
0.002334168
7.245092E-4
2.1688148E-4
8.5778086E-4
0.0017797942
0.0012468736
2.2450939E-5
-3.7837573E-4
2.6467344E-4
0.0015747906
-3.8475267E-4
-0.0027463664
-2.6509919E-5
0.0010602699
-9.5155835E-4
-5.392892E-4
4.672069E-5
2.795805E-4
2.3148292E-4
-4.6910264E-4
0.0011596183
0.0018873316
4.738002E-4
-1.1544193E-4
-0.0011171914
-4.041062E-4
0.0015902685
5.9712154E-4
-7.062868E-4
7.0472226E-5
0.0011478192
4.6018074E-4
-0.001030255
-7.643716E-4
-7.290921E-4
-7.820506E-4
-9.359561E-5
-0.0014234699
-0.0016450972
-5.2574626E-4
-0.0016984675
-7.160761E-4
0.0020581644
0.0021665413
0.0011109111
-5.429664E-4
-2.3584855E-4
0.0016360758
-3.3280553E-4
-0.0016932805
1.5218675E-4
1.8831302E-4
-1.4694342E-4
5.247178E-4
7.3978794E-4
8.8833174E-4
7.8939734E-4
-3.113861E-5
-0.0012833261
-6.611341E-4
0.001152714
8.460132E-4
-3.4974446E-4
-8.174986E-4
1.0361868E-4
6.2794785E-4
-0.0013531665
-0.0021732375
-9.794261E-4
6.6222454E-4
0.0014659145
-1.5956665E-4
-5.168334E-4
7.049758E-4
9.3186134E-4
7.706284E-4
3.7585633E-4
9.913946E-4
5.327271E-4
-6.046924E-4
5.109168E-4
4.6923995E-4
6.7128876E-4
0.0010322232
-7.080775E-4
-5.2519044E-4
-6.2126917E-4
-3.6088904E-4
0.0017217923
3.1842737E-4
-8.7936314E-5
0.0010327678
-0.0017344891
-0.0028355068
-2.0719928E-4
0.0015827785
0.0015544872
-2.7739318E-4
-0.0032239931
-0.0021536031
0.0016865076
-0.0012657604
-0.0053477488
-0.0029547971
-7.4812927E-4
0.0018566607
0.0041465308
0.0023514095
0.001977964
0.0015371287
-6.101338E-4
-1.14258655E-4
5.439305E-4
-1.7682496E-4
-1.5265075E-4
4.1485185E-4
4.2323198E-4
8.332378E-4
0.0016932121
3.5634803E-4
-4.9013976E-4
5.643828E-4
-2.3803202E-4
-4.452732E-4
6.3462724E-4
-4.3108762E-4
-8.653025E-4
-7.936317E-5
-0.0014763192
-0.0020426873
2.4163659E-4
2.8777862E-4
-0.0014613392
-5.3191767E-4
5.7953084E-4
4.0903428E-4
0.0016226936
0.0022390366
-3.1285276E-4
-0.002631065
-0.0020615426
-6.934892E-5
0.0017794826
0.0015132986
7.2821655E-4
0.0020679394
0.0017664599
-5.619001E-4
-0.0014462431
-3.7468653E-4
0.0015955435
8.0539886E-4
-7.983459E-4
-5.379695E-4
-0.0013468931
-0.0011116461
-9.269066E-4
-0.0015168744
4.8786777E-4
4.4194667E-4
-7.030234E-5
0.0014066674
8.3717477E-4
0.0013026156
3.9875283E-4
-0.0028091525
-0.002462048
-0.0021754373
-0.0018994056
6.0251954E-5
3.8912205E-4
0.0017592937
0.0034821888
0.0024419865
5.648474E-4
-0.0010415417
-0.0015879249
-0.0015316511
-0.0019897383
-0.0011887745
0.0012276951
0.0016208201
-4.6304552E-4
-6.2757963E-4
0.0010434934
0.0021510546
0.002401
0.0015873605
0.00206266
0.002485826
-4.4077093E-4
-0.0018371964
5.2159745E-4
0.0013096839
-3.0246458E-5
1.6700473E-4
3.562381E-4
-5.1998784E-4
5.578893E-4
5.3208106E-4
-0.0017132228
-0.002225176
-0.0032618903
-0.0036432822
-8.633714E-4
3.68093E-4
-8.3927263E-4
-0.001510939
-1.6188891E-4
1.0998703E-4
-0.0028009801
-0.002815064
-2.4598272E-4
4.6883596E-4
0.0014318961
0.002027735
0.0013947971
9.4118074E-4
0.0013348358
0.0031500114
0.0028816857
6.418722E-4
9.5849246E-4
0.0017253775
6.431586E-4
-3.9817978E-4
-4.1557528E-4
6.0749624E-4
0.0014384434
7.3343155E-4
-0.001157446
-0.0025432317
-0.0016084836
2.515922E-4
6.629977E-4
2.428646E-4
-5.74909E-4
-9.227144E-4
1.1053395E-4
1.1453197E-4
-3.8787143E-4
4.790284E-5
-9.133942E-4
-0.00120642
-1.2054189E-4
-0.0010580976
-0.001326947
-1.8574846E-4
-1.7396655E-4
-3.4675334E-4
-6.3683966E-4
2.4810227E-4
0.0014470244
3.4437233E-4
3.160253E-4
7.9380244E-4
-3.1805536E-4
-1.7474177E-4
-7.208955E-4
-0.0017944212
7.8894256E-5
0.0017765563
0.0012683764
2.1455328E-4
-5.001523E-6
6.506074E-4
0.0010640159
0.0022998468
0.0024075827
8.4547355E-5
-6.59899E-5
8.4198156E-4
5.4905174E-4
3.067959E-5
-0.0014135359
-0.0010794403
-8.557301E-4
-0.003705194
-0.0038565823
-0.0013788454
5.624198E-4
0.0013037202
-8.0327946E-4
-0.001058089
0.001075878
-2.6037428E-4
-0.0020605202
-5.2310694E-5
0.002647268
0.001953308
-6.35324E-4
-8.242359E-4
0.0017253737
0.0032711008
0.0010208868
-2.7251514E-4
7.822702E-4
-0.0010513902
-0.0013991114
0.0010265607
0.0015161702
0.0025419684
0.0017247383
-0.0011969166
-5.3504057E-4
0.0012777767
8.778612E-4
-0.0025908905
-0.005461766
-0.0032930956
-7.217544E-4
8.893734E-5
2.1909454E-4
-4.3693036E-4
4.1748444E-4
0.0016268248
0.001033047