-0.002621445
-0.0035970649
-0.0032026842
3.288759E-5
0.0032591077
0.0040459926
5.9050083E-4
-8.3152484E-4
0.0010924785
5.820257E-4
9.824793E-4
0.0024285398
0.0012766813
9.805129E-4
0.0015442147
0.0021429022
0.0023816873
-2.4097066E-4
-5.749821E-4
0.0021535524
0.0017190258
-4.506426E-5
-7.3133607E-4
6.644395E-7
3.572248E-4
-0.0020622585
-0.0018061653
1.5839175E-4
-5.2267185E-4
-9.464758E-5
-3.662202E-4
-0.0018976345
-0.0017164237
-0.0019149705
-7.591558E-4
0.0015082443
0.0011967674
4.20062E-4
0.0011893469
0.0017449625
4.65343E-4
-0.0012583456
-0.0026208311
-0.0027140367
-6.042694E-4
-3.5304492E-4
-0.0014010393
-0.0011036512
-3.5505323E-4
0.001364397
7.978955E-4
0.001222158
0.0041165147
3.8450733E-5
-0.0027570922
0.0011994811
8.237988E-4
6.858652E-5
0.00209907
0.0010641303
-7.0361496E-4
-2.8328924E-4
8.937542E-4
3.7812442E-4
-4.0083576E-4
-1.176428E-4
-8.616789E-4
-7.731457E-4
8.50527E-4
0.0017691429
7.152547E-4
-8.160525E-4
-5.522575E-4
-0.0021489738
-0.0029797587
5.0532166E-4
1.00085585E-4
-0.002215769
-6.211485E-4
7.014274E-4
0.0011902199
4.7523226E-5
-0.0014300994
7.2533934E-4
0.001702306
4.2838667E-4
3.037873E-4
1.7668977E-5
7.5554533E-4
0.0015868363
5.311999E-4
0.0012341314
0.002199248
9.9831166E-5
-0.001600419
-0.0013984767
-0.0012408568
-0.0015522412
-0.0012648444
-2.703976E-4
3.1715463E-4
7.6779415E-4
1.2137347E-4
-8.2110317E-4
6.331857E-4
3.981295E-4
-0.0015911361
5.649465E-5
0.0012197992
-3.501121E-4
2.6839587E-4
0.0015381819
9.941999E-4
7.067382E-4
-3.821217E-4
-0.0018071964
-3.9432556E-4
3.9085242E-4
-5.152443E-4
5.7261734E-4
0.0013874795
0.001684354
0.0021188657
2.53806E-4
-6.5999787E-4
1.2194356E-4
-5.5431674E-4
-0.0010915225
-7.57609E-4
-2.7791032E-4
3.7553214E-4
1.2536156E-4
-9.594563E-4
-0.0016879992
-0.0019294777
-0.0018778986
-0.0021462503
-0.0028801695
-0.0014958426
7.375265E-4
9.5827976E-4
0.0024437006
0.0022112343
-0.002611436
-0.0028738577
0.0019169091
0.0035738107
0.0014498367
-0.0010313088
-7.9102756E-4
0.0016902117
0.0027148963
0.0015279715
0.001158867
0.0019825827
0.0021229957
0.002866624
0.0028573314
0.0013408363
0.001409505
0.0025561529
0.004317134
0.002610484
-0.0052321167
-0.009892654
-0.007473536
-0.0033241254
-0.0013126112
-0.00127451
-5.418651E-4
-7.6252234E-4
-0.0019761787
-0.002516696
-0.0027642655
-6.8685337E-4
7.3258365E-5
-0.0018876991
-5.558739E-4
0.0011290207
-3.1045658E-4
-5.676174E-4
0.0018583998
0.0038604946
0.0038429522
0.0034708274
0.0024942888
8.1857096E-4
1.2895204E-4
4.7793752E-4
0.0021383031
0.002986063
0.0013119606
7.421717E-4
0.0021110245
0.0014264062
-0.0012794838
-0.0020627517
-0.0021624125
-0.0021810054
7.4500096E-4
0.0017622724
2.9644125E-5
2.6695456E-4
-0.0014602481
-0.003541891
-0.0015372861
-0.0010700657
-0.0019177516
-6.785396E-6
0.0012319125
3.3722867E-4
-8.4842235E-4
-0.0016099536
-9.183318E-4
-7.408948E-5
-7.53172E-4
-6.405796E-4
5.2497507E-4
-4.0577623E-5
-0.0015365897
-0.0017721792
-9.999878E-4
3.4105754E-4
0.0018630921
0.0018995953
0.0011933562
0.0014197512
8.8739995E-4
2.3363775E-4
0.0010616492
0.0015755224
0.0014422293
0.001113221
4.7795806E-4
-0.0013768361
-0.003315297
-0.0011158533
0.0019252872
0.001597147
7.1634783E-4
-4.8685737E-4
-0.0013921348
-2.2477646E-4
0.001273145
0.0010050125
-2.669301E-4
7.0429075E-4
0.0014444
4.471582E-4
7.388886E-4
-4.3826585E-4
-6.9898035E-4
5.585945E-4
-0.0023029393
-0.0023998928
2.5629875E-4
-0.0014025475
-0.0018797541
-7.848788E-4
-0.0010406352
-0.0013259656
-7.2151E-4
0.002164065
0.001978406
-0.0012932529
-0.0015576397
-0.0018906132
-0.0019818828
-6.4414385E-4
-6.1839656E-4
2.1221995E-4
0.001328196
0.0021929867
0.0031587747
0.0016963665
-2.7079659E-5
3.175524E-4
0.0019886286
0.0031147064
0.0029881832
0.0042176284
0.003358063
-0.0010577586
-0.0022366291
-0.0018589428
-0.0033051858
-0.003021697
-0.0011263319
-2.2699345E-4
-8.574495E-4
-7.60938E-4
0.00170037
0.0020671599
-0.001562302
-0.0034453524
-0.001343414
1.00128145E-5
-0.0016643651
-0.0030831078
-0.0022757715
-7.917759E-4
0.001231484
0.002830266
7.676649E-4
-9.512112E-4
0.0011844027
0.0014200027
5.894193E-4
0.0017202558
0.0014604897
0.0012949329
0.001447393
5.2897475E-4
7.843672E-4
9.796194E-4
7.274471E-4
1.1880677E-5
-0.0011887983
-0.0012838604
-0.002129092
-6.874282E-4
0.0025310258
2.4398736E-4
-0.0015725896
4.888481E-4
1.2693933E-4
-0.0012828753
-0.001489102
-4.05392E-4
1.0980149E-4
-0.0011616675
-8.425736E-6
8.778049E-4
-8.108157E-4
-6.006831E-4
-4.239904E-4
-2.0364005E-4
0.0010539955
-5.7502475E-4
-0.001123517
0.0013666949
0.0012422848
-2.0251597E-5
8.8829605E-4
0.0017449573
0.0011252465
5.348103E-4
2.2653952E-4
-8.3990576E-4
-0.0012876944
-0.0016938385
-0.002657305
-3.3849452E-4
0.0017459934
-5.526391E-4
-7.871663E-4
0.0010960179
9.950233E-4
0.0011272733
0.0011172298
0.0017581065
0.003446017
0.0024484163
6.2463066E-4
-0.0012026182
-0.0025994298
2.646737E-4
0.0018203614
-0.0019098759
-0.004232177
-0.002124404
9.248718E-4
4.7268343E-4
-0.0014428443
-5.200134E-4
9.510789E-4
9.790553E-4
-0.0012619453
-0.0038070697
-0.002587326
-0.0010773562
-0.002047692
-0.0029136275
-0.0013071374
0.0012926911
5.0911005E-4
1.0953323E-4
0.0019574445
0.001931072
0.002339703
0.0028132412
0.0037908761
0.006072216
0.0048115803
0.0039905906
0.0038655018
-4.6591615E-4
-0.003542517
-0.0031793162
-0.0015901462
-0.0013465254
-0.0033810548
-0.0036201999
-0.003051539
-0.0020455634
9.792905E-4
0.0031947233
0.0025353918
-0.0010090882
-0.002090564
3.7852375E-4
0.0014766878
7.342521E-4
-0.0040187533
-0.0071722935
-0.0040673255
-0.0029906055
-0.001120083
0.0023655675
0.0017313582
0.003270719
0.005548097
0.0033596288
0.0011792606
0.0013466213
0.0024463944
0.0015748468
-1.7750912E-4
-1.0134161E-4
1.892401E-4
-0.001322803
-0.0042909826
-0.0034166304
1.880508E-4
5.603881E-5
-4.6937243E-4
0.0010101771
0.0016349544
-6.4757376E-5
-0.0014498413
7.3656405E-4
9.735953E-4
-9.4048056E-4
-3.7075242E-4
-1.375025E-4
1.363098E-4
-6.74416E-5
-6.6497596E-4
2.9581526E-4
-4.911575E-4
1.5920751E-4
0.0015309735
3.3434413E-4
0.0028701457
0.0034556577
-0.001749488
-0.0025878814
-3.6902036E-4
2.8769125E-5
0.0012516183
0.0023734947
8.586782E-8
-0.0021394906
-9.1466674E-4
-0.001266055
-0.0021063848
-0.0020334946
-0.0032696058
-0.0017259653
6.523555E-4
0.0019642946
0.0030983018
8.2315435E-4
5.8300415E-4
0.0016832727
-5.420314E-4
1.7924953E-4
8.6997484E-4
-0.0017728675
-0.0021780531
-3.55183E-4
3.0875392E-4
-7.1007793E-4
1.206018E-4
-2.8901626E-4
-0.0028856753
-3.6403093E-5
0.0017841072
2.0369505E-4
0.0021064505
0.0022525615
0.0015135037
0.0014798109
-0.0014606478
-0.0024915051
-0.0011743089
8.0199394E-4
0.0012461887
-0.0015218745
2.4299236E-4
0.0038560266
0.0033799426
0.0041610105
0.003808077
-1.9822193E-4
-0.00283505
-0.0028003377
-0.0012953085
-0.0015694792
-0.0032006453
-0.0014127329
5.87155E-4
-0.0012327583
-0.0024884269
-9.438584E-4
6.2314805E-4
7.3867786E-4
-8.098539E-4
-7.740987E-4
0.0031600785
0.0043172613
1.4760655E-4
-0.0026640035
-0.002672381
-0.001749518
-6.907023E-4
-4.4257066E-4
7.44198E-4
0.0016158565
5.4146076E-4
1.7174752E-4
-7.529806E-5
3.1774532E-4
8.421243E-4
-0.001672714
-0.0015615987
0.0014191944
-1.6671779E-4
-0.0021657308
-4.2391368E-4
0.0017782882
0.0017449945
-0.0011918709
-0.0017435204
0.0020524366
0.003584066
0.0022457526
0.0014352406
3.3943795E-4
1.6075456E-4
7.8299077E-4
-8.263852E-4
-7.6002773E-4
0.0016115226
2.7542294E-4
-0.0014660506
-3.0838756E-4
4.4695282E-4
5.6355644E-4
1.9447695E-4
-6.669171E-4
-0.0012414841
0.0017756643
0.0059003006
-4.1969758E-4
-0.008994085
-0.0060717245
-7.974693E-4
5.5615837E-4
-3.375912E-4
-0.001466669
1.9948826E-4
6.680686E-4
1.4007455E-4
3.668015E-4
-0.0010177002
-0.0018267701
-0.0024912588
-0.0026550617
-0.0010713262
-8.495603E-5
0.002050943
0.0035901195
0.0020125872
0.0020229858
0.004980747
0.005674883
0.0014955319
-9.001149E-4
3.9380896E-4
4.7913194E-4
0.0015333719
0.0015466237
-6.844834E-4
-6.5984445E-5
-1.0721729E-4
-0.0012355222
-0.0014114516
-0.002663689
-0.0017335408
-5.46755E-4
-0.0016033228
-9.155351E-4
-1.3519284E-4
-6.1386166E-4
-8.451904E-4
-4.355823E-4
1.0454716E-4
-0.0014687418
-0.002054482
-2.2767427E-4
7.288191E-4
0.003500926
0.0044090566
-4.869277E-4
-0.0010813094
5.6507153E-4
-0.003946305
-0.005695052
-0.002490186
-7.4338756E-4
6.6648325E-4
9.2777045E-4
5.755544E-4
8.6772465E-4
7.9927203E-4
0.0019707934
0.0010056498
-5.9478964E-5
0.002673573
0.0011519976
-0.0020896313
-0.0010516974
-1.3035194E-4
7.4654975E-4
4.8614107E-4
9.802462E-4
0.0061713955
0.008053164
0.004354398
0.0019070362
0.002624001
0.0031744477
-9.814078E-4
-0.0070082163
-0.010190362
-0.010217162
-0.0061711045
3.9982473E-4
0.005192344
0.0044928677
-1.3646098E-4
-0.0035078877
-0.0031286026
0.0025980782
0.00569427
-4.8182614E-4
-0.0044942438
-0.0030318242
-0.0018510226
2.2443986E-4
6.8175455E-4
-7.328716E-4
-0.0014275765
-0.0013855527
2.1803692E-4
1.7971291E-4
2.806545E-4
0.0021537829
3.2159087E-4
-2.5829196E-4
0.0015396746
-4.419267E-4
-0.0010813397
2.4523068E-4
6.6630513E-4
0.0018041059
0.0014741478
0.0024306222
0.0054003214
0.0050019315
0.0031984276
0.0016262573
4.0768637E-4
5.167008E-4
-4.0742103E-4
-2.2932459E-4
0.0024399508
0.0023148565
-0.0010477178
-0.0018313926
3.4159914E-4
-6.323466E-4
-0.003375155
-0.0042801662
-0.0066983267
-0.007564064
-0.0052313153
-0.0049828948
-0.0037657798
-0.0011179929
-0.0012280726
-0.0021675737
-0.0025631676
-7.360365E-4
0.0022542651
0.0021211526
0.0018575602
0.0048410054
0.00869385
0.009058662
0.0068187285
0.006872795
0.005155402
3.8708176E-4
-0.0014221198
-0.00250246
-0.0027341633
-3.210847E-4
4.653205E-4
2.4093477E-4
-4.3552418E-4
-0.0015823381
-0.0020791963
-0.0048204656
-0.007217174
-0.006556085
-0.0059691113
-0.0052092997
-0.0034140518
-8.513746E-4
0.001014619
0.0017919369
0.0036593175
0.0047034738
0.0049121487
0.004032742
-3.0422708E-4
-0.0011774433
0.0024012178
0.0033415551
0.0037116008
0.0041537397
0.004347499
0.006161535
0.0030238228
-0.0037261487
-0.004711063
-0.0051928805
-0.007712666
-0.004824713
-0.0016972389
-0.002274813
-0.0010484142
-9.4978204E-5
-3.830081E-4
0.0012230433
0.0050383164
0.009400306
0.009036686
0.0058726575
0.0039138086
4.3224733E-4
-0.0018072849
-0.0021914982
-0.002522515
-7.839643E-4
-2.490273E-4
-0.002434064
-0.0066822777
-0.009721034
-0.0076787993
-0.007569942
-0.008097276
-0.005681279
-0.0063653183
-0.005430684
-0.0030237685
-0.0023309165
0.0017799296
0.0043264013
0.0059776166
0.009286907
0.0076782545
0.0054651755
0.0048509273
0.0045827767
0.008058139
0.009916707
0.008189542
0.0076176287
0.005627415
-0.0011048779
-0.0074838423
-0.008164699
-0.005588504
-0.0014419194
0.0023307092
0.0031807178
0.0027858221
-7.2421134E-4
-0.003138432
-3.6175203E-4
-0.0019678508
-0.0058251666
-0.00395294
-0.0018964832
-0.003929046
-0.007253453
-0.0062196366
-0.0011954977
0.002924575
0.004548628
5.074645E-4
-0.0047906386
-0.0042281095
-0.0016265501
4.600608E-4
-8.4380846E-4
-0.005190337
-0.0038047652
-0.0023756423
-0.00644092
-0.0017241656
0.01295471
0.0219429
0.021757537
0.01943335
0.018391315
0.015418178
0.0080536995
-0.0013417978
-0.008412543
-0.010286898
-0.013650358
-0.020478368
-0.021774165
-0.022114012
-0.02482059
-0.02243694
-0.018464843
-0.013575982
-0.0061282073
-0.0023782563
-2.3336693E-4
0.003692113
0.007784949
0.011982431
0.016719356
0.022879198
0.027356517
0.026286969
0.02058676
0.016256152
0.015330495
0.011939506
0.0123864915
0.018206555
0.014634054
0.0064066267
0.002041534
-0.0052516474
-0.01658821
-0.027245957
-0.031343993
-0.03301321
-0.03993351
-0.041047275
-0.03003689
-0.018961413
-0.014952033
-0.012785172
-0.005675524
0.005609226
0.015953595
0.021400863
0.023416542
0.027101314
0.032457355
0.035946038
0.03497354
0.030599037
0.023512091
0.011442875
-0.003614016
-0.018216992
-0.024695022
-0.018786943
-0.012182283
-0.008131082
-0.0011277181
0.0063729305
0.011523819
0.0083557945
-0.0036925825
-0.01563755
-0.024299432
-0.028399065
-0.022560105
-0.006591562
0.0032728063
-0.0029037287
-0.009695928
-0.008489674
-0.0036419549
0.0018147771
0.005166359
0.0052142623
-0.0031738502
-0.009514235
-0.001979743
0.0014047201
-3.3126157E-4
0.0034041947
0.001266187
-0.0043026158
-0.0046147485
-0.002038255
0.0022004736
0.008291247
0.02112245
0.031997457
0.029292528
0.024160488
0.021755628
0.018049056
0.012858608
0.008068431
0.014745605
0.028519424
0.025122115
0.0014706142
-0.026090823
-0.052089192
-0.070024304
-0.061779242
-0.0371689
-0.025688551
-0.025912926
-0.02462084
-0.015790028
0.0031606616
0.02116632
0.02878052
0.021760032
0.0048260856
-0.0062042815
-0.00821091
-0.001759133
0.012760693
0.036806714
0.07203271
0.09258557
0.08624124
0.06555437
0.035514243
0.010406867
-0.01596952
-0.049206205
-0.06061226
-0.048730295
-0.02964519
-0.015819535
-0.015917823
-0.016197152
-0.0084157195
0.007014017
0.011142424
-0.012731696
-0.040240448
-0.06405213
-0.07665005
-0.06224817
-0.039424054
-0.00907518
0.011144633
-0.0018959942
-0.013949627
-0.022233197
-0.02588041
-5.665972E-4
0.01628827
0.0057452633
0.0044801137
0.031853415
0.08022174
0.12436689
0.1544368
0.1634768
0.11500902
-0.0049953093
-0.14166126
-0.21310729
-0.20193839
-0.13567162
-0.028762914
0.07848986
0.16696203
0.23942128
0.24004705
0.1776175
0.10969432
-0.00803564
-0.15350893
-0.19355492
-0.1299529
-0.08464266
-0.08352366
-0.047625106
0.036188886
0.11211935
0.15591796
0.1460949
0.085952535
-0.026051836
-0.20837854
-0.33079907
-0.2960038
-0.22129112
-0.16414802
-0.091463484
-0.027805023
0.012142939
0.05697305
0.12589924
0.16307577
0.118270166
0.053858686
0.012992111
-0.019524291
-0.018134091
0.028249247
0.074971326
0.1042105
0.13451052
0.15412652
0.1577228
0.18559894
0.23811463
0.23387325
0.11126425
-0.061642297
-0.17091368
-0.1950171
-0.18184298
-0.18039975
-0.17406352
-0.12133198
-0.056811653
-0.024578769
-0.023449183
-0.017412027
0.005324336
1.6821266E-4
0.0041368664
0.04594552
0.04331983
-0.0054962444
-0.059701018
-0.10097541
-0.08452178
-0.043695863
-0.027266387
-0.004449528
0.03397907
0.049567915
0.024612656
-0.010215841
-0.02946422
-0.024815198
0.003315847
0.017771618
0.015987383
0.030173749
0.04815863
0.06803664
0.107432716
0.12750214
0.09124336
0.053748906
0.061406694
0.07730908
0.07227286
0.04879907
0.028805625
0.0029377837
-0.06576716
-0.10776528
-0.08484188
-0.06965255
-0.055962898
-0.037106518
-0.038471207
-0.038575027
-0.061373003
-0.10744489
-0.120612286
-0.10003754
-0.07179839
-0.052368287
-0.035123628
-0.0044664675
0.02630638
0.05132114
0.07271929
0.08611125
0.09269635
0.09148878
0.08535057
0.07427476
0.052225344
0.024776276
0.0048844
-0.0026065395
-0.0069757965
-0.011720675
-0.011312324
-0.00856443
-0.005114672
-0.0031484922
-0.005731335
-0.004558725
0.0028517628
0.0049924776
-0.0011626881
-0.0034315248
6.3651166E-4
0.0014184598
9.1034384E-4
3.692777E-4
-0.0047434857
-0.009030385
-0.013275984
-0.019793842
-0.021872714
-0.023211397
-0.02565875
-0.023858964
-0.022088654
-0.019798972
-0.014251713
-0.00929629
-0.0030662164
0.0021030211
0.003177322
0.004489901
0.005305202
0.0068463515
0.009639738
0.010291961
0.010358821
0.0089624645
0.009239598
0.012230234
0.010482084
0.009514241
0.011305535
0.008096797
0.0051408294
0.0049711443
0.0040004533
0.0051172776
0.007076752
0.00540281
0.0018476313
-5.4795085E-4
-0.00181477
-0.0019877462
-0.0024586509
-0.0039710975
-0.0038680485
-0.0039005235
-0.005016102
-0.0045308555
-0.004828684
-0.00558804
-0.004340926
-0.0027529416
-0.0026568517
-0.004233452
-0.0017281364
0.0041781757
0.0039008772
-3.5955574E-4
-0.003685265
-0.005084758
-0.0025954198
-0.0012863103
-0.0020143108
-0.0011006092
-0.001159041
-3.2255022E-4
0.002783241
0.0029068454
4.1691778E-4
-2.6653742E-4
6.389174E-4
0.001040186
0.0017913943
0.0020175197
3.6926268E-4
8.659283E-4
0.0044500483
0.0074751438
0.008135966
0.00603549
0.0017974878
-0.00332216
-0.0054011024
-0.003347574
-0.0021638267
-0.0015482951
-9.835797E-4
-0.003106769
-0.003333875
-0.0010746713
-0.0018804821
-0.0036611347
-0.0025975988
6.371411E-4
0.0022186527
0.0017790061
0.0037773247
0.002942423
-0.0023401936
-0.0022136946
-2.54205E-4
3.2870064E-4
0.0022945236
-4.8724836E-4
-0.0028045273
4.6099845E-4
0.0029663334
0.0052020713
0.0035840557
2.1872956E-4
0.0020150756
-5.6065957E-4
-0.0059100157
-0.004422132
-0.0011368954
6.9018955E-5
-0.0019696134
-0.004819544
-0.0031460538
2.645504E-5
8.315166E-4
1.8112507E-4
8.50949E-5
7.942355E-4
0.0023567954
0.0049153212
0.0056715044
0.004402674
0.002461986
0.0010348072
5.466968E-4
-0.0024309047
-0.005064743
-0.0046587046
-0.0046115816
-0.0030320017
-0.0010922081
-0.0011565437
-5.7076383E-4
-9.3215756E-4
-0.0011589044
0.0014342426
0.0026776863
4.2525484E-4
-0.0014019995
-2.4096754E-4
9.0628886E-4
1.669348E-4
6.1722606E-4
0.0023389175
0.0010241698
-0.0014778535
-7.0932193E-4
1.1121961E-4
0.0012106482
0.0034928105
0.0027422851
0.002510778
0.0017429206
-0.002259391
-0.0024786708
-0.0010571437
-6.5536995E-4
-0.001138913
-0.0043642954
-0.0032378351
-6.3751795E-4
-0.0021347916
-9.464727E-4
0.0010420369
0.0012368537
0.0021775062
0.0028901654
0.0023256042
1.3607212E-4
8.91303E-4
0.003556234
0.0020206836
-1.8961326E-5
-7.472181E-4
-0.0013965048
-0.001199423
1.4469438E-4
0.0030677894
0.002634617
-3.868467E-4
-0.0010531597
-0.002632564
-0.00361597
-0.0017168714
-2.5861838E-4
-9.999935E-4
-0.0033562724
-0.0021048915
4.197103E-4
-7.952444E-4
-2.1747014E-4
8.060157E-4
4.8281337E-4
0.0015002248
-2.5099117E-4
-0.0010604301
8.116536E-4
-4.333496E-4
-5.7353644E-4
-1.2920947E-4
-0.0013821004
-2.598214E-4
-1.6174438E-4
-5.267197E-4
0.0012376067
0.0018595068
0.0023924347
0.0013241743
-0.0010427975
-7.066893E-4
-9.629827E-4
-7.314621E-4
0.001734618
0.0020228345
0.0013920661
7.0450193E-4
-0.0010791454
-0.0016518458
-0.0011913226
-4.0738744E-4
1.3943107E-4
-5.8520853E-4
-5.039E-4
6.1979843E-4
5.512532E-4
2.3079492E-4
-2.1796425E-4
-0.0016108445
-0.0015751139
-9.161283E-4
-0.0017037808
-0.0015738762
-0.0010423047
-5.736287E-4
0.0013308268
0.001788052
0.0011266355
0.0015938064
0.0012934189
6.1562675E-4
2.6261265E-4
1.0494474E-4
2.2631434E-4
-7.1583805E-4
-6.400605E-4
7.171663E-4
1.3883221E-4
9.612862E-5
9.808945E-4
-5.414114E-4
-0.0010524038
8.490859E-4
2.8694715E-4
-0.0013619206
-6.222972E-4
-2.4573863E-4
-7.104615E-4
5.2060797E-5
9.842989E-4
0.0012341671
5.481203E-4
-8.491308E-4
-0.0012622166
1.1660326E-4
0.0020706693
0.0028459681
0.0017706327
-0.0013212084
-0.0032595487
-0.0016379624
-0.0010862281
-0.0010398385
0.0016711697
0.0020300788
-4.5034985E-4
-0.001930571
-0.0016624918
-3.5413457E-5
0.0011053494
0.0018951773
1.5609678E-4
-0.0027180125
2.5809876E-4
0.0020175073
-9.892667E-4
-3.1757634E-4
2.8625884E-4
-0.0011321583
-3.3325018E-4
8.8037073E-4
0.0022359425
0.0010194615
-0.0015841201
9.984476E-4
0.003273139
0.0010833342
-9.195242E-4
-0.0016271395
-2.0981621E-4
0.0011226033
-1.1711946E-4
7.499894E-4
0.0011473822
-0.0019947237
-0.0011247568
5.797413E-4
-0.0028214885
-0.0029855475
9.59079E-4
0.0010020174
-0.0018934265
-0.0020591768
9.6670835E-4
0.0025016204
0.0010845899
-5.0022715E-4
-0.0010108567
-0.0010222265
-8.156229E-4
5.1216857E-4
8.9332357E-4
-3.7493266E-4
2.3375016E-4
1.4908197E-4
-0.00133846
2.9618383E-4
0.0018063734
0.0010391278
0.0014686018
0.0020379848
8.4049033E-4
2.7102366E-4
0.0012405104
8.190123E-4
-8.6902885E-4
-0.001851696
-0.0023425575
-0.0015023699
3.5344402E-4
0.001348256
9.481324E-4
-6.485451E-5
-5.6366704E-4
-0.0010751444
-8.1207696E-4
3.7578962E-4
6.8419497E-4
8.456367E-4
4.3433483E-5
-8.0214377E-4
1.9594467E-5
-9.234374E-4
-0.001977913
-0.0010294274
-5.7797047E-4
6.9328176E-4
0.0019655349
9.6481794E-4
-5.926258E-4
-8.3416374E-4
-7.158667E-5
-4.962214E-4
-7.9849263E-4
-3.8616013E-4
-7.9195376E-4
6.9712393E-4
0.0013137881
-3.8021296E-4
0.0010695372
0.0015076398
-7.5841334E-4
-4.917583E-4
-2.7906915E-4
-3.5319573E-4
8.58605E-4
6.819173E-4
2.507364E-4
1.6501186E-4
-2.9983997E-4
-7.272485E-5
-1.8107306E-5
-5.4689945E-4
-5.5192766E-4
-1.0815934E-5
-2.292151E-4
-1.5792107E-4
0.001231561
3.8969427E-4
-9.066024E-4
1.482927E-4
2.7826766E-4
8.742447E-4
0.0010225578
-0.001269409
-0.0011817898
6.7753484E-5
8.7308063E-4
0.0020046374
0.0012278456
8.140124E-4
-1.0726091E-4
-0.0019018553
-3.187577E-4
0.0011118386
6.4528425E-4
-2.6683198E-4
-0.0013571007
-4.4737727E-4
-9.987982E-4
-0.0023673445
-6.90879E-4
-7.364242E-4
-0.0016990864
-8.685775E-4
-3.489515E-4
0.0011564372
0.0011995439
-0.0010859155
-5.716274E-4
0.001544217
0.002454493
0.0016895032
-8.223883E-5
5.6173398E-5
-1.1098716E-4
-0.0011634127
-2.6105557E-5
-5.326526E-4
-0.00184609
6.345667E-5
0.0014704578
0.0020559845
0.0031764177
0.002502017
9.9309786E-5
-0.0017022361
-0.0024400786
-0.0032809027
-0.0014626732
0.0012269816
6.680722E-5
4.4601798E-4
0.001542069
-2.8296285E-5
5.2324205E-4
0.0011517605
9.756865E-4
3.8529094E-4
-0.0022101828
-0.0021460187
-8.443157E-4
1.5687553E-4
0.0017765041
5.837864E-4
-3.6000545E-4
-0.0012293763
-0.0018182991
0.0014743162
0.0017125211
6.356104E-4
0.002036132
1.00382276E-4
-0.0010873599
-9.871954E-4
-0.0024885493
-0.0011027651
1.4242761E-4
-8.850609E-5
5.3791865E-4
2.3787019E-4
0.0017462958
0.0029266619
-2.9604917E-4
-0.0017170551
-3.4280992E-4
-3.298187E-4
-4.9522746E-4
-0.0010255734
-0.0014169182
-1.1770956E-4
2.1876946E-5
-7.2136446E-4
1.3706165E-5
5.4161734E-4
6.7458506E-4
4.955626E-4
-0.0010028963
-0.0010226587
0.0010095971
0.0015521283
9.057699E-4
6.67312E-4
9.65588E-6
-4.6626406E-4
1.201959E-4
6.504095E-4
0.0010017734
0.0013143981
2.1970621E-4
-2.5078573E-4
0.0022111225
0.0020164018
-0.0024084565
-0.002812492
5.871004E-4
0.0010790078
-5.1534903E-4
-0.002227435
-0.0027566461
1.9438118E-4
0.0025367104
-2.185761E-4
-0.0032299778
-0.0020519542
-4.657237E-4
-2.9214533E-4
8.151257E-4
0.002005297
0.002249926
0.0013985616
-2.3166057E-4
-4.9626053E-4
-5.9424544E-4
-8.812528E-4
9.0516405E-4
0.0023553427
0.0019608936
3.2050724E-4
-0.0023626627
-0.0026262428
-0.0012549189
-0.0012485001
1.2917956E-4
0.001530321
0.0010668655
0.0018843045
0.0011978992
-0.0019642175
-0.0026296456
-0.0017687171
-9.0361317E-4
3.9945595E-4
4.3424085E-4
-2.1357078E-4
6.8631154E-5
0.0012694594
0.0017028361
2.7518917E-4
-5.2113103E-4
0.0012684002
0.0033911765
0.002294362
8.7892433E-4
0.0017911791
-6.014569E-4
-0.0036671674
-0.0017341753
-4.517999E-4
-0.0011363386
-4.5615018E-4
3.5628484E-4
-4.407083E-5
-9.575426E-4
-6.5389805E-4
-7.9209043E-4
-0.001777086
-8.879744E-4
9.926093E-5
7.487537E-4
0.0019443723
0.0017128444
6.651072E-4
9.8016135E-6
1.0623678E-4
0.0010675323
6.5298984E-4
-0.0017694926
-0.0020024832
0.0014352552
0.0021719304
-8.027553E-4
-0.0010599792
7.22235E-4
0.0015584377
0.0016896182
3.446402E-4
-0.0015132765
-0.0025942172
-0.0020594464
1.3890423E-4
4.899444E-4
-0.0010331651
-0.001185465
-4.4584778E-4
6.2964053E-4
0.0013071187
4.189636E-4
2.3803535E-5
-7.908081E-5
-4.7730537E-5
0.0021290877
0.0025203386
8.616497E-4
9.687106E-4
-2.992668E-4
-0.0011944483
4.4149018E-4
-7.454613E-4
-0.00274781
-0.0018351219
-5.8642352E-5
6.383763E-4
-6.6252786E-4
-8.692196E-4
6.1357795E-4
1.4768422E-4
-2.700265E-4
7.3089375E-4
6.9437915E-4
4.189685E-4
4.422172E-4
1.0600001E-4
4.2196593E-4
6.647445E-5
-6.2801305E-4
4.4494687E-4
-6.2574656E-4
-0.0019690508
8.9754065E-4
0.0014988955
4.5205647E-4
9.6860004E-4
-0.0013681545
-0.0015440615
0.0016142806
9.1305043E-4
-7.7908265E-4
-8.4600475E-4
-8.8068075E-4
8.067499E-5
0.0010548175
3.9374456E-4
-4.5847727E-4
2.1672333E-5
3.7230045E-4
4.9342297E-4
0.0011067314
6.2654837E-4
-8.543144E-4
-0.0014944787
1.3985351E-4
0.0014242168
2.686258E-4
2.5789381E-4
5.844274E-5
-0.0014655645
-8.8273693E-4
1.3114764E-4
6.970104E-4
8.847654E-4
2.8645428E-4
8.1429974E-4
3.09823E-4
-0.002344746
-0.003204433
-7.222799E-4
6.581538E-4
-0.001691221
-0.002091584
5.317154E-4
0.002052942
0.0026183857
0.0028315494
0.0030617726
0.0010025072
-0.0022315984
-0.0017752348
-9.825226E-4
-3.095355E-4
6.831898E-4
-0.0010846208
-9.046373E-4
1.3437706E-4
-5.6018523E-4
0.0015159346
0.0023651205
5.0158106E-4
-3.4051566E-4
-0.0015187664
-9.97908E-4
6.077326E-4
1.6241093E-4
4.220588E-4
-5.8180503E-5
-0.0019972988
-0.0010515678
4.6495252E-4
3.8844676E-4
3.9197653E-4
5.0142343E-4
0.0021645396
0.0030139612
9.026006E-4
1.8268276E-4
3.763891E-4
-4.8727836E-4
-0.0010362491
-0.0014886657
-0.0015418779
-0.0012137443
-1.6626123E-4
1.830376E-4
-8.5739174E-4
7.2472526E-6
-0.0012757509
-0.003588395
-3.0257142E-4
4.942613E-4
-0.0019289387
-8.6860365E-4
-2.2055073E-4
9.076403E-4
0.0020244268
5.4566434E-4
0.0014022798
0.0023681675
0.0012683888
0.0016333547
0.0012198257
-4.2767427E-4
-1.9520416E-4
0.0013615654
0.0020973994
0.0020007116
0.0012089813
-0.001301575
-0.0023233467
-7.868501E-4
-4.5896551E-4
-1.8937052E-4
-2.5558835E-4
-0.0016876016
-0.0014915498
-0.0012187819
-0.0012022041
-2.4225983E-5
1.16975825E-4
-2.8227924E-4
-0.0016345156
-0.0029567361
-6.645172E-4
0.0013393409
9.1081014E-4
0.00108121
0.0014539325
0.0011448058
5.045682E-4
9.7617693E-4
0.0014676091
-2.4766168E-5
-4.7914873E-4
-6.4050764E-5
-4.4682188E-4
-5.161723E-6
8.3737186E-4
0.0013420793
-5.3628493E-5
-0.0016327709
-3.8437985E-4
-4.647946E-4
-0.00144572
2.9931575E-4
0.0019330016
0.0014139415
-1.007466E-4
-4.7890667E-4
-9.6994883E-4
-0.0015765376
7.0553593E-4
0.0010085923
-0.0016345255
-0.0012260777
0.0010294664
0.0019447298
7.8005256E-4
-3.6079605E-4
-0.0012337368
-0.0024976435
-2.0202289E-4
2.551729E-4
-0.0023575241
0.0010261533
0.0020951498
-0.0019069175
1.983114E-4
0.0023780994
-3.9868217E-4
-0.0010297558
1.5093703E-4
-1.955581E-4
-2.8685865E-4
8.3167525E-4
0.0010404738
0.0010568142
0.0015525601
2.7913565E-4
-5.693964E-4
5.354451E-4
4.6941638E-4
-1.7276674E-4
3.6424384E-4
1.7047965E-4
-3.661634E-4
5.2385956E-5
-0.0013284774
-0.0015718428
0.0020682025
0.0014689097
-0.0014408539
5.064183E-4
0.0014761555
-1.0908194E-5
-0.001627744
-0.0030756244
-0.0010779303
3.925497E-4
-8.1325823E-4
-1.2791801E-5
5.094995E-4
-4.6970858E-4
2.180822E-4
0.0013028585
4.6096908E-4
-0.0012041597
-0.0020278147
-0.0013141454
0.0012735669
0.002050175
1.83303E-5
-4.7798083E-5
6.268873E-4
7.377875E-4
0.0011059891
8.650528E-6
-2.2841714E-4
-1.4630334E-4
-5.998311E-4
4.934756E-4
-1.491421E-4
1.1571083E-4
0.0025350293
0.0012402002
6.31315E-4
0.0014879176
-4.911916E-4
-0.0011925198
-0.0011503604
-0.0014237665
-2.1511938E-4
-4.5941552E-4
-7.6819176E-4
-2.195179E-4
-0.0015526103
-0.0017765302
1.1208763E-4
9.918837E-4
5.9750903E-4
2.8808977E-4