0.001070738
2.3729488E-4
-0.001667643
-4.2780876E-4
-1.8634426E-4
-3.943461E-4
7.04945E-4
2.3423499E-4
2.7946391E-4
4.881415E-4
-2.222719E-4
0.0013584506
0.0017267658
-9.058817E-4
-0.002384702
-0.0015610753
8.7264995E-4
0.0010113444
-9.1590034E-4
-4.0176886E-4
1.9635161E-4
-2.2588343E-4
-5.049429E-4
-8.9270563E-4
1.7296415E-4
7.35931E-4
8.168321E-5
0.0013012987
0.002480489
5.8747595E-4
-0.0020613004
-0.0014877098
4.398034E-4
1.03380815E-4
-2.025187E-4
0.0011198637
0.0018224501
7.0529414E-4
-6.664846E-4
-0.0013211139
-0.002619215
-0.0029107893
-8.6758035E-4
0.0013216011
0.0028061853
0.0014209168
-0.0015745799
-6.3091976E-4
7.714972E-4
-8.89631E-4
-3.7566533E-5
0.0019087773
-3.1143072E-4
-0.0020816545
-1.1071174E-4
0.001812767
6.1040017E-4
-0.0019307738
-8.5059233E-4
0.0010017403
-5.7921105E-5
7.173037E-4
0.0013981361
-1.4025155E-4
8.3037994E-5
-3.2297953E-4
-9.173017E-4
1.0842067E-4
-6.5290986E-4
-0.0012072049
-1.9685109E-4
4.625317E-4
0.0010323697
5.7225578E-5
-0.0012620603
5.68432E-5
5.566277E-4
-0.001105193
2.6557193E-4
0.0023873693
7.50697E-4
6.6876775E-5
6.1179645E-4
-6.307336E-4
-7.276978E-4
8.3839544E-4
0.0016335777
-9.531324E-5
-0.0018279648
-4.5967006E-4
3.8292003E-4
4.569608E-4
7.8746653E-4
-2.5751314E-4
-8.7881344E-5
-1.5436237E-4
-0.0011494231
5.3101615E-4
8.0431934E-4
-0.0013971804
-8.159535E-4
3.472307E-4
-9.2800794E-4
-5.389953E-4
0.0010197907
-7.1241043E-4
-7.7286124E-4
0.0019675477
8.980818E-4
-8.0139184E-4
-5.0576625E-4
-6.9791387E-4
-2.4625775E-4
-1.1726321E-4
-5.0160446E-4
-6.479091E-4
-0.0010237264
2.7115838E-4
0.0010158637
-3.7968176E-4
3.127765E-4
0.001998258
0.0013159253
4.8636057E-4
4.9146678E-5
-0.0019144514
-0.0023388788
3.874601E-4
0.001501642
6.1296705E-5
-5.55032E-4
3.5890812E-4
0.001013213
6.113292E-4
4.6953702E-4
2.0876729E-4
-3.2239888E-4
-1.2342009E-4
-4.641748E-4
-4.8392065E-4
7.236084E-4
0.0014278493
0.0013765026
-6.555519E-4
-0.002473459
1.5379321E-4
0.0028397206
0.0014852312
-0.0011250174
-0.0022990676
-0.00226332
-0.0021631601
-4.6879044E-4
0.0018234473
0.0011119014
-8.30007E-5
1.06465464E-4
-4.0133492E-4
-3.7326093E-4
8.441567E-4
3.3973818E-4
-0.0014635727
-0.0012121842
-2.737103E-4
-6.2345515E-4
-6.5100525E-4
3.6763714E-4
0.0020929014
0.0017657222
1.5650823E-4
0.001138551
2.3838064E-4
-0.0019121007
6.42374E-5
0.0017272756
0.0019934792
0.0020599267
3.274289E-4
-3.6595925E-4
1.881196E-5
-5.3791453E-5
2.0054872E-4
3.1088927E-4
-6.271013E-4
-0.002125782
-6.868905E-4
0.0011264035
-6.73027E-4
-0.0019207062
-0.0028313918
-0.003081355
-5.4485805E-4
0.0020816254
0.005057874
0.0026908233
-0.004963813
-0.004743088
-2.376827E-4
2.1772405E-4
-3.3638795E-4
-4.9889163E-4
6.9096684E-4
0.0015687909
7.4101414E-4
8.0825505E-4
0.0014644329
0.0019570063
0.0012413112
4.527864E-4
0.0016030824
0.0013713865
-1.177294E-4
-0.001183581
-0.0020462607
-5.282851E-4
8.9605775E-4
1.682041E-5
-4.9383735E-4
-7.2156347E-4
-6.591399E-4
-7.615408E-4
-0.001039771
0.0012075133
0.0022837245
2.7209835E-4
-1.4700805E-4
-9.251288E-4
-0.0024734985
-0.0012547249
2.5735743E-4
0.0012968562
0.0016962825
4.2567498E-4
2.6857285E-4
6.192043E-4
4.726303E-4
4.669218E-4
-2.9745005E-4
-3.0712882E-4
1.7818395E-4
-1.114819E-4
-3.5509167E-4
-5.162113E-4
-6.22996E-4
-0.0015796223
-0.0018103407
-8.413726E-4
-0.0014504598
-0.0013220187
-2.3201045E-4
5.1009137E-4
0.0016839519
3.0818488E-4
-8.99738E-4
6.727733E-4
9.742611E-4
9.851964E-4
0.0012525137
9.810633E-4
0.0012936713
8.736786E-4
2.945265E-4
2.5779087E-4
5.4656836E-4
0.0018518908
0.002139092
0.0010649927
3.6058036E-4
-2.0716524E-4
-7.1976386E-4
-0.002006972
-0.0027442807
-1.4089429E-4
9.865407E-4
-0.0014935178
-0.0011976139
1.06578016E-4
-0.0011874924
-0.0012444239
-2.1317317E-4
5.4374913E-4
0.0012411734
8.937107E-4
-1.9789008E-4
-0.0021252697
-0.0019351717
4.390191E-4
-6.7318026E-5
-5.1563245E-4
3.6556154E-4
-3.694262E-4
4.8806114E-4
0.0018571296
5.855146E-4
-5.959005E-4
-9.6350495E-4
-0.0013283502
-6.144375E-4
-8.507679E-5
-8.870713E-4
3.8477574E-5
0.0017069757
0.0017553082
0.002479138
0.001643043
-4.5373032E-4
-3.4463097E-4
-4.4097437E-4
-4.9674287E-5
4.330252E-4
6.4314215E-4
0.0024469977
0.001061148
-9.022419E-4
2.3492955E-4
-1.529739E-4
-3.9203704E-4
-2.44627E-4
-7.610654E-5
7.591081E-4
-0.0017995645
-0.0030144183
-8.318584E-5
0.001347114
8.6300826E-4
-7.7203015E-4
-0.0012798663
-6.482987E-4
-0.001397258
-5.555898E-4
3.7857026E-4
-3.747115E-4
-7.052606E-6
-5.476942E-4
-0.0016795268
-7.0190185E-4
5.760877E-4
7.329299E-4
8.5275366E-5
2.1006532E-4
0.001434894
0.0019247812
0.0018717947
0.0013862114
1.9434303E-4
-1.1011536E-4
1.618646E-5
-0.0014049088
-0.0022680126
-6.4967106E-5
0.0017869456
3.9585575E-4
-9.264641E-4
2.366486E-4
0.0014565821
0.0011360135
7.780703E-4
0.0011333545
8.8739005E-4
-9.18481E-4
-0.0017390256
5.5382487E-5
-2.4197256E-4
-0.0023004692
-0.0013551012
-0.0010160285
-0.0019280413
-1.987435E-4
0.0015963623
0.0013471555
-4.024493E-4
-0.001551888
-5.3050014E-4
1.07333195E-4
6.954254E-4
0.0014612881
6.7634176E-4
-4.8581432E-4
-0.0017069516
-0.0011197055
0.0012764885
0.0023695708
0.0027309323
0.0012736133
-7.107768E-4
2.3006946E-4
0.0013407761
0.0012682452
-7.5959426E-5
-0.0016635063
-4.7737817E-4
8.92116E-4
9.3963253E-4
0.0013516522
-3.126006E-4
-0.0031920047
2.3416159E-4
0.004047602
-0.004301861
-0.009617786
-0.0018802565
6.1823725E-4
-0.0011133336
5.462865E-4
-2.8855322E-4
9.819373E-4
0.003663044
0.0022655407
0.0011285428
4.02823E-4
-5.104602E-4
-7.778922E-4
-6.8837905E-4
0.0012822173
0.0027912476
0.001968255
5.2473904E-4
-8.3196687E-4
-0.001190085
-1.7060361E-4
9.049284E-4
0.0015980487
0.002626423
0.0020491162
-0.0010044624
-0.0027914275
-0.002473813
-0.0016498258
-7.8532775E-4
-0.0010567245
-0.0020018984
-0.0018169623
-9.771867E-4
-5.4586836E-4
3.8607445E-4
0.0014474576
0.0015034494
0.001033976
2.7774815E-5
7.137112E-5
0.0015007042
0.002460669
0.0019925549
-8.976901E-4
-0.0020579477
-4.0105663E-4
-3.0703985E-5
4.8287242E-4
-2.2358526E-4
-4.5681253E-4
0.0020523423
0.0013867101
7.742832E-4
-8.850213E-4
-0.0060648834
-0.0031337603
0.0029767249
0.0026053523
0.001139455
2.1630265E-4
-3.1584586E-4
-8.635625E-4
-8.4999815E-4
1.8744914E-4
-0.0010029153
-0.0016504658
-7.920131E-4
4.4447597E-4
0.0023724672
0.0012424544
-1.9267977E-4
-3.5806093E-4
-0.00121771
3.3908806E-4
0.0012107227
4.742899E-4
7.6301646E-4
-7.826276E-4
-0.0019807972
-0.001596103
-0.0014337985
3.5933347E-4
0.0022418583
0.002152011
0.0012995233
7.9416827E-4
4.795554E-4
2.1033802E-4
2.8512953E-4
-8.048751E-4
-9.4104436E-4
0.0015600593
0.0017296529
-7.632435E-5
-6.2607246E-4
-0.0016127034
-0.0032295873
-0.003260241
-9.282947E-4
7.327385E-4
5.640717E-4
8.5702195E-4
0.0010722484
5.4931967E-4
-0.0013984557
-0.0024412433
4.3681616E-4
0.0011976663
-8.8440627E-4
-4.9372873E-4
1.2220936E-4
1.3346168E-4
7.8939716E-4
0.0023918643
0.003849367
0.0022131412
0.0014005305
0.0032780897
0.00288974
3.232897E-4
-0.0014352438
-6.815041E-4
3.151727E-4
-2.2178242E-4
-4.6295757E-4
-0.0027502645
-0.005464654
-0.004659602
-0.0034666546
-0.0021418864
4.1067137E-4
0.0017876596
9.988153E-4
7.591012E-5
0.0016719082
0.0030875176
0.001605336
-1.5556108E-4
-6.895185E-4
-4.5377336E-4
4.3767545E-4
8.888579E-4
-0.0014410958
-0.0036299333
-8.8115473E-4
0.0024420838
0.002517181
0.0011338702
5.216463E-4
0.0020318513
0.0010493112
-0.001976781
-0.0015234225
-0.0014907555
-0.0026362494
-0.0016477335
-0.0011540983
-0.0019355356
-0.002951992
-0.0031466875
-0.0012056588
0.0015324337
0.003519564
0.004271129
0.004596908
0.005025271
0.0040769526
0.0031287873
0.004389898
0.0037233538
-9.867031E-4
-0.004691988
-0.0059766057
-0.0047691837
-0.0019111407
-0.0025646847
-0.002697839
-1.4888574E-4
-0.0010585316
-1.1384219E-4
0.0040685385
0.0048115025
0.003683601
7.766407E-4
-0.0021446485
-0.0029972328
-0.0048700627
-0.0043497942
-0.0014846573
7.440878E-5
0.0018712231
0.0018205704
7.191881E-4
7.7176426E-4
-3.244932E-4
-4.6617084E-4
9.1587164E-4
0.001069478
-1.2403583E-4
-0.0026858174
-0.004437865
-0.0022619208
0.001390553
0.0018238812
0.001609571
0.0032234967
0.0011088756
-0.0023034178
-1.6804486E-4
0.0033585671
0.0038895921
9.4592135E-4
-0.003023752
-0.002899321
5.3470458E-6
0.0032012966
0.0047459025
0.00163317
9.254419E-5
0.0030424416
0.003495998
0.002782281
0.0031621018
-5.570337E-5
-0.00534463
-0.0082318485
-0.008275896
-0.006341156
-0.0044592135
-0.003888945
-0.003637099
-0.001445223
0.0034165683
0.008471393
0.008860114
0.0029840216
-9.801942E-4
-0.0014498048
-0.0038014976
-0.0014271686
0.0034133033
0.004270957
0.007160331
0.0056336424
1.13074515E-4
0.0019087256
5.7462085E-4
-0.008191556
-0.01120618
-0.005465385
-9.0254383E-4
-0.0018724184
-7.7392935E-5
0.0038210573
0.006143659
0.005952426
-0.0013304917
-0.0041036033
-0.0012162512
-0.0045732344
-0.0050540958
-0.0030267856
-0.002554119
8.318057E-4
-6.7725335E-4
-0.0022594596
0.0017146172
0.0040802145
0.008969022
0.014168904
0.013781154
0.011223912
0.004573924
-0.0030279518
-0.0062812003
-0.011707365
-0.01774555
-0.014647895
-0.0077880844
-0.005388717
-0.0031497255
0.0019010121
0.0062194285
0.0065643257
0.0045802905
0.0041693226
0.005324898
0.0060609225
0.0038844203
-1.4029838E-4
-0.0036451756
-0.006490731
-0.0043069487
8.257508E-4
0.004096107
0.0078049577
0.007514091
0.003591362
0.002223664
2.3981635E-4
-0.002715815
-0.0065362845
-0.011648597
-0.0113314595
-0.0055694333
-0.0036756438
-0.0059572845
-0.0011947779
0.006928776
0.0062405285
0.0046125823
0.007948325
0.008968842
0.0065073175
0.0044786525
0.0043107076
0.0024345804
-8.015979E-4
-0.0016545048
-0.0021653322
-0.002730498
-0.0024147339
-0.0018229006
-0.0012575727
-3.9006042E-4
0.0011575394
-0.0014206447
-0.0076488163
-0.009547655
-0.0064865765
-0.0044683744
-0.0057181525
-0.0049003363
-0.004825753
-0.009044795
-0.0076097124
-0.003061641
-0.001554733
0.0010042763
0.0035440193
0.006827527
0.00920801
0.010394413
0.013382527
0.01336299
0.014944175
0.01765615
0.012814065
0.006563324
-6.7029917E-4
-0.009642585
-0.014256133
-0.013633605
-0.006677053
7.062806E-4
0.005958906
0.012266191
0.013075805
0.009356538
0.0060964962
-1.7185819E-4
-0.008697336
-0.0137489075
-0.015585786
-0.019467147
-0.021806927
-0.02033635
-0.019229751
-0.015559564
-0.0117587345
-0.009261134
-0.0038249595
-0.0011725952
-4.5291943E-4
0.0030789264
0.008407292
0.017992387
0.025580944
0.02448767
0.023053192
0.027098177
0.03168195
0.03284582
0.027803734
0.013984905
0.0010937512
-0.0045836675
-0.007831719
-0.0057005016
-0.004878998
-0.013227529
-0.019854266
-0.023611495
-0.028094733
-0.031532668
-0.03303984
-0.025033545
-0.012678164
-0.0067987978
3.9006284E-4
0.01185321
0.017141104
0.010064009
-0.0027259975
-0.008669173
-0.008108147
-0.009841836
-0.013041083
-0.01156155
-0.0050192843
0.0046566166
0.016607028
0.026809514
0.031094221
0.031032128
0.029841112
0.025797104
0.014755474
-0.0059551047
-0.030718386
-0.045391083
-0.04798628
-0.04037201
-0.018580208
0.0062074377
0.026411252
0.042863246
0.050754532
0.05688242
0.06349811
0.06444946
0.05438544
0.024754282
-0.010370837
-0.035850156
-0.05188525
-0.052185055
-0.048034612
-0.04943658
-0.045376226
-0.037088007
-0.02869666
-0.021274334
-0.016440202
-0.010014636
-0.0058853175
-0.0083407415
-0.010656993
-0.008094885
-0.0036976316
0.0012482974
0.00740592
0.00916477
0.006309673
0.0066274065
0.011752063
0.016925292
0.020035805
0.022816867
0.0221597
0.02144419
0.02649118
0.027301569
0.021798467
0.010010504
-0.010553288
-0.020312108
-0.011172587
0.0062363944
0.02630484
0.038135406
0.036444172
0.028070958
0.020019045
0.009425355
-0.009020172
-0.022146503
-0.022315796
-0.017627332
-0.010699452
-0.009431638
-0.017988496
-0.026222428
-0.03419532
-0.048251245
-0.061619826
-0.06466321
-0.056832466
-0.041501842
-0.022404406
-0.0028220466
0.017550595
0.037708
0.048079103
0.049226504
0.056917507
0.05980636
0.04557405
0.036261413
0.025787938
0.0073578083
0.010604963
0.027453385
0.033454597
0.020310652
-0.022126036
-0.06500213
-0.074400894
-0.06903783
-0.07359038
-0.07603149
-0.055038165
-0.030053105
-0.019907806
0.0011884763
0.01967013
0.0053142505
-0.0012027719
0.023376329
0.057274554
0.09022971
0.09896568
0.08359499
0.07192072
0.0639182
0.06213807
0.060436577
0.047293343
0.040183913
0.03410617
0.021948237
0.021051047
0.017929409
-0.013439906
-0.07363842
-0.13804665
-0.17102656
-0.17298734
-0.17505814
-0.1681526
-0.12548684
-0.06615242
-0.0071900557
0.04395138
0.06010606
0.05861662
0.07812846
0.10128671
0.09593423
0.06596242
0.0265284
-0.011303598
-0.013020781
0.028348096
0.060711086
0.06017119
0.04829027
0.052449666
0.058038726
0.035333477
0.028536957
0.03376756
-0.008519149
-0.04569796
-0.047377266
-0.05945534
-0.06509456
-0.05834029
-0.058845364
-0.05530499
-0.06796187
-0.08551445
-0.048301402
-0.0041790106
-0.018086528
-0.029961282
0.01578846
0.09427905
0.123432234
0.060475595
0.003751478
0.017518172
0.05363739
0.08814126
0.109122396
0.1041784
0.069235556
0.014552048
-0.010651392
-0.023950126
-0.076103576
-0.11213452
-0.09664735
-0.086566545
-0.08694255
-0.06817215
-0.043264046
0.014444236
0.12750164
0.1946673
0.11662953
-0.04191396
-0.14604773
-0.1791678
-0.185545
-0.1520603
-0.099194184
-0.057748456
-2.0850319E-4
0.064441405
0.100671604
0.10662815
0.10449614
0.1012081
0.08410019
0.08460111
0.10375954
0.080439545
0.021786029
-0.03159855
-0.0674173
-0.060612995
-0.0025652156
0.05023914
0.02931302
-0.037082687
-0.06524722
-0.037303325
0.007417865
0.027063642
0.02652252
0.047469687
0.07202116
0.044974055
-0.010463068
-0.04391032
-0.070659265
-0.093621545
-0.086658746
-0.06538118
-0.04255517
-0.018610178
-0.008139998
-0.0036619746
0.0054813903
0.017660402
0.035327535
0.047296483
0.050630625
0.060057197
0.05966934
0.033014756
-0.0032731644
-0.048493054
-0.085886
-0.07778986
-0.04759294
-0.024352187
-0.004029872
0.0068192547
0.013964317
0.023072
0.03174413
0.036294617
0.01762887
-0.0071374816
-0.0083443
-0.0053032767
-0.012737988
-0.017631784
-0.013613498
-0.004533165
0.008637822
0.023993991
0.03214132
0.033167668
0.03116341
0.022380557
0.008269906
-2.9465664E-4
0.0042896816
0.011540606
0.013643456
0.015262167
0.014085702
0.01262916
0.0116825765
0.0042935656
-0.0051129945
-0.014021115
-0.023222102
-0.029598935
-0.030603979
-0.025242986
-0.018756708
-0.013629935
-0.010016069
-0.008251414
-0.0058687273
-0.0050151097
-0.0043463963
-0.0031777476
-0.004334192
-0.004313305
-0.0034683803
-0.0017467161
8.234323E-4
-2.2564267E-4
-3.8561874E-4
0.0020542678
0.0024651897
0.002416779
0.003541888
0.005700248
0.009058819
0.011121989
0.007003283
0.0020340853
0.005315182
0.007572679
0.0053576594
0.0065236837
0.0065748235
0.0065444857
0.008540844
0.0063074096
0.0038367587
0.004568994
0.0061170883
0.0058865407
0.0021393446
1.8946812E-4
-7.1401655E-4
-0.0030533061
-0.0017942487
-0.0012091325
-0.0038662257
-0.0058208136
-0.008949678
-0.010426701
-0.010384336
-0.011513398
-0.0076719015
-0.0044751633
-0.0072077317
-0.006349879
-0.0043417737
-0.0047206995
-0.003041853
-0.0037221091
-0.0050857826
-0.0019508947
6.7006715E-4
0.0025928009
0.005513717
0.0074661304
0.0100923525
0.011170378
0.008599415
0.0062078806
0.0025998955
-0.0015585403
2.4191073E-4
0.004754959
0.0053953235
0.0027483336
-0.0012546732
-0.003408134
-0.0022852896
-7.958029E-4
6.8490236E-4
0.0019747003
0.0010458105
-8.529238E-4
-0.0016305731
-0.001667904
-0.0011369658
4.0580565E-4
0.0011641888
-9.034992E-4
-0.0040711323
-0.0054581976
-0.004908886
-0.0036644589
-0.0022813359
-0.0021220876
-0.002844589
-0.002071367
-0.0016123758
-0.0017308099
-9.0830436E-4
-0.002444833
-0.0034933954
-2.6657112E-4
0.0013191234
-1.9968032E-4
-8.8100747E-4
7.2882744E-4
0.0025485333
0.002117807
0.0031862615
0.0051361294
0.005769887
0.009053364
0.009672393
0.0059468937
0.0045850636
0.0020171003
1.377809E-4
0.0025509857
0.0012063925
-0.0029580637
-0.0034228654
-0.0018012129
-0.0013522664
-0.0019238599
-0.0025596858
-0.0029571047
-4.6755278E-5
0.001709294
-0.0034343428
-0.0057949894
-0.0029109288
-7.9629815E-4
0.0011180621
1.7822905E-4
-0.0016666724
-0.0016805314
-0.0028020844
-0.0026291872
-0.0025946111
-0.0035757963
-0.0031567526
-0.003025269
-0.0015832218
-0.002528835
-0.0054327883
-0.0024601414
-0.0011837512
-0.0034353742
-0.0026899178
-0.001998617
3.7457838E-4
0.002631218
0.0014394522
0.0026012387
0.0042014765
0.004162128
0.0044447966
0.0041686655
0.0061224108
0.00926669
0.0104749715
0.010371364
0.00881232
0.006667303
0.0036938596
0.001313826
-5.964499E-4
-0.0034023223
-0.0015219038
-1.6885369E-4
-0.0051485365
-0.007280924
-0.00697059
-0.00637433
-0.0042718337
-0.0037717393
-0.0018849474
-0.0042816503
-0.011680674
-0.009330321
-0.002910413
-0.0019304057
-0.001144533
4.1352052E-4
0.0018654239
9.609252E-4
-0.0014540205
8.6496683E-4
0.0050298604
0.00466088
9.3794987E-4
-3.4057823E-4
0.0021871051
0.0041582873
0.0041950475
0.0035388647
0.0039816834
0.004304205
8.661661E-4
-0.0022738902
-0.0011068658
0.0010735111
7.305931E-4
-0.002118434
-0.0023875644
4.891919E-4
0.0010746503
-9.999201E-5
-9.690845E-4
-0.0012286399
-2.459461E-4
-1.376081E-4
-0.0010146827
-9.901273E-4
-6.2236335E-4
9.6425356E-5
7.2846067E-4
3.32169E-4
1.144345E-4
-5.291596E-4
-0.0021705397
-0.0024610371
-0.0021277752
-0.0015474177
3.3109097E-4
1.5234824E-4
-8.088587E-4
3.8014704E-4
1.25889E-4
-7.829063E-5
0.0012387505
-9.670246E-4
-0.0038709086
-0.0010236746
0.0034952478
0.0026975002
-6.543767E-4
-0.0018303217
-0.0023491038
-6.98323E-4
0.0021628826
-3.576343E-5
-0.0025822634
-6.5209286E-4
1.340574E-4
-9.079438E-5
0.0016873701
0.0022029174
3.42541E-4
-7.965251E-4
6.5912E-4
0.0034677905
0.0029957301
-0.0019341996
-0.004239721
-0.0022374766
-0.0018073386
-0.0016283502
1.3004868E-4
5.750728E-4
6.0829794E-4
-2.622884E-4
-0.0023383517
-0.0015752588
4.887097E-4
0.0011149172
0.0020476806
0.002305246
0.0013432044
0.0012976946
0.0015972394
7.8873325E-4
-7.2529475E-4
-5.218719E-4
0.0016212491
0.0015871691
3.3922645E-4
9.288505E-4
3.2638572E-4
-9.655946E-4
1.7098106E-4
4.552721E-4
-0.0014437771
-0.0020140305
-0.0015276048
-0.001776198
-0.0010656551
1.3260244E-4
-5.4119516E-4
-4.7686155E-4
8.221284E-4
1.1934399E-4
-5.185917E-4
2.2678768E-4
5.610377E-4
1.1483542E-6
-0.0014177734
8.846992E-5
0.003422847
0.0016943298
-0.0011441594
-4.0713232E-4
3.3116088E-5
-3.5093463E-4
4.9626786E-4
0.002377578
0.0020395764
-0.0013770098
-0.002669215
-0.0014138961
-6.51508E-4
-2.79994E-4
-6.1874045E-4
-0.0010482251
-8.585312E-4
-2.0976774E-4
0.0013362254
0.0022473289
0.0013455786
6.15004E-4
0.0010496747
5.640719E-4
-4.1362096E-4
-1.6049073E-4
2.6346717E-4
0.0023062783
0.0041418206
0.0016704443
-0.0013646849
-0.0034665985
-0.002926272
7.36597E-4
-0.0021787903
-0.006549553
-0.002120399
0.0016579716
0.0016467831
0.0022288072
0.0016211501
0.0015413038
0.001715995
-5.026975E-4
-0.002286265
-5.0277956E-4
0.0015977058
-3.3123363E-4
-6.771639E-4
0.0017115909
-3.61347E-4
-0.0020144018
3.355113E-4
0.0017722237
0.002411196
0.0013697706
-1.1609679E-4
-5.1125542E-5
-0.0015505925
-0.001666189
-7.52444E-5
-3.9525528E-4
2.3536185E-4
-3.1030187E-4
-0.002442684
-0.0013556076
-5.3226214E-4
-5.6921475E-4
8.9192984E-4
0.0015031283
0.0019971046
0.0014325147
4.02369E-4
0.001916281
6.70223E-4
-0.0018174408
6.6142733E-4
0.0024326995
0.0013465798
1.3752506E-4
-3.2166648E-4
8.366527E-4
-0.0011769487
-0.003239151
-0.001187952
-0.0043123886
-0.006698697
-3.715468E-4
0.0027682038
0.001996844
0.0018854731
6.151759E-6
-1.854834E-4
7.2636016E-5
-6.0041266E-4
0.0011116058
0.0018006833
0.0010180797
8.571344E-4
-7.074055E-4
-0.0016443918
1.9598707E-4
0.0012761245
-5.6499946E-5
3.0282457E-4
0.0022182623
0.0016886987
0.0010735322
8.814752E-5
-0.0026020452
-0.0017379706
3.6708274E-4
-4.929812E-4
-3.4018932E-4
7.2534394E-4
-3.0811713E-4
-0.0016854969
-0.0011973487
-7.567872E-5
2.3621753E-4
1.7395131E-4
1.2774071E-4
7.931564E-4
5.50632E-4
-6.3219893E-4
0.0013326622
0.0030815285
0.0011130233
-8.3124636E-5
2.3135639E-5
-8.637241E-5
-7.976076E-5
-0.0010705646
-0.0020462673
-0.0010866442
1.8601601E-4
-0.0010964406
-0.0024393375
-2.831783E-4
0.0011329824
-2.4919232E-4
8.686815E-5
0.0018517424
0.0019294425
7.88989E-4
-4.0830727E-4
-0.0016622231
-0.0019283368
-1.08805456E-4
0.0010608735
6.1818474E-4
0.001637536
0.0015047096
-0.0010229194
1.4757419E-5
0.0020499795
-9.483695E-6
-8.657914E-4
4.2481706E-4
-3.7010788E-4
-0.001727411
-0.0030710923
-0.0036938225
-0.00141821
2.1630968E-4
9.985432E-5
8.892946E-4
0.0010488665
6.6334347E-4
6.406669E-4
-2.4383415E-4
-2.7274553E-4
6.374292E-4
7.078767E-4
0.0013564052
0.0025026023
0.0023873125
0.0016030119
0.0013161204
6.024143E-4
-7.761557E-4
-4.2897864E-4
9.3636115E-4
6.8357505E-4
-7.091559E-4
-0.0013528534
-3.9125676E-4
-8.3386904E-4
-0.0029694862
-0.0029501298
-0.0025335278
-0.0017048013
3.9188267E-4
1.5424876E-4
-3.8884702E-4
-2.09879E-4
2.6140262E-5
0.0013146739
7.439173E-4
0.0011998817
0.0032086838
0.0017277587
1.599783E-4
-9.3843613E-4
-0.002125301
-0.0016227915
-9.1755734E-4
0.0014079438
0.0017424347
2.7403128E-4
0.002402925
0.0015563788
-0.0017691003
-0.00246094
-0.0026414837
-1.7229226E-4
0.0015008855
-2.630493E-4
-3.6142278E-4
-1.0430338E-4
-7.7161577E-4
-0.0014090429
-0.0016980072
-4.4119985E-5
0.0019309366
0.0024161353
0.0023394658
0.0029455256
0.0031150363
0.0014933539
-0.0010207177
-0.0025826697
-1.8354716E-4
0.0015418924
-6.456879E-4
1.2429408E-4
7.981771E-5
-0.0017070927
0.0012164672
-7.3713035E-4
-0.006621742
-0.0036069455
0.0015382793
0.0014195237
7.66755E-4
0.0014276
6.193993E-4
-0.0015037644
-9.438134E-4
0.0012646416
0.0016273846
5.8720954E-4
-7.168679E-4
-8.9667425E-5
8.0165605E-4
-7.090535E-4
2.0200932E-5
0.0018624918
6.1180355E-4
1.7390495E-5
-5.9111364E-4
-0.0015554945
5.613005E-4
5.601629E-4
-0.0022770949
-0.0015904333
0.0010668227
0.0019694825
8.5394306E-4
-2.0013111E-4
-6.178915E-4
-0.0016668731
-0.0010069086
4.0573686E-5
-3.3425778E-4
8.8850677E-4
0.001533339
0.0013971445
0.0026861513
0.0020371098
-3.282043E-4
-0.0012929203
3.2143263E-4
0.0016698951
-3.684964E-4
-8.5015857E-4
5.1367894E-4
-6.9560925E-4
-0.0020094037
-0.0026742618
-0.0025038824
-2.0435313E-4
0.0013846514
7.388805E-4
-4.5005168E-4
-2.0128555E-4
5.736602E-5
-4.447303E-4
4.1101727E-4
4.718423E-4
2.3493078E-5
2.1715718E-4
-0.0010908135
-5.537706E-4
0.0010373306
3.3058383E-4
-7.0534716E-4
-0.002257783
-0.0010802094
0.0020022204
6.2879425E-4
-6.487737E-5
0.0015562229
0.0010537589
0.0012692203
0.0012755544
-2.3680148E-4
-5.3600693E-4
-5.7012343E-4
-7.2701025E-4
-4.8066382E-4
1.665569E-4
4.7780378E-4
-5.237989E-4
-5.879685E-4
2.4754426E-4
0.0014602701
0.0033548204
0.0016910254
-0.0013066401
-6.844085E-4
-1.5576018E-4
-6.049111E-4
-8.952032E-5
7.107663E-4
8.787665E-4
-0.0018000116
-0.0041594366
-0.0016835295
6.948208E-4
-3.3547904E-4
-0.0014898803
-0.0012871723
5.1485654E-4
0.0017792683
3.3934202E-4
-2.4933138E-4
4.0962815E-4
8.50955E-4
0.002418762
8.163846E-4
-0.0028066149
-0.0021926467
-7.130787E-4
9.856428E-4
0.002133292
1.7663762E-4
5.455353E-4
8.734585E-4
2.1902198E-4
0.002516394
0.0011150485
-5.941309E-4
0.0010090333
-0.0013339674
-0.002099071
2.2516669E-4
-6.9247576E-4
-0.0016517693
-0.0010987589
-3.761842E-4
-2.3882673E-4
-2.0253657E-4
8.919683E-5
-5.8637565E-4
0.0014467831
0.0035480992
0.001442045
6.4293155E-4
-1.5940893E-4
-0.0020419746
-0.0012271412
-2.2851997E-4
3.9100248E-4
3.7772968E-4
-3.5318907E-4
5.8890586E-5
-1.6390432E-4
-1.9792511E-4
-5.5329197E-6
-0.0011681685
-0.0018769753
-0.0013801998
9.831549E-4
0.0018225517
-7.844461E-4
-7.686259E-4
0.0012399025
7.961246E-4
-4.4404907E-5
0.0011175125
0.0014319663
-6.943083E-4
-3.877167E-4
5.3322857E-4
-7.286386E-4
2.7825357E-4
9.4141485E-4
6.021972E-4
0.0010225306
5.011135E-4
0.0019628573
7.4755034E-4
-0.002735392
-3.051127E-4
-7.905098E-4
-0.0042332523
-0.0015125067
4.739399E-4
-7.4061233E-4
-0.0011492185
-1.9046715E-4
0.0015318639
0.0012162094
-2.3610891E-4
-0.0011787772
-7.728396E-4
0.0012086426
0.0019380775
0.0023283353
0.0018967899
-3.750092E-5
-5.5005366E-4
-6.230879E-4
7.8307744E-4
0.0012390773
-0.0024152934
-0.0018192613
0.0020826329
0.0027139243
0.002900731
0.0011992484
-0.0011696381
-4.6182278E-4
-0.0023198703
-0.0065213186
-0.005964905
-0.0012520432
0.0018778575
0.0019596685
0.0020147215
0.002022962
8.266521E-4
-1.7472624E-4
-1.9862769E-4
5.2434794E-4
5.765781E-4
2.5477455E-4
3.4502163E-4
-7.90913E-4
-9.1592775E-4
7.9359894E-4
8.982897E-4
6.2105316E-4
4.5380156E-4
-8.474555E-4
-0.0014913786
-9.089596E-4
6.296086E-4
0.001516749
5.7822565E-4
-1.10257286E-4
-3.7018524E-4
-5.480679E-4
-8.096049E-4
-0.0015671061
-6.189839E-4
7.5649156E-4
3.657692E-4
5.9173437E-4
0.0010867433
5.736426E-4
4.776507E-4
1.6393425E-4
-7.4433646E-4
-3.5203726E-4
1.58029E-4
-7.689484E-4
-2.2539796E-4
0.001707599
0.0012094558
-8.279718E-4
-0.0012516772
8.5983265E-6
0.0012386465
0.0012616231
-6.609213E-4
-0.0028238797
-0.0018353417
-5.746824E-4
-0.0012405528
3.7398096E-4
0.0017741694
5.623164E-4
0.0013220622
0.0023044522
6.236162E-4
-6.56163E-4
-3.119414E-4
-2.9897106E-5
-2.8005665E-5
1.09869376E-4
-0.0015701447
-0.0026499513
1.6022807E-4
5.511087E-4
-0.0012897867
0.0010224276
0.0024721066
0.0013277387
0.0015490684
2.0673552E-4
-0.0012860872
-4.582293E-5
-3.665359E-4
-0.0015831728
-0.0014334949
-0.0019249612
-8.8943075E-4
0.0010334625
4.4208032E-4
8.493175E-4
0.0022042927
0.0016420216
4.1926285E-4
-0.0015320191
-8.737781E-4
0.002308961
8.8866614E-4
-0.0016127678
-5.5433105E-4
-3.0047435E-4
-0.0012009057
-0.0021531528
-0.0029953471
-7.396024E-4
0.00246179
0.0018983894
5.6203007E-4
0.0015057621
0.0022522572
0.0018754948
1.3958644E-4
-0.0017114485
-0.0012940387
-0.0014207
-0.0016714417
7.7014166E-4
0.0016547971
4.2439415E-4
9.3676086E-4
0.0014570109
3.6917682E-4
-9.334776E-4
-0.0018805263
-0.0011956866
3.88834E-4
4.308358E-4
7.434898E-4
7.0371217E-4
-0.0012797269
-0.0015054663
-0.0011689395
-0.0014477677
-1.3650104E-4
1.7158542E-4
-6.811807E-4
-7.4640807E-4
8.6477766E-4
0.0018693169
-2.9959547E-4
5.1571304E-5
9.541972E-4
-5.751067E-4
7.262503E-4
-3.0015002E-5
-0.0013851426
6.840077E-4
2.219493E-4
0.0012083192
0.0028067853
7.0415233E-4
-1.677512E-4
-2.910215E-4
8.225314E-4
0.0025956742
0.001791677
-1.08073546E-4
-0.0016298223
-7.270749E-4
-0.0010009065
-0.0025842127
-6.367075E-4
-3.5692367E-4
-0.00149178
-0.0013912739
-0.0011175309
0.0010983502
7.683997E-4
-3.07741E-4