-0.0022897716
1.0481964E-4
6.038205E-5
4.416892E-4
3.8329416E-4
-0.0023610685
-0.004011965
-0.0014132845
0.0012514623
5.9159315E-6
-4.753123E-6
0.0015148314
0.001554717
0.0025254367
0.00202036
-4.1367052E-4
-6.7235186E-4
8.532759E-4
0.002333425
0.0010994293
-0.0012402025
-5.2031723E-4
5.5542204E-4
3.5927014E-4
9.1392983E-4
0.002055394
0.0015633714
-9.085005E-4
-5.6124676E-4
0.0011253278
-0.0013737769
-0.002787869
-8.206681E-4
-3.8579958E-5
3.3721706E-4
4.44259E-4
-6.0855684E-5
-5.2323646E-4
-0.0015335997
-0.0015924039
-0.0019194405
-0.002454652
-6.2351563E-4
7.7748985E-4
0.0013029716
0.001647427
7.3648273E-4
-2.5632937E-4
-0.001689543
-4.4960453E-4
0.0029914912
0.0015882582
-9.385709E-4
-6.153639E-4
2.643412E-4
0.0016115197
0.0012157116
8.673718E-4
0.0021286143
0.0014409774
7.359726E-4
5.3376367E-4
-6.90345E-4
-0.0012218073
-8.23821E-4
2.8210526E-4
2.6769756E-4
-4.652514E-4
2.2325644E-4
-0.0011433549
-0.0036547172
-0.002323759
8.9069166E-5
-9.668417E-5
-5.3482235E-4
-2.9644727E-5
-4.6597532E-4
-2.2881923E-4
6.570247E-4
-4.942065E-4
-0.0014827539
-0.001347622
-3.3266962E-4
0.0013180226
0.0010668476
8.101345E-4
5.312278E-4
-6.0028484E-4
9.2951715E-4
0.0024266646
0.0021417716
0.0010869189
-7.929714E-4
7.4845064E-4
0.0014116144
-0.0024072686
-0.0013876526
0.0020756926
6.487545E-4
1.5258206E-4
9.6976646E-4
-0.0010816645
-0.0013389216
-1.4606441E-4
-0.0011079015
7.028599E-5
0.0014445027
-6.9238845E-4
-0.0010544878
-4.7042075E-5
-4.5979483E-4
-1.5428009E-4
5.5073114E-4
6.119537E-4
-4.9296225E-4
-0.0013155381
-5.792384E-5
0.0011522409
0.0014999661
6.4811565E-4
-0.0012352912
-0.0015784664
-6.329473E-4
5.4961967E-4
7.563047E-4
-0.0012333104
-0.0025574157
-0.0011437552
6.4924755E-4
-4.8256545E-5
-0.0016584926
-6.071449E-4
0.001348683
0.0015026594
0.001205778
9.832295E-4
4.5661666E-4
4.932571E-4
2.4957233E-4
-4.030656E-4
5.110029E-4
0.0012316871
8.301934E-4
0.0011042276
9.2920853E-4
0.0010964982
0.0014190355
-8.7382425E-5
-0.0011775042
-0.0022946969
-0.0027093978
-1.5297341E-4
0.0012057695
9.383689E-4
7.6429447E-4
-0.0011388869
-0.002665909
-0.0016509739
3.720536E-5
1.9446213E-4
-7.372815E-5
8.969167E-4
5.1365694E-4
-5.830644E-4
5.2617554E-4
0.0010926652
4.3163604E-5
-5.000236E-4
-0.0011638502
-0.0015144562
-2.2747634E-4
5.8422546E-4
0.0011864506
0.0022350566
4.3577605E-4
-0.0012830368
-7.3947466E-4
-0.0010519167
4.2026315E-4
0.0016724302
-9.9309975E-5
-3.8779536E-4
-8.6558977E-4
-0.0013400736
4.9532915E-4
0.0016723113
0.0017433797
-7.0565473E-4
-0.0014765754
0.0022221901
0.0018582044
-1.6492333E-4
-4.5045596E-4
-0.0015765771
-3.7447002E-4
-8.0714223E-4
-0.0014555799
0.0020480629
0.0013848789
-0.001458858
-0.0017284183
-0.002419974
-0.0017575185
2.9237662E-4
0.0021128845
0.0015586232
-4.3095736E-4
6.5865874E-4
0.0010715385
-5.8090343E-4
-9.1682165E-4
-2.2198331E-4
7.897907E-4
4.0028893E-4
0.001194017
0.0027421461
-1.2607261E-4
-0.002086457
-0.0012401519
-0.0013776163
4.2980484E-4
0.0021799025
9.365755E-4
2.0217348E-4
-9.112815E-4
-0.0033049057
-0.0022275532
5.6867517E-4
8.475394E-4
0.0015418465
0.0011914365
-0.0010206044
-5.7340076E-4
2.8829603E-4
0.001092629
0.0015574528
-4.9110496E-4
-1.8015756E-4
4.2561453E-4
-0.0013569823
-4.1549478E-4
9.749936E-4
5.290513E-4
3.3798223E-4
9.912946E-4
0.0014704728
-9.7187166E-4
-0.0025458669
-2.0915043E-4
7.942653E-4
-3.8411157E-4
-0.0010506256
-0.0013459942
-0.0018156392
-0.0016134722
-6.4162724E-4
-6.329656E-4
1.61847E-5
0.0016931015
9.6217723E-4
-2.1827557E-4
-9.264774E-5
-8.4333617E-4
-6.725764E-4
7.949807E-4
0.0014176458
0.0021883687
0.0013755193
-6.980709E-4
5.9711165E-4
0.0017449299
6.772797E-4
0.001089663
5.6512293E-4
-3.4278582E-4
6.276075E-4
6.197554E-4
2.576411E-4
-1.3366736E-4
-7.049659E-4
-3.2153883E-4
-9.053751E-4
-0.0013656358
-8.840891E-4
-0.0015157115
-0.0021177107
-0.0014009706
8.917943E-5
9.010352E-4
0.0015194659
0.0017756581
-9.635258E-4
-0.003062024
-0.002028654
-7.260017E-4
6.196685E-4
3.997686E-4
-1.6547942E-4
0.0010928573
0.0012105154
8.2152843E-4
-1.418514E-4
-9.6733874E-4
0.0011976183
0.0018440642
8.953214E-4
9.0660783E-4
1.5856717E-4
7.205471E-4
2.64625E-4
-0.0013761754
5.591235E-4
0.0012707176
-4.4248387E-5
-2.6157708E-5
-0.0011319343
-9.365845E-4
0.0010390282
5.215212E-4
-9.0678554E-4
-0.0013175334
-6.9537136E-4
1.3559073E-4
-0.0015501888
-0.002977377
-4.7908162E-4
0.0013037518
2.2628054E-4
-1.4287855E-4
-9.8651784E-5
-4.64619E-4
-3.553282E-4
2.236764E-4
0.0015808578
0.0024799618
0.001772772
3.2905006E-4
-4.7760954E-4
3.500378E-4
0.0014628435
0.0014746813
1.4881362E-4
-0.001315638
-8.4643834E-4
-2.8593617E-4
-3.283785E-4
3.4076557E-4
7.3934626E-4
0.001299911
9.54088E-4
-9.056396E-4
-0.0021373369
-0.002772027
-0.0017000863
-3.8265547E-4
-0.0012652185
-8.18498E-4
6.810702E-4
0.0012000322
8.9099124E-4
-0.0017772375
-0.0024738496
0.0010346064
0.0022019139
2.4975196E-4
-0.0011512883
-0.0017952786
-0.0020151187
-9.782249E-4
0.001652661
0.0031391582
0.0025201868
0.0015759193
4.4298725E-4
6.05837E-4
6.076009E-4
-0.0010442957
-2.157906E-4
9.044252E-4
7.0729444E-4
0.0015333319
-4.0572856E-4
-0.001497451
0.0012624849
7.208377E-4
-9.50255E-4
-1.630825E-4
1.19515214E-4
-9.6709155E-5
-3.5714632E-4
-9.80725E-4
-0.0018928725
-9.674737E-4
4.4423607E-4
-9.84147E-4
-9.687789E-4
3.0976924E-4
4.0267123E-4
0.0011161395
-2.5022966E-5
-0.0014789021
-0.0015647606
-0.0015023368
-2.2016108E-4
-3.4523543E-4
4.486506E-4
0.0023389629
2.0428961E-4
-4.8663412E-4
0.0012334439
8.489823E-4
-3.766132E-5
-7.5810874E-4
-7.515563E-4
-5.261577E-4
9.991557E-5
6.933662E-4
-1.8345776E-4
8.1061176E-4
0.0015847478
0.0012459027
0.0021401602
2.5951464E-4
-9.1721426E-4
-1.4321562E-5
-8.28442E-4
2.4326218E-4
-1.206281E-4
-0.0029866176
-0.0020029303
3.0137855E-4
0.0011420465
0.0011729012
0.0011152953
0.0013434297
1.8015926E-4
-8.3492504E-4
-7.120383E-4
-7.374159E-4
-7.8423636E-4
-7.0844305E-4
5.3792246E-5
-1.7869778E-4
-9.567193E-4
-7.8239485E-5
-8.3360384E-4
-0.0017813063
5.757404E-7
4.7487442E-4
9.149159E-5
0.0011561161
0.0021358659
0.0017253215
-4.070061E-4
-0.0015119452
-0.0011594801
-0.0012092885
2.8661586E-4
0.0015267434
-3.1654767E-5
-6.124948E-4
2.2124221E-4
-5.93912E-4
-0.0010016506
8.118964E-4
0.0013836202
9.989142E-4
0.002600902
0.0028026858
0.0012212961
3.720491E-4
-0.001762555
-0.0026315628
-0.0016129715
-0.0021642826
-0.0011097264
5.452312E-4
3.8560384E-4
0.0010641576
7.1050384E-4
-2.8358123E-4
-1.4429676E-4
-6.433269E-5
4.542015E-4
-9.27467E-4
-0.0019862677
4.5296765E-5
-8.9733343E-4
-0.00183591
5.153468E-4
1.4433256E-4
2.827469E-4
0.0019943798
1.3092796E-4
-9.85456E-4
0.0011167242
0.0021585524
0.0010127503
9.0895186E-4
0.0023037998
6.7961524E-4
-0.0011032678
1.8767301E-4
-3.0088998E-4
-0.0013436059
-0.0017139087
-0.0021862863
6.4347853E-4
0.00207488
-2.1396311E-4
-2.110964E-4
2.630374E-4
-6.2394567E-4
1.313492E-4
0.001449982
-3.2333464E-5
-0.0028451323
-0.0021420002
-0.0012865606
-0.0030102774
-0.0016778699
6.835563E-4
3.2628753E-4
5.4148963E-4
0.0015494428
0.0015002977
6.5168954E-4
1.7629926E-4
-1.0013767E-4
-8.471192E-4
-0.0010264551
-7.934094E-4
-1.5873533E-5
0.0012923478
0.0011033646
4.8164098E-4
0.0014459444
0.0026686639
0.0023908017
7.885739E-4
-8.5573224E-4
-0.0011003152
3.0686727E-4
0.0011853068
0.0014437109
0.0019384826
0.0012291942
-1.4511342E-4
-0.0021889932
-0.0030476989
8.3486363E-4
0.003895932
0.0017775702
-9.788949E-4
-0.0022021818
-0.0032828867
-0.004201444
-0.0023670879
0.0016494202
0.0023372131
-5.985888E-4
-0.0019414118
-4.7666815E-4
6.676902E-5
-0.0012837311
-0.0013131929
-3.254137E-4
-0.0014248918
-0.0036318747
-0.0033304438
-0.0012655956
-8.0511475E-4
-7.019694E-4
1.9573259E-4
7.4325583E-4
0.0012984059
8.4808597E-4
7.366488E-4
0.003582669
0.004915412
0.0021574262
3.8972314E-4
9.842417E-4
7.7970285E-4
5.8260404E-5
2.0172412E-4
0.0011801686
0.0030093058
0.005098581
0.006529393
0.004733216
0.0011142024
0.0013654637
0.0014751309
-0.0027112446
-0.005770706
-0.0059668343
-0.0052124653
-0.005867288
-0.006132753
-0.0010791272
0.002706394
8.6232193E-4
-6.7718345E-4
-0.0016499308
-0.002320049
-0.0017042937
-0.0015208295
-0.0013553788
-0.0013030465
-0.0011913239
-0.001127916
-0.0012599338
6.792392E-4
0.0028399029
0.003157769
0.0022754741
9.482651E-4
0.0022062995
0.0028257703
2.1261326E-4
4.2528135E-4
6.4834E-4
-0.0027148565
-0.0035192901
-0.0013574596
0.0023237912
0.005209116
0.0026060573
0.0017370125
0.0046679634
0.0018032453
-0.0027155844
-0.0032752135
-0.002536559
5.357763E-4
0.005247542
0.011280593
0.01381211
0.0056027523
-0.002772597
-0.004845858
-0.009052198
-0.012615247
-0.010915534
-0.008387055
-0.00483145
-2.0577866E-4
-6.281237E-4
-0.004106162
-0.0043123667
-0.004506622
-0.0047985963
-0.002802258
-0.0027265698
-0.0026136287
2.4152141E-4
0.003341916
0.0058864295
0.006476663
0.0067636063
0.007845831
0.008111983
0.0078037456
0.005856651
0.0061762524
0.008657462
0.004713853
-0.0014057691
-0.0020147017
0.001692746
0.0067836684
0.0059967563
-0.001598993
-0.0042799218
-0.0012929523
-0.0047629625
-0.010625647
-0.008300767
-0.004452006
-0.0025021632
-2.5704934E-4
-6.665244E-4
-0.0011200364
-0.003470617
-0.009076821
-0.008938943
-0.005185165
-0.0036352049
-3.3280296E-5
0.005755086
0.008650976
0.00598629
-0.0018871834
-0.007939224
-0.004857995
-9.052722E-4
-0.0047734757
-0.0070524593
-0.0010906269
0.00508547
0.0041278596
7.581956E-4
0.002650213
0.0069827717
0.009292888
0.0076378407
0.001459304
-0.0025146531
7.441281E-4
0.008423027
0.01338415
0.014796963
0.01760227
0.01344254
1.6889391E-4
-0.006460897
-0.006765653
-0.0119924545
-0.017778466
-0.013683029
-0.0035661762
8.6847896E-4
-7.6854415E-4
-0.0042478675
-0.005487189
-3.4981358E-4
0.0039008972
-2.868411E-4
-0.009375224
-0.015535242
-0.0140684405
-0.010292633
-0.007936144
-0.0026629549
0.0030984893
0.005372372
0.0076081273
0.008804428
0.0067085614
0.0063022845
0.0061231223
0.001730602
-0.0012588501
2.9013204E-4
0.0028077115
0.0043307506
0.0059714895
0.008898764
0.008249837
0.0043698256
0.0043114168
0.0029724354
-0.0012718808
-3.7105984E-4
0.0011154835
0.001088607
0.0019310724
-0.0028969606
-0.004667635
0.0032922486
0.0052956273
0.0032487705
0.0046861414
5.292753E-4
-0.0054930253
-0.0084300535
-0.012868177
-0.014803229
-0.013393022
-0.012662094
-0.011252785
-0.0074384664
-0.002437251
-0.002090299
-0.00514403
-8.104795E-4
0.0071100984
0.007897545
0.0068742735
0.008300387
0.0074925907
0.005648762
0.00238538
-0.002319396
-0.002701737
-0.0023661447
-0.0034266186
-0.0014384676
-6.6796947E-6
2.9980481E-4
9.355246E-4
-1.8939229E-4
0.002277147
0.010845521
0.02024761
0.02837004
0.032678835
0.028926946
0.016755719
-0.0010303812
-0.017117275
-0.024097066
-0.02422423
-0.020908616
-0.018267833
-0.023033729
-0.024656177
-0.014644458
-0.008451428
-0.01167708
-0.011332852
-0.0018446568
0.0069081993
0.0075327056
0.0098585235
0.018952178
0.026234813
0.026901804
0.021896802
0.013239377
2.529286E-4
-0.01174553
-0.013216373
-0.009067264
-0.004348394
2.2194108E-4
-0.0043764873
-0.011649721
-0.003952365
0.00829335
0.0023728802
-0.016221657
-0.025666894
-0.023166463
-0.020847775
-0.020762004
-0.015206705
-7.7820144E-4
0.012335798
0.011665843
0.0052971607
0.004652364
0.008836453
0.019447904
0.028974196
0.030357981
0.03321931
0.036886677
0.03912507
0.04309486
0.044925693
0.039811198
0.012523109
-0.027810672
-0.04887394
-0.05939642
-0.0679849
-0.06436334
-0.055720173
-0.04209716
-0.028913472
-0.022794379
-0.012186936
0.003137511
0.024924956
0.050144207
0.06573846
0.07233012
0.06306909
0.03731756
-0.0017530813
-0.051571023
-0.07071207
-0.049454898
-0.030543927
-0.021644644
-0.013658097
-0.008585885
-0.0054118745
-0.0032553524
-1.6204875E-4
0.001320227
0.0046886145
0.0133881
0.024480462
0.040100507
0.043825045
0.034115378
0.03860005
0.041509587
0.02316125
0.0056821005
-0.0048452243
-0.010694126
-0.0036388836
0.0060200505
0.010663914
0.015706724
0.0041900426
-0.027075836
-0.040197782
-0.030746726
-0.02311845
-0.015355397
-0.013996221
-0.028698891
-0.040789824
-0.04608397
-0.06206491
-0.07203919
-0.046960074
-0.013594498
0.004223538
0.024932237
0.04841894
0.07169526
0.07382603
0.027316123
-0.016602587
-0.016656585
8.633485E-4
0.008691245
-0.004620805
-0.009281104
0.01653186
0.049002253
0.068108074
0.04177017
-0.039816268
-0.12425597
-0.15122297
-0.10051526
-0.0046200384
0.10100932
0.187508
0.2264809
0.20653352
0.11845157
0.05430489
0.09225432
0.08146134
-0.03271386
-0.10346663
-0.12106913
-0.12309551
-0.10322425
-0.09737231
-0.08322208
-0.055521205
-0.055843577
-0.058560986
-0.06860703
-0.102336586
-0.12111518
-0.10918322
-0.060567155
-0.0065390775
-0.0047543906
-0.042469554
-0.068733774
-0.035781384
0.038266465
0.08418996
0.11211327
0.13897865
0.14265017
0.1323766
0.12381657
0.15773804
0.21845241
0.19239691
0.08409919
-0.0018281563
-0.029507857
-0.02895077
-0.06686823
-0.13286167
-0.15283184
-0.15268706
-0.15300722
-0.11286063
-0.068310924
-0.052005254
-0.004977381
0.08379687
0.12797445
0.10520641
0.06447628
-0.003710903
-0.08183671
-0.13760194
-0.19061524
-0.16065496
-0.020964714
0.099483125
0.179294
0.23389268
0.25511593
0.26101172
0.16564627
-0.013722407
-0.14267455
-0.2407638
-0.2803192
-0.2074784
-0.119332924
-0.049427398
-0.0044082645
-0.013638637
-0.03055089
-0.047959257
-0.053151913
-0.018251847
0.015496298
0.05837859
0.11529356
0.13290502
0.10271895
0.041374132
-0.0103602335
-0.037526745
-0.043331496
0.0017575034
0.049773883
0.073405325
0.10186656
0.10459066
0.11484879
0.1507616
0.14695986
0.100392446
-0.0049439045
-0.14341542
-0.21436535
-0.2110806
-0.15340702
-0.06918576
-0.013205802
0.023503631
0.0455304
0.03796827
0.0039362223
-0.056413405
-0.1003849
-0.08623362
-0.043795034
-0.0150886085
-0.0038713983
0.0035058055
0.011987188
0.022623612
0.031727053
0.03403312
0.034186948
0.029981213
0.017777795
0.0050266297
-0.0010527541
0.00569293
0.020391336
0.030848434
0.0384509
0.044249035
0.043998905
0.03957213
0.029714484
0.019389288
0.015732571
0.0034993377
-0.020182252
-0.03315877
-0.032467373
-0.027348464
-0.02087007
-0.01650454
-0.01396712
-0.011961145
-0.011074345
-0.0112467
-0.011546513
-0.0118433805
-0.012637253
-0.012134393
-0.011804144
-0.012846183
-0.011495889
-0.007925535
-0.004902872
-0.002891654
2.5039678E-4
0.0035185674
0.0034557662
0.0052458937
0.009846602
0.011006546
0.009615515
0.007663416
0.0066683437
0.0064458293
0.0058433586
0.007295806
0.008258624
0.007818496
0.009079929
0.009941513
0.009310074
0.008059025
0.0057553905
0.0036788883
0.0038764102
0.0037070417
-4.8406808E-5
-0.0028543961
-0.00303567
-0.0035021724
-0.0035036707
-0.004967141
-0.005973521
-0.0028951678
-0.0032483027
-0.0083037885
-0.008955857
-0.005479208
-0.005466425
-0.007182062
-0.003354255
-2.374933E-4
-0.0021764615
2.2971557E-4
0.0039595175
0.0037402785
0.0046734684
0.004749873
0.0057144025
0.0071541513
-1.6688541E-4
-0.0054549132
-9.731257E-4
-5.0147274E-4
-0.002723673
-8.8264386E-4
-2.3673664E-4
-0.0013158589
-0.0048521417
-0.009931744
-0.008632856
-0.0037246924
-0.0034059794
-0.0051736566
-0.0032201633
0.0014590124
0.0037464076
0.0022305036
-1.5198415E-4
2.2144057E-4
0.0025450531
0.004204281
0.007719369
0.009009965
0.0034634296
0.0010209398
0.0033876614
0.0046101436
0.007222286
0.007717915
0.004378013
0.0033209748
0.0027178908
0.0014906345
0.0017469408
0.0010592594
-5.75534E-4
-0.0015539292
-0.0018093399
-0.0019952913
-0.0040877396
-0.0059020603
-0.0040903743
-0.0021683567
-0.0023206072
-0.0038451538
-0.0077860714
-0.0072046705
-7.6114776E-4
-0.001073622
-0.0044012964
-0.0019488847
-5.2335E-4
-4.680832E-4
8.1811455E-4
0.0010950245
0.0011099172
1.8314077E-4
-2.0096324E-4
3.6966545E-4
-3.5412709E-4
-7.434036E-5
6.1850884E-4
5.722541E-4
-1.5728314E-4
-0.00242368
-0.0016449388
0.0019127238
0.0030309067
0.0034543737
0.005130411
0.005593725
0.0039501707
0.003660818
0.0028039373
-0.0024576199
-0.005350127
-0.0042200824
-0.0025838183
9.1993355E-4
0.002238681
0.002092873
0.0039270218
0.0046861437
0.0066922624
0.0056288117
-0.0019612745
-0.005416876
-0.0060382565
-0.0070246183
-0.003933813
-0.001933228
-0.0025574234
-0.003592438
-0.003759284
-2.07013E-4
0.0011758581
0.0014056928
0.0043216944
0.0027244005
2.1670232E-4
5.504767E-4
1.2472109E-4
0.0015620076
0.0019295737
5.6741294E-4
0.0015397016
0.0013652352
-2.2087275E-4
-0.001374545
-3.6483083E-4
0.003871827
0.004936945
8.7786076E-4
-0.002202965
-0.0015626285
-0.0016909853
-0.0035692614
-0.0021167567
-0.0017235255
-0.0046287356
-0.0043553123
-0.0025558937
-0.0017493292
-0.002111699
-0.002545114
-6.9032435E-4
-6.660157E-4
-0.0016578621
-0.0012043653
-0.0020429904
-9.428972E-4
0.0014340183
9.1007963E-4
6.354732E-4
0.002878455
0.0038109627
1.1737153E-5
-0.0019150474
0.001304971
0.0020978677
0.001523947
0.0028668572
0.0033838823
0.0035551104
0.0035228392
0.0023308787
8.065974E-4
4.400553E-4
1.4318101E-4
-0.001612818
-0.0012571018
-5.6720816E-4
-0.0030071319
-0.0032804848
-0.0014414738
-0.0016535912
-0.0020238806
-7.641378E-4
-2.17972E-4
-0.0021359513
-0.0022368631
-2.6519984E-4
-0.0011760901
-0.0022208304
-0.0018515789
-0.0021813076
-0.001076445
4.3486647E-4
2.1409646E-4
-2.3009584E-4
-2.79245E-4
4.2271978E-4
0.0014996553
0.0019217678
0.0020264061
0.001914989
0.0015928644
0.0012644004
0.0011821784
0.0016203328
0.0010987356
-0.0010272335
-0.002262106
-0.0015239755
-8.566725E-4
-8.283483E-4
6.136261E-4
0.0016864227
-6.5961294E-4
-0.0013758636
0.0017798096
0.0023502859
0.0015014444
0.0027336099
0.0017472499
-5.6575856E-4
-0.0012032836
-0.0020251116
-0.0017347812
-0.0011434759
-0.0016325044
5.944396E-4
0.0022556535
2.0150957E-4
-4.013004E-4
3.5803733E-4
8.091889E-4
5.6332623E-4
-0.002227625
-0.0029711565
1.1977651E-4
0.0014299055
2.3933349E-6
-0.0015907694
-0.0018465105
-0.0012772805
-9.914372E-4
-4.4159818E-4
5.774073E-5
5.286825E-4
0.0015562278
0.0015487004
-5.426308E-4
-0.0028095688
-0.0024992002
1.1799975E-4
0.00176497
0.0013623154
9.6559094E-4
7.91918E-4
2.200827E-5
1.4378154E-4
7.5132976E-4
9.32138E-5
-0.0010062318
-0.0021831398
-0.0019333076
0.0020501637
0.0054277363
0.0028921163
-0.0012994974
-0.0012022828
6.147417E-4
6.647063E-4
-1.4415532E-4
-3.5349728E-4
-5.3281332E-5
-9.136261E-4
-7.9339556E-4
-3.669035E-4
-0.003737899
-0.0026897013
0.0033689395
0.0019811802
-0.0023054658
-0.0017777268
2.6813702E-4
0.0011521655
3.8245682E-5
-9.902237E-5
6.328503E-4
6.0436194E-4
9.075851E-4
-0.001572195
-0.00273808
9.962331E-4
0.002964736
0.0025446545
0.001056862
2.4270084E-4
0.001833491
8.4986154E-4
-0.0015572857
-8.3008385E-4
3.6895255E-4
-0.0014589729
-0.003473937
-0.0014316409
2.680637E-4
-1.6226E-4
-1.21341014E-4
-9.863664E-4
1.168099E-4
0.0016638659
-3.1283777E-4
-0.0015356682
-0.0013404466
-6.946835E-4
-2.987798E-4
-8.3432824E-4
5.150733E-4
0.001529065
7.5886655E-4
8.478315E-4
0.0014200793
0.0013499685
9.0701156E-4
0.002017297
0.0030831709
0.0021331667
7.5500354E-4
-4.7264012E-4
6.288929E-4
0.0014843958
-1.8567557E-4
-0.0011319106
-0.0038073682
-0.004296006
-3.6372922E-4
-6.1879866E-4
-0.0018901611
-9.442447E-4
-9.2647097E-4
-4.7868586E-4
1.0414298E-5
6.178192E-4
-0.0010631437
-0.003648244
-0.0017206295
-7.014635E-4
-6.23276E-4
0.0016642188
0.0016627588
0.0017940925
0.0028479802
0.0015034262
-1.558089E-4
-2.935223E-4
0.0011113172
0.0015343936
5.917405E-4
0.0010863016
0.0010210725
-8.67942E-5
0.0012557359
0.0024222122
-4.6509606E-4
-0.0022933236
-6.525373E-4
-3.9985203E-4
-9.5803005E-4
-0.0010749514
-3.3612206E-4
0.0015350039
0.0010066922
0.0010976298
0.0014330478
-0.002528561
-0.0039151
-0.0019988746
-8.173491E-4
9.0247404E-4
1.706152E-4
-8.58126E-4
5.7149946E-4
7.73332E-4
3.9848714E-4
-2.6205872E-4
-7.620033E-4
5.20165E-4
6.4624095E-4
-8.480436E-4
-0.0010667831
9.2054885E-5
-1.4652916E-4
-0.0014162263
-7.1846356E-4
-9.135908E-5
-8.580301E-7
0.0012188262
9.211492E-4
7.213605E-4
0.0025362256
0.002040797
-5.603049E-5
1.415931E-4
2.0082832E-4
-0.0011446475
-2.6949536E-4
0.0011690377
5.045022E-4
0.0010600111
0.0011446984
-9.939934E-4
-6.5622514E-4
-1.0573494E-4
-0.0016481391
-0.0013690179
-2.0193435E-4
-4.9276063E-5
-4.9080496E-4
-2.7545402E-4
0.001216072
0.001391684
8.744786E-4
3.0175486E-4
-0.0019150048
-0.0029595545
-0.0022312102
-0.0015674029
-4.2179794E-4
8.2471693E-4
9.024655E-4
-2.3370118E-4
4.8904005E-4
0.0018970947
3.0703683E-4
-9.928145E-5
6.476016E-4
-8.701362E-4
-9.507071E-4
7.94603E-4
0.0010606901
-5.938553E-4
-0.0011662405
9.575978E-4
0.0015380853
2.0526853E-4
-1.8204219E-4
-2.0769578E-4
-4.6203873E-4
-0.0010821684
-7.480093E-4
6.029637E-4
0.0015882312
0.0012497959
-0.0012182972
-0.0013752186
9.4701856E-4
0.0012961591
0.0011283149
-2.9107902E-4
-0.001396379
2.4230679E-4
6.9872587E-4
4.3255417E-4
-7.048001E-4
-0.0016522161
1.4273595E-4
-4.3564287E-5
3.3090884E-5
8.835208E-4
-0.002256582
-0.0023177597
0.0013790979
0.0026242323
0.0025244914
7.9201703E-4
-0.0014339612
-0.0020669599
-0.0015086181
-6.2030675E-5
6.0668597E-5
1.6411237E-4
6.3169695E-4
-0.0014795673
-0.0015620984
0.0019854358
0.0026386238
7.124461E-7
-0.0018445193
-0.0012778839
4.997981E-4
0.0017002992
0.0017923332
-3.6340678E-4
-0.0018598717
-2.7827182E-5
-1.5991078E-4
-0.0020914907
-0.0011534094
2.6864436E-5
1.2342611E-4
6.426912E-4
7.6286803E-4
3.09393E-4
7.1834406E-4
0.0028047208
0.003364456
8.644509E-4
-3.2106956E-4
4.15563E-4
-9.9302895E-5
-0.0011210181
-0.0010373361
-0.0011040543
-0.001560447
-8.1148045E-4
3.251223E-4
3.4139655E-4
-2.447409E-4
-1.9993731E-5
5.6751276E-4
-0.0012936646
-0.0029627671
-7.0879154E-4
0.0013325906
0.0012354172
1.75378E-4
-0.0010573033
4.1997354E-4
0.0013007832
-9.1351324E-4
-4.997201E-4
0.0020241083
0.00212759
-1.12184796E-4
-0.001658915
4.679176E-4
0.0013217109
-7.7305664E-4
3.2645083E-5
8.699179E-5
-7.1253994E-4
0.0014941087
5.3169654E-4
-0.0015467587
-9.455188E-4
-0.0012706412
-2.2431463E-4
8.3351904E-4
-8.877014E-5
1.9074275E-4
-9.64753E-5
-8.2250003E-4
5.067513E-4
0.001880874
4.4357686E-4
-0.0011082614
2.10421E-4
5.638486E-4
0.0012313394
0.0021777817
-7.7124784E-4
-0.0015447778
-2.7193734E-4
-4.818987E-4
6.623634E-5
-0.0013879755
-0.0016947003
-5.315246E-5
-4.6564624E-4
1.1114166E-4
-5.004486E-4
-5.3597236E-4
0.0019294576
4.1281685E-4
-5.0476356E-4
0.0012651635
3.6698597E-4
-3.7634268E-4
3.8113026E-4
3.437705E-4
-3.1804325E-4
-5.86705E-4
-0.00112383
-9.346258E-4
0.0012661126
0.0018576399
0.0013670818
0.0011477048
-1.8181968E-4
-6.342381E-4
-7.0823747E-4
2.0848367E-4
1.8281417E-4
-0.0025211102
-7.189508E-4
0.001221788
-0.0011929063
-7.789765E-4
2.2899265E-4
2.1096368E-4
0.001103444
0.001264505
0.0014549142
8.0983195E-4
1.15391274E-4
-2.7424176E-4
-0.0013142964
-4.9869396E-4
3.276301E-4
2.8907025E-4
7.070861E-4
1.5470154E-5
-0.0011442228
-0.0017570488
-6.28536E-4
4.0849394E-4
-8.4800395E-4
-5.994123E-4
5.697919E-4
5.2944093E-4
5.5384525E-4
2.5464784E-4
4.858152E-5
-4.8341995E-4
-6.904906E-4
2.856976E-4
2.884792E-4
-7.305674E-5
-1.2939236E-4
7.394014E-4
0.0020029251
3.1942967E-4
-0.0011581173
-4.137186E-4
-7.5011863E-4
-9.099481E-4
-3.449312E-4
-1.6052747E-4
7.955178E-4
0.0014741126
2.3907954E-4
-6.916378E-4
4.2475536E-4
9.0628915E-4
3.206497E-5
-3.0472883E-4
-3.2542623E-5
4.21436E-4
-2.588798E-4
-0.0012395142
-9.0245786E-4
-4.6505654E-4
0.0010624459
0.002165799
-2.6449357E-4
-0.001859889
-3.1323545E-4
-7.700125E-5
-0.0015383012
-7.839824E-4
4.478443E-4
-0.0011221467
-0.0015577704
1.14816496E-4
3.3800871E-4
-1.482058E-5
2.5756992E-4
0.0011748048
0.0019480063
0.0014496777
9.51306E-4
8.6010236E-4
0.0010399289
0.0013050656
9.284293E-4
4.7424226E-4
7.903984E-4
0.0024041964
0.0020591186
-0.0016628316
-0.0031233619
-0.0029538732
-0.0038493448
-0.0019253978
0.0014420003
0.0025492813
0.002335954
5.8689277E-4
-0.001977832
-0.0015298186
-3.8862965E-4
-0.004090111
-0.006277379
-0.0019887637
3.2201016E-4
-1.8305912E-4
0.0013851079
0.0023168824
0.0021383748
0.0023888836
0.0016979013
-3.578404E-4
-8.399738E-4
0.0011842867
8.778046E-4
1.3728281E-4
0.0015178713
-3.577097E-4
-0.0013906327
0.0016986106
0.0022861226
7.253682E-4
-4.0130716E-4
-5.294596E-4
2.4956776E-4
2.3835906E-5
-2.6166072E-4
-5.557497E-4
-7.207818E-4
-8.86764E-4
-0.001441687
9.4123563E-4
0.002241671
4.063112E-4
0.0013077115
5.0059304E-4
-0.0022464602
-7.6859916E-4
-7.771938E-4
-0.002080626
5.443644E-4
8.260065E-4
-0.0017401782
-4.894155E-4
0.0017146665
0.0012150392
1.1015614E-4
-4.9212377E-4
1.2996295E-4
6.557328E-5
-0.0018595827
-0.0013590134
2.2014932E-4
-5.509474E-4
-0.0013989336
-0.0017026679
-3.6084375E-4
0.00257862
0.002584404
1.5962365E-4
-9.3108136E-4
-3.775295E-4
0.00111998
0.0019712301
4.425353E-4
-0.0012806013
-7.321916E-4
2.926125E-4
1.6029007E-4
-0.0012090838
-0.001836685
3.82422E-4
0.0015454573
7.6624885E-4
7.7877275E-4
1.2238558E-4
5.3155975E-4
9.94179E-4
-9.038276E-4
-4.5995385E-4
4.4594865E-4
4.0517817E-4
0.0014705473
-9.0813404E-4
-0.00193915
0.0017884623
0.001444057
-0.0011029356
-0.0010185904
-9.786348E-4
-0.0012195193
-3.610332E-4
0.0015788111
0.0012798728
-4.9965194E-4
7.983429E-4
0.0016535578
4.9383692E-5
-0.0014361229
-0.0021551228
-9.1998256E-4
-4.4531782E-5
-7.9474034E-4
-6.691226E-4
-4.61658E-4
-1.2357271E-4
0.0010051301
5.091799E-4
-0.0011499197
4.0370418E-4
0.0028998754
9.53374E-4
-9.642179E-5
0.0011029443
-6.431915E-4
-0.0012834502
-8.5364684E-4
-0.0018293756
-0.0013289461
-8.112693E-4
-6.0749822E-5
9.2118204E-4
0.0012161185
0.0017751371
-3.0324815E-4
-0.0015908172
5.820478E-5
-2.8160555E-4
8.7448733E-4
0.0030469024
7.715225E-4
-0.0015209961
-6.948111E-4
-1.8742766E-4
-6.7728607E-4
3.1722148E-4
0.0013958396
1.05189E-4
-0.0013103846
-4.1990945E-4
0.0017414488
0.0014084132
5.914516E-5
9.876791E-4
3.8308292E-4
-8.8418677E-4
-4.4182618E-4
-1.7109019E-4
5.591086E-4
-2.2316509E-4
-9.206917E-4
3.653856E-4
-7.840532E-4
-0.0021748745
-0.001960229
-8.584461E-4
0.0013402165
0.0013655018
7.6988764E-4
7.8491867E-4
3.0127374E-4
-2.5932337E-4
-0.0019697498
-0.0013214551
5.838823E-4
-6.858637E-4
-0.0020184661
-0.0022716515
-5.4580835E-4
5.8188254E-4
-0.0014870114
2.081436E-4
0.003278668
0.002069216
4.706947E-4
6.6760875E-4
0.0020750503
7.372636E-4
-0.00179892
-2.3901518E-4
8.6051563E-4
8.029865E-4
0.001844257
0.0012120662
3.066797E-4
-4.505713E-4
-0.0015915052
-3.0776058E-4
0.0016636467
9.086028E-4
-5.507416E-4
-5.6663976E-4
3.6484332E-4
0.0010961721
-0.0010041053
-0.002089769
6.4307026E-4
-5.6747155E-4
-0.0021964547
3.5484644E-4