-6.8353076E-4
-1.2767997E-4
-9.410828E-4
2.2935675E-4
-0.0010052555
-0.001235883
7.29782E-4
1.468122E-4
9.934875E-4
0.0017421542
7.668341E-5
-0.0010813975
-7.467478E-4
0.0022166194
0.0025270479
-4.709938E-4
-0.0010513345
-0.0019857243
-0.0026100145
-8.20287E-4
8.3655014E-4
0.0018607633
4.8332126E-4
-2.485883E-4
0.0020835286
0.0016012066
-0.0016534951
-0.0033850784
-0.0029642165
-0.0019619656
-0.00188773
-0.0012919392
2.1781433E-4
0.0010645206
1.5218671E-4
-0.0013663442
-2.8001857E-6
0.002362158
0.0018230175
2.930542E-4
-2.4178064E-4
-5.472528E-5
9.2025247E-4
0.0019719405
0.0019229089
0.0010431407
3.6371776E-4
5.997887E-4
0.0014677407
0.0010300305
1.7322793E-4
0.0011136864
0.0015694293
0.0010035695
0.0010875631
3.7523638E-4
-0.0012690172
-0.0018281038
-0.0013284235
-0.0014816737
-0.0017547914
-0.0010860148
-8.1899384E-4
-4.0198414E-4
3.228806E-5
-4.936406E-4
-4.7856258E-4
-0.0011237743
-9.058691E-4
0.0017527203
7.5873476E-4
-0.0021870357
-0.0012265913
3.0100887E-4
6.915019E-4
9.026809E-4
4.965882E-4
7.0526556E-4
6.485335E-4
-0.0010647093
-0.0016168494
8.249188E-5
6.296734E-4
-1.2715417E-4
-0.0010043747
-0.0022676126
-0.0012083419
5.818618E-5
2.3676196E-4
0.002867485
7.9818565E-4
-0.004777347
-0.0018823465
0.0022385928
0.0012786782
0.0017611756
0.0025021671
0.0019370009
0.0012367249
-4.293407E-4
-9.799042E-4
4.54398E-4
0.0019838389
0.002222417
0.0012154608
8.1389264E-4
6.072703E-4
-7.217666E-4
-5.463259E-4
7.747218E-4
-5.5444194E-4
-0.0016087525
-0.001168944
-0.0022811666
-0.001904291
-0.001411848
-0.0025171572
-1.2989547E-4
0.0014687112
4.0641162E-4
0.0013971776
5.0638727E-4
-8.656655E-4
0.0011664463
0.0014944173
-4.663372E-4
-0.0013342702
-8.0484856E-4
3.908928E-4
8.2179916E-4
-0.0010613172
-0.0028184846
-3.436951E-4
0.0012783257
-6.66513E-4
3.92625E-4
0.0019435221
7.029299E-4
3.6642567E-4
1.4267475E-4
-4.0737857E-4
-0.0010981571
-0.0019154726
-2.1950476E-4
0.0010826169
-5.0683285E-4
-3.4243808E-4
0.001490969
0.0011535833
0.0011389073
0.0021472208
-5.996844E-4
-0.0040436704
-0.0016208591
0.0024576248
0.0011570142
-0.0021659527
-0.0018364529
-0.0011925271
-4.67535E-4
0.002752654
0.0023833162
1.5370916E-4
6.352747E-4
-0.001229001
-0.002189137
8.540935E-4
0.001105423
2.1504102E-5
0.0018145654
0.002448893
1.4468853E-4
-0.0011495461
-7.060041E-4
-2.9138784E-4
8.7820133E-4
0.0017192685
4.397853E-4
-0.0012370974
-5.5129715E-4
0.0013475434
1.7978334E-4
-0.001589787
-5.5700005E-4
1.0004761E-4
1.5013464E-4
3.667875E-6
-7.213043E-4
-7.0279883E-4
-8.2314695E-4
-5.8562274E-4
-1.4330701E-4
-7.502742E-4
-0.00177614
-0.0020573256
6.474491E-4
0.0019175276
-3.712425E-5
9.355352E-4
4.944916E-4
-0.0018454508
1.6544205E-5
1.38669E-4
-0.0021243542
-0.0017110972
-4.7348414E-4
9.230848E-4
0.001958907
0.0023967214
0.0024384316
6.919168E-4
-5.388338E-4
1.8933413E-4
3.0468896E-4
-5.4056186E-4
-1.4534855E-4
0.0012147052
9.930017E-4
-0.0012273311
-0.003134204
-8.895477E-4
0.0032798361
0.0025674864
7.74899E-4
0.0018696893
2.2964028E-4
-0.0024691264
-0.0012560864
-2.2003753E-5
-7.1418914E-4
-1.7361667E-4
4.3242224E-4
-9.14267E-4
-9.088048E-4
0.0012472701
0.001247547
-0.0010518337
-0.0012779146
3.5654532E-4
-4.4264414E-4
-0.0021178166
-0.0012067254
-6.249801E-4
-0.0012188394
-7.222698E-4
-3.7584177E-4
-6.1247716E-5
4.930903E-4
-9.792269E-6
8.0758496E-4
0.0023955605
0.0015906031
6.279079E-4
2.1098833E-5
-7.19915E-5
0.0018747177
0.0023168442
0.0019393782
0.001709255
-0.0011715125
-0.0012827839
5.6037505E-4
-0.002173476
-0.003146993
-3.167115E-4
5.888634E-4
5.880745E-4
-1.4298172E-4
-0.00211532
-0.0013142093
1.8668373E-4
-0.002815259
-0.0037757105
6.4056116E-4
0.0016463398
8.0856885E-4
0.0019596352
8.079062E-4
-1.693836E-4
6.28743E-5
-3.2950923E-4
0.0012015586
0.0030093894
0.002251425
-8.204255E-4
-0.0019566582
0.001042949
0.0014334565
-6.3416053E-4
7.217684E-5
5.83438E-4
-1.7941483E-4
6.691613E-6
-1.722575E-4
-0.0025601801
-0.004543728
-0.0030872945
-6.301375E-4
0.0012186655
0.0017871363
0.0011193209
0.001591608
8.981229E-4
-2.6361004E-5
0.0018337882
0.0016193709
1.331288E-4
0.0010978653
0.0012025958
-1.0292622E-4
-0.001429527
-0.0021011268
-2.7858504E-4
0.0021831978
0.0016156348
-4.299901E-4
-4.3905032E-4
-9.67949E-5
-6.059818E-4
-1.5885643E-4
-3.2182178E-4
-9.867685E-4
-0.001064668
-0.0021112063
-0.0014683865
5.6482974E-4
-7.120574E-4
-0.0021809344
-6.4090773E-4
1.4752819E-4
-4.1023683E-4
0.0010807528
0.0024774263
6.100398E-4
-5.356106E-4
3.73173E-4
9.912051E-4
0.0020209143
0.0010574041
-0.0016363801
-0.0014819042
-3.803535E-4
1.8643116E-4
6.892564E-4
5.4527944E-5
4.2123295E-4
4.9334706E-4
-0.002228319
-0.002371627
0.002000596
0.003298726
-4.7247787E-4
-0.0018766003
-9.800902E-5
1.6684378E-4
-2.9182967E-4
-5.617234E-4
-2.2943407E-4
7.7629124E-4
5.609988E-4
0.001104068
0.0016707886
6.973341E-5
-2.084631E-4
2.6690914E-6
-7.2325085E-4
-3.477841E-5
2.4771897E-4
9.109734E-5
0.0012219301
0.0013079261
5.876965E-4
2.9519177E-4
-0.001180868
-0.0016235672
3.0152962E-4
4.1019465E-4
-3.647223E-5
8.620468E-4
-6.3712645E-4
-0.0020843023
-6.8908266E-4
3.6669552E-4
5.205974E-4
-5.216888E-4
-0.0011886945
1.3120977E-4
-6.485561E-4
-0.0017520894
-8.759253E-5
-2.050179E-4
-0.0014226426
-4.990606E-4
-5.717526E-4
-0.0014074786
6.701605E-4
0.0015554124
-0.0014460435
-0.0017567046
3.0751913E-4
3.0316392E-4
0.0010741276
0.002767418
0.003513187
0.0029073956
9.218291E-4
4.9500243E-4
6.611339E-5
-0.0012886785
-1.5851612E-4
-1.8300599E-4
-0.002007376
-9.4839674E-4
2.2677118E-4
-3.2680944E-4
6.667197E-4
0.0015463167
-7.9570885E-4
-0.0020200957
7.846124E-6
0.0010342279
0.0012757189
9.62091E-4
2.6571963E-5
9.978341E-4
1.3640778E-4
-0.0019790789
-1.7268673E-4
6.3412945E-4
-0.0010456779
1.34504435E-5
0.0011675805
-0.0013092003
-0.0019575155
0.0020756084
0.0027311621
-9.912729E-4
-0.0016579821
-0.0011491553
-0.0019357215
-0.0011936866
-5.494361E-4
-9.7111403E-4
-1.1216741E-4
8.9627685E-4
-2.232371E-4
-0.0012036889
1.5691947E-4
0.0010016923
6.912208E-4
0.0014087385
0.0013116427
-4.5457805E-4
-0.0013782127
2.0592893E-6
0.0020935156
0.0012791838
-1.9148976E-4
6.197983E-4
4.972552E-4
2.0104303E-4
-4.0906067E-5
-0.0012167749
-5.282241E-4
-0.0012214247
-0.0021951764
-3.6146422E-4
-0.0012309817
-0.0015241373
3.084056E-4
7.8459125E-5
0.0016610886
0.0026126395
6.539376E-4
-2.2018988E-4
3.9938762E-4
0.0018144338
1.07192296E-4
-0.0013449867
0.0013760506
5.47433E-4
-0.001905442
-9.806857E-4
5.2019855E-4
0.0011908421
4.161566E-4
3.8345947E-4
6.123448E-4
3.299813E-4
4.7164285E-4
-0.0015777828
-0.0015955997
7.997004E-4
7.479329E-5
-3.5014222E-4
9.773371E-4
0.0017427022
2.8214284E-4
-0.0011902591
-4.346664E-4
-0.0026703575
-0.0029464266
0.0013925213
4.8808884E-4
-0.0021993008
-0.0016980194
8.77083E-5
0.0018340357
7.579021E-4
7.9518644E-4
0.0020131196
2.3282874E-4
-0.0015098806
-0.0024180065
-0.0019291666
-5.067801E-4
-7.8239676E-4
-0.0010823616
-0.0013101272
-7.414899E-4
7.9766597E-4
0.0010490463
0.0021853752
0.004185461
0.004007155
0.0011085301
-0.0011954525
-7.4436764E-5
-9.256231E-4
-0.0038059966
-0.0022984564
0.0011148774
0.002858526
0.0020351917
1.515674E-4
3.8060758E-4
2.1034927E-4
1.6241868E-4
7.481278E-4
-0.0017892808
-0.0027168777
-1.2350144E-4
9.89966E-4
3.2022278E-4
-0.0018809271
-0.0024692372
9.225085E-6
0.0010406177
0.0014653641
0.0020681808
0.001392746
3.6539044E-4
-0.0018169297
-0.0027851942
-9.4191864E-4
4.294406E-4
8.8985526E-4
4.2017127E-4
4.0702216E-4
0.0013850539
-1.690389E-4
-0.0010933157
9.2293124E-4
0.0010800348
-6.597813E-5
-5.470165E-4
-9.413511E-4
-3.7650752E-4
4.3933518E-4
8.036754E-4
2.2254746E-4
-0.0010802484
-0.0010731561
-9.888175E-4
-8.368603E-4
3.4525956E-4
-1.2016925E-4
-0.0015658275
-0.0025204644
-0.0019081188
6.123658E-4
0.0011291247
0.002129108
0.003500405
9.789045E-4
0.0021184003
0.0047156774
0.001839891
4.394063E-4
-0.0014981796
-0.005100036
-0.004667748
-0.0039040816
-0.0022141738
-4.6302215E-4
-0.001112832
0.0017628932
0.0037913262
0.0014863586
0.0013820359
0.0024471814
0.002178344
-1.4243364E-4
-0.0039325445
-0.0058385828
-0.007136988
-0.0066186315
-0.001104721
0.0039222394
0.0048120627
0.005865015
0.007241333
0.0058835354
0.0051256847
0.005539537
0.0033763282
0.0025860437
0.004147126
0.001873857
-0.0037867657
-0.008565648
-0.00952992
-0.006139975
-0.0024529565
-0.0017164446
-0.0026912938
-0.0019635751
-2.8850642E-4
-7.136267E-4
-0.0012095603
-0.0018227972
-0.0029358964
-8.9735095E-4
0.0014439574
0.0017217601
0.0018011845
-2.4744018E-4
-0.002477469
-0.0026780348
-9.6315524E-4
0.0043702703
0.006551743
0.0032852807
0.0031048798
0.003992208
0.003051311
0.0032404112
0.001665951
-6.830552E-4
-6.6398253E-4
-3.7804444E-4
-9.639042E-4
-0.0033810183
-0.0046887766
-0.0031406188
-0.0038384618
-0.0044521187
-0.002959464
-0.0029079912
-6.3920807E-4
0.0032168399
0.00402001
0.004157451
0.0052638
0.006843518
0.0069372766
0.0056830323
0.0042199185
-6.368017E-4
-0.005435904
-0.008244212
-0.0119497115
-0.011192841
-0.007225746
-0.003285533
0.0029932072
0.0066716587
0.0072207637
0.004373933
-0.0026696578
-0.004293892
-0.002511416
-0.0030610058
-0.001404533
0.0015485152
0.005015982
0.0068251165
0.0047808494
0.004854789
0.00489191
-6.3139894E-5
-0.0053065894
-0.0046564126
0.001944866
0.0054226913
0.003045958
0.0017810889
8.7481155E-4
-0.0012837297
-6.597485E-4
0.0015592539
0.0014606265
3.8940148E-4
-0.0021595624
-0.009742096
-0.01628484
-0.014620048
-0.009123596
-0.004554297
-0.0012417225
0.0012460161
0.0036844388
0.0061468054
0.008735595
0.008987171
0.0047617713
0.0019076578
0.005343197
0.007685786
0.0015668776
-0.0060781874
-0.00710433
-0.003711893
0.0013219991
0.006915997
0.009691422
0.0065010004
-0.0018970431
-0.0071228137
-0.0033371511
0.0019445835
0.0037682503
0.0049272403
0.0040360447
0.0029235194
0.0028148412
-0.0014059852
-0.006096478
-0.009391302
-0.013640926
-0.011096318
-0.003016624
0.0011965567
9.44453E-4
-0.0019563395
-0.0043088086
-0.006278402
-0.007080067
-0.0017625687
0.0036475507
0.0043346514
0.003195204
0.0021597904
0.0054000844
0.009551547
0.008402433
0.0026481284
-0.0032450294
-0.0030766341
-0.0013304102
0.0018998428
0.011374699
0.013673444
0.009162338
0.008697707
0.007847364
0.008496159
0.0042388276
-0.012359119
-0.024300573
-0.02400058
-0.01674019
-0.007891288
-0.0036698047
8.025608E-4
0.0061329207
0.0074574193
0.0068509323
0.003504935
-5.1882846E-4
-0.001533533
-8.0490124E-4
0.0015362147
0.0031493087
0.0016244581
-0.0013868007
-0.0018517163
2.4600266E-4
3.482648E-4
0.0025043811
0.008420071
0.011258111
0.011412606
0.0096123135
0.003949375
-0.0059056166
-0.016487794
-0.0184291
-0.014173953
-0.0120876115
-0.010035012
-0.006676546
-0.002469781
0.0021065022
0.003959452
0.0016855847
-0.0017680615
-0.0037456036
-0.007764949
-0.010157957
-0.0044033625
0.0048121936
0.0143949
0.019844308
0.019208886
0.014707971
0.0018656128
-0.009987902
-0.011251953
-0.0073908344
-1.5186629E-4
0.0059580985
0.011503187
0.019773494
0.026286472
0.028133364
0.017714838
0.004640085
0.0039974097
0.0011989344
-0.0096874265
-0.020875243
-0.028761927
-0.027052745
-0.01927024
-0.009494538
0.0013574767
0.008199211
0.009870664
0.006402762
3.8606676E-4
-0.0059095095
-0.009866596
-0.008540862
-0.009139766
-0.014037256
-0.019683557
-0.025691284
-0.02834607
-0.025676344
-0.015383642
-5.818812E-4
0.009828855
0.015619581
0.017598107
0.019257665
0.021422913
0.018974954
0.02178145
0.034854345
0.04284381
0.035333723
0.020390335
0.011424465
0.0011186093
-0.020867713
-0.03575642
-0.029329835
-0.016503014
-0.005191253
0.006420529
0.009145895
0.008878814
0.018063126
0.022869997
0.008495615
-0.022866663
-0.050517228
-0.057864737
-0.05556397
-0.04726297
-0.040035017
-0.03735622
-0.016073804
0.010389099
0.028240746
0.0480058
0.05099996
0.053465616
0.07255246
0.0739493
0.060792547
0.043762084
0.015961926
-0.008857202
-0.023503812
-0.020205226
-0.0036216264
0.005089238
0.0032456336
-0.0015154518
0.00485935
0.004353618
-0.03125234
-0.06620112
-0.07361504
-0.06679058
-0.04792168
-0.03400967
-0.039115224
-0.04441115
-0.041240133
-0.03472925
-0.021874081
-0.005752527
0.011980479
0.027885702
0.018396948
-9.00636E-4
0.010101439
0.033852786
0.052970268
0.071386494
0.07753591
0.08505034
0.101227246
0.09645727
0.063087665
0.028288698
0.010146808
-0.0059322156
-0.01697354
0.0027006564
0.030243142
0.028636111
0.0014798382
-0.035405938
-0.06829826
-0.089366846
-0.10195226
-0.10795148
-0.09986321
-0.08340682
-0.07038588
-0.031237038
0.04149139
0.0777721
0.03950799
-0.022805706
-0.038350064
-0.005901298
0.0131073445
0.015379491
0.02175982
0.01802769
0.024787672
0.030351993
0.012403676
0.017468989
0.028887942
0.0268698
0.044728655
0.03266487
-0.03387337
-0.09744779
-0.121223
-0.08601249
-0.004680449
0.09726717
0.17224927
0.15829223
0.102031626
0.074015036
0.038203042
-0.039256696
-0.09974466
-0.09870495
-0.0756105
-0.037728842
0.021149337
0.056577303
0.07530485
0.083247535
0.03864446
-0.037918676
-0.08710595
-0.081918895
-0.05209775
-0.06313931
-0.10251154
-0.099004105
-0.07505107
-0.06812061
-0.042410657
-0.022593306
-0.0182502
0.025372896
0.09688203
0.18750085
0.23859607
0.18956426
0.1315743
0.071000874
-0.017877283
-0.06462251
-0.079612546
-0.07756774
-0.094386466
-0.16546081
-0.19879271
-0.16171777
-0.084971674
-0.0062066955
0.02221925
0.028173074
0.048079405
0.093573496
0.113918364
0.0636384
0.026404273
0.0075057526
0.0028220695
0.050696105
0.049429014
0.006322641
0.006740887
0.02907112
0.10438239
0.20085712
0.22991093
0.197242
0.09338522
-0.065272234
-0.19995795
-0.25535315
-0.2288695
-0.17940876
-0.14273416
-0.11110978
-0.08546072
-0.06310032
-0.046874754
-0.034173295
-0.016055875
5.39996E-4
0.015808584
0.03172153
0.044835813
0.058305554
0.072337635
0.0833512
0.086713575
0.08322961
0.078654505
0.070517145
0.05760536
0.04415448
0.028975584
0.012127259
-0.0020343917
-0.013988109
-0.02376858
-0.02855065
-0.030376162
-0.031215508
-0.030912243
-0.030514833
-0.02739114
-0.020865142
-0.016221492
-0.0126225855
-0.0070495172
-0.0034229683
-0.0016026866
0.0027605682
0.007665207
0.008342778
0.0051754797
0.002833446
0.0010608603
-0.002577114
-0.0060757934
-0.0087692235
-0.0107962545
-0.012173981
-0.013174041
-0.012634451
-0.011647599
-0.00890494
-0.0030278678
0.002530476
0.007398162
0.011371104
0.015017864
0.018320609
0.017315095
0.015064938
0.013959417
0.011091656
0.008312167
0.006797509
0.0048774835
0.0013327578
-1.4744971E-4
0.0029096624
0.0012944866
-0.0040567173
-0.004140845
-0.00505585
-0.0074760597
-0.006371649
-0.0072925803
-0.008576328
-0.005574374
-0.0048390436
-0.009043984
-0.010262083
-0.0048421533
-3.0799E-4
9.626529E-4
0.003045371
0.0030792828
0.001976783
0.003822869
0.005589489
0.004331917
5.473996E-4
-1.5855461E-4
0.0014008041
-2.838943E-4
0.0010406023
0.0037946992
0.0054374896
0.010247059
0.008462015
0.004053691
0.004695321
-2.454479E-4
-0.0049889004
-0.0046063624
-0.003457204
4.121974E-5
-0.0013949999
-0.004899502
-0.0038833478
-0.0038367456
-0.0024474645
-1.200818E-4
-9.248372E-5
-0.0010987661
-0.0011338842
0.002915231
0.0020630695
-0.00439277
-0.0031713904
4.2123464E-4
-4.7135894E-4
-5.378047E-4
4.793319E-4
5.4557127E-4
7.054473E-4
8.8226126E-4
3.1199117E-4
0.0010751706
0.0012501325
-7.103657E-4
-1.3887906E-4
4.8157774E-4
-2.2534017E-5
0.0012857247
8.476747E-4
-7.6419755E-4
-0.0020147685
-0.0030980806
-0.0018296783
5.120351E-4
0.0023544203
0.0014354159
-5.9912016E-4
4.422155E-4
5.5331027E-4
-2.8370053E-4
4.5797712E-4
5.440104E-4
0.0011489732
0.001888522
0.0011668343
-5.5788027E-4
-0.0019836067
-7.001106E-4
-1.8257898E-4
-0.0024154817
-0.0020407783
8.486763E-4
0.0010187287
-0.0018623754
-0.0029460764
-0.0011689189
-4.7261745E-4
-6.505871E-4
6.185173E-4
0.0016542026
4.927174E-4
-9.81219E-4
-3.33913E-4
6.744104E-4
4.7771976E-4
3.9307924E-4
2.0501213E-4
-2.7155175E-4
-1.3832567E-4
-1.2360078E-4
-1.7041893E-4
-1.9517716E-4
-6.0195127E-4
-7.68145E-5
-3.4538528E-4
-0.0012961155
6.01768E-4
0.0013993647
8.9648864E-5
6.700158E-5
-6.5228116E-4
6.490138E-5
8.9775195E-4
-8.937948E-4
5.5858196E-4
0.0013221492
-5.0118496E-4
0.0010954499
3.360645E-4
-0.0019163962
-6.1412394E-4
-5.74527E-4
1.9206318E-4
0.0030204335
0.0039092554
0.0026684923
-5.521155E-4
-0.0029755968
-0.0027410656
-0.0018693858
-0.0023110018
-0.0033128466
-0.0010231021
7.958238E-4
-0.0011687209
-0.0013467491
-1.3949275E-4
8.1782264E-4
8.572459E-4
-0.0012998511
-1.2273212E-4
0.0016325942
-0.0016867816
-0.0035989417
-0.0016741597
9.53378E-4
0.0022340587
0.0010059311
-3.4547038E-4
-0.001304689
-0.0013439198
0.0011229127
0.0020919172
1.5349723E-4
2.2972473E-4
0.0015400589
-3.39968E-4
-0.0016157309
5.673166E-4
0.0012674312
1.4991433E-4
-2.2419645E-4
-1.5079317E-4
8.432122E-4
0.0024775846
0.0039498173
0.0032709965
-5.5143994E-4
-0.0029822493
-0.0020013885
-8.337673E-4
-2.999721E-4
4.5271413E-4
-1.6339553E-4
-0.0015545188
-0.0012688567
-0.0016747661
-0.0025711416
-0.0011106213
-1.598004E-4
-5.655963E-4
-0.0010653812
-0.0012920878
-7.991837E-5
-1.392322E-4
-0.001154803
2.57808E-4
7.129284E-4
-0.0013186382
-0.0015303035
-6.804348E-5
7.53109E-4
0.0026893963
0.003529348
9.897093E-4
8.7269524E-4
0.0029902244
0.0024775513
3.8904816E-4
-9.3961303E-4
1.251449E-4
0.0012021821
8.2707393E-4
-2.8898005E-4
-0.003327535
-0.0026070192
0.001773034
0.0014487038
-0.0017613752
-0.0039783237
-0.0028581044
7.865428E-4
0.0015696223
0.001565817
0.0016841964
-4.4643754E-4
-0.0012711475
4.8029097E-4
0.0011477978
-4.0089447E-4
-4.2686265E-4
2.497646E-4
-9.755953E-4
-1.3477157E-4
0.0013241
8.382649E-4
5.2464625E-4
-6.806705E-4
-3.9876267E-4
0.0015541759
6.9765426E-4
-5.9012586E-4
1.04390776E-4
0.0011838626
6.3625886E-4
-0.0021168978
-0.003562737
-0.0013620879
3.1144038E-4
-0.0015202453
-0.0013243867
0.0010502811
8.642838E-5
2.410909E-4
0.0018279684
3.3220287E-5
-3.9465417E-4
0.0017894648
0.0031501825
0.0033845024
0.0017764076
1.6584204E-4
-5.1120843E-4
-0.0013661118
-3.815354E-4
9.921773E-4
3.081598E-5
-1.9320977E-4
-3.339058E-4
-0.0030346704
-0.0042238096
-0.0032991045
-0.0023691226
-5.7910464E-4
1.0797696E-5
-3.4045425E-4
3.4487603E-5
6.9315534E-4
0.0018830547
7.6611433E-4
-6.771557E-4
5.31476E-4
-4.7609912E-5
-4.7314345E-4
0.0011259827
0.0016459175
0.0021149444
0.0014525654
6.246948E-4
0.0019212699
0.0023571602
0.0018714082
6.4419775E-4
-9.229805E-4
1.5700086E-4
8.547566E-4
-8.2086E-4
-2.2972071E-4
0.0013793252
-5.7169114E-4
-0.002659914
-0.0024180685
-0.00239012
-0.00197269
-0.0014314067
-0.0010349664
8.1789395E-4
0.001696689
0.0012712278
0.0012288414
5.373423E-4
-4.2091735E-4
-0.0015157327
-0.0014442757
-8.542125E-5
-8.9481875E-4
-0.0012833732
-3.012582E-5
-7.605608E-4
-5.913535E-4
7.316193E-4
-1.9158541E-4
-5.578369E-4
-5.2094634E-5
-5.2496116E-4
-1.8791712E-4
2.8713178E-4
2.2437476E-4
7.948307E-4
4.3860564E-4
1.8727358E-5
0.0013046187
0.0010013138
-2.6315477E-4
0.0014188002
0.0030356597
0.0012699519
-0.0011363284
-5.890836E-4
0.0012976851
9.965606E-4
9.443508E-4
0.0016389146
5.6970643E-4
1.8287318E-4
7.438337E-5
-1.5573346E-4
7.8673015E-4
-2.8671784E-4
-0.0013872971
-4.8643627E-4
-4.3392254E-4
-8.655747E-4
-0.0020460521
-0.0021258774
-2.6043726E-4
-2.0060934E-4
-0.0010393583
-0.0014899687
-8.7229244E-4
-5.4570753E-4
-0.002236202
-4.8496216E-4
0.0012202063
-9.854923E-4
4.658211E-4
0.0024280387
0.0013459565
-1.1669009E-5
-0.003004999
-0.0028849866
3.9595057E-4
2.2581665E-4
4.5851443E-4
0.0032480245
0.0032387273
9.028104E-4
5.296734E-4
8.284553E-4
-1.6566056E-4
-3.479226E-4
5.498843E-4
0.0011938906
6.663643E-4
-0.0010496875
-0.0015543827
2.5445226E-4
0.002151279
0.0016248404
5.157684E-4
6.1884755E-4
2.1374451E-4
6.5572077E-4
4.916974E-4
-0.0018770471
-0.0020282625
-0.0021785728
-0.0028796932
-1.8557667E-4
0.0017693462
0.0022775368
0.0024516794
2.1175864E-4
-5.0690817E-4
8.811688E-4
7.643311E-4
2.5176664E-4
-3.8528032E-4
-0.0017562854
-0.0018561566
-7.063994E-4
-8.277814E-4
-8.8177813E-4
2.4112005E-4
-0.0012076517
-0.0029645807
-6.436501E-5
0.0026364867
5.7544245E-4
-0.001829929
-0.0011335879
3.957787E-5
3.857721E-4
-7.3105075E-5
-0.0026122376
-0.0027133345
8.698794E-4
4.907766E-4
-0.0012683824
8.1843266E-4
9.292191E-4
2.637117E-4
0.003342932
0.0039252383
8.547796E-4
5.251835E-4
0.001985729
0.0019084866
0.001416784
0.0010067758
3.8051818E-4
8.951239E-5
4.693301E-4
0.0010969806
6.608047E-4
-1.6091908E-4
-4.5206607E-4
-7.2818634E-4
-2.7487506E-5
-1.412152E-4
-0.0022674114
-0.0027873819
-0.0022771384
-0.002208312
-0.0012323944
-1.3529793E-4
3.0693086E-4
-6.581044E-4
-7.646817E-4
0.0020323475
0.0018134185
-0.0026266314
-0.0047650677
-0.0026484714
5.06266E-4
9.107857E-4
-4.8700065E-4
-3.1974603E-4
0.0010056923
0.0017026867
8.7735825E-4
2.6076348E-4
0.0018874549
0.0036107718
0.0032848022
0.0020157625
0.0017984278
7.242596E-4
-0.004445319
-0.0078107053
-0.0033686238
0.0018968341
0.0027972495
0.0027806754
0.0013747393
-0.0010514376
-2.8259706E-4
0.0016108871
0.0018403473
0.0013793898
5.8858993E-4
1.7586768E-4
-4.3158233E-4
-8.509131E-4
-1.8776E-4
-2.0700369E-4
8.415466E-5
2.7992603E-4
-7.1845995E-4
-2.9539154E-4
-3.7755803E-4
-8.834161E-4
7.4491726E-4
0.0011891779
6.47711E-4
2.8218672E-4
-8.8177767E-4
-9.210207E-4
-7.8635145E-4
-0.0015299907
-0.00216977
-0.002596716
-0.0020746894
-0.0019941924
-0.002824151
-0.0026618177
-8.8971696E-4
0.0016043663
0.0019024563
0.0014319444
0.0031829847
0.003646819
0.0018246272
6.6508015E-4
5.1565225E-5
-9.4833365E-4
-2.978949E-4
0.002453517
0.00222455
6.310521E-4
0.0019572726
0.0010369852
-0.0011758481
-1.2254702E-4
6.4087636E-4
1.3961589E-4
1.1902462E-4
0.0013134846
0.0018775158
2.6562868E-5
-0.0010387691
-0.0019102623
-0.0017024991
7.6174695E-4
-8.431175E-4
-0.0023381591
2.598112E-4
5.3215993E-4
2.4550184E-4
2.476698E-5
-0.0015132606
-0.0012428347
-4.5792692E-4
4.386505E-4
1.16992895E-4
-0.0016131477
-8.8977773E-4
-4.526804E-4
-6.4962055E-4
-2.4064716E-4
-0.0018013025
-0.00243175
-0.0016578458
-7.993036E-4
3.7541523E-4
-5.8046164E-4
-5.631414E-4
0.0012665358
7.1961863E-4
4.1008394E-4
0.0020019247
0.0027756826
0.0019478855
9.283767E-4
3.6907822E-4
5.289152E-4
0.0026102604
0.0031163448
0.0012295579
0.0012918483
0.0012603824
6.946094E-4
5.143613E-4
-6.7928113E-4
-3.0471385E-4
-2.353131E-5
1.575632E-4
0.0025040088
0.0012177498
-0.002098088
-0.0026089596
-0.0032863938
-0.0030064576
-8.350687E-4
-5.102218E-4
-0.0018508598
-0.0011170083
4.4063196E-4
-3.520001E-4
-3.2303866E-4
-2.0239236E-4
-0.0018197324
-0.0015049365
-0.0012119825
-6.3356676E-4
0.0012379546
-1.6321133E-4
-9.808446E-4
5.8402744E-4
-9.877599E-6
-6.057692E-4
5.917193E-4
0.0019624485
0.0010187979
-0.0017487983
-0.0016437463
3.900928E-4
0.0014259036
0.0019395471
0.0020534464
0.0023170996
0.0022482022
0.001611122
0.0021324498
0.002219556
-7.5813604E-4
-0.0021041394
0.0014493887
0.0019160894
-0.001989091
-0.002134742
-4.1308635E-5
7.0477114E-4
6.0175126E-4
-5.8670517E-4
-8.660085E-4
-8.557949E-4
-3.7259737E-4
0.0014632089
-3.0694075E-4
-0.002744598
-0.0014281188
-0.0019031585
-0.0034234894
-0.0017789555
5.519771E-4
0.0010212897
4.8189537E-4
9.616308E-4
9.2996465E-4
-6.6668465E-4
-0.0014084151
-0.0012424272
-6.9326576E-4
-4.5812147E-4
-3.9007096E-4
6.934443E-4
5.672823E-4
5.139112E-4
0.0020763278
0.0016220277
7.895183E-4
0.0010251653
-3.117969E-4
-0.0014223374
-5.422575E-4
7.794748E-4
5.637573E-4
1.9779344E-4
0.002605227
0.004176394
0.001841504
-0.001063073
-0.0013719322
5.355196E-4
9.656165E-4
2.9414616E-4
2.7369865E-4
-9.0436183E-4
-3.747353E-4
6.3073594E-4
-0.0018737359
-0.0025052298
-9.434956E-4
-5.0205516E-4
6.4047836E-6
-8.874983E-5
4.2031182E-4
4.6794146E-4
-0.0015921172
-0.0022933243
-0.0024933938
-0.002869313
-0.0021604714
-0.0011267484
8.5588376E-4
8.554994E-4
-0.0012293995
-2.9060533E-4
0.0017859014
0.0023157173
0.001883755
-4.59985E-4
-0.002034199
1.580345E-4
0.0016249098
5.417578E-4
0.0018964563
0.0034461787
0.0018629731
0.0013799586
0.0015391802
0.001357743
0.0025153034
0.0019041938
-2.7316876E-4
-8.453261E-4
-1.00289966E-4
3.4438007E-4
-3.431758E-4
-6.0377916E-4
-7.044204E-4
-0.0014997689
-0.0017164694
-0.0019595083
-0.0010788551
2.3017207E-4
-0.0010108463
-0.0014249837
-5.1351317E-4
-4.408526E-4
4.110276E-5
-7.660139E-4
-0.001637673
-0.0014560446
-0.0027069272
-0.002343516
-0.0017231023
-0.002483487
7.1442407E-4
0.0030090453
5.6640327E-4
-5.7128334E-4
-7.9219794E-4
-3.5182206E-4
0.0023616324
0.00366255
0.0025543536
0.0010825399
0.001039038
0.0024481774
0.0021062437
-4.9684645E-4
-0.0023833595
-0.0018565978
1.9454518E-4
0.0021506264
0.0035354516
0.004492305
0.0044569154
0.0025606307
8.100532E-4
4.1256176E-4
-6.0074E-4
-0.0014933638
-0.0030725698
-0.0052688173
-0.0036190287
-0.0018593827
-0.0033182977
-0.0029557121
-0.0010873923
-4.7627607E-4
-0.0011442456
-0.0029811116
-0.0037342813
-0.0019348824
3.2951877E-5
5.980333E-4
0.0018985935
0.0029297778
8.6195284E-4
-0.0012907359
-0.0012614037
1.0471689E-5
0.0010009172
4.0931135E-4
4.0651957E-4
0.0022207934
0.0047030286
0.005758664
0.0039304122
0.0017532487
5.8405165E-4
-1.1712339E-5
-0.0010988129
-0.0018684688
0.001071606
0.0032179982
0.0018863108
-1.9049448E-6
-0.00298268
-0.002030958
0.0010448825
-0.0014337988
-0.0027631859
-0.0015030297
-0.0023192563
-0.0010642882
0.0014927274
0.0012657257
-4.50081E-4
-0.0018140846
-0.0021832208
-9.442863E-4
8.052918E-4
5.998316E-4
-8.428521E-4
-0.0024777972
-0.0027909945
2.1323762E-5
8.690999E-4
-9.4706623E-4
-9.581512E-4
-9.635143E-4
2.8870234E-4
0.0027768065
0.0027733692
0.0026041553
6.7308405E-4
-0.0031975955
-0.0018460756
0.0020526296
0.0018055144
-0.0010511333
-0.0023322422
1.9274397E-4
0.0028488478
0.0019397351
5.438479E-4
9.252882E-5
9.532118E-4
0.0024412237
6.7786017E-4
-1.5189622E-4
0.0016668268
0.001215455
0.0017669805
6.7163096E-4
-0.0034863225
-0.0020269265
-5.236484E-4
-8.7321334E-4
0.002088081
1.8115065E-4
-0.0027636026
3.7503892E-4
0.0015896211
-2.4923834E-4
-0.0021840995
-0.002296969
-3.7955764E-5
1.5067287E-4
-2.1229708E-4
-7.566861E-5
-0.0011890365
-0.0015212803
-0.0021831403
-0.002038854
-2.988678E-4
-5.216179E-4
1.5171312E-4
0.0014403246
1.7352159E-4
-1.1339961E-4
-1.0259362E-4
4.229438E-4
0.0020227123
-4.294495E-4
-0.0013662656
0.0016102789
6.0128025E-4
3.635244E-5
0.0019231867
0.001697028
0.0015979541
3.20179E-4
-0.0011561604
1.049501E-4
0.0013054436
0.0032209177
0.003985
7.065707E-4
-0.0017762866
-8.32559E-4
6.174325E-4
-1.8233941E-4
-9.676176E-4