-0.0016770427
-0.0013107893
3.985307E-5
2.8515233E-5
5.1098163E-5
0.0010090471
0.0011931546
6.115418E-4
-5.1060267E-4
6.423955E-4
0.0022220975
-6.8353955E-5
-0.0010969888
-0.0011846053
-0.002861975
-3.599363E-4
0.0023817571
-2.493993E-4
-0.0021196038
-5.461341E-4
4.0875873E-4
-5.133911E-4
-0.0010966157
-5.957134E-4
-2.55966E-4
-3.753957E-4
-3.5376253E-4
-1.6790732E-4
4.2346385E-4
0.0020783532
0.0021660852
5.963088E-4
0.0010131845
2.5289814E-4
-0.0013434992
1.0593761E-4
6.2542E-4
0.0013105826
0.0024729453
-1.6743316E-4
-0.001668293
-0.0011281635
-0.0011024739
3.9530988E-4
2.5914106E-4
-0.0015447926
-0.001724298
-0.0013166683
-0.0010156293
-0.0012716942
-6.978623E-4
2.6483074E-4
-8.3168794E-4
-6.681268E-4
0.0013792326
0.0015123928
1.3833365E-4
-8.6189764E-5
0.0015805989
0.0025488664
0.0020722793
0.0022342743
0.0022017204
0.0016192095
0.0012375144
1.59176E-4
-6.71348E-5
8.232838E-4
-7.155041E-4
-0.0020017538
-7.738133E-5
-4.2553095E-4
-0.002364964
-0.001489345
-9.6980896E-4
-0.0011267978
-4.681909E-4
-5.5494526E-4
-9.0990885E-4
-0.0012006036
-0.0014404834
-0.0017623666
-0.0019887716
-0.0012510184
-5.545419E-4
8.6639404E-5
1.5594519E-4
2.5314846E-4
0.0014497879
1.5138605E-4
-2.1674202E-4
0.0031696984
0.0030952357
7.4222207E-4
-3.642147E-4
-4.963235E-4
0.0016220943
0.0017053584
2.535578E-4
0.0013333517
0.0012853863
1.5130795E-5
-4.624806E-4
-9.670589E-4
-4.135755E-4
7.942687E-4
9.751144E-4
4.6193576E-4
7.2478596E-4
0.0011616539
6.0792075E-4
4.0667143E-4
-1.907203E-4
-0.0012736678
-9.994196E-4
-0.0011675488
-0.0014154391
1.4175034E-4
1.9251468E-4
-0.0026959353
-0.0034066497
-5.846919E-4
5.25178E-4
-2.1434316E-4
-6.4905704E-4
-0.0019066734
-0.002085175
-8.3139323E-4
5.434142E-4
0.0018619472
9.687458E-4
-1.9475438E-4
-2.2808333E-4
-1.0093103E-4
0.0019466992
0.0029504087
0.0026101633
0.002682027
2.7360796E-4
-9.319445E-4
-3.661543E-4
-5.222397E-4
5.0933304E-4
-0.0012299131
-0.0028547912
-4.42575E-4
8.0301E-5
8.4563036E-4
0.0023449578
0.0015533791
0.001221448
3.711693E-4
-5.338969E-4
-7.5462816E-4
-0.0010313918
-8.887942E-4
-0.0017260495
-4.8190722E-4
5.148155E-4
-0.001324176
3.787553E-4
0.0015621199
0.0012564803
0.003217259
0.0022299096
0.0019386337
0.0022459356
-0.0018790893
-0.003766932
-0.0033523573
-0.0031203106
-0.0015164008
-0.0027188943
-0.0055557853
-0.0029947648
0.0025052454
0.0021087797
-4.428105E-4
0.001792738
0.0022234945
4.5414554E-4
0.0015431163
0.0022197182
0.001571347
3.980526E-4
-2.75361E-4
3.7939896E-4
5.7552697E-4
0.0015073328
0.0013164667
-0.0010376516
-6.853681E-4
0.0011298455
0.001928892
0.0021523023
8.940998E-4
-2.3103107E-4
-8.8769844E-4
-0.0015046652
-6.46273E-4
-7.8580243E-4
-0.0021446429
-0.0013479529
-8.4722094E-4
-0.0018862457
-0.0020346288
-0.002726044
-0.0026892629
6.5422605E-4
0.0033576002
0.0025432527
2.1369134E-4
-5.3389865E-4
4.037434E-4
3.6218582E-4
5.6854653E-4
0.0010262685
-3.9664013E-4
-4.771688E-4
-1.853406E-4
-0.0015839422
1.8751119E-4
0.0025223556
0.0021347299
0.0022095738
1.8672012E-4
-0.0015552619
2.3865148E-4
-8.6351705E-4
-0.0017100659
8.7743066E-4
9.183078E-4
4.7756822E-4
7.5358246E-4
5.168649E-5
2.9408815E-4
4.041703E-4
6.1015354E-4
1.2772244E-4
-0.0014888141
-6.417726E-4
-1.724995E-4
-9.821658E-4
4.9307203E-4
9.2643977E-4
-0.0011868428
-0.002206462
-0.0012925955
-1.9732131E-4
5.9127307E-4
0.001217506
4.066901E-4
-0.0015329055
-0.0024734524
-9.78699E-4
6.165374E-4
4.237387E-4
0.0015235911
0.001174253
-0.001679897
-6.91687E-4
0.0010531633
9.693205E-4
0.0016147668
5.550632E-4
-3.8896062E-4
9.277942E-4
0.0018850345
0.0017143132
6.6469953E-4
-1.8733111E-4
-6.622172E-4
-6.421508E-4
-2.8678062E-4
-0.0011767388
-0.0013579221
1.07023145E-4
0.0014288935
0.0013404986
-4.2975022E-4
-3.8316788E-4
5.444453E-4
-0.0012078902
-0.0022279187
-0.0014299763
-9.071004E-4
-8.2472654E-4
-0.0012223378
-8.7879447E-4
5.9774527E-7
5.7311135E-4
0.001006792
0.0015441264
0.0033674387
0.0031758929
-5.323961E-4
-0.0020314865
-0.001437975
-6.849791E-4
8.8581804E-4
-1.4560726E-4
-0.0012353272
0.001223999
0.0012034895
-0.0010365633
-6.9665065E-4
-2.9466162E-4
4.5088926E-4
0.002008138
5.746499E-4
-1.5278748E-4
0.0019882356
9.6178177E-4
-0.0014652541
-0.0015738878
-0.0018966743
-0.0016182679
-4.253128E-4
-2.0748503E-5
5.942514E-4
0.0013322033
0.001505937
5.311309E-4
-0.0011979766
-0.0018426689
-0.0010804189
5.3400712E-5
-6.215523E-4
-8.8186824E-4
0.0015966098
0.0017627499
1.1263581E-4
-6.431405E-4
-0.0015261729
3.8986123E-5
0.0013424031
4.455869E-4
0.0011489379
0.0011849178
3.4257703E-4
6.9229037E-4
4.4472815E-4
-6.6558697E-4
-0.001104537
6.3337164E-4
0.0012995511
-7.8467303E-4
-0.0013263033
-7.8292843E-4
-7.264986E-5
2.3758195E-4
-0.0017830787
-0.0019169631
6.81398E-4
6.9956E-4
-0.0013138771
-3.4202612E-4
0.0021114496
0.0014607311
0.0010746893
0.0014279624
-2.2696778E-4
3.789567E-5
2.0137824E-4
-0.001624931
-8.914716E-4
2.73652E-4
6.531987E-4
0.0015963137
2.728798E-4
-0.0014457345
-3.1801465E-4
-9.069659E-4
-0.0032269282
-5.75873E-4
0.001975141
2.9977586E-4
9.978995E-5
-0.0017877619
-0.0027932515
0.0021034654
0.0016365031
-0.003303537
-0.0019854065
0.0021038076
0.003565572
0.002058022
4.512756E-4
8.2816585E-4
0.0011672296
6.739399E-4
9.8682045E-5
5.749008E-4
0.0013079996
6.393712E-4
-7.7222445E-4
-0.0017281465
-8.858819E-4
-2.572638E-4
-7.814135E-4
-6.184086E-4
-0.0012976417
-6.786369E-4
0.0011188634
-1.7188533E-4
-7.9112477E-4
-2.5507561E-5
-2.5529801E-4
-9.440816E-7
-0.0017037084
-0.0041019362
-0.00201754
0.0010190025
6.9816445E-4
0.0012959144
0.002910442
5.377539E-4
-0.0010384751
7.668625E-4
0.0013236981
0.0013293652
2.4809293E-5
-0.0016158103
-8.748211E-4
-7.572585E-4
5.7184865E-4
0.0027771334
0.0013766646
4.2606403E-5
9.955796E-4
0.0015788098
8.2198664E-4
-2.889658E-4
-0.0010094545
-0.0011440673
4.4619388E-4
8.755452E-4
-8.087429E-4
-8.998102E-4
-0.0010165666
-0.0014324817
-5.936319E-4
-1.2555053E-4
5.852301E-4
0.0010975449
3.4969722E-4
2.9138356E-4
0.0010042444
1.2856843E-4
-5.2488194E-4
0.0011368291
2.6389738E-4
-0.0024182198
-0.001931484
-3.9714325E-4
4.804102E-4
-6.771152E-4
-0.0016843221
2.3110495E-4
-4.568985E-4
-0.0015363516
3.6143846E-4
4.622913E-4
-2.6100385E-4
-8.1830396E-4
-5.0754467E-4
5.3143455E-4
-0.0013892509
-0.0021318097
-5.609988E-4
-4.3723377E-4
3.337641E-5
4.5813154E-4
0.0017248889
0.004698227
0.005853588
0.0050158286
0.0028513265
0.0017834401
0.002408292
3.481284E-4
-0.001328673
-1.14768925E-4
-3.1258786E-4
-0.0013473801
-0.0015084569
-8.8166154E-4
-4.4845883E-4
-0.0023865541
-0.0038397617
-0.0028965787
-0.0023862084
-0.0022750332
-0.002217476
-0.002826492
-0.002992952
-0.0013688809
0.0015756438
0.0023607952
1.8652667E-4
-8.6445943E-4
7.660089E-4
9.2905393E-4
-0.00175363
-8.683257E-4
0.0025055287
0.0014473592
9.20754E-4
0.0031771916
0.0033570945
0.004025159
0.004508187
0.001817398
-1.9493351E-4
-3.9869273E-4
-3.485924E-4
-8.6718745E-4
-0.002212275
-0.0025627124
-0.0020984127
-7.8790024E-4
0.0013917515
4.6496905E-4
-0.0017355807
-1.5830151E-4
0.0010331345
-0.0011720095
-0.0019039313
4.153997E-5
0.001360532
0.0014950199
7.9741306E-4
-4.556343E-4
-2.5422082E-4
6.950673E-4
3.0200454E-4
-6.389743E-4
-0.0017747808
-0.0011422825
7.218793E-4
-0.0010723743
-0.0031571593
-0.0026479901
-0.0016097868
0.0011255409
0.0015400735
2.6180316E-4
0.0018746294
0.001726731
0.0013103123
0.001241457
-8.260893E-4
4.8226904E-4
0.0012559285
-4.7291428E-4
-2.3113193E-4
-6.671009E-4
8.685886E-4
0.0022096762
-0.0010475564
-0.001330635
7.207609E-4
8.39051E-4
1.4202972E-4
-0.0015769455
-0.0016524305
-5.856047E-4
-2.45606E-4
3.8596714E-4
7.676445E-5
-3.6257922E-4
-4.0871382E-4
-9.938222E-4
-0.0017508013
-0.0024217763
-9.4665546E-4
0.0014506821
0.0017246384
0.001022709
7.8227324E-4
0.0032643387
0.007286284
0.0064838636
0.001991672
0.0019570582
0.0054309163
6.3884194E-4
-0.010921546
-0.012291892
-0.0052425303
-0.0027253926
-8.267833E-4
0.0019786959
8.640021E-4
3.100903E-4
-5.046328E-4
-0.0032422387
-0.0020105804
-3.227514E-4
-4.8640752E-4
7.9107046E-4
-3.6145793E-5
-5.4446154E-4
0.0010654558
9.755858E-5
8.238088E-4
0.0022487016
6.76074E-5
0.0010436134
0.00400264
0.0038739666
0.0022102804
-6.674672E-4
-1.1965403E-4
0.0028352703
0.0010101314
-1.461741E-4
0.0014552741
0.0015223802
0.0020741643
7.669715E-4
-0.0010108907
0.001254115
5.6858006E-4
-0.00415407
-0.0057473397
-0.004153749
-0.0021035788
4.4450135E-5
0.0021044542
0.0011213366
-0.0016940372
-0.0011769726
-4.3580847E-4
-0.0018515782
-0.0017291798
2.0839165E-4
0.0017651855
-2.0050253E-5
-0.004040992
-0.004011795
1.6189928E-5
0.0012061278
-5.806372E-4
8.8063156E-4
0.0026359444
0.0015070926
0.0030902217
0.0040744864
6.4545556E-4
-0.001547406
-0.0016504851
-4.6846413E-4
0.0017995763
0.002724543
0.0012085041
-0.0011500956
-7.208226E-5
0.0018177428
5.261166E-4
3.344526E-4
8.482701E-4
-2.1291457E-4
-0.0011371695
-0.0014256715
-2.9424205E-4
3.2998083E-4
-2.388005E-4
-1.3321194E-4
-0.0012013854
-0.0018603958
3.2155116E-5
9.2285674E-4
-2.7655278E-4
-0.0012813746
-0.0010281483
-0.0010853801
-0.0025255065
-0.0035848082
-0.0038854103
-0.0014984512
0.003726293
0.0031734144
-0.001302844
6.52302E-4
0.002677968
6.1659596E-4
0.0015001968
0.0015461986
3.499005E-4
0.003744839
0.005496608
0.003656428
0.0033947406
0.0016812369
-0.0019718204
-0.001268949
0.0020054728
-1.3222452E-4
-0.005297622
-0.0057034097
-0.0025174099
-4.179211E-4
-8.5303135E-4
-0.0023137012
-0.002848556
-0.0022893217
-8.1765145E-4
-0.0012712192
-0.003606783
-0.0028084102
-7.7916146E-4
-2.415991E-4
-5.931082E-4
-0.0025134566
-0.0015220331
0.0020863933
0.0024958304
0.0038256976
0.007222521
0.007340277
0.0070889094
0.008304105
0.0042439327
-0.005539132
-0.01059678
-0.0074172
-0.002227034
0.002673634
0.00561612
0.0058441446
0.005738039
0.0037833767
0.0014993926
0.0010339555
-8.2724186E-4
-0.004384108
-0.008415242
-0.009239407
-0.0053004557
-0.0027024497
-0.002239009
-0.0014501795
-4.190645E-4
0.0013831708
0.003140481
0.0044042845
0.0049969465
0.0068438444
0.008129842
0.0033529606
-0.0015980084
-0.004925237
-0.0089676315
-0.006818144
-0.0033846835
-0.0027140714
-1.5828152E-4
-3.412091E-4
-1.6633965E-4
0.0020864462
-9.2373916E-4
-0.004645919
-0.0058988114
-0.004601392
-6.327448E-4
1.7984441E-4
9.107778E-4
0.002045091
-3.3709418E-4
0.0010478809
0.004853706
0.004577083
0.0031479376
0.0020160486
0.0036457477
0.0077709383
0.0076132445
0.006283106
0.009507022
0.009305596
0.0040782257
0.004637972
0.0048217233
-0.0012803941
-0.002992804
-0.006553506
-0.013403607
-0.010729118
-0.007787576
-0.005864175
-7.849682E-4
-0.003834407
-0.0047549983
8.7141746E-4
-0.0014329394
-0.005330949
-0.0073282537
-0.011216846
-0.011839151
-0.010242424
-0.0073272754
-0.0029729847
3.052128E-5
0.0032156233
0.0075164107
0.010363914
0.010651267
0.012571234
0.0124859745
0.0041175564
-7.1050355E-4
0.0011746394
0.0012200203
0.003267931
0.00604014
0.006394592
0.007550055
0.009262745
0.013748965
0.016432898
0.011228808
0.0033752231
-0.0072403494
-0.019407114
-0.024338089
-0.020714087
-0.01143326
-0.0024823167
0.0010267507
0.003744866
0.006608873
0.0053058756
0.0019010521
-0.0014561621
-0.0039374875
-0.0028914423
1.120069E-4
5.2879425E-4
-0.0019440119
-0.004508634
-0.0068986146
-0.009042543
-0.01160285
-0.015948532
-0.01567364
-0.009371227
-0.0039084633
6.412489E-4
-1.11997026E-4
-0.006118637
-0.0061468678
-0.0017969658
0.005174266
0.015837587
0.023495395
0.028865965
0.031767417
0.030810654
0.027950507
0.019773606
0.012365963
0.010954405
0.0082674
0.002864502
-0.0058999397
-0.014617954
-0.01394369
-0.0095111225
-0.009788809
-0.012662161
-0.018815637
-0.027830206
-0.033247776
-0.03388853
-0.030002259
-0.02035529
-0.010629801
-0.0055334563
-0.003334902
-0.0012617273
0.0024126428
0.0068652225
0.011572067
0.01638771
0.021287067
0.0231743
0.018964417
0.017124234
0.016654281
0.0113307135
0.013546288
0.018598592
0.012384634
0.0058475663
0.00210604
-0.00909075
-0.024706433
-0.032263152
-0.02830811
-0.021119718
-0.016682906
-0.016815715
-0.014214961
-0.0034965295
0.0077362587
0.024755346
0.04826918
0.059012644
0.04990516
0.02900185
0.013762209
0.0071328008
-0.008808254
-0.027881742
-0.034340896
-0.0323618
-0.029837947
-0.031969093
-0.03110401
-0.01574105
0.0014812727
0.006140729
0.004564213
-0.0021462003
-0.014998623
-0.020472832
-0.019278111
-0.020698518
-0.01571481
-0.0018834596
0.012075803
0.030601054
0.054908257
0.0679416
0.062761776
0.046094842
0.019876642
-0.008314004
-0.038240634
-0.068590164
-0.07357712
-0.06352566
-0.06277928
-0.046352495
-0.009340337
0.028302005
0.056013465
0.060019605
0.061256807
0.08282298
0.1008148
0.08881381
0.045879412
-0.0061629326
-0.0516337
-0.07836311
-0.0684497
-0.044445176
-0.032894794
-0.017825142
0.010419339
0.038615625
0.05575897
0.057081785
0.038985305
0.0055279587
-0.030754514
-0.049034882
-0.04277354
-0.045480438
-0.06639369
-0.08219016
-0.08934042
-0.07424465
-0.045117155
-0.02937493
-0.0066921213
0.024093222
0.043351617
0.058830384
0.063800246
0.063954964
0.07682711
0.08856272
0.092028886
0.075999975
0.019029034
-0.04526572
-0.089521445
-0.1393717
-0.16171482
-0.11996536
-0.07705958
-0.06965944
-0.048700888
0.037962124
0.16735238
0.25335434
0.27177867
0.24942054
0.20769368
0.1630789
0.08087962
-0.008489333
-0.046292495
-0.122620046
-0.22471009
-0.2305965
-0.19416302
-0.14985804
-0.07659052
-0.032499738
-0.0015869823
0.018085862
-0.007058953
-0.015216407
-0.018554892
-0.061971866
-0.09783183
-0.10509626
-0.10901821
-0.13877708
-0.16032608
-0.12548728
-0.049121078
0.079801835
0.20643857
0.25059503
0.25775558
0.25596103
0.25492555
0.23784174
0.16636214
0.11426053
0.085604325
0.037408855
0.007297935
-0.04731854
-0.13493411
-0.17286931
-0.15287228
-0.12629086
-0.115583114
-0.084033534
-0.06816837
-0.11783464
-0.14130446
-0.10410982
-0.051378686
0.0077240393
0.055215593
0.079643436
0.06118887
0.020327868
-0.0022397882
-0.03499525
-0.047690243
-0.0061944607
0.031406805
0.051276643
0.06969572
0.07983652
0.07842663
0.06611036
0.052338123
0.038062267
0.019935666
-0.003017516
-0.021914002
-0.016963793
-0.008145479
-0.025674164
-0.054484744
-0.06802591
-0.06468998
-0.05489261
-0.03949832
-0.025669228
-0.018686421
-0.008337432
0.001713792
0.010309508
0.025219824
0.03814346
0.043078683
0.041390345
0.03577246
0.029409967
0.019444002
0.0041415645
-0.014604228
-0.02419263
-0.01658626
-0.007942552
-0.0033021087
0.008940138
0.029060224
0.04238491
0.03580972
0.023043836
0.017544074
0.011125781
8.1438594E-4
-0.0106406445
-0.016818156
-0.014993216
-0.014592148
-0.016622618
-0.017737724
-0.018463435
-0.019180674
-0.022049556
-0.023548877
-0.022901442
-0.022830602
-0.021989927
-0.020785993
-0.01671435
-0.011360904
-0.008590218
-0.0048189056
-0.0014236138
0.0010906615
0.004566489
0.0057017175
0.0067704916
0.009169804
0.009828052
0.011190743
0.0134490365
0.0125499545
0.012213579
0.017138643
0.021106785
0.020496821
0.019748058
0.019673996
0.019319784
0.018046713
0.015406295
0.012375422
0.008777201
0.004072815
-0.0016070722
-0.0057412675
-0.0073352894
-0.00848017
-0.007831099
-0.0074819564
-0.011084047
-0.015167902
-0.016588574
-0.015261747
-0.014711395
-0.016460177
-0.015625542
-0.012420469
-0.010234663
-0.009574507
-0.008878676
-0.0061916914
-0.0033633308
-4.364613E-4
0.002795275
0.004782986
0.006252587
0.0059831454
0.0057297605
0.0056308783
0.0027443073
0.002449234
0.003510535
3.8035787E-4
-0.0014213556
0.001897828
0.005946254
0.004641489
0.0011767066
2.7244387E-4
-0.0022198674
-0.0036158804
-0.0013662425
4.7898095E-4
0.0020982365
0.0030645598
0.0039089574
0.0051749665
0.005879936
0.0049361484
0.002611467
0.0043907533
0.0042150933
-0.001285451
-0.0012615452
-9.8864526E-5
0.0010936125
0.0053563355
0.0021270586
-0.003821749
-0.0050445423
-0.0043955757
-0.0025378736
-0.0027813702
-0.0013111898
0.0019905572
0.0015755772
0.002344705
0.0021282742
-0.0012711573
-0.0013311403
6.945078E-4
0.00164965
9.874202E-4
1.2725979E-4
0.0012341903
0.0028976933
0.0037831073
0.0020657955
-4.2085198E-4
1.5223751E-6
7.271191E-5
-0.0013104031
-0.0020903577
-0.0027113054
-0.0020363638
-3.658223E-4
-0.0010172097
-0.0035164831
-0.00360858
-0.0023663607
-0.0036166431
-0.0045261686
-0.004385075
-0.0054006125
-0.0034841893
0.0010689745
0.0025079236
0.0010087338
-1.3490688E-4
9.677535E-4
0.0021884553
0.0010960837
2.0329765E-4
2.1256708E-5
-6.4303237E-4
-9.432832E-4
-9.524321E-4
-2.3018534E-4
9.7476377E-4
0.0021579443
0.0035952246
0.0035951936
0.002525178
2.3694323E-4
-0.0027300457
-6.865793E-4
0.0030071374
0.002730835
0.0033365325
0.0035572727
6.466267E-4
2.5681363E-4
0.0018693815
0.0029967797
0.0054300674
0.006331223
0.003868938
0.0015045645
2.1020608E-4
-3.6599583E-4
1.8787115E-4
-7.9472875E-4
-0.0039975117
-0.005257693
-0.0046332534
-0.0046844734
-0.004059267
-0.002762082
-0.002781544
-0.004177166
-0.005250473
-0.0044994773
-0.0036265908
-0.003919261
-0.004859715
-0.005931652
-0.004453406
-0.0022870023
-0.0023182866
3.3674584E-4
0.0047293655
0.0047221836
0.0019486467
7.866988E-4
0.0022592803
0.0028537912
0.0018777561
0.0015688962
2.5088002E-4
7.1515545E-4
0.0030637672
0.002585933
0.0028252872
0.0034019232
0.002378624
0.0021598958
-5.1329353E-5
-0.0027852056
-0.0034603549
-0.0028143134
-0.0012421872
-0.0017241767
-7.996551E-4
7.830522E-4
-5.345885E-4
0.00226283
0.0040152553
-9.095397E-5
-0.0018998105
-0.002712197
-0.003000554
-0.0016511477
-5.843728E-4
0.0015875879
0.0010574779
-7.998736E-4
8.723099E-5
9.0883725E-5
2.9920839E-5
-3.072859E-4
-0.0027166184
-0.0042789797
-0.003512057
-7.736117E-4
3.5033165E-4
-1.7236266E-4
6.072643E-4
-0.0014475498
-0.004664128
-0.0033427267
-0.0017621792
-0.0013519798
0.0015959287
0.003085089
0.0010265681
0.0010067015
0.001422633
-4.7118406E-4
-4.710019E-4
1.2934399E-4
-6.325032E-5
0.0013754007
0.0023415296
0.0024105394
0.0032396207
0.0029430566
-1.9292379E-4
-0.00216493
7.702725E-4
0.002378396
3.1885187E-4
0.0010022724
0.002258221
-1.107485E-4
-0.0021001801
-0.0019321996
-0.002051129
-0.0010556912
9.482426E-4
-2.1582375E-4
-0.0010010249
0.0012095051
0.0015200597
-1.9115959E-4
-0.0022606924
-0.0021000449
2.8953658E-4
-4.8936746E-4
-8.017837E-4
0.0012861702
8.058836E-4
2.3425526E-4
-2.6980944E-5
-8.92849E-4
-6.618474E-5
8.5383333E-4
0.0017471709
0.0016163249
-1.4918591E-4
3.7508097E-4
5.062056E-4
-9.0960553E-4
8.7498693E-4
0.001448147
-9.378323E-4
-2.9099141E-5
0.0011689493
-9.385244E-4
-0.002359766
-8.6653506E-4
0.0020266995
0.0014559777
-0.0015913369
-0.0018460081
-0.0016532463
-3.1275686E-4
0.0022145808
4.876149E-4
-0.0015864278
-4.1789917E-4
0.001487515
0.001773402
-2.1014373E-4
5.320358E-4
0.001523155
-8.5989904E-4
-6.4495025E-4
3.4203655E-5
8.220013E-4
0.0035955263
0.0014765885
-8.091785E-4
0.0017709946
0.0018198342
-0.0016485024
-0.003635065
-9.656643E-4
9.2643476E-4
-0.0021539656
-0.0017631613
0.0010908409
5.3495423E-5
-8.302253E-4
-3.2399656E-4
9.7417756E-4
0.0017812768
-1.5075962E-4
-5.5722165E-4
0.001009585
0.0010111452
8.2844397E-4
0.0011152801
4.279523E-4
-4.8250056E-4
1.2185159E-4
1.5042328E-4
-0.0010620336
-3.2428888E-4
2.5725568E-4
-2.3994293E-5
4.7491989E-4
-8.977475E-4
-0.0015328364
3.9748847E-4
0.0013726029
0.0016915022
-3.3791582E-6
-0.0027728775
-0.0021906102
-0.0021941653
-0.0030800195
7.3077204E-4
0.0035047892
0.0013964225
0.0012729135
0.0018859232
-3.4636067E-4
-0.0011052095
-5.015775E-4
-6.4194924E-4
-1.8591457E-4
-2.4616692E-4
-7.471656E-4
3.724785E-4
0.0011704597
6.019814E-4
0.0022817487
0.0035024723
-1.043936E-4
-0.0017790744
3.09569E-4
0.0015890416
0.0025195114
8.178597E-4
-0.0011574181
-1.4537483E-4
-4.4395152E-4
-5.161773E-4
-0.0015848913
-0.004207218
-0.0019493909
1.5795312E-4
-2.242349E-5
0.001618238
7.977561E-4
-5.276443E-4
0.001229804
0.0016426658
2.7203726E-4
-4.1354174E-4
-0.001347539
-0.0026112956
-0.0016264782
-4.0231823E-4
-3.675592E-4
0.0015367868
0.001251709
-0.0013973637
-1.0780064E-4
0.0013691011
5.0724484E-4
9.1780195E-5
-4.5252673E-4
-4.7551477E-4
3.970979E-4
3.2594017E-4
-0.0014410528
-0.002458598
-7.339249E-4
5.9855833E-5
-0.00123042
-0.0010025094
8.136955E-4
0.0024295098
0.0031580166
0.0027406667
0.0016591015
1.672469E-4
-6.3758256E-4
8.2940445E-4
0.0016762
0.0010169776
0.0027141317
0.002265627
-0.0017078759
-0.0018765742
-0.0015301701
-0.0020064132
-1.6899552E-4
-0.0011950906
-0.0031879628
-0.001978905
1.1422331E-4
8.603082E-4
-0.0012101282
-0.0017839936
-0.0010310543
-0.0016033768
2.8510782E-4
1.7032235E-5
-0.001963694
0.0014085162
0.0029540423
4.7073598E-4
9.953643E-4
0.0029952112
0.001972861
-8.103969E-4
-8.248721E-4
4.7931247E-4
-2.1858618E-4
-2.9352983E-4
0.0014232795
0.0024382723
5.564423E-4
-0.001225756
0.0010638527
0.0019986639
-8.7924616E-4
-0.0011597737
1.5439591E-4
-6.425595E-4
-7.86693E-4
-0.0015519778
-0.0034142183
-0.0012283933
0.0013657431
4.0944232E-4
2.2741347E-5
7.284996E-4
0.002220004
0.002265902
-0.0010598006
-0.0023213874
-0.0018475602
-0.0018942361
-8.9521374E-4
-0.0013072537
-0.0016441413
8.8651E-5
0.0017716723
0.0025677742
0.001058437
5.593966E-4
0.00312366
0.003285662
2.2705925E-4
-0.0026981593
-0.0027183786
-8.1011106E-4
-0.0010224838
-1.340253E-4
0.0029470732
0.0021940442
2.4532888E-4
6.270325E-4
-3.6865825E-4
-9.119931E-4
4.6668452E-4
-8.241305E-4
-0.0024720947
-1.17588075E-4
0.001414379
-0.002142069
-0.0047758673
-0.0016347076
8.450404E-4
8.5920066E-5
5.8259873E-4
0.0010850108
0.0012826764
0.0016648798
6.2238675E-4
7.579408E-4
0.0012957606
6.5052987E-4
4.837283E-4
-2.1729432E-4
-0.0010685016
-0.001978792
-0.002021893
-3.8661674E-5
6.9842074E-4
0.0011675842
0.0013395107
1.6225997E-4
0.0011324423
2.4273814E-4
-0.002519863
-0.0011084891
8.9746714E-4
0.0021212138
0.0022784953
-7.857464E-5
-3.037914E-5
4.7300287E-4
-0.0015774405
-0.0020755914
-0.0014940538
-7.632803E-4
-3.4089182E-5
-8.901343E-4
-3.600395E-4
0.0018627542
0.0019415156
5.561491E-4
-0.0012866032
-0.0026271227
-7.745475E-4
9.0579526E-4
-3.0115384E-4
-7.089605E-4
6.997379E-8
0.001324016
0.0022416413
1.7757904E-4
-6.897335E-4
2.1484023E-4
-6.670273E-4
7.466501E-5
0.0010084122
-3.8444903E-4
-8.439184E-5
3.3663315E-4
6.6982035E-4
0.0030430225
0.0015146043
-0.0023935183
-0.0011486625
2.0336542E-4
-0.0012875508
-0.0014122676
-0.001944845
-0.0012687005
0.0014903909
6.906259E-4
-4.1863506E-5
0.0019047108
0.0016241679
7.4760546E-4
9.089628E-5
-0.0014718203
-5.072926E-4
0.0014681119
-2.0001731E-4
-0.0027551977
-0.0015305269
4.1024145E-4
-5.289968E-4
-8.706574E-4
0.001376664
0.002416478
5.683421E-4
-0.0012614164
-0.0016889109
-7.9856167E-4
5.739397E-4
-4.7798766E-4
-0.0012388488
8.293205E-4
0.0011603979
-1.4729651E-4
-4.2358853E-4
4.4736124E-4
0.0016072126
0.001531983
0.001914692
0.0015331341
2.5631266E-4
0.00104921
-2.5239392E-4
-0.001861327
1.5579422E-4
0.0010245581
3.1847187E-4
-0.002359085
-0.0049943803
-0.0022485605
2.4320459E-4
-4.058152E-4
3.949256E-4
0.0017688341
0.0014161217
-1.8085011E-4
-0.0010639202
-2.3691004E-4
8.5260405E-4
8.2449237E-4
8.518146E-4
0.0012862395
3.4668054E-5
-2.3577226E-4
0.0010911678
6.129566E-5
-1.9052073E-4
0.0010972108
7.517501E-4
6.659351E-4
7.1303814E-4
3.0573E-4
1.639344E-4
-4.036779E-4
-8.8474125E-4
-8.9574966E-4
-6.108168E-4
-0.0015164026
-0.002513597
-0.0016200059
-0.0025038754
-0.0026349882
0.0012423372
0.002046764
-5.9539854E-4
-0.0015656779
-8.6236274E-4
0.0012244565
0.0029876297
0.0023362222
3.4043743E-4
-2.0903413E-4
0.0012828894
0.0017056026
0.00189325
0.0027796458
9.715107E-5
-0.0029164555
-0.0012829647
4.3420403E-4
6.616967E-4
0.0012072318
4.2465757E-4
-1.20889694E-4
1.0024692E-4
-0.0022968296
-0.0038929377
-0.0010647457
4.78255E-4
-0.0010674974
-6.2601006E-4
8.499381E-4
4.962042E-4
5.3600536E-4
7.257673E-4
-3.7451708E-4
-3.6042766E-4
1.5012447E-4
2.1488951E-4
0.0018080215
0.0014706567
-6.9906906E-4
7.086345E-4
0.0018622456
0.0011055943
0.0017786286
8.872104E-4
-8.3099905E-4
-3.2962632E-4
1.8356029E-4
-0.0013989469
-0.0038867448
-0.0029976538
-6.331979E-4
-3.751421E-4
5.705085E-4
-7.0757436E-4
-0.003862248
-0.0018121051
5.6533184E-4
-0.0010497306
-4.7436004E-4
0.0026060892
0.0029272353
0.0012547352
2.354316E-4
-9.487413E-4
3.9098118E-6
0.0024038726
0.0011334846
-1.1891257E-4
-2.384777E-4
-0.001932602
-2.6440265E-4
0.0023991808
0.0016214132
0.001717634
0.0014348032
-2.0287391E-4
7.1664795E-4
0.0012219902
-5.8089424E-4
-8.702711E-4
-7.604244E-4
-0.0018020489
-0.0014702025
-4.0127308E-4
3.5253775E-4
2.914199E-4
-0.0017173628
-0.0014714338
0.0011122824
3.576382E-4
-6.475887E-4
0.001108219
0.0016088637
5.1553803E-4
-5.567224E-4
-0.0016877612
-0.0013214481
2.4922713E-4
-3.6185898E-4
-0.0022641427
-0.0018795693
1.3955765E-4
0.00139036
6.6302565E-4
-4.3923583E-6
0.0016505563
0.001748781
-1.5739896E-4
-7.7913406E-5
-0.0011684595
-0.0028542283
-2.114817E-4
0.0016858219
4.4510612E-4
6.045773E-4
0.0014121283
0.0010833077
2.722895E-5
8.8241584E-5
0.0013325082
9.013634E-4
9.21073E-4
7.347424E-4
-0.001883274
-9.898407E-4
0.0020308308
0.0019598256
6.504844E-4
-0.0011046677
-0.00204428
-0.0024085161
-0.001778195
5.7185086E-4
2.3878131E-4
-5.659782E-4
-7.0354756E-4
-0.0024982987
-0.0014771617
6.4480456E-4
0.0016178789
0.0023270836
9.085775E-4
2.2654478E-4
3.824011E-4
9.825861E-4
0.0017646891
-4.7463767E-4
-0.0014322666
-0.00143193
-0.0020644837
7.8575575E-4
0.002580472
0.0016701947
8.467623E-4
5.281524E-4
0.0013101847
4.3086315E-4
-4.945165E-4
-7.835646E-4
-0.0019539008
-0.0016840397
-0.0020963328
-0.0014066634
4.7867704E-4
-8.505525E-4
-6.48331E-4
4.711921E-4
2.5338997E-4
6.9780246E-4
-7.93608E-4
-0.0012944925
-8.833847E-5
3.4091886E-4
0.0021925627
0.002560316
7.3512434E-4
1.4447255E-4
9.2822226E-4
0.0012322003
-5.989352E-4
-0.0017404348
-0.0020408942
-0.0017058268
0.0013262887
0.0019716546
7.983242E-5
-2.0338366E-4
-6.752245E-4
-0.0011031384
-0.0010677547
-3.1345658E-4
0.0020397827
0.00373191
0.0028735183
-5.1197666E-4
-0.003111971
-0.0028076633
-0.0010652193
8.043039E-4
6.854073E-4
2.2840436E-4
6.207162E-4
-2.2871447E-4
4.5083056E-5
5.141082E-4
-1.8856583E-5
0.001354764
0.001509887
1.4509141E-4
-3.8631712E-4
-0.0020624693
-0.0024906495
-8.777772E-4
-4.4848924E-4
3.648686E-5
0.0016321524
0.0018860021
-1.18044474E-4
-8.347631E-4
9.6946687E-4
0.001918984
0.0015388586
6.3086394E-5
-0.0016555943
-0.001554068
-0.0019985826
-0.0024337468
-7.3583145E-4
-1.1089782E-4
-3.0846812E-4
3.4271766E-4
3.1297113E-4
-2.879484E-4
-4.766178E-4
-2.1847356E-6
3.45158E-4
3.5725877E-4
2.3607905E-4