-0.0012428872
-0.0020649158
2.2577698E-4
3.465207E-4
2.295018E-5
0.0012202646
-3.9477306E-4
-6.372311E-4
7.5273647E-4
0.0012502292
0.0019514324
0.0010239966
-1.2512368E-4
-8.0633594E-4
-0.0017995498
-0.0022020566
-0.0015884289
0.0015613538
0.0024702863
8.47855E-5
0.0014461742
0.0026156262
2.4608732E-4
-8.144702E-4
-0.0010231847
-9.3267683E-4
-1.552646E-4
-6.509214E-4
-9.826319E-4
-5.758559E-4
-0.0012740712
-0.0013147851
-8.930548E-4
-0.001487986
-0.001124873
-8.6806004E-4
-1.5362597E-5
0.0016154936
-7.538836E-5
-7.1437017E-4
2.3643141E-4
-6.776362E-4
0.002104114
0.004446773
0.0018217474
5.5472204E-4
-2.1215112E-4
-9.329492E-4
1.7393795E-4
9.532933E-6
-6.541625E-4
-4.5360904E-4
3.576084E-4
0.0024189097
0.0024833141
-1.1014448E-4
2.3377477E-4
0.00142479
-6.9836515E-4
-9.3551556E-4
-7.829593E-4
-0.0035388928
-0.0030257409
7.0036686E-4
0.0033858737
0.0019094965
-0.0031613966
-0.004160186
-0.001997589
-5.1683217E-4
0.0021445877
0.0026933665
-4.0583804E-4
-0.0018649796
4.3786972E-4
0.0011996801
-3.9258116E-4
-5.9237052E-5
-0.0017222023
-0.0032654174
2.466047E-4
0.0012479278
3.608588E-4
0.0015708053
9.461197E-4
4.5208304E-4
6.454235E-4
-5.5928016E-4
-9.738619E-4
-7.142524E-4
-5.388915E-4
-1.319111E-4
5.6924904E-4
0.0014188171
0.0013699876
0.001056219
6.999715E-4
3.790983E-4
0.0010882647
4.677291E-4
-5.517844E-4
0.0013120875
0.0019018139
9.755352E-4
0.0016873967
3.224092E-4
-0.0011370078
-4.8282323E-4
-0.0019072884
-0.002411507
-4.706248E-4
6.933213E-4
5.800066E-4
-8.919536E-4
-5.212407E-4
8.049158E-4
4.650128E-4
0.0010682399
6.593688E-5
-0.0030154127
-0.006046363
-0.008718043
-0.0048598484
0.0024651205
0.003686834
0.0015642546
4.0695045E-4
2.0910148E-4
9.871423E-4
0.0017555014
0.0018838058
0.0017328134
0.0013587829
8.0703833E-4
5.5781315E-4
-8.477392E-5
6.9312955E-4
0.0029292526
0.0017017804
0.0011693029
0.0035024602
0.0016848654
-9.401841E-4
-7.5357093E-4
2.4595027E-5
0.0010505052
-7.12771E-4
-0.0020121206
-8.2463666E-4
-0.0025756513
-0.0016623501
0.0017769653
-0.0016989296
-0.0036643767
-7.740211E-4
-0.0030219806
-0.004037913
-6.3109765E-4
-0.0010723021
-9.203141E-4
0.0011810703
6.0545205E-4
9.4017724E-4
0.0015985877
0.0014137443
0.0017984144
1.7807298E-4
-7.080812E-4
7.396216E-4
5.451421E-4
0.00135749
0.004769224
0.0054496303
0.002932873
0.001167358
1.1622512E-4
-0.0014000707
-0.002721643
-0.0029979534
-0.0013201298
1.6578434E-4
-4.4442547E-4
-9.3746925E-4
-0.0010931322
-0.001188765
-4.949406E-4
-4.3441876E-4
-0.0010683131
-0.0015231123
-0.0018754579
-0.0015496021
-8.330772E-4
-0.0012881153
-5.959771E-4
0.0028089324
0.0033601562
0.0016348894
0.0017221204
0.001327253
9.6256845E-4
8.5934106E-4
4.953421E-4
1.2736095E-5
-0.0010850612
0.0015885817
0.0035501274
-2.518199E-4
-0.0016360881
-7.549516E-4
-0.0014921325
-0.002205478
-0.002196724
-0.0017008353
-0.0024159623
-0.0013091817
9.387215E-4
7.2675705E-4
3.9021473E-4
-0.0011086753
-0.0016064683
-9.0301706E-4
-5.79626E-4
0.0022339516
0.0017984117
4.780234E-4
0.0012773152
-0.0012577574
-7.851174E-4
0.0010274794
5.416751E-4
0.0013024292
0.0018475013
0.00432377
0.0030225713
-2.6748946E-4
0.002050542
2.8511015E-4
-6.1905204E-4
0.001276695
-0.0032170143
-0.0027368497
0.0015869061
-1.5377202E-4
-8.82303E-4
-7.7526044E-4
-0.003936337
-0.0030564242
0.0025452771
0.0035375452
0.0021692037
1.2503809E-4
-0.004358705
-0.0025368049
9.5899927E-4
0.0010149137
0.001062966
-0.0035514482
-0.0054620733
-0.0050632986
-0.00863921
-0.0041356483
0.004026628
0.00594724
0.0038653594
2.821169E-4
-6.370181E-6
-7.3793036E-4
-7.802607E-4
0.0032420962
0.0052402765
0.0077322596
0.0080794515
0.0038265896
0.0018674264
4.0595816E-4
-1.5873155E-4
9.533867E-4
0.0011237462
-1.3450235E-4
-0.002623568
-0.001382216
-8.902993E-4
-0.002723094
6.280325E-4
-0.0012199549
-0.008048113
-0.006182159
-0.0031030227
-0.003683841
-0.003808193
-0.004871509
-0.003057788
5.0005026E-4
-0.002171775
-0.0048355274
-8.7341265E-4
0.0014685855
9.959019E-4
0.0035345098
0.0048204227
0.003994881
0.007540135
0.012882354
0.011961689
0.0051783267
2.242444E-4
-2.1817583E-4
1.1949601E-4
-0.0012508836
-0.0049988152
-0.00872418
-0.008333369
-0.00527012
-0.0015692799
0.0027334162
0.004350743
0.004187538
0.004643735
0.0019279388
-0.003740227
-0.007564749
-0.0077134166
-0.0062960223
-0.005842012
-0.0032639054
0.0016604279
0.004186942
0.0056378483
0.0067132
0.0059736073
0.005053779
0.0028332046
5.2783417E-4
0.0013137659
0.0010419438
-0.0010069931
-5.7120214E-4
-0.0012930493
-0.0045966925
-0.004826808
-0.0030645865
-0.0031226159
-0.0034057794
-0.0024289545
-0.0015548444
2.6309866E-4
0.004831202
0.0066108927
0.0036556502
0.0013020346
-3.7676314E-4
7.261312E-4
0.003755027
0.0025400177
0.0016417224
0.0013211946
-0.0019570175
-0.0034134605
-0.0049713505
-0.00635295
-0.0032152273
2.815145E-4
0.0013564769
1.8018465E-5
-7.7176274E-4
3.4255517E-4
-8.973038E-5
1.692363E-4
-8.7796553E-4
-0.003999197
-0.0015878016
0.0015239319
2.9197813E-4
-0.0016608157
-0.0043445374
-0.0041050813
0.0010994312
0.0063733747
0.008891212
0.010936498
0.01480445
0.013878704
0.0063148397
-2.9952242E-4
-0.0038110919
-0.0025122126
-0.0012238459
-0.007624993
-0.013315849
-0.012536844
-0.009521369
-0.005587095
-0.0016027924
0.0018055884
0.0030532007
0.0024726589
0.0020770906
2.0900735E-4
-0.0013233959
-0.0010104685
-0.001263991
-0.0012552621
-1.088612E-4
9.432944E-4
1.4523865E-4
-0.0011906021
-5.7177246E-4
4.6752597E-4
0.0018074872
0.0025369301
0.0020480067
0.0029741626
0.0032074184
0.0029847547
0.0031335966
6.2281004E-4
-5.8741786E-4
1.9485256E-4
-3.0005875E-4
1.3385378E-4
6.620001E-4
-3.920918E-4
-0.0031185043
-0.005685217
-0.00400885
-0.0012414596
-5.891883E-4
9.923439E-4
0.0028806333
0.0023709557
5.845087E-4
-2.68513E-4
-3.4152617E-4
-8.795323E-4
-0.0018148528
-0.0015446536
1.7340897E-4
3.7765902E-4
-2.2167135E-4
0.0011723541
0.002622255
0.0031728353
0.003380684
0.0034078043
0.004253331
0.005619388
0.0064332313
0.004406046
0.0011136356
-1.3597807E-4
-0.0031619517
-0.006327559
-0.004603111
-0.003894964
-0.005678392
-0.005665405
-0.0059735263
-0.004552736
-3.8741872E-4
1.4205743E-4
5.676794E-4
0.0028994496
9.33616E-4
8.749451E-4
0.0033333485
0.0010888703
7.304786E-4
1.1974936E-4
-0.004095663
-0.0023322122
-0.0013985178
-0.0067829457
-0.0074076126
-0.0038350136
-0.0025985716
-0.003968132
-0.00624791
-0.0049277428
4.08127E-4
0.0031017323
0.0016220877
0.0018803271
0.0045049097
0.006494902
0.008208817
0.008131124
0.0056620194
0.004815263
0.009726622
0.01742786
0.019610543
0.018646622
0.019490747
0.016492119
0.008236752
-0.0012075964
-0.009546889
-0.013118533
-0.011838317
-0.011706147
-0.015819281
-0.01897139
-0.017840516
-0.017214568
-0.017997488
-0.016838834
-0.015397841
-0.013288784
-0.0076552453
-0.0039829826
-0.0037050648
7.031624E-5
0.0034583863
0.0037511045
0.0071054227
0.0112945335
0.013765966
0.013837806
0.00968084
0.0061762296
0.0045203264
0.0041036694
0.0075513734
0.012337581
0.014830127
0.012202694
0.008320744
0.008815443
0.0066333544
-5.5853906E-4
-0.007000643
-0.011947426
-0.013104251
-0.009450029
-0.004291511
2.0927208E-4
0.0033710767
0.005464106
0.0056424323
0.0017244894
-0.007323823
-0.015599019
-0.015398018
-0.010300635
-0.0060920957
-0.0030009248
-9.357045E-4
2.3005028E-4
-0.0015264108
-0.004678598
-0.0032740214
9.460787E-4
0.0030855038
0.0021381897
-0.001220989
-0.0032820986
-0.0018567475
2.9456828E-4
0.0028726466
0.0064582247
0.008073139
0.0092820795
0.011627057
0.010914182
0.009145945
0.009154402
0.0076766456
0.0040983194
-8.1546925E-4
-0.005145187
-0.007155751
-0.0069891643
-0.0037690813
-0.0022841124
-0.0029707532
0.0010642272
0.0042707277
0.0023822733
0.00119803
2.005382E-5
-0.0016015609
-0.0014997659
-0.002743537
-0.0066728587
-0.00845217
-0.005629655
-0.004583868
-0.0060216533
-0.0038059787
-0.0023780458
-0.004035579
-0.0043281973
-0.005323143
-0.0057906453
-0.0035164647
-0.003489336
-0.0061132093
-0.0050365673
0.0014460357
0.0075339656
0.0106672235
0.010941067
0.007495475
0.0048324177
0.00280022
-0.001673551
-0.0019158641
0.004413776
0.011149745
0.014734375
0.014954993
0.014025502
0.01613882
0.01963584
0.012921335
-0.0014129294
-0.006169577
-0.0059913243
-0.009644892
-0.009667229
-0.010747704
-0.017976688
-0.02097825
-0.01930191
-0.01964666
-0.019056417
-0.0122587085
-0.0016054474
0.0052568945
0.009300847
0.013462628
0.009883772
7.6545007E-4
-0.0033483626
-0.0034450376
-0.0014770188
-0.0010978103
-0.0043961387
-0.0037532423
6.972792E-4
0.008349552
0.020652838
0.029197924
0.032079466
0.02746273
0.0117885135
-0.0034822363
-0.012044715
-0.017908456
-0.022771407
-0.026320236
-0.02498662
-0.020836327
-0.01587851
-0.0066103376
0.0025572227
0.008690164
0.014657657
0.020266877
0.024693957
0.022035029
0.0077987667
-0.00813107
-0.0141521385
-0.011350387
-0.0063323933
-0.0027659982
-0.0020058982
3.7430917E-4
0.007308582
0.011878928
0.011582545
0.007876155
6.642901E-4
-0.004822209
-0.008238801
-0.0096470425
-0.004169929
-3.3392562E-4
-0.002463714
-0.0023433072
-0.0060064546
-0.014202571
-0.014723557
-0.011564813
-0.007862247
5.9205474E-4
0.0074932636
0.012184338
0.017023174
0.018662246
0.020020697
0.016533973
0.0034735345
-0.0038147215
-1.4753905E-4
0.0020402186
0.0014960542
0.002982758
0.0037856111
0.0022713013
9.837761E-4
-0.003654373
-0.013696356
-0.018461905
-0.017042143
-0.02018982
-0.024464114
-0.022165596
-0.013418885
-0.0024370158
0.0032016733
0.0051183477
0.008133148
0.0100958375
0.012952183
0.012682088
0.003634881
-0.0032248443
-0.0030123955
-0.0014572195
0.0030416525
0.010383087
0.01637279
0.021333229
0.026061814
0.027622877
0.028859694
0.03465537
0.032915484
0.014818384
-0.01130993
-0.039584976
-0.05685985
-0.053863563
-0.04359594
-0.029983332
-0.010039732
0.0069099423
0.009419657
-0.003652053
-0.012459931
-0.007485357
-0.002918237
9.879709E-4
0.0063220197
0.008872093
0.011567871
0.010280165
0.0072514685
0.008588663
0.00823518
0.010530479
0.016072499
0.014870269
0.011776183
0.007969512
-1.5725152E-5
-0.006434304
-0.011494599
-0.014163061
-0.012057634
-0.010591885
-0.01011356
-0.010152981
-0.010499512
-0.006365116
4.3637608E-4
0.006346657
0.010028611
0.009469488
0.0051151006
7.4999535E-4
0.0057251453
0.013070328
0.004921919
-0.0042268815
0.0012617519
0.010375424
0.01822899
0.01940892
0.011766196
0.008116772
0.0080097
0.0057120295
-0.0013098816
-0.017940179
-0.031334687
-0.029920952
-0.023046
-0.017878264
-0.012696585
-0.004208071
0.0032918593
0.003986359
0.0033766262
0.004710992
0.0070084133
0.0068305987
-1.10849214E-4
-0.0031877717
0.0026155568
0.006197536
0.004258914
6.696229E-4
-6.423046E-4
-0.0027344213
-0.010651677
-0.019516401
-0.025250487
-0.02166945
-0.008289094
0.0013934053
0.006312971
0.01009653
0.010373779
0.010967141
0.010908873
0.009763688
0.014699858
0.024113588
0.028775841
0.026685834
0.024162456
0.02121768
0.011972438
-9.0586436E-5
-0.00404113
0.0022769747
0.009770334
0.016776169
0.020258203
0.009174885
-0.0069180713
-0.018494066
-0.036233272
-0.057100683
-0.06375159
-0.052083053
-0.039785646
-0.039245743
-0.03717718
-0.02397178
-0.006678139
0.0060943384
0.014170745
0.019483825
0.017376393
0.014244726
0.017243966
0.019914063
0.021151524
0.02265932
0.028496122
0.03531075
0.030261561
0.023559656
0.022530956
0.01657306
0.006848664
-0.0068478505
-0.021430684
-0.025760854
-0.023048727
-0.021803686
-0.023182139
-0.02444136
-0.025883809
-0.02400654
-0.017225362
-0.015076855
-0.012556812
-0.0048251445
0.0019003478
0.015335242
0.039586104
0.06875318
0.08910278
0.09155514
0.08509106
0.065954335
0.038461722
0.018065918
-7.192611E-4
-0.01606219
-0.030161528
-0.0544306
-0.084104955
-0.111883394
-0.12532271
-0.12056088
-0.106781945
-0.086232945
-0.06527663
-0.042767838
-0.013018513
0.015561405
0.0374148
0.051878605
0.06079902
0.06987946
0.08000371
0.08335733
0.0778984
0.07544037
0.076389186
0.074283056
0.06450524
0.041267432
0.015051058
-0.010653027
-0.029597444
-0.030292677
-0.03867686
-0.055611
-0.054061707
-0.031101348
0.011399786
0.029405443
-0.004845391
-0.048797168
-0.07995549
-0.081288196
-0.059831362
-0.058286544
-0.056871653
-0.023955522
0.037659153
0.104463704
0.14309496
0.16715768
0.15930073
0.08893892
0.018117616
-0.03857919
-0.09991219
-0.110299505
-0.08479085
-0.08368902
-0.09560093
-0.10728725
-0.10437701
-0.10226643
-0.1492933
-0.17350008
-0.11039571
-0.016459614
0.09840796
0.19447196
0.21776877
0.22894126
0.22359604
0.18771426
0.16458264
0.11529922
0.047410965
-0.0015845116
-0.04036776
-0.039127685
-0.038606152
-0.09560255
-0.13536046
-0.0849067
-0.0114755025
-0.001365464
0.014701205
0.050982334
0.0234453
-0.013171386
-0.042189773
-0.08581523
-0.09700279
-0.12037354
-0.16834596
-0.18965581
-0.1535694
-0.0632083
-0.02772631
-0.020428555
0.0653146
0.15592667
0.22397444
0.25555217
0.18112257
0.092812724
0.08850501
0.10351616
0.07542833
0.017178059
-0.081465065
-0.1897808
-0.219619
-0.2075729
-0.19764255
-0.16028692
-0.09765487
0.0047250674
0.11261614
0.19692165
0.26039922
0.24348849
0.19732456
0.14061587
-6.8460655E-4
-0.13136654
-0.1970225
-0.21972024
-0.16170779
-0.06522217
0.010193842
0.030151661
0.016149776
0.06906746
0.17627798
0.23974842
0.21517289
0.13548778
0.037140165
-0.11187048
-0.24317642
-0.24620657
-0.18687432
-0.14586207
-0.11026077
-0.07186379
-0.037898216
-0.00747387
0.021784158
0.044192325
0.0601033
0.06594978
0.06017051
0.055411234
0.041589957
0.021387056
0.017448587
0.02008211
0.02085759
0.02329651
0.024833048
0.026194388
0.026702054
0.024538707
0.020464452
0.019409548
0.017618144
0.0104592405
0.004972716
-0.0019052543
-0.008961788
-0.011287913
-0.01653986
-0.023352401
-0.029006436
-0.032396093
-0.03177577
-0.03249928
-0.029980337
-0.021566784
-0.013194455
-0.004471031
0.004310203
0.012093691
0.016208615
0.016811183
0.018018244
0.014482254
0.006245981
-7.717537E-5
-0.007066581
-0.013564132
-0.014664975
-0.013262421
-0.011109709
-0.006375016
-0.0010585684
0.00411996
0.009689631
0.014638148
0.019079117
0.021194316
0.02166238
0.020464193
0.014759332
0.009916051
0.0071594943
0.0026931246
4.5444357E-4
-8.223224E-4
-0.0033943122
-0.0041901716
-0.0058295964
-0.007951164
-0.0080266595
-0.009519026
-0.011862664
-0.013636289
-0.015711783
-0.01530225
-0.01304298
-0.0121359
-0.012802571
-0.013577205
-0.009561179
-0.0019341263
0.003257724
0.0080245575
0.0107820425
0.008709679
0.007327708
0.0063716047
0.0057872743
0.008515314
0.010343341
0.011664746
0.014644733
0.0153787965
0.011752944
0.0047662174
4.7161125E-4
2.4279562E-4
-8.302331E-4
7.8972615E-4
0.0046105217
0.0051534288
0.004450371
0.0021865317
-0.00159873
-0.0046063336
-0.0062091914
-0.0047893557
-0.0048527303
-0.008181952
-0.009866392
-0.010417615
-0.008173555
-0.0034588033
-0.002413467
-0.0030984797
-0.0029883664
-0.0033945646
-0.0023696725
2.951395E-4
0.0018096957
6.177137E-4
-0.0018371938
-0.0022382452
-1.2656786E-4
2.6256172E-5
-0.0021319627
-8.3078194E-4
0.0014069207
9.998417E-4
0.0027457033
0.005060059
0.004833031
0.004467686
0.003779996
0.0039615743
0.0051508737
0.0037183422
0.001450791
0.001624848
0.0015222678
3.0428395E-4
7.011025E-4
-3.0253033E-4
-0.0027017621
-0.0018506827
-0.0014103417
-0.001217018
6.97693E-4
-8.758297E-4
-0.001608615
1.3784849E-4
-0.0015512815
-0.001695778
2.183439E-4
9.1344333E-4
0.0029303175
0.0016232983
-0.0025931646
-0.0022405148
3.9648527E-4
0.0010902877
-5.0492125E-4
-0.002169297
-0.0018243762
-0.0020389736
-0.0029570574
-0.0033113472
-0.0045415
-0.0051908353
-0.0034987591
-8.822888E-4
-1.9324283E-4
-0.0013535375
-9.0269675E-4
-1.09205925E-4
-5.855773E-4
2.1425099E-4
9.697075E-4
-2.409341E-5
-9.0024975E-4
-7.615121E-4
1.6654242E-4
0.0015211689
0.0034601472
0.005152978
0.00532027
0.0061571067
0.00804001
0.0075505623
0.005049686
0.0017233032
-0.0021727155
-0.0035820757
-0.0044379584
-0.0068250704
-0.005599613
-0.0026540542
-0.0027503534
-0.0041710082
-0.0051561254
-0.0026343607
7.3373684E-4
7.4890506E-4
0.0014265485
0.001657721
0.001292981
0.001976091
1.1150362E-4
1.6857049E-4
0.0017177756
-5.281044E-4
-0.0010050663
5.8396603E-4
0.0020953247
0.0034089054
0.0011647089
-6.302137E-4
4.4139987E-4
3.9995002E-4
-5.835344E-4
-0.0012311025
-0.0020644886
-0.0036104396
-0.003674223
-0.0016146019
-0.0014572601
-0.0032807735
-0.0030826356
-3.612281E-4
-1.8176316E-4
-0.0026794865
-0.0011624172
0.0015899417
4.5533132E-4
-5.3181895E-4
5.9433246E-4
0.0013700263
0.0012907598
0.0015745722
9.852129E-4
8.052339E-5
0.0015700138
0.0017648316
5.0142757E-4
8.024783E-4
4.3079403E-4
9.222702E-4
0.0014814547
5.9064827E-4
0.0017076817
0.0011744897
-9.927639E-4
9.4563415E-4
0.0038733692
0.004023683
0.0027997384
0.0024798887
0.0015483412
-8.7747036E-4
-7.219272E-4
-5.6152936E-4
-0.002213147
-0.0013998344
-9.748534E-4
-0.0018695699
-0.001999609
-0.0029595646
-0.0032089935
-0.0037140183
-0.004054107
-0.0011650728
-2.6419616E-4
-0.0010789104
-2.5854297E-5
-0.0015273223
-0.0031170046
-0.0013702475
-2.2000157E-4
-1.6020154E-4
1.0578182E-4
9.70018E-4
0.0013150574
2.0288362E-4
-1.3585503E-6
4.5395E-4
0.0012857105
0.003261237
0.003750238
0.0031584923
0.0030492053
0.002594557
0.0026497531
0.0024519595
8.656649E-4
-7.8325E-4
-0.0016375821
-0.0016435726
-0.00274345
-0.0041980417
-0.0025206227
-3.2341827E-4
6.636991E-4
0.0010196844
-0.0014669705
-0.0018348384
0.0018115573
0.002321395
0.0016653839
0.0015688627
-4.096544E-4
-8.4429135E-4
-5.651093E-4
-1.8410252E-4
0.0015963091
0.0020091399
0.0014889161
-7.976906E-4
-0.002342889
2.268508E-4
3.3581076E-4
-6.913444E-5
0.002290031
0.0017294949
2.2656217E-4
-2.0316E-4
-1.1214084E-4
-0.0014828308
-0.00684673
-0.008506395
-0.0045496537
-7.188771E-4
-3.4557303E-4
-0.004293429
-0.0033892835
0.0014537618
0.0023376686
0.003987068
0.0042072516
0.004022958
0.0073603177
0.0049479743
7.4501627E-4
7.790401E-4
-0.0012220495
-0.002611552
-0.0014817544
-9.5960444E-5
0.0011974875
2.0090051E-4
-8.05634E-4
-9.4199204E-4
-0.0012688796
-9.893573E-5
-1.4785919E-4
-7.49269E-4
6.198017E-4
5.5531797E-4
-2.6832163E-4
-0.0012884135
-0.0029545738
-0.0017266809
-5.7453377E-4
-0.001178771
3.6255125E-5
9.513483E-4
0.0020999634
0.0033022144
8.460117E-4
-1.9431805E-4
0.0014111946
0.0013053337
0.0015535478
0.001899529
9.67356E-4
1.861224E-5
-8.594542E-4
-0.0016295352
-0.003230951
-0.0036681418
-0.0012003566
9.6005545E-4
0.001239579
-2.5196502E-4
-6.5000297E-4
0.0010300959
8.722604E-4
6.423424E-4
0.0010966915
5.294623E-4
5.7411205E-4
-4.5395366E-4
-7.562999E-4
0.0012956708
0.0011715778
7.3721465E-5
-8.614505E-4
-0.0021272374
-0.0015406886
-8.89507E-4
-4.445715E-4
3.327734E-5
-8.674803E-4
-7.5763825E-4
-1.9646414E-4
-3.2699443E-4
6.911775E-4
0.00166253
0.001493086
3.990745E-4
-2.5047048E-4
6.628162E-4
4.1837484E-5
-0.0018053286
-9.292443E-4
9.529213E-4
0.0014398411
0.0021041995
0.0013899815
-0.002555574
-0.003694298
4.0363314E-4
0.0023586722
0.0010884561
4.0129875E-4
-9.932145E-4
-0.0022019371
-0.0012661214
4.5510952E-4
0.0020925084
0.0018353265
-1.8321555E-4
-2.785632E-4
7.706973E-4
2.3271186E-5
-3.7325826E-4
0.001047887
0.0011132981
-2.77342E-4
-5.3225935E-4
1.1322174E-4
5.223364E-4
-9.864531E-4
-0.0026281432
-0.001127984
-5.5108964E-4
-0.0013140608
4.6923626E-4
6.286751E-4
-5.827391E-4
0.0014447604
0.0010566771
-0.0034059256
-0.0028900132
0.0023772381
0.0041812626
0.0019704325
-7.6385756E-4
-0.0011523629
3.6143305E-4
-3.7847325E-4
-0.0010215647
4.952022E-4
9.804745E-4
8.8901795E-4
-2.8343793E-4
-7.311938E-4
0.0013435513
8.2966266E-4
2.6685183E-4
0.0011738553
-0.0015635338
-0.0023775722
7.8333094E-4
0.0012512512
1.5134696E-4
-3.2922218E-4
-0.0011269896
-0.0011534635
-6.443644E-4
-0.0012908891
-0.0016539299
3.80117E-4
0.002015568
0.0011521134
9.176295E-4
0.0016808165
3.791388E-5
-0.0024901223
-0.0017693402
-1.9331108E-4
-4.0999855E-4
-1.0470175E-4
6.8261067E-4
0.0012413115
6.263562E-4
-0.0015400186
-5.0648255E-4
0.0013455659
-8.10591E-4
-0.0010773011
7.565156E-4
4.407478E-4
6.881101E-4
0.0010129295
7.642806E-4
4.5330398E-4
-0.0018465718
-0.0018339022
6.807913E-4
-9.569491E-5
-5.735984E-4
3.6975244E-4
-5.560644E-4
-4.6323775E-4
1.7836504E-4
-3.337284E-5
2.3321576E-4
3.8348782E-4
0.0015017283
0.0015803879
-5.829403E-4
-3.9286817E-5
0.0011438048
-4.6859198E-4
-8.18597E-4
6.20972E-4
8.259649E-4
3.6969548E-5
1.2819997E-4
6.436166E-4
-6.1926973E-4
-0.0019616794
-9.182063E-4
-4.7841304E-4
-0.0011291959
6.659936E-4
0.0018068153
-2.7307772E-4
-1.9184927E-5
0.0023527986
9.250509E-4
-0.00259488
-0.0035072262
-0.0020042846
-4.7433627E-4
3.3471503E-4
0.0010223836
8.7197986E-4
4.9134815E-4
0.0012795626
3.9395373E-4
-0.0011704953
5.22639E-4
6.4930547E-4
-0.0020876164
-0.0011494493
0.0015506261
0.001359221
-1.3380455E-4
-0.0013499693
-0.0013095321
2.192313E-4
4.5843387E-4
-8.8335446E-4
-6.672948E-4
-1.8849522E-4
-3.4810597E-4
0.0012073672
8.056375E-4
-0.0012300082
8.108123E-4
0.0024672742
0.0011501762
0.0012765256
0.0014363815
3.9860356E-4
4.6603524E-4
6.9026323E-4
-6.4039597E-4
-0.0014520278
-9.112712E-4
-0.0014565004
-0.0013728326
5.455452E-4
4.9361435E-4
-4.2665837E-4
0.0014507833
0.0028548315
2.2509918E-4
-0.0018052352
-1.888966E-4
3.4885027E-4
-0.0010464274
-9.5141784E-4
5.2356813E-6
-6.496718E-4
-0.002273038
-0.0020119858
1.6375957E-4
0.0024011384
0.003082038
0.0020243693
0.0013260666
2.8219688E-4
-6.013017E-4
1.200306E-4
-2.1615934E-4
3.241951E-5
7.2115957E-4
-0.0014293428
-0.0020946946
-6.137347E-4
-5.507137E-4
-0.0010230982
-0.0016016155
-0.0011291744
8.038011E-4
4.8499956E-4
-0.0021519929
-0.0021846304
-7.149811E-4
-7.858631E-4
9.770876E-4
0.0021299869
5.436812E-4
9.835454E-4
2.5449134E-4
-0.0014908443
-2.003024E-5
3.285637E-4
2.7872392E-4
0.002055799
0.0024365995
0.0019750565
0.0019021786
0.0019583974
0.0022664464
0.0013967619
-0.0011608826
-0.0016675161
5.546149E-4
7.162372E-4
-0.0010386915
-0.0023568426
-0.0019037937
1.3792135E-4
-1.466046E-4
-2.77309E-4
8.339382E-4
-4.343928E-4
-9.101266E-4
-7.95456E-4
-0.0011720508
-0.0011424567
-0.0019348167
-5.0693494E-4
4.864241E-4
-9.774013E-4
-5.8034546E-4
-7.7760074E-4
-0.0011628033
-2.531507E-4
6.313095E-4
0.0026393845
0.0026369244
0.0011213665
6.072963E-4
-5.653611E-4
-0.0014550443
-0.0018417811
-7.5099553E-4
4.4922187E-4
-2.1641263E-4
0.0011761781
0.0017135149
7.879115E-6
0.0011151936
0.0018083814
9.250916E-5
-0.0013006326
-0.0011012554
6.8053306E-4
0.0011419654
-1.1608079E-4
-0.0013237374
-9.739485E-4
0.0013173355
9.480676E-4
-0.0025928018
-0.003195286
1.277325E-4
0.0024566902
0.0018505099
8.097901E-4
1.8967556E-4
-3.570068E-4
-8.8541064E-4
-0.0014179976
-0.0010609037
-2.2010448E-4
5.273115E-4
-2.9972388E-4
-0.0016240258
4.4760638E-4
0.0015410135
5.8572873E-4
0.001843266
0.0012993044
-4.1593617E-4
-9.0245274E-4
-0.0019469147
-5.606765E-4
0.0020032292
0.002899439
0.0018021049
-0.0017031998
-0.0027526547
-0.0014049315
-0.0011954359
-4.0560687E-4
3.8466247E-4
5.518001E-4
3.9160455E-4
-3.475757E-4
-2.0864345E-4
-2.8907356E-4
-0.0011877656
-8.537138E-4
8.264078E-5
4.58E-5
-6.055184E-4
-0.0010273667
-5.913188E-4
2.8183658E-4
4.0522031E-4
0.0016379785
0.003898723
0.0022913362
-8.1118254E-4
-9.161892E-4
-7.8399613E-4
-5.665794E-4
-1.861872E-5
-8.4325834E-4
-1.2117359E-5
0.002155731
0.001326672
-2.2711762E-4
8.139811E-4
0.0014960758
2.3131676E-4
-5.970118E-4
-7.2450354E-4
-4.3847493E-4
2.0497905E-4
-1.03565886E-4
-9.378994E-4
-9.068977E-4
3.1895094E-4
1.6506214E-4
-0.002498702
-0.0026803794
-0.0010945691
-0.0014884798
-1.0573851E-4
0.0012561128
-7.8012096E-4
-8.164429E-4
7.22326E-4
1.3925877E-4
-4.0057738E-4
-5.915922E-4
-3.9253943E-4
9.6595014E-4
0.0016580926
0.002102872
0.0031462966
0.002960261
5.285358E-4
-0.0026806253
-0.0022028973
0.0026528484
0.0048390804
0.0032983082
0.0036275575
0.0025615855
-0.0026042005
-0.0040993206
-0.0015897668
-0.0013728588
-0.0017128036
-8.4604096E-4
-0.0014760185
-0.0033894994
-0.002456986
8.6592906E-4
1.6058484E-4
-0.0016084138
-7.398289E-5
-0.001495905
-0.00350559
-0.0012118947
-2.6770409E-5
4.1496325E-5
0.001361069
0.0020145497
0.0013475178
2.6629042E-4
7.467022E-4
5.44811E-4
-8.808711E-4
0.0010541781
0.0025233203
6.073432E-4
4.884376E-4
0.0019294675
0.0025431097
0.0017040693
-5.190343E-4
-5.010263E-4
-1.8384034E-4
-0.0028708833
-0.0018386097
0.0029857215
0.0028783681
-8.656901E-4
-0.0029107672
-0.001588153
0.0012271192
3.4840725E-4
-0.0012143612
5.027089E-4
9.028621E-4
-2.5366852E-4
-0.0013180163
-0.0018091393
3.7051883E-4
0.0015864442
4.3256968E-4
2.9832313E-6
-7.5518846E-4
-0.0013931306
-0.0014693161
-0.0015739579
-3.6733606E-4
1.5462913E-4
-5.48173E-5
7.680708E-4
0.0014368679
0.002630045
0.001735497
-0.001907408
-0.001804936
-9.7035925E-5
-9.480354E-4
-8.797271E-4
7.351355E-5
-2.0778712E-4
-0.001293484
-0.0011207019
3.9371976E-4
-1.7447933E-4
-1.4472645E-4
0.0029822378
0.0036261976
0.0014525481
6.442658E-4
0.001224783
0.0014775931
3.50027E-4
-8.4781565E-4
-0.0010462435
-7.6394336E-4
2.7211949E-5
-1.9710342E-4
-0.0012282243
2.75733E-4
0.0019381052
2.353533E-4
-5.6923303E-4
-3.72825E-4
-0.0021945317
-9.960838E-4
7.781777E-4
-0.0024642074
-0.003461975
-8.9552416E-4
2.4417616E-4
7.412374E-4
3.282299E-4
3.7198685E-4
0.0015990733
0.0013924318
-1.3296686E-4
-0.0015422269
-2.8553183E-4
0.0017111356
0.0010130923
7.2039786E-4
0.0010171948
0.0011186834
0.0012259604
-5.596399E-4
-0.00115779
-2.2416636E-4
-8.472269E-4
-0.0015725724
-0.0014194031
4.1525456E-4
0.0015116757
-5.661124E-4
-9.767822E-4
4.8602806E-4
0.0012244151
0.0019333184
6.2380143E-4
-9.272293E-4
5.8095775E-5
2.6554964E-4
-4.3701037E-4
3.6869296E-5
4.5441182E-5
-9.933414E-4
-0.0012180049
-3.4744147E-4
-3.0022228E-4
-7.42231E-4
2.8677032E-4
9.2388614E-4
4.1816916E-4
6.6371384E-4
-2.3241132E-4
-0.0016429727
-6.0729985E-4
1.957127E-4
1.9517129E-4
0.0010551963
5.883383E-4
-6.5891125E-4
1.792774E-4
0.0011917865
-1.540074E-4
-7.143846E-4
5.727344E-4
1.7294935E-6
-5.631763E-4
3.2940772E-4
-2.3691093E-4
-9.6090225E-5
0.0016093449
0.001884472
2.500393E-4
-0.002512396
-0.0024681198
-8.6368826E-5
-0.0011106071
-0.0018784716
-3.1700477E-4
-3.4859244E-4
4.753561E-4
0.0012219106
5.834789E-4
8.2309457E-4
-3.4378414E-4
2.6716045E-4
0.0024765122
3.9705186E-4
-0.0012611116
-0.0010905033
-7.3111657E-4
0.0011759235
0.0011476518
5.606953E-4
7.2871346E-4
4.0576293E-4
6.502286E-4