-2.49005E-4
-7.356314E-4
-0.0018831935
6.676289E-4
0.0015394711
0.001171072
-3.3049268E-4
-0.0019055828
0.0017301368
0.0035343054
0.0012144465
0.002123786
0.002326784
5.0817087E-4
9.225086E-4
7.426583E-4
-0.0011037013
-0.0029437898
-0.0026132513
1.1077929E-4
-2.9417291E-5
-0.0010801848
7.778295E-4
8.5170195E-4
-5.1600975E-4
-6.7303755E-4
-0.0010846078
-0.0016547467
-0.0014489903
1.9570578E-5
-5.295575E-4
-0.0021763903
1.2957388E-4
5.3368375E-4
-0.0019095312
-8.575212E-4
4.5412214E-4
9.6919015E-4
0.0013673394
4.3179662E-4
4.2466386E-4
2.1198692E-4
2.473462E-4
0.0014222419
8.03126E-4
-7.6455006E-4
-0.0018450206
-8.066087E-4
8.7075005E-4
-3.8022376E-4
-1.8383631E-4
8.0287457E-4
-0.001563278
-0.0024841346
-5.153334E-4
9.7123056E-4
2.4508356E-4
-8.240041E-4
-3.6907088E-5
-7.474497E-4
-7.902083E-4
0.0022222537
0.0026631793
0.0013528555
5.0296605E-4
-4.4055897E-4
-7.170022E-4
-0.0015923186
-5.943785E-4
0.0014991836
7.938262E-4
4.4449864E-4
-2.2917622E-4
-0.0016185646
-0.0010446312
-0.0010188511
-6.6795386E-4
2.9413064E-4
-1.8743996E-5
-1.1519098E-4
-7.185352E-4
-8.3682005E-4
1.11677924E-4
-1.0686903E-4
-0.0014124583
-0.002641865
-7.2767754E-4
0.001277212
-2.0632657E-4
2.1385471E-4
0.0013831827
0.0016669584
0.003247187
0.0022985009
2.6596972E-4
-7.2843436E-4
-0.0023208805
-0.0011320736
0.0019449509
7.8599964E-4
-0.0026397698
-0.0021955438
-7.9026044E-4
-0.0011730314
2.0047334E-4
7.3557696E-4
-5.7199603E-4
-2.9457998E-4
-8.2206636E-5
-5.0759554E-4
-7.934535E-4
-7.9796545E-4
-4.999786E-4
-7.835534E-4
-0.0011501653
-9.937461E-4
0.0010025788
0.0023059607
-1.9783476E-4
-0.0015723265
-0.0010950852
-0.0015972324
-6.2737864E-4
0.001230813
8.3647005E-4
-6.264662E-4
-6.0377588E-5
0.0013400937
0.0012344208
0.0012316637
0.0017618407
0.001028811
4.3398933E-4
0.002096714
0.0023986776
0.0012208935
0.001556353
-2.5819612E-4
-0.0013755236
-3.9660282E-4
-8.0101093E-4
4.2364476E-4
-0.0011434947
-0.0017648387
0.0011858456
-0.0010602108
4.012446E-4
-0.002125601
-0.007624965
0.0016759984
-0.0056943726
-0.019490307
-0.003909561
0.003070532
-0.0018620432
0.0039799674
0.0031646406
5.903281E-4
0.0022897092
0.0015852785
0.0016690285
9.128445E-4
0.0013644078
0.002325958
0.001559841
0.0024284446
0.003667404
0.004916338
0.0047279224
0.0033247075
0.0024479018
0.0012362679
0.00249578
0.003858284
0.0019453871
-0.0010524032
-0.0020149157
2.234681E-4
3.2783766E-5
-7.888125E-4
0.0011220245
2.0077251E-4
-3.099313E-4
7.5253274E-4
-3.3705146E-4
-9.108847E-5
7.0006226E-4
2.9989387E-4
8.8641845E-4
0.0022259324
0.0028233912
0.0019504471
3.0719765E-4
-0.0015986189
-0.0028677895
-0.003984087
-0.0059501026
-0.0065339105
-0.0058044144
-0.0053906897
-0.0049586124
-0.0040175393
-0.003637837
-0.0040529366
-0.002152325
-0.0021479174
-0.0053666173
-0.0024538431
0.0018122861
0.0013837034
0.0017773247
0.0023435212
0.003186624
0.0033975036
0.0016061207
0.003486953
0.0062340084
0.006944704
0.009328346
0.01205178
0.01421121
0.0117007075
0.0052319
0.0038289027
0.0023127268
-0.0021350968
-0.0027457764
-0.0030323176
-0.0040106387
-0.00415259
-0.0042840275
-0.0022281245
-0.0013629213
-0.0018665636
-0.0017939492
-0.0042262985
-0.005741169
-0.0051936405
-0.0038874205
-0.0011362402
-0.0020947692
-0.0044608586
-0.0039934823
-0.004675818
-0.004737522
-0.0024480647
-2.2971455E-4
0.0010671808
2.4044844E-4
-0.001059735
-7.687629E-4
2.902844E-4
6.237382E-4
3.0540282E-4
0.001470375
0.0024359766
0.0018736887
0.0018525596
0.001263189
0.0012051191
0.0026509466
0.0015734544
1.2784611E-5
0.0011409794
0.0013972418
0.0011250125
0.002138291
0.0026145277
0.0029090457
0.0021073204
0.0015373522
0.00353904
0.002236921
-1.3401805E-4
7.122724E-4
-0.0015842421
-0.002864686
-0.0011972224
-0.002371196
-0.001582471
-5.813332E-4
-0.0016881097
4.920082E-4
0.0020975773
8.720911E-4
-7.3344534E-4
-0.0011573173
1.8191342E-4
-8.8136544E-4
-0.001721166
1.20923316E-4
-6.8149675E-4
-0.0022536686
-0.0025681036
-0.003078018
-0.0017161574
6.019002E-4
0.001018911
-1.1440535E-4
-5.9179857E-4
-0.0011335041
-0.0027383692
-0.00219723
-3.2521324E-4
-7.664274E-5
3.5876775E-4
8.7388715E-4
-3.2430224E-4
-0.0017801335
-9.470418E-4
0.0011821492
0.0010177424
6.859582E-5
8.8520086E-4
0.0015887019
0.0019414772
0.0013531275
-4.9198925E-4
5.4208026E-4
0.0035732158
0.0036978866
0.0014326014
-4.1323388E-4
-9.634229E-4
-0.0016312647
-0.0029467517
-0.0029834753
-0.0010303312
9.5470453E-4
5.7234295E-4
5.413737E-5
0.0015756612
0.002169597
0.0020492717
0.0029403355
0.0037837927
0.0035179583
0.0016014859
-6.7866163E-6
2.3325962E-4
0.0017186742
0.0016611606
4.6616216E-4
0.0020748393
8.458282E-4
-0.0014738874
7.1492867E-4
-0.0022964573
-0.0033227142
0.0026203915
0.0019574023
0.0017761318
0.001121751
-0.005110716
-8.5772545E-4
0.00226213
-0.011641558
-0.02116285
-0.011321508
0.0031421985
0.005834762
0.003042394
0.0035685468
0.0037777873
0.0033151421
0.0022173873
0.0017706538
0.0029796374
0.0023260918
0.0020408384
0.0027064215
0.0032863067
0.0046207616
0.0041456386
0.003090438
0.0018923401
-1.5884364E-4
-7.133571E-4
-8.251323E-4
-8.834718E-4
-0.0012969881
-0.0014866862
3.8947843E-4
3.6109786E-4
-0.0014167996
-0.0016920061
-0.0014194372
-0.0010536737
-0.0024368428
-0.0028859167
7.3997694E-4
0.002115395
-1.5014257E-4
-0.0018969056
-0.002033718
-4.5011382E-4
-1.7587663E-4
-7.359016E-4
0.0012525709
0.0028277745
0.0025506627
0.0013573571
-9.646457E-5
-1.0820523E-5
-8.3493476E-4
-0.0022658552
-0.001736835
-0.0019603916
-0.0026714567
-0.0024612183
-0.0016972639
-9.605401E-4
-9.266802E-4
0.0017974208
0.00435595
0.0010276393
-0.0021364207
-4.484047E-4
0.0016765437
0.0010900886
9.739641E-4
0.002587705
0.002361909
0.0017995508
0.0013376025
4.02777E-4
0.00110266
0.0013075541
0.0013391399
6.6500134E-4
-5.2752526E-4
-1.75541E-4
-0.0030122618
-0.0036405995
4.9919003E-5
-5.8647845E-4
2.746106E-4
0.0018626206
-6.3637085E-4
-5.134599E-4
-1.2142863E-4
-0.0014214342
-0.0023680718
-0.003354201
-0.002803389
-0.0018817007
1.0714723E-4
0.0013499366
4.2387267E-4
0.0013106914
0.0016784237
0.002029642
0.0014006611
-0.0029005876
-0.0028139586
-4.4578663E-4
9.5784104E-5
0.0031353207
0.004279669
0.0038049724
0.004476249
0.002748153
0.0016778705
0.0015207602
-0.0017876242
-0.0044829366
-0.0035775322
-0.0022435985
-0.0011555998
-9.0236936E-5
-0.0012438818
-0.0018029104
-2.2753737E-4
5.044286E-4
0.0012284091
5.1720574E-4
-0.0019094453
-0.0024421972
-0.0019189488
-0.0012800447
-0.0010493916
-6.8465876E-4
3.2153688E-4
9.822997E-4
0.002600547
0.0011750584
-0.0010319921
0.0023332648
0.0031125825
0.002727514
0.006087373
0.0066220127
0.006071746
0.0028060605
-0.0028753981
-0.0035666395
-0.00343495
-0.0019351986
-5.1802926E-4
-0.004436319
-0.004536762
-0.0017381476
-5.638615E-4
0.0018540953
4.1758438E-4
-0.0023169208
-0.0027555756
-0.0035165644
-0.0024011726
-0.0020851013
-0.0022081397
-2.5292468E-4
-4.0115914E-4
1.8558503E-4
0.0019257772
9.59206E-4
0.0011062023
0.002303026
0.0031132058
0.004032344
0.0031536233
0.00482333
0.0086506605
0.0068530305
0.0022748478
-0.001582567
-0.0062513547
-0.0078319805
-0.0044863783
-8.587063E-4
-1.2475914E-4
-9.615025E-4
-0.001297284
1.7116712E-4
0.0018000376
-7.2328135E-4
-0.00283107
-0.0017736834
-0.0027875653
-0.0020887936
1.2745576E-4
8.2081434E-4
0.0016407799
-3.5441702E-4
0.0015723518
0.005466931
0.0019593316
5.50358E-4
-4.1771022E-4
-0.0028457819
-3.1503712E-4
5.3816434E-4
4.359247E-4
5.705711E-4
0.0027874368
0.0064707426
0.0033926598
0.0019277638
-0.0033853306
-0.008440671
-3.3002588E-4
-0.008653392
-0.017367486
-0.0023170796
4.0130143E-4
-6.7226257E-4
0.005635333
0.0037564125
0.0064975834
0.007512091
0.0044906405
0.0064948774
0.002605032
-3.6406438E-4
8.519303E-4
-0.0021105811
-0.004182322
-0.003175796
-7.761851E-4
3.7963055E-5
-5.445655E-4
-2.8552476E-4
-6.741071E-4
1.5089549E-4
0.0013885407
0.0016123242
3.7378832E-4
-0.0019963158
-0.0017185635
-0.0014480517
-0.0014422203
-8.0605474E-4
-0.0028239028
-0.004112556
-0.0041234605
-0.0029233014
7.488022E-5
0.001218995
0.003008028
0.0043060565
0.0027778032
0.0025339078
0.0022053777
7.5560925E-4
-3.4694865E-4
-1.0697504E-4
0.0013526645
1.641715E-4
-0.0024747828
-0.0033438222
-0.0010571383
0.0037108124
0.0033326468
-5.745114E-4
-2.9815466E-4
-6.1308016E-4
-0.0019731654
0.0012051802
0.0047111525
0.0057436773
0.0055047604
0.0032957986
0.001890736
6.7126733E-4
-0.0026772465
-0.0038276424
-0.0044714967
-0.008504344
-0.009941149
-0.0057233437
-0.0017426139
-0.0011335671
-8.956179E-4
-2.8445828E-4
-7.599967E-4
-9.2241407E-4
-6.7638984E-4
-7.044709E-4
5.524733E-4
0.003659044
0.006089877
0.0047377003
0.0026316487
0.0026663335
0.0014667893
0.0013064864
0.004611954
0.0060958406
0.005311882
0.0033582302
-5.943186E-4
-0.0020963554
-9.5252093E-4
-0.0023595407
-0.005657837
-0.007104211
-0.004606334
-9.940244E-4
-9.871338E-4
-9.3274657E-4
0.0020396884
0.0038579977
0.0047668335
0.0047932034
0.0021113385
5.19529E-4
0.0012931924
0.0023383072
0.003240521
0.002016508
-3.930205E-4
-4.7774235E-4
7.141991E-4
6.5999647E-4
-0.0015636026
-0.003972018
-0.00421255
-0.005907578
-0.010324333
-0.012398922
-0.010915637
-0.0074881227
-0.004687374
-0.0049120653
-0.0046848026
-0.0035650244
-0.0044137985
-0.0030831671
0.0012894456
0.0040740175
0.006528438
0.011138481
0.016618297
0.02000778
0.020069519
0.02032079
0.020631514
0.016975602
0.011585923
0.0056526735
-0.0016128278
-0.005957911
-0.008299221
-0.011440215
-0.012159833
-0.010864152
-0.009844987
-0.009582185
-0.010031535
-0.009162339
-0.009768891
-0.0133615015
-0.014678658
-0.015275563
-0.015492015
-0.010908396
-0.006647003
-0.0046807397
-1.3764969E-5
0.004401587
0.0070453305
0.010965365
0.01205323
0.0113922
0.014797133
0.014040473
0.008762807
0.01006447
0.012345574
0.012604144
0.01396961
0.010987147
0.006930686
0.0022690836
-0.00606085
-0.010593025
-0.013242581
-0.016843906
-0.016913617
-0.014488963
-0.0102863265
-0.0057160603
-0.0010007037
0.0044239885
0.0060379137
0.0045008133
0.0035727017
0.0014625326
-0.0031115364
-0.0035794198
0.003090816
0.009738231
0.014134806
0.01469887
0.011902061
0.011098512
0.008494688
0.003703291
-0.0023211574
-0.00830545
-0.008770557
-0.010292465
-0.01265739
-0.01790298
-0.026490113
-0.022259623
-0.024711667
-0.035535604
-0.021438574
-0.004962556
-6.802553E-4
0.0077642826
0.014283725
0.021683125
0.026889503
0.025730437
0.027519751
0.024730276
0.017855588
0.014062535
0.010682389
0.006811385
0.0010098192
4.9077964E-4
0.0064284876
0.008875283
0.008409171
0.00545603
-0.0022113514
-0.010868985
-0.014478098
-0.014728026
-0.019618645
-0.026467562
-0.029751606
-0.028393494
-0.022432929
-0.01478914
-0.006054449
0.0012384406
0.007007475
0.0125246765
0.015669465
0.023326145
0.03130509
0.02706729
0.016356971
0.003924001
-0.0057527474
-0.0064970898
-0.005395891
-0.0048478143
-0.006412769
-0.016173009
-0.026615737
-0.031082995
-0.029507574
-0.019463545
-0.007821134
3.969531E-4
0.011636043
0.023047585
0.027892208
0.029698342
0.031549122
0.029088352
0.016669272
5.099731E-4
-0.008334293
-0.006481585
0.0064044436
0.017729154
0.018554125
0.023622246
0.034726318
0.03402258
0.011996496
-0.022773162
-0.049164128
-0.06226427
-0.06552511
-0.05020407
-0.027815932
-0.018813176
-0.011238657
0.0059138094
0.014719737
0.0027113315
-0.020575278
-0.03702379
-0.03277456
-0.013482167
0.007761292
0.028769726
0.04434002
0.049599558
0.049369197
0.047221754
0.043180134
0.036076285
0.028937813
0.025063947
0.022285406
0.017394146
0.0012139933
-0.022518327
-0.031789575
-0.028225731
-0.031094167
-0.03861161
-0.034447595
-0.01936587
-0.012302896
-0.01750065
-0.020698544
-0.010985731
0.0030471717
0.0063697314
0.006095398
0.0026361782
-0.011118714
-0.019170834
-0.024477173
-0.038556907
-0.046092793
-0.038511407
-0.016084712
0.0133275855
0.038391497
0.060680155
0.06966503
0.056767955
0.03556066
0.015685776
6.4320065E-4
-0.008865118
-0.011666423
-0.00694719
-0.006645657
-0.008556184
0.0035453215
0.015935652
0.017959725
0.029838907
0.04692267
0.053615876
0.056798115
0.047015343
0.014525605
-0.02399345
-0.05110767
-0.06339723
-0.06577687
-0.049260247
-0.021733819
-0.01792997
-0.030504499
-0.037328392
-0.036641292
-0.02639143
-0.022299808
-0.02132692
-0.007845594
0.0019501905
0.0071807345
0.008462695
0.0052876133
0.021190263
0.04143304
0.041516848
0.028602915
0.010494402
6.8524264E-4
-0.0019213086
0.0074549187
0.036024883
0.0362174
0.0051130587
-0.0070741116
-0.009739087
-0.0112329945
-0.0055730455
-0.0071171606
-0.005460194
-0.010322743
-0.03168095
-0.019623542
0.023581604
0.03909405
0.03707059
0.04683518
0.046880156
0.025348896
0.0027562673
-3.286227E-4
0.003279999
-0.0114206085
-0.012452156
0.011382597
0.0035505127
-0.035923656
-0.0736456
-0.10462811
-0.12055647
-0.11635367
-0.07534936
-0.0067170095
0.061723918
0.123440616
0.12848668
0.087277345
0.06436377
0.012447162
-0.07392593
-0.11313056
-0.09529575
-0.0568913
-0.016668268
0.04323126
0.102993585
0.11713632
0.12431577
0.11887418
0.041509252
-0.047734395
-0.069793575
-0.050899565
-0.027584858
-0.008871933
-0.034932233
-0.099063724
-0.12408391
-0.1030387
-0.06834933
-0.018451735
0.045563918
0.103898235
0.13222998
0.15920255
0.18323544
0.13868655
0.050480798
-0.034919966
-0.0934335
-0.08537231
-0.065769866
-0.074423686
-0.06165497
-0.044189632
-0.06475611
-0.09841885
-0.096703075
-0.052775633
-0.009818946
0.009177242
0.01904754
0.017710824
0.008986431
0.025508733
0.040412463
0.017171096
0.0025856765
0.002761973
-0.0010573718
0.021909267
0.0617114
0.09956038
0.12081134
0.11016173
0.09635482
0.06356776
-6.0853164E-4
-0.04154086
-0.04775674
-0.03785881
-0.02168775
-0.0067842095
-0.007462511
-0.0494093
-0.10527434
-0.1365273
-0.1326049
-0.083016515
-0.027563777
-5.5882894E-4
0.016342336
0.03182129
0.04672289
0.052356627
0.04816248
0.04633872
0.035566766
0.018421875
0.008772098
0.005267399
0.007781829
0.009433091
0.008011038
0.0060366853
0.0018561201
-5.963891E-4
-0.002502425
-0.002709824
-0.0011800372
-0.0029344761
-0.005927725
-0.011622372
-0.0145687675
-0.0132563785
-0.013568202
-0.007862187
-0.0023593418
0.0058160056
0.020774513
0.013294267
0.0024798359
0.014312363
0.010690344
-0.011515316
-0.021221573
-0.013692324
0.002161997
0.012236058
0.01619367
0.01904456
0.019919002
0.018137556
0.008366425
-4.6286653E-4
-0.002818265
-0.009951815
-0.018586643
-0.021491006
-0.016719278
-0.007796191
-0.0047928863
-0.004799884
-0.004000531
-0.0036485412
-0.0020255428
-0.0023957663
-0.0040386706
-0.004061537
-0.0031258531
-0.0018988492
-0.0032010695
-0.0034840931
-8.0781634E-4
4.3283871E-4
0.0024903985
0.0055195186
0.0077724988
0.009011878
0.008196583
0.00956305
0.010755563
0.008734358
0.008134951
0.0057415655
0.0036809905
0.0056118327
0.0045368792
0.0024883796
4.576047E-6
-0.004699149
-0.005362096
-0.0052235066
-0.006126563
-0.005416533
-0.00650304
-0.007242844
-0.008164538
-0.008490706
-0.0030090006
4.4085618E-4
-6.1787124E-4
-3.4961486E-4
-3.64207E-4
-4.1770897E-4
3.1679414E-5
5.401563E-4
0.0011239115
0.0015055442
0.0021910898
-3.0410604E-4
-0.0029539496
-7.1442913E-4
2.6434602E-4
-5.306783E-4
7.898584E-4
3.949602E-4
-0.0016541075
9.4205484E-4
0.0047788434
0.0017493913
-9.780567E-4
0.00145388
0.0014658662
-4.1689683E-4
-7.748653E-4
0.0011976119
0.0023354038
-0.0011048757
-0.0012241858
0.0012452473
-4.7960068E-5
1.5575544E-4
8.955031E-4
2.2549511E-4
7.2367245E-4
0.0013594928
0.0019790994
0.0010307233
-0.0015880876
-0.0022016151
4.919529E-4
-1.6138711E-4
-0.0039951145
3.76553E-4
0.002501542
-4.955378E-4
0.003905591
-0.0050559
-0.020199785
-0.009770606
0.003609735
0.004311971
0.005253026
0.003811069
0.0011219897
4.6425717E-4
-0.0010279218
-0.003134251
-0.003601746
-0.0020082926
-0.0024478612
-0.0032561063
-0.0014381077
6.0113973E-4
9.5416646E-4
-0.0018389748
-0.00255072
-2.2885964E-4
-6.2835275E-4
-2.3862511E-4
8.275962E-4
3.8477115E-4
0.0015184401
0.0010898708
-2.1750599E-4
0.0017814405
0.0026874805
0.0014978779
0.0022255236
0.0029453982
0.0020577775
0.0018524658
0.002361773
0.0025448645
0.0016473243
8.611565E-4
0.0012351937
6.55943E-4
-4.9939994E-5
-4.5133996E-4
-0.0014131829
-0.0028294306
-0.0047814352
-0.0032338318
-0.0016626231
-0.003725201
-0.0025304998
-0.0011190999
-0.0013019658
-0.0012081685
-0.0036641639
-0.0014761027
0.0029957949
0.0026649174
0.0025828895
0.001953588
0.0025785211
0.0037152944
0.0010975219
0.001041469
0.001833704
0.0017075619
0.0028388335
0.0017151689
5.221391E-4
3.4108042E-4
0.0024133208
0.0049685994
0.0014434799
-1.2645804E-4
0.0029329897
0.003390544
0.0024188561
2.502934E-4
-6.51957E-4
-4.443931E-4
-0.0021851058
-0.0017569968
-0.0016491318
-0.0025528283
-0.001158905
-0.0029958186
-0.0066946647
-0.00702372
-0.006755931
-0.0071352753
-0.0065533575
-0.0061026285
-0.0069440315
-0.0072757825
-0.00726444
-0.0064871293
-0.00407386
-0.0026186209
-9.793708E-4
-8.060485E-4
-0.0025779677
-3.5851795E-4
0.0020681676
0.0036682584
0.0066354726
0.007207647
0.009912544
0.013601776
0.014330222
0.015949866
0.01441091
0.010255581
0.008077093
0.005842684
0.0035129285
0.00118117
0.0017624456
0.004584712
0.0041676816
0.0022706646
5.0417247E-4
-5.8955856E-4
-0.002034273
-0.0033295734
-0.00169621
-0.0043210434
-0.009356825
-0.008987576
-0.00814523
-0.007834439
-0.0085838195
-0.0099033415
-0.00828938
-0.0075729336
-0.0063595916
-0.005654071
-0.0074333567
-0.0055639483
-0.0038629326
-0.0032586874
-9.979059E-4
-0.0014756598
-0.0010055056
0.0010089976
0.0010721558
0.0012104654
0.0014676581
0.0033730974
0.0040742066
0.0027174351
0.005186172
0.0071783024
0.00692563
0.0075799683
0.0069342023
0.0069027576
0.0070947884
0.006029179
0.0061650006
0.005636555
0.0041833846
0.0028009682
7.0795196E-4
-7.4245845E-4
-0.001592794
-0.0026137317
-0.0036182734
-0.003659361
-0.003120992
-0.00404133
-0.004917202
-0.0053586573
-0.0065790564
-0.00627024
-0.0044398773
-0.0038004927
-0.0038718013
-0.002396774
-5.315361E-4
1.0350372E-5
1.797862E-4
2.4026522E-4
3.30351E-4
1.9458063E-4
0.0012205591
0.002913982
0.0015387762
0.0012880089
0.0024076256
0.0016993587
0.0033975088
0.0032970174
-2.6584896E-5
-5.953759E-4
9.345353E-4
0.0025386605
8.260245E-4
-7.158737E-4
-0.0018759979
-0.0037561532
0.0028020472
2.6531462E-4
-0.013810646
-0.00805181
0.0022936875
-7.1390107E-4
-9.0573286E-4
-4.947669E-4
-0.0022244442
-0.0031293186
-0.0052798046
-0.003750517
-8.103199E-4
-0.0023584173
-0.004062368
-0.0015507598
0.0012954262
0.0024792682
0.004402058
0.004281247
0.0029247587
0.0035300786
0.0045864144
0.005817077
0.005861732
0.0058694077
0.006562381
0.0055152127
0.0047083115
0.00365551
0.0026282514
0.0040328773
0.0054643624
0.0059963353
0.0069227237
0.008443011
0.004458609
-0.0060333237
-0.010830163
-0.0103262905
-0.010820082
-0.009122288
-0.008152121
-0.008570334
-0.006028163
-0.0038904212
-0.0034058734
-0.003048665
-0.0045069857
-0.004543272
-0.0018817709
-0.001062915
2.8496547E-4
0.0015262415
6.455932E-4
0.0026236456
0.0024094088
3.1131323E-4
0.002573682
0.002264597
0.0026845497
0.0055303443
0.004322561
0.0055512628
0.0053722733
0.0011253395
0.0020939717
0.0028138869
0.0013263832
0.0019297376
0.0013012066
2.9445067E-4
-7.348322E-4
-0.0018152489
-7.453525E-4
2.3496078E-4
4.4481276E-4
5.036178E-4
5.3702574E-4
0.0016062477
0.0018716672
7.532349E-4
-6.22371E-5
2.3545108E-4
0.0015705415
1.5526831E-4
-0.0032801914
-0.0029889452
-0.0019407163
-0.0022744113
-0.0014249694
-0.002035617
-0.0030489361
-0.0022968138
-0.001908086
-0.0011961121
-0.0012097099
-0.0016812636
-1.7197855E-4
5.503692E-4
2.3276801E-4
3.0839583E-4
-1.3920883E-4
1.5520332E-4
0.0012009961
0.0019483519
0.0020185804
2.2154859E-4
-0.0013022885
5.352547E-4
0.0029137146
0.0025196339
0.0014984194
0.0015739973
0.0013859854
1.1863021E-4
-0.0012943739
-9.3056133E-4
0.0010929373
0.003193627
0.0029756257
-6.7978946E-4
-0.0019731554
0.0014364301
0.0027320131
4.7741472E-4
-9.607946E-4
-8.221734E-4
-6.9561444E-4
-0.0013141361
-0.0021312742
-0.0020753539
-8.1753527E-4
3.5167858E-4
2.3312787E-4
-8.9331233E-4
-0.0014029334
-3.9056243E-4
2.7650027E-4
0.0010430975
0.0015771707
-8.596406E-4
-0.0013344595
0.0013838314
0.0013809429
1.9738333E-4
-6.5857236E-4
-2.1764141E-4
0.00261453
0.0024194694
7.732822E-4
0.0012514269
4.4979333E-4
-4.1466163E-4
-5.932305E-5
1.07840446E-4
5.6859676E-4
-2.8400007E-4
-0.0018163271
-8.7920274E-4
5.320986E-4
-1.10957E-5
-0.001040271
-0.0016131849
-0.0010747048
1.1998681E-4
-1.1251931E-4
-1.16727366E-4
7.731863E-4
5.0669594E-4
-2.1836204E-5
-8.009993E-4
-0.0013804629
-3.646735E-4
3.251241E-4
3.626116E-4
0.0010015809
0.001022294
-4.969667E-4
-8.631477E-4
0.001821781
0.0033291853
0.0012676318
-2.607354E-4
0.0010526017
0.0023190842
0.0020722735
0.001901562
4.5340488E-4
-0.001050522
4.0505984E-4
8.339696E-4
-1.940125E-4
6.196647E-4
0.0013491415
6.005818E-4
2.4287122E-4
-1.3526499E-4
-0.00307398
-0.0030475857
5.5039977E-4
3.663474E-4
0.0012152764
-0.0012179919
-0.0058150208
0.00220618
-4.3264343E-4
-0.016500566
-0.011077453
6.160433E-4
0.0016314558
0.0037938028
0.0017527352
-9.1273506E-4
0.001550766
0.0012333519
-3.000183E-4
-1.0114094E-4
0.0012242425
0.0018825441
0.001079211
0.0013261868
0.0013440516
0.0015977821
0.0025457754
0.0031761858
0.0049587237
0.0052758795
0.0045866873
0.003873062
5.272539E-4
4.7685394E-6
0.0021772082
7.3482573E-4
-4.2425102E-4
-2.4774135E-5
-0.0012097759
-0.0021908837
-0.0020165662
-0.0018934072
-0.0026855443
-0.002333331
-0.0010989523
-0.0024948246
-0.0026581602
-0.0014243207
-0.0031079347
-0.0029333117
-6.713272E-4
-5.7475027E-5
-5.7346857E-4
-0.002160975
-0.0015228883
-3.8092153E-4
-0.0015258531
-8.883998E-4
6.9334616E-5
0.0013521286
0.0028517195
0.0019600438
0.0019610622
-5.70309E-4
-0.0032721227
0.0011655405
0.0036263743
0.001956446
6.204293E-4
-9.6469675E-4
5.593534E-4
0.0012990717
-4.8448204E-4
1.533941E-4
3.6755507E-4
-4.887444E-4
5.168415E-5
0.001322914
0.0017251244
0.001730752
0.0029235962
0.001231308
-0.0010370904
3.4847294E-4
-5.015204E-4
-4.0779772E-4
0.00202909
3.803405E-4
9.3815856E-5
0.0010163441
-0.0018210419
-0.0028485637
-0.00121167
-3.290915E-4
-4.5888938E-4
-8.9137023E-4
-4.6697145E-4
-2.0714263E-4
-9.947417E-4
-0.0016308159
-5.831613E-4
6.0928223E-4
-3.4038958E-4
-7.5364707E-4
6.299768E-5
-3.0772708E-4
-0.0012490157
-7.5585546E-4
9.702617E-4
0.0013416755
9.586852E-4
-4.076347E-5
-0.0012397574
3.2629695E-4
-4.4564722E-4
-0.001872605
0.0016171114
7.397827E-4
-0.002006893
6.918576E-4
0.0019612943
0.0013523528
-7.316012E-4
-0.002920121
-7.556403E-4
8.1655115E-4
0.0010765714
9.765945E-4
8.521808E-6
0.0017083567
0.001392193
-8.817729E-4
3.1990398E-4
0.0012372009
0.0014540812
0.0015948372
1.7884558E-4
-5.3494726E-4
-2.564049E-4
-2.7267854E-5
-6.1620894E-4
-7.45509E-4
6.900526E-4
0.0015300319
0.0011703817
-7.7610044E-4
-0.0015742952
5.4719415E-4
5.8406184E-4
-0.0010058001
-0.0014648252
-8.5430266E-4
5.168881E-4
-6.043679E-5
8.227466E-6
0.0016185609
-3.2896947E-4
-0.0028131867
-0.0017953104
-6.532185E-5
-3.4185656E-4
-3.8993848E-4
2.9096796E-4
-0.0013356988
-0.0011645604
0.0010081612
1.0698807E-4
-3.3801582E-4
6.140821E-5
-5.3730235E-4
4.5896033E-4
0.0019383143
0.001671023
8.435575E-5
3.7935495E-4
0.002140413
3.7575123E-4
-0.0020887204
-9.605967E-5
0.0018010907
-3.486839E-4
-9.863094E-4
-5.4616235E-6
-0.0015019032
-0.0013436737
-4.1149676E-4
-6.051428E-4
-3.5269745E-4
-0.0015071473
2.6742287E-5
0.0023873493
0.0010783011
2.2811678E-4
-7.6400774E-4
5.9609814E-4
0.0035520236
0.0024340095
4.8996427E-4
-1.8720441E-4
0.0012520697
7.180096E-4
-8.3526544E-4
0.0021494122
9.3977E-4
-0.0014660563
-0.0013406957
-0.0013101201
0.0029236488
9.864559E-4
-0.0016432904
-5.2968453E-4
-0.0036281026
0.0029727472
-0.002448441
-0.020875728
-0.00926647
0.0047097527
0.0017344623
0.0038841816
0.002050492
3.0759632E-4
0.0024155618
1.4768777E-4
4.773134E-4
0.0014798762
0.0021624865
0.0033834486
0.0019131646
0.001084233
0.0013177447
0.0020135338
0.0014840972
-1.9877176E-4
-1.2637035E-4
1.2828573E-4
6.1447377E-4
6.513368E-4
2.4283682E-4
6.915688E-4
6.4504304E-4
3.3424277E-4
-0.0011339333
-0.0020784165
-0.0016673451
-0.0021414151
-9.955757E-4
3.5867334E-4
2.8856387E-4
0.0011845205
0.0017025684
7.9196924E-4
-6.230892E-4
-7.3313405E-4
6.467616E-4
0.0014315628
-3.4062157E-4
-0.0024695562
-0.0010914649
-0.0010550712
-0.0016386032
8.2904095E-4
0.001208609
8.4978656E-4
2.2055872E-4
0.0026377668
0.0038523853
-0.010300137
-0.014405472
9.984539E-4
0.0029403009
-0.0011498156
0.0024880024
0.003159825
0.0021552583
0.0015089691
0.0015775767
5.756121E-4
-3.568685E-4
0.0026398422
0.0023327756
4.3177654E-4
1.7028583E-4
-0.0017340549
-0.0012943262
-3.1990174E-4
6.5859687E-4
0.0029633534
0.0022307052
6.961583E-4
-1.3387509E-4
-3.5208566E-4
5.9703627E-4
0.0013560706
0.0020849004
3.487564E-4
-0.002011324
-0.002932327
-0.003505934
-0.001210729
-6.3051825E-4
-0.001632535
6.8867684E-4
7.665943E-4
6.307053E-5
0.001249373
0.0016079454
0.002235188
3.2907596E-4
-0.0016036705
-2.3670889E-4
-0.001095481
-0.0020562424
-7.5606396E-4
-7.9777394E-4
-0.0012435756
-3.0124516E-4
0.001180191
6.1067677E-4
-9.1693125E-4
-6.562714E-4
9.6527154E-5
0.0021801363
0.0026533343
-5.7583203E-4
-6.895206E-4
3.301645E-4
6.272922E-5
0.0010447486
-0.0012321648
-0.0021835153
7.8344275E-4
3.1341004E-4
9.5980766E-4
0.0020815001
-1.0696639E-4
0.0011082292
0.002202504
6.97728E-4
0.0012128302
4.8986706E-4
-7.837179E-4
-2.8071703E-5
-5.1765714E-4
-0.0019481336
-0.0017211934
-6.6374097E-4
-8.8326435E-4
-0.0016601076
-0.0017375118
-8.829027E-4
0.0013523506
0.0028289335
0.0021386712
2.461305E-4
-0.0015716804
-0.0010973632
7.561271E-4
0.0014819513
8.210686E-4
-1.4032552E-4
2.5578245E-4
0.0010154163
5.291679E-4
-4.7157475E-5
5.973169E-4
7.345817E-4
-0.0010009555
-0.0012481383
-4.528601E-4
-0.0012670344
-4.3580207E-4
0.0013553345
2.7648977E-5
-0.0023608261
-0.0017448834
-3.372794E-4
-0.0012619053
-3.268962E-5
0.0020893547
5.6604005E-4
3.2496213E-5
-1.103278E-4
-0.0016039917
-4.201571E-4
0.0012100422
7.995573E-4
-1.9021287E-4
-0.0010124518
-0.0012199696
-8.199564E-4
-3.0098617E-4
-2.3530809E-4
2.6303693E-4
6.393346E-4
6.859875E-4
0.0018721279
0.0016539985
7.882218E-4
0.0010430241
-1.3572449E-5
-9.7045275E-5
0.0015705556
0.0023505013
0.0022996676
0.0013295896
4.1769524E-4
0.0015257238
0.0024216566
-7.106645E-4
-0.0025423104
-9.1172446E-4
-0.00184283
-9.677897E-4
9.410573E-4
4.7458187E-4
4.9108645E-4
-0.0038565525
-0.0026406946
3.631754E-4
-0.013931556
-0.016306182