0.0012130396
-1.5541508E-4
1.2898826E-4
-0.0017723391
-0.0035839588
-0.002700409
-1.0546762E-4
0.0016934959
0.0011819643
3.1692733E-4
-8.1553886E-4
-4.3255943E-4
0.0016099808
3.3005903E-4
-0.0011912951
6.3945E-4
0.0015918703
0.0015082862
0.0010687135
-1.7493006E-4
-1.4882337E-4
-5.02509E-4
-7.8429264E-4
0.0010264367
0.0014012696
2.2747245E-4
-7.2085584E-4
-0.0012977289
-6.1896903E-4
-3.9356563E-4
-6.9577823E-4
-0.0013872687
-0.0019421756
-6.149728E-4
-0.0011497919
-0.0019169158
-3.9054482E-4
-0.0012415054
-0.0011046604
0.0011161051
0.001053326
8.410593E-4
4.812772E-4
4.365996E-4
0.0011267356
2.0635872E-4
1.4482239E-4
0.0010133728
0.0014368284
0.0026442304
0.002167882
8.9208515E-5
-3.1796005E-4
2.7970147E-5
-4.1039777E-4
-1.6608629E-4
8.9446886E-4
5.311113E-4
3.164293E-4
0.0012819261
6.260837E-4
1.9622863E-4
0.0010375768
-5.4715184E-4
-0.0033017602
-0.0035116256
-0.0016939854
-2.9994713E-4
5.402206E-5
4.122807E-4
6.204874E-4
-1.1239889E-4
-0.001256125
-8.567591E-4
2.5318062E-4
-6.5571436E-4
-5.761244E-4
7.840543E-4
5.9850745E-6
4.7229955E-4
0.0011170219
-5.095305E-4
-6.1811574E-5
-2.4083696E-5
-0.0013033589
-5.327595E-4
-7.2867644E-4
-7.4664195E-4
9.675616E-4
0.001864479
0.0019154544
4.74045E-4
-3.5823445E-4
6.355535E-4
6.1059237E-4
-3.0583546E-5
9.409288E-5
9.340906E-4
2.2145548E-4
-6.925337E-4
8.3482964E-4
-2.0000635E-4
-0.0012712997
0.0015427419
0.0020236897
0.0020148412
0.0033641756
8.037155E-4
-0.0034542005
-0.004280821
-0.0014563196
9.324586E-4
1.6275115E-4
-0.001075152
-2.9027558E-4
5.115393E-4
-0.0010791805
-0.0014844536
-2.7170317E-4
-0.0010414369
-2.942273E-4
8.182343E-4
-8.25988E-4
-7.731438E-4
-2.5166207E-4
-3.370912E-4
9.887764E-4
6.341591E-4
-1.00711506E-4
0.0014344354
0.002537878
0.0020212657
2.8921134E-4
-0.0010300087
-4.836323E-4
-6.1677216E-4
-9.1963186E-4
4.1751107E-4
-4.302401E-4
-0.0015901029
6.6662556E-4
0.0010794438
-3.441807E-4
3.9959422E-4
5.744481E-4
-5.8353244E-4
-8.992862E-4
-8.378669E-4
-0.0011030623
-8.754029E-4
3.380293E-4
0.0018756024
0.0014612576
-8.130954E-4
-5.429257E-4
-2.2368057E-4
-0.0015809393
1.9794006E-5
-4.501035E-4
-0.0013911999
0.0028794426
0.0033077076
9.0306095E-4
6.884997E-4
-1.7021633E-4
3.0296127E-5
-5.022192E-4
-0.0011166113
1.3689719E-4
0.0010911576
0.0025269117
0.0016295117
5.40803E-5
7.222198E-4
2.004421E-4
-9.109011E-4
-0.0022191114
-0.0019504752
-9.4268954E-4
-8.164766E-4
-2.9679943E-5
-0.0026708276
-0.0016985807
0.0021645725
-1.13398855E-4
0.0017160483
-0.0020677333
-0.011425604
-0.0035243004
0.0034515308
0.0010501322
0.0031002832
0.0012036327
-9.001423E-4
0.0019308039
0.0023956324
0.0019658417
0.0013129176
0.0014495511
0.0018134544
7.574146E-4
0.0015383341
0.0022921723
0.0014431841
6.6595944E-4
4.956893E-4
6.271656E-4
-5.056481E-4
-0.0013610275
-0.0018208447
-0.0022134804
-0.001012272
-0.0014729608
-0.0021380272
-3.3796078E-4
-7.0784846E-4
-0.0021537466
-0.0018970137
-0.00133547
-8.2573725E-4
-8.767216E-4
4.34913E-4
0.0016739016
6.4305536E-4
0.0015976086
0.0019969407
6.7155715E-4
0.0014991927
6.455718E-4
-3.5989395E-4
7.6309365E-4
7.667078E-4
0.0014200071
0.00228236
0.0014373579
-0.0014359801
-0.002325583
9.189025E-4
9.1315876E-4
0.0011561624
0.0016725329
-2.0944705E-4
0.0037885366
-0.0026785186
-0.015108881
-0.004875227
0.0044169347
5.5759173E-4
0.002136078
0.0019376086
6.385929E-4
0.0017227432
-9.2998863E-4
-0.0019411123
-6.467605E-4
-1.0510599E-4
-3.115379E-4
-7.0837745E-4
-9.300075E-4
-0.0012884687
0.0012484897
0.0021817458
1.2392017E-4
5.2272313E-4
-0.0013316306
-0.0018889077
0.0027109093
0.003546932
0.0023110134
0.0013892945
-0.0016330833
-0.0018290498
9.608461E-4
0.0019981966
0.0015316424
9.722941E-4
5.8757552E-5
-1.987599E-4
6.811307E-5
-0.0011480373
-0.0011383649
0.0012188895
0.001207708
-4.948055E-4
-5.571607E-4
-8.8006776E-4
-0.0017847852
-0.0011057643
-0.0011565757
-0.002153494
-8.7354553E-4
-3.700164E-4
-9.643994E-4
1.1972094E-4
1.8776778E-5
6.464713E-4
0.0010974567
-0.0025635732
-0.002343059
0.0012515136
7.934777E-4
3.6056977E-4
2.4059325E-5
-4.3436757E-4
0.0025866071
0.0037025437
0.0012562311
-1.07306376E-4
5.493247E-5
0.0011246679
4.7480853E-4
-0.0020116512
-0.001806998
4.8390104E-4
0.0012583392
9.3570905E-4
0.0015958528
0.0018096651
-2.1146805E-4
-0.002154824
-0.0019191601
3.938076E-4
0.0014295075
-0.0013457335
-0.0025769935
-4.3738732E-4
-1.090346E-4
-3.7400905E-4
7.0362835E-4
3.2090224E-4
-3.722691E-4
-5.6660705E-4
-0.0011400641
2.0737409E-4
0.0017791189
0.0013322126
2.4919675E-4
-0.0011270428
-4.8650824E-4
0.0013773498
0.0013378519
2.5947258E-4
-0.0017760026
-0.0019884496
1.21415076E-4
6.540403E-4
0.0011428634
0.0012845653
5.480802E-4
6.429313E-4
-3.6525758E-4
-0.0012056519
-7.2876853E-4
-5.770157E-5
6.761565E-4
1.643046E-4
-6.4247305E-4
-0.0017235895
-0.002554118
-8.226191E-4
1.9375965E-4
-0.0012977755
-0.0023817918
-0.0010922257
0.0012595382
0.0016159212
0.001148998
0.0013264879
0.0015382087
0.0018848038
0.0015686314
0.001031464
8.0001605E-4
7.435452E-4
9.006443E-4
1.7032804E-4
-5.174884E-4
-3.139776E-4
7.229015E-4
0.0022750401
4.8022842E-4
-0.0027185993
-3.421011E-4
0.002293209
-3.3012498E-4
-5.485218E-4
-5.559224E-4
-0.0039226837
-2.0171185E-4
0.0010921182
-0.009157406
-0.010363648
-0.0011523991
0.0027837823
0.0030237378
0.0028041005
0.0023833716
0.0020790854
0.0014690838
0.0010771591
2.0406715E-5
-1.8827914E-4
6.119871E-4
0.0021687525
0.0034868605
0.0011808084
5.460969E-4
0.0014725804
-7.980621E-4
5.4808083E-4
0.0022373507
-0.0011879166
-0.0020234168
-0.0014608348
-0.0019007563
-7.464544E-6
-2.1414817E-4
-0.0029048575
-0.0023972925
-7.234768E-4
-4.3613522E-4
5.051194E-4
0.001045505
1.1760956E-4
-4.3126204E-4
-8.181441E-4
-7.0689E-4
3.813122E-4
2.0913022E-4
3.6576003E-4
0.0024236229
0.0022364783
5.953163E-4
4.033651E-4
-0.0013201288
-0.0021296293
6.009153E-4
0.0010209035
-8.088137E-4
-0.0014884208
-3.2802654E-4
0.002636743
0.0015329133
-7.9103967E-4
0.001341816
-7.3376135E-4
-0.003755261
-0.0010090773
-4.3681846E-4
7.6411525E-4
0.0029920274
4.9693737E-4
6.20188E-4
0.0015582839
6.6440036E-5
0.0013931751
4.661438E-4
-0.0010030741
6.1719085E-4
-0.001122441
-0.0027522917
-0.0019923542
-0.0018625027
-0.0011209374
-0.0012262368
-4.472734E-4
0.0013449647
0.0012156198
0.0017171322
0.0014011922
-7.7328674E-5
3.7899106E-5
-2.335016E-4
-5.621931E-4
-5.6371005E-4
-4.916762E-4
4.907571E-4
7.7612314E-4
8.1563584E-4
6.458923E-4
1.2572638E-4
7.173554E-4
3.8384387E-4
-1.4817162E-4
0.001094988
8.9105405E-4
-8.5740414E-4
-6.843033E-4
1.8886052E-4
-0.0011842104
-0.0026272645
-0.0019383938
-5.784091E-4
6.710305E-4
0.0010986116
9.934946E-4
7.502622E-4
2.1952896E-4
0.0012727259
0.0016493537
-9.424363E-5
-4.518427E-4
-5.9115037E-4
-7.4171403E-4
8.8798384E-5
1.7891623E-5
2.881019E-4
3.7787852E-4
3.4274487E-4
0.0010810622
-8.3813234E-4
-0.0023265018
-3.849012E-4
5.603581E-4
7.597979E-5
-2.2257288E-4
-3.3443974E-4
-7.30684E-4
-7.1674195E-4
4.961835E-4
2.7319937E-4
3.6759757E-5
9.2630094E-4
-4.2442487E-5
-6.336123E-4
-8.060753E-5
4.3917986E-4
8.957522E-4
-1.2473673E-4
-2.8358935E-4
-3.7029258E-4
-0.0012114923
6.4638583E-4
0.0018394974
8.9964096E-4
-6.269543E-4
-0.0024774156
-9.895283E-4
0.0010460953
7.028604E-4
8.228445E-4
-1.0984097E-4
-0.0016410542
-0.0012332313
-6.524563E-4
2.8422186E-5
0.0018751337
0.0016987106
-0.0013109855
-0.0014207788
0.0011838297
0.0014451985
6.6122506E-4
8.5347897E-4
0.0012421984
0.0012526755
0.00159373
0.0010011697
-0.0020375652
-0.0021363026
-7.5688167E-4
-0.0026679689
-0.0011921248
0.0014262793
-1.656808E-4
-2.9728195E-4
1.5454396E-4
-5.850909E-4
4.5321308E-4
0.002633139
0.0037450788
0.0020797723
6.7032484E-4
5.725492E-4
-0.0010313902
-0.001843541
-0.0015960827
-8.6579955E-4
-2.287046E-4
-0.0023695196
-0.0022691507
-7.33855E-5
-8.2789967E-4
3.9886432E-5
6.641021E-4
-0.0019032606
-0.0028137704
-0.0024466508
-7.7942066E-4
9.494918E-4
0.0012622765
0.0011793674
-0.0030977307
-0.0024606346
0.005992318
0.0023856072
-0.0066496315
-0.0032056638
0.004004211
0.007145837
0.007158385
0.0068267724
0.0059707155
6.5025437E-4
-0.003545972
-0.0037527503
-0.0023152076
0.0011893654
0.0024854918
0.0015929781
-9.189199E-4
-0.0058177807
-0.0054827644
-0.0016802006
-9.403067E-4
-6.029911E-4
-0.0010367149
-0.002067058
-0.0021709667
-0.0031342215
-0.002287473
7.499248E-4
0.0016840593
0.0013985042
3.337027E-4
-0.0017016538
-1.4439172E-5
0.0037079374
0.0039812857
0.0020898734
-6.455853E-4
-0.0012420091
0.0023471795
0.0037642948
0.0014325485
2.4382706E-4
0.0011861534
0.0021184392
3.5050057E-4
-0.0016219425
1.5775401E-4
2.7038337E-4
-0.0036803759
-0.004261288
-0.0026481305
-0.0022829308
2.69831E-4
1.2134457E-5
-0.0024899854
-2.9281786E-4
-8.308188E-4
-0.0027973894
-3.741695E-5
9.1926893E-4
0.0012672464
0.0013166373
-9.001428E-4
2.0964867E-4
0.0016146696
5.7251484E-4
2.2550247E-4
3.9046668E-4
0.0012813748
0.0017609556
0.0022010468
0.004427668
0.0065334123
0.006639698
0.003479009
-0.0018555685
-0.0052084574
-0.0035181914
1.5636466E-5
-0.0011864974
-0.0049018455
-0.005953173
-0.005078403
-0.0035746985
-0.0020287791
-5.563925E-4
6.71895E-4
0.0017016557
0.0019005841
0.0014507031
0.0030747533
0.0035700025
0.00152698
3.0478137E-4
-0.0013234816
-2.7345467E-4
0.002092153
-2.2491923E-4
-0.0019746134
-0.0010446835
5.62771E-4
0.0010298238
-0.0016531838
-0.0017565255
-0.0012851321
-0.003503629
-0.001993223
8.0612913E-4
0.001799802
0.0012338175
-9.3277846E-4
8.98908E-4
0.0032815253
-1.1130049E-4
-0.0052238437
-0.006318837
-5.860719E-4
0.004886877
0.004755784
0.0038575816
0.0027035426
0.004599822
0.009916245
0.0067157983
-0.0023671908
-0.003948479
-0.0016927957
-0.0052321553
-0.00968082
-0.007803778
-0.0047217784
-0.002391902
5.968831E-4
2.823214E-4
0.0011616725
0.004072482
0.0021640814
1.4826839E-4
-5.9445552E-5
-5.0042063E-4
0.0018527383
0.0054718964
0.008678974
0.008653955
0.0059435237
0.005348026
0.0033369414
0.0025987239
0.0032296209
-0.0043715537
-0.012504384
-0.014183703
-0.012236767
-0.006031468
-0.0020314935
-7.074923E-4
0.0019639733
0.0010994413
-1.6442676E-4
9.946799E-4
7.1438105E-4
5.490165E-4
-6.029464E-4
-0.0028439967
-0.0030332524
-0.004109711
-0.00657152
-0.0072940122
-0.004217605
0.0024254294
0.0063651437
0.0070193717
0.010146045
0.013430408
0.011837083
0.0069767428
0.0038607956
0.0019527056
-0.0013190471
-0.0038494635
-0.0054444605
-0.0041286186
-7.874513E-4
-0.0013205411
-0.0019390042
-0.002772718
-0.0039656
0.0013779438
0.0056162025
0.005359507
0.0048463913
6.2363956E-4
-0.0043459726
-0.0075908727
-0.007970581
-0.005991346
-0.005978386
-0.004463022
-0.0038159722
-0.003665558
-2.852913E-4
0.0016681876
0.0071477247
0.008669943
0.0022802434
0.002984909
-0.001779241
-0.009089958
-7.2398116E-6
0.0066181393
0.0050831856
0.0035595133
-0.0023331952
-0.006806427
-0.00859775
-0.009082174
-0.0056815553
-0.0038016005
-0.00374144
-0.0010440593
0.0035699643
0.0078059756
0.010979401
0.0117301
0.009237375
0.0077400305
0.008772914
0.010062625
0.009419287
0.0047913217
1.2605892E-4
-0.0021843656
-0.0037593234
-0.003913171
-0.0055039343
-0.007644294
-0.00407646
1.9159567E-4
-0.001413675
-0.0012305724
0.0042676115
0.0057615493
8.935923E-4
-0.0071253306
-0.016153129
-0.018891636
-0.015235784
-0.01273304
-0.0108428495
-0.008287775
-0.006413258
-0.0017625829
0.0048207757
0.0085151205
0.009288913
0.0062115146
0.0040038363
0.0067634173
0.00395495
-0.0014288211
-3.3351552E-4
-0.0013551774
-9.091067E-4
0.0053521097
0.004235853
-0.002904389
-0.0042259074
0.0029400908
0.015483957
0.026230313
0.031097602
0.03302597
0.03088516
0.020110738
0.008892195
0.005723186
0.004782708
-9.956928E-5
-0.013938146
-0.03445828
-0.048965298
-0.05277751
-0.047841992
-0.037676748
-0.024102686
-0.009047672
-0.0034704597
-0.0060634315
-0.004910029
-0.0015726994
0.0022824663
0.0066214385
0.007827919
0.011170343
0.018906513
0.020332783
0.013517896
0.010354462
0.011027079
0.007940782
0.0046718614
0.0014678701
2.1583952E-4
0.011585657
0.026062349
0.029231431
0.029899318
0.03290022
0.027675455
0.008842733
-0.018684946
-0.043628015
-0.05137428
-0.03774876
-0.0145453
0.011074048
0.034719776
0.041196164
0.031442642
0.024007183
0.020815838
0.012463001
-0.0044597825
-0.029829673
-0.057419743
-0.07278255
-0.06877432
-0.05404523
-0.036373865
-0.019141294
-0.006643157
-0.001156039
-0.007802543
-0.022039272
-0.027072087
-0.018473117
-0.005451822
0.0058821803
0.021436226
0.043011915
0.06314022
0.078722104
0.08515641
0.08600226
0.07947661
0.05772778
0.051547576
0.07746162
0.1039895
0.10805493
0.07617978
0.012035336
-0.06011016
-0.12933868
-0.18647303
-0.21636035
-0.21574834
-0.18942742
-0.14181139
-0.08996258
-0.050832264
-0.017586563
0.014679872
0.041958306
0.053140886
0.055128742
0.08100447
0.09771014
0.08769572
0.11512355
0.14587545
0.11365726
0.046517767
-0.012274239
-0.023204526
-0.004005141
0.017807005
0.06751198
0.11510875
0.13517322
0.12810491
0.08118367
0.0153131215
-0.09548927
-0.22165036
-0.26109916
-0.25566736
-0.23271279
-0.16320002
-0.10314403
-0.053442396
0.0024634022
0.04220725
0.0795194
0.09464533
0.08546001
0.08560503
0.08813744
0.09592196
0.0800688
0.007524909
-0.045084722
-0.01867709
0.06198529
0.17062283
0.22263765
0.1415092
0.01242422
-0.08720335
-0.16645876
-0.18364066
-0.12634382
-0.028523786
0.065745145
0.08553428
0.06839667
0.05470571
0.017329201
0.0010375628
-0.0411286
-0.15460281
-0.219714
-0.22064956
-0.18466666
-0.09037895
-0.0024370826
0.060941543
0.12254735
0.1481104
0.113774
0.038880195
-0.0018033485
0.003849405
0.0076481774
0.034192443
0.066418484
0.07943142
0.12524275
0.16785656
0.14147389
0.06890912
-0.0130941905
-0.05917981
-0.0523055
-0.055668943
-0.09179262
-0.092782006
-0.05009885
-0.02850454
-0.03179544
-0.02920219
-0.026546737
-0.043322824
-0.06114747
-0.030733021
0.013794301
0.010869505
-0.018367883
-0.070227236
-0.12258973
-0.10324394
-0.027522173
0.044976
0.08095495
0.08594008
0.105972186
0.12360795
0.09462305
0.047420308
0.025243089
0.028277185
0.020194102
-0.012583792
-0.04400667
-0.055957746
-0.04941456
-0.040612217
-0.03343635
-0.02270226
-0.012957583
0.0019930385
0.014959008
0.019606128
0.025407968
0.023218874
0.0175357
0.017258972
0.013067718
0.0063752313
-0.0013184694
-0.0074196053
-0.011359971
-0.017282898
-0.018770687
-0.017403103
-0.013976319
-0.006230297
-7.8097044E-4
0.005307421
0.010797479
0.010500211
0.007815716
0.001720554
-0.0042206203
-0.005769743
-0.0060154567
-0.006463468
-0.0074261636
-0.005800495
-0.0025938202
-0.0031799348
-0.0042741783
-0.0028706458
-0.0019474494
-0.0019068497
-7.9688453E-4
6.8414805E-4
7.5777696E-4
4.4245092E-4
0.0011570427
0.0024556916
0.0035450344
0.0036371448
0.0014778759
-5.565002E-5
0.0035279535
0.008091711
0.008364534
0.0056246854
0.003694693
0.0043019853
0.0038348513
0.0025888083
0.003148044
0.0026540835
0.0018706135
0.0021660062
0.0015935978
2.9893825E-4
-4.2689647E-4
4.0820643E-4
2.51339E-4
-9.7526715E-4
-4.4589533E-4
-0.0011440654
-0.0033914393
-0.004740278
-0.0037946426
-3.9993676E-5
8.871884E-4
1.11898815E-4
0.0024247847
0.0028985008
0.0015087408
7.330956E-4
-0.0015139492
-0.0040044948
-0.005997967
-0.0061425776
-0.0037971504
-0.0033304868
-0.004908106
-0.005129333
-0.004623242
-0.0046934774
-0.0038530463
-0.0023216265
-0.002816313
-0.0031461073
-0.0012295565
-6.905955E-5
0.0018983588
0.004019346
0.0024454554
0.0020714186
0.0026641015
0.0017973427
0.004432871
0.006393042
0.006744817
0.010453092
0.011885756
0.010365519
0.0080517065
0.0036509694
9.2336086E-5
-0.0019771946
-0.0023150153
-0.0027089312
-0.004500597
-0.004606924
-0.004970175
-0.0044223885
-0.0019378391
-0.0014056676
-0.0014332654
-0.0026261865
-0.0047414065
-0.0054192217
-0.0057326774
-0.004772746
-0.002977127
-0.0016333266
-0.0019170408
-0.0023310245
-4.1726994E-4
9.7352796E-4
0.0015484856
-7.414505E-4
-0.0026193243
4.9334285E-5
-7.9857686E-4
2.7054327E-4
5.452733E-4
-0.0044970764
0.0011650777
-4.0710653E-4
-0.010051845
0.0016583684
0.010447348
0.0052813217
0.0047050333
0.0016218964
-2.0478138E-4
0.0023988523
0.0022843569
0.0024113138
0.0019262839
0.0016270784
0.0025323783
0.003358546
0.0038636734
0.0016637909
2.916056E-4
-5.187375E-4
-0.002733671
-0.0017507968
-4.917752E-4
-0.0018136794
-0.0017560457
-1.1303373E-4
-7.428486E-4
-0.0031391846
-0.0029921907
-0.0027338783
-0.0038700409
-0.0032637427
-0.0020399045
-9.836994E-5
0.0015650496
2.3249554E-4
-1.828794E-4
0.0018144508
0.0014095848
-4.689958E-4
2.7196144E-4
8.913557E-4
7.04085E-4
0.002030169
0.0018559131
0.0011802681
0.0018366684
0.0015301429
0.0019035499
0.001471752
-0.0013969392
-0.0017575265
2.5259823E-4
0.0012451125
0.0015175912
0.0011035126
-7.71407E-5
-0.0016118553
-0.00445212
-0.006017784
-0.0022961935
0.0014493876
8.078014E-4
-9.148099E-4
-0.0032227705
-0.004211131
-0.0029830353
-0.0029525608
-0.0028322882
-0.0016694382
-1.11138E-5
0.0010843052
4.0420383E-4
0.0014314802
0.0025252032
0.0028435066
0.00575135
0.0048954957
0.0013116115
0.0020671703
0.0023988714
0.0016918682
0.0023541017
0.00243742
0.0023078823
0.001072838
3.413621E-4
0.0015556583
0.0011508114
2.5401165E-4
5.1229855E-4
-4.708671E-4
-0.001367022
2.1880465E-4
9.4739784E-4
-8.6780963E-4
-0.0016300674
-0.002361557
-0.003935286
-0.003823279
-0.003728851
-0.0032092112
-0.0017392896
-0.0020577922
-0.0020555225
-2.5744777E-4
2.4690217E-4
-0.0015713478
-0.0019685347
-1.6211366E-4
1.9729268E-4
0.0011376253
0.0016174733
-3.461039E-4
0.0013613091
0.0030604708
0.0014195723
0.0022101514
0.002456511
0.0016418097
0.0019383386
4.106016E-4
-6.955278E-4
-3.478806E-4
7.4229506E-4
0.0020877225
0.001552042
0.001553494
0.0015183918
-3.27459E-7
-9.501621E-4
-0.0027198372
-0.0035848063
-0.0021350605
-0.0010860646
-0.0010798405
-0.0025136655
-0.0028383208
-9.0853136E-4
3.5790884E-4
9.412308E-4
0.0014239075
0.0025009145
0.0023327137
2.6002296E-4
6.413745E-4
0.0016003825
0.001436091
0.0013311477
-3.9614105E-4
-0.0013443563
-0.0012652683
-5.01569E-4
0.0014291948
1.6862193E-4
-9.7333395E-4
-2.7440596E-4
-0.002084399
-0.0028694537
-0.0016492271
-0.0012506314
-0.0015073614
-4.3241103E-4
0.0012746389
-9.388681E-4
-0.0029117274
-0.0020103822
-0.0018852967
-7.288084E-4
-4.9996434E-4
-0.0013537743
-6.399903E-4
2.5178786E-4
0.0012720426
-2.8530761E-4
-4.4729718E-4
0.0032430894
0.0023102416
-4.4731828E-4
5.7986047E-4
0.0030706464
0.0029821864
7.7340886E-4
0.0019191419
0.002217645
0.002181069
0.003845491
5.80844E-4
-2.942937E-4
0.001926351
0.0013392906
0.0015501536
-6.541029E-4
-0.0020268282
-8.1142853E-4
-0.0011978542
-4.214485E-4
-0.0012744666
-0.0016891175
-7.458957E-4
-7.836175E-4
6.7939115E-4
-0.0012802713
-0.0023619365
-0.0027397817
-0.004802493
-2.0409843E-5
-0.0037255636
-0.010703842
-0.0010966006
0.0038260957
0.0014179237
0.0034546547
0.0033323353
0.003838619
0.0032928586
6.3226174E-4
8.030169E-4
5.3195073E-4
-2.1251454E-4
5.123182E-5
0.0020716127
0.0033751375
0.0011276155
2.812885E-4
0.001458405
0.002310042
0.002369966
0.0014926009
3.6414136E-4
-0.0020928106
-0.0031145639
-0.0016638064
-8.89248E-4
-7.2439824E-4
-4.6749713E-4
6.420796E-4
7.903494E-6
-0.0022624808
-0.0017141945
-3.4743288E-4
7.231654E-4
0.0011355032
-4.8339457E-4
-0.0013279114
-6.28673E-4
5.834117E-4
0.001149211
0.0014234448
0.0018533607
6.098083E-4
-2.5940023E-4
-1.0856479E-4
1.0665382E-4
6.709671E-4
6.207624E-5
-4.918122E-4
-6.03572E-4
-4.437489E-4
-2.814615E-4
-1.8907673E-4
0.0019178039
-9.373524E-5
-0.004314744
-0.0019066213
-5.393073E-4
-0.0012890294
0.0010752418
0.0021415944
6.498702E-4
-0.0015892704
-8.472024E-4
8.523486E-4
-4.9401255E-4
1.0427752E-5
6.857996E-4
-6.4462255E-4
-6.5614586E-4
-9.115023E-5
6.401604E-4
1.7699695E-4
2.0631489E-4
0.002198403
0.0021086722
0.0013229096
5.3761544E-4
-6.8603037E-4
4.5115335E-4
0.0015032018
2.620579E-5
-0.0021607298
-0.002152056
-8.071068E-6
7.949884E-4
2.0144403E-4
-2.8516853E-4
-1.0191581E-5
2.1476684E-4
-4.786957E-5
8.215158E-4
-6.6257676E-4
-0.0037757538
-0.002218902
2.2670253E-4
6.3663896E-4
0.0016212135
0.0015480303
8.99255E-4
0.0012121302
0.0016127713
0.0025036728
0.0019775676
-5.4100226E-4
-0.0010010002
6.79876E-6
-6.338813E-4
-0.0015613576
-8.749478E-4
2.443138E-4
-4.349085E-4
-9.766496E-4
-1.2967139E-4
-6.118167E-4
-5.892338E-4
-2.0009824E-5
-0.00113519
-7.4360386E-4
-4.1294275E-5
-8.3980215E-4
-8.3720044E-4
-3.446496E-5
0.0011709754
9.948717E-5
-0.0018811718
-4.3538038E-4
8.513123E-4
0.0012294007
0.0021331187
0.0016346883
0.0011884937
0.0011706541
6.258554E-4
-6.929254E-5
1.0094137E-4
0.0012472204
0.0011259678
8.057123E-4
6.54418E-4
1.8303526E-4
7.639099E-4
-5.863641E-4
-0.002273327
-7.4148946E-4
0.0011474442
0.0024183935
0.0020965044
7.638633E-4
-1.1531737E-4
-0.0015165551
-0.0014501926
-0.0014242096
-0.0020039282
-7.574475E-4
-0.0016645589
-0.0028455057
-0.0018204914
-0.002853283
-0.0023393987
-4.023877E-4
-0.00169418
-0.0013940707
0.0010466566
0.0020558604
0.0021886644
0.0014277649
0.0011133949
7.9471775E-4
-2.3491305E-4
5.621099E-4
0.001997636
0.0028936116
0.002792146
0.001349178
0.0017385011
0.0029150874
0.0039603054
0.004698322
0.0011886968
-0.0020192799
-0.0017041289
-0.002396492
-0.00183876
3.7942998E-4
-1.586849E-5
-8.385883E-4
1.0929245E-4
-5.2806485E-4
-0.0022681993
-0.0016654974
-0.0017400814
-0.0025431237
-0.0018575419
-0.0018984405
-0.001516669
-0.0016882054
-7.9466816E-4
0.0023053458
0.0010304204
6.693103E-4
6.024451E-4
-0.002199789
0.0025990875
2.9275683E-4
-0.011355858
-0.0064353333
0.002754654
0.0023202049
0.0027661596
0.002517287
0.0020874955
0.0033557308
0.0031275232
0.0020133937
2.2820021E-4
7.5101154E-5
0.001018487
0.0016832914
0.0019670427
3.9438807E-4
0.0012785468
0.0025369017
8.3358545E-4
0.0015672675
0.0016500956
-5.2296225E-4
-8.178963E-4
-8.645028E-4
-7.3865504E-4
-0.001041073
-0.0022341688
-0.0022035113
-0.002221041
-0.0024703306
-0.0019662997
-0.0013087413
-6.198719E-4
2.6974809E-5
2.1911412E-4
5.0991494E-4
0.0012438983
3.272277E-4
-2.8995515E-4
0.0012053655
3.2996916E-4
-0.0011217556
9.376852E-5
9.637516E-4
9.49744E-5
-0.0011800656
-4.7569655E-4
2.9726585E-4
4.037066E-4
0.0013769442
4.768416E-4
9.230945E-5
-0.0010695714
-0.0016361375
0.0024027396
-0.0045847683
-0.012104311
-3.6082382E-4
0.005307783
0.0010158656
0.0029970193
0.00275599
0.0014251255
4.5506592E-4
-0.0012163788
0.0017509344
0.0023004308
0.0014869586
0.002902342
0.0011446999
2.7553737E-4
6.802857E-4
-2.266624E-4
6.028143E-4
9.327702E-4
-4.6037327E-4
-5.1080284E-4
4.0466723E-4
2.6983526E-4
-6.191982E-6
-4.870664E-4
-0.0019725177
-0.0026225648
-0.002427919
-0.0013166126
-2.5993944E-4
-5.944663E-4
4.5076458E-4
5.3077063E-4
-0.0010836069
-8.4984145E-5
5.4429896E-4
-9.0886443E-4
-0.0015269306
2.5336887E-4
0.0019636743
4.020058E-5
-7.376655E-4
6.10638E-4
6.110655E-4
0.0020022173
0.0023812149
6.699891E-4
4.6715516E-4
-5.214273E-4
-0.0014281755
-2.543992E-4
-7.0619053E-4
-0.003130736
-0.0024978055
0.001246915
0.0014757774
-2.750821E-4
0.0014838526
0.0021131518
-1.4748507E-4
-4.3361542E-5
0.0017407935
0.0013170489
-9.6229493E-4
-0.0016491817
4.1879903E-4
0.0012858893
-5.776329E-4
-0.001563044
-5.5496977E-4
6.6890864E-4
8.654256E-4
1.4880035E-4
7.909646E-4
0.0021318472
9.3974965E-4
-0.0010810308
-0.0017984814
-0.001998719
-0.0010748266
4.0682554E-4
4.1088145E-4
-0.0011444633
-0.0026232426
-0.0022865722
-4.524385E-4
0.0016086233
0.0023924368
8.956987E-4
-1.06944564E-4
5.123911E-4
5.82073E-4
0.0010239829
9.66771E-4
-5.262737E-4
4.1007937E-4
0.0015370751
-4.0388902E-4
-6.735608E-5
0.0017135595
-3.0876856E-4
-0.0017248628
-7.796086E-4
-0.0014578702
-0.0014879447
7.5352827E-6
0.0010151842
0.0024838021
0.0018756395
-6.001514E-4
2.166063E-4
0.001867408
0.0010293276
-6.7061605E-4
-0.002761601
-0.003419385
-0.0024452803
-0.0015141121
6.9108047E-4
0.0019237899
0.0014623317
0.0032973003
0.0036712843
2.797003E-4
-0.0015937984
-0.0014441375
-4.0813818E-4
3.2360147E-4
-9.395773E-4
-0.0020850857
-0.0021609173
-2.938593E-4
0.002037291
8.4025465E-4
-2.6732945E-4
6.8839896E-4
9.967536E-4
0.0012583092
0.0015608819
0.0012412589
-4.113699E-4
-7.589113E-4
5.300046E-4
2.7699678E-4
0.002127175
2.4761277E-4
-0.0044176816
0.0019114414
0.0012977709
-0.010473317
-0.006277075
0.0031977883
0.0019345531
4.8011956E-5
5.1724022E-5
8.70079E-4
0.0010881478
-5.9848826E-6
3.11978E-4
0.0012254405
0.002031019
0.0010818765
5.3004514E-5
0.0010263813
9.2880236E-4
7.443865E-4
2.2805875E-4
1.254418E-4
0.0025760285
0.002276553
5.6245073E-4
0.0011093
3.917154E-4
-5.514797E-4
-1.9670917E-4
3.5900038E-4
0.001443551
8.8467635E-4
-0.003387236
-0.007516605
-0.0056027565
-0.0012075687
-3.325104E-4
1.7394861E-5
-7.5441605E-4
-0.0028036954
-3.2399307E-4
0.0023515872
0.0020475958
0.0023535069
7.3889643E-4
-5.907829E-4
8.265574E-4
0.0011211175
0.0015603402
0.0010359134
-0.0010211163
-1.9902561E-4
0.0012855841
0.0011030679
-4.1786432E-5
-0.0014248483
-9.4418053E-4
3.0962733E-4
-1.1263498E-4
-0.0019899951
-0.0019768842
-3.4470987E-4
-3.0400197E-5
0.0022982934
0.0038276403
0.0010429074
1.1993457E-5
-7.086241E-4
-0.0011170292
0.0018772414
0.0012714209
-0.0015357264
3.734838E-4
0.002499388
0.001959525
0.0011968917
2.1260894E-4
0.0011688564
0.0024187823
7.786125E-5
4.0385342E-4
8.47744E-4
-0.0016825065
5.167543E-5
-0.0061882483
-0.015612782
-0.0062083304
0.0025507696
-3.779562E-4
-4.1946146E-4
2.2034824E-4
0.0010471568
0.0011047734
-0.0011332877
-3.9109017E-4
4.5432936E-4
0.0016602
0.0026141454
0.0012614982
0.0018115768
0.0012034797
7.645973E-4
0.0035576266
0.0036210674
0.00230635
0.0029573594
0.0028358055
0.0010415919
6.377189E-4
8.6809363E-4
-0.0013963424
-0.0023409477
-0.0014290093
-0.001018332
2.937612E-4
7.092328E-5
-0.0018178486
-0.0028337874
-0.0029135307
-0.0027057528
-0.0027579833
-9.158516E-4
3.3374262E-4
-5.0637237E-4
7.839483E-4
0.001386192
0.0014624612
0.0030141098
0.0010269792
-0.0018121097
-0.0019311961
-0.0021458955
-0.0015006006
1.9855742E-4
0.0011270461
0.0014327357
2.836543E-4
-6.372135E-4
0.001027166
0.001124919
-9.87062E-4
-6.263054E-4
0.0015685521
0.0028073555
9.396171E-4
-0.0014385632
5.8577844E-4
0.0033376762
0.0030996234
4.6682885E-4
-0.0021642474
-0.002259932
-0.0011554125
3.611952E-4
-4.2370975E-4
-0.0019188416
1.6026307E-4
0.0015880167
0.0036006037
0.0030716665
-9.669137E-4
8.2639855E-4
-0.005247484
-0.014270718
-0.003931833
0.004231162
0.001133765
7.374097E-4
-1.1894845E-4
0.0014401589
0.002169582
-5.403048E-4
0.001572505
0.0017933947
1.288163E-4
0.001992304