8.6581754E-4
3.7568182E-4
9.666408E-5
-8.9721597E-4
1.4765518E-4
0.0011362276
-0.0023342627
-0.0021228173
-5.454629E-4
-8.7518437E-4
0.0017186034
-0.00246672
-0.008780541
-0.00478293
-1.3269286E-4
4.900346E-4
1.5089173E-4
3.8018133E-4
0.0026095144
0.0030065933
0.0013033152
8.753908E-4
0.0015946241
5.8846915E-4
-0.0010835622
-0.0011400665
-0.002818031
-0.0019201527
0.0021339871
9.061463E-4
-2.2209394E-4
0.0021116782
0.0034474574
0.003265328
-5.3158833E-4
-0.0035224343
-0.0023243632
-0.0010657422
-1.3236426E-4
0.0011861983
0.0030411042
0.0028380065
0.0010948492
9.364207E-4
-5.55167E-4
3.6957106E-4
0.003102372
-2.484781E-4
-0.0022781966
3.5459746E-4
8.990629E-4
5.096164E-4
5.120101E-4
2.152173E-4
-5.458643E-4
-0.0015074607
-3.6984507E-4
5.37283E-4
-0.0021445693
-0.0025596025
3.7594646E-4
-0.0031426148
-0.007062627
-0.0029602472
-0.0021716803
-0.0030718793
8.116083E-4
0.001860116
0.0026888133
0.0038555951
0.0012412698
9.0260117E-4
0.0022151342
0.0013979998
-6.2082015E-4
-0.0017051881
9.6886055E-5
9.176488E-4
0.0010168569
0.0022808798
9.321199E-4
-3.2522582E-4
6.1481E-4
3.5673706E-4
-4.032823E-4
6.796692E-4
0.002783297
0.0023750141
4.929138E-4
-1.7664029E-4
-0.0015494569
-0.0025110247
-0.0024838527
-0.0031662455
-0.0024814808
-8.787847E-4
2.4289362E-5
0.0013191563
0.0021912006
0.0019359724
0.001980472
0.0017125848
5.2481606E-5
-6.387477E-5
0.0013115751
9.107161E-4
9.3396363E-4
2.6263762E-4
-0.003107812
-0.00214322
0.0015543724
5.643862E-4
-7.4623845E-4
-3.162751E-4
-7.9754036E-4
-4.4516815E-4
-6.35032E-4
-0.0021518543
-0.0023973861
-0.0020255852
-0.0016928463
-0.0013740291
-9.495015E-4
-1.8899495E-4
-2.0161596E-4
-7.823226E-5
6.7863625E-4
0.001332192
0.0012037473
-1.6518103E-5
0.0014508639
0.0037279436
0.0014759684
5.438279E-4
0.0035295999
0.0042304746
0.0027224736
0.0027327861
0.0033341383
4.5026524E-4
-0.0037145624
-0.0037628768
-0.0028638428
-0.0040029343
-0.004451112
-0.002091998
0.0012807685
8.7236735E-4
-8.277456E-4
-7.3807355E-4
-0.002414634
-0.0023594084
6.8304647E-4
0.0014229075
0.0016922686
5.768789E-4
-0.002076292
4.737287E-5
0.002399117
0.001299243
0.002038997
0.0021174974
0.0011958951
0.003199524
0.0032425818
6.007222E-4
-4.968833E-4
-0.0016839756
-0.0024987264
-0.0014714854
-0.0010004449
-0.0012779635
-7.893789E-4
-2.7726355E-4
-0.0012298708
-0.0025519587
-0.0020687124
-7.848701E-4
-6.1103737E-4
-9.99573E-6
0.002019122
0.0024535293
7.204743E-4
-7.525734E-4
-5.003964E-4
0.0022146786
0.003267845
-2.642353E-4
-0.00319218
-0.0015155087
0.0020327761
9.667957E-4
-0.002736164
-9.785364E-4
0.0014138343
-6.265086E-5
-3.297414E-4
6.0242164E-4
0.0016237107
0.0015397012
-6.450183E-4
-0.0010188142
-4.9288996E-4
-7.58665E-4
5.8601395E-4
8.562769E-4
-9.663065E-4
-2.648505E-4
0.0021974298
0.0035346302
0.004571069
0.0017706885
-0.0034603076
-5.998197E-4
0.0032528196
-0.0027943898
-0.006508543
-0.0023459995
1.8898629E-4
1.7844797E-4
1.554965E-5
-2.5558734E-4
-2.929829E-4
-4.2426962E-4
-8.686066E-4
-0.0018214626
-7.316799E-4
0.0014671483
2.8332171E-4
-0.0012157658
-0.0010049869
-3.5757002E-5
0.0019682443
6.2635314E-4
-0.0017134438
-2.8646533E-5
0.0010706016
9.048942E-4
5.406539E-4
-3.4073417E-4
9.6559507E-4
0.0016884546
8.042579E-4
5.7962876E-5
-0.0012842126
7.5460935E-5
0.0018736107
2.9536473E-4
-2.4137141E-4
4.300527E-4
-2.7034708E-4
-0.0022735212
-0.0025244232
0.0012042178
0.0017970481
-6.826343E-4
0.0013446953
0.0026693442
-1.9953534E-4
-0.001796794
-5.7356263E-4
0.0011356404
-3.831907E-5
-0.0021979546
-0.0019537471
-0.0016011111
-8.500602E-4
2.9843082E-4
-2.3253458E-6
3.5856717E-4
1.0155053E-4
-0.0018715386
-0.0019396573
-3.794199E-4
7.08519E-4
2.5100756E-4
-0.0014967475
-0.0017616991
-0.0012730536
-7.8542903E-4
0.0021409395
0.0034394586
1.0111677E-4
-5.4178847E-4
0.0017075421
8.2988833E-4
1.5590998E-4
-3.4766764E-4
-0.0023606238
-1.757709E-4
0.0034073477
0.0045726495
0.0051675807
0.002940769
6.25096E-4
-3.0779422E-4
-0.0020432873
-0.0017681991
-0.0019761648
-0.0022079244
2.2274455E-4
8.9091755E-4
0.0010444936
-1.2399648E-4
-0.003362712
-0.0031293533
-0.002184135
-0.001788995
-0.0013771476
-0.0026735442
-0.0017903768
-8.1540947E-4
-0.0013082359
-5.3898664E-4
-4.446222E-4
0.0011447236
0.0022609078
7.2721165E-4
0.0020976376
0.0028174948
0.0014411166
8.3537237E-4
-6.949187E-4
0.0014594179
0.004769917
0.002460772
-5.423069E-4
-0.0014642368
-7.900975E-4
-2.8166044E-4
-9.7621564E-4
3.4470577E-4
3.7826947E-4
-6.0773944E-4
0.0011801068
0.001279921
3.788126E-4
1.571399E-5
-8.5361785E-4
1.4413091E-4
6.17391E-4
1.1210444E-5
-0.0014457676
-0.004044125
-0.0026372676
-8.887729E-4
-0.0016023949
-4.8185163E-4
-3.9381257E-4
-3.036479E-5
0.0014345685
-1.6291162E-4
-0.0013584512
-0.0010361027
3.997395E-4
0.0029039464
0.0029590328
0.0025305555
0.0016762757
-3.8546827E-5
1.8306763E-4
-0.0016970735
-0.0041527175
-0.00205758
4.572586E-4
9.1451436E-4
8.339196E-5
9.016274E-7
0.0019710166
0.0025157959
0.0018669324
0.001789304
0.0032963122
0.00649873
0.0034960092
-0.0045706187
-0.0081398785
-0.010052137
-0.009464221
-0.0024909624
0.0029130394
0.004713913
0.0060421624
0.004762015
0.0015822108
2.0526725E-4
0.002072278
0.0026735978
-3.9791924E-4
-0.0018417708
-0.0020315063
-0.00318314
-0.0027252925
-0.002439331
-0.0021231894
6.5767346E-4
0.0010634507
-0.0015491787
-0.0012930458
6.174974E-4
0.0011134802
0.0011845932
9.789352E-4
0.0014886856
0.002564871
0.0036360652
0.004354966
0.0010443614
-0.002436378
-0.0021806764
-0.0023333232
-0.0013232228
1.2319633E-4
0.001351976
0.003919145
0.002135903
4.280912E-4
6.372652E-4
-0.0020717545
-0.0016191115
-0.003963431
-0.009567528
-0.0060351286
-0.0015992102
-5.9981394E-4
2.591303E-4
-0.0013460122
-4.3081463E-4
0.0015685401
0.0020488037
0.0037002438
0.003709079
0.003018722
0.002176254
9.903265E-4
0.0024160948
0.0032651504
0.0017936663
0.0010988665
0.0010432801
-4.773844E-4
-0.0016533993
-7.3253614E-4
-0.001183887
-0.0014544287
4.005333E-4
-6.880176E-5
-0.0018180488
-0.0018110428
-5.4748484E-4
-4.1164737E-4
-0.0022794174
-0.0032242292
-0.003675855
-0.0032835295
-0.0020670132
-0.0022953595
-2.202811E-4
0.002956981
0.0042668255
0.0057039964
0.0051546725
0.0037538633
0.002407438
1.00534744E-4
-0.0012105978
-0.004639238
-0.0077110375
-0.004025756
0.0020145443
0.003782985
8.31947E-4
-9.170097E-4
3.9873467E-4
0.0019548617
0.002944316
-0.0012117786
-0.0058754547
-0.0028465544
3.743072E-4
0.0010844909
0.0018490372
0.0012409175
0.0032041324
0.005153397
0.0027450505
6.9130317E-4
-7.140571E-4
-0.0010954633
3.928732E-4
-0.001177029
-0.0029687532
-0.0011237705
-2.46977E-4
3.599179E-4
0.0024165087
0.002417728
0.0014585592
8.31606E-4
-0.0014900003
-0.003717546
-0.0033016396
-0.0022587697
-0.0028165856
-0.002232111
0.0011016497
0.0030759806
0.0021424391
0.0010895989
0.0013448546
0.0011594718
-0.0015738684
-0.0042128786
-0.003431271
-0.0013943536
-8.1646483E-4
-8.276616E-6
0.0022207964
0.0027784572
4.0204806E-4
-0.0018682729
-0.0019711507
-0.0020696025
-0.0035339228
-0.0027845565
-2.0597363E-5
0.0019959377
0.0034814705
0.0028732233
0.0028936595
0.0047955615
0.0040322514
0.0042685075
0.005764163
0.0045472984
0.0031620632
7.189766E-4
-8.483474E-4
-5.479617E-4
-0.0018484963
-0.0013575798
-0.0022027295
-0.0054645687
-0.003992095
-0.0015983781
5.061324E-4
0.002139057
-0.0026327835
-0.007435947
-0.006816504
-0.0038751836
-2.0923335E-4
9.1569574E-4
-1.6585871E-4
-0.0013496111
-0.003023072
-0.0023410423
4.9504003E-4
0.0020825192
0.002844837
0.0029542684
0.0028596949
0.0042826193
0.0043885773
0.0016454129
8.857355E-4
0.0027533812
0.001954426
-0.0026748164
-0.0055517894
-0.002679329
0.0011284472
0.0021995583
0.0035726896
0.0033987055
-1.7513879E-4
-0.0014054629
2.4906464E-4
3.4503388E-4
8.353722E-4
0.0031560236
0.0037131298
0.0037000692
0.005040058
0.004775224
0.0035109967
-4.3619034E-4
-0.009267441
-0.012807382
-0.009197778
-0.0083062565
-0.00764104
-0.0041622696
-0.002009962
-1.3373388E-4
0.0034158493
0.0065954668
0.0058997925
0.0041678776
0.0058364132
0.0065785944
0.0058276136
0.0041097505
-0.0014106778
-0.0040914705
-0.0014385892
0.0010794094
0.002200249
0.0021878998
0.0043378635
0.006425893
0.003882665
5.1397E-4
-0.007432198
-0.019097429
-0.020624332
-0.01455482
-0.012406811
-0.012932776
-0.010287699
-0.003535462
0.001306192
-2.038902E-4
0.0016027344
0.0121404445
0.016994808
0.0151574295
0.018226957
0.020058898
0.01992025
0.02217251
0.018722272
0.009114936
-0.0031200286
-0.01216884
-0.010053615
-0.003351194
0.0012985163
0.003128443
0.0014294588
-0.0020836575
-0.008017044
-0.015519439
-0.024200445
-0.028146207
-0.020827627
-0.015460045
-0.01669419
-0.015615451
-0.012683431
-0.006771524
-1.9331028E-4
0.0059982967
0.014023365
0.016895005
0.019302607
0.025817674
0.026689446
0.0193404
0.00847676
0.0029394466
2.471731E-4
-0.0067920587
-0.005720386
0.0030536535
0.006209224
0.0053537986
0.0022836823
-0.0019450291
-0.0066906684
-0.011806052
-0.012081399
-0.007845223
-0.0035024544
-0.0056354753
-0.011876208
-0.009467016
-0.0027771494
9.2286686E-4
0.0031889991
0.0013215435
-3.002699E-4
0.0021380153
0.0046179295
0.0052354382
0.0045398176
0.005852809
0.0071608135
0.009252362
0.014348139
0.013098073
0.009876124
0.009941559
0.0055542644
0.0034298215
8.1855344E-4
-0.011458198
-0.020486161
-0.020273678
-0.014774149
-0.0076092626
-0.004187736
-0.0015528651
-4.47954E-4
-0.0044180294
-0.007848905
-0.008936305
-0.010006683
-0.01131374
-0.013798965
-0.014306217
-0.0075565763
0.0011566405
0.006168802
0.014190374
0.024061773
0.026162822
0.021774422
0.019280294
0.021641642
0.017406426
0.005680346
0.005057626
0.010237206
0.007683147
0.0062554074
0.0064749573
-0.0015181482
-0.01349249
-0.01695722
-0.017173575
-0.027539168
-0.034609053
-0.030721525
-0.03079673
-0.028649133
-0.018760514
-0.013526978
-0.0066884314
0.0069520464
0.01432477
0.013961804
0.011284355
0.009720375
0.015870428
0.02335081
0.023944167
0.024532499
0.0239825
0.019466292
0.022578022
0.029840237
0.02666167
0.020814208
0.01580271
-0.0016919173
-0.018359976
-0.01801733
-0.015424617
-0.0155404005
-0.018454945
-0.03114981
-0.038185943
-0.032996986
-0.03151533
-0.033958834
-0.029510273
-0.016239243
-0.004369216
1.0695561E-4
0.0026681588
0.005242734
0.011042225
0.015624936
0.010206307
0.0068662404
0.011134468
0.016344763
0.02261581
0.024931958
0.025320768
0.02761477
0.02207152
0.008084354
-0.004324044
-0.004807183
0.0075575346
0.019899571
0.022616312
0.009053445
-0.014801846
-0.02793775
-0.02864896
-0.025101896
-0.016887471
-0.010528575
-0.01190047
-0.014438813
-0.009548331
0.0028501358
0.015498896
0.013978489
-0.009924106
-0.02989081
-0.022112316
-0.0033930403
0.014515142
0.028902758
0.028099189
0.020518636
0.01616423
0.007482055
-0.0043070787
-0.009295289
-0.0012277217
0.010060635
0.0069250967
-0.003335936
-0.0066564255
-0.005917946
-0.005775856
-0.013844382
-0.029585999
-0.036873586
-0.032640878
-0.023353178
-0.014170441
-0.008360191
0.0021148643
0.012422889
0.009774516
0.0034879597
0.002146661
0.0067448895
0.019286606
0.032255817
0.038112395
0.036362413
0.028556695
0.019618649
0.016049584
0.014546227
0.00966301
0.010219977
0.012566477
0.003458699
-0.0053403107
-0.0034205148
6.6258135E-4
-0.0036028158
-0.015099693
-0.022194775
-0.03394126
-0.056637846
-0.0637653
-0.04829953
-0.029003406
-0.014952625
-0.008482704
-0.0039407443
0.004324222
0.011547032
0.0150002325
0.014463702
0.011584126
0.01501483
0.024756227
0.031341873
0.037406143
0.044699028
0.043659028
0.034427002
0.022984127
0.011099633
-0.001533536
-0.008608887
-0.0029356678
-0.007021038
-0.029471252
-0.041791365
-0.0491383
-0.059269447
-0.053271364
-0.042187024
-0.037452973
-0.032409664
-0.02968918
-0.024786323
-0.010495148
0.012223999
0.03632917
0.054075155
0.067599416
0.07242564
0.060853034
0.04211779
0.02745754
0.01896154
0.016650824
0.018835712
0.026804477
0.045065485
0.056716263
0.040406883
0.009612644
-0.01777123
-0.03542588
-0.040901046
-0.044971142
-0.050485354
-0.06430833
-0.088829
-0.09734912
-0.09388814
-0.08802033
-0.05938206
-0.029489625
-0.025432067
-0.026073487
-0.012918047
0.012558022
0.03847649
0.053839657
0.06669937
0.079915
0.07994698
0.074194334
0.07153091
0.061768208
0.061067075
0.06748277
0.04779391
0.02462082
0.019817248
0.015542563
0.01114372
-0.006002945
-0.039008833
-0.05860967
-0.061728243
-0.05973643
-0.054999895
-0.04453939
-0.03184524
-0.034793906
-0.043823868
-0.038789615
-0.030057156
-0.018805286
0.0065630507
0.030379435
0.03128613
0.014755199
-0.0046240888
-0.018183857
-0.02557587
-0.025565224
-0.005793519
0.020089667
0.028443247
0.031486757
0.050132684
0.09080279
0.11320413
0.07733605
0.016749687
-0.04754231
-0.096745834
-0.08426623
-0.043197352
-0.023746505
-0.01271247
-2.643795E-4
0.01427941
0.041373678
0.08096176
0.112180665
0.10859351
0.060717836
-0.011211836
-0.07256934
-0.10227423
-0.09010957
-0.06169318
-0.056159887
-0.0546058
-0.042467672
-0.043961644
-0.06510422
-0.0995562
-0.12397294
-0.092726566
-0.006034168
0.06582819
0.09029878
0.095275536
0.09558302
0.13360387
0.2039286
0.20936318
0.14079586
0.055386238
-0.012754027
-0.05603039
-0.090224706
-0.08937694
-0.07061955
-0.06420337
-0.028561128
0.007495203
0.044488993
0.11000465
0.099756435
4.6725976E-4
-0.09620426
-0.1716166
-0.2207992
-0.23283915
-0.19716474
-0.12684837
-0.048709176
0.03344107
0.08158507
0.09423615
0.1111443
0.121797785
0.14255968
0.16792451
0.13650708
0.07978639
0.05882804
0.04566576
0.0057150093
-0.029608427
-0.037964493
-0.062886424
-0.09060689
-0.059087556
-0.014314851
-0.0071898857
-0.012157259
-0.017265888
-0.0030179007
0.024477629
0.01778504
-0.013346088
-0.042665925
-0.06193115
-0.06564789
-0.0594571
-0.019714557
0.037587598
0.047631953
0.030604886
0.029956335
0.029255193
0.02123151
0.016424937
0.011228613
0.00521616
0.0062649366
0.00664201
-0.0017300929
-0.011043831
-0.01725254
-0.018923214
-0.021031233
-0.025502093
-0.022954084
-0.01856614
-0.013335416
-0.0022738941
0.0063858614
0.014534353
0.02313058
0.025922578
0.024454687
0.018635916
0.010915039
0.0023281737
-0.007050384
-0.008357657
-0.0027344306
0.001888392
0.006907469
0.012365908
0.01584323
0.017847413
0.016126009
0.011210832
0.005786995
-0.0034567707
-0.014541494
-0.021344533
-0.023550745
-0.021091364
-0.016708234
-0.013767764
-0.01028765
-0.0056808623
-0.0020837164
-0.0016185543
-0.00345392
-0.0038888073
-0.0023441212
-0.0011088091
-0.0012260413
-2.7691395E-4
0.002581091
0.0040178713
0.004105538
0.0053924858
0.0071095326
0.008031628
0.009205896
0.0098886425
0.008343227
0.007786354
0.008566379
0.006909024
0.005037528
0.00486283
0.0042407336
0.0022272256
-7.6119744E-5
-6.047155E-4
-9.279078E-4
-0.0018664969
-0.0016592195
-0.0023027465
-0.00299152
-0.0011693451
7.5149874E-4
0.0010423345
-5.0534738E-5
-0.0016048157
-0.002431217
-0.0011910729
7.9585717E-4
-0.0025496376
-0.008726076
-0.009086222
-0.006184019
-0.005207866
-0.00538699
-0.004827134
-0.0028882765
-0.0028049927
-0.0032377825
5.3188996E-4
0.0021074286
-4.343018E-4
9.200626E-4
0.0025797724
0.0010604245
0.0011752675
0.0012038733
6.469746E-5
5.3554602E-5
0.001445811
0.004263199
0.004857728
0.0020081843
1.2704503E-4
0.0012089841
0.0030406378
0.0031768063
0.003028562
0.0014946951
-6.7517837E-4
0.0030187606
0.006620902
0.0033888742
-7.063908E-4
-0.0017316696
0.0013611395
0.0041129123
0.003314142
0.003656365
0.0010365086
-0.0067836717
-0.011345246
-0.010922148
-0.009697978
-0.008418382
-0.0054589873
-0.0029845363
-0.0031355137
-0.0044295
-0.005713561
-0.0046610194
-0.003166285
-0.003899671
-0.0035784345
-5.81723E-4
0.0043313536
0.006339034
0.005685208
0.0076696086
0.0068352073
0.005256223
0.007813273
0.0073284674
0.006080622
0.0057478435
0.0032608353
0.0036758604
0.005519628
0.004438364
0.0021943098
0.0012401444
8.5925846E-4
-0.0017196282
-0.004446566
-0.006105548
-0.0045504817
0.0017910464
0.0027185304
-0.0033920826
-0.006498231
-0.0050679147
-0.002774812
-0.00165805
-8.823065E-5
-2.7874597E-5
-0.0027053913
-0.0025769295
-0.0046325363
-0.008617248
-0.0048891813
-0.0010216794
-0.0010463538
-0.0014184933
-0.0034680604
-0.001651731
-2.468923E-4
-0.0024958625
3.8072403E-4
-2.4370478E-4
-0.0030955654
0.0032518476
0.00467977
0.0010304365
0.004779396
0.008080729
0.009294872
0.01086842
0.009208816
0.006595536
0.0033317967
2.8128698E-4
2.0975311E-4
0.0011536984
0.0012453366
-6.6718383E-4
-0.0021178478
-0.0013373105
-0.0020530447
-0.0029175852
-0.0021843368
-0.0033521494
-0.005911177
-0.006819131
-0.005885931
-0.004651299
-0.004318629
-0.004120731
-0.002762926
-0.0015082258
-0.0014466546
-1.3976292E-4
0.0019688706
0.0017790337
0.0012288701
0.001980212
0.0018040072
4.324629E-4
-8.592253E-6
0.0014066268
0.002968974
0.0028679145
0.0012108481
-8.939219E-6
9.281031E-4
0.0018402976
0.0017233714
0.0028029415
0.0026029611
-7.542026E-4
-0.0024310942
-8.754364E-4
6.6893856E-4
7.659297E-4
1.138289E-4
3.0547314E-4
3.766347E-4
-6.128698E-4
2.2622895E-4
0.0018180998
0.0011922822
5.423544E-4
4.0469127E-4
-0.001666697
-0.0038327842
-0.0025137537
-3.1304103E-4
-1.793237E-4
-4.84225E-6
2.1547222E-4
3.8705356E-4
2.57804E-4
-9.7117474E-4
3.192281E-4
0.0023396136
0.001865309
0.001849505
6.897317E-4
-0.0016703339
-0.0015971321
-8.9789444E-4
-0.00141254
-0.0015703167
-2.6821739E-5
5.1356567E-4
-0.001656655
-0.0029309005
-0.002637534
-0.0024790792
-0.0024910683
-0.001856317
-7.89884E-5
0.0011619471
7.3321717E-4
-0.0014711493
-0.0021226683
-3.1952467E-4
-0.0012344653
-0.0010040981
0.0024715136
0.0033463975
0.0035300925
0.0039499234
0.00379171
0.002406111
-8.298151E-4
-7.664146E-4
-4.6881966E-4
-0.0012709112
0.0018990682
0.003393103
0.0020041522
-9.888665E-5
-0.001843637
-3.465619E-4
-0.001184682
-0.0016938614
0.0011824282
-1.3997708E-5
-0.0015081201
-0.0020009966
-0.0032295545
-0.0012361178
-3.814005E-4
-9.3475834E-4
-1.2439107E-4
-8.182498E-4
-0.0019238058
-0.0017304213
-3.7659725E-4
-1.11472815E-4
-3.786161E-4
0.0015621387
0.0021055515
0.0014373658
8.6743373E-4
-8.030431E-4
-0.001072139
-0.0011233126
-5.872527E-4
0.001109836
7.2907255E-4
4.3656607E-4
7.7179074E-4
0.0013072939
0.0026432457
0.0024880988
0.0018655127
0.0011346547
7.1654917E-4
0.0012829481
2.803067E-4
-8.164528E-4
1.4980984E-4
0.0025643941
0.0025588374
-6.499305E-4
-0.0012665725
-0.0024214494
-0.0036009916
-1.8135514E-5
9.643148E-4
0.0013346463
0.0025649676
-0.0016179021
-0.003655581
-0.002574612
-0.002786829
-6.3208526E-4
0.0012456577
5.0461944E-4
-0.0015527599
-0.0022927828
-1.8975874E-4
2.6715043E-4
-9.638483E-5
-3.7499328E-4
-0.0024491267
-0.0022512197
5.066089E-4
0.0019625684
0.0010887212
0.0019509208
0.0045190873
0.0017520108
-3.708004E-4
0.0018822516
8.260599E-4
-3.9921502E-5
1.5800404E-4
-7.8168395E-4
7.1271043E-4
7.1706675E-4
-2.4395216E-4
9.3741895E-4
5.5619574E-4
6.743526E-4
0.0015788149
-7.60261E-4
-0.0025831985
-1.6946706E-4
7.2768104E-4
-0.0010722417
2.955387E-5
-6.8930443E-4
-0.001555372
0.0025160229
-0.0014358058
-0.008397247
-0.005003767
-0.0017939761
4.5163615E-4
0.003985937
0.0019857923
1.14948634E-4
8.667243E-4
8.298804E-4
7.3043595E-4
2.0212043E-4
6.64464E-4
0.0015897865
9.930673E-4
-1.04344355E-4
-1.8208506E-4
8.9325884E-4
4.1138288E-4
-4.5763733E-4
6.4496795E-4
9.810003E-4
5.3143397E-4
5.904058E-4
-5.5231772E-5
-0.0017547222
-0.0018486654
7.085928E-4
0.0013277407
1.1691457E-4
-9.892667E-5
-7.1066146E-4
-0.0011229356
-0.0017397845
-0.001899259
1.2853257E-4
4.7968875E-4
-4.6595355E-4
2.593275E-4
0.0011446599
0.0019222591
0.0013987247
-1.0980807E-4
6.980759E-4
4.1388106E-4
-0.0019587774
-3.3512093E-5
0.002582659
0.0010592097
-2.6876712E-4
-0.0012108422
-3.7321527E-4
0.0014673293
-0.0014748405
-0.0027069885
-1.93621E-4
4.1113928E-4
0.0018523554
0.0016516229
-0.0013301662
-0.0019762865
-7.7025633E-4
6.594529E-4
-1.4504039E-5
-4.0792438E-4
0.0019126325
0.0016127465
-3.0708245E-5
-2.7492878E-4
-4.5856106E-4
-5.151995E-4
-0.0021589114
-0.0025101323
3.1108712E-4
0.0011836686
1.8794378E-4
3.3450723E-4
6.72498E-4
4.2796927E-4
9.431184E-4
0.001411807
4.9924955E-4
-9.566001E-5
-5.21428E-4
-9.1219565E-4
-3.2607312E-4
4.3594E-4
8.7246904E-4
5.6899997E-4
0.0011364471
0.0018293896
8.225913E-4
0.0012725883
0.0015448128
2.1783459E-4
1.837975E-4
3.1825574E-4
1.823333E-4
-5.0505495E-4
-3.0750796E-4
8.401818E-4
-0.0013617991
-0.0022547059
-3.1972388E-4
-0.0015552929
-0.003178073
-0.0021193717
-3.1245666E-4
-4.7897908E-4
-0.0019287013
-0.0017094781
-0.0013909675
-1.6705137E-4
0.0018229753
0.0018797203
0.0017093719
9.5896935E-4
5.005526E-4
5.92495E-4
-0.0010377713
-8.53474E-4
7.4846856E-4
0.0011265951
0.0018922007
0.0021757374
0.0022476413
0.0022412539
8.0562104E-4
8.16602E-5
0.001197143
0.0014229687
-3.1226204E-4
-0.0013600667
-0.0017103195
-0.0018631439
-3.432948E-4
3.7330255E-4
-3.880791E-4
-0.0010003439
-0.0014260047
-5.9923355E-4
6.195052E-5
2.8974153E-5
1.0893563E-5
-5.496775E-4
-3.9081034E-4
-7.122619E-4
-8.633469E-4
-1.5205664E-4
-0.001878216
-0.0015723882
0.0021015839
0.0021478701
2.5977266E-5
-4.8373375E-4
-7.912143E-5
-7.9474086E-4
-0.002474409
-3.8273173E-4
0.0030034226
0.002100494
3.578495E-4
-2.2645647E-4
-7.4274105E-4
-7.243215E-4
-7.036958E-4
2.4905318E-4
0.0016501158
0.0014945766
0.0010984956
7.381081E-4
-1.085339E-4
-4.9494713E-5
1.0661736E-4
-0.001233357
-0.0021460233
-0.0011518949
-2.0048162E-4
3.064732E-4
4.1671746E-4
-0.0010173053
-0.0012206421
5.102999E-4
0.0015250222
0.0025953022
0.0019652918
-0.0012152435
-0.002106759
-0.0010553316
-0.0011661558
-8.427706E-4
0.0010819458
0.002874738
0.0024299065
-4.7130018E-4
-0.0025404764
-0.0016213726
-9.73673E-4
-0.0010602598
3.7888184E-4
0.0015077714
0.0019722912
-1.031915E-4
-0.0032012968
1.6648987E-4
0.0010776077
-0.0053235
-0.0040346817
0.0027491478
0.0037441985
0.0010893724
-6.542895E-4
0.0012903035
0.0022829236
-1.5666972E-4
5.190315E-4
0.0017414796
-6.8670946E-5
-4.931634E-4
6.962248E-4
9.997106E-4
-6.9620495E-4
-0.0019847983
-2.2994974E-4
3.0516522E-4
-8.937223E-4
5.5110396E-4
0.001815961
4.0287338E-4
-8.347165E-4
-7.8514084E-4
-5.1868707E-4
-0.0014247068
-0.002184613
-0.0015032142
-9.2265906E-4
8.542563E-4
0.0022177657
6.576471E-4
9.41345E-4
0.0024982437
0.0015864951
-7.008795E-4
-0.0032821938
-0.0023684262
5.2702305E-4
5.3134357E-4
8.015766E-4
2.492739E-4
-0.0020221719
-7.911146E-4
0.0017357433
0.0023406825
0.0012305053
-7.389984E-4
-8.15157E-5
0.001534731
6.05575E-4
-0.0016081128
-0.002299775
5.9816963E-4
0.002331921
6.1767154E-5
-6.610541E-4
-2.645259E-4
-2.7473192E-4
0.0014037528
0.0012435217
-8.2956906E-4
-9.452157E-4
-9.6959976E-4
-0.0010066523
2.0789362E-4
-3.4213727E-4
-0.0015444765
-3.6418063E-4
2.419066E-4
3.595646E-4
9.994042E-4
-7.774798E-4
-8.596998E-4
0.0011872427
-1.7408245E-4
-0.001372524
-0.0013607757
1.8600567E-4
0.0035252462
0.0010268976
-0.0015465528
0.0012684226
3.0359672E-4
-0.0018860004
-3.1403254E-4
0.001457545
0.0014620847
-2.0258572E-4
-7.2227645E-4
-2.421586E-4
3.1537272E-4
0.0010572377
6.66989E-4
9.6784066E-4
4.9375684E-4
2.9566892E-5
0.0011048996
-9.985338E-4
-0.0016792429
1.7164536E-4
-9.582467E-5
0.0014873301
0.0016734146
-8.4195636E-7
0.0012468472
3.447059E-4
-0.0019917265
-0.0022087065
-0.0014467468
-2.0592101E-4
-8.9059636E-4
-0.0019048203
-7.9672324E-4
6.059367E-4
5.1432045E-4
-8.5476995E-4
-2.7602835E-4
7.619689E-4
-2.8975456E-4
-7.84062E-4
-8.1848574E-4
3.6231027E-4
0.0027482342
0.0022513662
-1.1319351E-4
-0.001805699
-0.0019355903
-8.8597844E-5
0.0010680188
0.0013868664
0.0015770845
-4.1258023E-5
-6.964414E-4
0.0010894402
0.002027336
0.0015444867
-4.268937E-4
-0.0018650484
-7.079183E-4
-8.9545775E-4
-0.001511097
-1.4925732E-4
3.5920207E-4
9.4867207E-4
0.0012876296
8.8813127E-4
0.0013218919
-1.3796917E-5
-6.256097E-4
7.2500936E-4
-3.644118E-4
-5.670672E-4
5.607062E-4
-7.4960606E-4
-0.0020619729
-0.001700271
-4.343209E-4
-2.5377484E-4
-0.0014056658
-0.0012242198
1.7573498E-4
0.0017954303
0.001912636
5.678216E-4
8.217565E-4
0.0011118819
-3.8663912E-4
-0.001880151
-0.0019285396
-9.165438E-4
-2.1005199E-4
7.478916E-4
4.5715616E-4
-0.0012400025
-3.176281E-4
6.848191E-4
-9.46167E-5
5.186542E-4
0.0018149273
0.0018002023
-8.154265E-4
-0.0021554935
2.1595685E-4
7.9300214E-4
6.875553E-4
0.0012587942
6.794866E-4
9.3034224E-4
3.1463864E-5
-4.4333932E-4
-5.925598E-6
-0.0011290442
0.0015786318
0.002888551
-6.0637377E-4
-2.8272846E-4
2.903229E-4
5.6266726E-4
0.002588915
3.065455E-4
-0.0028851258
-0.0030337877
-0.0011102706
-0.0011232691
-0.0054529863
-0.004156838
9.6831116E-4
8.1389694E-4
5.190234E-4
2.906945E-4
-4.551994E-4
0.0018218858
0.0021713828
5.9943064E-4
0.0017710486
0.002369026
7.901793E-5
-0.0010831618
-1.6402088E-5
-8.828605E-5
-8.364612E-4
-2.3114675E-4
1.5685338E-4
3.9814262E-5
9.0481126E-4
0.0012801038
-2.7815378E-4
-7.330621E-4
4.6199127E-4
-6.627828E-4
-0.0022885888
-6.9181586E-4
0.0010658491
6.8304036E-4
-1.848724E-4
-0.0014793888
-0.0017242666
7.380858E-4
0.0014421853
-3.4436048E-4
6.3219E-5
0.0012159547
0.0019094457
0.0028505784
0.0017851386
8.791518E-4
0.0017174442
5.713486E-4
-0.001968223
-0.0018504581
-4.4302404E-4
-0.001707429
-0.0029066277
-0.0013264655
-1.503132E-4
-5.2031945E-4
-0.0022918968
-0.0025085348
6.091525E-4
7.713784E-4
-5.06373E-4
4.3516676E-4
-8.019425E-4
-2.3950802E-4
0.0033952864
0.0030537152
0.0016157485
0.0018748904
4.407559E-4
-0.0023867625
-0.003949007
-0.0024344148
2.2763161E-4
0.0013559012
0.0010785247
3.017748E-4
4.9532834E-4
5.589117E-4
-4.0255822E-4
3.520022E-4
0.0018992748
8.945079E-4
-0.0014184243
-0.0023899674
-0.0022564572
-0.0016500067
-7.939036E-4
-2.2858036E-4
7.760309E-4
0.001530304
0.0013486778
0.002443839
0.0042305496
0.0047813775
0.0049141315
0.0033842502
-0.0017783773
-0.005710323
-0.0040857946
-0.0023105342
-0.0017735972
4.2592816E-4
7.123356E-5
-0.0021280134
-0.002353758
-0.0018024531
-3.623416E-4
2.1760253E-4
-6.6831395E-5
-6.148515E-5
-0.0016092077
-0.0016246114
-1.5797728E-4
7.3013136E-5
0.0013231531
0.0010068159
-0.0015167671
-8.149231E-4
0.0015803687
0.0011591397
1.5549402E-4
0.001271329
0.001659343
0.0011763335
0.001400567
2.886306E-4
-3.181629E-5
0.0018884675
0.002541405
0.0016184096
4.4443578E-4
-3.067984E-5
-9.896841E-5
-7.740699E-4
-0.0014379256
-0.0023646404
-0.0025011986
-8.3304034E-4
3.4623794E-4
1.7679292E-4
1.7864817E-4
0.0010746496
1.5500245E-4
-0.0023653442
-0.0010620502
0.001371105