-9.967325E-4
-0.0038537271
-0.0035421778
-2.7699888E-4
0.001097687
-3.7296978E-4
-0.001144994
-4.8008954E-4
0.0019672338
0.003037119
2.947713E-4
-1.1130918E-4
0.001809706
0.001159138
-1.677799E-4
-8.980167E-4
5.199117E-5
4.842572E-4
-0.001538642
3.4411685E-4
0.0018601543
-0.0013588124
-0.0015687372
-3.429278E-4
2.6882128E-4
4.8643694E-4
-0.0010812543
3.9851267E-4
7.64157E-4
-0.0015516662
5.202147E-4
0.0016542198
1.6629583E-5
-7.035871E-4
-0.0013351733
-3.4388117E-4
-2.4334737E-4
-0.0011727841
-9.9261124E-5
3.9144867E-5
-1.452845E-4
4.0447936E-4
0.0011248793
0.0026608317
0.0016230099
1.0818001E-4
0.001817254
8.8904455E-4
-0.0021597857
-0.0011283266
-3.0854164E-5
-8.920234E-4
2.394158E-4
8.516375E-4
-5.423055E-4
-0.001969043
-0.0023814957
-2.7467494E-4
5.266008E-4
-2.9899005E-4
7.2980643E-4
2.6390055E-4
5.840451E-4
0.0015091988
-0.0018058459
-0.00148719
0.0020111026
5.2112667E-4
-9.6345635E-4
-3.2030986E-4
-1.8732138E-4
7.295704E-5
-1.3724458E-5
5.3842337E-4
0.001287154
8.849295E-4
5.013336E-4
-3.9531666E-4
-1.5672951E-4
0.0020404735
0.0011921967
-0.0012088501
-8.7144127E-4
-7.9365255E-4
-5.993505E-4
1.9216824E-4
-0.0014109949
-0.0011574907
5.0204725E-4
-0.0011849226
-8.869913E-4
0.0014446538
0.0011161735
0.001483833
0.0022904887
6.7691365E-4
-6.0557324E-4
2.3721484E-5
1.7030424E-4
-0.0012742013
-0.0015699372
4.514814E-4
6.958936E-4
-0.0012014135
-6.763827E-4
5.788934E-5
-0.0013398076
-6.1601825E-4
0.0011785849
0.0012884652
0.0011134052
1.872431E-4
-0.0014238502
-0.0021558441
-0.0013764895
-1.7725909E-4
4.6412526E-5
-6.5638137E-4
-0.0017353914
-6.385841E-4
8.224561E-4
-7.5930805E-4
-0.0012507237
4.934218E-4
0.002144159
0.0015088262
-0.0010096265
6.0622074E-4
0.0026910398
0.0022554433
0.0033205592
0.0015455232
-6.324616E-4
6.190644E-4
-9.532575E-5
-0.0012523115
2.1520931E-4
0.0019942364
0.001374237
2.449095E-4
7.0592425E-5
-0.0011625208
-0.0019219473
-0.0028361918
-0.0010997425
0.0020409967
9.0358214E-4
0.0027501476
-4.9164094E-4
-0.0054566264
0.0030360194
-0.0040724427
-0.017310271
-0.0036493945
0.0044762045
5.002764E-4
0.0028585326
0.0013108497
8.085917E-4
0.0015569421
-3.7230182E-4
0.0019118993
0.002086119
0.0010591984
0.0021050007
3.8840884E-4
-8.464172E-5
0.0011760741
0.0013674201
0.0016322677
7.6355145E-4
1.7117054E-5
9.742161E-4
0.0012585081
0.0011138696
0.0010855277
8.06446E-5
9.848175E-5
3.6063662E-4
-4.8045244E-4
-7.825189E-4
-0.0015898836
-0.0018269024
-0.0017117352
-0.0017653704
-2.6552693E-4
-0.0013939627
-0.0018456185
0.0010616052
-7.643479E-5
-0.0015345541
-1.3485155E-4
0.0011187515
0.0016136328
-3.4685718E-4
-1.6346438E-4
0.0015840762
-2.7685935E-6
-0.001175926
-0.0012382297
-3.3553666E-4
0.0013740925
0.0020385557
9.765454E-4
-0.0026902198
-0.0029249017
-4.0863396E-4
-6.1938947E-4
0.0014905948
0.0027666076
3.386578E-4
4.083596E-4
5.323536E-4
-0.0012253864
-0.001861842
-7.3260587E-4
1.0524855E-4
-0.0012788658
-0.0016109082
5.748892E-4
0.002882416
0.003996003
0.0018874672
-0.0014783345
-0.0022956424
-0.0015708334
-6.213067E-4
2.2713769E-4
0.0010500958
0.0017411244
7.7407324E-4
6.7561605E-6
8.734158E-4
2.0641864E-4
-4.5363154E-4
6.7628204E-4
2.608719E-4
-0.0012907627
-0.0017510678
1.8599963E-4
0.001601293
-0.001426684
-0.0014663787
0.003054496
0.0027113834
-5.8962463E-4
-7.0689927E-4
7.570921E-4
-1.07209584E-4
-0.0013875143
2.2113688E-4
-1.4760619E-4
-0.0020101725
-0.0010816461
-3.192619E-4
-2.4956377E-4
-1.9998112E-4
2.1713445E-4
-1.9121652E-4
-0.0023675116
-0.0015395513
-3.774493E-4
-5.413045E-4
6.945413E-4
-8.783204E-4
-0.0012576258
0.0010148608
6.334899E-4
4.920534E-4
-5.001355E-5
2.0565409E-5
7.911655E-4
-2.8910476E-4
0.0018428941
0.0016654986
-0.0014406907
8.6593913E-4
0.0011956911
3.2732998E-5
0.0017611823
0.0012894697
3.936038E-4
-6.1778707E-4
-4.5147166E-4
0.0014954497
1.7062243E-4
-4.165349E-4
0.0011041254
8.189826E-4
-2.8238128E-4
-7.660625E-4
6.311908E-4
4.1783444E-4
-0.0010167987
8.014017E-4
0.0011200885
-2.887331E-4
-1.2990556E-4
-9.7652426E-4
-0.001855232
-0.0013374735
-6.818801E-4
-7.104907E-4
-0.0010606189
-8.347519E-4
-0.0017046842
-0.0030774428
-0.0031401229
-0.001874955
3.4234475E-4
8.580399E-4
0.001155947
0.0022081572
4.2960013E-4
-0.0010119136
4.3322146E-4
0.0019193938
0.0017413414
4.105262E-4
0.0011271299
0.0012940335
-0.0011378366
-6.153624E-4
0.0017318703
0.001992785
2.5801943E-4
-9.041082E-4
7.5820193E-4
4.760559E-4
-9.13134E-4
3.751266E-4
-4.5166253E-5
-7.051069E-4
-2.4739112E-4
-0.0010768094
-2.7449583E-4
0.0013928942
6.972004E-4
-7.983599E-4
0.0012768564
0.0040404703
0.0015408212
-9.932134E-5
7.461913E-4
1.1108899E-5
-8.60459E-5
-8.3913124E-4
-8.609115E-4
-4.1794218E-4
-0.0014267004
-4.345004E-4
3.296203E-4
0.0026124062
0.0014492365
-0.004514182
1.867411E-4
-0.0019632129
-0.015353063
-0.0093063135
0.0011913856
7.1229326E-4
0.0015476124
-1.0333018E-4
-5.6703703E-4
0.0023207194
0.0019424013
0.0027610427
0.004312756
0.003466786
0.0014859901
6.3946896E-4
0.001004097
9.293925E-4
0.0024783546
0.0018117174
-4.995704E-4
0.0018466598
0.0033050808
0.0023149943
0.0011563879
-7.997439E-4
1.13892806E-4
0.0017844666
0.0014237077
5.9494085E-4
-0.0021087
-0.0055959155
-0.00623846
-0.0039496166
-0.0016220667
-1.9496192E-4
6.59209E-4
2.0649757E-4
-6.8143033E-4
-0.0011286897
-5.109721E-4
9.869573E-4
0.0012475151
-7.8869757E-4
-0.002352432
7.75096E-4
0.0029684545
-5.2409817E-4
-0.0014481939
9.5275027E-4
0.0012907999
0.0012621012
0.0026954047
0.003152115
-0.0011019575
-0.0041453075
-0.0013031305
3.6181425E-4
0.0014096383
0.0022811643
-3.8883364E-4
-5.068179E-4
4.949899E-4
-0.0020201493
-0.0020249947
3.8936766E-4
2.3151639E-4
-9.7224413E-4
-0.001045315
3.0426498E-4
0.001013919
-4.0743485E-4
-0.0013435679
-0.0018440887
-0.0014322645
0.0020110281
0.002964643
3.9808135E-4
3.0913253E-4
0.0010586503
9.3307433E-4
0.0013279181
0.0010717614
3.2614273E-4
2.09137E-4
5.70827E-4
2.306165E-4
-1.0829615E-4
3.8682943E-4
2.9918653E-4
8.588172E-4
0.0011016564
-0.0011971124
-0.0029136678
-0.0022677714
-5.038622E-4
-3.8345083E-6
2.1313516E-4
0.0022980464
0.0013014672
-0.0020211693
-0.0014965413
5.946326E-5
-8.845243E-4
-0.0018922155
-0.0010020365
-0.0015426336
-0.003316847
-0.0015203105
4.4022972E-4
7.0044363E-4
0.0013041219
0.0014466209
0.0031665147
0.0031027757
9.706982E-5
2.628466E-4
8.591856E-5
-0.0015814648
-8.5609034E-5
0.0020461772
0.0023963824
0.0014430359
-5.826509E-5
-0.0015192383
-0.002556251
-0.002621787
-9.5242774E-4
0.00254113
0.0020933624
-0.0019051891
-0.0015374548
-9.8534576E-5
-8.0521044E-5
0.0011646022
0.001245765
3.761313E-4
-9.143584E-4
-0.0017569414
-0.0015166419
-0.001528035
4.7721897E-4
0.0010772467
-0.0010196834
-4.886906E-5
0.001992966
0.0034912035
0.0042875395
0.004324185
0.0053810407
0.0035006711
1.1489928E-4
-0.0025688407
-0.006211569
-0.0052879616
-0.003320996
-0.004191685
-0.001768328
-1.5063604E-4
-0.0010839081
-4.902073E-4
-4.031679E-4
-5.2030064E-4
-8.9962716E-4
-0.0010957588
0.0011386108
0.0026493175
4.092077E-4
-0.00266488
-0.0017823436
1.450881E-4
4.1317806E-5
0.0012836944
0.0011435752
-9.095636E-5
8.357372E-4
1.0678137E-4
2.3835823E-4
0.0022220525
0.0022085705
0.002352436
0.0023197958
0.001896289
0.0015997757
6.842133E-4
5.555553E-4
-0.0011177708
-0.0032465302
-0.00290976
-0.0017008174
6.633949E-4
0.0018650156
6.3124957E-4
-5.7677546E-4
2.0326964E-4
0.0028237754
0.0023504777
6.675918E-4
5.1950506E-4
1.0777088E-4
0.0010879141
8.383187E-4
0.0014253599
2.2235778E-5
-0.005636387
-0.0010631097
-0.00235423
-0.015080298
-0.007328018
0.003972346
0.0011126141
0.0022687493
0.0030971444
0.0034972413
0.0041396297
-0.0012804366
-0.002246344
-0.0016506808
-0.0029627478
-1.8664767E-5
0.001046062
5.6748075E-4
0.0013088426
0.0011139858
0.0016531689
0.0016039234
0.0025791887
0.004652853
0.0024618534
4.999111E-4
0.0014441655
2.9797223E-4
4.9782457E-4
0.0019394599
-3.0727687E-4
-0.0012472443
-0.001096629
-0.0030215518
-0.0030371763
-0.0015762694
4.5239175E-4
0.0013509537
-6.069832E-4
-0.0015572303
-6.534927E-4
9.5566985E-4
-8.687205E-5
-0.0018220935
5.677805E-4
-1.7142805E-4
-0.0025341331
-0.0027774428
-0.0036347364
6.444561E-4
0.0050757136
0.0068235523
0.0029487999
-0.014176265
-0.015163443
0.0045496384
0.008279495
0.003212788
0.0032672063
0.001966946
0.0034495017
0.0049865674
0.0037289478
0.0012690221
-0.002679385
-0.0035172673
-0.0015290838
0.001825129
0.004870297
0.004072717
0.0024834664
0.0015397605
0.0011365109
-3.051635E-4
-0.0062365797
-0.01092996
-0.009769395
-0.005915207
-0.0026974818
-0.0017773889
-0.0010143279
4.207424E-4
0.0014042782
0.0018098068
8.521666E-4
8.2172727E-4
0.0015009525
-0.0015546938
-0.00427854
-0.0015106485
0.0010845776
7.2734075E-4
0.0026305849
0.0065930807
0.009262075
0.0097874785
0.0077771326
0.0062633115
0.006493814
0.0041461093
-0.0033150641
-0.012363592
-0.014910597
-0.009495459
-0.0037155866
-7.7880215E-4
0.0023354865
0.0051042265
0.0024064805
-0.00209818
-8.0900773E-4
0.0020326218
0.004187378
0.005985591
0.0028232755
-6.375509E-4
-0.0014555864
-0.0027966497
-0.0017172033
-0.0012706512
-0.004217767
-0.0047759437
-0.0022789424
0.0010840992
0.0016912252
-0.0015277767
-0.0022731402
-7.059827E-4
1.4686555E-4
0.0010416969
-1.2348914E-4
-0.0015213841
-6.604629E-4
-0.0013974529
-0.0031924692
-0.0020299007
0.0014007256
0.002381911
-0.0011152091
-0.0024946046
7.938852E-5
8.505023E-4
0.002040561
0.004078652
0.003032904
0.002519583
0.0023720018
5.8332813E-4
0.0015476483
0.0051750722
0.008409594
0.007902933
0.0010700367
-0.0054398463
-0.0063998406
-0.006257572
-0.0055165826
-2.756543E-4
0.0062914765
0.010616846
0.012943383
0.010750833
0.007080282
0.0055903373
0.0018885941
-0.002771234
-0.0064229164
-0.009613666
-0.0126647735
-0.020854922
-0.02616923
-0.019322496
-0.011306821
-0.007325056
-0.004191245
-0.0029394492
-0.002831413
-0.0015984455
2.0592505E-4
-9.833733E-4
-3.8362463E-4
0.0062278574
0.013694591
0.020154433
0.019089213
0.012655468
0.012291509
0.012910274
0.013566756
0.011419564
1.9220471E-4
-0.0045190384
9.6901605E-4
0.0070394157
0.012670064
0.0134438565
0.008487443
5.659055E-4
-0.0068947882
-0.01226058
-0.014595961
-0.011734603
-0.013113635
-0.014646874
-0.011685265
-0.016256165
-0.013162922
-0.0063800495
-0.016201586
-0.015592698
-0.0030322424
6.239884E-4
0.007192161
0.014156083
0.015191418
0.015131489
0.009878643
0.0032807295
-0.0026150034
-0.008594152
-0.0066804974
-0.002196192
-0.004058825
-0.00469286
-6.5888406E-4
0.0025526902
0.005220055
0.0073393174
0.0062018265
0.0026879716
0.0010354617
0.0028179502
0.0029712229
0.002236284
0.0034534794
0.0029780422
0.0028553188
0.003661363
0.0050781965
0.01055893
0.0141502265
0.011694695
0.0063086334
0.0015732273
-9.146846E-4
-0.0041541616
-0.0062102354
-0.0067421244
-0.006404785
-0.0020054427
7.8488037E-4
-0.0014881282
-0.009609166
-0.019343099
-0.018703636
-0.014155122
-0.010971511
-0.004691204
-0.002158317
-0.005675972
-0.011240247
-0.009704749
-0.0013298575
-0.0016539764
-0.0038544354
1.1260229E-4
0.0020964462
0.0030068848
0.00272077
0.0021762569
0.0031240955
0.0031071457
0.005671783
0.011956202
0.022425476
0.033194
0.03326641
0.02025024
6.8765914E-4
-0.008361763
9.80034E-4
0.011751686
0.013334654
0.010273383
0.0046130707
-0.00722256
-0.021054037
-0.024734339
-0.01817812
-0.011327705
-0.011628196
-0.014101846
-0.010251732
-0.0051262057
0.0014752032
0.008679412
0.0065798135
-5.360073E-4
-0.005850051
-0.0038059424
0.0044117854
0.00465101
0.0018112155
0.0059409128
0.011497198
0.011688516
0.0031627924
-0.003851131
-0.0013938058
0.0048280624
0.011093166
0.010386091
-0.0024415292
-0.021869615
-0.03528657
-0.036939498
-0.034820814
-0.028260173
-0.021038597
-0.024427297
-0.025945676
-0.011946977
0.012222985
0.029521279
0.03239799
0.03665843
0.040558808
0.03168258
0.019798655
0.012292208
0.010171689
0.014563125
0.02221878
0.0271429
0.023039311
0.01149621
-0.004210404
-0.019691456
-0.030521357
-0.029427418
-7.042436E-4
0.035846226
0.042436372
0.032001145
0.031442214
0.03099713
0.014846428
-0.004012408
-0.015691832
-0.032596514
-0.04942542
-0.055932526
-0.058969297
-0.073107116
-0.095589995
-0.08476184
-0.045878083
-0.022859884
0.0013225117
0.029671121
0.04396821
0.061569218
0.06576302
0.040719848
0.026277112
0.04385936
0.07103214
0.07640472
0.04693373
0.008108141
-0.017335694
-0.053503793
-0.08845977
-0.07401682
-0.04364233
-0.026231803
0.0050041885
0.031495836
0.041776776
0.04170428
0.012220717
-0.03608792
-0.07820797
-0.09845124
-0.097218975
-0.07517107
-0.015310245
0.053132597
0.10162119
0.13472816
0.1395645
0.13249987
0.122676715
0.10194171
0.09313852
0.08449476
0.059431963
0.015232393
-0.06569066
-0.1612716
-0.22775756
-0.21996792
-0.14106438
-0.06670763
-0.02556654
-0.0101759555
-0.011032792
-0.0047017075
-6.226626E-4
0.011060572
0.0393741
0.045080837
0.020317143
-0.011317397
-0.013036022
0.028906042
0.06768793
0.075355366
0.071171895
0.07553351
0.06970167
0.047000155
0.038723297
-0.004804687
-0.10512679
-0.1528187
-0.122336395
-0.08227162
-0.06189302
-0.06654971
-0.07411389
-0.052976176
-0.018445369
-0.005781873
0.009021807
0.060733017
0.1081968
0.12988451
0.1486433
0.16220477
0.17473641
0.17005245
0.12837844
0.08906749
0.0488529
-0.03574905
-0.13345145
-0.20283937
-0.22116268
-0.15644524
-0.07346002
-0.048568398
-0.03664756
-0.025356343
-0.02555313
0.0014962632
0.022771299
0.010612825
-0.016918274
-0.075217225
-0.10812019
-0.060738496
-0.006953128
0.013381359
0.03167268
0.051702835
0.08537345
0.13070996
0.15095107
0.14838353
0.13055223
0.10526863
0.085254475
0.01757835
-0.07565287
-0.10628408
-0.12629798
-0.15885247
-0.1392259
-0.09609441
-0.05887942
-0.019292464
0.0063380525
0.022052858
0.034230787
0.040010795
0.040292945
0.034800466
0.028797127
0.020111261
0.01215951
0.010318928
0.007192003
0.0036505607
0.0013974217
0.0010274264
0.0038480759
0.003590044
0.0021638193
0.004926664
0.011070948
0.015894545
0.014578011
0.012666249
0.011172256
0.0056904983
4.6500948E-4
-0.0055367905
-0.013082966
-0.017191669
-0.021950489
-0.029089535
-0.03150126
-0.026857963
-0.017388029
-0.007821792
-5.372569E-4
0.006729852
0.010939424
0.012311189
0.016159087
0.017415686
0.012351996
0.006284636
0.0031336464
0.0015424404
-0.0029301036
-0.007527872
-0.0085356245
-0.00975765
-0.010308828
-0.008203156
-0.004455391
0.0010315242
0.0048128124
0.006636109
0.008522524
0.008115334
0.0069513423
0.006832366
0.005476503
0.003311603
0.0021490972
0.0023087412
0.0021122196
0.0014792897
0.0022243727
6.0631783E-4
-0.0031627335
-0.0035888276
-0.002985449
-0.0013130509
0.0012022848
-1.08060645E-4
-7.633182E-5
0.0015761283
9.038997E-5
3.0372085E-4
0.0016450824
7.156794E-4
-0.0010209125
-0.0019878559
-0.001560497
-0.0031295472
-0.004433149
-0.0034155361
-0.0034931377
-9.3970343E-4
0.0011947607
-0.0016125954
-0.0023541842
-7.8900164E-4
4.8664951E-4
0.001238051
-6.9474964E-4
-0.0026019954
-0.00221307
-5.501126E-4
0.0012373017
0.0015788029
3.488651E-4
-5.4043724E-4
7.5150124E-4
0.0016308377
4.2342185E-4
-1.2953629E-4
9.77747E-4
0.0020567065
0.0011968247
0.0010595552
0.002031256
9.6727733E-4
0.001135505
0.0013493968
-5.1812304E-4
-3.105212E-4
3.289998E-4
1.1330035E-4
4.3591473E-4
0.0022400396
0.00466322
0.0021759134
-0.0014656936
-0.0012540413
-0.001353095
-0.0011556109
-0.0012745417
-0.003679575
-0.0045284084
-0.0061075194
-0.009820071
-0.0065480582
1.840136E-4
-4.7756586E-4
-9.286391E-5
8.0736354E-4
-0.002813887
0.0024655375
0.0021693045
-0.0120097445
-0.0094855605
0.0028781681
0.0045494377
0.004067161
0.0031655284
0.0026425847
0.0032609215
0.002972986
0.0041136974
0.0033505238
0.0024214282
0.0032574649
0.0030726574
0.0036815044
0.0029276595
9.429911E-4
1.3886276E-4
6.9581234E-5
0.0011713008
1.0085161E-4
-0.0013631522
-8.222335E-4
-0.0020580266
-0.0027162598
-0.002076604
-0.0022009707
-0.0014677985
-0.0013568233
-0.002487172
-0.0015013443
0.0013873365
0.0010771028
-0.0015711249
-9.818892E-4
4.28252E-4
-5.556114E-4
-0.001938778
-0.0019785075
-0.0010018992
-8.4641104E-4
-7.713149E-4
-2.5495386E-4
-1.11368936E-4
5.08335E-4
6.5804104E-4
-2.3645582E-4
-0.0014517512
-0.0010115532
0.0020955342
0.0036938626
0.00233671
-2.781712E-4
-0.0021570134
-0.0017292196
-0.0015779157
-5.396826E-4
0.0019077822
0.0014088143
-4.463349E-5
9.0560054E-5
8.2632515E-4
2.3525815E-4
-0.001976858
-0.0011441197
0.0018579834
0.0027561765
0.0017112095
-7.75847E-4
-0.0014413345
-7.897811E-4
-0.0026222991
-0.0027983235
2.2336078E-4
0.0015770672
-6.614791E-5
-0.0023480991
-0.0028570727
-0.0019943244
-9.6960505E-4
-3.4240467E-4
-0.0016400854
-0.0033452967
-0.0025011692
-0.0019323952
-0.0029003054
-0.0013507027
4.12519E-4
-1.885874E-5
3.6726E-4
4.930777E-4
0.0011702703
0.0020903284
0.0010956443
0.0029975541
0.004398876
0.003204555
0.00542067
0.005700606
0.00511724
0.0069870325
0.0052662087
0.0046791635
0.004183712
5.9697084E-4
9.70132E-4
-4.9044644E-5
-0.0028619138
-0.0015240922
-0.0022674266
-0.0036018519
-0.00225992
-0.002087401
-0.0029507524
-0.0036250346
-0.002424809
-0.0022132453
-0.0047246213
-0.0045316117
-0.0039297203
-0.0048029926
-0.0038358793
-0.0035805153
-0.0030922866
-2.3757275E-4
1.424592E-4
-0.001839833
-5.72184E-4
0.0018442848
6.9275836E-4
-9.6602633E-4
-0.001610663
-0.001405453
0.0014259736
0.0019525674
-3.5251398E-4
-6.1032297E-5
0.0012681335
0.0025637608
0.0027737177
7.5442326E-4
4.4372428E-5
0.0012748615
0.0032369578
0.0034915167
0.0018957386
0.0025227463
0.0027860499
0.0012148103
0.0011607077
0.0024662567
0.003413911
0.0014773459
-6.299628E-4
5.858165E-6
-9.539566E-4
-0.0027453718
-0.0024615317
-0.0017148169
-0.0012079467
-9.0935413E-4
-9.190485E-4
-0.0015222166
-0.0021163274
-0.0027755813
-0.0032292313
-0.0017359387
-0.0011412703
-0.0019816572
-0.0017942841
-0.0023963554
-0.0022042943
-3.3999325E-4
-5.0426606E-4
-0.0017050627
-0.0012711178
-9.421224E-4
-0.002296951
-9.46058E-4
0.00428368
0.0056045935
0.0016384121
-4.5210263E-4
0.0014213132
0.00261766
0.00100561
2.0258312E-4
0.0016455202
0.0024004977
0.0019822167
0.0025601136
0.0029601802
0.0010493121
-9.254029E-4
-4.6404864E-4
8.144426E-4
-8.511637E-4
-0.0022866728
3.84483E-4
0.0016181638
0.002500134
0.0012802676
-0.0055229794
-0.00311637
-7.882952E-4
-0.012401182
-0.012255746
-2.700213E-4
0.0025685576
0.002432951
0.002461578
0.0019018584
0.0030033085
0.0020912553
4.054438E-4
-4.0541784E-4
-0.0012054642
-0.0013364854
-2.3312474E-4
0.001222768
0.0024176596
0.004838345
0.005098294
0.002884024
0.0035711518
0.00484343
0.0037036
0.0016974037
0.0012894098
0.0014846103
-1.6343215E-4
-3.351116E-4
6.345187E-4
9.7595114E-4
-1.7755032E-4
-0.0039611785
-0.0044755274
-0.0036671322
-0.0033307103
-1.8540121E-4
-0.0015387434
-0.002975276
-3.811173E-4
-0.002453923
-0.003806584
-0.0026004147
-0.0031999617
-0.002622166
-0.0015370783
6.544695E-5
-5.058037E-5
-0.0022344876
-7.5634435E-4
0.0018628818
0.0029606095
0.0036236937
0.003246789
0.002623795
0.001825035
5.1630096E-4
-4.8966357E-4
0.0011027787
0.0029791961
0.0018965184
0.0020016262
0.0018817296
0.0010444549
0.0024566182
6.1255693E-4
-7.352977E-4
0.0023893097
0.0017242273
-0.0012601968
-0.0014216956
-2.0645853E-4
-1.0656911E-4
-0.0012287217
-6.038306E-4
-2.795045E-4
-0.001196149
-0.0010749798
-9.3179755E-4
1.2038258E-4
-4.4065263E-4
-0.0030438493
-0.0029830628
-0.0028015082
-0.002037044
4.982091E-4
4.023725E-4
-8.837097E-4
-9.6062594E-4
3.6415138E-4
8.023332E-4
-9.804242E-4
-7.3254126E-4
-3.1186736E-4
-4.7580941E-4
0.0016479201
0.0021076207
0.0022643982
0.0034951037
0.0018580402
2.8531766E-4
-2.4117522E-4
-0.0020540806
-0.0027225227
-5.076136E-4
0.0022622074
0.0021868513
9.657867E-5
-9.4632135E-4
-3.8728077E-4
9.713479E-4
0.002024829
0.0014629266
-9.518003E-4
-0.0019135732
-0.0020809795
-0.003993912
-0.002085694
0.0011736179
7.828131E-4
0.0019686816
0.0012574989
-0.0015517289
3.7451263E-4
0.0013645964
-2.1470508E-4
-1.1834267E-4
5.5370247E-4
5.1252166E-4
-0.0012701115
-0.0012680904
0.0012899595
0.0016387326
0.0012719868
6.6171115E-4
-9.2628744E-4
-2.424547E-5
0.0014752299
-2.9303058E-4
-0.0013857193
8.382486E-4
7.41204E-4
-0.0016538388
-0.0010872249
7.301058E-4
0.001216697
-1.0881169E-4
-2.9520103E-4
0.0021768175
0.0015584523
3.095335E-4
0.0013432747
-1.2899801E-4
-0.001949392
-0.002437618
-0.0013915895
7.101357E-4
2.4189893E-4
5.170781E-4
0.0013337662
8.1658934E-4
0.0016802038
6.9520803E-4
-4.086552E-4
1.8246482E-4
-9.830869E-4
-6.525764E-4
-6.6668144E-4
-0.0025046377
-8.606029E-4
4.5094008E-4
-9.451733E-4
-5.004291E-4
6.3231756E-4
-6.821757E-5
-7.1444485E-4
1.2442989E-4
9.733336E-4
4.7584745E-4
-4.5117323E-4
3.1835667E-4
0.0018830169
0.0014649964
6.0293265E-4
0.0016024874
0.002640463
7.887281E-4
-8.348168E-4
0.0018630167
0.002647594
2.6501768E-4
6.0577964E-4
6.5190607E-4
-7.553319E-4
-0.0013891265
-0.0015317673
-4.4035615E-4
-1.9954301E-5
-9.75321E-4
-9.4625016E-4
0.0010796504
0.0019179592
-1.1753824E-5
-0.0011483952
-0.0038481676
-0.0028693646
0.0031762095
-0.0037430758
-0.010703852
-0.00156657
0.0025789274
0.001804613
0.0045254487
0.0022736273
3.9793456E-5
4.714776E-4
0.0013478678
0.0026703726
-5.08635E-5
-0.0013982701
8.163886E-4
4.8974754E-5
-6.465475E-4
1.6943857E-4
2.640068E-4
0.0012007551
8.53694E-4
-2.8898372E-4
5.516422E-4
3.0211997E-4
4.707183E-4
0.0024573847
0.0016828497
-2.1471905E-4
-0.001432247
-0.0011211867
0.0017154935
0.0011910835
-8.779521E-4
-3.3142362E-4
-3.7613304E-4
4.69884E-4
9.7173714E-4
-3.728823E-4
-0.00105826
-0.001506604
2.6641568E-4
0.001115269
-0.0010879515
-5.1590614E-4
4.2089217E-4
-4.2306527E-4
-9.260347E-4
-0.00199693
-0.0022799966
-0.0013680618
-7.343143E-5
3.9178866E-4
1.3239102E-5
8.068493E-4
7.696498E-4
-6.7041465E-4
-0.002881086
-0.0034516505
6.880384E-4
0.002472793
9.500147E-4
0.0015655934
0.0011757028
8.546751E-4
0.0013877251
1.1091645E-4
1.15710696E-4
0.0015945003
0.0020351156
8.961546E-4
2.7735372E-5
-8.933878E-5
-0.002218535
-0.00204203
0.0013746112
0.0017779957
8.5113186E-4
1.3479705E-5
-1.8289263E-4
0.0010035168
-1.9374951E-4
-4.9785856E-4
9.511517E-4
-4.440078E-5
4.5967965E-5
3.0404492E-4
-0.0014942304
-0.0016735878
-0.0013425312
-0.0012598974
-2.5650402E-4
2.013764E-4
5.731134E-4
1.1990845E-4
-0.0024413131
-0.0019916035
0.0018560622
8.8867295E-4
-0.0020241337
3.156142E-4
0.0022900964
7.887087E-4
-5.229165E-4
-7.6318823E-4
5.7316996E-4
6.79701E-4
-0.0015470624
-1.9433747E-4
0.0021324812
-0.0010491638
-0.0029094603
2.3302133E-4
0.001763597
0.0018604259
0.0014691015
6.021819E-4
0.0016273817
7.416954E-4
-8.794963E-4
-6.633678E-4
-0.0012662065
-2.0195183E-4
-7.995468E-4
-0.0031161818
-7.0172234E-4
6.378044E-4
6.621699E-4
0.002102314
8.896719E-4
-2.476037E-4
-2.99987E-4
6.2455767E-4
0.0010770645
-0.001976351
-0.0031245549
-0.0026238104
-0.0013444679
0.002323709
0.0023740157
0.0015549076
0.0015094362
-8.512532E-4
-7.7971476E-5
4.931876E-4
-0.0019475799
-9.084962E-4
9.357866E-4
8.7880227E-4
0.0013854655
0.00141839
7.6543284E-4
4.7921855E-4
2.3077731E-4
-4.0594023E-4
-0.0012398879
-0.0017630275
-0.001698244
-0.0018912948
-9.1738947E-4
0.0022060692
0.0023092995
5.4439803E-4
8.215712E-4
-3.1357433E-4
-5.6863466E-4
-4.5001474E-5
-0.0012639613
6.054241E-4
0.0014394801
-5.1067356E-4
1.6597238E-4
-2.453777E-4
-0.0013810073
-2.786314E-4
2.6493258E-4
-8.080026E-4
-0.002107224
-0.0010047534
3.4053845E-4
1.9882809E-4
7.770599E-4
6.006907E-4
2.93958E-4
3.257799E-4
3.7843524E-4
0.0010941834
2.5346284E-4
1.7042295E-4
4.4609673E-4
-4.5317147E-4
0.001743587
0.0034215895
0.0024280904
0.0012111304
-8.1551453E-4
-7.822757E-4
2.6975435E-4
-7.361138E-4
-0.002174878
-0.0014401287
0.0014655435
0.0025515126
0.0014706323
-0.0023633826
-0.0033121153
0.0030538253
-0.0019588126
-0.012906357
-0.0062690633
0.002406148
0.0023751284
0.0027705624
0.0022488686
0.0021406536
0.0020650215
7.015826E-4
0.0010298152
0.0014048163
0.0015065062
8.640867E-4
-3.1287016E-4
-7.3697185E-4
-6.100461E-4
0.0013299347
0.001068272
-8.1932906E-4
0.0011020132
0.0017560237
1.0627424E-4
3.682713E-4
3.727834E-4
-4.057318E-4
-3.6156108E-4
-1.9530031E-4
-0.0014925675
-0.0023326618
-7.322156E-4
-0.0010363935
-0.002095177
6.022876E-4
0.0012448801
-8.835689E-4
3.6210558E-4
0.0014149052
4.1703545E-4
2.8298795E-4
-7.097864E-4
-0.0012071638
-3.5448477E-4
-5.3098232E-5
0.0013310277
0.0013499518
-0.0013854494
-0.001498278
6.8608945E-4
6.88996E-4
2.609524E-4
0.0019902866
0.002145222
2.1783238E-4
-4.17612E-4
-0.0015634464
-0.002414385
-0.001032972
4.9053057E-4
0.0019454978
0.0019898033
9.1975427E-4
5.0420227E-4
-7.4261817E-4
-0.0010978716
4.4926244E-4
0.0012306776
2.1330785E-4
-9.4655424E-4
-5.9243245E-4
-4.0281613E-4
-9.2923356E-4
-0.0014028007
-0.0014427443
2.0576665E-5
8.906908E-4
6.195614E-4
6.4367004E-4
3.4957076E-4
-2.594377E-4
-0.0010731712
-5.5931526E-4
1.9202982E-4
-1.9177145E-4
7.536823E-4
8.3635154E-4
4.035813E-4
5.1259634E-4
-0.0012984484
-0.0010046605
-8.2793616E-4
-0.0024055874
7.4446347E-4
0.002559025
1.3410192E-4
-2.419241E-4
2.8035103E-4
8.4191473E-4
8.2207005E-4
3.4083292E-4
0.0010059602
4.804881E-4
-5.4413686E-4
-0.0011212766
-0.0012024874
-4.0889627E-4
-0.0013906743
-0.0010294982
0.00128739
-1.8792739E-4
-0.0013714385
9.0310135E-4
0.0017992961
0.0010379077
-1.9124377E-4
-0.0016953226
-0.001291885
0.0010025452
0.0021052645
-2.9304852E-6
-0.0021376782
-4.78412E-4
9.97174E-4
9.7500335E-5
7.8012346E-4
8.0505933E-4
-0.001067817
-0.0011307858
-8.495302E-4
1.9476863E-4
0.0021876148
0.0011438021
-6.0119265E-4
-9.924779E-4
-7.685778E-4
9.0547954E-4
0.0016150792
8.458924E-4
-1.6547432E-4
-9.264639E-4
6.0005677E-5
-1.1115994E-4
-0.001142103
-3.0070767E-4
-6.57805E-4
-7.411875E-5
0.0017280772
-1.4753311E-4
-0.0013550705
-2.9611195E-4
7.986358E-5
8.557053E-4
-4.8752755E-4
-0.0019752062
-6.5249286E-4
-9.867221E-4
-0.0017913649
-0.0010277554
-5.1492825E-6
0.0015464996
0.0020672788
0.0013719699
8.0698694E-4
9.869902E-4
5.33934E-4
-6.497311E-4
6.744348E-4
0.0010966756
1.5022708E-4
0.0016333217
9.5547625E-4
-8.4500795E-4
-4.208332E-4
-2.75226E-4
-3.6853948E-4
-0.0013116513
-0.0014293144
-6.269296E-4
-0.0014736474
-0.0015711077
-0.0015165402
-0.0016565167
-5.4317765E-4
5.8462296E-4
0.0015771363
0.002088342
0.002331175
0.0011282584
-2.1381427E-4
-4.5455206E-5
-8.722941E-4
1.9675848E-4
6.096341E-4
-3.9888185E-4
0.001971511
0.0010601595
-7.43492E-4
-0.0014956658
-0.0022568966
0.0032730745
0.003963999
0.0017750835
0.0020761848
-0.0029472532
4.9246417E-4
-2.995565E-4
-0.013141673