-9.002907E-4
-0.0011395998
6.467292E-4
9.2707074E-4
4.7236375E-5
0.0013359386
0.0013742673
0.0010858057
9.476679E-4
-0.0011991719
-0.0013387647
1.6379925E-4
4.2808036E-4
8.9972845E-4
8.400474E-4
4.950229E-4
1.3755109E-4
-9.730632E-4
-6.8670063E-4
-1.9003757E-5
3.854603E-4
0.0015014118
9.002009E-5
-0.002225755
-0.0014700707
6.465176E-4
0.0016257337
-4.3370377E-4
-0.0021681418
1.5261871E-4
0.0021244504
0.0024850422
0.0027202973
5.297012E-4
-0.0022900328
-0.0029359933
-0.0030238088
-0.002472141
-8.8944414E-4
4.358548E-5
0.0012728891
0.0017971756
1.5104568E-4
0.0010525078
0.00229122
-4.3254968E-4
-9.948373E-4
1.17610725E-4
-7.827955E-5
0.0013122628
0.00141321
2.855763E-4
-1.07440665E-5
-0.0012785104
-0.0011332845
-5.616815E-4
-9.408682E-4
4.3132072E-4
0.0011124151
8.280032E-4
0.0014998431
2.4109264E-4
-0.002575217
-0.0016449887
0.00214917
0.001114733
-0.0021221745
-0.0015951545
-0.0016203222
-7.957679E-4
0.0013641941
-6.6269765E-4
-0.0012504199
0.0013497047
0.0019079328
0.002257457
0.0023742237
0.0015161005
9.165241E-4
2.3674061E-4
-1.2108472E-4
-0.0012928908
-0.0025945713
-0.0015505869
3.3410752E-4
3.1547126E-4
-0.0011235495
-1.0948005E-4
0.0018866276
3.024094E-4
-0.0011617607
1.8519958E-4
0.0010254596
2.4828778E-4
-0.0013374642
-0.002491251
-0.0019406289
-1.393171E-4
5.6940917E-4
-1.8086862E-4
7.186752E-4
0.0025121695
0.0017415468
-1.6897611E-4
-7.1310304E-4
-9.520397E-4
-0.0010409539
2.7113603E-4
9.398457E-4
1.7245318E-4
2.0795983E-4
2.2563682E-4
-6.306469E-5
4.441807E-4
7.1808085E-4
5.0256285E-4
2.8024276E-4
4.5684664E-4
4.9558346E-4
-2.1093266E-4
-9.1036905E-5
6.462667E-4
3.569805E-4
-0.0012362766
-0.0021963883
-3.530231E-4
6.6880166E-4
-0.0011136272
-0.0016176712
-3.338739E-4
0.0011202917
0.0015165977
1.3712626E-4
-0.0010352853
-0.0011938515
2.5063055E-4
0.0014132208
-9.391391E-4
-0.001779822
8.637847E-6
-5.5731763E-4
-4.500022E-4
8.8024966E-4
5.6061655E-4
7.356567E-4
0.0012176593
0.001036217
4.2476787E-4
2.904634E-5
0.0012415351
0.0016178405
2.903411E-4
-6.6969346E-4
-6.710117E-4
3.1923538E-4
1.3345185E-4
-4.1760644E-4
6.82951E-4
7.124733E-4
-7.00265E-4
-0.002010308
-0.0014192251
3.8313298E-4
1.535411E-4
0.0011906545
0.002405684
-1.9012095E-4
-0.0016647584
-0.0011681799
-3.882682E-5
7.1396236E-4
-3.8822342E-4
8.1225147E-4
8.945979E-4
-0.0017283064
-8.4775017E-4
-5.984561E-4
-0.0016841005
-0.0011514873
-0.0018673262
-0.0014062953
3.9259935E-4
6.1996543E-4
3.0591068E-4
2.909245E-4
9.091179E-4
0.0011549253
0.0012554994
5.762691E-4
-0.0012505094
-1.2254053E-4
0.0016463907
5.952235E-4
1.519303E-4
0.0016161742
0.0023419235
-3.7898822E-4
-0.001982076
0.0011930299
0.0030137226
0.0022178243
0.0013752221
4.1226507E-4
-5.2545685E-4
-0.002367806
-0.0027277179
-7.826722E-4
3.1720023E-4
7.7797554E-4
2.7767397E-4
-0.0010154083
-0.00185539
-0.0025218306
-0.001194782
0.0014051968
0.0015851136
-4.0096758E-4
-0.0015642374
-0.001224268
-9.805176E-4
-3.9553028E-4
6.1326195E-5
-3.0498533E-4
8.498049E-4
0.0012383021
-6.42028E-4
-6.129886E-4
-3.2690726E-4
-0.0012318356
7.9210626E-4
0.0032746021
0.0015456801
-7.287283E-4
-4.0222364E-4
-5.339274E-4
-0.0014801727
-1.7699237E-4
0.002229215
0.0017358784
-3.1023775E-4
5.265617E-4
0.002122448
0.0018454553
0.0012831014
-8.559397E-4
-0.0033285497
-0.0022866996
-1.1707077E-4
6.05973E-4
4.4125697E-4
4.6406203E-5
8.585238E-4
0.0017343452
3.0836862E-4
-5.036667E-4
0.001144551
0.0010282212
-3.448725E-4
-7.4034976E-4
-0.0023638895
-0.0024073108
-8.7278173E-4
-0.00110106
4.871845E-4
0.0025503049
0.0017040147
-4.3243886E-4
-0.0013090114
7.8133575E-4
-3.063126E-4
-0.002775516
7.921005E-4
0.0015715202
-0.0014925092
-0.001080798
1.0798703E-4
8.700086E-5
-0.0024436887
-0.0033719987
1.03456245E-4
0.0011985211
0.0012077631
0.0020265447
0.0025326312
0.003887661
0.0026035642
4.692232E-4
-1.416321E-4
-0.0011799451
-0.0013485255
-0.0015067983
-8.4652536E-4
-4.4863689E-4
-0.0021193123
-7.4297725E-4
9.6094474E-4
1.613639E-4
0.001127457
0.0012894033
-2.1533221E-4
-1.5129904E-4
2.2859416E-4
-5.0219253E-4
-7.621116E-4
5.429105E-4
9.6118567E-4
-3.3822513E-4
-0.001003596
-4.0630813E-4
1.9936556E-4
-1.207014E-4
1.8073816E-4
9.2641084E-4
0.0010687413
0.0027244808
0.0025718682
-0.0015306608
-0.0023151666
-2.9105783E-4
-0.0012930881
-0.002020318
-0.0012856297
-9.292986E-4
3.116405E-4
-2.0071871E-4
-7.005673E-4
-2.4194267E-6
-0.0034595514
-0.0028927398
0.0030849602
0.0025051527
0.0012006959
0.0024654616
0.001608871
0.001784585
0.0016503654
0.0019321002
0.0017628447
-0.00120454
-9.844789E-4
-6.190796E-4
-8.2521565E-4
0.0017368755
5.576944E-4
-0.0015395322
-0.0022370247
-0.00352974
-6.681767E-4
1.7445395E-4
-0.0027396986
-5.3969934E-4
0.0020492028
0.0012964421
8.921248E-4
-8.18158E-4
-0.0026289583
-7.935041E-4
0.0011912908
-2.4024725E-4
-7.000771E-4
0.0013456541
6.8347855E-4
-0.0012813765
-1.5179154E-4
0.0015703441
0.0020867614
0.0019348864
6.8516034E-4
6.683896E-4
0.001937302
0.0014156213
4.976219E-4
-1.8256703E-4
-0.0016361799
-0.0025931168
-0.0022555504
5.0015363E-4
0.0021599692
-3.1886162E-4
-9.027079E-4
1.07485794E-4
-0.0011986665
-6.9585856E-4
0.001414318
0.0013031762
6.3669715E-5
-4.0751227E-5
3.300538E-4
-7.295604E-4
-0.0013886207
-8.0161734E-4
-6.8771123E-4
1.7766596E-4
0.0011299424
-6.480361E-4
-0.002453049
-3.00472E-4
0.0018379772
5.324507E-4
-1.16027855E-4
-7.6477526E-4
-0.001501601
0.0016586059
0.0028003396
1.8350637E-4
-8.588571E-4
-0.0023887001
-0.0024775313
5.4552365E-4
9.456869E-4
-6.2134786E-4
-8.534835E-4
-3.1255925E-4
1.621473E-4
2.9393734E-4
8.263823E-4
0.0013213609
0.0010636183
7.180168E-4
7.8792195E-4
0.001353534
0.001770308
0.0023781501
0.0023653558
1.7466552E-4
-9.419922E-4
-7.075085E-4
-0.0018297795
-0.0010881046
5.2666233E-4
-8.919489E-4
-0.0014417096
-1.1392056E-4
-6.013492E-5
-8.262827E-4
-5.70457E-4
0.00160723
0.0019224448
1.9886448E-4
8.709797E-4
2.441394E-6
-0.0017178874
-7.376955E-4
-0.0020876832
-0.001510592
0.0019539418
1.1662303E-4
-7.290059E-4
0.001586667
6.1978743E-4
-4.8645717E-4
-6.5143994E-4
1.7978608E-5
0.0026760735
0.0026176034
-0.0010267268
-0.0037671814
-0.0039393944
-0.004867585
-0.007219492
-0.0051827147
-7.9614087E-4
1.7589927E-4
7.808171E-4
0.0016204661
0.0016738718
0.0031540527
0.0032849265
0.0024840238
0.0053317877
0.006399636
0.0026107153
0.0016976001
0.0019429147
-0.0015659007
-0.0020737525
6.4850645E-4
5.168344E-4
1.9832097E-4
0.0022246197
0.004054923
0.0033867136
0.0023757624
0.0023773515
-0.0018865971
-0.006803332
-0.004806638
-0.0026800982
-0.004301526
-0.0039184294
-0.001464299
-8.292871E-4
-0.002007599
-0.0016690929
0.0010072001
0.00218494
-6.361739E-4
-0.002505806
4.0948595E-4
0.0028071394
0.0028075809
0.0018913626
4.2830863E-5
-1.8921665E-4
-7.077671E-4
-0.0015546511
-9.474951E-4
-0.0014885317
-0.0013061266
-0.002198125
-0.0033332407
9.9489494E-5
0.0017811406
0.0016413992
0.0011551188
-2.9374688E-4
0.0031562424
0.00492972
0.0030762034
0.003458803
0.002349155
0.002449634
0.0020445408
-0.002994216
-0.0056115133
-0.0048172176
-0.0029622542
-0.0012847838
0.0016278399
0.0058192397
0.004930918
0.0034662322
0.0029256707
-0.0020810834
-0.004282276
-0.0034161042
-0.0055124615
-0.0060521397
-0.003050734
-0.0011752419
-0.0018533302
-0.0026447512
-0.002782656
-6.0731533E-4
0.004427676
0.0077071995
0.007094513
0.005120128
0.0050278
0.0047712205
0.0027768945
0.0013669033
-0.0025362107
-0.0050172857
-0.0027926755
-0.0029767798
-0.0029874141
-0.0027244594
-0.0034863895
1.7484048E-4
0.0019500729
-3.2633793E-4
-4.7219783E-4
-6.921807E-4
-0.0029260314
-0.0037318387
-0.001997803
-0.0025800138
-0.0034238473
-9.4033004E-4
0.0019440342
0.006816828
0.00613106
-7.884111E-4
8.9127134E-4
0.00437212
0.0018709333
4.587748E-4
0.0019977738
0.0034521988
0.0014460088
0.0029843047
0.00617958
6.975622E-4
-0.004064452
-0.0055552837
-0.0063042175
-0.0028308178
-0.003057835
-0.006172724
-0.0058044614
-0.0028357618
7.9840614E-4
2.8840353E-4
-1.6050508E-4
0.0012732646
0.0010724467
0.003385727
0.0039010472
0.0024062674
0.004591048
0.0037844614
8.2839886E-4
4.5921217E-4
6.0024435E-5
8.363178E-4
0.0017969902
8.776312E-4
0.0020973035
0.0060585476
0.005083918
-0.002820385
-0.007102706
-0.004376873
-0.0021503808
-0.0030818833
-0.0046509425
-0.0036440666
-0.002021077
-0.0031309065
-0.0024458768
-1.12708396E-4
-0.0012170961
-0.0020143846
0.0011084061
0.0052613243
0.006972416
0.005082162
0.0016534943
-2.940978E-4
4.0216852E-4
0.0014453146
0.0016880416
0.0011857192
-0.0016046396
-0.0014607168
0.002081867
2.7304958E-4
-0.0024022276
-8.491354E-4
-1.0131125E-4
3.9507094E-4
0.0014350748
0.0016184659
2.9046423E-4
-0.0031884308
-0.005048002
-0.0047776056
-0.0052213366
-0.0039387625
7.2200684E-4
0.0034509648
0.001789082
0.0024236434
0.004352244
0.002331203
8.046057E-4
-0.0013959509
-0.0048641185
-0.004408977
-0.0035258778
-9.6641295E-4
0.0035882166
0.0013065952
-9.212837E-4
0.0048820716
0.0082268035
0.0055300025
0.0029595192
7.522026E-5
-0.0035768282
-0.0052076937
-0.0038931754
-6.2229426E-4
0.0024131348
0.0057300474
0.009445677
0.011968244
0.011995051
0.0029155235
-0.010836291
-0.014037108
-0.009387711
-0.0054889442
-0.0035825495
-0.0037454148
-0.0024818259
6.648966E-4
0.004812907
0.0061572366
4.875309E-4
-0.003652638
-0.004033412
-0.004558689
-0.0035797379
-0.0040235156
-0.002646511
6.2288466E-4
-0.0013070946
-0.0020543127
-6.918101E-4
-0.0020525488
-0.0010093038
0.002787731
0.0053934385
0.005333948
0.0037215955
0.0025108822
0.0015069732
0.0011957762
4.7513354E-4
7.321239E-4
0.0031364793
0.0030335449
0.0013275958
-3.4946305E-4
-0.00199474
-4.8012004E-4
0.0018288266
0.0029820406
0.0045310953
0.006291906
0.0065914984
0.0027968972
-0.0018364857
-0.003852006
-0.006346159
-0.0100694215
-0.009826227
-0.004748072
-0.004229958
-0.0051518055
2.9951878E-4
9.736853E-4
2.3882336E-4
0.005872909
0.005781588
0.0035297829
0.0032814734
-0.0013796968
-0.0034164244
-0.0020250254
-0.0017795189
-0.0015678229
-0.002830641
-0.0025734387
4.947408E-4
0.002716425
0.0030355435
0.0012812653
4.522219E-4
0.00219374
0.0015226576
-0.0038075338
-0.0065504676
-0.0036828131
-8.406919E-4
0.0031828766
0.0076414673
0.00866168
0.01007344
0.0102812555
0.0077685104
0.0041022394
-0.001976885
-0.0063612605
-0.009864845
-0.012626313
-0.009255072
-0.005236751
-0.0034130844
-0.0016308811
-0.0013281392
-1.120306E-4
0.0017808496
0.001671114
-7.2986475E-4
-0.004824704
-0.007939479
-0.007842296
-0.005039735
-0.0042411033
-0.002941248
0.0060804756
0.016194534
0.020469733
0.018038763
0.01122848
0.007492601
0.004413484
0.00107738
9.3401433E-4
-0.0018733875
-0.005286384
-0.0055791526
-0.004999975
-0.0026469196
-0.0019208952
-0.0030980343
-0.005077803
-0.008905911
-0.0090775965
-0.0073788986
-0.007313034
-0.005317247
-0.0032499798
-0.0018511344
0.0012977762
0.005310931
0.007166315
0.005489878
0.0028183723
7.385655E-4
0.0019404467
0.0054199263
0.006510544
0.006447865
0.0037042082
0.0022346398
0.0064927964
0.007184691
0.007718837
0.009564803
0.0015876502
-0.006653947
-0.00786163
-0.009145815
-0.0099967765
-0.012261675
-0.017831733
-0.02076234
-0.02005264
-0.02000843
-0.017456494
-0.009429189
-0.0024128773
0.005322621
0.016070897
0.019384963
0.013914642
0.0070801475
0.00252503
0.0016592054
0.0049015577
0.009901071
0.0096826535
0.008072762
0.013041463
0.018257324
0.022054926
0.024354892
0.016528456
0.005155493
0.0055826674
0.011243334
0.0059964056
-0.0018677572
-7.712882E-4
-0.0031710523
-0.014741922
-0.02552727
-0.030381551
-0.029737921
-0.026206741
-0.022892082
-0.02226531
-0.02023206
-0.014294954
-0.009645166
-0.0051085795
-0.0033717055
-0.004470849
8.453352E-4
0.00528603
0.0043393467
0.0014207262
-0.0025413805
0.002745936
0.009210659
0.009068721
0.017074196
0.029766364
0.042334978
0.052365284
0.049723234
0.044828888
0.03443558
0.008677811
-0.013526137
-0.031337526
-0.044981096
-0.039679725
-0.029252531
-0.016254392
0.0052761836
0.011169532
7.7547174E-4
-0.007348271
-0.011776808
-0.012206815
-0.015725657
-0.030865846
-0.0569437
-0.082144454
-0.084982
-0.06848384
-0.045078248
-0.009873342
0.033495486
0.07724324
0.114195205
0.13037446
0.1260278
0.11425216
0.090368964
0.044943698
0.009525401
0.007309674
-0.0014366865
-0.035140824
-0.05621965
-0.04912466
-0.033885133
-0.010352591
0.033173315
0.06256927
0.05009675
0.01618033
-0.038000394
-0.10727932
-0.15975302
-0.17169522
-0.12551846
-0.06466201
-0.04078822
-0.024949508
-0.006820112
5.3751306E-4
-0.0033080578
-0.025621181
-0.028718008
0.012982855
0.07458018
0.12765503
0.14093061
0.12622769
0.10377288
0.06868453
0.039711885
0.027483128
0.02206211
-0.021455325
-0.108909085
-0.13819098
-0.081983365
0.0015140494
0.080692045
0.12509382
0.1438463
0.13842197
0.057912424
-0.08198146
-0.16594067
-0.13834131
-0.09228278
-0.072536714
-0.044386555
5.4822775E-4
0.07199519
0.08958659
0.046017487
0.07059467
0.10899439
0.0745781
-0.016749822
-0.11721088
-0.10918985
-0.038317546
-0.028617581
-0.057650898
-0.089534655
-0.08713361
-0.0706955
-0.068468146
-0.03515142
-0.016407968
-0.03390173
-0.0382752
-0.03301357
-0.011008288
0.03568672
0.1131294
0.171324
0.12925516
0.044133764
-0.018972965
-0.04186664
0.018775746
0.12388752
0.17531642
0.12949859
0.060015433
0.047541264
0.037578773
-0.0013709456
-0.023118628
-0.0075525823
0.035170216
0.036824115
-0.040659644
-0.14718431
-0.2373362
-0.24736392
-0.15243514
-0.05657282
-0.025535615
-0.01123396
0.010649508
0.022682987
0.029517895
0.035708964
0.028241092
0.015625127
0.018873136
0.03319383
0.043278143
0.037821453
0.030571068
0.04503834
0.049963575
0.03453645
0.032784283
0.018057773
-0.014966942
-0.020682825
-0.011385781
-0.0054374393
-4.1000138E-4
-0.005961248
-0.017446533
-0.027667373
-0.029030638
-0.019896913
-0.016114008
-0.016611094
-0.015141111
-0.014360601
-0.0064737024
0.008117128
0.022049613
0.0400311
0.0530884
0.042901196
0.018118108
4.7738326E-4
-5.116432E-4
0.0050223265
0.0023027465
-0.0030452502
-0.008432158
-0.018169923
-0.021617651
-0.02021679
-0.022710953
-0.023131458
-0.019803625
-0.015137029
-0.010178909
-0.0042226594
0.0034434288
0.0070403423
0.007891857
0.0107471645
0.014176991
0.01783054
0.017237555
0.011671881
0.008031009
0.0056079915
0.0030824663
0.0025844686
0.0021990412
5.362403E-4
-0.0016834838
-0.0029992948
-0.0026855676
-0.0037678594
-0.006382651
-0.006035067
-0.0037014973
-0.0028843193
-0.002394379
-0.0021897457
-0.003630953
-0.004484251
-0.0031110821
-0.002190521
-0.0023360946
-0.0017723329
-2.507509E-4
0.0019902703
0.002180284
0.0014456899
0.0028616576
0.002626632
0.0018958595
0.002850167
0.001614417
4.4195843E-4
0.0020741033
0.0033715977
0.0019790244
6.688763E-4
0.0029953476
0.004429544
0.00321905
0.0037576826
0.0039245067
7.635023E-4
-0.0027846883
-0.0031638436
-0.0016324392
-0.0010026287
-5.435884E-4
5.1777036E-4
0.002012177
9.099648E-4
-0.0037272845
-0.006634399
-0.006689308
-0.0032889727
4.815964E-4
-0.0019811469
-0.0029733095
-0.0014000011
-0.0051857475
-0.005212777
-2.8891725E-4
-6.320753E-4
-0.0013134063
5.5468903E-4
-3.2008384E-4
-0.0011898818
-8.4220036E-4
-0.0021417101
-0.0015281172
0.0013303251
0.0023931055
0.003822588
0.00542881
0.00440225
0.0025040258
5.800029E-4
-5.17511E-4
-2.7482328E-4
7.225994E-4
0.0037305083
0.005842373
0.004638543
0.0034509357
0.0019190888
-0.0016267308
-0.003806034
-0.0016653745
0.0023356276
0.002890565
1.6443682E-4
-0.0013453378
-0.0020105254
-0.0025592458
-0.0011443598
-5.676817E-4
-0.0013470742
2.2056908E-4
0.0013679083
-3.8749867E-4
-0.0024858974
-0.0030133717
-0.0017820891
-0.0014118685
-0.0013594676
-6.193402E-5
-2.7998956E-4
-2.3989419E-4
-3.973302E-4
-0.002541027
-0.001398968
-4.920685E-4
-0.0025043844
-0.0010495542
5.4684957E-4
1.7187836E-4
0.0011145782
-5.336826E-6
-0.0018370078
4.6992936E-5
0.0019962883
0.0019129704
0.0021360533
0.0011725156
-8.507891E-4
-4.204413E-4
0.0013790131
0.003530043
0.003913982
5.845853E-4
2.6565517E-4
0.0019105555
-2.0110884E-4
-7.7658077E-4
3.8058867E-4
2.4271221E-4
3.351447E-4
-5.852611E-4
-0.0017271399
-0.002289832
-0.002663113
-0.0015401323
-7.6202373E-4
-0.001389441
-0.0018656208
-0.0016643293
-0.0011011629
-5.690494E-4
4.6764367E-4
0.0015461384
0.0018666664
7.334241E-4
-0.001014679
-8.7860724E-5
4.2595633E-4
-9.78495E-4
5.558761E-4
5.851949E-4
-0.0013446559
0.0021105597
0.003924369
1.8134243E-4
-4.075443E-4
0.001502274
0.001195196
-5.3462596E-4
-8.9570216E-4
1.3132999E-4
-0.001169921
-6.158424E-4
0.0027720963
4.6672058E-4
-0.0024220268
-0.001358913
-0.0019322993
-8.519119E-4
8.984069E-4
-9.371807E-4
-6.187417E-4
0.0017887612
0.0012210504
-0.0015484747
-0.0028854765
-0.001307282
-2.1345545E-4
-0.0010083559
-0.0020311514
-0.0028156852
-7.611794E-4
0.0033604046
0.0036479325
0.0013971598
0.0014650145
0.0011565584
-0.0013929523
-0.0021648204
-2.7843303E-4
0.0010054682
0.0010254992
0.002106088
0.0027752952
0.0014583049
0.001541931
0.0016920618
-0.001000473
-0.0030762127
-0.001547862
0.0013571387
0.0011756446
-2.2762976E-4
2.6402487E-5
-0.001177995
-0.003229514
-0.0038448765
-0.0016698601
9.0093276E-4
-8.963978E-4
-9.4592635E-4
0.0010426125
-1.0398023E-4
1.0087739E-4
-0.0010001112
-0.0023088462
6.6287006E-4
5.351237E-4
-7.5136183E-4
2.9525276E-5
-2.6413935E-4
3.016141E-4
-2.2975255E-4
-0.0014708859
-5.8116036E-4
6.2453235E-4
0.0016412159
0.001263013
3.8950605E-4
0.001010621
0.0024859041
0.002861931
1.7722177E-4
-5.1008136E-4
0.00193773
0.0015486917
2.2736931E-4
-2.5882345E-4
-8.178119E-4
1.6153572E-5
-2.5833497E-5
-0.0017619017
-0.0015824409
-2.7670714E-4
-0.0011945199
-8.0721226E-4
0.0016261468
9.765703E-4
1.3604788E-4
-3.5333005E-4
-0.0018124515
7.6604825E-5
7.214074E-4
-8.370753E-4
4.386129E-4
-2.5755191E-5
-0.0020874073
-0.0024633855
-0.002213027
-5.5438286E-5
0.002203609
0.0027585106
0.0028439383
0.002248048
0.0019335003
0.0020348767
0.0012062363
-9.056844E-4
-0.0027059207
-0.0018374095
-0.0015371083
-0.0031161194
-9.7616797E-4
0.0014378435
-9.769287E-4
-0.0012711606
0.001200814
9.05673E-4
-3.043567E-4
-0.0011501213
-6.947283E-4
8.997491E-4
1.0066212E-4
-7.6896005E-4
4.8890655E-5
1.1186874E-4
-5.180259E-4
-5.541046E-4
9.821063E-4
0.0022152534
0.002863981
0.0034976723
0.0010417787
-5.5059016E-4
0.0015280781
0.0017474933
-1.1811332E-4
-0.0016734859
-0.0016244395
-7.3646073E-4
-0.0012842164
-0.0011221091
-2.5931513E-4
2.848397E-4
6.187193E-4
-3.7969963E-4
-6.84116E-4
-0.0016754429
-0.0031979487
-6.916347E-4
0.0020593794
0.0019827243
-6.297049E-5
-0.0029985716
-0.0027992798
-9.7047817E-4
7.390655E-4
0.002579293
0.0010480649
-5.0099223E-4
8.9128903E-4
3.21349E-4
-5.3912116E-4
0.0019402531
0.0030188411
5.7505746E-5
-0.001948586
-5.107104E-4
6.032135E-4
-3.7751143E-4
-0.0017206769
-0.0019220032
3.9925703E-4
0.002092456
1.6415353E-4
1.3695545E-4
0.0017659946
1.4458997E-4
6.099986E-4
0.0026001614
5.1841844E-4
-1.6034459E-4
0.0013063797
6.291162E-5
-0.0018270579
-0.0020547903
-5.8635155E-4
2.4595697E-4
-0.0012092534
-0.001968384
-0.001145435
-4.5943042E-4
-5.0448E-4
-2.3916044E-4
0.0011907028
0.0013025486
-6.043889E-5
-4.4691616E-5
2.2600987E-4
-5.130481E-4
-6.1780977E-4
-5.301917E-4
-9.5282233E-4
-1.3559632E-4
3.6466873E-4
-6.1576633E-4
3.429387E-6
0.0010019187
0.0016169912
0.0028972947
0.0018570869
7.328241E-4
7.782181E-4
-9.232301E-4
-7.0644467E-4
-5.326239E-5
-0.0019083625
-0.0014482583
-3.2971014E-4
1.9526106E-4
0.0019426337
9.046334E-4
-9.93325E-4
-3.149787E-4
4.202814E-4
0.0010373121
9.3497173E-4
-2.3367163E-4
-9.1680157E-4
-8.5171976E-4
1.5482375E-4
-2.4079155E-4
-0.0018062799
-0.0014094337
-0.0015211834
-0.0018905869
-4.1027367E-4
-1.6602302E-4
-4.3011538E-4
3.3667136E-4
6.829745E-4
0.0013302865
0.001708872
0.001352832
9.025376E-4
-6.606488E-4
-0.0012225865
0.0010676419
0.0027081168
0.002355333
0.001669121
2.5409693E-4
-6.791681E-4
1.9372819E-4
3.2844974E-7
-2.4192015E-4
0.0013667032
9.0816873E-4
3.1908645E-4
5.362881E-4
-0.0029735346
-0.003251409
6.9103605E-4
-0.0014961377
-0.004366468
-0.0015180203
8.7000715E-4
9.17309E-4
9.1523994E-5
-4.421968E-4
7.220095E-4
0.001606455
3.930393E-4
-9.184615E-4
-2.2316102E-5
8.942058E-4
8.300792E-4
0.0017622018
0.0013575831
-5.939153E-4
-0.0014137438
-0.0018748803
-0.0016629309
-9.319675E-4
1.7078767E-4
0.0019305126
0.0015272407
-2.5074143E-4
-0.0014581505
-0.0011543108
0.0010772158
4.0510876E-4
-8.727085E-4
8.071994E-4
2.4579556E-4
-1.1319206E-4
8.7466947E-4
-1.6390289E-4
7.7904994E-4
0.0021591873
0.0012335826
-1.523331E-4
-0.0017651574
-3.431223E-4
0.0011459705
-5.904575E-4
-1.7912406E-4
1.4977725E-4
-8.56849E-4
4.6042664E-4
0.0013175742
0.001196663
6.296785E-4
-5.4497836E-4
-4.4487946E-4
-6.8920426E-4
-0.0023401044
-0.0037650643
-0.001921183
0.0018830916
0.0013364366
-3.9446075E-4
6.5113115E-4
0.00134345
0.0016717892
4.981069E-4
-0.001399263
-7.29019E-4
3.2228936E-4
7.589949E-4
0.0010768133
8.0836774E-4
-5.013516E-4
-0.0021791765
-0.00156181
-0.0011275979
-0.0019357516
-8.863161E-4
1.4415175E-4
9.7063166E-4
0.0019744597
0.0017525237
0.0010012329
-4.5825288E-4
-5.643737E-4
-3.069054E-5
-7.676094E-4
6.5418694E-4
0.0019802544
7.565521E-4
-6.5103035E-5
1.0874226E-4
8.921515E-4
5.773219E-4
-0.0010374155
-0.0019017119
-7.619815E-4
0.0015834708
0.0010312267
-4.3946027E-4
3.354946E-4
8.105172E-4
0.0014939173
9.903689E-4
-0.0012222455
-0.0017151686
-0.0010680231
-1.1792979E-4
-8.149315E-4
-0.0021186427
-6.43963E-4
5.9978524E-4
0.0020436065
0.0026527192
-6.602214E-4
-0.001568124
3.580329E-4
1.26548E-4
-0.001156454
-0.0024497332
-0.0022173307
4.4330212E-4
0.0023404
0.0013567745
-1.13409485E-4
-0.0012017258
-0.002822018
-0.0016976565
1.12081325E-4
-4.910528E-4
0.0012200609
0.0030231955
0.0019259037
0.0016672787
0.002111489
0.0017072698
1.9552663E-5
-5.2160677E-4
9.961515E-4
8.77045E-4
9.175277E-5
-5.441182E-4
-7.7165494E-4
6.6591066E-4
4.0415616E-4
-0.001150471
-0.0016686587
-0.0010537254
5.3004903E-4
6.826861E-4
4.4282558E-4
5.618831E-5
-0.0010174202
-6.3202553E-4
-0.002052113
-0.004381223
-0.0027453774
3.1187653E-4
0.0014718635
6.856771E-4
0.0011682721
0.0023593693
6.2357244E-4
-6.1373506E-4
-8.374241E-5
-2.2008507E-4
-8.498001E-4
-2.9593238E-4
0.0026383917
0.0024725115
-0.0014553957
-0.0017622823
8.7794877E-4
0.0028958088
0.003323348
0.0015857947
-0.0012668091
-0.0024120866
-4.6889167E-5
-1.7234132E-4
-0.0030607162
-0.0015178358
1.2678801E-4
-4.7638017E-4
-9.276858E-5
-5.34074E-4
-1.6357396E-4
9.92274E-4
7.610438E-4
8.065426E-5
-8.810907E-4
-2.6838841E-5
0.0016072629
0.0014651517
0.0012987615
0.0013193883
0.0011770191
7.56803E-5
-7.9594715E-4
-3.458676E-4
-0.0013888911
-0.0011703791
4.0471533E-4
7.814806E-4
0.0021283075
0.0011599781
7.5379846E-4
0.0025259035
-0.0018669532
-0.005948072
-0.004222288
-0.001400118
2.7378884E-4
-0.003138878
-0.0036868413
0.0022582286
0.0023496936
-6.047573E-4
-4.2982935E-4
-1.4783132E-4
1.2750278E-4
7.134532E-4
0.0022408024
0.001878717
3.302512E-4
0.0013053837
6.9375825E-4
7.1768917E-4
0.0018056905
-4.4726997E-4
-4.8500305E-4
6.7511265E-4
0.001068101
0.0023908757
3.302628E-4
1.5508408E-4
0.002672424
4.179742E-4
-0.0021680514
-0.0025177593
-0.001720944
-7.635827E-4
-9.832798E-4
8.386007E-4
9.775456E-4
-0.001112479
-3.094793E-4
-8.874638E-4
-0.0013118848
3.7972655E-4
-3.1489745E-4
-1.0720213E-4
8.717847E-4
7.29478E-5
-4.50089E-4
-0.0017836306
-0.002604567
-0.0014126227
2.1256086E-4
0.001660752
0.0015870995
0.0011717561
9.5425796E-4
5.403236E-4
0.0016767546
7.4351585E-4
-0.0026426138
-0.002540951
-3.377892E-4
0.0010519789
0.0020726204
0.0019492779
4.9356435E-4
-0.0012188854
-2.6797174E-4
0.002554658
0.0014382419
-0.00206663
-0.0023312715
-8.711787E-4
-9.430908E-4
-0.0012279095
-1.0322081E-4
6.019557E-4
7.720776E-4
0.0019956157
9.110596E-4
-0.0024975252
-0.002132762
2.3666266E-4
9.6757134E-4
0.0019641342
7.161611E-4
-0.0024221693
-0.001292873
0.0016748549
0.0026073754
0.002185297
-6.7343627E-4
-0.0025263513
-2.2431934E-4
0.001687564
0.0015616432
9.653798E-4
-8.456196E-5
-6.0299045E-4
-4.2909238E-4
-3.7710296E-4
-6.038946E-4
-0.0010607336
-0.0012828002
-0.0010718813
-1.6312844E-4
0.0011373705
9.80132E-4
-2.9307092E-4
-0.0010156424
-0.0017831486
-0.0014178175
7.8470603E-4
6.6522346E-4
-0.0014565884
-9.650431E-4
9.7457523E-4
0.0019345853
0.0015286637
-7.09867E-4
-0.0017781663
3.9742028E-4
0.002310503
0.0014268432
-8.0319087E-4
-0.0010695404
9.0615766E-4
0.001199997
3.9423106E-4
9.00675E-4
3.1934143E-4
-7.716248E-4
-2.9819712E-4
-7.487158E-4
-0.0012639733
7.536581E-4
0.0013648333
-0.00112952
-0.0020131068
-8.185385E-4
-1.860122E-4
8.0146827E-4
0.0027966597
0.003396317
7.8521017E-4
-0.0020021677
-0.00214575
-0.0013626949
4.475237E-5
0.0011559665
2.45272E-4
-0.0010224339
-0.0016998092
-5.3163787E-4
7.3435623E-4
-0.0010964272
-0.0012879804
5.796877E-4
2.2611751E-4
2.6675643E-4
8.605329E-4
1.8946854E-4
3.939451E-4
0.0015112539
0.0012806036
8.7903325E-5
4.933281E-5
1.2403231E-5
-8.4310275E-4
-9.3636755E-4
-1.7738017E-5
0.0016305143
0.0011831004
-5.687954E-4
4.1667727E-4
9.75617E-4
3.0112863E-4
-5.2825426E-4
-0.0020383315
-0.001578549
-0.0015676409
-0.0012693851
8.177719E-4
-2.272325E-4
-4.2031874E-4
-2.6940444E-4
-0.0026400273
-7.6564663E-4
0.00119101
8.128692E-4
0.0021188136
0.0015244068
3.3185576E-4
2.3005555E-4
9.532774E-4
0.0016528784
3.054272E-4
0.0015436392
0.0017431218
-0.0017101001
-0.0011423052
4.6440243E-4
8.5609057E-4
4.3760636E-4
-0.0016463074
-1.8552129E-4
0.0013442477
6.8468077E-4
0.0014963433
4.6480112E-4
-0.0023840175
-0.004193823
-0.0022886195
0.0011416359
-4.4545377E-6
-0.001322452
-1.3806831E-4
8.8446704E-4
6.0293958E-5
-0.002736545
-0.0010982795
8.9270255E-4
-8.395571E-4
0.0014104145
0.0021281906
-8.489117E-4
-8.4228854E-4
-0.001133048
-6.6405634E-4
0.001524371
0.0020414977
0.0014421211
-6.98555E-4
-0.0014241063
2.0676055E-4
7.162181E-4
9.75993E-4
6.497183E-4
-7.22041E-5
5.835871E-4
0.0011227464
0.0012314135
0.001975281
0.0021219533
-6.658965E-4
-0.0025998412
1.4970191E-4
0.0016123371
3.2425844E-4
2.2704063E-4
-3.1087868E-4
-0.0012599201
-0.0014035201
-0.0010901586
1.4332627E-4
-4.0811888E-4
-0.002046376
-5.913536E-4
-5.1992858E-5
-0.0010895288
0.0010749813
4.435107E-4
-0.0038067854
-0.0028933892
-2.4579678E-4
-3.4643212E-4
8.6137916E-5
7.929853E-4
5.877671E-4
-6.584898E-5
1.2200687E-4
0.0013895062
0.0020521963
0.0015562961
1.7260625E-5
2.0081681E-4
0.002055859
0.0013317537
-2.4491598E-4
-4.299384E-4
-4.1082316E-5
5.0455506E-4
7.265625E-4
0.0013902168
0.0013060364
5.367047E-4
2.459033E-4
-9.2757907E-4
-9.014272E-4
-4.2475233E-4