-9.7209326E-4
-0.0029793296
-8.26836E-4
0.0023608846
0.003105072
0.0011590812
-0.0019276452
-0.001870963
-5.3573976E-4
-0.0011437496
-6.179455E-4
0.0012153768
0.0016614371
4.5102302E-4
-5.9132275E-5
7.1361015E-4
-1.9081013E-4
-0.0010757835
3.1690812E-4
0.0014408426
0.0018064692
0.0010774261
-2.6133092E-4
5.521689E-4
0.0019995992
0.0023307777
0.001701992
-6.8399415E-4
-0.0026113486
-0.002691784
-0.0025448285
-0.0011167655
0.0014079341
0.0020883572
2.5934924E-4
-0.002401596
-0.0026094604
-3.761562E-4
-9.7474264E-4
-0.0038202885
-0.0032599773
-5.5242947E-4
0.001027946
0.0013537667
4.4406584E-4
6.161655E-4
0.0016531863
5.3628976E-4
-1.1737352E-4
7.966123E-4
0.0010881132
0.0015586183
0.0012283927
1.460697E-4
8.2646735E-4
0.0015539529
1.3562645E-4
-0.001328847
-3.0493757E-4
8.7085E-4
7.0638827E-4
0.0010549589
-3.7124284E-4
-0.0023934988
-0.0015584644
-6.8140344E-4
6.81495E-4
0.0018733891
-2.4051039E-4
-0.002324054
-0.002394338
3.7617175E-4
0.00413603
0.002762089
-4.0386498E-4
-5.874563E-4
-1.8498869E-4
2.5683007E-4
4.6388712E-4
2.9100393E-4
1.405999E-4
-0.0011019938
-0.0015600441
-1.5605857E-4
7.890509E-4
8.5843576E-4
-2.2804817E-4
-0.0016829238
-8.540363E-4
-1.9656183E-5
-0.0015867153
-0.0026596242
-0.0013909207
8.248447E-4
6.9146993E-4
-9.6340314E-4
2.0046413E-4
9.09665E-4
-6.898699E-4
-5.905121E-4
-7.8664586E-4
-3.0611124E-4
0.002656156
0.0021221214
8.0231874E-4
0.0016858286
-6.827813E-4
-0.0015244903
0.0012525981
5.324543E-4
-3.179196E-4
8.2013116E-4
-2.1789909E-5
-5.8375095E-4
-2.1345678E-4
6.9065974E-4
0.0021897506
6.566742E-4
-0.0011120455
3.010783E-4
0.0011062991
5.582029E-4
-3.578413E-4
-0.0010208583
-8.1085623E-4
-0.0010888452
-2.955148E-4
0.0012009625
9.870558E-4
9.7302324E-4
4.6384145E-4
-9.145769E-4
-7.774198E-4
-0.0011608794
-0.002293593
-0.0017286193
-6.811638E-4
-6.0707296E-4
-0.00110704
-6.4712E-4
4.3345615E-4
4.4087553E-4
0.0013839571
0.0018308487
-0.0012565393
-0.0020943154
-1.3968688E-4
-2.9671742E-4
5.758348E-4
8.3070004E-4
-0.0013848183
-2.320776E-4
0.0024546704
0.0032159986
0.0016411864
-9.3274703E-4
-1.7904809E-4
1.6564771E-4
-2.5480756E-4
0.0019838125
0.0014265061
-0.001203972
-0.0030232875
-0.0031121369
7.100316E-4
0.002734881
0.0021793155
0.0017497364
5.9204205E-4
5.6952116E-4
-9.286404E-4
-0.001500323
9.292478E-4
-2.0852104E-4
-9.350449E-4
-3.644877E-4
-0.0013541728
4.8195492E-4
1.2927392E-4
-0.0016352583
1.6232341E-4
-0.0017101632
-0.0036365055
-4.240316E-4
5.569139E-4
1.6995546E-4
0.0017510619
0.0014896403
1.2000758E-4
5.9205905E-4
4.7214344E-4
-7.1704824E-4
-7.09991E-4
-4.4942612E-4
8.051742E-4
0.0015799048
-7.001946E-4
-1.8712357E-4
0.0013994802
-9.028359E-4
-7.897584E-5
0.0012981459
-0.0015913394
-0.0011143254
8.083755E-4
3.0350432E-6
-3.0885794E-4
-0.001397147
-0.0015667521
-4.381008E-5
-3.646016E-4
5.71856E-4
0.0021621692
0.0012074589
9.6877443E-4
4.31407E-4
-7.364571E-4
0.0013173294
0.0023303
2.2841665E-4
0.0012001109
0.00285748
3.366283E-4
-0.0016886538
-0.0019787098
-0.002601959
-0.0017489019
-6.3656643E-4
3.3854478E-4
0.0014540704
5.1111914E-4
2.3114708E-5
3.212946E-4
-0.001003798
-0.0020771911
-0.0020659037
-5.811909E-4
1.8924745E-4
-7.169461E-4
2.7322661E-4
-3.2985772E-4
-5.275858E-4
0.004137841
0.0028316157
-0.0032192105
-0.0028150412
-9.0140395E-4
-5.0841575E-4
8.8392844E-4
0.0014107106
0.00132322
3.7844217E-4
-8.762805E-4
-3.889702E-4
8.361567E-5
1.5680106E-4
2.8075077E-4
-2.0554654E-4
1.4010367E-4
0.0010836975
0.0017036927
0.0018547028
-2.7597585E-5
-0.0014459098
-3.7416257E-4
-8.4796053E-4
-0.0016655134
7.4291E-4
0.002809654
0.0024212617
7.468972E-4
-0.0019304283
-0.0026068727
-3.5310703E-4
3.3552872E-4
-8.86703E-4
-5.982332E-4
-1.649459E-5
-3.8655935E-4
6.611019E-5
3.8719617E-4
-2.9564838E-4
-4.0570908E-4
7.274628E-4
0.0023260303
0.0018092083
1.7011614E-4
1.8421585E-4
-0.0012171039
-0.0031035754
-0.0015559956
2.980644E-4
9.091888E-4
0.0010101509
-4.2617865E-4
-0.0013922568
1.1760514E-5
0.0015350275
5.234424E-4
-0.001149712
-7.730161E-4
-3.9828886E-4
-0.0010664304
-0.0012840775
-0.0012967892
-7.336436E-4
5.9809245E-4
8.9445047E-4
6.3148723E-4
8.585873E-4
3.621986E-4
6.2950177E-4
0.0019444391
0.0013556811
-4.9435155E-5
-7.8334915E-4
-3.8836573E-4
6.948845E-4
4.1205387E-4
0.001023597
0.0011935489
-0.0010110061
-7.902779E-4
-3.8623286E-4
-0.0011156312
1.6107812E-4
6.5543246E-4
5.406159E-4
-1.6058465E-4
-6.8806845E-4
0.0020813586
0.0024016288
-8.643881E-5
3.6978757E-4
0.0010154695
-1.9722378E-4
-0.0020489248
-0.0028175288
-0.0015941914
-8.3768985E-4
-4.4694715E-4
1.4863341E-4
-7.040252E-4
-0.0019545008
-0.0014454626
5.3183397E-4
0.0016906356
6.970511E-4
-8.7081053E-4
-3.1533482E-4
9.33359E-4
1.5932486E-4
-2.0324762E-5
8.640563E-5
-0.0011379551
8.947689E-5
0.0011271526
-7.735784E-4
-0.0010306513
-3.9732768E-4
5.9871166E-4
0.0027520214
0.00267476
0.00232608
0.0026241401
0.0012324647
-3.5965237E-5
-0.0014946108
-0.0018031313
-1.19564764E-4
1.243896E-4
0.0010712798
0.0017709561
-2.9893138E-4
-8.914065E-4
-0.0010141006
-8.3622185E-4
8.572355E-4
4.6687896E-4
5.677773E-4
2.995557E-4
-0.0029806856
-0.0033147293
-0.0018385957
-0.0017053827
-0.0016217704
-0.0025830911
-0.0022369141
-1.8858208E-4
4.971081E-4
3.4517862E-4
9.0370723E-4
0.0013249943
-9.813274E-4
-0.0010449389
0.0031032718
0.0017035414
-0.0028514687
-0.0025232658
2.2487018E-5
0.002890735
0.0043383543
0.0030531895
0.0031683566
0.005977142
0.005490537
0.0011664884
7.001298E-4
6.692686E-4
-0.002243269
-0.0013784063
-4.927817E-4
-8.4121595E-4
9.1928657E-4
-6.845194E-4
-0.0029099856
-0.002187031
-0.0020739585
-0.0012579384
3.8742123E-4
3.5227326E-4
-0.0021456645
-0.0043843146
-0.0038886492
-0.0037727715
-0.0045891847
-0.004223264
-0.0026124055
-0.0018644491
-0.002826474
-0.0018505325
-7.2414207E-4
3.4042113E-4
0.0050508934
0.0068896697
0.0060589206
0.0077991905
0.007138511
0.0057443813
0.005828504
0.0033002729
0.0030815005
0.005536729
0.0025433425
-0.0019755794
-0.0047605047
-0.008474937
-0.0055891676
3.0489886E-4
-0.0024727148
-0.006179008
-0.0052014473
-0.0025926977
-8.5066294E-4
-0.0031211805
-0.002662463
0.0011328248
0.0011344417
-0.002059978
-0.0076465346
-0.0072289077
-6.0925853E-5
0.001261938
4.8355016E-4
0.001345478
0.002598944
0.007926891
0.011318901
0.010800424
0.009685948
0.0070710713
0.0063060815
0.0043843053
-0.0023713827
-0.0061817826
-0.0044483994
-0.0030108986
-0.0043685944
-0.004820995
-0.0018086918
-5.5706955E-4
-0.004168847
-0.005757587
-0.003310399
-0.0032871189
-0.003887085
-0.0025531866
-0.0031509264
-0.0035850871
-0.0020944285
-2.2660334E-4
0.0021903706
0.0045826086
0.006892414
0.004886069
-0.0017792674
-0.004111888
-0.0028909303
-0.0023023142
0.0015235217
0.0064718095
0.006224044
0.0040149484
0.004879192
0.0042679543
0.00311518
0.005764025
0.0020760014
-0.0062030987
-0.0056150714
-0.0042864345
-0.006553774
-0.0025747546
0.0015197864
4.03364E-4
0.0034263374
0.0070583993
5.665231E-4
-0.0076409066
-0.008104336
-0.0062789526
-0.0035326006
0.0013491255
0.0036899876
0.0043869046
0.00716292
0.009792869
0.008477702
0.0028838448
-0.0037588782
-0.007784175
-0.008673688
-0.0087348735
-0.0073215743
-0.0027299197
0.0024477977
0.0051430054
0.0039255214
0.0016086347
0.0010125522
1.3639191E-4
0.0016372362
0.0038046539
-0.001306039
-0.007474093
-0.0057570064
-4.2456976E-4
6.22867E-4
-0.0012272684
-6.001254E-4
-8.916567E-4
1.5768195E-4
0.0047199572
0.0047218087
0.00681433
0.012451245
0.00988387
0.005278741
0.002548197
-0.0012352457
-0.004266081
-0.008168514
-0.007075141
-0.0022679323
-0.0030562815
-0.00361028
-0.0033536607
-0.0056908973
-0.0053110495
-0.002759029
-1.1153722E-4
9.861739E-4
2.6643582E-4
0.0012785663
2.9997993E-4
-0.0028310518
-0.0017036193
5.692377E-4
-1.6531163E-4
-0.0018717448
-0.0021043923
-2.1582317E-4
0.0013373349
0.0018343661
0.0029231554
0.0054124687
0.008928616
0.010271165
0.009619037
0.009762172
0.008525044
0.0048500984
6.094673E-4
-0.0020600702
-0.002758883
-0.0049195997
-0.007102156
-0.0071360483
-0.008723524
-0.010045811
-0.007957708
-0.0047692643
-0.0024505
-0.0025701
-0.0025762976
-1.5669031E-4
2.4829878E-4
-0.0013593982
-0.0027114556
-0.0046865363
-0.0039834245
-0.0015702244
-0.001496113
-1.6283942E-4
0.0012030945
9.107458E-4
0.0042911475
0.008401802
0.011238728
0.014970722
0.015813202
0.015326044
0.013819919
0.008499431
0.0013238508
-0.009178022
-0.016640993
-0.01551313
-0.012840475
-0.007752496
-0.0033030536
-0.0045970893
-0.0040410524
-0.003645609
-0.0056470735
-0.0033852707
5.060628E-4
0.0024129846
0.0033837173
0.003983118
0.0050539463
0.00581906
0.0038040979
-2.9367584E-4
-0.0014646704
-1.8350761E-4
0.001147873
0.003344588
0.003405806
0.0024762945
0.0025591836
0.0016933132
0.0018687862
1.8754661E-4
-0.0038596338
-0.0046340683
-0.004867625
-0.0065834564
-0.008973217
-0.010457066
-0.007343955
-0.0026765864
0.0013826379
0.004175368
0.003431092
0.0032243119
0.004215665
0.0035544238
0.0038640047
0.005584697
0.007608009
0.01132732
0.013554989
0.01008164
0.006163243
0.0052199923
0.0023655884
-0.0018758236
-0.005218319
-0.008928571
-0.011973231
-0.011667165
-0.0076883375
-0.0040879915
-0.0011056543
7.7007146E-4
-0.0012118451
-1.110628E-4
0.0032614446
0.0027313048
0.003536681
0.0052273464
0.006157274
0.007289939
0.0064878915
0.0045933574
-0.0034129366
-0.017463416
-0.028699065
-0.0337568
-0.029669926
-0.020586709
-0.011163394
-0.0014418662
0.0035156521
0.0072190575
0.012053828
0.015586141
0.020030882
0.019455338
0.013822913
0.007737848
1.7366653E-4
-0.0017160614
0.0049335402
0.016469678
0.025433844
0.024360893
0.022880046
0.025462944
0.027276846
0.02585772
0.013706322
-0.002634717
-0.013473419
-0.021579701
-0.02441732
-0.027329126
-0.03778342
-0.045711614
-0.04244647
-0.032256473
-0.02368686
-0.016415946
-0.008480305
-0.0043027867
-3.6015394E-5
0.0055999625
0.007589374
0.009563377
0.011748838
0.012835826
0.0148848705
0.014700729
0.015568644
0.021398893
0.023454702
0.017840726
0.009624393
0.001942641
-0.003017823
-0.0050653014
-0.0063854773
-0.0070320624
-0.0059148837
-0.003906914
-0.0023386704
6.843934E-5
0.0033104077
0.0038955861
0.0023220023
0.0016122271
0.0012094881
-6.8808475E-4
-0.0041870046
-0.0066271946
-0.007077924
-0.006308671
-0.002761431
0.0026127188
0.0087155225
0.012773747
0.010411734
0.0075702686
0.0049096933
-0.0039621447
-0.012076795
-0.015106969
-0.013408832
-0.006137825
-0.0029627073
-0.004248322
-0.0023898582
-0.0018502269
-0.002171749
1.4993253E-4
0.0013870735
0.0020467327
0.0033690094
0.0048172288
0.008256804
0.012657591
0.016160144
0.018726207
0.017823992
0.011484168
2.901076E-4
-0.010329183
-0.013271527
-0.016937857
-0.025800262
-0.02431095
-0.014278903
-0.006652069
-0.0015915023
-0.0075208955
-0.017787205
-0.016836137
-0.014154801
-0.015582891
-0.016793357
-0.017637856
-0.014608245
-0.00709453
0.0030969647
0.014794665
0.025432914
0.034176733
0.04273956
0.050769128
0.0503499
0.042742856
0.033237226
0.01815063
0.010760925
0.019101523
0.027430508
0.026258202
0.010629328
-0.0072108847
-0.010612156
-0.011445748
-0.016580198
-0.024187326
-0.031585637
-0.030919569
-0.03466311
-0.04916132
-0.06283763
-0.06936817
-0.058015462
-0.035306882
-0.020676143
-0.014246819
-0.009529945
4.1475717E-4
0.009573226
0.010881466
0.015226117
0.016454466
0.016572956
0.032261677
0.04071523
0.030963661
0.028399924
0.030925997
0.026298366
0.027247159
0.03481249
0.029122537
0.018078929
0.018586926
0.014341316
0.004494111
0.004789347
0.0071167783
0.002820106
-0.013508359
-0.037857383
-0.050532084
-0.04606134
-0.029585646
-0.011357873
9.223999E-4
0.009871303
0.0105606625
0.008909778
0.012852175
0.004593576
-0.022555726
-0.048790596
-0.051734563
-0.03383416
-0.020416683
-0.013518275
-9.7041624E-4
0.014736439
0.03318468
0.045789216
0.039793357
0.02920938
0.02624997
0.024919195
0.02645221
0.01913485
-0.0118146995
-0.045643955
-0.06378328
-0.06239307
-0.042394154
-0.021745862
0.0011556654
0.02761919
0.03197898
0.025409587
0.032622796
0.038272463
0.031589217
0.025912445
0.02734
0.031213542
0.024626523
-0.009500606
-0.05200556
-0.0719339
-0.074521005
-0.05843148
-0.025253426
0.007135412
0.041080568
0.063580625
0.06241793
0.05601698
0.05242991
0.05151875
0.041170064
0.0018478609
-0.048726782
-0.06651483
-0.046609994
-0.030536173
-0.031668074
-0.03953029
-0.05646914
-0.07383959
-0.074833214
-0.04285267
0.005843152
0.04768972
0.09035491
0.097822875
0.06903789
0.058582176
0.0398898
0.011270395
0.004367861
-0.0140591515
-0.035794415
-0.043052856
-0.06420178
-0.08890443
-0.0818945
-0.036479753
0.0053740186
0.014680026
0.03480215
0.08369582
0.11981975
0.11542996
0.065988176
-0.015872914
-0.10089918
-0.1453177
-0.11617114
-0.050496075
-0.013408522
-0.0012109001
0.024155587
0.043356728
0.03499902
0.05271518
0.11027466
0.16966875
0.22558232
0.2142501
0.12505937
0.05561129
-0.04503012
-0.19957301
-0.26239213
-0.23937277
-0.22091413
-0.19832072
-0.14952543
-0.043733597
0.09902998
0.16777371
0.11773068
0.03520003
-0.019131146
-0.08386453
-0.14626454
-0.14519149
-0.09636054
-0.044402715
-0.002974142
0.06415598
0.17657062
0.2520308
0.25210243
0.23602141
0.19911115
0.10801738
0.0019319924
-0.08578081
-0.14191753
-0.1292426
-0.06864295
-0.046303112
-0.083918534
-0.10282862
-0.04673624
0.030322097
0.08658195
0.13693367
0.15168583
0.110879034
0.0126889525
-0.13594683
-0.2390939
-0.231083
-0.14910331
-0.06418409
-0.034106597
-0.0125135165
0.036833543
0.065353416
0.09581666
0.13109782
0.11076214
0.061800472
0.020892987
-0.024144495
-0.075768
-0.121951215
-0.1240964
-0.069412485
-0.020629965
-0.037058495
-0.0687339
-0.025218977
0.06797454
0.15775293
0.22799781
0.22394378
0.16344859
0.09601645
-0.0077923764
-0.09314987
-0.07376784
-0.0057352623
0.0067158104
-0.048787937
-0.083551176
-0.062707424
-0.036556784
-0.012855989
-0.00482645
-0.020080153
-0.0036150406
0.025340036
-0.0057662795
-0.07103943
-0.10291961
-0.09289813
-0.06325665
-0.0327639
-0.016369805
-0.0087445695
-1.8334514E-4
0.007975909
0.0196199
0.03212134
0.041790616
0.050338987
0.053475358
0.054937445
0.053429767
0.04126531
0.03136721
0.03134734
0.028878082
0.02166749
0.017672373
0.015676351
0.008780235
-0.0029161568
-0.01167223
-0.013951981
-0.016508069
-0.021060882
-0.021478532
-0.01891133
-0.017354459
-0.015976872
-0.0141300745
-0.013994124
-0.015519905
-0.0152312685
-0.01384158
-0.012479088
-0.009680876
-0.0064022243
-0.0034792197
-0.0022725456
-0.00176075
6.3934276E-4
0.003047591
0.0058151153
0.007480174
0.0054304563
0.0034966946
0.0011391225
-0.0018124747
-0.0023509357
-0.003276424
-0.0031315258
-9.200671E-4
-4.4630634E-4
0.0015671205
0.0056469473
0.0073988577
0.0071860487
0.0058608395
0.0058945194
0.008004026
0.008531644
0.007087841
0.0038712884
0.0012291131
0.0028599682
0.0051328395
0.0041066236
5.5478077E-4
-0.0012630727
0.0019424285
0.003466401
-4.4518645E-5
-0.0015581643
-0.0013332182
-0.0028339033
-0.0030912058
-0.0019223264
-0.00224828
-0.003397525
-0.002828523
-0.0022024603
-0.0025618079
-7.0986187E-4
1.4445366E-4
-0.0019174799
-0.0027168412
-0.0038841965
-0.0040437574
-0.0017936783
-0.0014136481
-2.2670162E-4
9.845606E-4
-3.9630648E-4
-4.1789364E-4
-5.8266596E-4
-1.5228103E-4
0.0010923595
-0.0015515372
-0.003498672
-0.0019972138
0.0018176235
0.0060226703
0.0023961726
-0.0046638534
-0.0054460187
-0.003010993
-1.4746521E-4
0.0013910135
0.0011884407
0.0021775314
0.0027349978
0.0024193889
0.0021519181
0.0014535513
0.0021227687
0.0024921764
7.349363E-4
1.9334397E-5
0.001232684
0.0021422785
0.0014381909
8.108914E-4
0.0010392064
4.387418E-4
0.0014031351
0.002927102
8.865627E-4
3.6090743E-4
0.0015840234
-2.0338992E-4
3.8918643E-4
0.0018390481
-0.0015589729
-0.003202252
-0.0023771313
-0.0032168713
-0.0016305156
3.4586538E-4
-0.001851468
-0.0025644498
2.1515295E-4
7.127689E-4
-0.0018848771
-0.0041377135
-0.0038448547
-0.0015178456
-7.2025304E-4
-0.0020826915
-0.0024766175
-0.0011768825
1.7310282E-4
2.311952E-4
-3.322851E-5
7.379123E-4
6.51939E-4
-0.0011795355
-0.0018500428
-2.4675517E-4
5.555359E-4
-7.884448E-5
7.356195E-4
0.0023845788
0.00347891
0.0036312658
0.002248132
0.002179102
0.0025901042
4.4156733E-4
-9.3976373E-4
-3.6560086E-4
-5.604652E-5
-5.4143666E-4
-9.7353087E-4
-1.7498013E-4
-9.219108E-5
-7.374577E-4
1.5738815E-4
3.2841472E-4
-0.0013431386
-0.0019427317
-3.5802484E-4
0.0010196717
6.4172794E-4
-7.5167033E-4
-0.0025167933
-0.0027587956
-0.0016017338
-0.0011542946
-3.901712E-4
6.59409E-4
3.936904E-4
-7.1522663E-4
-4.891694E-5
0.0011708249
-0.0015795539
-0.0024329587
0.0015662109
0.002958454
0.002563795
3.709327E-4
-0.0022731307
0.0010821351
0.0019506196
-0.0026475193
-0.0023955565
0.0013003657
0.002869538
0.0017073171
7.955301E-4
0.0018072511
0.001053006
-1.7907411E-4
-3.6906076E-4
-0.0012972382
-0.0015235444
-0.0011168992
-2.719152E-4
-5.5668464E-5
-0.0012780809
-8.0357486E-4
6.474961E-5
4.4007893E-4
0.0013733266
9.100297E-4
9.202476E-4
6.2947144E-4
-0.0014459873
-0.0018283954
-0.0023903765
-0.0033814409
-0.0027287279
-0.0012228976
0.0022631504
0.002808655
-4.843811E-4
-5.5746466E-4
2.860428E-4
7.712111E-4
8.2268676E-4
-0.0020986723
-0.002283478
1.4983016E-4
5.892246E-4
2.978257E-4
-4.31316E-4
9.266743E-4
0.0027587898
0.0015276332
0.001264666
0.0013740466
7.4943004E-4
0.001168972
7.864999E-4
6.9873955E-4
5.178563E-4
-0.0018280523
-0.0033122208
-0.0025409025
-0.0014100468
-2.1090455E-4
0.0013628158
7.4982597E-4
-0.0016147348
-0.0015788102
-0.0011875278
-0.0019267414
-0.0014296998
-2.140664E-4
0.0016077977
0.0020609556
-8.9289555E-5
-8.588363E-4
9.38965E-4
0.0028407737
0.0019043257
-6.34935E-4
-1.2391781E-4
0.0016040197
0.0016453569
9.76509E-4
-4.0366364E-4
-0.0011907986
-7.043093E-4
-5.292181E-4
-2.4145856E-4
8.14881E-4
0.0011398107
-3.2748337E-4
-0.0018356428
-0.0021847992
-0.0025371087
-0.0017049935
9.4894593E-4
0.0017622175
6.8930566E-4
1.754724E-4
-4.85003E-4
3.1411723E-4
0.0020170845
4.1857772E-4
-0.0011576954
-5.7248482E-5
2.578675E-6
-4.0501755E-4
6.164966E-5
3.7290028E-4
0.0010961996
0.0018157597
0.0013225614
-1.5803854E-4
-3.7045593E-4
0.0011836862
2.899953E-4
-0.002385177
-0.0019018567
-1.3128716E-4
6.7104655E-4
8.998062E-4
-6.21565E-4
-8.7022624E-4
3.6621213E-4
-8.5462345E-4
-6.5541035E-4
5.960471E-4
-6.314228E-4
6.154979E-5
5.6924194E-4
-7.140585E-4
3.6030973E-4
4.4185683E-4
-3.015439E-4
3.0209575E-4
-1.5162867E-4
-8.232548E-4
-0.0021888432
-0.0014592004
0.0024190827
0.001762408
-7.8236975E-4
9.431805E-5
9.056031E-4
8.344464E-4
-1.614488E-5
-7.4275123E-4
-5.036052E-4
-9.842761E-5
0.0013525707
0.0013996986
1.7392254E-4
4.0467927E-4
-4.3937973E-5
-4.1479987E-4
9.670871E-6
-1.1774784E-4
1.6997318E-4
9.954261E-4
0.002024906
7.610749E-4
-0.0011767872
-1.7767542E-4
-4.2097093E-4
-0.0010061719
-1.0417127E-4
-3.5728677E-4
3.15362E-4
-2.1136669E-4
-0.0018716098
-7.4765173E-4
1.3494573E-4
4.6956612E-4
-2.7509746E-5
-0.0011292289
-4.2931625E-4
-0.0012141112
-8.211894E-4
9.5518207E-4
-0.0015170978
-0.0020507544
1.9920291E-4
-1.0536947E-4
-1.3589233E-4
1.7263638E-4
5.783425E-4
0.0015786119
0.0014427159
0.0014296349
9.086344E-4
-3.2190655E-4
1.1711477E-4
0.0011224698
0.0011964096
7.7120605E-4
2.3925622E-4
-5.723557E-5
9.7498373E-4
0.0011808627
-0.00140337
-5.037666E-4
0.0021283943
-4.385416E-4
-9.891064E-4
8.0102764E-4
-8.772813E-4
-9.223934E-4
-6.6136423E-4
-0.0015879862
-5.1838905E-4
-0.0011816862
-0.0014161395
9.297022E-5
1.3363585E-4
0.0019560363
0.0019177005
-0.001579461
-0.0017086118
-3.7250237E-4
2.4442526E-4
-0.0010418284
-0.0040233685
-7.895316E-4
0.004190008
0.0023214286
3.8353543E-4
0.0010179623
-2.6931983E-4
-0.0011490005
2.5375668E-4
8.965284E-5
-0.001434465
3.9862443E-5
0.001939165
7.9285976E-4
1.0673908E-4
4.8728473E-4
-2.3917893E-4
-1.8912814E-4
9.999872E-4
7.1832095E-4
-3.213782E-4
-7.498494E-4
-8.2158344E-4
2.6025577E-4
4.2429942E-4
-2.2053788E-4
0.001735272
0.00188781
-8.7074813E-4
-0.0010255743
-8.107567E-4
-0.0019133398
-0.0014578978
-3.2559992E-4
2.8902266E-4
0.0012181976
0.0018936511
9.230205E-4
-2.0124587E-4
-5.2727695E-4
-0.001634661
-0.0018159549
2.7355537E-4
0.001798859
0.0014669267
0.00100452
4.2434264E-4
-0.0018619874
-0.0029041776
3.1780777E-4
0.0032662302
0.0019206532
1.1789745E-5
5.0288736E-4
-4.2819354E-4
-0.002040848
-4.5048754E-4
-7.6896243E-4
-0.0033269974
-0.0015104765
0.0010597731
-2.984377E-4
-0.0015224479
1.5965685E-4
0.001493543
7.6052203E-4
9.0532977E-4
0.0014026155
4.609558E-4
-3.2023544E-4
-9.286166E-4
-6.845584E-4
3.0459816E-4
7.452945E-5
7.979632E-4
0.0017719688
2.537716E-4
-1.1233792E-4
0.0013225067
9.758661E-4
1.4541732E-5
-3.264224E-4
-0.0011033467
-5.4330565E-4
0.001574453
0.0012528404
-9.447702E-4
-0.0016856993
-0.00313524
-0.0045028958
-0.0014911246
0.0016137004
0.0013870448
9.277136E-4
1.16780386E-4
2.2080673E-4
0.0020604369
0.0023176551
0.0015854712
1.9307925E-4
-0.001532153
-0.0010523796
-5.9001493E-5
2.574365E-4
5.1986263E-4
6.836897E-4
1.8136867E-4
-0.001402274
-3.4156596E-4
0.0017397184
2.5466827E-4
-9.387052E-4
-3.643805E-4
0.0013084579
0.0026764618
6.0729653E-4
-9.3179505E-4
-0.0015226417
-0.0024581847
-7.7363476E-4
-0.0011477232
-0.0037836244
-0.0025423612
0.0011367652
0.003749077
0.0032924851
0.0012451124
-2.5575643E-4
-0.0013025826
-3.133259E-4
3.033561E-4
-0.0012319436
-0.001571688
-7.345943E-5
0.0018753328
0.001682375
2.1206719E-4
6.4758083E-4
9.456879E-4
5.560092E-4
-2.5278502E-4
-0.0011983537
2.9645593E-5
6.4834394E-4
6.699568E-5
9.928463E-5
-0.001507205
-0.0010263848
0.0027722535
0.0023094004
-0.0010121942
-3.950255E-4
0.0012831528
-9.950396E-4
-0.002988733
-0.0012133233
-3.2785002E-4
-5.3078056E-5
0.0018245588
0.0016511336
3.976836E-4
-2.2713032E-4
-0.0010527234
-3.4777683E-4
-7.09706E-4
-0.002369803
-9.826052E-4
5.937418E-4
5.603976E-4
3.3651423E-4
-7.7670417E-4
-5.921977E-4
2.5516673E-4
-0.00102105
-0.0012760174
6.454389E-4
0.0015568348
0.0017232194
0.0020722845
0.0011122187
-3.4045228E-5
-1.5040054E-5
-6.043533E-4
-0.0011708029
2.7379618E-4
0.0021593072
8.1649737E-4
-0.002054733
-1.8522382E-4
0.003020414
0.0025011476
0.0013804585
-9.5397985E-4
-0.0023765778
-2.9177552E-5
-1.2649254E-4
-0.001951327
-0.001576429
-0.0011194159
-8.837112E-4
-8.913028E-4
-1.3677588E-4
8.002947E-4
-7.0768193E-4
-0.0014795896
-3.4387805E-4
-1.0060011E-4
2.8580113E-4
0.0011581524
3.8101277E-4
-6.674361E-4
8.5607264E-4
0.0017422531
-5.142614E-4
-9.813594E-4
5.834833E-4
-5.896576E-4
-0.0017278326
6.144399E-4
0.0019933404
0.0011576391
0.0011810642
3.3579682E-4
-4.0029266E-4
8.013053E-4
4.1274013E-4
-7.757407E-4
-0.0021605173
-0.0029009434
6.757165E-4
0.00207223
-3.884136E-4
4.2657834E-4
8.0103474E-4
-3.2257603E-4
7.0111826E-4
4.013492E-4
-3.6887266E-4
7.31115E-4
9.3743834E-4
-7.611487E-5
-7.286686E-4
1.802971E-4
0.0012358081
-3.0893745E-4
-0.001214877
8.022598E-4
0.0016210042
3.3138956E-5
-0.0015398526
-0.0015739358
-4.8929144E-4
-3.431939E-4
-6.763801E-4
-8.34027E-4
-0.0015188926
-0.0012516803
-3.3212575E-4
-4.012123E-4
-0.0014991977
-0.0019328505
0.0010771478
0.0029512502
2.4459045E-5
-4.691887E-4
0.0020552531
0.001566568
-3.6435894E-4
-0.0012804494
-9.6596964E-4
1.2971653E-4
4.8094193E-4
0.0019048611
0.003656853
0.001833594
-3.075655E-4
-3.57506E-6
1.6057219E-4
-3.0275315E-4
-0.001303074
-0.0014258798
-3.265053E-4
-6.248505E-4
-7.1685406E-4
2.1218158E-4
0.0012227545
0.0020261894
-1.7967599E-5
-0.0020044134
-0.0013783993
-3.7143406E-4
0.0013622772
0.0010927836
-2.9844727E-4
2.549893E-4
-4.8869057E-5
6.942284E-4
8.97099E-4
-0.0014641503
-5.24378E-4
2.9777602E-4
-0.0011765173
-8.762996E-4
-0.0014075624
-0.0012001041
5.6487526E-4
-1.00597696E-4
3.3990561E-4
0.0019072032
-4.374907E-4
-0.0023056045
-9.0446316E-5
6.961066E-4
2.4366054E-4
0.0019034023
0.0013940103
-7.356455E-4
-1.6247643E-4
3.5950908E-4
-0.0012256538
-0.0017802339
0.0015879757
0.0034172286
-4.0682236E-4
-0.002312036
-0.001226213
-4.9539394E-4
0.0010419446
3.111594E-4
-0.0011280853
-2.3409286E-4
9.2933245E-4
0.0020806254
5.878957E-4
-0.0013140469
-6.003314E-4
-0.0011859305
-6.857012E-5
0.002290553
0.0013659368
0.0010240747
6.843125E-4
-1.971886E-4
9.139872E-4
7.8621414E-4
-0.001129254
-0.0022327614
-3.657219E-4
0.0023976471
6.045133E-4
-0.0012446139
5.06393E-4
2.9433612E-4
-9.19565E-4
-1.4195207E-4
-6.2150304E-4
-0.001956475
-9.6264575E-4
-1.504018E-4
-0.0012212178
-0.001287311
-9.3970005E-4
-8.87719E-4
5.4244336E-4
5.710635E-4
-0.0013151193
-6.850628E-4
9.890008E-4
1.8877532E-4
-3.175637E-4
5.732933E-4
6.248036E-4
6.19831E-4
7.0450536E-4
9.570658E-4
0.0012856857
-2.6553587E-4
-6.9299067E-4
5.0384604E-4
3.024645E-4
0.0012347383
0.001828447
6.920946E-4
0.0013481071
0.0021986486
0.0013334248
-6.2673015E-4
-0.0013871876
3.487505E-5
1.4064266E-4
-7.979164E-4
-0.0013636501
-0.0010848957
8.2502E-5
-0.0012730621
-0.002199059
7.601617E-5
3.96229E-4
-9.422932E-4
2.6346117E-4
0.0024967538
6.23174E-4
-0.0033558977
-0.0030646732
-0.0010763985
7.791515E-5
0.0011911789
2.3100013E-4
-7.8069506E-4
-3.8637637E-4
-4.2885676E-4
4.0198493E-4
0.0018023403
0.0017852156
0.0014571255
0.001197832
-4.6808898E-4
-0.0017454878
-8.978658E-4
-1.1700413E-4
-5.2675554E-5
3.5656168E-4
6.916351E-4
3.084075E-5
-2.029165E-4
5.358987E-4
-3.616228E-4
3.0351756E-4
0.0030186987
0.0015688636
-7.801988E-4
-0.0011408888
-0.0016615128
-0.0014075553
-8.1543345E-4
0.0013087577
0.0022907327
-4.2749572E-4
-9.2042447E-4
-2.6812614E-4
-3.1498977E-4
7.7834644E-4
5.79438E-4
4.8332533E-4
-4.563584E-5
-0.001439612
-2.655645E-4
9.359172E-5
-9.942498E-4
-7.538205E-4
-1.6301055E-4
6.6601485E-4
3.7354627E-4
-6.9998496E-4
-1.20034834E-4
0.0012901563
0.0014665355
3.6780108E-4
3.2663188E-4
5.4122054E-4
-4.7979702E-4
-0.0011377576
-0.0010568976
-3.055686E-5
-1.315536E-4
-0.0012757878
-2.1063912E-4
-8.7260944E-4
-0.0026579157
-3.2473914E-4
0.0019826149
0.0016394582
2.5988815E-4
-0.0011630637
-6.31818E-4
6.6086464E-4
0.0010534149
5.5792544E-4
-0.001471074
-0.0029718266
-9.497761E-4
0.0017346947
0.0012723432
9.5001893E-4
0.0022288715
0.0027177045
0.002427102
4.8038817E-4
-5.1323225E-4
5.219833E-4
-3.4774264E-4
-7.623357E-4
-4.7789412E-4
-2.8108087E-4
0.0012932216
3.916958E-5
-0.001456375
-0.0013175021
-0.0021883238
-2.0862503E-4
4.2585706E-4
-0.0013447682
-1.09984816E-4
-7.669708E-4
-0.001159412
0.0012731402
5.674848E-4
-9.3036797E-4
-6.280371E-4
-2.9392992E-4
-8.172301E-4
-0.0014816182
-0.0014050484
-0.0014340791
5.945392E-4
0.0017382824