-0.0016611405
-2.0827327E-4
-8.261456E-5
-7.1863335E-4
5.938386E-4
9.831801E-4
0.0012175842
0.0020572608
0.0012326329
6.2364724E-4
-1.4069177E-4
-0.0011013479
-5.9306616E-4
-1.2136457E-4
-4.9978413E-4
-0.0016778747
-5.1978923E-4
0.0028364325
0.002533424
6.1006815E-4
4.9638033E-6
-0.0011793998
-0.0014867382
-0.0010352656
-0.001971339
-0.002188371
-0.0012334982
-0.0013586677
-4.2503342E-4
1.18025055E-4
-0.0011207856
0.0012821158
0.002261873
-1.11499976E-4
0.0015856705
0.00202404
4.243061E-4
4.1529787E-4
-6.536905E-4
4.1706066E-4
0.0011082795
-2.124814E-4
5.6503626E-4
5.027278E-4
4.7481674E-4
1.8297686E-4
-8.0617674E-4
0.0014601827
0.0016116365
-0.0011911159
-0.0015042619
-5.623895E-4
2.0544554E-4
-3.744562E-4
-0.0018354156
-0.0018800882
-6.047657E-4
-1.578501E-4
-0.0013471814
-8.4287836E-4
0.0013088871
0.0026001025
0.0020409778
-8.001733E-4
-0.0013461548
-5.9833957E-5
-0.0012961816
-0.0020385233
-6.563273E-4
0.002324307
0.0030323726
-5.5149547E-4
-1.2638801E-4
0.0020262105
1.8148351E-4
1.7319582E-4
-6.130255E-4
-0.0033497862
-0.0019196237
-7.073375E-4
-7.7488367E-4
0.0013133531
0.0014434082
-9.7759825E-5
-1.8847412E-4
2.8092813E-4
0.0012994007
0.0017953961
8.9217984E-4
2.0325134E-4
-9.35674E-5
-9.18481E-4
-0.0010008124
0.0015305287
0.0026880922
-5.980633E-4
-0.0019757845
-5.545259E-4
-0.0015319034
-0.0011964211
0.0016704134
0.0013829616
3.2101222E-4
9.950738E-4
-5.3739006E-4
-0.0015461824
2.3012042E-4
3.481481E-4
9.2823255E-5
-3.1432742E-4
-0.0020112065
-4.039998E-4
0.0012044202
-1.1482794E-4
3.5178973E-4
3.0825296E-4
-6.340664E-4
5.4105546E-4
0.0011965574
5.181065E-4
-0.0011096387
-0.0019360554
-5.0617504E-4
-1.9702785E-4
-6.666543E-4
-7.253162E-4
-8.916279E-4
6.672807E-4
0.0011843703
-1.1241749E-4
-2.4493787E-4
-0.0012043404
-0.0010121715
0.0014516274
8.5946027E-4
-5.719463E-4
6.485048E-4
0.0016723324
0.0015937398
0.0018768098
0.002518428
5.0834194E-4
-0.0022912659
-0.0010637467
-4.369936E-4
-0.0013700795
4.66685E-4
7.5739255E-4
-6.719385E-4
3.8001247E-4
4.3430514E-4
-0.001853811
-0.0017289629
9.008829E-4
9.338111E-4
-3.3712498E-4
6.4093934E-4
-2.5276304E-4
-0.0022366163
-2.0586625E-5
0.0015340617
-0.0010153756
-0.0017081194
9.8645614E-5
1.8399835E-4
6.8041985E-4
0.0025567762
0.0020112204
7.501793E-4
9.232652E-5
-0.0022792001
-0.0023036152
8.533526E-4
0.001103159
-3.89833E-4
-8.946142E-4
-0.0013090717
-4.091814E-4
2.9171747E-4
8.4637155E-5
0.0013959006
0.0013967195
-3.9474305E-4
-9.04132E-4
-0.0011413601
-6.7813456E-4
9.487248E-4
0.0020926043
0.0017106874
-6.1121566E-4
-0.002075679
-0.0012885195
5.395024E-4
0.0021031261
8.62941E-4
-6.5509917E-4
4.616084E-4
0.0013704107
9.1213937E-4
-1.8973544E-4
-7.2052807E-4
-3.939793E-4
-2.4312384E-4
3.0243216E-4
-2.3088368E-4
-0.0024256206
-0.003100206
-8.8396255E-4
0.0012317706
1.0795548E-4
-2.2825038E-4
0.0013301023
1.911855E-4
-6.283466E-4
-3.0483701E-5
-6.0423225E-4
-6.232178E-4
-5.11375E-4
4.0489525E-4
0.0017312524
1.492767E-4
-0.0014013622
-5.917941E-4
-2.1998397E-4
-8.70769E-4
9.0927075E-5
0.0027712518
0.0037256451
0.0028218017
0.0015808396
5.487434E-4
-6.6159344E-5
-0.0017057506
-0.0021391131
-7.500748E-5
-1.5807361E-4
-0.0017850593
-6.3354324E-4
8.6326746E-4
-3.7389883E-4
-8.396265E-4
2.5941528E-4
1.6995587E-5
1.12761154E-4
2.0067093E-4
-0.0015361842
-0.0021500038
-8.4582914E-4
-1.1595317E-4
4.1661732E-4
0.0020984942
0.0010939515
-0.0020148333
-0.0012900741
-0.0013253121
-0.0028018318
3.9062672E-4
0.0035119192
0.0035043294
8.5944333E-4
-0.0020881952
-4.1483165E-4
1.4177176E-4
-0.0015246079
-4.3835037E-4
1.1929321E-4
8.0964505E-4
0.0018566572
8.3796197E-4
-8.8422996E-5
-3.3320315E-4
3.6383362E-4
3.907173E-4
1.2058146E-4
0.0028383622
0.004502223
0.0037368126
0.0028088633
-8.5839456E-5
-0.003113325
-0.003488553
-0.0027179588
-0.0030566405
-0.0034990993
-0.0022650782
-0.0017687998
-0.0015061488
3.5890253E-4
2.5547927E-4
-6.089218E-4
0.001148973
0.0010811987
-0.0012888925
-3.4740946E-4
0.0015404167
5.599394E-4
-0.0010106673
-0.0012885586
9.0552296E-4
0.0021194937
-1.7417045E-6
-1.7613074E-4
8.85277E-4
0.0015898411
0.0025777165
8.4483984E-4
2.3749405E-4
0.0013914235
7.0234464E-4
0.0010643892
2.1835472E-4
-0.0021637748
-0.0022121095
-0.0011919008
-8.2696155E-5
-0.0018497107
-0.0036480883
-3.5195184E-4
0.0023714534
0.002880407
0.0022546765
0.0010635506
0.0024721543
0.00157213
-0.0018630924
-0.0023281763
-0.0017687699
-5.235092E-4
1.0206918E-4
-5.6706485E-4
0.0010496333
0.0016040934
-5.4323307E-4
-0.0020518634
-0.0023590815
-0.0014575573
-0.0017634548
-0.0023221304
-6.266991E-4
5.9897644E-5
9.26864E-4
0.001985057
2.108935E-4
1.431604E-4
0.0013866897
5.4923975E-4
7.670666E-4
5.468631E-4
-0.0012263893
-0.0016739976
-0.0020475734
-0.0013073096
0.00146526
0.0026787177
0.0027741212
0.0030540973
0.0021376219
7.4215455E-4
-1.3425972E-4
-3.5162948E-4
-3.9764003E-5
2.5193696E-4
5.7458325E-4
-7.298317E-5
-7.2102726E-4
-3.9482486E-4
-0.0021581552
-0.0026905478
5.3698296E-4
0.0011183871
6.0766755E-4
6.26209E-4
-0.0014953141
-3.8981737E-4
0.0011816227
-0.0010373871
-4.1374977E-4
1.0149774E-4
-0.0020653747
-5.3035934E-4
0.0012642088
-0.0012505904
-0.0028372707
-8.3068514E-4
-4.317645E-5
-0.001292108
2.476622E-4
0.0029273545
0.002098293
2.1572845E-4
6.2777457E-4
-1.0937043E-6
-0.0018048687
6.508342E-5
0.0011325453
-0.0010167176
-8.152069E-4
4.940722E-4
0.001199634
2.4839316E-4
-0.0011993087
0.0010824995
0.0014590486
-3.6105776E-4
8.140946E-4
7.098687E-4
-6.965561E-5
0.0010191632
0.00162819
5.2156183E-4
-0.0012097843
4.2310474E-4
0.0022827082
-3.5681227E-5
-0.0024603882
-0.002627105
-0.001062231
2.4509336E-5
1.2063719E-4
2.0714408E-4
-4.360436E-4
7.1698974E-4
9.977369E-4
-0.001704071
-0.0022992182
-0.002015964
-2.2092121E-5
0.0035239344
0.0020856343
-7.1655354E-4
-9.6827495E-4
-7.843492E-4
-4.7972095E-5
-6.484421E-4
-0.0023542342
-0.0018742677
-2.8426532E-4
-3.1087312E-4
-8.64023E-4
-2.2591207E-4
8.3973765E-4
0.0021847151
0.0023243208
0.001062541
7.2759547E-4
1.2975301E-4
5.3908967E-4
0.0010785733
-7.8653364E-4
0.001163171
0.0031315342
2.7455957E-4
0.0011009913
0.0013168659
-0.0010667033
0.0017466724
0.002848352
0.0015976517
0.002099603
-0.0012811391
-0.0041181264
-0.0026526758
-9.823908E-4
-4.7792343E-4
-0.0037394678
-0.006608985
-0.0036956551
-4.4725215E-4
-0.0014922296
-0.003902876
-0.0027358318
-2.5236656E-4
6.233969E-4
0.0025074915
0.0025435174
0.0010257511
0.0019384505
0.002411303
0.0023987729
0.0023110514
0.0018393724
0.0019996502
5.739826E-4
8.717345E-5
0.0013879176
0.0015881174
0.0020476046
9.484788E-4
-2.900092E-4
0.0011186148
0.0021065637
0.0019544656
-0.0012100925
-0.0037326799
-7.320956E-4
4.854856E-4
-4.7382637E-4
-0.0011962538
-0.005099921
-0.0060532335
-0.0021145728
2.100853E-4
7.3558337E-4
-7.27305E-5
-0.001074272
-6.251244E-4
-0.0010032195
-3.4260488E-4
0.0017862449
-6.2093095E-5
-0.0022418404
5.2466133E-4
0.0023570391
8.3389954E-4
6.056848E-4
0.0025092128
0.0026542204
-5.8232552E-5
-3.3634773E-4
8.512705E-4
-5.894011E-4
-4.984103E-4
6.081185E-5
-0.0010317652
6.5896066E-4
0.0025416482
0.0023770167
0.0029614216
0.002449891
-4.94782E-4
-0.0035063191
-0.0037476278
-0.0013916577
1.7118393E-4
-4.621867E-5
-0.0011627387
-0.0016730366
-2.9309723E-4
0.0013901676
0.0016362064
6.3134404E-4
-7.2302873E-4
-0.001986142
-0.0020850727
-0.0010335908
-9.678886E-4
-1.8313965E-4
0.0020813004
0.002570155
0.0021893175
0.0012704446
-0.0010101355
-0.0022967053
-0.0029176339
-0.002568825
-0.0011503593
-7.032032E-4
0.00113171
0.0021222692
5.208322E-5
0.0016424464
0.003513283
0.0011699592
0.001634573
0.0028748391
0.0018951569
0.0012739756
-0.0023928357
-0.004200431
-5.9588026E-4
-0.0014298791
-0.004055358
-0.001577966
2.6028647E-4
0.0010684148
0.0038869285
0.0045703216
0.0020290175
5.6999386E-4
8.2050025E-4
1.9593538E-4
-0.0012389284
-0.003613205
-0.005537826
-0.002812899
6.802935E-4
5.76025E-4
2.5583303E-4
-8.971961E-4
-0.0018243515
-2.5796384E-5
-1.0563932E-4
-2.0508107E-4
0.0012401454
6.316951E-4
0.0026601802
0.0041947975
-0.0011776568
-0.0050360737
-0.003940121
-0.0019465495
-3.5822796E-4
9.531368E-4
0.004686273
0.007739308
0.0054777064
0.0018637254
-2.584665E-4
-0.0033589203
-0.005785831
-0.0024369978
8.549065E-4
-9.6641015E-4
0.0012533319
0.00525258
0.0024979948
-8.0613914E-4
-0.0019587213
-0.003698777
-0.004016903
-0.0022679952
-8.357968E-4
-0.002184351
-0.0034849856
-1.5036092E-4
0.0040610484
0.0025554362
-0.0012543347
4.011856E-4
0.003948559
0.0048259324
0.006644146
0.006210464
1.8523147E-4
-0.0040761703
-0.0027401876
-0.0020719087
-0.0057961293
-0.0066174883
-0.0025800688
-8.2282396E-4
8.6030085E-4
0.002630351
-5.418306E-4
-0.002802853
-0.002125913
-0.0015135071
0.0010407355
0.002416189
0.0016939185
0.0019085098
0.0016178488
0.0026275474
0.0048672548
0.0042335987
0.0014742474
-0.0019659554
-0.0033429612
-5.6169543E-4
0.0025473929
0.004737505
0.007482223
0.0072771665
-5.1763724E-4
-0.009430856
-0.007738512
-0.0019211326
-0.0027193523
-0.00466711
-0.0046909596
-0.0033503552
-4.3073556E-4
-0.0017136444
-0.004732059
-0.003975819
-0.0016068203
0.0015841454
0.001288757
-0.0022853238
-0.0025840388
-0.0013346747
0.004088576
0.01256993
0.011099419
0.0026281653
-9.070117E-4
0.0022809538
0.0072060586
0.006687998
0.0013335439
-0.0045880335
-0.00736567
-9.3827845E-4
0.0065460666
0.0020803558
-0.0051598526
-0.005052366
-0.005446842
-0.008040081
-0.00610581
-0.001254869
0.003526555
0.0036890516
-0.0042073685
-0.008608467
-0.0046220636
-0.0024563386
-9.058763E-4
0.0033797706
0.004923277
0.0046888227
0.0028467197
-6.727676E-4
7.00436E-4
0.001580759
2.6808976E-4
0.0090848645
0.019464588
0.017826727
0.009507708
0.0010646092
-0.0026069756
-0.004716372
-0.009974322
-0.012079359
-0.010189521
-0.0063950024
-0.0032732217
-0.0042394283
-0.003313536
1.9735217E-4
0.0017101521
0.0012136181
-4.2993302E-4
-7.2637113E-4
-5.7417905E-4
7.9571834E-4
0.0032077099
0.0012341704
-0.001452179
-0.0014195145
-0.0011211509
-0.0016634441
-0.0047327224
-0.008999842
-0.011881112
-0.0091622155
-0.0015747868
0.0035343193
0.0067539504
0.009302376
0.011683687
0.012895502
0.010001603
0.010833973
0.012243157
0.005427374
-0.0030453159
-0.011434011
-0.01565686
-0.010450167
-0.00219213
0.005542279
0.01000192
0.012410533
0.014434053
0.0093252435
-4.3647608E-4
-0.007027061
-0.009617634
-0.011252934
-0.014340464
-0.017245196
-0.017815288
-0.01206916
-0.003953637
-0.0034060862
-0.0028644959
0.0027846394
0.0057473695
0.008933372
0.012418448
0.013048911
0.02015669
0.029130124
0.023930537
0.008146156
-0.006944107
-0.014360829
-0.0147114545
-0.018624522
-0.02270729
-0.018412199
-0.012515763
-0.0073741353
-0.002495033
-7.2697207E-4
7.316218E-5
0.0016726009
0.004397401
0.0043651145
7.4572244E-4
-6.136397E-4
-0.0011409525
-2.2742174E-4
0.0028804052
0.003222364
0.0040600095
0.00790933
0.013968425
0.01963595
0.019186594
0.018046554
0.020038547
0.019801317
0.015036
0.004881045
-0.0073130853
-0.019928426
-0.031405684
-0.03376571
-0.028544998
-0.020985035
-0.012512772
-0.0071664327
-0.0041261525
-3.28506E-4
0.0031213332
0.004082827
0.0039546434
0.005837496
0.0072998228
0.006295877
0.0043637413
0.0046219174
0.008742253
0.011755976
0.013403549
0.014077952
0.008120158
-0.0012316806
-0.0078773005
-0.007648191
-0.0031169364
-0.008900704
-0.02266319
-0.029407477
-0.027942779
-0.020060604
-0.009626357
-0.002854386
0.003006748
0.01028917
0.015899943
0.018867334
0.018217536
0.012966901
0.008482115
0.008113739
0.009208638
0.016304689
0.02719612
0.026327891
0.0168818
0.01072847
0.005015411
-5.2805015E-5
-0.0024371494
-0.0043861796
-0.005518338
-0.009488021
-0.019314297
-0.03260946
-0.041713294
-0.03595358
-0.022359226
-0.015619723
-0.016045932
-0.019003825
-0.018771313
-0.012235936
-0.0011986424
0.011886518
0.021094132
0.022332793
0.020503754
0.027992537
0.03957401
0.031693485
0.015404054
0.016330436
0.022546548
0.021868024
0.01651175
0.0030911907
-0.01175434
-0.021995293
-0.027983796
-0.021305993
-0.008266277
-3.639328E-4
0.00949367
0.015188843
0.008847891
-0.0017819111
-0.017410098
-0.02581203
-0.022711
-0.040356386
-0.07656071
-0.0878061
-0.059142742
-0.019064238
0.006609365
0.027849698
0.050818883
0.06882784
0.075320825
0.05674778
0.035042662
0.03609479
0.04225596
0.044116605
0.03917583
0.02208741
-0.003120309
-0.03198085
-0.04949536
-0.058962896
-0.06607414
-0.047439333
-0.013872455
0.009003275
0.02831081
0.041664585
0.04158474
0.02844951
-0.0027227942
-0.030536601
-0.030546455
-0.032859292
-0.04431406
-0.016417734
0.036735103
0.060517076
0.041476037
-0.009384668
-0.057123058
-0.08682889
-0.09794149
-0.056670498
0.023946734
0.09323198
0.12906533
0.12139286
0.07034886
-0.017950976
-0.08819941
-0.09346294
-0.09732756
-0.12028999
-0.09994402
-0.04179141
-0.0033078229
-0.005156509
0.0014400566
0.05211116
0.13129285
0.22139908
0.25841197
0.2226201
0.16988523
0.08305083
-0.037630457
-0.14731981
-0.22976156
-0.24714668
-0.22954378
-0.22752616
-0.17863204
-0.048973065
0.08875648
0.14747277
0.14823723
0.16906032
0.16663909
0.0984658
0.018311355
-0.041106675
-0.0669705
-0.095720954
-0.1681633
-0.21066773
-0.15494649
-0.02988926
0.09749577
0.17115532
0.19684395
0.2361919
0.28452381
0.23741001
0.097792126
-0.044616047
-0.20751823
-0.35303378
-0.37194
-0.27890545
-0.15174858
-0.05224961
0.03516978
0.12466661
0.165102
0.19838195
0.20003118
0.10801209
0.039066065
-0.02843522
-0.14069484
-0.13958563
-0.04910142
0.019499894
0.08571424
0.14059393
0.16308428
0.11161278
0.0058349264
-0.043215435
-0.062464163
-0.108212255
-0.1302911
-0.10904282
-0.07313217
-0.04920732
-0.019238193
0.044974677
0.09713262
0.055448525
-0.07853969
-0.16730891
-0.13871357
-0.07667256
-0.007348493
0.07505119
0.12703246
0.15335105
0.15890941
0.11148965
0.027528474
-0.019476091
-0.017161455
-0.02622768
-0.021780388
0.029812844
0.06795084
0.087183386
0.098841965
0.059999954
3.2928697E-4
-0.01893814
-0.027567036
-0.074629486
-0.12489974
-0.12880906
-0.10053843
-0.056373682
-0.010906922
-0.004614151
-0.029164137
-0.030337535
-0.012267929
-0.021728123
-0.049825564
-0.0593158
-0.04793466
-0.027006255
-0.008638289
0.005506714
0.025747498
0.04821359
0.06509805
0.0747808
0.07793413
0.07066458
0.04978601
0.026288146
0.010978171
0.018305723
0.04281303
0.052287634
0.053127058
0.058576245
0.053624697
0.035294008
0.0060518333
-0.02006043
-0.028112797
-0.032710146
-0.0469791
-0.061350163
-0.059283976
-0.046537366
-0.037608147
-0.030967657
-0.029550184
-0.029143466
-0.02488854
-0.024681285
-0.02268959
-0.019127132
-0.01840921
-0.014942228
-0.01116585
-0.0053522643
7.274541E-4
0.0029628077
0.007954954
0.013061349
0.018228501
0.026094869
0.029240001
0.028458633
0.02762607
0.025074499
0.020829985
0.015678208
0.00993265
0.0056210808
0.0042987973
0.0021246537
-0.0014209445
-0.002581454
-0.0018973331
-0.0011616059
-0.002869409
-0.0054582
-0.005465942
-0.004767769
-0.0020869048
0.0027936585
0.005097238
0.0025562388
-0.0029309161
-0.0063291304
-0.007016749
-0.0049868766
-0.0017675554
-0.003663269
-0.006456188
-0.007211094
-0.0078639565
-0.004163029
-0.0015811727
-0.004369926
-0.0065058023
-0.0036754895
0.004419874
0.0067068622
0.0021799228
0.0029061378
0.004568065
0.0037969267
0.0051859217
0.006270557
0.0048895013
0.00234149
0.0020413427
0.003333986
0.0032106547
0.0017542421
-9.795345E-4
-0.001136782
-0.0015553986
-0.007202313
-0.009615985
-0.0071026
-0.005112025
-0.003466763
-0.0033760334
-0.0048849215
-0.005977788
-0.005420389
-0.0047087274
-0.0042734323
-0.0011582539
-7.309732E-4
-0.0037341085
-0.0021093318
3.3291866E-4
0.0015114791
0.0043964386
0.005746602
0.0077066887
0.011810156
0.014159256
0.014844282
0.014016859
0.010538901
0.005401714
0.0027725624
0.0038390646
0.0037134276
0.0023775427
0.0016015115
-5.235014E-4
-0.0033768043
-0.005232502
-0.0046031484
-0.00289189
-0.0025118387
-0.0025392391
-0.0042785574
-0.006344531
-0.0063010207
-0.0068567153
-0.006709177
-0.005382163
-0.004208923
-0.0019509651
-0.0013190001
-0.0014531674
-0.0010431797
-0.0026390415
-0.002427973
-6.407685E-4
-0.0012972101
-8.0778805E-4
0.0024779632
0.004456793
0.0026036946
4.042698E-4
9.656842E-4
0.0015322353
5.2282284E-4
-7.5733033E-4
-3.2265027E-4
6.67391E-4
-1.9859019E-4
1.2014367E-4
0.0016725711
0.0022681176
0.002562143
0.0022199017
0.003290332
0.0045065996
0.00403053
0.0042583165
0.0020073326
-9.708253E-4
-3.5074586E-4
2.9147931E-4
0.0012686594
0.0013898157
-6.0267566E-4
-0.0013169253
-0.0023078255
-0.001651152
3.8731226E-4
-7.716309E-4
-4.499223E-4
6.9489784E-4
-0.0013105276
-0.0022103097
-0.0012126195
-4.5522992E-4
-0.0012604707
-0.0016611937
3.344058E-4
-1.1559763E-4
-0.0015279407
-3.3738164E-4
-6.331554E-4
-0.0017006579
-0.0013032308
-5.621461E-4
1.6941006E-4
-3.44606E-4
-0.0015756489
-0.0017599231
-5.6685205E-4
8.746794E-5
-2.1606316E-4
9.467315E-4
7.770923E-4
-8.0248434E-4
-6.1752426E-4
-0.0011548387
-1.243899E-4
0.0015555627
-0.0012838787
-0.002845691
-0.0011265879
-1.6855093E-4
5.223374E-4
0.0016878406
0.0027821285
0.0022601516
0.0015312679
-4.9929845E-4
-0.004404084
-0.0028072032
8.7952205E-5
-0.001130394
-8.758016E-4
-0.0012351586
-0.0021445637
-0.0021500275
-0.003820717
-0.0030882475
-0.0010981875
2.2300768E-4
0.0014805121
-9.7323806E-5
5.750216E-6
0.0011606641
-9.508163E-5
7.432356E-4
0.0014823164
0.0011424323
0.0017081655
0.0016906642
0.0019224822
0.0012917469
0.0015627034
0.002409082
-1.4181367E-4
-0.0010468529
1.6408857E-4
0.0015335565
0.003281999
4.392424E-5
-0.0024395161
3.326205E-4
4.150981E-4
-0.0013908083
-0.0020178726
-0.0014670623
-4.99306E-4
-0.0016021837
-0.0011409784
3.9586463E-5
-0.0014044378
-5.129936E-4
7.624491E-4
-9.894408E-4
-7.80741E-4
3.3804297E-4
-7.9671404E-4
-0.0013019195
-0.0014084176
-0.0015203927
7.216104E-4
0.0017572097
3.7484142E-4
-9.2157256E-7
-0.0012321981
-0.0017469552
-1.7555764E-4
-1.7340388E-4
0.0012412481
0.003159036
0.0010734127
-3.596116E-4
4.786479E-4
0.0010807749
0.0017937074
0.002268248
0.0026512607
0.0031483388
0.002852354
0.0014377206
1.3814741E-4
-1.4723516E-4
1.0645551E-5
4.8919726E-4
-6.294456E-4
-0.0025792706
-0.0013843111
4.3435828E-4
6.7946746E-4
2.5585909E-5
-0.0020820317
-0.0023947135
-9.659666E-4
-0.0011942743
-0.0018266697
-0.0019564307
-0.0013652997
-5.221501E-4
-8.4478495E-4
-8.35795E-4
-1.7068186E-4
-0.0011700607
-0.0032682067
-0.0021584725
0.001591324
0.0024658225
0.0022824998
0.0035396144
0.0027152433
5.601585E-4
-5.066017E-4
-8.39908E-4
-4.6271872E-4
8.69992E-5
2.4254834E-4
-4.895285E-4
-9.290448E-4
0.0010066637
0.0027696309
0.0021823833
0.0013752333
9.302523E-4
1.09857145E-4
-9.517731E-4
-0.0012473963
3.4311766E-4
0.0013813253
2.1391481E-4
-4.379847E-4
7.782747E-5
-7.735576E-5
-0.0017470414
-0.0024948262
-0.0012869391
-0.0024085678
-0.0031745892
6.3096E-5
0.0017201831
0.0014225126
0.0011386137
7.2548265E-4
0.0019399644
0.0021682342
0.0013195272
6.077443E-4
-0.0010236315
-5.3059927E-4
-2.0613197E-4
-0.0013383378
4.052748E-6
0.0011566847
0.0012519456
0.0011601549
3.40458E-4
-1.5845834E-4
-7.9579273E-4
-5.5230925E-5
-1.7123175E-4
-0.0026856677
-0.002514705
-0.0017923516
-0.0017226146
-5.242631E-4
-9.639491E-4
-0.0013475674
-0.001070141
-9.0569444E-4
-3.006656E-4
-8.0244255E-4
4.3186956E-4
0.0029577985
0.0034664415
0.00317963
9.983318E-4
-0.0016659338
-0.0012474504
9.5425255E-4
0.0016563651
0.0012361387
0.0026633814
0.002118849
-8.90505E-4
-0.0015282795
-0.00193106
-8.8401494E-4
8.3239697E-4
-4.2053396E-4
4.4620642E-4
0.0019101001
8.5944973E-4
2.3024071E-4
-2.5899327E-4
0.0011013832
0.001531379
-0.0023240321
-0.0037206463
-0.0010818128
0.0010983249
9.7290997E-4
-9.0353785E-4
-0.0012599156
0.0010388743
0.002324098
-3.1864442E-4
-0.0026113084
-9.830007E-4
3.512797E-4
2.3044019E-4
2.7451094E-4
-3.4016368E-4
-3.9146427E-4
2.6584705E-4
-5.601824E-4
-0.0012899272
6.4951915E-4
0.0015881823
-2.864063E-4
-1.1246382E-4
0.0014783011
0.0015035701
8.636296E-4
2.763391E-4
6.0982245E-4
-2.520363E-4
-0.0018093594
-0.001085901
-9.2705496E-4
-1.8613484E-4
0.0010094087
-7.9232716E-4
-5.7047216E-4
9.87578E-4
-0.0011026849
-0.002985552
-0.0015786506
0.0016281474
0.0028184133
9.787221E-4
-1.09471504E-4
3.37804E-4
2.3448511E-4
-4.9139454E-4
-1.1546777E-4
4.3669905E-4
0.0010740978
0.00281536
0.0014922046
-5.8848015E-4
9.95198E-4
8.968452E-4
-8.3558436E-4
-4.8419222E-4
5.684609E-4
3.5071353E-4
-0.0013125129
-0.0013738923
-0.0010173044
-0.001269917
6.420964E-4
9.5787464E-4
-9.775086E-4
-0.0017425722
-0.0017203165
-2.5754608E-4
7.3248445E-4
1.1806506E-4
2.0385064E-4
9.640988E-5
-4.7383978E-4
-6.079732E-4
-3.509191E-4
2.4538618E-4
6.0001283E-4
1.936846E-4
-5.8617786E-4
-8.383357E-5
4.252527E-4
-4.8305522E-4
-3.123003E-4
6.3816924E-4
0.0010071793
7.602128E-4
-2.4449817E-4
1.177223E-4
0.0015934878
0.0013853576
-1.8986157E-4
-0.0012229864
-0.0010265012
2.1355886E-4
0.0010555953
3.1224458E-4
5.574774E-4
0.0011754221
-2.8198524E-4
2.0504819E-4
9.893026E-4
-0.0010885291
-9.768397E-4
2.4036499E-5
-7.5304793E-4
-9.788796E-4
-9.190186E-4
-2.688496E-4
-3.094275E-4
-6.658809E-4
8.9780346E-4
4.4779677E-4
-3.808467E-4
0.0019922073
0.002455582
7.7156065E-4
-6.2892353E-4
-0.0025585792
-0.0021673448
-2.733402E-4
-0.0011235499
-0.0020400907
-3.8445537E-4
0.0013644843
0.0016346108
0.0012896151
4.7841787E-4
-0.0016733714
-0.0022839303
2.8568157E-4
0.0014825317
9.1530994E-4
1.2697495E-4
-0.0012667977
-3.0808663E-4
0.0019644867
0.0021574215
4.6017332E-4
-0.0010518355
6.649961E-4
0.0017971961
-1.458702E-4
-8.064486E-4
-1.6818603E-4
0.0016136962
0.0027066052
0.0012735319
1.5036855E-4
-0.0017739438
-0.0022942382
-3.624539E-4
-4.6718348E-4
-4.8602026E-4
-9.567321E-4
-0.0021330877
-0.0018894892
-0.0029857322
-0.0015278511
0.0016881311
5.211271E-4
-1.9926604E-4
9.755808E-4
0.0011637625
8.511154E-4
5.8265923E-5
-5.513135E-4
-5.498331E-4
0.0011205175
0.001928674
1.120306E-5
-1.08017084E-4
5.996402E-4
0.0010676003
0.0021631704
0.0014077815
8.1594946E-4
-2.9720215E-4
-0.001923985
-2.815066E-4
3.71929E-4
-7.922522E-4
-0.0017432446
-0.0023254764
7.5722806E-4
0.0019543187
-0.0012059507
-0.0013523884
-1.8382714E-4
-2.0963857E-4
1.2030329E-4
4.0297396E-4
6.835762E-4
3.0926647E-4
6.7508325E-4
0.0012333603
0.0010353765
0.0023647833
6.667585E-4
-0.0030439391
-0.0016441331
1.5495354E-4
2.4211257E-4
5.0993904E-4
-8.830699E-4
8.006437E-5
0.0025991772
0.0014338507
-8.347779E-5
-8.327231E-4
-0.0022061574
-8.211886E-4
0.0018418279
-8.8084314E-5
-0.004177802
-0.004067872
-9.553474E-4
0.0013625933
0.0013151291
-7.012498E-4
-9.352179E-4
4.5830748E-4
8.9401496E-4
0.0021772825
0.0025836183
7.967035E-6
-0.0011635388
1.589437E-4
4.7624603E-4
-3.3725434E-4
-1.0947913E-4
3.103489E-5
-7.706828E-4
2.0352805E-4
0.0021901047
0.0025886414
0.0012661512
-1.0906861E-4
6.392207E-4
3.866535E-5
-0.0017005001
-2.1547373E-4
-3.87188E-4
-0.0014798681
-7.661578E-5
-6.894819E-4
-3.5196025E-4
0.0014260103
9.81885E-4
-2.0576688E-4
-0.0030983204
-0.002543137
0.0013085324
8.143102E-4
0.0012374936
9.69819E-4
-0.0019792514
4.1585483E-4
0.0014315505
-9.674372E-4
-2.7921458E-4
-7.5019576E-4
-0.0011801932
4.8830593E-4
5.6093873E-4
-9.0179476E-4
-0.0020182068
-5.748647E-4
2.78367E-4
-2.2012835E-4
0.0017960285
0.0018756867
3.9624755E-4
4.999894E-4
-7.7317643E-4
2.3693425E-4
0.00216463
3.9035396E-4
8.0019917E-4
0.0013632511
-0.0019244755
-0.0018280776
4.5375887E-4
-4.5234014E-4
-3.4995363E-4
6.1846734E-4
-7.8128374E-5
6.463227E-4
8.7413733E-4
-5.4879935E-4
-6.145606E-4
-0.001367012
-0.0013746269
4.2934838E-4
1.3224531E-5
4.2555056E-4
0.0018650024
6.420999E-4
9.547367E-5
6.366432E-4
6.2979694E-4
3.054828E-4
-5.002062E-4
-1.1260945E-4
1.9266246E-5
-7.247308E-4
-4.4116497E-4
-3.4467928E-4
2.3612088E-4
-1.2587546E-4
-0.0025015278
-0.0016882658
7.727096E-4
-2.5221347E-4
-0.002134362
-0.0010278024
4.570755E-4
-8.12647E-4
-4.323947E-4
0.0015821412
5.644363E-4
1.8131743E-4
9.431808E-4
6.4276865E-5
3.289122E-4
0.0014483992
0.0017455803
0.0014250941
5.754E-4
5.5273034E-4
0.0011549433
0.0014903592
0.0011760193
-1.0745279E-5
-4.0654713E-4
5.415257E-4
5.487504E-4
-0.0012209984
-0.002412908
-0.0025141288
-0.0024654297
-0.0012459208
1.12416325E-4
2.8766794E-4
2.4723654E-4
2.724854E-4
1.4878587E-4
-2.1103362E-4
4.1076445E-4
0.0011969942
-3.1596355E-4
-0.0016444887
-0.0014237041
-0.0010720112
3.325215E-4
0.0014115651
1.7136685E-4
-7.502276E-4
0.0010506973
0.0021563433
1.6883141E-4
-0.0010624842
-3.4543345E-4
4.129026E-4
7.038749E-4
2.0698547E-4
-1.7108257E-5
-3.4427672E-4
-8.19263E-4
8.6327695E-4
0.0024841975
9.835731E-4
-5.723656E-4
9.649114E-4
0.0017947988
-3.9137635E-4
-9.6853817E-4
-9.8032615E-5
2.8856305E-4
0.0012530002
1.7094689E-4
-0.0010507187
5.573267E-4
2.2139354E-4
-0.0021424408
-0.0019265545
-4.2763513E-5
-0.0010333265
-0.0034030331
-0.0011103925
0.0014202364
-9.912705E-4
-0.001828182
3.616431E-4
4.357161E-4
-0.0010248923
-0.0012431706
-6.208893E-4
-6.0009287E-4
1.4145637E-4
0.0016201646
0.0010612041
3.822774E-4
0.0018424714
0.0029008843
0.0025229328
0.0018959924
0.00123904
6.944091E-5
-7.930482E-4
-2.0008742E-4
6.2638096E-4
0.0011995666
0.0014358312
5.797007E-4
6.441895E-4
8.572518E-4
-0.0016575169
-0.0038846212
-0.003890638
-0.0030977982
-0.0014839837
-6.18505E-4
7.247655E-5
0.0021854206
0.0021602209
4.378424E-4
2.2823182E-4
-7.714899E-4
-0.0020305377
-9.095878E-4
9.752816E-4
0.0021746329
0.0012825741
-0.0014063858
-0.0015021075
7.325711E-4
6.3856784E-4
-1.914772E-4
0.0012524804
0.0011325877
-0.001390833
-0.0014448753
1.6346903E-4
2.0652833E-4
-1.7664112E-4
-3.5757103E-4
-8.2332594E-4
-1.5438531E-4
9.760712E-4
-2.5913605E-4
-0.0018125736
-0.0012022068
5.296017E-5
0.0017183254
0.0023957638
0.0018473174
0.0018073691
4.6607023E-5
-6.217897E-4
0.0015549937
-1.03091625E-4
-0.003101977
-0.001931185
1.3035952E-4
6.41688E-4
4.1719436E-4
6.002489E-4
-4.691674E-4
-0.0028367126
-0.0035730214
-0.0030986413
7.80757E-4
0.005070337
0.0025661136
9.24066E-4
0.0028018525
8.101561E-4
-8.835163E-4
-3.5608464E-4
-5.7866395E-4
1.6681652E-4
1.4979336E-4
-0.0012181932
-0.0017748688
-0.0010274732
0.001390987
0.0025392484
0.0012443196
7.7193115E-5
-9.497292E-4
-0.0014099467
-6.562304E-4
-2.0884407E-5
-5.94062E-4
-0.0021041795
-0.0022603583
-6.910985E-4
5.728247E-4
3.9253038E-4
-5.778607E-4
1.4221785E-4
0.0011003868
5.681301E-4
6.285688E-4
7.055334E-5
5.9790106E-4
0.0031107976
0.0011023748
-0.0017412887
2.0527988E-4
1.8164224E-4
-0.0023244224
-0.0014054845
2.812571E-4