0.0012138668
9.3099225E-5
-7.5654784E-4
-4.9190206E-4
3.5380905E-5
7.847633E-4
-6.620892E-4
-0.0021664854
-3.439952E-4
6.238979E-4
-6.6866627E-4
-6.0204725E-4
3.4114972E-4
0.0014385777
0.0031656367
0.003248287
-5.898301E-4
-0.0047764787
-0.0025073462
0.0012917968
2.1646234E-4
-1.0379294E-4
-3.473741E-4
-6.4860075E-4
0.0024365685
0.0015570022
-0.0010012237
2.6814936E-4
-4.1746485E-4
-0.0011511003
7.248893E-5
3.7951522E-5
-2.614438E-4
7.067032E-4
0.0019560542
-4.039672E-4
-0.0029971085
-0.0019987542
-0.0026104343
-0.0020561714
0.0010707686
0.0014143628
0.001051574
-2.6438117E-4
-0.0018051607
4.354049E-6
9.183065E-4
8.468064E-4
0.00167675
8.552445E-4
3.769133E-4
-5.4639595E-4
-0.0019343244
5.391469E-4
0.0013833984
4.2537213E-5
0.0011448197
-6.3002465E-4
-0.001400149
0.0016743962
0.0015867049
0.0020296774
0.0021091509
-6.262775E-4
-7.488833E-4
-0.0013520177
-0.001795568
-4.5783274E-4
-7.9461717E-4
6.550495E-4
0.0013225423
-7.853958E-4
-2.3645604E-5
8.3191204E-4
-6.3548697E-4
-0.0012727919
-2.8332046E-4
8.9657656E-4
3.817345E-4
-8.273525E-4
-6.123296E-4
6.7149795E-4
4.4106873E-4
-0.0014630028
-0.0015226869
5.7883353E-5
6.2038057E-4
5.014305E-4
0.0010496507
0.0012677247
7.26959E-4
0.0014552963
9.107358E-4
-0.0018531572
-0.0025893662
-0.0023298315
-0.0013840412
8.2177675E-4
5.800348E-4
-6.280642E-4
3.3642107E-4
0.0019743028
0.0027109585
0.0016868418
-7.305598E-4
-0.0017739899
-5.1593065E-4
-3.7809546E-4
-0.0019559446
-0.0017493574
1.130173E-4
7.6784217E-4
1.0803805E-4
7.7229616E-4
0.0017303833
1.7382776E-5
-0.001575931
-9.0094004E-4
5.751579E-4
0.0018226722
0.0013793632
-1.0420816E-5
-2.2601415E-4
5.791403E-4
8.202325E-4
8.617655E-4
0.0016662495
6.067277E-4
-0.0013527782
-0.0016177807
-0.0017599192
-2.7137835E-4
9.7203074E-4
-3.235832E-4
5.6310516E-4
0.001289006
-1.9790961E-4
-6.423395E-6
-6.7988527E-4
-0.0020561987
-6.617623E-4
4.2136814E-4
-9.519955E-5
3.823722E-4
4.084015E-4
-0.0011326208
-0.0010002067
-5.3797598E-5
-5.37179E-4
-4.2689324E-4
4.936491E-4
0.0018892421
0.0021827666
-1.1086453E-4
-0.0017765348
-0.002461028
-0.0016780824
6.2137283E-4
-4.427752E-4
-0.002314768
-0.0017757791
-0.0015085761
4.693057E-4
0.00330623
0.0029399
0.0019157256
0.0017815712
3.1030574E-4
-8.562387E-4
0.001025387
0.0024106028
-7.149323E-5
-8.603776E-4
0.0020495104
0.0016575273
-1.8330682E-5
0.0012894485
8.967297E-4
7.9879723E-4
0.0010956314
-0.0015404708
-7.6302263E-4
3.0757516E-4
-0.0011980961
-0.0016700417
-0.004851237
-0.0017041233
0.0024200163
-0.009165868
-0.012382864
4.8365555E-4
0.004441876
0.002111677
0.0022610626
0.002443952
0.0015691549
-1.4480297E-4
0.0011027029
0.0025896393
0.0010558943
-7.1976945E-4
-8.0837955E-4
0.0013254394
0.0015959817
7.153608E-4
0.0022072387
0.0032531328
0.003020366
0.0010903145
-9.948183E-4
-0.0013798156
-0.0016065105
-8.815846E-4
-0.0012400298
-0.0016349279
-2.1372436E-4
-0.0012192547
-0.0016223215
-4.6880078E-4
-8.1148976E-4
-3.901301E-4
-6.500841E-4
-0.0012246656
-4.1182587E-4
3.1472652E-4
0.0015411153
0.0016583788
4.5894136E-4
6.3753175E-4
0.0015199453
3.3766648E-4
-0.0021002186
-0.0012525663
0.0011625048
0.0014186697
0.0011327623
5.234892E-4
-9.4783213E-4
-0.0010337132
0.0012118532
-1.11793015E-4
-0.0035613838
-0.0013228337
-0.0010782741
-0.0014116517
0.0036881512
0.0017863439
-7.289638E-4
0.0022630193
-8.6201465E-4
-0.0019643866
2.0439535E-5
-0.0026406876
-0.0011990567
0.0022612258
0.0015772956
2.4264227E-4
1.02186525E-4
0.0015211966
8.2482793E-4
-0.0011399402
5.0760704E-5
4.670983E-4
-5.372458E-4
1.5493447E-4
9.175345E-4
8.79233E-4
3.476886E-4
-4.7071223E-4
1.5919986E-4
0.0019953763
0.001603798
-0.0013389334
-0.0029670717
-0.0019945952
-3.4812602E-4
8.319655E-4
0.0021580276
0.0028418314
2.6839023E-4
-0.0027836564
-0.0024356702
-0.0020624672
-0.0021652766
2.4304929E-4
0.0018402609
8.6304615E-4
-6.983487E-4
-0.0021471803
-0.001127056
7.768098E-4
-1.8551188E-4
-0.0010551348
2.4914687E-5
0.0015160443
0.0022713114
0.0011941676
7.7370077E-4
0.001444818
-3.3919688E-4
-0.0018201194
3.7728652E-4
0.0018653776
6.8466656E-4
1.4319777E-4
-9.7909746E-5
-2.2355824E-4
0.0012822498
0.0014835704
1.7401448E-4
-3.0663752E-4
-7.3964044E-4
-3.5373488E-4
-1.6081464E-4
-0.0013558104
-0.0016566532
-0.001336138
-2.0501563E-4
8.9051883E-4
-2.5951368E-4
-0.0011595368
-8.0358406E-4
3.244931E-4
0.001240446
2.4782744E-4
1.7118796E-4
4.0225568E-4
-6.884345E-4
-4.613144E-4
-8.8858453E-4
-0.0012653518
5.6873687E-4
6.2637375E-4
1.633172E-4
9.133375E-4
-4.0192134E-4
-0.0019258437
-9.5419155E-4
0.0012211958
0.002587689
0.0016428259
6.4533146E-4
9.376842E-4
4.294528E-4
9.009507E-5
2.9149089E-5
-0.0013985182
-0.001747558
-5.210894E-4
2.9106482E-4
0.0013253437
0.001082119
-2.705547E-4
4.8396054E-5
-8.280817E-4
-0.001805665
-6.271786E-5
-4.948644E-4
-0.0011995992
4.88135E-4
4.977957E-5
-0.0010614858
-0.0016948658
-0.0021064072
-0.0013768028
-0.0011040019
3.5074397E-4
6.254896E-4
-6.618541E-4
0.0014210534
0.0018462676
9.5838535E-4
0.0028337005
0.0032974542
0.0026251166
0.0010959146
3.2839805E-4
0.0012561366
-4.5209462E-4
-0.0014191095
-6.59256E-4
-5.1018945E-4
4.8193423E-4
5.5693026E-4
-8.1141724E-4
-0.0019251204
7.6897943E-4
0.0035139981
0.0022506658
0.001705487
-0.004402922
-0.006478686
0.0022546302
-0.0054708803
-0.014262293
-0.0021245333
0.003530182
0.0020088272
0.0037361088
0.0017321496
4.2528403E-4
1.7295626E-4
0.001488533
0.0035362882
8.727892E-4
-2.263737E-4
0.0013511818
0.0013586679
6.507683E-4
-1.3136416E-4
6.261356E-4
0.0021363453
0.0022445559
7.799195E-4
-6.494332E-4
-9.6641795E-4
-6.8294164E-4
4.9950264E-4
2.4144802E-5
-0.0015402704
-0.0011963837
-0.0013894625
-0.0017043207
-0.0016680222
-0.0015818528
1.8052517E-4
4.4246658E-4
-0.0016791723
-0.0021668018
-1.1007616E-4
3.10009E-4
-5.1193556E-4
0.0014446604
0.0012626692
1.5811672E-4
0.001440196
-1.477363E-4
-5.5113436E-5
0.0016901358
0.0010917141
0.0023650168
0.0014555185
-1.7548868E-4
0.0012664077
5.869369E-4
-2.470975E-4
-0.0014475423
-0.0036949664
-0.002895196
-6.6294183E-4
0.0016911365
0.002774273
0.0017769439
-5.099063E-5
-0.0011033159
5.4383115E-4
-2.8834166E-4
-0.0026388962
-0.0010207706
-9.7156723E-4
-0.0022105027
-0.0011119465
-3.1256795E-4
6.88666E-4
0.001226307
8.5478043E-4
7.292696E-4
-1.0576936E-4
-2.591174E-4
4.6790155E-4
6.310672E-4
5.862144E-4
5.222703E-4
-3.488989E-5
-7.825207E-4
9.182489E-4
0.0029351467
9.382855E-4
-9.6155313E-4
-8.858046E-4
-0.0015357806
-7.9961075E-4
0.0011328541
6.688484E-4
-4.928706E-4
4.504941E-4
6.472538E-4
-8.2485477E-4
-2.1593859E-4
0.0010869269
4.6622602E-4
-6.2133383E-4
-0.0019575295
-0.0019870505
4.4096593E-4
0.0013193309
-5.0188264E-5
2.0056863E-4
0.0011166926
-5.043639E-5
-9.835964E-4
-3.06128E-4
-5.4018565E-6
-7.7255565E-5
-4.9649255E-4
-7.498663E-4
9.406559E-4
0.0014842912
-0.0011823375
-0.0019914513
4.6458901E-4
0.0015567935
6.784028E-4
-1.8390374E-4
-0.0011338224
-6.233578E-4
0.0012127125
9.7236614E-4
1.880596E-4
-4.6169644E-5
-0.0017761795
-0.0016168703
8.6198584E-4
0.0016487795
0.0020401797
0.0019649707
6.5818033E-4
3.0765226E-4
-0.0012115914
-0.0035437834
-0.0016796971
0.0011967478
5.3657976E-4
-4.3572367E-5
-2.3238591E-4
-0.0013906115
-2.8519615E-4
5.606995E-4
-2.5220885E-4
2.9244288E-4
-0.0010729437
-0.0021334703
5.196748E-4
4.5680586E-4
-0.0012368273
1.8744971E-5
0.0020376956
0.0026365845
0.0012066463
1.227771E-4
-2.2094394E-4
-6.5157894E-4
-8.074571E-5
6.036224E-8
2.6491677E-4
4.8431876E-4
5.499459E-4
0.0022269208
0.0012513706
-2.6223416E-4
7.1246387E-4
-7.367977E-4
-0.0012739426
2.2041243E-4
-2.0195369E-4
-6.271418E-4
-9.775129E-4
-0.001001186
-6.0662825E-4
-1.6830835E-4
0.0014229076
0.001006493
-9.853733E-4
-0.0011863833
-0.0011192368
-0.0010560285
-4.1417562E-4
-1.8149937E-4
-8.5023954E-4
-0.001959382
-0.0025296877
-0.0014855962
9.244304E-4
0.0022776986
0.0020366616
4.5900326E-4
-0.0018129338
-0.0019588291
-1.4155183E-4
8.812558E-4
-2.9705558E-4
-1.1942717E-4
0.0019472823
0.0017809317
0.0026735985
1.9448376E-4
-0.002720509
0.007486377
0.007741067
-0.007277542
-0.005646642
0.0023492891
0.0023570466
0.0036807288
0.0023885744
7.975737E-4
8.450668E-4
-0.00105268
-0.0014069466
-0.0035250033
-0.0059013204
-0.0026651493
0.0017615411
0.0020160777
-5.64573E-4
-1.6011375E-4
7.2515005E-4
-0.0022536446
-0.0036779006
-0.0022419298
-5.907423E-4
7.945325E-4
7.201304E-4
-1.9604841E-4
-3.243679E-4
4.5887617E-4
7.5030513E-4
5.190578E-4
3.4735972E-4
-2.6138948E-4
2.6387523E-4
0.0014135564
0.0010362011
7.7753677E-4
0.0011769647
6.494315E-4
2.1705595E-5
2.6901657E-4
2.2455252E-4
-5.6218214E-5
-7.1499904E-4
-0.0022254775
-0.0010522673
0.0016493296
6.8423944E-4
-0.0012708133
-0.0013105442
-9.457983E-4
2.7434615E-4
0.002338867
0.0022154222
2.1032029E-4
6.750756E-4
9.425908E-4
-8.71724E-4
0.0018344608
0.0052512423
0.003340018
0.002736535
0.00436305
0.0036279035
8.3382666E-4
-0.0032321827
-0.006197125
-0.0071906475
-0.0069976286
-0.0040039043
-0.0019269632
-0.0031810105
-0.0031947547
-0.0024981631
-0.0014248233
6.633986E-4
5.3859665E-4
7.8971667E-4
7.0504483E-4
-0.0017643551
-9.5071347E-4
-2.7528752E-4
-8.565661E-4
0.0029110676
0.004190921
0.0015194134
9.5642736E-4
9.469391E-4
0.0020798822
0.005706911
0.009360926
0.008992829
0.0035320953
9.61647E-4
0.0026195156
8.915481E-5
-0.0037191138
-0.0023673272
-0.0012915713
-0.004986156
-0.007912632
-0.0048322403
4.1462362E-4
0.002655003
0.0030808004
2.4239281E-4
-0.0053202203
-0.0056072557
-0.0030134846
-0.0020059769
-2.6809145E-4
-0.00109465
-0.0017783943
1.3995935E-4
-9.5183484E-4
-0.0010986672
-1.2369364E-4
-0.0018411014
-7.9785066E-4
0.0010770455
-7.391556E-4
-0.002075626
3.14044E-4
0.0039875223
0.0051034205
0.004381066
0.0028938917
0.0021774005
0.0040988442
0.004916417
0.004356599
0.0040234313
0.0026706802
0.0028473155
0.003522907
0.0016411477
-8.3063345E-4
-0.0034615595
-0.006106264
-0.006585875
-0.0055849976
-0.0046572783
-0.0020492433
5.6209887E-4
-2.6880912E-4
-8.70998E-4
-4.2976704E-4
-7.881878E-4
-0.0013414132
-0.004344775
-0.005298801
-0.0014478911
-4.3075133E-4
-0.0021118985
-0.0012604852
0.0026734748
0.005422026
0.0028272124
-2.479444E-4
-8.2992006E-4
-0.001786151
-0.0031946877
-0.0035023906
-6.166133E-4
7.9807395E-4
-0.0016593883
8.370869E-4
0.006246856
0.007840579
0.00878136
0.008569211
0.0075561884
0.0075316634
0.0050825784
0.0015232466
-0.0016986954
-0.0050653927
-0.0059617753
-0.00532536
-0.003413307
2.935532E-4
6.9747627E-4
-0.0038452442
-0.006175324
-0.0021133348
0.0014043992
0.0013164128
-5.7494466E-4
-0.0062598535
-0.008420925
-0.0063215536
-0.009609477
-0.011334784
-0.008002561
-0.0045645726
-3.9972918E-4
7.598578E-4
-7.9718215E-5
0.0015404116
0.009094054
0.019233339
0.01922719
0.015131285
0.012299257
0.0077481945
0.00668554
-0.0041079842
-0.018810496
-0.012157255
3.353788E-5
0.0036839098
0.0044599613
0.0023611458
0.0031144787
0.006554571
0.00900165
0.008729865
0.0029030258
-1.4333754E-4
0.0019835138
0.0021069422
0.001715249
2.8518288E-4
-0.008481345
-0.020529024
-0.0269618
-0.030773206
-0.031903245
-0.024222959
-0.01535904
-0.008441663
0.0035194624
0.015527334
0.022492878
0.027488317
0.028273858
0.023429193
0.01777667
0.009520347
-0.002647353
-0.008825133
-0.0058582756
0.0012052148
0.009102199
0.012985518
0.012586531
0.008134241
-0.0018031948
-0.008472581
-0.0073642447
-0.0062627187
-0.009260553
-0.015635718
-0.023299862
-0.028140185
-0.026131906
-0.016026407
-0.004429435
0.0014996965
0.0024033727
4.6770304E-4
3.3359224E-6
0.0038644285
0.0069505856
0.00665267
0.007420717
0.015349609
0.027752042
0.033381846
0.032572366
0.028244885
0.014961867
-0.0022239592
-0.016406903
-0.025113676
-0.020348486
-0.0054526385
0.0015979528
-0.0061391722
-0.01520417
-0.01348049
-0.0063937395
-0.003797695
-0.0059481896
-0.0034483587
0.006690703
0.012849331
0.008882624
0.0010453538
-0.0062564686
-0.012006039
-0.009280594
0.0029770993
0.010297276
0.010122914
0.0135124
0.022412844
0.030650562
0.024334505
-0.0024176694
-0.03184449
-0.04409862
-0.03904533
-0.027754331
-0.017099516
-0.017052848
-0.021201493
-0.0038374616
0.022636132
0.030893857
0.02674991
0.02196965
0.022677975
0.027347744
0.023741134
-9.673026E-4
-0.042256568
-0.07145569
-0.07376678
-0.05468257
-0.023077253
0.009548345
0.04065152
0.07005729
0.098416224
0.10668071
0.07481244
0.038974345
0.015372337
-0.0089951875
-0.014158021
-0.01174763
-0.024976647
-0.0425334
-0.04956339
-0.034454115
-0.01330311
-0.008655707
-0.026837392
-0.05394203
-0.057317983
-0.050920382
-0.047603153
-0.026022727
0.0052546863
0.039102923
0.06899112
0.089416824
0.089783065
0.031150956
-0.053209264
-0.107125096
-0.13150063
-0.11007098
-0.041636154
0.048123337
0.12800992
0.17534079
0.19706845
0.15509175
0.060469482
0.003961557
-0.021148158
-0.03648054
-0.037601102
-0.07440651
-0.13965109
-0.16738781
-0.14518858
-0.116936445
-0.09537483
-0.019975994
0.12040674
0.22182634
0.19780006
0.11499485
0.0802725
0.063487574
0.008791478
-0.0829153
-0.1789055
-0.19879387
-0.15154856
-0.10083804
-0.024821525
0.04790496
0.049595688
0.005134792
-0.036344625
-0.044981416
0.0033895674
0.077293724
0.112242244
0.117855735
0.112131864
0.054582525
-0.03713914
-0.09249213
-0.06941512
-0.0019431945
0.066818364
0.17624108
0.25547108
0.21702275
0.16109005
0.12601864
0.10105501
0.049848296
-0.12629846
-0.3071197
-0.37992105
-0.39408055
-0.30841112
-0.1726117
-0.08557094
-0.019895064
0.01343747
0.0020178629
-0.031587265
-0.058099147
-0.036171194
0.0012857825
0.020214558
0.050557457
0.095318675
0.12646806
0.1515682
0.17628402
0.18222314
0.21183386
0.250246
0.21168384
0.14854074
0.10725454
0.058822438
0.026984047
7.1900315E-4
-0.047215205
-0.12298596
-0.21321407
-0.25035766
-0.22992012
-0.1905621
-0.14698024
-0.12215535
-0.094722316
-0.05561267
-0.032057635
-0.015000171
6.105892E-5
0.011544605
0.021483423
0.029383365
0.042799458
0.053513967
0.06401488
0.07397034
0.06819404
0.064315505
0.06700953
0.06369713
0.060726438
0.05589044
0.053512316
0.054036703
0.04780125
0.044274036
0.031568088
-0.008079416
-0.06306086
-0.11498992
-0.12133128
-0.070466354
-0.025424493
-0.016986076
-0.01844566
-0.011889199
2.4595443E-5
0.00726905
0.011307079
0.014930492
0.011202647
0.0035398765
-0.0019910776
-0.006289208
-0.009790076
-0.013626638
-0.017574409
-0.01923118
-0.016740905
-0.011787559
-0.005554458
0.003724873
0.014581255
0.024129806
0.028396158
0.027941333
0.02570953
0.016973296
0.005243824
-0.0014880357
-0.0019742532
0.004263596
0.008205604
0.0073879543
0.010446166
0.014461495
0.015800474
0.012719548
0.0047674063
-0.002339882
-0.008642329
-0.012914425
-0.013995527
-0.016203089
-0.017180543
-0.0156234475
-0.014651522
-0.015463269
-0.016597703
-0.014804978
-0.013227292
-0.011907904
-0.0067352797
-0.0030869883
-0.0023979007
-7.85959E-4
0.0014125211
0.004993496
0.008899852
0.011626767
0.013749018
0.014766098
0.014706107
0.0127526475
0.010025988
0.009456764
0.010572599
0.011647854
0.009950435
0.0052800346
0.002433211
0.0038601912
0.0049047912
7.5213355E-4
-0.0029286738
-0.0036447484
-0.0072808377
-0.009391453
-0.007979263
-0.008805332
-0.009086919
-0.008329133
-0.007598924
-0.0040860795
-0.0020032853
-0.0031682048
-0.0022734671
6.1722234E-4
0.0012799301
5.6115753E-4
0.0017536212
7.5886556E-4
-0.005562526
-0.00943652
-0.0076404414
-0.0059702136
-0.0035187458
0.0010186819
0.0018219833
4.6104996E-4
0.0017558848
0.0048558824
0.01027297
0.013122537
0.0074804937
-4.0189243E-5
-0.0031485443
-0.0020905149
0.0010306166
0.0018215495
1.2104406E-4
-0.0013274298
-0.0018417529
-1.8896468E-4
0.0025533536
0.0037441943
0.0039604483
0.0038201183
0.0035088041
0.003153151
6.41326E-4
-0.002426358
-0.0020878224
-6.637983E-4
-0.0019882948
-0.004620206
-0.0034854987
8.9888554E-4
0.0020355333
-2.8425065E-5
-0.0024807672
-0.00449461
-0.003522612
-0.0012197029
-7.6084357E-4
-6.920543E-4
3.5554163E-5
-0.0010807669
-0.0024216915
1.972485E-5
7.338492E-4
2.2010856E-4
9.250645E-4
-0.0049996655
-0.006547624
-0.0022281676
-0.010003027
-0.01230999
-9.556306E-4
0.0022078997
0.0020740083
0.005409373
0.005183124
0.0030646196
0.0012800639
0.0016035512
0.0026669155
0.00161242
0.0012044151
0.0019128402
0.0022252577
0.0027668665
0.004046404
0.0041745347
0.002978404
0.0027703424
0.0026900151
0.0024912558
0.001978437
0.0013373076
0.0018410113
7.592522E-4
-8.766128E-4
-0.0010071704
-7.708823E-4
1.5060455E-4
-8.4515737E-4
-0.0020195772
-0.0011166036
-0.0016541714
-8.81684E-4
0.00115959
5.1138084E-4
-1.8604312E-4
5.1533186E-4
7.870372E-4
-9.455653E-4
-0.0026320217
-0.0025319273
-0.0034831818
-0.0039264453
-0.0027936115
-0.0031494666
-0.0032233393
-0.0027160607
-0.0048808213
-0.0062722336
-0.003971622
-0.003705084
-0.0050798533
-0.0039236974
-0.004071034
-0.0032044938
2.8424396E-4
-7.613626E-4
-0.0030956168
-0.0018538544
3.9005143E-4
0.0037052324
0.006980457
0.007759669
0.0071777967
0.007795562
0.007683085
0.004631864
0.0033848984
0.004534087
0.0045239474
0.004096551
0.0042352946
0.005017616
0.004626136
0.00461804
0.0058597433
0.002174176
-0.0016565113
2.9386964E-4
0.001264134
2.1758028E-4
-0.0015195921
-0.003886932
-0.0040272027
-0.0034705403
-0.0027472023
-0.0024926367
-0.004439523
-0.00598384
-0.0069852876
-0.0073238993
-0.0060805525
-0.005724214
-0.005948015
-0.0051644538
-0.0037860358
-0.0029984878
-0.0031268548
-0.0025942102
-0.0020342595
-0.0023811937
-0.002004756
-2.8121212E-4
0.0015525827
0.002540207
0.0031875975
0.0033685532
0.0032376866
0.0033219322
0.0030851518
0.004416712
0.0064481543
0.006418115
0.006719475
0.0069994153
0.006562171
0.006825804
0.0056031174
0.004719809
0.005112991
0.0030122972
-1.3585851E-4
-0.001926831
-0.001186971
6.961073E-4
3.0225792E-4
-7.735929E-5
-4.4678993E-4
-0.002535039
-0.0036767763
-0.004686438
-0.0061615314
-0.0061393725
-0.005522603
-0.0062458753
-0.007158367
-0.00573122
-0.0048339497
-0.005261407
-0.004742947
-0.00480811
-0.0029405009
-3.597731E-4
-8.823378E-4
-9.123433E-4
7.9249534E-5
0.002680657
0.0044769505
0.0024962083
0.0029632999
0.0034667368
0.0021466948
0.00252859
5.9603923E-4
8.683514E-4
0.0039604288
0.0029770413
0.0034379705
0.0054582884
0.003877107
6.421399E-4
-0.0013861541
-8.091024E-4
-0.001350888
-0.003284198
-0.0029722778
-0.0026167308
-0.0025923934
-0.0019047442
-0.0014464285
-0.0014823523
-0.0013764255
1.5559475E-4
8.75484E-4
0.0010341004
0.0022494455
0.0012331506
1.747916E-4
9.3349116E-4
3.8277038E-5
-7.1121154E-5
0.0018557869
0.002054574
3.7280263E-4
-8.614137E-4
-1.0499243E-4
0.0020995925
0.0026471412
4.4292508E-4
-9.117304E-4
-7.44674E-4
-0.0014901368
-0.0012007722
-0.0011848828
-0.0031572892
-0.0016817255
5.447263E-4
4.2398434E-4
0.0013804424
-0.0021721653
-0.0034828235
0.0042146593
-5.40628E-4
-0.011798948
-0.005463076
0.0029632444
0.003499635
0.0043436647
0.0020176272
2.510715E-4
0.0020408833
0.0026009474
0.0031288308
0.0020966574
-3.5133585E-4
-8.180122E-5
7.601213E-4
7.797313E-4
0.0014648006
8.2463305E-4
-2.3139466E-4
0.0010568149
3.9130068E-4
-0.0015899601
-2.3780571E-4
1.17164076E-4
-2.265626E-4
0.0011628051
6.7092665E-4
-3.5652987E-4
-0.0011085473
-0.0022454346
-0.0014853919
-4.6001843E-4
-0.0015702525
-0.0027771469
-0.0021355394
-0.001628613
-1.5320581E-4
0.0025287962
0.0014273386
-6.4083404E-5
2.8264167E-4
2.257689E-5
0.0016107573
0.0018764567
-3.4962186E-6
-0.0012542132
-0.002486535
-6.3387793E-4
0.0011752299
2.1332537E-4
1.8292274E-4
8.8427354E-5
-2.1280885E-4
-0.0024296255
-0.0048053497
-0.0015371264
0.0024776484
0.0033148287
0.002920782
0.0022895215
0.0011139073
-2.4404764E-4
9.2845276E-4
0.0010583517
1.2277754E-4
0.0010138869
-0.0010461906
-0.0014641249
0.0010905939
5.779256E-4
0.0012317536
0.0018434837
0.0012623374
0.0015246902
-2.4940874E-4
-4.404937E-4
-5.525764E-4
-0.0024271712
-0.0014720818
-0.0017452136
-0.003149793
-0.0027116442
-0.0015173579
3.4910403E-4
-6.797985E-4
-0.0010902528
0.0010143906
-1.6323902E-4
-9.1378513E-4
-2.4005701E-4
1.5531991E-4
0.0020146605
0.0014501332
6.688257E-4
0.0018574772
-3.4631415E-5
-0.0018778305
-2.0649777E-4
0.001811819
0.0023792682
0.0014226438
4.904283E-4
0.0010942088
8.2230143E-4
-0.0017171035
-0.0021689916
-7.6337537E-4
-8.562092E-4
1.6171184E-4
5.2151806E-4
-1.880152E-4
6.8972656E-4
-0.0016172243
-0.0021545645
0.0020806056
0.0013212225
-5.0131464E-4
-5.2180036E-4
-0.0018233097
5.524571E-4
0.0018339067
-1.906004E-4
5.28408E-4
0.0010216172
0.0011773038
8.587452E-4
-0.0019943374
-0.002064843
1.2358805E-4
6.2338554E-4
9.7224105E-4
0.0014160943
2.323311E-4
-0.0022213801
-0.0024833775
-5.6493306E-4
-1.6727595E-4
-5.776044E-4
1.6168285E-4
0.0019935402
0.0033269876
0.0017558117
-9.2072965E-5
9.426719E-5
-6.347776E-4
-9.230978E-4
5.378139E-4
4.9153477E-4
5.469721E-4
0.0011413959
2.79256E-4
1.7154992E-4
-3.7112748E-4
-0.001361982
-9.192691E-4
-0.0013253591
-0.0011096462
-2.7825363E-4
-8.54909E-4
-0.0010881046
-0.0014976623
-0.0013613367
-5.422513E-4
-6.0314796E-4
3.4915635E-4
0.0016518851
0.0017963281
0.0011027522
5.2150904E-4
6.342867E-4
5.7791026E-6
3.0016582E-4
8.0864E-4
-5.5174547E-4
-1.424652E-4
0.0012274584
0.0012418786
8.9110504E-4
7.377967E-4
0.0014514085
9.841253E-4
3.1270273E-4
0.0010930437
1.9582674E-5
-0.0012524076
-1.248122E-4
4.1875252E-4
-0.0011149058
-0.0018335225
-8.340542E-4
-3.3005266E-4
0.0010719257
0.0021000684
1.1767811E-4
-5.597139E-4
5.905057E-4
-4.652194E-4
-0.002142689
-6.388635E-4
6.2235806E-4
-6.9904875E-4
-5.420337E-4
-0.002915304
-0.003158764
0.0038981284
-2.1146504E-4
-0.008662918
-0.0034508295
9.1468333E-4
0.0026462802
0.006082431
0.0039255354
0.0017989775
4.802935E-4
-0.0012764505
-1.1601613E-4
-0.0011018087
-0.0027721361
-0.0020119732
-7.904768E-4
0.0018031878
0.0032051697
0.0027619058
0.0029761859
0.002838246
0.002183914
0.0012409232
3.6821802E-4
-5.3738855E-4
-0.0014839515
-3.9629464E-4
-7.5298996E-4
-0.003699196
-0.0027187164
-6.0350046E-4
-0.0012816633
-6.912336E-4
-2.2317267E-4
-0.0014741524
-0.001944442
-9.146367E-4
8.9451123E-4
9.654625E-4
2.6643102E-4
3.1338604E-6
-9.6016313E-4
-9.404119E-4
-0.0015636345
-0.0016420675
7.370092E-4
1.7053557E-4
-2.5441888E-4
0.0013559964
2.3631369E-4
1.15008814E-4
7.9134287E-4
7.6926063E-4
0.0027711038
0.0029205182
0.0018292767
0.0022639798
6.681187E-4
-0.001557736
-0.0015302212
-3.9256498E-4
-3.656422E-5
-0.0016402486
-0.0019437814
-2.0332357E-4
-1.843958E-4
3.653849E-4
0.0021163656
6.740779E-4
-0.0011920703
-5.290264E-4
2.8341904E-4
7.5496646E-4
0.001030491
8.807134E-4
-1.1370789E-4
-9.3784934E-4
-0.001164856
-0.0024722973
-0.0019288734
-1.1525339E-5
2.253162E-4
0.0014329591
0.0013630654
4.1362643E-4
0.001762547
2.9408874E-4
-0.0018876677
-0.0010497745
-0.0011213634
-0.0011802006
-6.4215646E-4
-9.80815E-4
-0.0011526706
-9.207557E-4
-6.6085387E-4
-7.212343E-4
9.606534E-5
8.1067765E-4
-1.867887E-4
-5.753684E-4
-9.4208977E-4
-4.3750767E-4
0.0019638136
0.0018115229
0.0012830442
0.0029344899
0.0024470415
3.8367396E-4
-1.928278E-4
4.353045E-4
6.631532E-4
1.276258E-4
2.0174746E-4
6.163666E-5
-9.3505386E-4
-9.113059E-4
9.4873057E-4
0.0025980994
0.001256852
-7.4777927E-4
-2.2726905E-4
-2.2032496E-4
-0.0018344175
-0.0022083323
-0.0017625634
-0.0015301349
-6.1472E-4
3.2119776E-4
1.4793286E-4
-1.6375326E-4
-3.7887556E-4
-0.0013074584
-0.0013199741
4.473266E-4
0.0011679749
8.0594975E-5
-1.9514846E-5
0.0011459771
0.0013221062
1.702506E-4
-4.2024167E-4
-5.2378306E-5
-5.451921E-4
-3.9468287E-4
0.0021041536
0.0027526557
4.019414E-4
-5.652628E-4
2.5302288E-4
-1.845722E-4
-0.0013554173
2.7557617E-4
0.002272304
0.0011014678
0.0010601651
0.0014491681
-9.325161E-4
-0.0016285378
-6.498724E-4
-8.051862E-4
-0.0010003373
-0.0010014758
-0.0011714485
-0.0015931451
-7.338834E-4
6.42392E-4
6.1782345E-4
0.0011080784
0.0010189952
-2.0824655E-4
-6.7829686E-5
8.308019E-4
6.2268414E-4
-0.0013106089
-0.0016595346
-8.4285287E-4
-0.0019419377
-9.4491895E-4
9.0874283E-4
9.717485E-4
0.0019793157
0.0024388595
0.001737585
3.7522917E-4
3.4950158E-4
0.0020365168
9.867009E-4
3.2858612E-4
8.859373E-4
-6.40302E-4
-0.001618594
-0.0014418765
3.6472842E-4
0.0014578893
2.437396E-4
2.1376292E-4
-8.5601944E-4
-0.0018285636
-3.3874172E-4
3.0847892E-4
8.639315E-4
0.0029146457
0.002232974
-0.0039982754
-0.0030986767
0.0019871069
-0.008063518
-0.012192736
5.3646736E-4
0.0044193137
0.0021596896
0.0012194325
1.67954E-5
0.0025939126
0.0025971662
0.0018603895
0.002371376
6.518594E-5
3.0207788E-4
0.0013807666
0.0010844155
0.0012686233
4.6843122E-4
1.58864E-4
6.2811254E-5
2.1468005E-4
1.55998E-4
-2.8917412E-4
8.2320545E-4
-1.7242346E-4
-0.001667987
-7.363797E-4
-8.3944836E-4
-7.4643444E-4
-7.1761606E-4
-0.0014100629
-7.164023E-4
-2.6500568E-4
9.932607E-5
4.6469094E-4
-5.6291884E-4
-0.0014437769
-8.0408837E-4
7.216105E-4
0.00148979
0.0015285036
9.091557E-4
-3.0444935E-4
2.2609776E-4
0.0011383964
8.41296E-4
0.001597987
0.001428873
-6.092949E-4
-0.0011111454
-0.0011698718
-0.0011399343
-6.33116E-4
-0.0018277235
-0.0014670843
-3.5009798E-4
-0.0020370553
-0.0010311286
0.002048578
0.0023441585
0.0013475736
5.021767E-4
4.5617681E-4
-4.424003E-4
-4.5833728E-4
0.0017492136
9.745069E-4
-5.9108104E-4
-4.960867E-4
-7.155516E-4
-7.722572E-4
-0.0018171272
-0.0016168702
-2.952311E-4
-4.5412596E-4
7.831061E-4
0.0017101206
7.159284E-4
4.2948063E-4
1.8776816E-4
-0.0014853183
-0.0023010292
-2.2218193E-4
1.7954806E-4
-2.5826273E-4
0.0011978819
-5.7147136E-5
-4.6839353E-4
9.796723E-4
5.0088123E-4
0.001472403
0.0018238566
0.0011152322
0.0016802463
0.0010608737
1.2006093E-4
-2.532701E-4
2.90559E-4
3.834476E-4
-5.2539584E-5
7.2030263E-4
-3.791167E-4
-0.0010307351
-0.0012170728
-0.0021059986
5.249574E-4
4.6645207E-4
-0.0012870276
-4.091121E-4
-0.002380624
-0.0021890595
-2.503072E-4
-5.025072E-4
9.3171856E-4
6.694648E-4
-2.8914516E-4
1.0666927E-5
-7.201611E-5
3.93814E-4
-0.0015345197
-0.002070289
7.6862815E-4
0.0011416648
7.246152E-4
8.930967E-4
0.001478983
0.0019721978
7.9615845E-4
-1.0033592E-4
-0.0011868472
-7.2071416E-4
0.0021162247
0.0019929635
-3.3441844E-4
-0.0015186765
-0.0017547326
-0.0016197051
-6.1605655E-4
0.0010928591
0.0013621395
9.663197E-4
4.033389E-4
8.5006344E-5
8.845357E-4
-6.588438E-4
-0.0026536186
-0.00195546
-9.1867754E-4
3.911567E-4
8.090723E-4
7.040524E-4
0.0015493206
6.0054625E-4
-0.001043202
-5.0680427E-4
7.524531E-4
2.6615846E-4
-4.1742573E-4
-8.120581E-6
-2.731535E-4
2.3067313E-4
-1.900934E-5
-0.0015440128
3.166628E-4
0.0024075422
0.001574695
-4.32748E-4
-0.001299394
-7.211224E-5
-4.8469528E-4
-1.7334342E-4
0.0015211937