-0.0012305243
-0.0010063339
-1.0632352E-4
6.933056E-4
4.492581E-4
0.0013867985
0.001782
-4.4124515E-4
-2.4460562E-4
0.0011920927
5.515392E-4
5.2862673E-5
-3.0239703E-4
3.3320062E-4
6.5545534E-4
-9.5783325E-6
7.4523553E-4
2.5123547E-4
1.8302933E-4
0.0011142554
-4.9387326E-4
-0.0011544791
-9.263505E-4
-4.91486E-4
8.507505E-4
4.9596844E-4
-1.4646714E-5
-0.0012975535
-0.0019543439
2.8111674E-5
2.786716E-4
7.859393E-4
0.0013358193
8.576334E-5
5.993038E-4
5.1906856E-4
-3.0695816E-4
-9.0851396E-4
-0.001567616
5.813226E-4
0.0013506633
1.11466186E-4
9.191416E-5
-0.0015990066
-0.0014812493
0.001328772
2.849013E-4
-0.0013468682
-2.7855102E-4
-0.0012833732
-0.0014158945
0.0015974693
8.726066E-4
-5.84985E-4
2.527749E-4
-9.420867E-4
-7.3362964E-5
0.001977299
0.0017512643
0.002568501
0.0023890312
0.001112013
-7.511988E-4
-0.0028854602
-0.0018060413
-9.868261E-4
9.881533E-5
0.0020716174
4.126866E-4
-6.725167E-5
5.777824E-4
-0.0011130243
-0.0010150388
-4.4430536E-4
-0.0013174124
-0.0011541375
2.0695974E-5
-8.6383655E-4
-0.0032363448
-0.0020776812
1.2981326E-4
0.0011829735
0.0028309263
0.0016781259
2.0434448E-4
3.242469E-4
-0.001282325
-0.001017735
-5.9025246E-5
-0.0010734403
-3.2073417E-4
4.5481828E-4
0.0012304623
0.0028012597
0.0010329906
-6.1110075E-4
5.332762E-4
3.9594708E-4
7.817954E-4
0.0030167843
0.0035498186
0.0014412373
-0.0024409273
-0.004191974
-0.0015897381
4.7038606E-4
9.85404E-4
0.0014364516
6.8379486E-5
-1.309805E-4
0.0015449495
6.526475E-4
-8.7608775E-4
-0.0012903006
-0.0022072396
-0.001953076
-6.0269615E-4
-3.7686395E-6
-4.125374E-4
-0.0020075205
-0.0027373172
-0.001818477
-0.0013620933
-0.0011786442
-5.587229E-4
0.001029084
0.0023707163
5.522983E-4
-0.0012503342
-1.3935774E-4
0.0012015721
0.0019878705
0.00197106
0.0014277457
0.0010906542
1.7320397E-4
3.7584666E-4
0.0013226828
7.970549E-4
1.10965375E-4
-1.41918E-4
-4.928148E-4
-0.0011872096
2.0286352E-4
0.004272938
0.0052807126
0.0028212755
-8.562672E-4
-0.0038041351
-0.002130962
-0.0014178568
-0.003106359
-7.21126E-4
8.598378E-4
-0.0015637117
-0.0026744986
-0.0011112586
1.826026E-4
-5.1009434E-4
-9.0179895E-4
-9.2929805E-4
-0.0012856337
-4.965939E-4
2.607108E-4
7.302035E-4
6.9344736E-4
-1.5857632E-4
-3.840344E-4
-4.7510868E-4
-2.3419532E-4
-2.3730432E-4
-3.9432215E-4
0.001220982
0.002156959
0.0016062714
0.0012204056
8.919308E-4
0.0011900809
0.0012936092
0.0011256831
0.0011421088
-1.4748322E-4
-0.0018214531
-0.0014643649
7.385352E-4
0.0015982476
1.888068E-6
-0.0019466662
-0.0032248888
-0.0020619254
0.0010622949
0.0027466284
0.0026452756
7.8822963E-4
-0.0013101837
-6.808912E-4
8.599605E-4
8.0037E-4
-8.884646E-5
-7.4249477E-4
-0.0012386666
-0.0017875255
-0.0011161297
0.0010808427
0.0013739252
-5.2855804E-4
-4.2633753E-4
3.9678253E-4
-2.53009E-4
-5.022877E-4
-9.2639663E-4
-3.9813435E-4
0.0015541527
0.00122867
-2.4751588E-4
-5.4337934E-4
-5.6563463E-4
-0.0017238335
-0.002967795
-5.1540876E-4
0.0018495414
8.054039E-5
-1.478537E-4
6.313933E-4
-0.0012111606
-9.016527E-4
8.703655E-4
0.0010769998
0.0027753464
0.0018027293
-0.002518942
-0.0016070638
7.8263605E-4
5.366326E-4
0.0013417546
0.0011177914
3.185802E-4
2.967961E-4
2.1420355E-4
2.3100563E-4
-0.0011527166
-5.7748057E-5
0.0023033388
7.135187E-4
-1.1495788E-4
-2.9810885E-4
-7.41842E-4
0.0010116457
0.0012606133
-3.0717155E-4
-0.0010850087
1.048831E-4
-2.0252573E-4
-0.004014132
-0.0038185834
-0.0011447867
-4.3104088E-4
4.1798488E-4
2.261119E-4
9.0739515E-4
2.3475008E-4
-0.0016339752
9.3840616E-4
8.988706E-4
-6.245433E-5
0.0037656236
0.003967983
0.0011396168
-9.879996E-4
-0.0026309632
-0.0010971846
7.2279305E-4
1.389372E-5
-0.0014756738
-0.0011895336
3.933533E-4
4.3069813E-4
8.7675283E-4
0.0015624692
0.0010421405
0.0012970701
4.1144073E-4
-0.0015984484
-0.0023012336
-0.0023520659
-0.0014359856
-5.1194394E-4
-8.134166E-4
-5.514656E-4
6.0420996E-4
7.0182077E-4
5.2053627E-5
9.2555943E-4
0.0021196534
0.0014180628
2.7481973E-4
6.247237E-4
9.842567E-4
-7.477362E-4
-0.0019409313
-9.647681E-4
-1.9937448E-4
-2.480942E-4
-0.0011788344
-8.0774433E-4
0.0015197227
0.00152549
0.001067142
0.0023457652
0.0022798742
0.0012227453
2.1485284E-4
-8.73022E-4
-0.0024195795
-0.003163133
-8.9963264E-4
-1.07725355E-5
-0.0010177594
0.0011347984
0.002136389
-8.2025566E-4
-0.001781193
1.2154341E-4
4.4601137E-4
-0.0012482338
-0.0020375438
-0.0011803539
2.04853E-4
2.656599E-4
-4.2376955E-4
8.9014776E-4
8.6557673E-4
-0.0014082053
-3.1910767E-4
0.0020746463
0.0024539996
0.002087127
2.2647227E-4
-0.0016330108
-0.0015904978
-3.0495736E-4
6.3131313E-4
-8.257183E-4
-0.001707218
2.4817977E-4
0.0010933739
1.0531006E-4
4.881633E-4
0.001046575
-5.7445915E-4
-4.425428E-4
0.0020010045
0.0022212756
0.0023515958
0.0017452264
-0.001873476
-0.00289769
-0.0017177411
-0.0010689937
2.5272297E-4
3.3002245E-4
3.30909E-4
2.336374E-4
-0.0011458257
-4.2259722E-4
-4.458903E-4
-0.0019490053
-9.779183E-4
-7.7388826E-4
-9.023749E-4
-8.562565E-5
-8.3148584E-4
-9.517327E-6
0.0019221702
0.0020300047
8.9853734E-4
-0.0010933534
1.0135841E-4
0.0030840822
0.0035174948
0.0042145085
0.0028760117
3.9484054E-5
0.0011195197
0.0013914485
-0.001235988
-0.002917277
-0.0027549698
-0.0017624642
-0.0022065914
-0.002488631
-0.0017524052
-0.0011034111
3.0489406E-4
-4.9463287E-4
-0.0023172372
-0.0015939355
-0.0010623046
-9.7378116E-4
-2.5085616E-4
0.0013551424
0.002518375
6.1574276E-4
-6.5033144E-4
2.7432415E-4
6.031566E-4
3.6452577E-4
-6.435499E-4
-1.7999935E-4
0.0025777826
0.0035525046
0.0023357288
0.0012717393
9.380338E-4
0.0011556626
0.0017762092
0.0010921016
-0.0010637078
-0.0012933346
-0.0010630625
-0.0024212596
-0.0024219255
-0.0015196506
-5.746471E-4
5.514963E-4
3.4154917E-4
3.4315998E-4
6.72029E-4
-5.407811E-4
-6.232423E-4
0.0016153898
0.0018188102
-6.8253896E-4
-0.0014577335
-0.0014285501
-0.0021538606
-5.0638962E-5
0.0017426062
-0.0012051016
-0.003150659
-0.0011192667
0.0010124627
0.0015754498
4.7599955E-4
-5.0466007E-4
1.534303E-4
5.009746E-4
3.8619165E-4
5.314532E-4
0.0012315176
0.0015753878
-9.509777E-4
-0.0021315203
3.953925E-4
0.001062926
-1.623111E-4
-4.309691E-4
4.70108E-4
0.0010786948
2.0801896E-4
6.935655E-4
0.0018254183
0.0019182579
0.0020004152
8.486239E-4
3.497939E-4
2.973862E-4
-0.0014153254
-0.0022202367
-0.0022961802
-7.844092E-4
0.0015710715
8.279052E-4
-6.4451044E-4
-0.0026833902
-0.0033090136
0.0011767354
0.0021790185
-0.0013602538
-7.6484936E-4
5.3751207E-4
-0.0012611046
-0.0024044386
-0.0014744484
-1.3716888E-4
-5.385542E-4
-0.0013245238
-0.0011526574
-0.0015354896
-3.773788E-4
0.0017884743
0.0021518932
0.0022753992
6.9485337E-4
-1.686814E-4
0.002785307
0.0030737736
0.0023277672
0.0032825163
0.0015666718
3.9333687E-4
9.5039344E-5
-6.6095055E-4
6.3315505E-4
7.337423E-4
1.9357233E-4
0.0014074206
0.0012186051
-4.9100583E-4
-7.1718136E-4
5.9770387E-5
-0.00205253
-0.0033337486
-8.455162E-4
-0.0019212896
-0.0043191155
-0.0033958023
-0.0027797355
-0.0017087905
-7.9466996E-4
-0.001675042
-0.003495699
-0.005274502
-0.0030076825
5.9643254E-4
0.0013222954
0.002839716
0.005021539
0.005383794
0.00456927
0.003508203
0.0032329205
0.003369239
0.0021036672
-7.7177834E-4
-0.0016140672
-2.3569443E-4
-5.307935E-4
-1.9904226E-4
0.0013465066
0.0011889727
0.0016511064
0.0023251954
0.0013660411
-3.952776E-4
-0.0023528913
-4.5781038E-4
0.0025101774
-0.0015333316
-0.005810743
-0.0033820437
-8.933361E-4
-3.2748308E-4
5.5413827E-4
-0.0013695811
-0.0048999777
-0.0037052126
0.0011209812
0.0025205489
5.0376635E-4
-7.641293E-4
-0.001492745
-0.0010249502
1.1892469E-4
-0.0012621899
-0.0023870778
-1.0954589E-4
0.0021186685
0.001208727
0.0013134674
0.003545213
4.922199E-4
-0.0029659912
-6.441223E-5
4.980072E-4
-4.740751E-4
8.4888306E-4
8.720913E-4
0.0034620417
0.0054509733
0.003508506
0.0046638465
0.005355444
0.0024262099
1.4649284E-4
-0.0028878918
-0.006220238
-0.0067608026
-0.004524552
-0.0016777354
-3.4162725E-4
-3.907527E-4
-0.0011963173
-8.3877356E-4
8.30266E-4
5.314715E-4
-0.0011374423
-0.0010161424
0.0010782863
0.0021404324
0.0014056318
3.2102375E-4
-0.0021419832
-0.0032457078
-0.0013777652
-2.2950914E-4
0.0010698437
0.0016549794
5.959517E-4
0.0016073799
0.0030102816
0.0038641004
0.0027261714
-0.0029730534
-0.004260192
2.6130927E-4
7.236942E-4
-2.7696666E-4
-3.0947427E-4
-0.0031126193
-0.0037293814
-0.0014409751
-0.0029567247
-0.004375916
-3.0529674E-4
0.004277651
0.005014278
0.0035119632
0.004229981
0.0061647366
0.0038662916
0.0010234627
4.889012E-4
9.733622E-5
0.0019271558
0.002437332
1.4988086E-4
6.145601E-5
-6.9487246E-4
-0.003967693
-0.0057848888
-0.0044259205
-0.0035096838
-0.0045572105
-0.0027037237
-0.0013365756
-0.0024639207
-0.0021433162
-0.0037915201
-0.003512546
-3.55247E-4
-7.387366E-4
1.8667293E-4
0.0015048998
9.466133E-4
0.0021616372
0.0022492572
0.002129284
0.0037153396
0.0059702904
0.008096856
0.008331206
0.007010284
0.003204195
5.265242E-4
-2.991206E-4
-0.0027776412
-0.0015806638
-5.352832E-4
-0.001932348
-3.46134E-4
-3.6039122E-4
8.05132E-4
-5.5203756E-4
-0.009421756
-0.009996987
-0.004200323
-9.6141204E-4
0.0028369103
0.0023938022
-1.4294943E-4
-9.086465E-4
-0.003078222
-0.004538709
-0.004006716
-8.233175E-4
0.0034573784
0.005133623
0.004273283
0.0019024614
8.226818E-4
-1.248912E-4
-0.003004847
-0.0026597134
1.9905764E-4
4.7378827E-4
0.0014453109
0.00430307
0.003583482
0.0021548162
0.003128371
1.7485506E-4
-0.0039941836
-0.0038324266
-0.0026733351
-9.697232E-4
0.0012937464
0.0040199743
0.0056320783
0.0011211127
-0.0038908636
-0.003929356
-0.0027364183
-0.0011251771
-0.0021244157
-0.0043964544
-1.6743779E-4
0.003150685
5.1017065E-4
0.0018244907
0.0034062564
5.4871873E-4
6.1546033E-4
1.3390278E-4
-3.7377913E-4
0.0039003287
0.0027953489
-0.0011907978
1.9446595E-4
-6.2282145E-4
-0.0028309473
-0.002928393
-0.003710848
-0.0014255606
9.761855E-4
-0.0041192514
-0.008385258
-0.002463069
0.003760936
0.0020202831
-2.421906E-4
-2.9265365E-4
2.433899E-4
0.0019850258
0.0019089003
0.0018377723
0.0031057687
0.0030798072
0.0031996844
8.2738174E-4
-0.0017819369
0.0010246783
0.0026679586
0.003061891
0.005835124
0.006179067
0.004247699
5.5688206E-4
-0.0031365578
-0.0034509953
-0.0038889314
-0.0050719143
-0.0065129446
-0.0066038766
-0.0033451088
-0.0026874673
-0.0038460842
-0.0042689624
-0.005744231
-0.0037536197
-1.6357728E-4
0.0022549285
0.0055779465
0.006746012
0.007145078
0.007466469
0.0051056165
0.0035977664
0.00451846
0.0052888654
0.0026171845
-0.0037568451
-0.010390424
-0.012924302
-0.007699869
-0.0016375751
-0.0011041296
-3.36872E-4
0.0017430213
0.0038779175
0.009379957
0.01538201
0.016073424
0.0121984165
0.007741418
0.005394062
0.0055636656
0.0032388682
-0.0019523872
-0.004184347
-0.006484715
-0.010136735
-0.013339825
-0.01750551
-0.01847864
-0.019323114
-0.022406306
-0.020473553
-0.01694501
-0.0139556285
-0.00828495
-8.133047E-4
0.007987391
0.010133323
0.0030384199
-0.0011393483
0.0023862896
0.007776401
0.011512607
0.015236662
0.01966314
0.025142642
0.032104924
0.037665132
0.039874546
0.037741564
0.032250427
0.018837448
-0.006589283
-0.022358285
-0.018150266
-0.016667902
-0.023411034
-0.029824184
-0.03791164
-0.04329494
-0.037061088
-0.023455268
-0.013735021
-0.009505033
-0.005687778
2.6109864E-4
0.0055449023
0.0048063886
5.409164E-5
-0.004099722
-0.004794229
-0.0010797058
0.003204381
0.008246132
0.012382411
0.0137368115
0.015748665
0.014647368
0.012573593
0.01153182
0.008134626
0.01193988
0.015778264
0.0061816555
-0.003116327
-0.0044815145
-0.0015359571
0.0048029586
0.01033973
0.010132688
0.0017258457
-0.006652545
-0.009236508
-0.009756558
-0.0045575057
0.0040133484
0.0056881784
0.0018301795
7.017098E-4
0.0033062415
0.0039023333
0.001784862
-0.0043172874
-0.014997065
-0.020088593
-0.016068026
-0.009223701
-0.0035131061
-5.55691E-4
6.362431E-4
0.004209912
0.0132849505
0.017015582
0.0077309934
-6.985301E-4
-0.00903124
-0.027613241
-0.03851326
-0.025701405
-0.0038058106
0.008538533
0.009606091
0.0018542883
-0.013636829
-0.027232468
-0.028779533
-0.020720674
-0.017050246
-0.019820632
-0.011065302
0.008604593
0.027539086
0.049532227
0.061341893
0.050483063
0.035876818
0.025438005
0.019250382
0.03096383
0.054872427
0.073302604
0.074740455
0.040266275
-0.020969179
-0.067178264
-0.08374275
-0.068674974
-0.023367377
0.013689599
0.022270024
0.020301284
0.0093355365
-0.005112756
-0.009927806
-0.02005645
-0.04465086
-0.06527481
-0.077397786
-0.09404248
-0.104657814
-0.09814004
-0.0808903
-0.03834556
0.022952061
0.066068724
0.08887568
0.101372026
0.11509091
0.12848802
0.10062522
0.037292633
-0.012000232
-0.045551643
-0.065093756
-0.03516594
0.03208392
0.07663616
0.09313538
0.08856774
0.049741127
0.0058982996
-0.030049685
-0.06949721
-0.10389111
-0.12256607
-0.10745535
-0.06950743
-0.030905083
-0.013602686
-0.038594313
-0.05688515
-0.04553081
-0.01254945
0.048632763
0.07720881
0.070217915
0.07668788
0.10855548
0.16357459
0.14083837
0.039950673
-0.017446285
-0.058519136
-0.09177769
-0.07507372
-0.023968408
0.05563056
0.09944195
0.08506987
0.06534549
0.018940886
-0.07727717
-0.1972392
-0.27503213
-0.27240428
-0.23218477
-0.15949981
-0.05330421
0.039367836
0.096143246
0.12827852
0.17592779
0.24140245
0.27225608
0.24872956
0.16218168
0.008259247
-0.13809484
-0.18436146
-0.15564185
-0.12205486
-0.07865613
-0.014446974
0.07234719
0.18568231
0.24292028
0.15680264
-0.023488775
-0.18092681
-0.22105213
-0.13278703
-0.046016872
-0.054301146
-0.08056928
-0.07399676
-0.065056644
-0.049500443
-0.0035038807
0.07257259
0.1329818
0.16037405
0.18154536
0.1701122
0.11047589
0.02090443
-0.07573699
-0.12733781
-0.11777677
-0.049368892
0.026556509
0.013589873
-0.033632398
-0.042255994
-0.051529184
-0.051357996
-0.037237983
-0.031787563
-0.01421883
0.009702331
0.029266607
0.041397646
0.034600016
0.026389923
0.021852199
0.016672762
0.017567022
0.01223215
0.004788771
0.0077624307
0.007763233
0.0017316227
-0.002776363
-0.0070153703
-0.0115436055
-0.014208354
-0.014938696
-0.018766016
-0.025412368
-0.02984926
-0.031547517
-0.027805505
-0.020474155
-0.013337627
-0.004694413
0.0019732483
0.007629676
0.014875661
0.017522823
0.013635874
0.008158048
0.01441443
0.03307972
0.043650802
0.048335884
0.057990756
0.06311169
0.056106064
0.031211779
-0.0014121031
-0.01668407
-0.021582099
-0.032650262
-0.043166716
-0.046252713
-0.039197545
-0.0249841
-0.014398839
-0.010641008
-0.009524117
-0.007991957
-0.008019701
-0.009943365
-0.008164071
-0.00475002
-0.0061944267
-0.011010611
-0.015584056
-0.016294844
-0.011611146
-0.005820703
-8.6339476E-4
0.0041387985
0.009232335
0.014545051
0.017298374
0.01718247
0.017471727
0.016455533
0.013196085
0.010515119
0.007512814
0.0034301658
0.0018195512
0.0029384186
0.0024880804
0.0017657072
0.0029055553
0.0016270773
-8.113866E-4
3.923542E-4
0.0036581615
0.006159046
0.0062377183
0.0055924323
0.006398824
0.0050291913
0.002016554
0.0012401873
-0.0010068946
-0.005354237
-0.007350894
-0.008916668
-0.0105592
-0.011074339
-0.011904882
-0.009665594
-0.0074126953
-0.008658508
-0.004709778
-9.548054E-6
-7.9961424E-4
0.002193406
0.00669396
0.007149454
0.005438298
-0.0011723979
-0.008188027
-0.0082127545
-0.004810003
-0.0032246956
-0.0021776403
0.0014435904
0.0021160676
-0.0018434934
-5.301209E-4
0.003211788
0.0021423476
0.002486925
0.0044108196
0.0028379483
7.36915E-4
0.0011187549
0.0030654715
0.0035785828
0.0027615686
0.0036084473
0.004234792
0.0037004144
0.0031915708
0.0018736752
0.0011975124
3.3624837E-4
-0.0017473963
-0.0021183346
-0.002004802
-0.0027233546
-0.0030151627
-0.002140877
-2.056551E-6
4.2493074E-4
2.4872433E-4
8.260847E-4
-7.529846E-4
-0.0010497693
4.3110267E-4
3.729924E-4
0.0013983017
0.0018173222
-2.4800023E-4
-9.4136747E-4
-9.013652E-5
-1.3014863E-4
-5.241582E-4
5.1561074E-4
2.517282E-4
-0.001933278
-7.1287726E-4
0.0010567824
-0.0024465984
-0.0065834494
-0.0051919133
-0.0020142298
-0.0019846037
-5.7269755E-4
0.0011009868
-8.332298E-4
3.543164E-4
0.0020126638
1.6248356E-4
0.0022116865
0.0045792577
0.0020101347
8.1107975E-4
0.0041614743
0.006245508
0.0040525594
0.0057519968
0.007361108
-9.823713E-4
-0.0059521524
-0.003888138
-0.005066992
-0.0032951569
-3.638412E-4
-0.0035647934
-0.0041875993
-0.0015853639
-0.0023520542
-0.0026700841
-7.583E-4
-5.1439914E-4
-0.0021976517
-0.003860815
-0.0036867575
-0.0019548172
-0.0015265113
-0.0018378496
-5.5611826E-4
0.0017844007
0.003358645
0.0035815865
0.0040439945
0.0042089117
0.0032798576
0.0027982944
0.0021438343
0.001436147
6.6933315E-4
1.6581765E-4
0.0015745745
8.934736E-4
-0.0011449461
-6.085929E-4
-8.922043E-4
-4.634071E-4
0.0011868345
3.7911927E-4
-4.085805E-4
-8.11731E-4
-1.8942518E-4
0.0011932142
-9.352359E-4
-0.001842827
2.1027564E-4
-5.827062E-4
-0.0018813084
-0.0014442736
-0.0012421447
-0.0015789409
-0.0015634177
6.840245E-4
0.002152219
5.479613E-4
-2.1443918E-4
-0.001434763
-0.0027943624
-8.843825E-4
-8.583529E-4
-0.002109114
8.576143E-5
0.0020424484
0.0027689969
0.0016028878
-0.001914187
-0.0020246217
8.6957746E-4
0.0017757047
0.0011927234
8.737999E-4
-1.3766735E-4
-3.143456E-4
0.00225331
0.0016598334
-0.0027819518
-0.0034254368
-4.2321032E-4
0.0014214833
-3.960427E-4
-0.0021958489
2.84701E-4
0.002125641
0.0012973723
-7.154922E-5
-8.2709425E-4
4.8505559E-4
9.6923206E-5
-7.545769E-4
0.0012672477
8.76008E-4
-0.0011638339
-0.0015514384
-0.0020208128
-0.0011002922
0.0010434324
8.626139E-4
-4.3089225E-4
3.2453772E-4
1.5942544E-4
-0.0016251036
-3.048459E-4
9.6084963E-4
2.4860425E-4
4.6304488E-4
-0.0014451786
-0.002313754
8.077335E-4
7.5508986E-4
-8.28786E-4
4.6567284E-4
9.3199563E-4
8.3389896E-4
0.0017259123
0.0015191702
2.8500348E-4
-6.440728E-4
-6.4230274E-4
1.9410584E-4
8.527693E-4
0.0010314392
0.0010193953
8.3704246E-4
-1.0100405E-4
-0.001656199
-0.0021237482
-0.0015376585
-7.328183E-4
-9.309842E-5
-5.159042E-4
-3.2151298E-4
0.0010424751
0.0013344556
7.9043483E-4
4.8658334E-5
-0.0010014357
-0.0023244885
-0.0021546078
4.7896634E-4
9.941882E-4
9.370956E-6
0.0012001437
0.0014011047
5.532365E-4
9.834968E-5
-5.8263476E-4
-2.0511217E-4
5.4469856E-4
7.867577E-4
3.19546E-4
2.6794001E-5
7.5282407E-4
5.5670686E-4
7.1954203E-4
0.0010389086
2.0664718E-4
3.9705733E-4
-0.0010003672
-0.0034533145
-0.0027025242
-7.710946E-4
4.0288354E-4
-5.410733E-5
-2.1385727E-4
0.001051968
-1.0668991E-4
-8.4865256E-4
9.961269E-4
0.0013917228
1.0901084E-5
-0.0017964225
-0.0016007776
1.9400942E-4
7.916045E-4
0.0016354587
0.0017406896
2.6466034E-4
1.0407709E-4
0.0013576444
0.0025362424
0.0021174836
-2.1505528E-4
-0.0021073888
-0.0010567554
0.0010939594
7.1632565E-4
5.1854213E-6
-1.9510825E-4
-8.576301E-4
-5.53961E-5
-7.284225E-4
-0.0025234292
-0.0013814435
8.194934E-6
1.4766472E-4
-5.981986E-5
5.65439E-4
5.1221496E-4
-0.0022265841
-0.0027834182
-0.0025030172
-0.0026832502
0.0012970365
0.0032956416
0.0016169433
0.0010577028
5.996751E-4
0.0025020412
0.0037362243
1.2275702E-4
-0.0025922968
-0.0022400664
-9.17599E-4
-6.2460185E-4
-0.0011919223
-6.5198496E-5
0.0013624865
0.0018061859
0.0012793296
0.0011565536
0.0020941203
3.9421822E-4
-4.171583E-4
0.001700939
6.055765E-4
-4.2269847E-4
-1.6232559E-6
-0.0026338175
-0.004322828
-0.0029648005
-5.8739336E-4
0.001032977
4.705207E-4
7.039743E-4
0.0014470341
7.767077E-4
5.9699643E-5
-0.0011927908
-8.882873E-4
7.2250364E-4
-8.0059806E-4
-0.0016568762
4.1168497E-4
1.6791996E-4
-0.0011993232
-5.0759775E-4
-1.2031184E-4
2.748941E-4
0.0015352754
0.0013810002
0.0015766448
0.0020746668
3.3045962E-4
9.299005E-5
8.7167753E-4
-2.3586734E-4
-2.7804397E-4
-5.0270402E-5
-2.497835E-4
-3.6052777E-4
-0.0013456837
-7.8739825E-4
1.4178175E-4
0.0012069223
0.002616948
4.3677844E-4
-2.035825E-4
2.9355282E-4
-0.0028868914
-0.0014650645
8.8659144E-4
-0.0014785206
-5.103416E-4
9.963731E-4
0.0011148774
0.0017378691
-0.0017599832
-0.003552131
4.2817705E-5
2.6337363E-4
-0.0037064536
-0.0035221733
0.0010519121
0.0016091499
1.741469E-4
0.0010868169
2.769209E-5
-4.7116604E-4
9.012596E-4
0.001347145
0.0023031272
0.0017452181
0.0015224273
0.0026163799
5.8912206E-4
-9.073408E-4
-4.8290438E-4
-9.998561E-6
0.0012054166
9.019917E-4
3.3123692E-4
4.5701974E-5
-0.0011438484
-0.0010448231
-7.274943E-4
-9.5157634E-4
-0.0015007436
-0.001521827
1.15749435E-5
-2.0019143E-4
-5.1342644E-4
2.9246358E-4
-8.437868E-4
-8.2825246E-4
-2.1884294E-5
-1.8487494E-4
3.567274E-4
-9.644923E-4
-0.0019868691
-7.125718E-5
5.894215E-4
-1.5559177E-5
0.0011111002
0.0028666772
0.0018754106
5.226237E-4
0.002074658
0.0015774373
-6.8111694E-4
-8.159318E-4
-0.0012608618
-0.001263016
-7.493275E-4
-3.7066577E-4
0.0013458953
4.0676584E-4
-9.4959565E-4
5.001957E-4
-9.585168E-4
-0.0012600555
0.0015249847
-5.0294027E-4
-0.0019116433
0.0011511351
8.185829E-4
-0.001069581
5.8080006E-4
0.0014618168
-6.860105E-4
-9.394059E-4
2.2523335E-4
-0.0015073405
-0.0020804578
7.252702E-4
0.0024312476
0.0018493484
7.2389416E-4
0.0016681408
0.0023499005
-9.419615E-4
-0.002468044
-3.6951024E-4
1.1999231E-4
-3.5801067E-4
-8.387154E-4
-0.0011959597
-1.2073121E-4
1.5986848E-4
4.4165752E-4
0.0016784912
4.2843673E-4
-5.156686E-4
8.059124E-4
7.4833405E-4
2.7550856E-4
-4.535605E-4
-0.0016213432
-9.822381E-4
-0.0010502219
-0.00202097
-4.687505E-4
0.0018227159
0.0014303132
-3.4939422E-4
-6.360075E-4
-0.0010663257
-4.1108837E-4
0.0027624064
0.0015494532
-0.0016098621
-4.9418677E-4
-1.9941345E-4
-4.6675547E-4
7.258359E-4
6.3206267E-4
5.92407E-4
4.614996E-4
3.2510192E-4
8.108207E-4
-1.430061E-5
-3.8480858E-4
-3.4762408E-5
1.5918117E-4
0.0014686026
0.0012269386
-5.064403E-4
-0.0011774589
-0.0018836528
-0.0010260763
0.0010822387
6.142556E-4
-3.4966055E-4
-5.378787E-4
-0.0015628955
-0.0016854584
-9.984161E-4
-2.716015E-5
0.0016259006
0.002184181
0.0017830465
6.4186763E-4
-4.5303867E-4
9.91173E-5
4.9471735E-5
-9.277946E-4
-9.5949543E-4
6.7218894E-4
0.0025993418
0.0015752908
3.3096116E-4
4.1830048E-4
-8.988642E-4
-0.0019820193
-0.002534795
-0.0020614772
-8.397994E-4
-2.7149433E-4
0.0024022472
0.0024798014
-0.0017457857
-0.0025878814
-9.487853E-4
6.4527866E-4
7.888041E-4
-5.7439343E-4
2.9042963E-4
4.3343427E-4
-3.1367491E-4
3.0166353E-4
4.1635844E-4
0.0013935615
0.0014811453
5.701247E-4
8.6629763E-4
-2.7319405E-4
-0.0010003832
-2.8923855E-4
1.2875219E-4
-4.0918807E-5
-0.0014927182
-8.006515E-4
3.894257E-4
-4.3048811E-4
0.0010331899
0.002190678
7.9905015E-4
-9.991133E-4
-0.0020457068
-5.312912E-4
6.513354E-4
0.0011726519
0.0014950226
-0.0010276166
-8.4511866E-4
0.0024698689
0.0020652602
-9.099927E-4
-0.00242376
-5.4643716E-4
9.3952566E-4
-0.0013720627
-0.0031903468
-0.0020908292
9.490723E-4
0.0016780803
-0.0011095832
-0.0011379982
5.6422624E-4
4.723495E-4
-7.466037E-5
-4.357356E-4
5.7270663E-4
0.0012266369
0.0011839983
0.0011203778
-5.1857944E-4
0.0013164465
0.005016965
0.002509316
-0.0013230919
-0.0012987856
-3.3784425E-4
-2.8642593E-4
-9.783786E-4
-0.0013534642
-4.6160963E-4
6.3057226E-4
-7.4958755E-4
-0.0020918753
-4.8364393E-4
-5.190667E-4
-0.0015554524
-1.2447845E-4
5.9467884E-6
-0.0014599562
-0.0015076498
-0.0012604624
-0.0010356851
8.2743424E-4
0.0018410829
-1.3559562E-4
-4.496385E-4
0.0015364155
0.0016625484
0.0011008622
0.0012915399
0.0011776563
7.1523705E-4
0.001124486
0.0020027368
2.4824362E-4
-0.0024980553
-0.0025043066
-0.001174232
-2.9291448E-4
4.8824764E-4
0.0022502237
0.0032724456
6.057333E-4
-0.0016697128
1.05945684E-4
7.2507595E-4
-0.001421616
-0.0013623857
-6.467318E-4
-0.0011394331
1.8266667E-4
7.645792E-4
3.0224692E-4
0.0014000313
8.301578E-4
-6.76419E-4
-7.8968913E-4
-2.1992184E-4
2.839141E-4
-0.001052798
-9.766294E-4
6.895998E-4
-9.078168E-4
-0.0020251204
-8.1970496E-4
-8.237341E-4
-7.1406673E-4
6.0469797E-4
0.0010103936
-2.0780014E-4
-5.5800745E-4
6.246344E-4
0.0012231616
7.285856E-4
-2.577861E-4
9.3394025E-5
7.3844614E-4
-3.463037E-5
3.05142E-4
4.857221E-4
-2.4252318E-4
7.5205375E-4
0.0012461494
-1.1178846E-6
-9.659448E-4
-6.5711484E-4
-1.9297624E-4
-9.2171325E-4
-4.7860914E-4
0.0011503033
0.0014622777
0.001049904
6.9214485E-4
8.220872E-4
-2.2525976E-4
-0.0016692634
-1.5289242E-4
4.0742292E-4
-3.6567127E-4
8.992538E-4
4.6528518E-4
-9.218227E-4
-5.204416E-4
-7.402346E-5
2.9250438E-4
-2.8765557E-4
-4.3809207E-4
0.001150833
0.0013701381
4.5592999E-4
-4.8122398E-4
-0.0012449459
-0.0012741905
-0.0019604166
-0.0020444011
-2.5306837E-4
0.0010375207
3.4181186E-4
-2.9562993E-4
5.81247E-4
-3.0403616E-4
-0.0010601584
7.2417234E-4
-3.778843E-4
-0.001390999
4.218293E-4
-6.492395E-5
-3.5724012E-4
-2.3819746E-5
-0.0011099263
-3.1157833E-4
0.0013174713
0.0015772807
0.001201753
0.0015915444
0.001956317
-1.723316E-5
-9.791973E-4
5.7248265E-4
0.0014389654
7.360737E-4
-8.190729E-4
-3.7514983E-4
9.629031E-4
-3.6124472E-4
-0.0016953062
-5.269853E-4
0.0020295463
0.001942177
-9.925102E-4
-3.3853558E-4
0.0010668007
-0.0014366081
-0.0019521556
-5.086471E-4
-0.0012543699
-0.0016544361
-7.692533E-4
3.0217416E-4
0.0011900193
6.143709E-4
-0.0017492201
-0.0037054783
-7.623652E-4
0.0031087494
8.920671E-4
-4.0861848E-4
6.403151E-4
-7.602646E-4
8.5929176E-4
0.0019383957
3.69685E-5
0.0011659118
3.1045746E-4
-0.0012558294
-8.108812E-5
-5.942283E-4
7.350651E-4
0.0026849057
0.0013327326
2.1145765E-4
7.5652497E-4
0.0021114582
5.293898E-4
-0.0013240114
-5.984406E-5
-0.0011556566
-0.0019950853
-0.0012604787
-0.0014066136
-5.8032514E-4
-0.0018929039
-0.0015130719
0.0012293566
-8.7228086E-4
-0.0019024729
-2.0208978E-4
7.518537E-4
0.001787791
3.5111792E-4
-1.8603701E-4
6.71978E-4
-3.9558302E-4
4.5316283E-5
-2.1023276E-4
-0.001625425
-2.3083925E-5
0.0013851995
9.85888E-4
8.8174496E-4
7.634363E-4
2.2848918E-4
4.190451E-4
0.0013430561
0.0012382541
7.9113484E-4
3.4371635E-4
-6.834315E-4
-4.901917E-4
1.2436809E-4
-5.991725E-4
-0.0017360832
-0.0020249113
-0.0010752573
-6.5795914E-4
-5.9132214E-4
9.825751E-4
0.0025729414
0.0033778215
0.002502879
-7.0587266E-4
-0.0018279519
-0.0010254044
-0.0024976977
-0.0023274177
0.0010778096
0.00144075
-0.001344912
-0.0014364702
9.1794395E-4
1.9949261E-4
-0.0012641918
0.0011132318
0.0018446111
-1.0086103E-4
-5.4008723E-4
-0.0010648905
-0.0013827812
-0.0010210606
-1.6192134E-4
9.387186E-4
4.553469E-4
0.0011049825
8.739651E-4
-0.0012271041
7.552608E-4
0.002321874
7.4580085E-4
-6.336142E-4
-0.0020119862
-0.001023889
8.388392E-6
8.650181E-5
0.0016445754
8.0016296E-4
-7.944779E-4
-4.345454E-4
-6.0904975E-5
1.876686E-5
-5.023017E-4
2.677021E-4
3.8600055E-4
-0.00143701
-6.709124E-4
2.0619929E-4
-4.93873E-4
2.0055134E-4
0.0012077049
0.0014280837
7.589838E-4