-5.6069385E-4
-4.063318E-4
-0.0013702777
-4.1728886E-4
4.2277202E-4
-6.312492E-4
-3.4233482E-4
-0.0010180488
-0.0018049517
2.1890314E-4
8.1354467E-4
-2.980121E-4
-0.0011797143
-0.0024302811
-0.0020137941
-4.2325768E-4
3.6391238E-4
0.0010462701
5.156365E-4
-3.8226357E-5
0.0014818355
0.0014462589
3.8302038E-4
0.0012383226
0.0014142726
0.0014852819
0.0023083673
0.0014646968
1.4510922E-4
4.3396675E-4
0.0017706348
0.0014653336
4.8830034E-4
9.624426E-4
-7.17278E-4
-0.0024466575
-6.3760736E-4
1.9976213E-4
-0.0015920456
-0.004333602
-0.0042098598
-2.5656386E-4
8.454288E-4
-3.351744E-4
4.2160536E-5
-2.4067536E-4
-8.401192E-4
-2.92602E-4
9.608945E-4
0.0011733491
2.861889E-4
0.0012705218
0.0015895825
-0.0012226306
-0.0013482989
0.0024652702
0.0027751143
-7.3765E-4
-0.001004707
2.0515196E-4
-5.2537397E-4
3.446338E-4
8.582229E-4
-7.485607E-4
-5.704777E-4
-8.2120285E-5
-5.133357E-4
-1.2310926E-4
-6.896846E-4
-0.0014467995
2.2512769E-4
0.0011392335
-0.0016282038
-0.0036354673
-9.560823E-4
0.0023067356
0.0027483653
0.0032341145
0.0033306705
6.077613E-4
-0.0016396261
-0.0012161658
7.7543856E-4
0.0021238474
1.1483424E-4
-0.0015005314
-4.461768E-4
-7.346275E-4
-9.617609E-4
-1.1716445E-4
2.6634597E-4
-1.625662E-4
-0.0026810176
-0.0020230028
0.00168224
0.0011658125
2.455847E-4
-3.467446E-4
-0.0023249881
-0.0011890193
2.339363E-5
-1.970157E-4
-2.950184E-4
-8.1970775E-4
7.821611E-4
0.0017314487
0.0011276855
0.0016099149
0.0012346486
0.0019122596
0.002154372
-0.0010622728
-0.002586581
-0.0014580499
-8.0778816E-4
-4.762233E-4
5.575036E-4
8.0094836E-4
3.44683E-5
9.895455E-4
6.4860855E-4
-1.9765172E-4
0.0023527013
0.001991211
-0.0010823018
-0.001862721
-0.0014875802
-2.1358357E-4
-9.705534E-4
-0.0016265608
6.3775E-4
7.686358E-5
-5.8708206E-4
8.713132E-4
1.0330843E-4
-4.3360738E-4
1.0603538E-4
-1.8288958E-4
-0.0010282386
-0.0013585393
-4.2151657E-4
4.6716552E-5
6.331414E-4
6.9977046E-4
-2.7188097E-4
8.2368235E-4
8.645266E-4
-1.8599724E-4
9.1852323E-4
6.6683727E-4
6.7721575E-4
0.0014254992
1.6960144E-5
-5.7559868E-5
3.1814087E-4
6.796646E-4
0.0023814528
5.2027014E-4
-0.0021183398
-0.0015082863
-0.001995498
-0.0024080626
-2.1038148E-5
0.001994708
8.0131245E-4
-0.0015858877
-0.0012817157
-6.807905E-4
-0.0017959895
-6.3595624E-4
0.0015184099
8.4410625E-4
-4.1451442E-4
1.3847003E-5
9.416678E-4
0.0015343414
0.0020263544
0.0016765202
4.7691367E-4
2.8671679E-5
3.0065962E-4
8.696253E-4
0.00106747
-5.228754E-4
-0.0014300091
-4.1309035E-5
-3.320442E-5
-0.0012165697
-8.039815E-4
-5.198537E-4
-7.379968E-4
-6.7076465E-4
-0.0010564318
1.7312719E-6
0.0010333057
-8.0491515E-4
-0.0013418345
-1.4931579E-4
-5.6913734E-4
-0.0013591918
-0.0016533303
5.4146076E-4
0.0035595906
0.0019366731
3.6318004E-4
0.0014783965
7.506836E-4
7.1983313E-4
0.0016664873
3.2472008E-4
-7.797139E-4
-9.6422766E-4
-0.0013422956
-7.14005E-4
8.924943E-5
-1.4376624E-4
-3.6948305E-4
-6.649543E-4
-0.001379557
-0.0013030169
-4.2544454E-4
8.4525906E-4
0.0012025009
3.2808556E-4
5.327787E-4
6.9208436E-5
7.198929E-5
0.0026286747
0.0018321454
-4.1360347E-4
-8.400972E-4
-0.0017869421
1.9368673E-4
0.001242538
-9.149428E-4
-3.121312E-5
6.299445E-4
3.951482E-4
3.3741195E-5
-0.0023518424
-0.0012737395
0.0013376096
9.832052E-4
1.7503019E-4
-5.6595815E-4
-8.6724013E-4
-7.1416417E-4
0.0012742683
0.0018113403
-0.0031714228
-0.0035964614
8.999463E-4
0.0012350644
0.0012643825
0.0013076763
2.017727E-4
9.275393E-4
2.9038612E-4
-3.821005E-4
8.083423E-4
1.01591126E-4
-7.4950757E-4
-9.92879E-4
-0.002204451
-0.0012715252
7.0655363E-4
4.7905778E-4
-3.4276803E-4
-0.0010030566
-8.4807235E-4
6.174612E-4
0.0015504946
0.001368576
4.1262718E-4
7.3702965E-4
0.0014426116
-6.418827E-4
-0.0010239049
4.351622E-4
-9.436123E-4
-0.0014382023
-2.2254877E-4
0.0010839283
0.0034970066
0.0034557655
5.0491706E-4
-0.0010276539
-9.6098933E-4
-0.001252524
-0.0010176896
3.1344226E-4
5.2172586E-4
-7.317306E-4
-0.0025419288
-0.0028194159
-7.9384295E-4
-1.7146122E-4
4.2737235E-4
0.001700364
6.0289743E-4
1.224355E-4
2.2052611E-4
1.1882703E-4
0.0013986101
0.0013680328
0.0010657387
7.3575607E-4
-3.605151E-4
0.0013065457
0.003076482
0.0022316962
2.9005363E-5
-0.002920901
-0.003975319
-0.0033902382
-0.0022226572
-9.1914856E-4
-0.0021327487
-0.0024939326
0.0011005128
0.0016398635
-0.002582967
-0.0028134875
3.1624065E-4
9.1063674E-4
0.0018443048
0.0018774273
-2.9678774E-4
7.565753E-4
0.0017744559
-8.202198E-4
-0.0020925335
-2.1982245E-4
0.0018703006
0.0026561478
0.0038635647
0.00413299
0.0025919129
0.003169667
0.004221684
0.002783917
-3.521953E-4
-0.0042430274
-0.005320992
-0.003992841
-0.003956449
-0.0030688413
8.6424625E-5
0.0016520108
1.0312865E-4
-0.0015212242
-0.0010100693
0.0017299022
0.0040408173
0.0034913428
0.0016383631
-0.0012676881
-0.0030389782
-0.0028410903
-0.0046350425
-0.003425481
5.5846624E-4
-5.1117537E-4
-0.0012943733
1.4680334E-4
4.0986977E-4
0.0014465824
0.001939672
0.0022089295
0.0012519221
-0.0015483319
-0.0011170114
1.842476E-4
2.6267982E-4
5.0138036E-4
-7.389208E-4
-3.7545795E-4
0.0020141806
0.0023616322
8.8784983E-4
-4.4642235E-5
0.0010653251
0.0018812942
0.0018853231
0.0020356171
-7.446905E-4
-0.0024478857
0.0011390498
0.0028421024
9.649368E-5
-0.0025487833
-0.0032164417
-0.0014255001
4.8438297E-4
1.5992544E-5
-0.001637599
-0.002909998
-0.0016421853
9.649065E-4
0.0011596412
7.624332E-4
2.87126E-4
-0.001148286
-6.3602085E-4
6.916964E-5
-2.112787E-4
9.166502E-4
5.047078E-4
-8.88544E-4
0.001008243
0.0021272064
-1.3937225E-4
-6.654784E-4
7.074098E-4
6.237752E-4
1.9824553E-4
3.616178E-4
0.0012036428
0.0017190644
2.655226E-4
-3.5288546E-4
3.801513E-4
7.582958E-4
0.0012772549
-3.5638346E-5
-0.0020195772
-0.0015918899
-7.331036E-4
-0.0019479123
-0.0039609736
-0.0024668318
-1.1609014E-4
-7.392649E-4
-1.8777429E-4
7.4708427E-4
0.0010008197
0.0015971671
6.453676E-4
4.8003445E-4
-6.057718E-4
-0.0019605132
7.2690385E-4
0.0018373049
0.002059678
0.0023404604
-0.0012761764
-0.0017941078
0.0015247383
0.0026955942
0.0015561571
-1.8436775E-4
3.654715E-4
8.7999087E-4
9.3163684E-4
0.0010351444
-0.0022003604
-0.0029252872
-0.0014396248
-0.002847879
-8.796814E-4
0.0028200138
0.0024093874
-1.745937E-4
-0.0022464925
-0.0020097098
-7.6499634E-4
0.0010669391
0.0021383886
0.0012999679
0.0021416303
0.0014778902
-0.0014154622
-0.0010626531
-7.8635087E-4
-0.0021072095
-0.002608837
-0.002690611
-0.0020707673
-8.7574153E-4
0.0015222131
0.0021535263
-1.9629316E-4
3.8167345E-4
0.0017794427
4.2050992E-4
-9.199644E-4
-8.21804E-4
0.0018827234
0.0030877674
4.2721783E-4
-8.626469E-4
-8.9572114E-4
-1.5821998E-4
0.0013436716
7.054322E-4
1.5619678E-4
4.4983454E-4
1.8100532E-4
7.503219E-4
0.0019995489
0.0018693518
-0.002270497
-0.0059677465
-0.0030624373
3.4231288E-4
2.1836357E-4
9.096831E-4
0.0012807631
-9.4888546E-4
-0.0015468325
4.948523E-4
6.47639E-4
9.075996E-4
0.002376344
4.1649034E-4
-9.7041E-4
1.2079448E-4
-4.1325565E-4
-3.2218884E-6
-1.1782163E-4
-0.0010944726
0.0015064683
0.0018298466
-0.0011439227
-0.0012938114
-8.9285726E-4
-8.003721E-4
5.800334E-5
2.7742176E-4
9.4488513E-4
0.0013968599
-2.0668143E-4
-0.002324223
-0.0018567209
4.6324075E-4
6.8166286E-5
-6.914194E-4
0.0015414354
0.0016969547
-4.8437898E-5
-1.0181637E-5
-1.3311913E-4
6.838035E-4
0.0020112272
8.8905974E-5
-0.0017375648
-8.462537E-4
2.0780318E-4
7.2823116E-4
5.392738E-4
-4.2551546E-4
4.2434948E-4
0.0026958585
5.96998E-4
-0.0026886999
-3.2158633E-4
2.7047555E-4
-0.0021014202
-3.2450474E-4
2.3690736E-4
-4.5036644E-4
0.0016463476
0.0018254404
0.0010195277
3.4744278E-4
-2.6725323E-4
8.483848E-4
-4.409123E-4
-0.0019393152
-0.0015881949
-0.0032601578
-0.002013361
2.4532166E-4
-0.0015966425
-9.3077257E-4
2.3013927E-4
-6.973777E-4
0.0010922794
0.0016762688
4.2571235E-4
2.4294374E-4
-9.611328E-4
-7.5747375E-4
7.456469E-4
0.001237526
0.002513204
0.00263916
0.0016181441
0.0017027813
8.533643E-4
-4.7905714E-4
-1.9015934E-4
0.0010264735
0.0015820523
8.047006E-4
-4.1304508E-4
-4.041853E-4
0.0011219176
0.001303773
-1.3154102E-4
-0.0011429765
-0.0021448694
-0.0012643748
-4.6589316E-4
-0.003314536
-0.0042905165
-0.0021710433
-0.0013543313
-0.0018888881
-0.0021700046
-0.0010788969
-5.4558925E-4
2.3715087E-4
0.0018647835
7.2587427E-4
9.1914844E-4
0.0027188729
0.0020174892
0.002765038
0.0019996841
-0.0014132581
-6.887482E-4
4.9096346E-4
-7.3454436E-4
-8.5925515E-4
3.2922518E-4
0.002377199
0.0033859336
0.0021568479
1.0095976E-4
-0.0012337354
9.430668E-5
0.0025903352
0.0017924944
-0.0012885861
-0.0021216476
-0.0015198844
-0.0010065134
-3.4723183E-4
-9.676075E-4
-8.582606E-4
-3.8301008E-4
-5.1706843E-4
0.001558524
4.485762E-4
-0.0023005332
1.8394459E-6
6.3423306E-4
1.5977268E-4
4.4966984E-4
-0.0027332888
-0.0029350824
-1.195266E-5
-4.6247232E-4
-0.002387896
-0.002614062
-0.0016647626
-0.0023668464
-0.0014973267
0.0011240345
-2.578781E-4
-4.8488542E-4
0.0015061314
0.0014896339
0.0025000449
0.0031910501
0.003796491
0.004742648
0.0034539304
0.0049238647
0.0067889146
0.0028405543
-0.0014151537
-0.0016266139
3.8525372E-4
0.0012854312
0.0010769722
5.9651013E-4
-0.0026037707
-0.0040585785
-0.001938135
-0.003227549
-0.0057232915
-0.005698948
-0.0051727486
-0.002951403
-0.0012184844
-0.00219982
-0.0022497098
-0.0014928575
-6.129401E-4
0.0017256775
0.0025753202
0.0013342367
9.3429023E-4
1.6980387E-4
-8.5504825E-4
0.0011735657
0.0029242397
7.4669754E-4
-1.7403858E-4
0.0012080631
0.0028756794
0.006819218
0.007460766
0.0039624805
0.0031524943
0.0013378881
-6.6185533E-4
-0.0014410737
-0.0059724306
-0.0062020803
-0.0018997791
-0.0016170217
-7.1198534E-4
-3.206426E-4
-0.0021351909
-6.5591674E-5
0.0028131076
0.003093871
0.0017627283
-1.6582994E-4
0.0012189085
0.003345542
-4.7664274E-4
-0.0048386436
-0.0025289082
-0.0010534023
-0.0036288237
-0.0027787916
-0.0018336447
-0.0035062402
-0.0020509567
-2.94879E-4
-6.2179955E-4
7.109706E-4
0.0027831853
0.0038149399
0.005113896
0.0069735274
0.0062583345
-1.9760879E-5
-0.00765789
-0.008672415
-0.004840038
-0.0035806126
-0.0029953357
-7.266952E-4
0.0016098467
0.0055640046
0.0076447646
0.0052011632
0.0027776288
0.0013434879
4.9552857E-4
-0.0012513971
-0.0038015728
-0.0030160644
-0.0027976937
-0.00580118
-0.0060663167
-0.0023805606
0.0011534339
7.368794E-5
-0.002060805
8.4205525E-4
0.002579092
0.0025026365
0.0051645725
0.002605241
-0.004140147
-0.0058433455
-0.004890201
-0.0024469926
0.0023175047
0.0066306423
0.011341613
0.014653943
0.012924849
0.010675555
0.010577519
0.006929963
0.0012475024
-5.2523357E-4
-0.0026377612
-0.0053957514
-0.0049781054
-0.0051640496
-0.0049337046
-0.0056251604
-0.010327744
-0.010678367
-0.006930869
-0.0037871534
8.80907E-5
3.0191767E-4
-0.0025615061
-0.0044153063
-0.0052811983
-0.0044489424
-0.0027803802
2.4424784E-4
0.0017087124
3.602388E-5
6.822491E-5
-8.8291283E-4
-0.0033184306
-0.0039017668
-0.003965112
-0.0046061175
-0.009456992
-0.014697056
-0.016955527
-0.01949843
-0.012877718
0.0031426423
0.018594755
0.033398475
0.04260323
0.045638196
0.042392883
0.026289407
0.0061600413
-0.010772372
-0.020090658
-0.010534209
0.009104104
0.021773096
0.022448668
0.014468348
0.008909701
0.0053924345
-0.004442844
-0.01648951
-0.027047746
-0.035907842
-0.041886933
-0.047393203
-0.052880578
-0.056502953
-0.05162842
-0.036125116
-0.022463974
-0.010745329
0.0066546067
0.021352435
0.029696638
0.037458155
0.047915015
0.060049955
0.06525359
0.060336772
0.05012496
0.037306834
0.023664387
0.008918301
-0.007021832
-0.021169407
-0.025907896
-0.018717296
-0.012513351
-0.010689614
-0.010756586
-0.022345725
-0.037440132
-0.040556964
-0.034994464
-0.025710572
-0.019361397
-0.019698089
-0.017679844
-0.011122799
-0.0069950065
-0.0061363857
-0.004691147
4.3612358E-4
0.0124526685
0.02881793
0.040033415
0.044904727
0.049531426
0.05279828
0.048078675
0.035451453
0.019778322
-1.5954518E-4
-0.018711492
-0.024706176
-0.022023836
-0.01943107
-0.024910906
-0.040249765
-0.05502968
-0.063224435
-0.05537027
-0.027558956
0.0013348494
0.020374974
0.031085335
0.035381842
0.037991118
0.038719457
0.03281317
0.02048684
0.014922795
0.016994234
0.013818586
0.016825145
0.021057665
0.0023684632
-0.020603042
-0.028739149
-0.02856745
-0.019373884
-0.007923355
-0.007290224
-0.013516987
-0.011655468
-0.001908757
0.0016805935
0.002175296
0.007051187
0.0064628255
-0.006724375
-0.026036333
-0.03776346
-0.032807987
-0.023198307
-0.024860043
-0.019986367
0.0040730336
0.01788629
0.016149737
0.016296504
0.027062116
0.06560615
0.09783057
0.08353917
0.061787132
0.051886156
0.033395126
0.0035072751
-0.026789939
-0.031294998
-0.019847466
-0.03472838
-0.06592567
-0.06793724
-0.052762687
-0.06732379
-0.08031304
-0.06947753
-0.07793001
-0.07080042
-0.023925588
0.007931598
0.030256316
0.05911415
0.063700184
0.03601489
0.0062944023
-0.0056208107
-0.0023934224
0.032240294
0.071089104
0.0785487
0.10325726
0.13970064
0.13524899
0.11084276
0.116372615
0.14626674
0.10718638
0.0012549405
-0.08352227
-0.17646177
-0.24944164
-0.23787966
-0.20755705
-0.16763204
-0.11379418
-0.10338967
-0.097775385
-0.03849137
0.043579787
0.10170146
0.12256644
0.10254735
0.07061014
0.07175337
0.07793375
0.066993035
0.031855553
-0.057301115
-0.13146752
-0.1349548
-0.06484459
0.09113447
0.20266178
0.21150082
0.20544815
0.12984167
-0.009365047
-0.10231583
-0.15602483
-0.1647484
-0.13441564
-0.11738431
-0.08944576
-0.03566294
0.0138150845
0.049613286
0.094878204
0.15647915
0.1872437
0.17188224
0.11708826
0.024296727
-0.06211178
-0.122534595
-0.15048599
-0.13725589
-0.11539032
-0.084852494
-0.04738947
-0.027315872
-0.015717335
-0.01894039
-0.011936075
0.027382871
0.040617816
0.026337173
0.017720269
0.001558871
-0.012068217
0.009954341
0.08979376
0.14793408
0.10224091
0.05874927
0.03947082
-0.045389533
-0.08900167
-0.04061971
-0.017411374
-0.012408679
0.016262587
0.036697954
0.025028974
-0.025469048
-0.07390526
-0.08673676
-0.08296823
-0.06498035
-0.03788415
-0.026672274
-0.02749364
-0.015356441
0.009498486
0.031085799
0.048381872
0.05619786
0.06200987
0.07828858
0.08242279
0.07349973
0.064515404
0.0438891
0.01840824
-0.006404468
-0.034150932
-0.052142844
-0.054975778
-0.049693175
-0.04436023
-0.03735558
-0.024627395
-0.010204924
0.0025146806
0.008018972
0.011029966
0.014615807
0.008723115
0.0015351435
-7.37591E-4
-0.004089261
-0.0060598813
-0.007568123
-0.008280902
-0.008774367
-0.010303206
-0.008098632
-0.006208368
-0.0050400887
-0.001981807
-1.4244583E-4
0.0032020025
0.006216183
0.0063156714
0.007022918
0.007874434
0.0083258785
0.0074913823
0.0058972123
0.0053380304
0.004729523
0.0041610333
0.0028085527
0.0021103474
0.0038998148
0.0044809887
0.0033359274
0.003752214
0.005321724
0.0035192738
2.7280103E-4
0.0011714519
9.6700777E-4
-0.0015769635
-0.0014275498
-0.0017226504
-0.0016676561
1.6337348E-4
-1.6465929E-4
-0.0020357878
-0.0042226743
-0.0052104145
-0.004718877
-0.0056000245
-0.0074873106
-0.007872518
-0.003729307
5.950532E-4
-0.0012241127
-0.0027559695
-0.0012794485
-0.0015530132
-0.0033810632
-0.004850039
-0.0014504679
0.004085483
0.0037896195
0.0035668032
0.007917906
0.010838509
0.008940948
0.0044937576
0.0049381508
0.008084719
0.0039970675
-0.0032510038
-0.006939113
-0.006185831
-0.0017423943
-3.7971235E-4
-0.0021638118
-0.0016057233
-0.001266408
-0.0024901382
-0.0032532986
-0.0028513581
-0.0016423811
-7.546641E-4
7.7380566E-4
0.0011749986
-7.8607217E-4
-0.0018912451
-0.002689763
-0.0029785857
-9.5568254E-4
0.002359528
0.004903329
0.0033852106
0.0010501746
0.0015329022
0.0013574295
0.0011000618
0.0014777066
0.001624078
0.0024528464
0.0025659224
0.0023249805
3.202528E-4
-0.0034317903
-0.003717934
-0.00304083
-0.0036798082
-0.0022840444
-3.9590933E-4
-4.9217964E-5
-3.3704293E-4
3.6886393E-4
0.001323772
4.2514037E-4
-4.0389522E-4
-1.8305445E-4
2.8118453E-4
3.845337E-4
-7.3924713E-4
-8.839739E-4
-4.3951106E-4
-0.0016421245
-0.0022859203
-0.0011600305
8.1416825E-4
0.001492501
-2.9722753E-4
-0.0011446591
2.538836E-4
0.0017043466
0.0021191724
8.2874973E-4
-5.2025804E-4
5.757821E-4
8.5149583E-4
-0.0019373219
-0.0018095954
0.0013775462
0.0012810131
1.879991E-4
-5.190818E-5
-9.653973E-4
4.3575442E-4
0.0018358201
2.050546E-4
-2.907691E-4
7.288429E-4
2.2030326E-4
-0.0011773212
-0.0015133446
-9.1018685E-4
6.269713E-4
0.0028920067
0.002834292
5.861786E-4
-0.001771644
-0.0037224006
-0.0027720728
-6.7340076E-4
-8.905638E-4
-0.0015749205
-0.0013725951
-8.146784E-5
8.846714E-4
6.392612E-4
5.646492E-4
-0.0013638455
-0.0033341981
-0.0017452602
-7.9770735E-4
-8.99653E-4
8.989492E-4
0.0020686453
0.0022050634
0.00225006
8.776747E-4
-1.2960556E-4
0.0014277737
0.0034556699
0.0022473445
-0.0012472738
-0.0011598335
0.0011221248
-8.919024E-5
-0.0013842933
-6.5505796E-4
-3.2212227E-4
0.0010097049
0.0022582863
0.0017496096
-3.252776E-4
-0.0027221418
-0.0012298509
-4.3956315E-5
-0.0027115468
-0.002878228
-0.0021383162
-0.0012474592
0.0024703473
0.0030410064
0.0016206787
9.17178E-4
-0.0013514645
-7.675529E-4
4.8319745E-4
-0.001118182
-9.5919304E-4
-3.0763037E-4
7.211832E-4
0.0023175755
6.6642504E-4
-6.40195E-4
5.4573105E-5
4.2341105E-4
4.47363E-4
-0.0010246363
-0.0019471531
-0.00220823
-0.002503202
2.6241297E-4
0.0018710848
-4.4275657E-4
-0.002551093
-0.0022333984
0.0012729333
0.0027576687
7.0891704E-4
2.4810294E-4
-0.0010474017
-0.0020223544
2.519796E-4
0.0014127727
0.0025863382
0.0035678863
0.0011828083
-2.5246813E-4
2.9378338E-4
-2.157145E-4
-0.00120191
-0.0020279873
-0.0016745601
2.1138138E-4
1.5436581E-4
-0.0014545321
6.318224E-4
0.0024654553
-9.903248E-4
-0.0025200746
-6.3450215E-4
-6.490122E-4
-0.001372962
-0.0017471982
-0.0010344556
-6.602932E-4
-0.002435723
-0.0018846202
-2.7026064E-4
5.891791E-4
0.0025173456
0.0019056605
6.4107636E-4
0.0010938115
0.0014499959
0.002245789
3.9068426E-4
-7.1040634E-4
0.0013243334
4.035742E-4
7.330976E-4
0.001838805
7.891708E-5
0.0012199058
0.0014298589
-4.1095793E-4
6.5164565E-4
0.0011914334
5.141569E-4
-7.053482E-4
-0.0013864383
-7.253613E-4
-0.0014379653
-0.0015547498
-0.0010836963
-8.711309E-4
-2.3255686E-4
-0.001487733
-0.0015877422
-4.2478254E-4
-5.005433E-4
6.13215E-6
-0.0017801186
-0.0037583255
-0.0019413932
8.153957E-4
0.0037857
0.0033334284
-9.72921E-4
-0.0020542096
3.2944194E-5
0.001390079
8.143186E-4
-1.3717257E-4
8.3383505E-4
0.0016020094
3.5918097E-4
-1.9745195E-4
0.0016081872
0.0022179002
5.689913E-4
-7.593718E-5
-0.0011104213
-0.0019219433
6.629137E-6
6.84345E-4
-4.5635598E-4
-2.8978288E-4
9.270407E-4
0.0014902909
-2.2306669E-5
-0.0012746386
-0.0011228607
-9.236375E-4
6.0148308E-5
-7.651241E-4
-0.002311132
-1.7958412E-4
0.00115118
4.0741736E-4
0.0010176281
0.0020350802
0.0029476066
0.001756391
-2.5520028E-4
4.422696E-4
-4.7943566E-4
-0.0020397624
3.211227E-4
0.0010442918
-0.0014403828
-0.0019351303
-7.3496177E-4
-2.0673036E-5
-5.1307503E-5
-6.448521E-4
-0.0011355359
-8.126681E-4
-1.3517193E-4
-8.95695E-4
-0.0014978419
-3.1730004E-5
-2.6479963E-4
-0.0011771673
9.933542E-4
0.0010874772
-0.0014383569
-5.88542E-4
0.0019302788
0.00240578
-1.7887847E-4
-0.0030699696
-0.0011919783
0.00191383
0.0020594997
0.0012650512
6.842943E-5
7.735895E-4
0.0026619257
7.3134934E-4
-7.3891657E-4
8.229116E-4
2.2429942E-5
-4.358295E-4
9.542998E-4
-1.0640258E-4
-7.111692E-5
8.1441127E-4
-8.338065E-4
8.547929E-5
0.0019955277
9.0649154E-4
2.0031835E-4
9.869116E-5
1.2828317E-4
1.8081997E-4
-1.4939455E-4
-5.657831E-4
-0.0026981095
-0.0026821739
4.155656E-4
4.4155857E-4
-8.5971184E-4
-0.0016347014
-0.002530462
-5.606892E-4
0.0016387594
-8.820674E-4
-0.004493496
-0.0019419825
0.0024850254
0.0012496678
-2.2251904E-4
3.2440148E-4
1.1458864E-5
0.0010179158
0.0015125662
0.0010793012
0.0016812622
0.0012614966
9.928825E-4
0.0020058535
0.002254192
0.0015684502
9.663444E-4
1.500375E-4
-0.0012693335
-0.0021618316
-0.0029984065
-0.0024437218
2.6215162E-4
4.85966E-4
-2.0741088E-4
0.0010732511
0.0014524413
-3.6729794E-4
-0.003945549
-0.002966058
0.0020450703
0.0013802799
2.3013675E-4
0.0014093919
-7.5884484E-4
-9.2353247E-4
7.2543096E-4
1.4599111E-4
4.2909047E-5
-6.692246E-4
-8.787705E-4
9.1454264E-4
0.0021173595
0.0026794306
0.00235169
0.0015281754
-4.6539417E-4
-0.0028716577
-0.0017289618
-9.2437776E-4
-0.0012293911
3.9184606E-4
-0.0010482088
-0.002991594
-0.0012299377
8.877897E-4
0.0029422077
0.0021724966
2.6641063E-5
0.001052011
5.622527E-4
-0.0017271294
-0.0029441654
-0.0032628272
-7.6995307E-4
0.0018045638
0.0013372885
2.5836934E-4
6.031942E-4
8.2831644E-4
-6.345097E-4
-5.6925265E-4
5.6203234E-4
2.0690089E-4
6.964118E-4
9.983893E-4
7.362066E-4
5.3632342E-5
-0.0018894684
-9.1719E-4
7.0346025E-4
-1.2241595E-4
-5.7921616E-6
5.9957453E-4
0.002091633
0.0025570001
8.87106E-5
-7.8140036E-4
-7.664698E-4
-7.2339375E-4
-1.2406835E-4
-7.845094E-4
-5.519671E-4
1.3445548E-4
2.0956632E-4
6.5519346E-4
7.35758E-4
0.0017022915
0.0017186439
-9.832351E-4
-0.002713454
-0.0014170137
6.489302E-4
-6.182226E-4
-0.0016667106
0.0015239066
0.001825589
-0.0010571544
-9.891153E-5
0.0016763085
-4.891698E-4
-0.0030891325
-0.0022571308
-2.0035531E-4
1.4763861E-4
-7.141415E-4
-2.989821E-4
0.0014400078
0.0020796724
0.0021615878
8.634658E-4
-0.0015912899
-0.0015890409
-0.0010101263
-9.44819E-5
0.0011907996
1.34601E-4
4.3207576E-4
9.853446E-4
-6.281792E-4
-3.2039877E-4
7.957128E-4
0.0016538572
0.0021490143
0.0012999066
0.0012415418
9.961566E-4
5.8370084E-4
-1.3794735E-4
-0.002815511
-0.0031671706
-0.001638716
-0.0016086223
-9.881202E-4
-3.0249075E-5
0.001694725
0.0034100574
0.0016259403
3.7552409E-6
-1.6440522E-4
-0.0018390829
-0.0012570849
7.578402E-4
-0.0012659457
-0.0028490245
1.6744823E-4
0.0020487488
-2.9158432E-4
-0.0015713108
-1.09005014E-4
4.3262533E-4
9.655243E-4
0.0014918945
2.1392445E-4
-1.2307038E-4
3.588264E-4
3.8641904E-4
5.0013425E-4
-5.951959E-5
1.2214459E-4
4.7099785E-4
9.140055E-5
3.4837707E-5
-7.6963E-4
-0.0010783281
-9.797926E-4
-1.6001136E-4
0.0018983026
0.0010006522
4.3909953E-4
5.50256E-4
-0.0019843008
1.4399276E-5
0.00305565
0.0012451359
4.6373944E-4
-1.9776564E-4
-0.0017543997
-0.0015754852
3.7892468E-4
0.002155799
-2.1397356E-4
-0.0021499197
1.5935421E-4
7.1178225E-4
-0.0012798902
-0.0016159762
4.4204528E-4
7.3092524E-4
-6.506248E-4
-1.9994164E-5
-0.0013502741
-0.0019512578
0.0020465103
0.0012850278
-0.0028896353
-0.0023903926
-9.063727E-4
-4.381579E-4
6.3009694E-4
9.75468E-4
4.175569E-4
5.763364E-4
0.0020696917
0.003489936
0.003935455
0.0029936105
8.6991914E-4
-2.068018E-4
-7.431121E-4
-0.001768327
-0.0015032814
-0.0010361047
-0.001336729
-7.6218304E-4
2.222458E-4
4.798486E-4
-1.6478525E-5
-8.537704E-5
4.404938E-4
-3.3625017E-4
-9.242025E-4
8.7128974E-5
-1.9808789E-4
-0.0017186861
-0.001647623
1.721013E-4
0.001462922
0.0012013621
0.0014688724
0.0016310918
-3.890475E-4
-0.0015519145
-7.2035484E-4
-4.2774243E-4
2.7128225E-4
0.001117389
6.82066E-5
-5.262689E-4
2.1770172E-4
-3.373713E-4
-0.0012137345
-7.4620056E-4
-6.096152E-4
-8.9829374E-4
-4.6393427E-4
-6.9094345E-4
-0.0010669574
4.614471E-5
3.6075866E-4
1.5764528E-4
0.0010210223
5.572277E-4
1.2457072E-4
9.922211E-4
0.0010463018
0.0015844755
0.0016421548
9.4417206E-5
4.5220455E-4
0.0017349063
4.766489E-4
-8.101697E-4
0.001148778
0.0017244277
-0.0019612925
-0.0029450492
-5.1383936E-4
1.3098462E-5
-1.6346198E-4
2.504349E-4
8.3063217E-4
8.9661597E-4
-5.7928963E-5
-5.469095E-5
4.7155463E-5
-7.2946516E-4
-7.9910364E-4
-7.9707964E-4
-0.0012525611
-0.0015981401
-0.0012844799
-1.4813998E-4
0.0013166755
0.0019617837
4.2999157E-4
-0.0014957337
-0.0024308974
-0.0017474068
0.0010527382
0.0016067006
0.0010595978
0.0016819552
-7.985311E-4
-0.0011576168
0.0021947513
0.0018265403
0.0010016445
7.9003256E-4
-7.0922915E-4
-2.513979E-4
2.6468595E-4
4.696539E-4
9.652112E-4
1.8426786E-5
-7.7884283E-4
-0.0014533865
-9.90839E-4
2.7418724E-4
-2.611175E-4
-1.7262068E-4
-3.3261286E-4
-0.0014162733
-6.7063427E-4
-8.614754E-4
-0.0021118757
-9.878917E-4
0.0013680947
0.0012974098
-9.0564456E-4
-8.581811E-5
0.0015778993
4.6103293E-4
0.0015879704
0.0026179103
2.0240176E-4
0.001108754
0.0032170364
0.0010594117
-2.909639E-4
-8.393603E-5
-9.245804E-4
-0.0012857126
-0.0027917766
-0.0031028918
3.987039E-4
9.246972E-4
-6.912672E-4
5.784709E-4
6.179286E-4
-0.0011787859
-0.001057988
3.833296E-4
-2.3196684E-4
-0.0019694401
-5.377234E-4
5.3991034E-4
-9.802477E-4
-3.2238368E-5
0.0019001985
0.0016247011
8.4432797E-4
-2.8711169E-5
-0.0010755921
-6.7707483E-4
5.1359396E-4
-1.2182589E-4
1.8227388E-6
0.0012868736
4.0440493E-5
-1.8313214E-4
2.3993575E-4
-0.0012670527
1.2794476E-4
0.0010125597
-0.0011634056
-4.7430716E-4
0.0011289258
0.0011829974
7.560731E-4
4.0947102E-4
0.0020784636
0.0015885277
-0.002015442
-0.0019962823
-9.373504E-7
4.6616484E-4
8.1291737E-4
9.002581E-4
8.0525415E-4
3.2607684E-5
-6.159159E-4
6.277524E-4
7.046651E-4
-8.1961224E-4
-0.0011961273
-0.0014596831
-0.0017606887
-0.0012539177
-7.5122656E-4
-7.218955E-4
-7.166353E-4
2.7732798E-4
9.96127E-4
5.7166326E-4
6.133382E-4
-3.1258288E-4
-0.0014085048
9.3363365E-4
0.0021935015
-5.7465094E-4
-0.001698152
-4.0323474E-4
5.3358974E-4
9.634469E-4
0.0010324761
0.0014638988
3.7496188E-4
-0.0014798756
-1.7058848E-4
1.4182876E-4
-0.0021156496
-0.0017091471
4.7691955E-4
0.0014379593
0.0012193781
0.0012498569
9.920677E-4
3.7877134E-4
0.001747638
5.998161E-4
-0.0027722241
-0.0019864242
-7.3799695E-4
6.6967605E-4
0.0018345135
-6.328802E-4
4.907757E-4
0.0026887148
1.4511746E-4
-9.24804E-5
6.8689586E-4
-2.4332208E-4
9.1556416E-5
-0.0013317859
-0.0029781044
-6.574871E-4
6.3946785E-4
-8.594544E-4
-9.1421354E-4
-0.0011074537
-0.0011809381
0.0015904276
0.0022847226
4.4042882E-4
4.2364467E-4
1.2918859E-4
-0.0011613372
-0.0012169222
-1.19587225E-4
6.8830285E-4
5.148068E-4
-8.2258164E-4
-0.003022124
-0.0021985152
8.847412E-4
0.0012988825
8.9014164E-4
7.0686825E-4
4.5348058E-4
8.7410456E-4
3.4354843E-4
1.6423814E-4
4.2838094E-4
6.69837E-4
0.0015060409
6.5589487E-4
8.472697E-5
1.08071225E-4
-5.533832E-4
0.0010308012
0.0015005328
5.173616E-4
0.0010321408
-0.0010031547
-0.0028313044
-8.2444947E-4
8.9997967E-4
6.382249E-4
-0.0016482351
-0.0027466465
-4.500016E-4
4.857523E-4
-3.9967266E-4
-6.418813E-4
-8.35338E-4
-2.9525725E-4
3.7687263E-4
5.2946216E-5
-4.876155E-4
-0.0010017989
-4.1815222E-4
3.0963824E-4
5.1323026E-5
0.0014106112
0.0024254117
0.0012511704
0.0015061595
0.001876549
5.2018435E-4
-7.982931E-4
-0.0014774111
-0.0012038216
-0.0013176148
-3.892249E-4
0.0013776083
9.96662E-5
3.0958437E-4
6.831483E-4
-0.0026170884
-0.0012375207
7.650736E-4
-0.0014797387
1.01112346E-4