0.0024447106
4.3329233E-4
-0.0011571998
0.0020667294
0.001106598
-0.0013020604
6.520466E-4
3.0569904E-4
-0.0018868933
-0.0010240406
0.0011554718
0.0010151592
-0.0014238623
-0.0015065512
6.419935E-4
7.569206E-4
2.8774427E-4
8.1324036E-4
1.7582976E-4
-0.0015350212
-0.0022216828
-6.108479E-4
0.0015994062
0.0015761249
6.3551625E-4
-3.9276533E-4
-0.0014011607
-9.035757E-5
7.378886E-4
-1.02442136E-4
9.4056636E-4
0.002107091
0.0011194794
-0.0014973814
-0.0022512784
-3.4006202E-4
-0.0014464296
-0.0016971756
0.0019404967
0.0021138755
5.5681274E-4
5.0399697E-4
4.1753467E-4
4.0384132E-4
-6.493997E-4
-7.136784E-4
-3.2033952E-4
-0.0011215013
3.35059E-4
0.0012472639
-4.223094E-4
-9.013581E-4
-5.9143885E-4
-3.3074323E-4
-3.0186247E-5
-2.759536E-4
-1.9943174E-4
3.835576E-4
-1.0573543E-4
-9.204861E-4
3.6520974E-4
0.001123026
3.049272E-4
3.2810358E-4
-0.0010243118
-0.0023439904
-5.1635155E-4
0.0012277314
0.0013997321
4.1851148E-4
-7.462255E-4
-9.5857264E-5
4.9135817E-4
-3.7865473E-5
3.7667877E-4
8.5638295E-4
7.031751E-4
0.0017458615
0.002006636
-6.1127666E-4
-0.0021103672
-7.037305E-4
5.7476194E-4
0.0013205602
0.0021752366
7.811028E-4
-0.002356544
-0.0024292727
-3.1017957E-4
3.849137E-4
3.2358378E-4
-2.1287556E-4
-5.361425E-4
-6.8209367E-4
-4.8754358E-4
0.0010449027
3.666327E-4
-1.9825416E-4
0.0010236644
-0.0014236631
-0.0023625589
-2.354786E-4
-4.893698E-4
-1.919806E-4
-3.1628057E-5
1.09534994E-4
0.0014241328
-2.8614342E-4
-0.001422593
-2.3130277E-5
2.1717104E-4
4.5432485E-4
6.673385E-4
2.618573E-4
-1.4017266E-4
-2.8289066E-4
-1.3975463E-4
-8.297383E-4
-9.905765E-4
-2.460985E-4
5.808132E-4
0.0016619939
0.001267669
0.0013308629
0.0019347438
-6.9707145E-5
-5.449276E-5
0.0021360728
0.0011459581
-1.3055226E-4
2.1202884E-4
3.9966515E-4
8.5896737E-4
0.001045779
-4.7467215E-4
-0.003052864
-0.0018007127
0.0018118118
-9.050497E-4
-0.004105422
-0.0011852455
-4.94783E-4
-0.0014292415
-2.0482292E-5
-5.5064826E-4
-0.001612945
-0.0018214812
-0.0011880479
0.0014888325
0.0017549484
7.2861556E-5
8.984635E-4
0.0022135794
0.0018378545
-1.3684704E-4
-0.0013590626
-9.128397E-5
5.067679E-4
1.0614917E-4
8.419282E-4
0.0013450986
0.0010780127
4.9303035E-4
-6.332904E-5
7.1893237E-4
6.807757E-4
-0.0010616188
-8.523581E-4
-6.193518E-4
-0.0014292668
3.4828178E-4
9.000077E-4
-7.372161E-4
1.5404544E-4
7.02161E-4
-4.484728E-4
-8.9575886E-4
-0.0013952192
-0.0012983948
-3.196685E-4
5.400323E-4
0.0013417065
0.0022663383
0.0025947234
5.2743463E-4
-0.0015049111
-0.0012413934
-0.001207192
-5.7494955E-4
1.1502543E-4
-0.0015232754
-0.001486974
5.5814645E-4
0.0010570851
0.0011353601
4.0135108E-4
-9.938785E-4
-2.120352E-4
7.020816E-4
-1.9187292E-4
-6.1790255E-4
-6.5525394E-4
-7.6017337E-4
3.829303E-4
5.475762E-4
-9.831312E-4
-6.893116E-4
5.3823466E-4
7.027003E-4
1.5398666E-4
-8.83293E-4
1.9486003E-4
0.001680821
9.5644797E-4
0.0019366882
0.002067243
-6.620378E-4
-4.900922E-4
2.077312E-4
-0.0011390051
-0.001018832
-7.3086837E-4
-9.043514E-4
2.7490885E-4
8.304738E-4
-8.748713E-5
2.2835119E-4
7.9811586E-4
-1.5692729E-4
1.9336895E-4
4.7083845E-4
-0.0012835178
-0.0018771294
-0.0012783561
-7.581481E-5
4.7946934E-4
-6.566786E-4
-1.4830608E-4
5.763062E-4
6.5212615E-4
0.0015251666
-1.071551E-4
-0.0015715756
-4.2684365E-4
3.8106964E-4
0.0014048571
7.297023E-4
-8.813459E-4
5.0706544E-4
0.0013903001
3.8988405E-4
2.2121001E-4
4.568831E-4
-1.202394E-4
-7.4966863E-4
-4.546562E-4
-0.0012872246
-0.001970418
2.093218E-4
0.0010800423
-3.084957E-4
-1.0769527E-5
0.0018547707
0.0024463867
5.1927875E-4
-4.829386E-4
-9.1760456E-5
-0.0019614776
-0.002124807
0.0010597088
0.0011733616
-3.622441E-4
-6.536954E-5
-0.0014488084
-0.0027709357
-4.8446207E-4
0.0011860854
6.4632E-4
9.1425533E-4
0.0019078553
0.0019653568
6.957606E-4
-1.8445558E-4
-2.3405548E-4
-3.319931E-4
1.4800136E-4
-4.733513E-4
-0.0013276356
4.968973E-4
0.0010740405
-1.639892E-4
1.3253323E-4
-3.49268E-4
-0.0013344483
-5.101556E-4
6.904352E-4
0.0016869158
0.0016152876
-2.0300758E-4
-0.0013108917
-0.0012479897
-0.0017094566
-0.0016461822
-0.0014196059
-0.0022623136
-0.0012147962
2.5393034E-4
-6.063327E-4
7.151836E-4
0.0025610796
0.0015513075
0.0018592074
0.0018184689
4.0967058E-4
3.9958445E-4
-0.0010604275
-0.0014867176
4.605821E-4
-3.2166444E-4
-9.2434813E-4
-2.0909876E-5
-2.3851251E-4
1.2181444E-4
0.0011527033
0.0024810336
0.0024227246
8.4077957E-4
2.1555605E-4
-0.0017011265
-0.0024019256
1.01821264E-4
9.34309E-4
0.001173573
6.26076E-5
-0.0017058897
5.6317553E-4
0.0013927233
2.504845E-4
5.5175426E-4
-0.0018640473
-0.0030014014
1.5264034E-4
4.3105465E-4
-0.0019056668
-0.0013692308
-1.7977755E-4
-5.6656636E-4
6.4638385E-4
9.688374E-4
-0.0010624526
-7.137955E-4
-1.0789251E-4
-3.4648392E-4
6.660971E-4
8.1073504E-4
5.044775E-4
-3.6031866E-4
-0.0010738834
2.823522E-4
0.0014448453
0.0017728612
3.6797745E-4
-7.048822E-4
9.5809065E-4
3.5394097E-4
-5.810383E-4
7.7915896E-4
3.296738E-5
-7.425918E-4
1.17830634E-4
9.594807E-5
-3.8763232E-4
-3.0536763E-4
-4.5771347E-4
-4.4129626E-4
0.0017582714
0.0017920934
-0.00157226
-9.807454E-4
0.0022386082
0.0025917096
-4.452108E-4
-0.002548491
2.57427E-4
9.3084114E-4
-0.0016192758
-8.2023774E-4
3.9733862E-4
6.444254E-4
1.8711721E-4
-7.264475E-4
1.6407564E-4
-1.8471741E-4
-4.4656175E-4
3.756041E-4
-0.0013584842
-0.0022628563
-0.0011631071
-4.929737E-4
-0.0011774055
-0.0014616307
0.0018176191
0.0024271733
-1.9526742E-4
0.0012963549
0.0025623566
0.0012183588
-1.547159E-4
-0.0011497154
2.1831E-4
2.1835287E-4
-0.001681774
-4.489438E-4
6.9099374E-4
1.5092421E-4
7.579145E-4
3.9826034E-4
-9.5169153E-4
-2.761542E-4
6.6323095E-4
3.409789E-4
-5.390616E-4
-0.0022149973
-0.0014290806
0.0011641071
5.153899E-4
-3.3406017E-4
1.7794785E-4
-5.4782818E-6
-1.2989316E-4
-7.1782706E-4
1.262093E-4
0.0016455399
0.0016821708
0.0020860871
4.3894202E-4
-8.242924E-4
9.019761E-4
-1.6990973E-4
-0.0014312548
4.4403583E-5
6.918661E-4
5.8395416E-4
6.05267E-4
0.0012628227
6.422026E-4
-0.001672332
-0.0018860258
-5.5021455E-4
1.7333648E-4
3.1567123E-4
9.1881154E-4
6.8981294E-4
-0.0014770577
-5.0572096E-4
0.0018813942
7.576449E-4
-4.50961E-4
-0.0014547568
-0.002572594
-0.0024297975
-0.001862496
-2.8302053E-5
5.498915E-4
-7.1219617E-4
-4.474287E-4
3.0362754E-4
0.0014414251
0.0020364053
2.089435E-4
-0.0014807398
-0.0017439262
-1.339762E-4
0.0025025045
0.002523924
6.167171E-4
-3.0545183E-4
-2.1832253E-4
-4.8419362E-5
-2.1944634E-4
-1.987683E-4
-2.746691E-4
-0.0011903996
9.468149E-5
0.0038209283
0.0032339583
-5.496338E-4
-8.1449695E-4
-8.5635285E-5
-5.6434656E-4
7.4442E-6
6.8136334E-4
6.2697416E-4
-2.41509E-4
-0.0014864885
-0.0014065538
-2.9003815E-4
4.5088978E-4
3.252836E-4
1.014803E-4
6.535933E-5
5.8831243E-5
7.303612E-4
7.921967E-4
1.2771644E-4
3.201948E-4
-2.2559067E-4
-0.0015082974
-0.0012780523
-5.3529127E-4
-7.901048E-4
-0.0010647775
-5.604565E-4
-3.180431E-4
-5.6902145E-4
-1.4946432E-4
9.023323E-4
0.001223871
4.938659E-4
-5.648985E-4
-0.001445375
-0.0010019568
-9.487344E-5
-1.9360188E-4
1.4237083E-4
-9.4438445E-5
-3.3351494E-4
0.0015075965
9.189365E-4
-0.0015545866
-0.0013198049
-1.3683739E-4
9.040628E-4
0.0013706767
0.001626989
0.0015217527
-4.2520123E-4
-3.0952744E-4
3.2108542E-4
-0.0019386134
-0.0011434711
0.001961405
0.0024807618
0.002417742
0.0023668462
8.6780684E-4
5.2172766E-4
0.0034160803
0.0026156239
-0.0027157094
-0.0028406691
-0.00109878
-0.0027965356
-0.00345519
-0.0022986613
1.4359049E-4
2.9542332E-4
-0.0018179183
2.1888256E-4
0.0015944575
-5.302128E-4
-0.0010801498
-0.0012331182
-0.001194021
-5.097588E-4
-4.1862804E-6
3.776871E-4
-6.960291E-5
0.0019305634
0.004399904
0.0019844964
8.94002E-5
0.0011409478
6.1521E-4
-0.0012457055
-0.002989245
-0.003259289
-0.0013189486
-1.6594122E-4
-0.0010456363
-0.001870514
-0.0012545595
6.1391306E-4
0.0022115016
0.001983977
1.0349013E-4
-0.0010034466
-2.1563494E-4
2.1127248E-4
6.452398E-4
0.001321677
-6.491162E-4
-0.0015780634
0.0015035793
0.003744921
0.0050098826
0.006483908
0.0051074354
0.0018400569
2.6032352E-4
6.8048696E-4
5.227876E-4
-0.0012534505
-0.0035772484
-0.0057648914
-0.005706548
-0.0036764597
-0.003552489
-0.004029715
-0.002031862
1.19000455E-4
0.001411061
0.0030142828
0.0031333468
8.0863846E-4
-0.002832499
-0.0048467335
-0.0027676104
-0.0012978178
-0.0027960662
-0.0027127396
-8.615859E-4
0.0014285542
0.0036229726
0.0041150535
0.0039363173
0.0040752497
0.0042655026
0.0032353979
0.0015504803
0.002321736
0.0031152666
0.0018206149
5.4798205E-4
-9.753857E-4
-9.112132E-4
0.0016682639
0.0022876898
5.34535E-4
-8.177902E-4
-0.0019298247
-0.002369121
-0.0028371552
-0.005613828
-0.0076842103
-0.006761362
-0.005107339
-0.0030139408
-8.1314077E-4
8.422051E-4
9.164254E-4
-5.1677704E-4
-2.1700287E-5
8.151896E-4
0.0014926234
0.004102259
0.004838665
0.0045173485
0.0040060207
0.0017719558
0.002502887
0.004390444
0.0032383746
0.0022611932
0.0025490923
7.73717E-4
-0.0036535126
-0.0048241946
-0.002436153
2.0838526E-4
0.003638569
0.0012674389
-0.00522757
-0.0062582702
-0.005343545
-0.0041956156
-0.002044591
-5.212514E-4
0.0015069237
4.292543E-4
-0.0016016102
4.3231496E-4
0.0023234335
0.004614207
0.007830694
0.0063406085
0.0016955881
-0.0020184002
-0.0049430183
-0.005058857
-0.002326252
-0.0019665782
-0.004143048
-0.0047781803
-0.0025105458
7.718365E-4
9.925481E-4
-3.2354187E-4
7.79623E-4
0.0012736183
-4.0730127E-4
5.1999604E-4
0.0039971913
0.0033241534
8.281235E-4
0.0021395623
0.0026393519
0.0039020167
0.008495376
0.010118269
0.010005001
0.006310655
-0.003458029
-0.0090514915
-0.010150346
-0.010862516
-0.006784566
-0.001569473
-6.7244004E-4
-0.0022270347
-0.002714273
-2.4964078E-4
3.7222475E-4
-0.0019936073
-0.0013886634
-1.1143779E-4
-0.001290787
-0.0028574483
-0.0045972588
-0.003343819
4.8987153E-5
3.859609E-4
8.736318E-4
0.002874418
0.0036661904
0.0047593964
0.0073056235
0.009600364
0.008014758
0.0040999777
0.0010433042
-0.0032197936
-0.0056148884
-0.005276403
-0.00496396
-3.4760527E-4
0.0038909318
0.0011811801
-4.206306E-5
0.003234965
0.00393499
0.0014904996
0.0012049195
0.003593442
0.0026945504
-0.0047798906
-0.012689174
-0.01148897
-0.0037507399
-2.3075449E-5
2.8308865E-4
0.0017910998
0.002132411
1.5498455E-4
-0.0010859148
-0.0011396263
-0.0030904554
-0.0048752483
-0.0030382024
-4.14181E-4
0.0019347488
0.0034613665
0.00392633
0.006221254
0.006645559
0.0048047565
0.0054299026
0.0024149206
-0.004551278
-0.005084286
-1.2382775E-4
0.0019479595
4.7575522E-4
4.4618122E-5
-7.1177975E-4
-0.0048641106
-0.008653787
-0.009158685
-0.006429293
-0.001002366
0.005512216
0.009620772
0.008149934
0.008639663
0.014147834
0.013897236
0.008980475
0.0038778577
-0.0034531134
-0.0071280543
-0.0067058858
-0.0088146385
-0.013932454
-0.017178
-0.0128663955
-0.005243725
-1.913512E-4
0.002046962
1.7795712E-4
-6.5128464E-4
5.774668E-4
-0.0021842327
-0.0042569493
-0.0034140965
-0.0032485283
-7.681514E-4
0.0025616973
0.0024450934
0.0038668422
0.009092227
0.012331385
0.0140414825
0.015866801
0.015718292
0.015870553
0.013521381
0.0052215084
-0.0044658333
-0.013331486
-0.018012846
-0.017626295
-0.01549741
-0.010724328
-0.0064876736
-0.0046775355
-0.0052129677
-0.010613175
-0.013853321
-0.011619846
-0.010586075
-0.011801643
-0.011653989
-0.0058247126
0.0045232372
0.014911535
0.023578547
0.026747035
0.026364421
0.03020261
0.036425043
0.033498432
0.01746385
1.0753352E-5
-0.010155294
-0.014416104
-0.014253393
-0.013073602
-0.012403423
-0.010429948
-0.009987468
-0.012757146
-0.015309207
-0.015657447
-0.011996206
-0.0039768307
0.0012333199
-0.0010873094
-0.0064140162
-0.009770834
-0.010898303
-0.013875055
-0.01689821
-0.013615002
-0.0074243583
-0.0021258842
0.0034440542
0.008467406
0.013394407
0.018606404
0.022482192
0.024576334
0.02877289
0.03176977
0.02315966
0.009715769
-0.0026764078
-0.017520789
-0.025673117
-0.025987571
-0.02223165
-0.009445379
0.0058329636
0.015081247
0.019198671
0.02072568
0.016950665
0.004474822
-0.007296823
-0.011076548
-0.013630134
-0.022089174
-0.028099874
-0.018261831
-0.0038765566
-0.0030259304
-0.014643483
-0.020888524
-0.005975482
0.0096798595
0.009991908
0.011669359
0.013064968
0.012131198
0.01678628
0.022398848
0.03587684
0.04988
0.041749258
0.022427883
0.0048166392
-0.01242306
-0.015257433
3.1134326E-4
0.013743701
0.010895021
-0.0077667837
-0.024940731
-0.020622058
-0.008963977
-0.009254191
-0.020978568
-0.03963511
-0.044784438
-0.03401467
-0.02889995
-0.030929722
-0.042971555
-0.05306718
-0.03436037
-0.0038124674
0.010108557
0.012735494
0.023014944
0.030117797
0.025615051
0.049967803
0.0871492
0.0763764
0.03553332
-0.008058812
-0.04487974
-0.04467997
-0.014439111
0.012627465
0.026625508
0.04335642
0.06816411
0.0694118
0.0542005
0.064917594
0.079868466
0.055175778
-0.021893254
-0.13813767
-0.22242688
-0.23082907
-0.19534598
-0.113359354
-0.004831291
0.061193462
0.09088429
0.101426
0.10432019
0.1425763
0.16730656
0.1086799
0.013756028
-0.05620107
-0.092825405
-0.07829214
-0.00769095
0.03849654
0.012233501
-0.015784653
-0.0057550245
0.021375047
0.05790026
0.08142263
0.0542205
-0.016866641
-0.09191486
-0.16804712
-0.2265407
-0.24223691
-0.23943242
-0.1782751
-0.053517874
0.05273301
0.14445259
0.20003982
0.18050677
0.14375784
0.11272415
0.091057085
0.08388746
0.07557304
0.08071427
0.10267422
0.13105448
0.13085577
0.08540827
0.036616296
-0.0428328
-0.16655986
-0.23634465
-0.2025966
-0.13213146
-0.09635315
-0.0695087
-0.04028133
-0.04487091
-0.035111215
0.0025146136
0.005836007
-0.023324516
-0.03798381
0.0034657891
0.08355472
0.13619728
0.12781905
0.076217614
0.046894584
0.0709311
0.11485991
0.14260948
0.11009972
0.0075523616
-0.10017016
-0.14637902
-0.14611866
-0.15619737
-0.15934348
-0.1279943
-0.089055255
-0.04434538
-0.010648474
-0.017915258
-0.032086734
-0.036022115
-0.040785562
-0.02261923
0.02381764
0.08180973
0.14298409
0.1833957
0.18708475
0.1613484
0.12997682
0.13060547
0.13758306
0.072610214
-0.044862293
-0.111442834
-0.09968674
-0.06412293
-0.041196093
-0.03774702
-0.047618385
-0.06312121
-0.08764908
-0.09458977
-0.07322708
-0.0711373
-0.07929213
-0.059502073
-0.035926323
-0.02022728
-0.0023480398
0.014273824
0.030930953
0.043589793
0.05041971
0.054090593
0.050987985
0.043246303
0.032541707
0.019833123
0.013328835
0.014072982
0.014162421
0.014389504
0.016984018
0.01633828
0.01531806
0.01405324
0.009199604
0.0087001575
0.0062386207
-0.0052737277
-0.01355669
-0.013753438
-0.008949226
-0.0028839556
0.0010008175
0.0023927456
4.5445556E-4
-0.0019034792
-0.004942591
-0.010838464
-0.015146851
-0.019187834
-0.024318868
-0.02508643
-0.02312452
-0.02186188
-0.01917409
-0.0154592935
-0.011247407
-0.0053632655
-0.0013849543
0.0014861573
0.00819813
0.013302653
0.013974475
0.015057789
0.01499696
0.013871021
0.013365493
0.010775451
0.008847706
0.008113959
0.0056561437
0.0051525454
0.0051076575
0.004040033
0.004767905
0.002025423
-9.170395E-4
0.0013111453
0.0018003426
0.0024039221
9.0397877E-4
-0.0049574976
-0.0028305242
0.001117576
5.9297767E-5
4.0058102E-4
-0.002380221
-0.005068688
-0.004969755
-0.0076406696
-0.007950715
-0.005676408
-0.0045634448
-0.0044676904
-0.004456563
-0.0017391912
1.5342707E-4
7.794616E-4
0.0023330324
0.001649843
1.5814764E-4
-6.9021515E-4
-0.0010492161
-0.0012638068
-5.4835563E-4
0.0031859574
0.0029517058
-0.0012942178
-0.0023573413
-0.0029525887
-0.002082451
2.1416166E-4
-2.4223815E-4
-4.889916E-4
1.8267472E-4
0.0011884301
0.0038354464
0.0071421443
0.0069564627
0.0017691475
1.2657169E-4
0.0028627343
0.0026584095
0.0010271736
-5.830018E-4
-0.0010767379
-6.0716155E-4
-0.0015101004
-1.4414132E-4
0.0018355903
3.288933E-4
-0.0020942448
-0.0028385674
-0.0013997387
-0.0021123264
-0.0040363413
-0.0015074252
0.0010233677
8.770388E-4
1.8633108E-4
-9.572776E-4
-6.194709E-4
5.9712154E-4
8.45591E-4
-1.4590142E-4
-6.2722457E-4
0.0017754142
0.0024471444
-7.805345E-5
-4.7880903E-4
0.0013040102
0.0031196019
0.0022124597
-0.0017281789
-0.003299017
-0.002623119
-0.0035587319
-0.004323501
-0.0027691913
-5.9334544E-4
7.377891E-4
0.0013551152
0.0014345151
0.0013588223
8.8779023E-4
0.0011254582
0.0028144491
0.0019411651
-7.9954905E-4
-5.7453563E-4
8.346522E-4
0.0016651526
0.002825395
0.0027374926
0.0013612079
4.2177044E-4
-0.0010442092
-0.0017257284
-5.697743E-4
-0.0028242504
-0.005737164
-0.003813082
-0.003211018
-0.004529755
-0.0038710656
-0.0024554532
-3.6711307E-4
4.2469397E-5
-9.110238E-4
-4.960276E-4
5.9488503E-4
0.0015558916
1.2068845E-4
1.3934993E-4
0.0031725075
0.0024632954
0.002145799
0.004907304
0.004948218
0.0027969407
2.977684E-4
-5.4507505E-4
3.3092932E-4
4.914241E-4
9.729094E-4
0.0011635461
8.0750865E-4
7.3332957E-4
3.133858E-4
3.1427515E-4
-5.055705E-4
-0.0021631718
-0.0016719573
-7.080201E-5
-2.2483988E-4
-0.0018109982
-0.002942262
-0.0023541495
9.670366E-5
8.788385E-4
-0.0013110139
-0.0014297615
-7.740644E-5
-6.971498E-5
9.649492E-4
0.0015231514
-5.3263485E-4
-0.002186806
-0.0025837836
-0.0031751255
-0.002155277
-1.1767364E-5
5.4909624E-6
-4.2456458E-4
-5.1925785E-4
2.7742799E-5
0.0017637961
7.5128867E-4
2.587889E-4
0.0025051897
0.0020139937
0.0015706512
0.002042564
8.0651685E-4
6.64202E-4
4.4877484E-4
-5.2211195E-4
-5.2750984E-4
-7.71846E-5
0.0013589957
0.002383654
0.0012315174
-8.414299E-5
-2.968727E-4
-0.0017284922
-0.0030858836
-0.0011121309
2.9533789E-5
-5.407686E-4
-2.9565056E-4
-0.001766173
-0.0019942974
-2.1209424E-4
-5.7590066E-4
-3.792386E-4
-5.5972363E-5
-9.839924E-4
-5.4758205E-4
-6.6552253E-4
-0.0011989351
4.2612274E-4
0.002433736
0.0030776658
0.0016481437
-0.0015019382
-0.0020193465
8.5898687E-4
0.0012018585
-3.5707996E-4
-6.6876056E-4
-0.0024563235
-0.0022639665
0.001276273
9.1150287E-4
-9.251252E-4
3.3151408E-4
0.001107202
2.125658E-4
-8.4530975E-4
-3.4877477E-4
0.0013605483
0.001581253
6.473208E-4
-6.872601E-4
-6.147348E-4
0.0025441623
0.0038081552
0.0018154173
6.590147E-4
-6.46014E-4
-0.0016495835
-6.5914844E-4
-9.469657E-4
-0.001704172
-1.7971192E-4
9.5459743E-4
7.421645E-4
4.3092546E-4
0.0011075271
0.0037679125
0.0025639094
-0.0036703995
-0.0048233056
-0.002730377
-0.0036155882
-0.002049354
5.624713E-4
3.6092E-4
5.181655E-4
4.7616492E-4
9.0490794E-4
0.0014106143
-6.029213E-4
-7.1401964E-4
9.4986457E-4
0.0010880863
0.0011959642
-3.7719787E-4
-0.0019646192
-0.001239374
-0.0011078937
-1.8918063E-5
0.0012461001
0.0013147956
0.0024616916
6.5031886E-4
-0.0018415585
3.164195E-4
0.0011310935
-2.7558263E-4
-4.2925027E-4
-7.102205E-5
7.9838815E-4
6.735729E-4
5.493199E-4
0.0014304048
0.0010609274
4.5390363E-4
-2.9231957E-4
-6.721376E-4
-6.810539E-4
-0.0021059224
-5.117189E-4
0.0027792405
0.0020523013
7.754978E-4
-5.7238183E-4
-0.0030724688
-0.0028320362
-4.3087357E-4
4.5634026E-4
-1.1802959E-5
0.0010241681
0.0016516133
-6.938898E-4
-0.002058032
-0.001564867
-0.0013402599
-9.389638E-4
-4.4280494E-4
1.8118991E-4
8.80106E-5
-3.9368036E-4
3.48175E-4
9.81102E-4
9.789346E-4
8.8739436E-4
0.0011099578
9.791515E-4
-6.575259E-4
-5.6998956E-4
9.957893E-4
2.0235606E-5
-0.0011307343
-1.733311E-4
0.001226935
0.0015066874
4.0093667E-4
-0.0011215883
-0.0020913929
-4.804473E-4
0.001648975
0.0011136257
0.001576859
0.0018047461
-7.8609504E-4
-0.0019940976
-0.0021888905
-0.001993118
-0.0014659744
-0.001668246
8.1973564E-4
0.0020660197
2.8682727E-4
0.0018451291
0.0016416763
-0.001479411
-1.792465E-4
0.001949781
0.0012483844
4.362505E-4
5.4729474E-4
5.860126E-6
-9.173381E-4
1.0192617E-5
0.0012479313
0.002066358
8.481859E-4
-0.002895279
-0.0025699486
-2.6548278E-4
3.1578718E-4
0.0012914742
-7.5960474E-4
-0.002361857
-9.651903E-4
-0.0013214016
-3.6720018E-4
-1.44976E-4
-0.0025694268
-0.001594397
4.192208E-4
9.4566774E-4
8.437639E-4
-2.5090727E-4
-3.649922E-4
-2.3911039E-4
2.2083956E-4
0.0017931733
0.0015636415
4.966595E-4
4.8342822E-4
8.2750636E-4
0.0018649512
0.0017822788
4.5542984E-4
7.7672553E-4
3.3051285E-5
-0.0021694573
-5.0235784E-4
0.0014212875
-6.027981E-4
-9.994233E-4
0.0012129686
0.001764164
7.017063E-4
-8.584602E-5
-2.4081315E-4
-6.1285077E-4
-0.001231111
-0.0014507142
-0.0014153747
-0.0014907962
-0.0012057108
1.0574811E-4
0.0011858776
0.0019952639
0.0023840298
3.1319502E-4
-9.1992464E-4
1.4898543E-4
-1.8709597E-4
-5.727812E-4
-4.5947806E-4
-9.1471185E-4
-6.078079E-5
0.0010532958
9.854728E-4
6.144834E-5
-0.0010935323
-0.0015245822
-0.0021770077
-0.0026784441
-7.486935E-4
0.0017408981
5.227067E-4
-0.001267391
0.0012873268
0.002873238
8.904483E-4
-1.9295407E-4
-3.8467417E-4
-6.39687E-5
-1.7162069E-4
-0.001158818
-5.1505765E-4
2.3556736E-4
0.0010504881
0.0017161663
1.7217026E-5
2.9497958E-5
0.001398168
0.0010045208
6.7372253E-4
-3.400413E-4
-8.5084426E-4
-3.2451094E-4
-5.893564E-4
-1.5289594E-4
-6.810509E-4
-0.0013596772
7.8734726E-4
0.0013228563
-3.029004E-4
1.4619483E-4
6.6365866E-4
-5.1293784E-4
3.6595584E-4
0.0016612815
-4.9097196E-4
-0.0011681191
2.9444785E-4
5.6675053E-4
5.748844E-4
-0.0014738707
-0.0024384814
-0.0011528642
-0.0015891608
8.3335716E-4
0.0025561498
-6.2545645E-4
-0.0011954915
-4.281714E-4
-5.460793E-5
0.0010273547
7.184458E-4
0.0012405731
0.001167969
4.042584E-4
0.001535336
4.88114E-4
-0.0015244827
-9.845338E-4
-7.2840136E-4
-7.524368E-4
5.3109735E-4
7.1072235E-4
-5.033685E-4
-6.6885515E-4
-8.423317E-4
-6.663837E-4
4.6008572E-4
-1.3469008E-4
-5.164042E-4
5.6545093E-4
9.960075E-4
4.9764285E-4
-3.7733582E-4
-3.5150463E-4
-0.0011822545
-0.0013578509
8.7274075E-4
3.2908455E-4
2.2576402E-4
0.0018439977
9.5814036E-4
0.0015561528
0.0015038267
1.2386165E-4
0.0017607375
0.0014880728
-0.0010201245
-0.0017991625
-9.1654225E-4
3.206215E-4
-7.7954645E-4
-0.0022667248
-9.6911273E-4
0.0011536233
7.4672524E-4
-8.047081E-4
-6.984455E-4
-0.0015117403
-0.0015267999
4.813147E-4
1.4586617E-4
3.43245E-4
0.0013065481
1.0880626E-4
-4.5158662E-4
-4.741238E-4
-5.8332324E-4
-5.942185E-4
-3.6222406E-4
8.7231223E-4
0.0016901637
0.002333055
0.0020184573
5.2576954E-4
-1.1288782E-4
-8.191328E-4
-0.0010660435
-0.0011201178
-0.0018207808
-0.001447908
3.6889316E-5
0.0024739462
0.0030762579
0.0011385966
-5.1815656E-4
-0.0027370807
-0.0028137788
-4.2206582E-4
1.943568E-4
5.0063495E-4
8.2310854E-4
8.4004947E-4
9.5489324E-4
2.086685E-4
1.5060724E-4
8.4558217E-4
4.127743E-4
-0.0013523254
-3.7003495E-4
0.0034444926
0.0019676443
-0.0015796156
-6.6691876E-4
-3.855847E-4
-0.001467284
-0.0013491029
-5.7524367E-4
2.3300074E-4
3.3396856E-5
2.9439712E-4
5.212676E-4
-9.161993E-4
-0.0016972546
-0.0013860379
-0.0011543491
-9.4872277E-4
-7.036833E-4
6.5096165E-4
0.002784265
0.0014818239
-0.0017831963
-3.2718922E-4
0.0015775292
5.109357E-4
0.0012436896
0.0011956253
9.403467E-4
0.0021223682
1.7842768E-4
-8.4725325E-4
-3.870007E-4
-0.001977839
-0.0016144457
-4.7262024E-6
0.0014886104
0.0021268094
1.2261217E-4
-5.9637526E-4
-2.4401792E-4
1.4661814E-4
0.0010795346
-8.3978666E-4
-0.0024392968
-0.0012412221
-5.78715E-4
2.5218603E-4
0.0010284323
3.9227644E-4
-5.184743E-4
-5.552536E-4
7.754394E-5
-2.6445365E-5
3.653988E-4
0.0014183896
9.526794E-4
-2.9077072E-4
-0.002004101
-0.0030262286
-0.001834259
-3.8953815E-4
8.1780786E-4
4.5737193E-4
-0.0012865767
2.7029033E-4
0.0022014475
8.5484906E-4
1.1648924E-4
7.7037555E-5
4.164556E-4
0.0015577591
2.3183909E-4
-9.88361E-4
5.4579345E-4
0.0011076976
5.52107E-4
5.7827125E-5
-2.483089E-4
5.7414075E-4
9.0559444E-4
5.904863E-4
8.6307304E-4
9.3247107E-4
6.4356654E-4
-3.7278683E-4
-0.0013064329
2.1629028E-4
0.0024665864
0.0014860348
-5.366263E-4
-6.604926E-4
-0.0036678172
-0.005875001
-1.8970591E-4
0.0019847276
-0.0016733705
-4.3468337E-4
1.2787618E-4
-0.0020878667
-8.257882E-4
8.7742094E-4
0.0011620524
4.616883E-4
-5.8377784E-4
-8.9815207E-4
-0.001452888
-5.5337464E-4
0.0010984694
0.0016728597
9.224278E-4
-0.001160108
6.0344284E-4
0.0034252834
0.0018855801
0.0016674361
0.001277732
-5.55886E-4
8.619355E-4
7.2075136E-4
-0.0014189768
-0.0016292522
-0.0012445006
6.6086516E-4
0.0014617334
-9.883116E-4
-0.0021752953
-0.0018626106
-0.0012674677
5.249704E-4
0.0015465034
0.0010041187
7.4676453E-4
6.513933E-4
3.414355E-4
8.224E-4
8.875986E-4
-6.834144E-4
-0.0012148658
2.1062502E-4
4.6883887E-4
-4.2296556E-4
1.3227747E-5
5.447827E-4
-8.5696585E-5
-1.3059015E-4
4.0898926E-4
-4.2096878E-4
-0.0022652445
-0.0024272944
-0.0013749518
-0.0017235824
-0.0017606863
-8.059077E-5
0.0014316477
0.0013297661
-4.3523862E-4
-0.0010760655
1.3222528E-4
9.142326E-4
0.0012429259
0.0010071354
0.0010139592
0.0020008627
0.0027638087
0.002593431
3.7170324E-4
-6.0438254E-4
9.90201E-4
7.669545E-5
-0.0012330908
-8.385014E-4
-4.5234684E-4
7.8550464E-4
5.208588E-4
-5.1149685E-4
-7.440299E-4
-0.0016663241
-0.001244943
-0.0013339432
-0.0020009312
-3.8938914E-4
1.1275331E-4
1.8921093E-4
5.4219057E-4
-0.0011000582
-0.0016628492
-3.508709E-4
8.565972E-4
0.0016404893
0.002230493
0.0021980149
0.001084245
0.0010801762
0.0011074952
-5.280453E-4
-0.0016968051
-0.0023813206
-8.9304324E-4
0.0021151411
0.0015851825
-6.9135113E-4
-0.0015227909
-0.0019093204
-0.0019744537
-0.001013049
-5.5664663E-5
-4.240691E-5
0.0010244879
0.0016081014
-6.6482084E-5
4.3861123E-4
0.0016771916
9.76933E-5
-6.6857814E-4
-3.9847253E-4
-6.33677E-4
2.6737314E-4
2.3295273E-4
-9.937612E-4
7.186751E-4
0.0019529623
-1.3448246E-4
-1.5361467E-4
5.7194027E-4
-9.389044E-4
-0.0012496212
-2.3155384E-4
0.0012527702
0.0019991635
9.049741E-4
5.5038783E-4
-3.787729E-4
-0.0019649703
-8.2532916E-4
5.2368134E-4
4.333962E-4
2.9481056E-5
-9.406948E-4
-8.0382824E-4
4.2854346E-4
9.5030427E-4
5.3634064E-4
-0.0010240402
-9.4778376E-4
0.0013569955
8.7047665E-4
-0.0012648572
-0.0020145646
-0.0021396424
-3.381219E-4
7.753739E-4
-5.0517067E-4
-5.5905426E-4
-4.436964E-4
-5.837233E-4
1.0080082E-4
1.9260524E-4
3.9102574E-4
0.0010928847
0.0020673075
0.0021231778
9.7451796E-4
7.232967E-4
3.9441744E-4
5.863984E-4
0.001098323
2.6070394E-4
4.3884508E-4
-7.278132E-4
-0.0028868117
-0.0016197182
-5.842307E-6
5.802334E-4
-4.005575E-4
-0.0021902556
-6.485917E-4
0.0011366024
0.0010566005
6.089048E-4
-2.48052E-4
-8.81254E-5
3.5356576E-4
1.3341728E-4
-6.224926E-4
-0.0010947139
-3.8939188E-4
1.07906286E-4
0.0012299452
0.001696931
0.0011229474
0.0014377448
-7.189944E-4
-0.0015848419
0.001315738
0.0020415797
0.0016126093
-0.0012964937
-0.004193124
-0.00105321
-6.292412E-4
-0.0035655021
-0.0019096915
3.777154E-4
7.9105474E-4
0.0012081161
7.3555735E-4
5.5876426E-5
0.0014893545
0.0018569506
-6.676956E-4
4.492054E-4
0.002198355
-1.2140201E-4
-3.667378E-4
-5.343853E-4