-1.9731066E-4
-7.9337513E-4
4.0890908E-4
2.6377727E-4
1.9604756E-4
-3.7561657E-4
-0.0012459193
2.4739865E-4
9.4550056E-4
4.098351E-5
1.0642344E-4
8.99658E-4
0.0017839426
0.0016513952
3.0402647E-4
-7.656338E-4
-8.649385E-4
4.9588794E-4
0.002083956
0.0010023008
-0.0012443645
-8.971287E-4
7.5298676E-4
8.09193E-4
-6.3273316E-4
-0.0019833406
-0.0016284172
-2.770876E-4
3.303867E-4
7.875485E-4
0.001158604
1.7825936E-5
-0.0012967216
-4.628999E-4
8.037984E-4
6.350271E-4
6.948802E-4
0.0016909491
0.0019150974
1.8146701E-4
-9.627682E-4
4.4935054E-4
4.773148E-4
-0.0015440485
-0.0025489512
-0.0026313965
-0.0017037076
-0.001435964
-0.0019377948
-6.676034E-4
-1.2610505E-4
5.5867626E-4
0.002313507
2.7270382E-4
-0.0016738926
-5.9955088E-5
4.1212022E-4
5.8590045E-4
9.365244E-4
-5.46796E-5
6.2520837E-4
0.0018421728
0.0014390002
0.001705194
0.0021841852
0.0017540428
9.418028E-4
7.74957E-4
0.0020222582
0.0010801506
-0.0014167039
-0.0010580496
-3.974824E-4
2.006294E-4
-1.1494781E-4
-0.0032187644
-0.001964988
0.0010493199
-3.3365883E-4
-7.117335E-4
-0.0021019941
-0.0028575694
0.0014179482
-1.7331286E-4
-0.004778543
-0.0019537637
8.084765E-4
5.507355E-4
5.7397265E-4
3.5587722E-4
5.887249E-4
-7.038883E-5
-3.637918E-4
0.001009126
9.60999E-4
3.0503486E-4
-3.135307E-4
-3.266632E-4
0.0016834018
0.0016299294
3.6332896E-4
0.0019994495
0.0023716332
3.2366707E-4
2.8050612E-4
0.0014947198
0.0012029422
-4.6665704E-5
-0.0010674632
-0.0017563815
-0.0020427676
-0.001485663
2.809368E-4
0.0014514127
2.9615828E-4
-6.937256E-4
-0.0011045665
-0.002454027
-0.0016352193
5.669347E-4
-4.6426879E-4
-0.0015915573
4.9889E-5
3.7325066E-4
1.7002996E-4
0.0020999508
0.0017771261
5.664233E-5
9.266442E-4
4.453181E-4
-6.918849E-4
8.2188094E-4
0.0013311717
4.7204847E-4
1.8120438E-4
-1.8351024E-4
-1.8562276E-4
-1.7579154E-5
-2.687484E-4
-1.8864647E-4
-2.9070205E-5
-0.0012420934
-0.001183654
0.0014427301
4.4011095E-4
-0.0028160363
-0.0023929025
-0.0014970899
-0.0011082852
1.1940434E-4
3.2369347E-4
3.266511E-4
4.95847E-4
5.147455E-4
0.001385051
0.0017557811
6.668927E-5
-0.0013814158
-2.965495E-4
4.8151362E-4
-5.3209113E-4
-9.061658E-4
-5.2060944E-4
3.8198216E-4
0.0016473376
0.0015223774
1.7718325E-5
-4.8508903E-4
0.0012441167
0.0023649079
4.4899443E-4
-0.0013437762
2.865707E-4
0.0026947167
0.0033794162
0.0031735469
6.7964545E-4
-0.0025916037
-0.0033721072
-0.0028909429
-0.0011851037
2.3685097E-5
3.1476564E-4
9.685296E-4
-0.0014115273
-0.0024135183
1.9135402E-4
-4.5479395E-5
-0.0010001907
-0.0017779206
-0.0024016316
-5.58984E-4
1.2186498E-4
7.0240436E-4
9.583244E-4
-0.0016252297
-0.0020509413
-4.945283E-6
0.001015546
9.836169E-4
0.0014177455
0.002149519
0.0020725573
0.0033458315
0.0030297346
-2.1079302E-4
-7.3741254E-4
-7.137804E-4
-9.408601E-4
0.0010592523
9.700024E-4
-0.001838128
-0.002791031
-0.0013136378
-7.020668E-4
4.7836147E-5
0.0014065934
-2.0572427E-4
-1.5523199E-4
0.0014997496
-0.0010960613
-0.0019882096
1.2315571E-4
-1.0631196E-5
-0.0013697451
-0.0015166779
9.995812E-4
0.0026077514
0.0013223853
0.0011856108
0.0017089447
0.0010154145
-2.0779848E-5
-6.374086E-4
-7.315714E-4
-6.101666E-4
-2.0753437E-4
-6.420917E-4
-0.0012817644
-5.750486E-4
1.6079673E-4
2.316666E-4
-1.2745964E-4
2.863802E-4
5.326891E-4
-9.5291936E-4
-1.555896E-4
0.0014096462
4.7187918E-5
-1.2451368E-4
3.021149E-4
-3.1299816E-4
4.7799174E-4
5.095814E-4
-8.6634414E-4
-0.0014682997
-0.0015027549
-0.0013459318
-0.0014339068
-5.435058E-4
0.002023944
0.0028999266
0.0011705983
-6.1795866E-4
-9.767818E-4
-1.0031456E-4
2.3354223E-4
-1.1504358E-4
-1.5287646E-4
1.254612E-4
7.7937293E-4
2.9033277E-4
-3.0546714E-4
9.6417445E-4
0.0014886232
0.0014099028
0.0012368317
-1.4612115E-4
-5.473364E-4
-6.502303E-4
-5.043586E-4
0.0014013539
0.001747718
7.2732416E-4
7.3063053E-4
-0.0012395976
-0.005150448
-0.003796872
8.153589E-4
-0.001910943
-0.005314121
-6.9821574E-4
0.0025794539
0.0018801325
0.001189113
-2.6462224E-4
-5.7094597E-4
9.862063E-5
8.384402E-4
0.0015719424
0.0010339932
0.0012012421
0.0014567408
8.5729035E-4
0.0011391579
4.5843216E-4
-0.0011760428
-0.0014993482
3.551845E-5
0.0026387835
0.002883792
3.8923614E-4
-0.0011482522
-4.5722036E-4
4.2699988E-4
-4.6700973E-4
-0.0018153681
-0.0016146994
-8.789935E-4
-0.0015887839
-0.0019197933
1.5761827E-4
-1.18373515E-4
-0.0027300562
-7.8156596E-4
0.0023333544
0.0015567385
0.0010404949
0.0010882305
-5.0426554E-4
-7.207092E-4
3.601592E-4
-1.2524074E-4
-7.446712E-5
0.0021973872
0.002541747
-3.2784924E-4
-6.96177E-4
9.683683E-4
-1.6945701E-4
-4.810878E-4
-3.1275194E-4
-0.00263173
-0.0015505425
4.9193256E-4
-0.001006429
-5.401683E-4
0.0010316733
0.0011836559
7.374449E-4
-4.801432E-4
-2.1401502E-4
6.651221E-5
-3.6768787E-4
-2.5319846E-4
-8.891639E-4
2.712012E-4
0.0012411614
-5.369445E-4
-5.234245E-4
4.308464E-5
-1.326298E-4
9.736569E-4
0.0016012177
6.918104E-4
-5.90292E-4
-2.8767338E-4
7.418865E-4
4.006019E-4
-8.020832E-4
-0.0010926253
5.8304315E-4
0.0010906989
0.0014970594
0.0026849052
-1.6344653E-4
-0.0014216143
1.2973875E-4
-0.0013989648
-0.0013571016
1.9065505E-4
0.0011447449
0.0012179837
-0.0014466343
-0.0015267765
-5.3678843E-4
-0.0014124721
-3.090377E-4
5.040759E-4
2.080825E-4
-0.0013041701
-0.0026779808
-0.0012439176
-9.017492E-4
-4.3216054E-4
1.130376E-5
-6.4902456E-4
7.730029E-4
-4.7677074E-4
-0.0019680704
-3.051204E-4
3.9944978E-4
0.002791468
0.0032343522
0.0016614348
0.003112695
0.0017391335
-2.9944978E-4
-2.595052E-4
-6.826062E-5
0.0019796337
0.0010849666
-5.1938504E-4
0.0011427702
7.581955E-4
-1.1588269E-4
-2.1460002E-4
1.9783129E-6
0.0013974159
1.551932E-4
-0.0018697601
-0.0016929465
-0.0011083748
-2.6422553E-5
1.8552557E-4
-0.0011902428
-0.0016840524
-4.5316896E-4
1.4519738E-4
-0.0015570848
-0.0028500566
-0.002173276
-5.7500984E-6
0.0022566929
0.0010548218
-8.173862E-4
-4.8321373E-5
5.4398255E-4
0.0014362384
0.0012303285
-8.390407E-4
-5.5018335E-4
-2.3466894E-6
-2.5909729E-5
3.6349014E-4
-8.1829313E-4
8.080276E-5
0.0020567866
0.0012812092
7.258748E-4
4.091917E-5
-7.093366E-4
-4.7031924E-4
-4.424523E-4
8.226727E-4
0.0017450006
5.4647465E-4
-0.0015641522
-0.002078073
9.6991606E-4
0.0014646105
-9.2482945E-4
2.1464267E-4
8.767559E-4
-5.7798385E-4
-8.802941E-4
-9.0335176E-4
-5.947071E-4
4.57616E-5
0.0012151041
0.0013692057
-9.764283E-4
-0.0013372349
1.2437633E-4
-4.1524018E-4
-6.672725E-4
9.026391E-4
0.0024679555
0.002219036
4.3144188E-4
-2.4379483E-4
4.056578E-4
9.861365E-4
0.0012596174
-2.5214904E-4
-0.0038919738
-0.005073292
-0.0012855798
0.0020415557
0.002197007
0.0016639198
1.0424063E-4
3.6495982E-4
0.0023234184
-0.0015698718
-0.0048263967
1.2999956E-4
0.0027485266
-1.9473679E-4
-0.0017123346
-0.0010801072
-6.049581E-4
-0.0019043974
-0.0020774684
-5.10127E-4
-0.0011980816
-0.0010068362
6.8257045E-4
3.9223323E-5
3.5744687E-4
0.0027474628
0.0043100435
0.0053421482
0.005382317
0.003760687
0.001593245
-6.980392E-4
-0.0019691344
-0.0016181776
-0.002066504
-0.0025465412
-0.0014787383
-0.0015681041
-0.0014617027
-4.6404236E-4
-0.00124291
-0.0012175381
-5.379988E-4
-0.0011150874
-0.0017057945
-0.0023344764
-0.0012344834
-8.1341143E-4
-0.0037773775
-0.004633075
-0.0028254937
-0.0012553359
6.177374E-4
0.002029667
0.002227242
0.0024797402
0.004859724
0.006572499
0.004980389
0.0052524297
0.0077381404
0.008789449
0.008629178
0.0039047713
-0.0054488457
-0.010020123
-0.007078043
-0.005814934
-0.007661938
-0.0046737725
-0.001089162
-0.0021319014
-1.04634935E-4
0.0028513763
-5.2286396E-5
-0.0019541734
-0.0014530437
-0.0024981855
-0.00173979
-0.0011109561
-0.0012736415
0.002465761
0.003909001
5.3467986E-4
2.1863126E-4
0.0019307986
0.00235392
0.0022568903
0.0017826847
0.0023638597
0.0014076345
-3.2890725E-4
0.0015121985
6.1769644E-4
-0.0026048326
-0.0011808902
-8.838521E-4
-0.0033307916
-0.0045352024
-0.0051013133
-0.0034400567
-7.133073E-4
0.0013828737
0.0029256928
0.0021935727
0.0016574155
0.0024751332
0.0019999247
-2.489084E-4
-0.0010133169
0.001167548
0.0013624622
0.0026463764
0.006043482
0.0031761706
2.0872735E-4
8.6467544E-4
6.5402297E-4
0.001068383
-7.303321E-4
-8.4439013E-4
5.550556E-4
-0.0032305424
-0.0033164113
-0.0010864275
-0.0018519207
-0.0011296687
-0.0029903213
-0.004268884
-0.0019845942
-0.001514757
-0.0013013703
-0.0012807281
-9.932661E-4
-4.9498817E-4
-3.1141413E-4
0.0019480123
0.0029501272
0.0027701117
0.0010735929
-0.002756665
-0.002425697
-0.0010897755
-0.0011359855
2.7322696E-4
0.00181648
0.005115397
0.007693535
0.0073174364
0.005088707
4.890688E-4
-0.002272556
-0.0035186026
-0.0043041976
-0.0030354392
-0.0031285514
-0.002418014
-7.428849E-4
-0.0017117161
-0.0013208025
7.335215E-4
7.0689566E-4
2.787466E-5
0.0017654075
0.0029697292
-8.513049E-4
-0.004230509
-9.989276E-4
0.003024811
8.576362E-4
-3.750334E-4
0.0045496444
0.0067133424
0.004935355
0.0017870535
-0.0023657272
-0.0025212797
-0.004015627
-0.007832954
-0.005699786
-0.0021603256
-7.2922435E-4
-2.2957691E-4
-3.8938774E-4
9.183515E-4
0.0013087041
5.378493E-4
2.8152456E-6
3.50337E-4
0.0026749813
0.0028676933
0.0016052737
6.17576E-4
-0.002349269
-0.0028459586
-0.0011057649
-9.856076E-4
0.0010746454
0.004269744
0.0050245547
0.0057606595
0.0067212675
0.0052566854
0.003221909
8.682591E-5
-0.0061480333
-0.008830314
-0.005504224
-0.0021102114
-5.407388E-4
-0.0022399365
-0.0074769445
-0.009306123
-0.0038837597
-3.0518757E-4
-0.0032339501
-0.0018153755
0.003983849
0.004965555
0.0041346895
0.0042289086
0.004487075
0.0032626356
-7.061496E-4
-0.0010208224
7.146295E-4
-0.00160845
-0.0037188092
-0.0037867443
-0.0026673889
2.0171687E-4
0.0035089755
0.005386502
0.0051923334
0.0075506084
0.011129812
0.009187805
0.005146454
4.1106518E-4
-0.0059413766
-0.008763385
-0.008876481
-0.008627143
-0.006759438
-0.0041497485
-0.0025795032
-0.0032098284
-0.0027012809
2.5710667E-4
0.002017824
0.004029457
0.0045475466
1.5080751E-4
-0.0028153157
-0.0031954935
-0.006596072
-0.0099994205
-0.008194191
-0.0035792713
-7.0664956E-4
-2.6299778E-4
2.8099585E-4
0.0039372444
0.007881583
0.007581654
0.007393102
0.010352721
0.014773441
0.018903537
0.016259357
0.009900128
0.006108683
-0.0021296095
-0.010438574
-0.011017055
-0.011612177
-0.011856955
-0.007731616
-0.0030458395
-1.873697E-4
-9.899008E-4
-0.0031869232
-0.0038607565
-0.003785139
-0.003532201
-0.0054191784
-0.0062254146
-0.004152509
-0.0048932657
-0.004748188
-0.0017053568
1.2429444E-4
0.0031110821
0.004504869
0.004140095
0.00608526
0.005437782
0.004713185
0.005776198
0.003777451
0.004695215
0.006832315
0.0038723154
0.0016361411
-1.4007726E-4
-0.0038117934
-0.006682285
-0.009235701
-0.010617336
-0.0086846715
-0.0021260192
0.0067821397
0.012853568
0.016305001
0.019974468
0.023222998
0.020428065
0.010919023
0.0015812432
-0.008066704
-0.01679022
-0.020690052
-0.024852313
-0.026957247
-0.024394903
-0.022863641
-0.020650528
-0.017217033
-0.011188619
1.9069528E-4
0.0050092507
-2.1650296E-4
-0.005370764
-0.0109782955
-0.014411245
-0.008120869
-3.6408613E-4
0.0021566662
0.009065326
0.023121519
0.034811404
0.0391495
0.040237922
0.046271704
0.05165456
0.046080634
0.040763423
0.038448572
0.022430042
-0.0073762145
-0.031601876
-0.032010637
-0.021243783
-0.024718696
-0.033408053
-0.037339773
-0.04052004
-0.035460915
-0.021866508
-0.004963975
0.002644793
-0.014088712
-0.033114273
-0.032288697
-0.025081482
-0.022089763
-0.018781604
-0.010688455
-0.0029546102
0.0011501214
0.0076465504
0.014422403
0.018207217
0.022697942
0.029466892
0.03345423
0.025749793
0.01403852
0.015744394
0.02388365
0.019518407
0.010162579
0.014546413
0.025034867
0.023431215
0.0074610854
-0.0107581485
-0.021348823
-0.023970915
-0.0153695885
-0.006916778
-0.010273672
-0.0120380595
-0.019456008
-0.032460064
-0.026399862
-0.016365293
-0.009899218
0.012692811
0.03761042
0.048431996
0.05094408
0.045628775
0.031289108
0.022649443
0.02388781
0.014832666
1.4706593E-4
-0.0044986103
-0.013892525
-0.033423096
-0.035211414
-0.009128321
0.0031202366
-0.024161365
-0.06908162
-0.101359345
-0.089463145
-0.044353515
0.0018308918
0.039868984
0.043410458
0.008302449
-0.0382681
-0.06511933
-0.05499924
-0.042378165
-0.03548808
-0.030177146
-0.027331935
0.02295003
0.092995785
0.12681067
0.13899149
0.123931155
0.10403661
0.09553273
0.078199096
0.07026686
0.052999835
0.012262174
-0.017984943
-0.036281623
-0.06556666
-0.12799343
-0.17365979
-0.12803966
-0.02639968
0.06273433
0.111359626
0.1132099
0.070124485
-0.010405922
-0.08241623
-0.098525345
-0.08131487
-0.07824337
-0.080709726
-0.07585323
-0.076446116
-0.067391425
-0.05893729
-0.055012763
-0.017932525
0.03935507
0.094321966
0.11364582
0.09263928
0.10462117
0.11621217
0.086259685
0.082854316
0.083372325
0.03416577
-0.030171243
-0.066998005
-0.085777335
-0.10439971
-0.080294095
-0.012980013
0.04249995
0.07492027
0.08435645
0.07759928
0.04216163
-0.01174144
-0.019478595
-0.01985311
-0.0576027
-0.08400198
-0.107539766
-0.12659073
-0.10570843
-0.07676583
-0.05141718
-0.013394239
0.01897359
0.030904032
0.021001497
0.023076044
0.07828562
0.13246629
0.1270128
0.099346
0.061142787
0.0036727665
-0.02302165
-0.019332675
-0.039248966
-0.075747915
-0.0932231
-0.078065686
-0.017907746
0.075748555
0.14284518
0.13871525
0.08562589
0.029379485
-0.0053331396
-0.018571615
-0.03580633
-0.07538713
-0.110969275
-0.117885284
-0.09704809
-0.052418675
-0.016465181
-0.0050466806
0.004466704
0.007285839
0.011446127
0.030841956
0.04247894
0.04014033
0.021226209
-0.0071009086
-0.016647307
-0.013169455
-0.0070341774
5.0158263E-4
0.0030749142
0.007465413
0.012319838
0.014809073
0.01851891
0.019898131
0.01936088
0.01617822
0.011984868
0.008723519
0.0042200997
0.003994407
0.0054398505
0.004177285
0.0043536867
0.003481907
9.711452E-4
-0.0011546228
-0.0025232078
-0.004864177
-0.009158285
-0.0070888316
-6.581246E-4
0.0016992909
0.0034596848
0.004030198
0.0016446738
-3.420463E-4
-0.0035615307
-0.008501611
-0.012161697
-0.014985177
-0.01921483
-0.022942418
-0.022916187
-0.020978855
-0.017591463
-0.01095006
-0.004024938
0.0014485576
0.0067731747
0.010186213
0.011858584
0.01360991
0.013907822
0.013988684
0.013680414
0.010820123
0.008659265
0.0073984135
0.0057870625
0.004928179
0.0039966055
0.004271229
0.0045099454
0.0035953003
0.0042241104
0.0031920788
0.0010458527
0.0018108434
0.0015497032
-8.6073246E-4
-0.0030232118
-0.004114083
-0.004163047
-0.00482779
-0.0034653419
-5.727813E-4
-0.0012024145
-0.0021093388
-0.002349426
-0.004932476
-0.005753351
-0.004273129
-0.0032101667
-0.003028567
-0.005621847
-0.0053064306
6.1070547E-4
0.0024118728
9.1430364E-4
-2.9514648E-4
-0.0029997034
4.4142024E-4
0.004208295
-0.002320393
-0.0042888713
0.0019461187
0.002787673
0.0012915289
0.0021981322
0.0013940275
-1.3309327E-4
0.0010133066
0.0028569656
0.003129185
0.003697826
0.003271759
0.002371507
0.004880144
0.006054402
0.0034166034
4.965394E-4
-0.0024825316
-0.005054752
-0.008659477
-0.009700743
-0.0033742436
0.0017868968
0.0033966827
0.0039373804
3.2821667E-4
-6.045462E-4
0.0010751113
-0.0018352132
-0.002974454
-0.0027915633
-0.0046250834
-0.002281175
7.657245E-4
2.5458625E-4
-5.510571E-4
-0.0015461869
-5.877372E-4
0.0027281742
0.0021517011
-0.0017379648
-0.0023387023
-0.0012911841
-0.0024429476
-0.002098221
4.1199167E-4
0.0016006394
0.0019103263
0.0025861869
0.0035859395
0.0021305108
-0.0013765268
-0.0012721415
8.4402954E-4
0.0014801368
0.0015258519
0.001651803
0.0030510153
0.0022165203
-0.0011353685
-9.2315685E-4
1.5392677E-4
-4.558971E-4
-3.7257397E-4
-3.2766175E-4
-6.084001E-4
-0.0012732289
-4.23043E-4
0.0015683423
3.693678E-4
-0.0020324676
-0.0039644004
-0.005244796
-0.0033229068
-3.9014226E-4
9.576962E-4
6.2388364E-7
-4.6569202E-4
0.0035241244
0.0052193874
0.0023201946
0.0022230032
0.0018533845
-0.001204235
-7.571044E-4
5.8768067E-4
-0.0012013469
-0.0020758323
-0.0027777557
-0.0050932574
-0.005059176
-0.0031137276
-0.001070461
6.193634E-4
-3.0563652E-4
-0.001038496
2.9696926E-4
0.0014180624
0.0036816797
0.005119117
0.001817419
-0.0019167498
-0.001393504
8.251336E-4
0.0017581772
0.0024913023
0.0042766053
0.004598755
0.0013715669
3.8195125E-4
0.0034196384
0.0031449494
0.0015736924
0.0021374242
0.0010682138
-2.9238022E-4
-9.367394E-4
-0.0013122344
-0.002163161
-0.0050053215
-0.0057954947
-0.0055272537
-0.006420662
-0.0044344976
-7.8144553E-4
0.0018601664
0.002016805
0.0013836942
0.00300325
0.0015069874
-0.0017269088
-3.6902467E-4
5.5207533E-4
-8.1617327E-4
-4.6125027E-5
8.7702996E-4
2.0978985E-5
0.0013268465
0.0029160867
3.838265E-4
-0.0016515441
-9.593624E-4
8.876743E-4
0.002222553
7.230728E-4
9.396605E-4
0.0013705584
-0.0019782726
-0.002684789
-9.35419E-4
6.088993E-4
0.0013979679
-5.620811E-4
-9.560534E-4
2.3069774E-4
0.0011725794
0.0023294908
0.0012552149
9.491158E-4
0.0012509152
9.636489E-5
-8.275341E-5
-2.0827717E-4
0.0015853177
0.0029640081
2.1784965E-4
-7.030562E-4
-8.940518E-5
-4.609204E-4
-3.743373E-5
1.8548864E-4
-6.911953E-4
-0.0026890973
-0.0032337797
-0.0023576857
-0.0017355843
-3.7218042E-4
-0.0011613013
-0.0017030659
4.2815105E-4
1.5433549E-4
-2.7587512E-4
3.4428784E-4
-2.9457605E-4
-2.1463481E-4
4.241774E-4
0.0013217293
3.6408863E-4
-0.0020755585
-6.184955E-4
0.0025950945
0.0034973104
0.0014309506
-9.319608E-4
6.8794884E-4
0.0012579852
-0.001554908
-0.0016722718
-1.6294843E-4
5.288641E-4
0.0015632415
0.0011453626
-0.0012042638
-0.0026062455
-0.002138475
-5.72803E-4
0.0012873599
0.0012672116
5.279913E-4
0.001175238
7.852849E-4
1.9858993E-4
2.2898662E-4
-2.6399805E-4
0.0018332964
0.0032269391
4.6654188E-4
-2.6279603E-4
5.516402E-4
2.6464562E-5
2.7509447E-4
-0.0010148362
-0.0030804581
-0.0028069399
-0.0025974456
-0.0021245417
-8.85858E-4
-8.4765156E-4
-0.0010653387
-0.0012313224
-8.5296814E-4
5.465444E-4
9.63733E-4
8.0360303E-4
0.0011188411
0.0011478394
8.6628844E-4
0.0012289194
0.0023394627
0.00231087
0.0021856125
0.0029804686
0.0020972637
5.718747E-4
-8.1675476E-4
-0.0010267082
0.0011851459
-1.0522949E-4
-0.0035245807
-0.0036988843
-0.0022781796
8.667667E-4
9.336453E-5
-0.0046392567
-0.0036259363
-9.3352736E-4
0.0012798816
0.003966193
0.0013341832
-0.0014699012
-6.042777E-4
0.0011398769
0.0033685907
0.002802514
8.831245E-4
8.302894E-4
0.0020781378
0.0029565464
6.811163E-4
-0.0012584431
-4.2093522E-4
5.1601836E-4
4.2650616E-4
-0.0015733282
-0.0023763853
-0.0012807327
-0.0017053948
-0.0032671364
-0.004696442
-0.0032315399
-5.197596E-4
4.4816854E-5
2.651353E-4
-5.3524016E-4
-1.1288599E-5
0.0019005686
8.3231786E-4
4.026138E-4
9.055565E-4
0.0014107497
0.0027222044
0.0018046056
0.0020736777
0.0028143302
6.805656E-4
-1.8325026E-4
-7.4516324E-4
-8.510739E-4
5.93608E-4
0.0010341052
0.0017623547
0.0010583211
-0.0015502131
-0.00198415
-4.6626537E-4
8.171875E-4
2.6223564E-4
-0.0010143378
-0.0017950427
-0.0023767487
-0.0015464339
-6.652306E-4
-9.448137E-4
-7.03522E-4
0.001196979
0.0025146028
5.853361E-4
-2.2548877E-4
-9.1994356E-5
-0.0023768072
-0.0012967272
0.0013025308
5.5431295E-4
6.054678E-4
5.897208E-4
-8.214509E-4
-0.0011890781
-0.0014960417
-0.0015057765
2.4712956E-4
0.0018316846
7.0996216E-4
-8.0841087E-4
-3.5945768E-4
-2.7104194E-4
2.7900433E-5
0.0017480763
0.0016139009
-5.276433E-4
-6.534152E-4
0.001182833
6.574311E-4
-9.8697E-4
7.8863464E-4
0.0031751893
0.0027360674
0.002459187
0.0025374773
-9.085384E-4
-0.0035926308
-7.9226587E-4
6.9932424E-4
-3.7561895E-4
7.2779437E-4
9.3615934E-4
-1.5933343E-4
-9.1339514E-4
-0.00203037
-0.0017638005
-0.0017880726
-0.0018116051
1.4419471E-4
2.1198529E-4
-0.0011882902
-0.0024529858
-0.0026495976
6.774191E-4
4.2890434E-4
-0.0032704375
-0.0010560006
0.0012919669
7.3218474E-4
0.0016556976
6.7538355E-4
2.8193186E-4
0.001482705
-5.962797E-4
-4.6337087E-4
0.0022765792
0.0010978221
7.3422707E-4
0.0024733231
2.672397E-4
-0.00139566
4.2526858E-4
2.5201243E-4
4.652415E-4
0.0022727007
0.0017051813
0.0011620792
8.0398086E-4
-4.138591E-4
-0.0011323784
-0.0013044348
0.001185819
0.0024016213
3.4137993E-4
2.746569E-4
-6.319233E-4
-0.001699987
-7.6510274E-4
-0.0023283178
-0.0024172289
-1.4208605E-4
-2.7401792E-4
-0.0014388958
-0.0021319818
-1.5517235E-4
0.0012431268
-0.0015083893
-0.0014023852
6.4776454E-4
-7.6914096E-4
-0.0013533537
-4.277656E-5
2.1444123E-4
2.3549286E-4
2.7555585E-4
-2.521066E-4
7.924334E-5
0.0012789065
0.0016710515
5.394212E-4
-0.0011059748
6.977032E-5
0.0017920777
4.0621826E-4
7.39037E-4
0.0015744431
-1.7683471E-4
3.9127583E-4
0.0010975129
-3.1076328E-4
-4.780036E-4
-2.341709E-4
1.7813485E-5
2.4885917E-4
5.854338E-4
9.5106504E-4
-2.3012757E-5
-1.9618683E-5
3.3460037E-4
-5.1876E-5
3.327344E-4
-9.925261E-4
-0.001229412
7.076392E-4
-9.055118E-4
-0.0018423306
-2.0403753E-4
-0.0010956513
-0.0014061257
-7.248572E-4
-0.0013238342
2.439006E-4
0.0015019979
5.0569746E-5
3.4877524E-4
7.23199E-4
-7.324722E-4
-2.9827005E-4
5.3994113E-4
1.10138215E-4
-5.400556E-5
-5.22182E-4
6.076651E-5
9.086289E-4
2.1006707E-4
0.0010365065
0.0014818242
-2.463703E-4
-5.87139E-5
1.8814475E-4
-0.0011841571
-9.4709423E-4
3.6978265E-4
4.1794355E-4
-0.0010760974
-0.0017293275
-7.134107E-4
-2.0676682E-4
-2.6915356E-4
-7.298364E-5
8.60627E-4
0.0014846481
0.0010378647
0.0019503133
0.002144918
-5.6415684E-5
-0.001004986
-0.0012295523
-0.0016067112
-0.0017456688
-0.0018320824
-2.2100448E-4
0.0010813994
8.624946E-4
5.986022E-4
-2.338057E-5
6.791272E-4
0.001456852
6.8221596E-4
6.177667E-4
-9.8032775E-5
-8.3105854E-4
9.907922E-5
-1.9751664E-4
-7.419831E-4
5.442488E-4
0.0011355864
-6.605265E-4
-0.0022653083
-9.77313E-4
0.0011474194
0.0020442416
0.0019773468
8.0173806E-4
-6.6934584E-4
-8.8847784E-4
3.858601E-5
-7.5297686E-4
-0.0022348852
-9.995473E-4
-7.305908E-4
-0.0019338342
-0.001737754
-0.0012172274
6.2791107E-4
7.951829E-4
-6.6928426E-4
0.0014823494
0.0014351712
-0.0014514118
-0.0010233163
6.67967E-4
0.0022713244
0.0011618023
-0.0017520265
-0.001302714
-5.1069964E-4
5.5617274E-4
0.0027052683
0.0024479392
0.0016017995
4.9601495E-4
-8.443959E-4
6.0507184E-4
0.0025222441
0.0014401395
-6.7123404E-4
-7.760773E-4
-1.3204839E-4
3.633631E-4
7.7718706E-4
-6.836249E-5
2.525106E-4
3.1036325E-4
-0.0023412413
-0.002286473
-7.0265966E-4
-0.0016960736
-0.0011213782
0.0013710014
4.1776197E-4
-0.0029604596
-0.0015995421
0.0014283101
-4.7806726E-4
-9.78792E-4
8.344009E-4
-7.4123E-4
-0.0018919603
-0.0012766573
-0.0017667782
-0.0014685444
6.992114E-4
0.002631349
0.0030739268
0.0019046181
-2.3950981E-4
8.8505876E-5
0.001932641
3.0360624E-4
-0.0013731653
-6.826242E-5
6.1945297E-4
3.2218677E-4
3.2737307E-4
5.1634957E-4
7.019991E-4
8.132436E-4
6.10014E-4
6.854608E-4
0.0018392922
0.0012376927
-6.0942344E-4
-4.6700577E-4
-6.904291E-4
-0.0012020592
-0.0010944435
-0.0016129602
-5.1838433E-5
0.0014968927
-6.52181E-4
-0.001552846
-5.853385E-4
-0.0014684615
-6.121946E-4
0.0011890774
-6.1227573E-4
-0.0018599037
-0.0026893392
-0.0030379056
0.0020032863
0.0044163726
0.0026485142
0.0023085512
-0.0026522942
-0.005668258
-6.383305E-4
0.0015197069
0.0015928427
0.0030017025
0.00215686
0.0010209547
-3.009335E-4
-0.0019293949
-9.5275225E-4
6.1931944E-4
6.0819107E-4
7.980066E-4
6.4988807E-4
-2.0362006E-5
6.657418E-4
2.6955828E-4
-8.859349E-4
-0.0010177668
-0.00244021
-0.0022558642
-8.4807206E-4
-0.0013560998
1.987343E-5
0.0017817067
0.00172307
0.0018245416
0.0020328753
0.0020973186
-4.8559794E-4
-0.0031775828
-0.001973042
-5.789269E-4
1.4418866E-4
0.0010520754
0.0017328383
0.002170002
0.0012515656
-6.90542E-4
-0.0024949403
-0.0012610233
4.8047374E-4
-9.971937E-4
-1.545926E-4
0.0012636842
-2.758317E-4
-2.6764226E-4
1.5655406E-4
-5.153757E-4
-8.0517976E-4
6.086718E-4
0.0014193663
-0.0016884964
-0.0022762315
-3.5708473E-4
-2.4104271E-4
0.0016958014
0.0020276199
8.952351E-4
0.0021802858
0.0011398039
-7.7295565E-4
-4.112488E-4
8.400084E-6
-3.611304E-4
-0.0011814999
-0.0014188361
-0.0015840316
-0.0010788407
-7.4569245E-5
-0.0011670344
-3.3885858E-4
0.003053392
0.0013139462
-0.0028415013
-0.0017682365
9.364514E-4
0.0017949484
0.0023143599
0.0011481754
-6.055572E-4
-0.0014579431
-0.0015892381
7.3263905E-4
0.0022746758
0.0013069483
0.0010462775
0.0015153752
0.0018918373
6.702055E-5
-0.0019197488
-0.0010331827
-0.0010350022
-8.7998284E-4
-6.499718E-4
-0.0019359583
-6.903109E-4
1.075684E-4
-5.128885E-4
6.69798E-5
-5.943642E-4
-9.7097276E-5
4.7968424E-4
-0.001638904
-0.0020938537
-0.0010587124
3.0967675E-4
0.002045012
0.00243294
0.0020027822
5.5911695E-4
-7.168718E-4
-5.308989E-5
0.0012456089
0.0018773031
4.943607E-4
-0.001103024
-6.932553E-4
-8.9727785E-4
-0.0014393047
-3.660657E-4
2.261419E-4
1.1254958E-4
4.8272152E-4
5.3836877E-4
4.431423E-4
4.8664227E-4
9.6000405E-4
0.0012584295
-3.5968248E-4
-7.3375955E-4
8.301753E-4
-6.2594813E-4
-0.002349406
-9.760374E-4
2.8535118E-5
-6.435192E-5
1.7447269E-4
5.589401E-4
3.1756313E-4
8.136434E-4
0.0017147019
-4.6141914E-4
-0.0013750069
6.134934E-4
-8.764801E-4
-0.0017845684
5.821663E-4
-1.3306753E-4
-0.0022335993
-0.002295622
-0.0017512691
-2.614118E-4
0.001369877
0.0018650695
0.001702731
6.3917914E-4
4.2981567E-4
0.0016468366
0.0018404826
0.002024214
0.0013497452
-8.693456E-4
-0.0010296673
-0.0011595193
-0.0011830593
0.0010066086
0.0013350677
2.5548338E-4
-0.0017108911
-0.0034143887
-0.0017868041
-6.239983E-4
0.0016351396
0.003701456
5.2818883E-4
-0.0015384286
-0.0025186916
-0.0027170638
4.412084E-4
4.095998E-4
-9.091441E-5
0.0016066135
0.0012004181
6.130456E-4
-4.1982294E-5
8.4868784E-4
0.0028334379
0.0012663653
-2.1047638E-4
9.6248894E-4
0.002099776
6.0141564E-4
-0.0016294306
-3.328934E-4
1.11053996E-4
-0.0011918143
-5.051187E-5
-5.4462254E-4
-0.0028241964
-0.0014085687
8.390554E-4
-0.0024299289
-0.005855226
-0.001776599
0.0023480975
0.0016353544
0.0011267395
0.0010404284
0.0010546322
4.1426698E-4
-0.0016646456
-8.474097E-4
0.0015167731
7.271395E-4
-7.119106E-4
5.8653943E-5
0.001741894
0.0020379687
9.13946E-4
0.0014069154
0.001827307
-0.0012162349
-0.0018672813
0.0015536979
0.0019054164
4.6989764E-4
-2.08453E-4
-0.0021373183
-0.0021055792
-4.0066816E-4
-0.0014520093
-0.002262176
-4.365658E-4
4.8415037E-4
-3.0162276E-4
-0.0010078647
2.5046269E-5
0.0018705509
3.0894153E-4
-0.0012034699
8.347479E-4
0.001240925
7.876643E-4
4.855256E-4
-9.657284E-4
-4.7444884E-4
-6.686682E-5
5.032782E-4
0.0027425284
0.002311869
2.9473504E-4
-2.8301796E-4
0.0014243368
0.0015204645
-0.0021264812
-0.0012955545
0.0011914618
-7.7323534E-4
-0.0021133972
-0.0021415378
-4.013932E-4
7.871116E-4
-5.202999E-4
5.590971E-4
-8.8371125E-5
-0.0021858355
-5.965987E-4
-2.0408374E-4
-0.0013186305
-0.0018964537