-8.8953465E-4
-7.742807E-4
-8.838737E-4
1.7771413E-4
5.948566E-6
-6.023885E-4
-1.127465E-5
7.922876E-5
-1.7561014E-4
-0.001376003
-0.003061125
-0.0026305637
-0.0010226168
5.9198606E-4
9.82413E-4
6.624777E-5
7.181872E-4
0.0012584202
4.6097353E-4
3.0592072E-4
1.11208115E-4
0.0012707277
0.0024951943
7.7026995E-4
8.495403E-4
0.0021408387
6.086243E-4
-4.2863516E-4
-0.001585031
-0.0025621844
4.727764E-4
0.0028497907
0.0017226107
-1.5676398E-4
-0.0033263394
-0.0050193407
-0.0014693276
0.0014085254
-0.0010777643
-0.0018666954
9.952434E-4
2.3218646E-4
-0.0011761915
0.001163899
0.002843844
0.003165132
8.7474816E-4
-0.002967002
-0.002171829
-4.7772072E-4
-1.3319644E-4
0.0017639396
0.0016578537
2.4377381E-4
-4.3839475E-4
-0.0010648366
1.490297E-4
0.0012190468
5.20114E-4
-0.001390173
-0.0024043473
-1.5708085E-5
3.9696714E-4
-0.0014040757
-0.0014721861
-0.0032245184
-0.0038174381
-7.111502E-5
0.0034158262
0.0037001302
0.0012921497
9.638732E-4
0.0034194887
0.0042675626
0.0028588583
-1.9331674E-4
-0.0019917742
-0.0011008426
-1.3831301E-4
1.2168717E-4
-1.930183E-4
6.729861E-4
0.0018636963
1.2034809E-4
-0.0015641561
-0.0010597924
-3.582345E-4
2.052445E-4
2.1820862E-4
-0.0010634436
-0.0022328147
-0.0018811398
-0.0013915795
-0.0012235774
-0.001611232
-0.0023698874
-0.0011837791
-0.0015183131
-0.0023328434
0.0017156128
0.0026083072
-2.304995E-4
8.6825725E-4
0.0014537869
0.0011495976
0.0019622578
0.0011440539
9.577219E-5
-0.0013319163
-0.00142102
0.0012761902
0.0012643688
-4.6291586E-4
2.7806434E-4
0.0013272297
0.0014720032
0.0010778325
1.7703061E-4
-6.1776125E-5
3.0631988E-4
7.090989E-4
0.0014855735
0.0012683093
-4.8998796E-4
-0.0015116142
-0.0012596332
-9.296893E-4
-0.0010614375
-9.959091E-4
1.3462131E-4
8.8675215E-4
2.9973115E-4
-4.832452E-4
-5.430467E-4
-3.196416E-4
-9.029749E-4
-0.0015824932
-0.0012736599
3.0677428E-4
0.001264339
3.2500833E-5
1.4242668E-4
7.5070624E-5
-0.0017973
-4.5767025E-4
1.3216006E-4
-0.0012112925
3.704687E-4
9.3368604E-4
6.1874674E-4
4.024385E-5
-0.0015480744
-1.5870915E-4
5.641442E-4
1.5089085E-4
0.001181943
6.958782E-4
0.0013165859
0.0018723282
2.3699638E-4
-4.218939E-4
-0.0016811065
-0.0011829068
0.0021375336
0.0030104266
0.0014023187
-8.4925693E-4
-0.0015163908
-0.0011859213
-0.0021178487
-0.0017801431
-8.120024E-4
-2.1391478E-4
0.0011477182
0.0015616325
0.0011985392
5.354867E-4
2.8039116E-4
9.974096E-4
6.7881437E-4
5.798079E-4
4.5995586E-4
-0.0011288966
-7.4635475E-4
1.6032669E-4
-0.0011773488
-0.0014814666
-8.199583E-4
-3.9886124E-4
0.0013519839
0.0025117164
0.0012450599
-0.0011492039
-0.0028491167
-0.0016786268
2.4150505E-4
1.3624797E-4
1.6642005E-4
-5.310845E-6
-0.0012411991
-0.001467862
-3.2180018E-4
6.6775223E-4
-6.18017E-4
-0.0014981477
4.248952E-4
0.0013544002
0.0012619625
9.036282E-4
9.8035474E-5
0.0010325983
0.0018432349
0.0010691262
-3.9734432E-4
-5.2235386E-4
0.0012620226
1.1780112E-4
-0.0012478785
1.1667053E-5
-6.084609E-4
-4.229359E-4
1.1984261E-4
-0.0010691402
-3.5741057E-5
8.301258E-4
9.3676016E-4
0.0012533637
-9.1826695E-4
-0.0014741601
0.0017998007
0.0032950009
2.980469E-4
-0.0025743952
-0.002012739
-0.0014023635
-0.0013239305
-9.3536073E-4
-2.2685267E-4
0.0016573593
5.1226915E-4
-0.001969571
6.620448E-4
0.0029414115
-1.4012877E-4
-0.0026954734
-8.7289937E-4
0.0011547707
0.0010296535
-5.7737863E-5
-0.0010907827
0.0011701783
0.002524229
-0.0013122521
-0.0023217709
-9.063496E-4
-9.0881647E-4
0.0010969541
0.0020882369
0.0014151414
0.0010154704
-9.6867187E-4
-0.0019357095
-0.0010695619
-1.8017903E-4
3.9778915E-4
-1.742171E-4
-6.959658E-4
-5.4332183E-4
-4.437353E-4
-2.8849626E-4
9.214339E-5
0.0011641507
0.0022265876
0.0014370646
-7.863091E-4
-0.0011362312
2.2124968E-4
5.316726E-4
4.4836898E-4
2.2631494E-4
6.4808846E-4
0.00126842
-5.4622017E-4
-0.0010717453
3.7105725E-4
-5.351236E-4
-0.0016476852
-0.0013199878
-8.022003E-4
5.152978E-4
0.0020204706
0.0014164833
-4.0472604E-4
-0.0011147539
-0.0013520408
-5.331216E-4
-1.4871875E-4
-8.926736E-4
9.820344E-4
0.0016908651
6.5062755E-5
-3.686938E-4
-0.0011258364
1.1912216E-4
0.0014264552
0.0011666015
0.0021189635
-0.0012161043
-0.0039383154
-1.6561519E-4
0.0010984411
1.5563099E-5
6.8214507E-4
0.0011470162
4.7130344E-4
-9.594168E-4
-6.0004735E-4
5.683228E-4
3.0241464E-4
-8.459209E-5
9.087476E-4
0.0016847318
-0.0012397463
-0.002655316
-4.515465E-5
2.653709E-4
7.900818E-5
1.52511E-4
-6.600087E-4
3.455937E-4
1.1503781E-4
-0.0010142192
-9.804558E-4
-0.0019498641
-0.0019885849
-4.0776425E-4
0.0010778144
0.0016292977
0.0011295093
0.0015936057
0.002445419
0.0015654513
-3.224567E-4
-0.0016902067
-0.0013707455
3.077959E-4
8.8992366E-4
1.2492728E-4
1.842945E-4
1.515365E-4
6.80775E-5
3.0663158E-4
-8.350353E-4
-5.4830387E-5
0.0023234803
0.0025912018
0.0013174064
-0.0028135888
-0.0047920165
-0.0012968148
6.3603115E-4
8.591567E-4
1.2027831E-4
-0.0015920454
-6.1145384E-4
6.447659E-4
2.523341E-4
-7.3787256E-4
-9.024244E-4
5.9755996E-4
0.0015955629
0.0016259339
-6.680283E-4
-0.0027772642
-8.262747E-4
9.155828E-4
0.0019826917
0.0021499686
5.526644E-4
0.0013163774
0.0011675591
-9.399159E-4
-3.835437E-4
0.001029184
8.33387E-4
-0.0010184497
-0.0012106071
4.6485476E-4
-6.671421E-4
-0.0012662618
3.8285315E-4
3.47711E-4
4.596187E-4
2.348872E-4
-0.0018119416
-0.001405289
-2.1914516E-4
-0.0018665964
-0.0019153712
-1.4287334E-4
-6.093057E-4
-0.0014123531
-0.0010189054
-4.1988667E-4
3.7602603E-4
0.0017288232
0.0034381046
0.0034373112
0.0019108243
0.0010415146
7.0932484E-4
-3.971083E-4
-0.0019067453
-8.4938214E-4
7.6444715E-4
-5.6177494E-5
4.2681722E-4
0.0012001907
-1.3444561E-4
-6.086456E-4
-2.515989E-4
-7.241997E-5
-4.926445E-4
-7.162343E-4
6.35183E-4
5.0435023E-4
-0.0010946015
-9.859655E-4
-3.0859918E-4
5.0115123E-5
6.269461E-4
2.7982373E-4
-7.927968E-4
-2.624296E-4
5.726831E-4
-7.759919E-4
-0.0015359755
7.968472E-5
0.0012176404
-2.2269332E-6
-0.0010988872
3.5956356E-4
0.001490519
0.0012486402
0.0011306371
-1.5247587E-5
-7.9238205E-4
-7.694062E-4
-0.0017412412
-0.0023618778
-0.0023156728
-0.0016512776
-5.2187388E-5
0.0015009859
0.0028064044
0.0023413855
1.3979829E-4
-6.55265E-4
4.3706183E-4
0.0018845125
0.0021155935
9.71264E-4
5.6664907E-5
-2.6890685E-4
-3.7330843E-5
-4.8710007E-4
-0.002154081
-0.0014597236
5.8140326E-4
2.4387115E-4
1.7921317E-4
0.0014776132
0.002147829
0.0016480736
-2.8740198E-4
-0.0015637408
-8.0543983E-4
8.009271E-4
7.607959E-4
-0.0025213237
-0.0042201187
-0.002200812
-3.9439293E-4
-1.2752849E-4
-0.0010455959
-0.0010173734
-0.001083798
-0.0028640362
-0.0017059962
5.716843E-4
8.679021E-4
0.0028556
0.005481497
0.005277483
0.0020195155
-2.749314E-4
3.6325157E-4
-1.3300586E-4
-8.1431426E-5
0.001715875
0.0012367631
-1.77801E-4
-8.2804135E-4
-8.6978584E-4
-3.492757E-4
9.445573E-5
0.0010088651
8.3416933E-4
-6.652712E-4
-6.7540363E-4
-6.6762016E-4
-0.0024715317
-0.00254699
-7.472758E-4
-0.0018194799
-0.0030142153
-9.4197446E-4
7.826589E-4
0.0017139401
0.001062287
-5.1546155E-4
4.0085775E-5
-0.0011334957
-0.0013637843
0.0015322005
6.187323E-5
-6.9547526E-4
0.0027180386
0.0026381277
0.0014563447
0.0017054025
6.060641E-4
-5.459472E-4
-0.0013521388
-0.0025542655
-0.003075696
-0.0025112727
-0.0017334396
6.3874984E-5
0.0025674112
0.0023199138
7.673148E-4
0.0012464833
0.0019402076
9.643741E-4
-4.852547E-4
-3.590324E-4
4.1568983E-5
-3.9526928E-4
3.206227E-4
2.1754093E-5
-0.0018366956
-0.0011233604
6.4488215E-4
0.0011661234
0.0013538655
4.5269803E-4
3.2699137E-4
0.0027268457
0.0035919074
0.0022657143
0.0017938667
0.001257657
-6.2846607E-6
-0.0023317067
-0.0047474047
-0.003179471
-0.001032021
-0.0020202668
-0.0020655477
-0.0016043977
-0.0017814464
-8.316474E-4
-4.9942674E-4
-9.68634E-4
-4.3376168E-4
3.557069E-4
-6.426969E-4
-0.0022165002
-5.883787E-4
0.001898597
8.3272276E-4
-0.0010725022
4.0452735E-4
0.0035284627
0.0035576248
7.9961296E-4
-7.431586E-4
1.0384242E-4
0.001924848
0.0027656355
0.0024935016
0.0012084196
-4.9214065E-4
5.98157E-4
0.0015545923
-5.5886596E-4
1.4312741E-5
0.0015126714
2.1984916E-4
4.497877E-4
-9.610545E-4
-0.004291482
-0.002212721
0.0010984493
0.0015723412
0.0016836859
6.086401E-4
-8.9236407E-4
-0.00258385
-0.0031279786
-4.273815E-4
-1.574257E-4
-0.002926517
-0.0042095226
-0.004376347
-0.0023440274
-7.348885E-4
-0.0010875695
0.0013319527
0.002083917
-8.0889335E-4
-2.6108132E-4
9.943768E-4
2.927575E-4
0.0019120539
0.0030559383
0.0022997416
0.0043316777
0.0057247407
0.0023235688
-5.6953824E-5
0.001338118
0.0022535047
8.5857284E-4
-6.1307574E-4
3.1500458E-4
0.0020016013
0.0013972643
-0.0010422386
-0.0034591386
-0.0049767056
-0.0057947636
-0.0037098734
0.0011493359
0.0012911628
-0.0026960436
-0.0031053424
-0.0018348905
-0.0019440204
-0.0012617923
0.0013418484
0.0041775573
0.0031670807
0.0011860442
0.0037021595
0.0051110443
0.0029996496
0.002344354
8.3084544E-4
-0.0029546716
-0.004531822
-0.0039819963
-0.0034904156
-0.0018051607
6.6846714E-4
7.080692E-4
-2.4485038E-4
1.3180195E-4
-1.4254508E-4
1.6202604E-4
5.46436E-4
-0.0011934588
-7.170538E-4
-4.0435817E-4
-0.0030985
-0.0021104699
-1.9422705E-5
4.473107E-4
0.0032132422
0.0036733479
0.001724564
0.0017385175
0.0018061608
0.0020114372
8.78459E-4
-7.334412E-4
3.9588797E-4
-5.754718E-4
-0.0027279756
-0.0014594168
7.1100995E-4
0.0017205332
-1.8199085E-4
-0.0025388454
-0.0032307543
-0.0042401236
-0.001864371
7.122748E-4
-0.0011888668
-8.669934E-4
0.0013794954
0.0034897113
0.008969134
0.012785679
0.0061844336
-0.00577876
-0.0077463347
-0.0026552537
-0.0020921768
-0.0015461014
2.9739964E-5
4.6633303E-4
0.0015962421
0.0010441135
0.0010333465
6.6740694E-4
-0.0021904805
-0.002357617
-0.0015766142
-5.184598E-4
0.0017947324
-2.8246225E-4
-0.0034874699
-0.0032506937
-0.0048837815
-0.0071435887
-0.004405361
-0.0010113673
-8.675817E-6
0.00237618
0.004075222
0.0026879637
0.0016039979
0.0015335825
-1.3433845E-4
-0.0026540125
-0.0015162716
2.4938793E-4
-0.0010104056
0.0010199122
0.0049072756
0.0054604406
0.0055078357
0.006579034
0.0073177037
0.0029771808
-0.00128761
0.004766799
0.008442425
0.0010230889
-0.004589654
-0.0044922787
-0.0042287707
-0.004617297
-0.0022206549
0.00204976
0.0021878956
3.894727E-4
-0.002450593
-0.0093285935
-0.011207498
-0.007216301
-0.0061880476
-0.0037190223
-0.0013185516
-0.0027183837
-5.5837383E-5
0.0016017613
-5.752613E-4
0.0020512296
0.00462051
0.0032027608
0.0014833703
0.0012097049
0.0038305928
0.007461359
0.011439421
0.012587738
0.0065988307
-3.9548663E-4
-0.0015859347
-1.4486554E-4
-0.0023771678
-0.004607228
-0.006043721
-0.010773472
-0.009804387
-0.0059395614
-0.0054229335
-0.0013048527
-0.0011280962
-0.0024410514
0.0036037648
0.0057275645
0.003126616
-0.0012093988
-0.007438259
-0.010058622
-0.008433203
-0.0014095381
0.005473604
0.007864881
0.009823542
0.009000551
0.0072870236
0.006934369
0.008746683
0.01248567
0.009225567
0.0026265082
-0.0017273683
-0.0053990553
-0.0037443514
-5.9654318E-5
6.894857E-4
-0.0025004225
-0.0069495533
-0.0064031375
-0.0066455663
-0.0077422843
-0.005682175
-0.0048341975
-0.00258641
-0.0029853163
-0.0060720206
-0.0013845454
0.0025662244
-1.9073207E-4
-0.0020444125
-0.0023866894
-0.0023269437
-0.0011329327
0.0020840047
0.0065694773
0.009486273
0.010927685
0.013532254
0.016654242
0.015801108
0.013456994
0.010171488
1.024202E-4
-0.008583833
-0.0116721215
-0.016597513
-0.019185245
-0.017819976
-0.016714782
-0.015678326
-0.014913822
-0.01059088
-0.005866982
-0.008452783
-0.013510418
-0.017357152
-0.017187558
-0.0072645936
0.0062063634
0.016053433
0.025402004
0.03454022
0.03719665
0.03414925
0.03433896
0.033028573
0.015825469
-0.00792712
-0.014712924
-0.005659696
0.0056119245
0.016533656
0.01629853
-9.863732E-4
-0.013126334
-0.014257874
-0.01960059
-0.021885272
-0.016130771
-0.013624406
-0.009891601
-0.0038094406
-0.0073446576
-0.013132708
-0.010096489
-0.0033769652
0.0037676787
0.0093805855
0.010113391
0.0073775514
0.002090648
-0.0036078822
-0.008803081
-0.016944597
-0.029023303
-0.042043567
-0.046245202
-0.03621278
-0.019679304
-0.0031923596
0.0069852434
0.0073594586
0.0065244585
0.009960479
0.016746007
0.025708772
0.03279853
0.03674208
0.035281863
0.028546894
0.027768552
0.03482474
0.043287206
0.049131643
0.043297086
0.032498688
0.02812859
0.023717422
0.020442566
0.012507737
-0.012607978
-0.047413643
-0.08324315
-0.101480685
-0.09572994
-0.08894204
-0.07449973
-0.046907604
-0.026820334
-0.011607347
0.0085915765
0.032496106
0.04808286
0.04651842
0.043290813
0.045619484
0.038154084
0.012667696
-0.010579715
-0.014904406
-0.009753714
0.008453963
0.02742919
0.016762134
-0.00883339
-0.024383644
-0.021216718
-6.533366E-4
0.023932045
0.04808194
0.058747243
0.042728078
0.011794711
-0.018145865
-0.036890026
-0.042980246
-0.0448875
-0.055996493
-0.072077855
-0.07227468
-0.051169064
-0.01206726
0.027255552
0.05486439
0.08245728
0.098827995
0.10003885
0.10468482
0.10472228
0.06801127
-0.00813701
-0.073462516
-0.11891594
-0.15314057
-0.14088984
-0.10909699
-0.08169552
-0.024909196
0.04851216
0.10653228
0.12038846
0.092890054
0.06805763
0.056999255
0.047853515
0.018628323
-0.013143875
-0.016663305
-0.038684733
-0.07089107
-0.0629821
-0.0587189
-0.0844454
-0.109785475
-0.11857956
-0.08435592
0.01871533
0.13133231
0.17410892
0.17847794
0.16652064
0.106603295
0.023662673
-0.06546772
-0.13730378
-0.15369412
-0.14598414
-0.12041116
-0.077793375
-0.045027133
0.012645815
0.06866582
0.07434831
0.090629965
0.1238729
0.13359955
0.113939226
0.053818133
0.011005401
-0.0013021635
-0.056182083
-0.094844505
-0.06277256
-0.03139129
-0.011310362
0.010223937
-0.0058603776
-0.05013486
-0.057303406
0.0030670778
0.067735575
0.055942092
0.0040040123
0.002833092
0.040880676
0.063404165
0.061787955
0.023104034
-0.044876795
-0.11215284
-0.16012628
-0.15488453
-0.11712084
-0.09008684
-0.0647529
-0.052219883
-0.03357029
0.033581723
0.11206522
0.14505166
0.1269662
0.10699187
0.09765335
0.08439222
0.0979999
0.07587244
-0.013967119
-0.059829243
-0.0900061
-0.15263203
-0.14000817
-0.036691073
0.0727544
0.13139805
0.12907973
0.11282141
0.11197444
0.10780443
0.05432074
-0.051206287
-0.11571743
-0.10679765
-0.10856517
-0.14839096
-0.17043902
-0.16324371
-0.119044706
0.0066026896
0.13081075
0.15092677
0.11639425
0.047792643
-0.026691709
-0.032715723
-0.038275875
-0.09301377
-0.12047967
-0.07946909
0.002923997
0.06737592
0.10258504
0.11060782
0.06861698
0.030931339
0.020444853
-0.0037578547
-0.021156862
-0.024783812
-0.024731608
-4.2697074E-4
0.04466669
0.0845888
0.09381203
0.08298563
0.07237368
0.037699576
-0.013106002
-0.036265757
-0.04268043
-0.0636184
-0.08348235
-0.07545112
-0.052520413
-0.039236754
-0.03219217
-0.021311857
-0.011634771
-0.006531109
-0.0042802496
-0.0048982343
-0.0023658348
0.0021568055
0.0016789017
0.0016128535
-2.4852826E-4
-0.008456954
-0.014452687
-0.009209792
0.010392363
0.027146783
0.03144242
0.039138213
0.045880843
0.044414446
0.040969398
0.031301685
0.02158253
0.013954267
-0.0031781462
-0.016132573
-0.013372261
-0.0077529494
-0.0069497074
-0.011409809
-0.016494807
-0.01854155
-0.01914571
-0.015235088
-0.011522437
-0.01176256
-0.0102742305
-0.011192621
-0.014157311
-0.013121151
-0.011042128
-0.008326495
-0.0061019226
-0.005183515
-0.0024852725
9.053112E-4
0.005317653
0.009776905
0.010279541
0.0074390746
0.004208371
0.0030661963
0.0033735866
0.003872938
0.0074266414
0.013104832
0.014895658
0.012950305
0.009190213
0.0029060822
-1.8271759E-4
6.0598715E-4
-0.0022412352
-0.0063276524
-0.00628621
-0.002626938
-5.6838257E-5
-0.0019995207
-0.0025791682
-8.7269094E-5
0.0013094186
0.0016225117
0.001360348
0.003418649
0.005939654
0.0036752366
7.14894E-4
-9.4778807E-4
-0.004270115
-0.0066877906
-0.005336029
-0.004182709
-0.005043166
-0.0038099512
-0.0027067808
-0.00311627
-0.0023899
-0.0031022406
-0.003370157
-0.0032469898
-0.0052079433
-0.0043072775
-0.0032722272
-0.005199895
-0.0069188233
-0.0075577893
-0.0034939523
0.0026859287
0.0053682667
0.0042520114
9.292144E-4
0.002100914
0.0044922153
0.0032631485
0.005900907
0.010345607
0.013591841
0.015504041
0.011318913
0.0076385634
0.007606206
0.0058724307
0.004272886
0.002717554
7.6345826E-4
3.323373E-4
7.942525E-5
-0.0010474558
-0.0021965464
-0.0017273688
-0.0026619541
-0.0064150505
-0.006892336
-0.004170871
-0.0039582266
-0.008019892
-0.011307414
-0.0092091
-0.0070121237
-0.0059775673
-0.0042012963
-0.0058506834
-0.006796941
-0.0037142804
-0.0021837044
-0.0020769644
-0.0017061837
-0.0012415049
-5.377753E-4
-5.010077E-4
-9.566887E-6
0.0016239798
0.003949662
0.0052254265
0.004249757
0.0050784443
0.008047945
0.009932397
0.011543779
0.01205979
0.010198058
0.006843412
0.002993437
0.0011890746
0.0012762543
-3.9210405E-5
-7.1945536E-4
0.0030373603
0.00519521
0.0017640366
0.0015301295
0.004231341
9.33648E-4
-0.006064244
-0.0133576635
-0.019016793
-0.016719105
-0.009499835
-0.0066150934
-0.0061923903
-0.0039804494
-0.0042740493
-0.005045572
-7.262009E-4
0.0016729372
7.753077E-5
0.0016974
0.0047353352
0.0062133516
0.005852201
0.0016632642
-6.511984E-4
0.0031907884
0.005360136
0.0034411277
0.0035651862
0.005531707
0.005943607
0.004228943
0.002251764
0.0029262465
0.0045155818
0.0032747344
-5.758364E-4
-0.0021755365
1.28449865E-5
-7.012866E-4
-0.0033016624
-0.0030211066
-0.0029192143
-0.0025404925
-0.0027264103
-0.003598287
-0.0020676157
-0.002227016
-0.0026434008
-0.002447076
-0.0035877407
-0.0011030685
-6.6154776E-4
-0.002726082
-0.0010265883
-0.0022959204
-0.0031486417
-0.0010470023
-0.0014376
-8.376771E-4
-0.0015379309
-0.0015110958
0.0017261297
7.340983E-4
8.8807766E-4
0.002248499
-8.0965273E-4
-2.9881057E-4
0.0024400814
0.0023489539
0.0024869975
0.002817734
0.00309055
0.0022829913
-7.093774E-5
-0.0017890121
-0.002555453
-0.0017435229
-6.1753136E-4
-0.0011148481
-3.124599E-4
0.0019336169
4.0785834E-4
-0.0032871782
-0.0024037533
6.496249E-4
2.505027E-4
-0.0014129471
-5.0905865E-4
0.0019171613
0.0015180582
-0.0014134037
-0.002581352
-0.0015927777
1.3807247E-4
1.5770092E-4
-6.939874E-4
0.0014647325
0.0025973725
0.0013207195
2.4415346E-4
-0.0028978882
-0.0024498317
0.0019405207
6.6234916E-4
-2.7728316E-4
0.0027746721
0.0019327393
-5.017463E-4
-0.001214603
-0.001679379
-0.0018684056
-7.031473E-4
0.0017076901
8.1433775E-4
-0.0011580992
-2.0866057E-4
-1.0312183E-4
0.0011253633
0.0026967465
0.001028371
9.795332E-4
0.0015190762
1.7118323E-4
-2.954671E-4
6.291568E-4
0.0021316302
0.0015116901
-4.6374768E-4
-0.0018429051
-0.0025215272
-0.0013100159
-0.0018233968
-0.0021483474
9.791416E-4
0.0017540739
8.886732E-4
-4.5864447E-4
-0.001780164
1.6494491E-4
7.46558E-4
5.893608E-4
9.388755E-4
-9.6967956E-4
-1.5059655E-4
0.0015053246
1.9888546E-4
-9.188198E-4
-0.001537031
-0.0012951149
-0.0012669472
-7.0812466E-4
0.0015008654
0.0019857294
0.0013787589
-2.58797E-4
-0.0016465557
-3.135206E-4
-3.6754835E-4
-5.677291E-4
0.0013714863
0.0010502014
-0.0014619668
-0.0019832477
-4.9105356E-4
-1.1445744E-4
9.751719E-4
0.0022107116
4.5311847E-4
5.393853E-4
0.0013210656
0.0012757669
0.0030627304
3.6791965E-4
-0.002826255
-5.745135E-4
-3.7734138E-4
-0.0011833023
-3.1237147E-4
-2.862638E-4
2.2448108E-5
1.17356016E-4
-4.90995E-4
-6.5079355E-4
4.8602954E-4
9.650824E-4
5.5196117E-5
0.001026883
7.3361205E-4
-9.81913E-4
2.9940894E-4
0.0018112618
0.003800989
0.003590916
-0.0026408061
-0.00494533
-0.0014432531
-3.2791667E-4
9.0860114E-5
5.2672427E-4
-0.0016845441
-0.0019833015
9.7962016E-5
-0.0011942354
-0.002521376
-6.090035E-4
-1.3774923E-4
-1.4548337E-4
0.0011057609
7.946064E-4
2.1374309E-4
6.165233E-4
-1.6024806E-4
-0.0016987245
-9.922315E-4
0.0012551945
0.0024184468
0.0028224636
0.001978515
0.0010741841
0.0011699023
-4.218658E-4
-8.4419484E-4
9.544631E-4
6.6949264E-4
-6.0720893E-4
-0.0023424746
-0.0024421206
7.191207E-4
-7.685074E-5
-0.00201065
0.0013277507
0.0017213634
-6.898736E-4
4.415625E-4
-3.3373476E-4
-0.0018705754
-8.508263E-6
1.6605855E-4
1.8150892E-4
0.0020696886
0.0015610235
1.4406779E-4
-3.2687534E-4
-3.415551E-4
2.5127124E-4
-1.6654535E-4
-8.202125E-4
-4.8083367E-4
-5.2849046E-4
-3.106509E-4
8.6895825E-4
2.0737675E-4
-0.0016226298
-7.306977E-5
0.0012290305
-0.0012134493
-0.0018625483
-4.064561E-4
5.019281E-4
0.0010259043
-2.6744025E-4
-0.0010947293
1.802845E-4
6.4366363E-4
7.4969075E-4
0.0020804952
0.0020296331
-4.4274327E-4
-6.087585E-4
6.15968E-4
-4.4102E-4
1.3706004E-4
6.0834415E-4
-8.701938E-4
1.8580594E-4
4.7521113E-4
-3.6052355E-5
0.0013079804
1.18816955E-4
-8.306494E-4
4.942394E-4
-4.795624E-5
-2.2443173E-4
-2.1067636E-4
-0.0021910209
-0.0017895425
1.7990939E-4
-9.3101326E-4
-0.0019770206
-0.0015815666
-0.0015355194
9.956985E-4
0.0029272316
5.16883E-4
-7.972771E-4
-9.4397186E-4
-0.0017050297
-8.1306533E-4
-3.5182692E-4
6.942489E-4
0.0024033925
7.823725E-4
5.1487115E-4
0.0022143826
0.0010028221
0.0013411512
0.0030790614
0.0018898107
0.0010381954
0.0014544682
0.001643172
8.644381E-4
-7.5959496E-4
-0.0013270958
-0.0025505295
-0.0028078298
-2.5940104E-4
2.992886E-5
-2.2157741E-4
2.6491212E-4
-0.0020993291
-0.0031251924
-0.0012773352
-0.0012315097
-0.0026641404
-0.0011418258
0.0014321704
1.3581887E-4
-4.932563E-4
1.115344E-4
-0.0014862065
-1.2502077E-4
0.0024827537
0.0018920805
4.0200574E-4
-5.124389E-4
9.6303265E-5
1.3259862E-4
1.8291156E-4
0.0010381129
2.4014612E-4
0.0018051458
0.003263481
0.0012028143
4.4753362E-4
-8.6728256E-4
-0.0013640296
5.3034595E-4
7.8954553E-4
4.422634E-4
-0.0017369464
-0.003818734
-0.0025620582
-3.4183147E-5
0.0025871308
6.323607E-4
-0.0010681115
0.002704101
0.0023052564
-6.568915E-4
-0.0014905566
-0.0019164569
6.1521184E-4
0.002055728
6.5512833E-4
5.0652E-5
-4.9171346E-4
-0.0013872582
-0.0022600736
3.5245193E-5
0.002328511
4.1815592E-4
8.9559477E-4
0.0010199584
-0.0022115442
-0.0017302042
-1.966675E-4
-5.5793475E-4
-3.9943468E-4
-2.58829E-4
-1.2588088E-4
-1.460303E-4
-4.7387282E-4
-9.462207E-4
-3.6065708E-4
0.0011752481
1.7208772E-4
-0.0015257589
-9.3719887E-4
-8.1492784E-5
-7.906304E-6
-2.2924463E-4
0.0012243846
0.0030408944
0.0019401427
0.0018024489
0.002764712
9.792945E-4
-1.6340203E-4
-4.7254504E-4
-0.001262383
6.6031126E-4
0.0023868843
5.807721E-4
-0.002443737
-0.002629264
0.0014380233
0.0018864147
-0.0015200167
-3.1058933E-4
9.2154293E-4
-7.360344E-4
-0.0015028582
-0.0022657842
-0.0025623413
-0.002931872
-0.0019151279
3.8835168E-4
-3.785853E-4
-6.050821E-4
-1.2731327E-4
-6.2458136E-4
-1.8835452E-4
-0.0016953788
-5.9499743E-4
0.0030075037
0.0022520996
0.0022728092
0.0023734781
8.828841E-4
0.0013127109
1.9257571E-4
7.990556E-4
0.0032331187
0.0013445382
-4.5961555E-4
-8.3844096E-4
-0.0010327026
-9.251859E-5
-6.111352E-4
-4.6827502E-4
0.001545585
0.0018467866
-8.80226E-6
-0.0022430622
-0.0026278237
-0.0023040618
-0.0015683824
0.0014541178
0.0017580884
-8.3203486E-4
-2.2141502E-4
2.6593194E-4
-0.0017736985
-0.0026817794
-0.0014141492
7.5479865E-4
4.9269915E-5
-0.0017191963
-4.092388E-4
1.3671834E-4
3.1660884E-4
0.0012943246
0.0011024929
0.0018509018
3.5388474E-4
-0.0018614979
-2.2329541E-4
-1.713898E-4
-3.9587608E-6
5.3898065E-4
-7.782756E-4
0.0019998841
0.0029350875
9.362329E-5
5.563842E-4
-2.9584166E-4
-0.0011523763
5.2340206E-4
7.7084353E-4
9.612964E-4
-5.0341063E-5
-7.577803E-4
5.6648575E-4
-3.6530374E-4
-9.138835E-4
5.744048E-4
0.0010535582
5.872031E-4
-1.0253627E-4
-3.191041E-4
-3.899494E-4
3.2956724E-4
8.811163E-4
-7.099488E-5
3.2154803E-5
-6.872774E-4
-0.001642535
-6.19296E-4
-0.0013905622
-0.0015591271
-9.461876E-5
4.4085592E-4
0.0013769486
6.5269537E-4
-9.460544E-4
-0.0015149146
-0.0016432684
-0.0012330839
-0.0028233365
-0.0028561426
2.008414E-4
6.586799E-4
5.1474327E-4
0.001058475
9.805503E-4
0.0013996508
0.0020864694
0.0026043858
5.5197766E-4
-2.5270664E-4
0.002985268
0.0018358834
-0.001241408
0.0013785083
0.0043043112
0.0028317245
4.197999E-4
2.807454E-4
2.6800565E-4
-3.2825523E-5
3.3590966E-4
-0.0010544512
-0.0027847514
-0.0036364284
-0.0040864088
-0.002480188
-7.104771E-4
-5.4590567E-4
-0.0014132181
-0.0011858323
6.7869545E-4
9.8722136E-5
-0.0012511002
-0.0010445901
-0.0013351382
-9.6136244E-4
-0.0014424071
-0.0017877497
0.0020997624
0.0048192097
0.0029474809
7.2503847E-4
2.1771269E-4
0.0014865097
0.0027977529
0.0018936694
8.7193104E-5
1.3616356E-5
9.229589E-4
-3.4336574E-6
-0.0021544981
-0.001524112
0.0015893888
9.315104E-4
-0.002019668
-3.685724E-4
9.824522E-4
-0.0016568562
-0.0018659821
4.849523E-4
0.0013747849
3.944882E-4
-6.8987155E-4
-4.7317924E-4
-7.7577267E-4
-0.0015934613
-0.001860073
-0.0011081459
0.0015424194
0.002331392
7.1884395E-4
5.4107315E-4
9.263248E-4
5.5491406E-4
-7.990758E-4
-0.0010397821
7.153352E-4
8.9667935E-4
0.0010050562
6.973658E-4
-0.0016032523
-7.602184E-4
9.347038E-4
-1.6633439E-4
-7.91608E-4
-8.343066E-4
-7.217616E-4
-5.408329E-4
-1.9404842E-4
0.0011025266
0.0020568727
0.0017247385
-9.918808E-4
-0.0031884601
-0.002512679
-0.0019182169
8.466407E-4
0.0033182516
1.0757819E-4
-0.002807565
-0.001926949
0.0014571244
0.0034894485
9.120627E-4
1.2012645E-4
0.0010723055
-3.381218E-4
-0.0012002604
-0.0016899582
-7.468842E-4
8.7598996E-4
-3.4797256E-4
-6.202539E-4
2.2184581E-4
-1.5066021E-4
5.2933843E-4
0.0018301102
0.0023477362
0.0010134588
-7.526006E-4
8.512223E-4
0.0019164013
-0.0011199953
-0.00284892
-0.0017944105
-7.051358E-4
0.0010061973
0.0013892178
-5.585125E-4
-5.4385414E-4
6.672753E-4
-6.77459E-5
-8.3002244E-4
-8.466707E-4
-5.923497E-4
3.6370594E-4
5.074653E-4
-2.4381079E-4
6.8737013E-4
0.0018193123
2.2018858E-5
-0.0012822972
-9.30237E-4
-0.0017969848
-4.4731682E-4
0.0018336845
8.747768E-4
0.0010509852
8.7351725E-4
-0.001041447
3.6924685E-4
7.275303E-4
-5.5372296E-4
0.0013057115
5.364557E-4
-0.0028350416
-0.0023562128
-4.3254715E-4
-3.555549E-4
-0.0011318123
-9.179587E-4
-6.0881965E-4
-3.0528396E-4
0.0021096307
0.0020732228
-7.058492E-4
-3.7818003E-4
6.363929E-4
0.0013074537
0.0017573164
2.5846827E-4
-5.7778525E-4
-0.0010663688
9.7642296E-5
0.002067032
2.5740013E-4
-1.1932864E-4
2.754006E-4
-0.0012902154
5.444041E-4
0.0015195282
2.4726082E-4
1.8387506E-4
-4.948419E-4
7.7545375E-4
0.0011707328
-0.0014609653
-0.0014235222
-0.0014870261
-0.0018394592
0.0010755208
0.0015717972
-6.914319E-4
4.6618696E-4
0.0017815777
-9.365879E-4
-0.001760063
4.5966453E-4
3.4922874E-4
-8.678116E-4
-7.8544876E-4
5.33806E-4
1.9996788E-4
-0.00276755
-0.0021557694
2.2457576E-4
-8.7127916E-4
-0.0013516719
7.3501904E-4
0.0023819702
5.863125E-4
-0.0016984503
-2.6163386E-4
4.2711083E-5
-0.0011465767
0.0010179061
0.0037008708