2.9322522E-4
3.2194747E-4
6.877869E-4
2.1966863E-4
4.4811756E-4
1.715993E-5
-2.6737145E-4
4.424129E-4
-2.1258136E-5
9.873952E-4
0.003438694
0.003243892
0.0017401656
-1.4058333E-4
-0.0021538609
-0.0013434776
3.2310642E-4
7.2725076E-4
0.002016675
0.0016732636
-6.728692E-4
-2.3791587E-4
9.77533E-4
3.9674214E-4
-0.0011329807
-0.002764108
-0.0017403989
-0.0010042125
-0.002347523
-0.0020117008
-0.0028741693
-0.0031824887
3.8802705E-4
0.0015390719
0.0011421401
0.0017245231
8.600327E-4
6.447908E-4
1.2388249E-4
-0.0010044549
4.2797398E-4
0.0014641917
1.4657839E-4
-8.060988E-4
4.1348304E-4
0.0019978166
0.0012469481
8.7290144E-5
-1.0646448E-4
3.2675805E-4
0.0016929561
0.0018347886
9.611193E-4
2.2606911E-4
-0.0011531456
-8.363718E-4
4.2779875E-4
-4.8568414E-4
-5.766789E-4
3.2783923E-4
-8.390766E-4
-0.0013352481
-8.415601E-4
-0.0010988842
7.3676056E-5
7.7649317E-4
-3.0517476E-5
3.1556436E-4
-3.6540386E-4
-0.0017855429
-0.0013829947
-6.2185153E-4
-2.6248794E-4
-2.8670218E-4
6.0382555E-4
0.0014071014
2.1605154E-4
4.879528E-4
8.000649E-4
-5.581768E-4
-3.5510986E-4
-2.6236736E-4
-2.2978958E-5
9.60713E-4
0.0011775063
0.0011520658
-6.319182E-4
-4.2461336E-4
0.0017989563
-2.7814765E-5
-6.5967813E-4
9.744473E-4
9.3402714E-4
8.70395E-4
-3.576398E-4
-1.9013563E-4
5.765176E-4
-0.0010962021
5.801368E-7
6.470299E-4
-0.0014785362
-0.0014946307
-0.0013861931
-0.0010060148
-9.957233E-5
7.6671684E-5
0.0012602246
2.8884306E-4
-0.002067079
-0.001141062
1.16026655E-4
-2.603849E-5
6.5465167E-4
9.587366E-4
-4.842293E-4
-8.765612E-4
1.8931984E-4
4.5358142E-4
8.4449205E-4
7.407396E-4
4.7640764E-4
8.714158E-4
-8.3645456E-4
-4.8981636E-4
0.002566848
0.0010864929
-0.0013020979
-9.416379E-4
-5.264556E-4
7.300287E-4
0.0017451845
0.0013568451
4.3413817E-4
-4.975637E-4
-8.510668E-4
-0.0011048919
-1.150971E-4
3.4159355E-4
-9.6868037E-4
5.8293046E-4
0.0017170546
-9.463592E-4
-0.001527567
-6.032223E-4
-0.0015193691
-8.7971595E-4
0.0024638872
0.003256045
1.093779E-5
-0.0018436082
-0.002019298
-0.0023501432
-9.156383E-4
1.3776922E-6
-6.857413E-4
3.7253678E-5
0.001037535
1.05599254E-4
-7.6544716E-4
3.17405E-4
0.0010026809
5.985526E-4
9.833067E-4
0.001158853
4.1332332E-4
-7.1406737E-4
-8.008776E-4
5.449527E-4
7.3400524E-4
8.5752166E-4
0.001063813
7.513726E-5
7.702738E-4
0.0011791616
-1.1132037E-4
-1.3023874E-4
-1.626274E-4
-3.7881298E-4
-2.5293254E-4
-3.0630318E-4
8.763747E-5
-9.972795E-4
-0.0025583513
-0.0011814974
5.602658E-4
-2.2474577E-4
-8.3143526E-4
-1.1452677E-4
-6.8600586E-4
-4.951701E-4
0.0014042823
0.001265876
9.659338E-4
4.243561E-4
-0.0024246864
-0.00211619
0.0013624794
0.0024479544
0.0017537263
0.0013328637
5.930427E-4
-7.1027223E-4
-8.8021246E-4
-5.643238E-4
-6.375246E-4
7.4878096E-4
0.0011591547
-3.326387E-4
-0.0011353603
-0.0024000758
-0.0028511768
-0.0015184302
-5.7331834E-4
5.6753557E-5
4.7090655E-4
0.0019582163
0.0021726377
-0.0010358288
-0.0016996508
-2.1144874E-4
9.070663E-4
0.0023445825
9.781574E-4
2.7252757E-4
0.0013178288
5.937387E-4
9.261495E-4
5.6847924E-4
5.4996274E-4
0.002307858
7.0749E-4
2.8393403E-4
0.001388251
8.466212E-5
-2.0366935E-4
-0.0020640164
-0.003776921
-0.0024998782
-0.0019641707
-5.6020316E-4
-0.0020217972
-0.005026451
-0.001433697
0.0012626597
6.562534E-4
0.0016990624
0.001552341
0.0012612661
0.0010969724
6.031445E-4
0.0018377318
0.0016083334
3.172218E-4
9.666322E-4
0.0015982441
0.0011808398
8.89624E-4
0.0011433157
1.8797592E-4
-0.0018198211
-0.0017326152
5.9735125E-5
3.2709818E-4
-8.9062745E-4
2.6629674E-5
1.971986E-4
-0.003896967
-0.0045212703
-0.0013931144
-6.0380774E-4
-1.8644013E-4
-7.5649214E-4
-2.9654047E-4
0.0023878955
0.0018221007
0.0011885716
0.0010299921
-2.0590718E-4
0.0013968414
9.807614E-4
-7.1442587E-4
8.322273E-4
1.9392544E-4
-0.0011428102
-2.2477205E-4
0.0011544935
0.0029081744
0.0035690342
0.0025971488
-0.0016030548
-0.005804432
-0.0036848045
2.8746215E-5
0.0010310267
1.8530832E-4
-3.1402917E-4
0.0013624396
4.5759926E-4
-0.0012154552
5.019461E-4
6.4735004E-4
-4.91204E-4
9.189746E-5
0.0013204691
0.0010910475
-5.3617137E-4
-3.450221E-4
-3.1089812E-4
-7.24562E-4
2.7328834E-4
-6.718514E-4
-0.0019718485
-0.0020610222
-0.0015158834
3.2840602E-4
9.5294825E-5
-1.7173246E-4
8.9514756E-4
-6.259616E-5
7.6943816E-4
0.001818223
-7.8007346E-4
-0.0013079805
3.948788E-5
1.1455732E-4
0.0012461932
0.0012395119
-7.2938215E-4
-4.4634036E-4
5.351691E-4
7.8951643E-4
0.0013192503
3.2143842E-4
3.951023E-4
0.0013355379
-9.739179E-5
5.2817137E-4
0.0010974027
-0.0018443093
-0.0021410047
-7.950292E-4
-0.001465091
-0.0015175093
4.1190218E-4
0.0018740754
6.4040034E-4
5.346551E-4
0.0020663554
0.0010030299
-2.2425967E-4
-2.900332E-4
-3.3559874E-4
-3.9771743E-4
-0.0014324733
-9.5103076E-4
2.4019391E-4
-4.4437422E-4
1.7606064E-4
8.1846234E-4
-0.0011004587
-0.0015889405
6.3426624E-4
8.5899164E-4
-0.0018100303
-0.0019006226
2.2780329E-4
2.631647E-4
2.7963493E-4
4.5715924E-4
-4.6074722E-4
4.813349E-4
0.0015530899
7.4018113E-4
7.0910755E-4
5.9367955E-4
1.0339563E-4
1.18434524E-4
-0.0011230182
-7.849668E-4
0.0016552008
0.0016949225
4.4990313E-4
-7.736316E-4
-9.596163E-4
0.0011556244
0.0016834005
2.4415262E-4
-9.933583E-4
-0.0014521286
-8.008211E-4
-8.920189E-4
-1.4334753E-4
0.0011291752
5.009958E-4
9.608168E-4
5.7029765E-4
-0.001272251
-0.0011724752
-0.0015500984
-5.164314E-4
0.0018964963
3.357814E-4
-0.0018085924
-0.0019234755
-0.0019789801
-5.593101E-4
0.0014999282
0.0010632761
-2.2126948E-4
4.7486124E-4
7.449322E-4
-0.0011042426
-0.002255161
-0.0014870291
2.3483095E-4
0.0019304337
0.0030275865
0.0025706363
4.9619813E-4
1.13934686E-4
0.0013022166
8.748043E-4
-1.686167E-4
-5.210472E-4
3.353047E-5
8.41607E-4
6.19649E-4
4.308055E-4
6.254237E-6
-8.8367105E-4
-4.920174E-4
2.5817248E-4
5.443683E-4
8.803902E-4
7.4783026E-4
-9.871103E-4
-0.0032465588
-0.0018554607
6.1310997E-4
-1.5877768E-4
-8.268157E-4
-0.0023426092
-0.0036111411
3.1991463E-4
0.0019566524
-0.0013977458
-0.0021644705
-4.1839073E-4
0.0018096899
0.0023861965
1.01061865E-4
-7.6142064E-4
-5.3007992E-5
-4.61825E-5
-7.517118E-5
4.6619755E-4
0.0012778027
0.0012541757
0.001304605
0.0013575199
5.170185E-4
2.4140059E-4
-4.320199E-4
-5.310934E-4
9.3964324E-4
0.0010127788
8.513671E-4
4.270968E-4
-7.863816E-4
-2.846421E-4
-6.675974E-4
-0.001599944
1.1302679E-4
0.0013145247
5.654596E-4
3.6836525E-5
7.415844E-4
0.0011365891
-2.2119607E-4
-0.0010265128
-6.05128E-4
-8.59348E-4
-0.0013266625
-7.572419E-4
1.0895847E-5
2.930891E-4
3.3622916E-4
-1.6181174E-4
-3.2175245E-4
-0.0011942955
-0.002776416
-0.0012364087
-1.3095565E-4
-0.0014786975
-6.862081E-4
1.7909618E-4
2.5649739E-5
-1.2747581E-4
3.4697654E-4
0.003231202
0.002544513
-0.0012108699
-7.628151E-5
0.0013889516
-3.0707114E-4
4.1321447E-5
0.0020380325
0.0016159643
4.800199E-4
5.382523E-4
2.4820614E-4
0.0013546424
0.0020914262
-1.050526E-4
-0.0013804176
-0.0023276533
-0.0016429148
0.0012636388
4.2393905E-4
-1.7930337E-4
6.546889E-4
-0.00161592
-0.0025778871
-0.0021377038
-0.001434655
3.3347483E-4
-2.94085E-4
-1.0337364E-4
0.0025887974
0.002384303
-4.30155E-5
-8.023702E-4
-7.2543294E-6
-8.3072414E-4
-0.0024205884
-9.352139E-4
9.7618945E-4
9.738077E-4
0.0012258289
0.0010848254
-5.4325565E-4
-0.0023510922
-0.0027237223
-0.0013899894
-2.405964E-4
0.0010340292
0.003243997
0.0030508745
0.0017072551
0.0020185818
0.0014624583
0.0019531017
0.0020164424
-0.0010292362
3.3169945E-5
6.8347465E-4
-0.0032587927
-0.0016273555
0.0012661524
6.9343497E-4
0.0012023479
-2.9724333E-4
-0.0010820725
0.0011114596
0.0026682138
0.0038280399
8.4874115E-4
-0.002999187
-0.0021830294
-0.0036312244
-0.0066028256
-0.0061308164
-0.0046293726
-0.0025798446
-8.477136E-4
-5.263504E-4
-0.0012248511
-0.0020441262
-7.381063E-4
8.704025E-4
0.0011665325
0.0019001573
0.0025883573
0.002397786
0.0015372876
0.0013725108
0.0017539129
7.4977963E-4
8.246333E-4
0.0026186754
0.0036029893
0.0047293752
0.004119065
3.484453E-4
-0.0012073957
0.0014913299
0.00514416
0.007692
0.00804937
0.0047156033
-0.001472877
-0.006613078
-0.008431665
-0.006947514
-0.0041519227
-0.0035459772
-0.0042452444
-0.004365111
-0.004978356
-0.005114437
-0.0037761456
-8.881767E-4
0.0024035347
0.0031474268
0.002563335
0.0023583756
0.0019008645
0.001114533
-0.0010342045
-0.0022381924
-0.0017654352
-0.003123916
-0.0031720938
-4.897171E-4
5.9930066E-4
0.0012526797
0.0041563367
0.007063425
0.006282134
0.0043340013
0.0041857776
0.0023219015
9.1821974E-4
0.0014141581
-6.8711507E-4
-0.0018351404
-0.0022328808
-0.00619656
-0.0077158217
-0.0047817463
-0.0024517137
-0.001765849
-5.168427E-4
0.002595331
0.004277389
0.0028623631
9.6171023E-4
-1.3696567E-4
0.0016825458
0.0036144338
-0.0016563853
-0.007452611
-0.00291689
0.004387013
0.0056594447
0.0038313088
3.1611297E-4
-2.9643215E-4
0.0036200313
0.0018129082
-0.002165326
5.2989693E-4
0.0025214015
0.0019160158
0.0018725478
-3.4928636E-4
-0.0042242017
-0.0070849094
-0.0053671733
-0.001493257
-0.0011557827
-8.7962026E-4
-0.0010087441
-0.0031330825
-0.0023871032
-7.305435E-5
0.0014683397
0.0012217234
-5.214492E-4
2.35609E-4
1.4632221E-4
-0.0026710771
-0.0033949343
-0.002132593
4.3580178E-4
0.002829569
0.002620767
0.0033868838
0.005993312
0.0050308877
4.079715E-5
-0.003894416
-0.003665006
-4.6790083E-4
4.3272728E-4
-0.001754707
-6.0517364E-4
0.0030507902
0.003945469
0.0042955666
0.0061947824
0.0062986286
0.0038970788
0.003464518
0.003337403
-0.0011407499
-0.0067021754
-0.00971707
-0.00746466
-0.0032156918
-0.0035885093
-0.0020824994
0.0014760012
3.746862E-4
-7.597195E-4
-0.0016456747
-0.0024106961
-6.694126E-4
0.0011061818
0.003070951
0.0022721766
7.703564E-4
0.003254059
0.0033508695
0.002081694
0.002814699
0.0022896177
-6.8479516E-5
-0.004726159
-0.0062290938
-0.0034933442
-0.0025097807
3.6902333E-4
0.0035690928
0.0026388
0.0024812073
0.0021596137
1.5141921E-4
-0.0012273052
-0.004332331
-0.007572381
-0.0066975816
-0.0041311015
-0.0029949457
-0.0021753842
-1.8149204E-4
0.0020812247
0.0032164855
0.005184322
0.009008889
0.010998647
0.010805872
0.008236768
-6.182244E-5
-0.007501853
-0.0071073524
-0.004118548
-0.0021756932
-0.0020004413
-0.0046214797
-0.0054216376
-0.002330941
3.725097E-5
-8.3771866E-4
-0.0017541845
0.0010937282
0.005373382
0.00845531
0.009857133
0.00513206
-0.003280769
-0.0064941905
-0.0052326936
-0.003316505
-0.0015626666
-7.579473E-4
4.992342E-4
0.001126638
-4.6307693E-4
-9.2638755E-4
-5.708424E-4
-0.0025982931
-0.00411087
-0.0024461574
-4.3286168E-4
0.0013436192
0.0028109734
0.0015475833
-9.965263E-5
-7.499516E-4
-7.8423304E-4
0.0027370765
0.0040317336
-0.002105617
-0.0055710985
-8.83791E-4
0.0044266987
0.005302647
0.0046088663
0.004733713
0.0035448747
0.0015253399
0.00107752
0.001224217
-0.002132547
-0.009259467
-0.011336017
-0.007629814
-0.0055388855
-0.003698722
-0.0039044388
-0.005916433
-0.002621662
0.0012966282
0.004694446
0.01067921
0.013276612
0.01487058
0.01645373
0.012854175
0.008650436
0.0046562366
-5.1178713E-4
-0.0022435393
-0.0022738543
-0.003728088
-0.0059315637
-0.0075996625
-0.006464322
-0.0052329283
-0.00650179
-0.007915965
-0.011333442
-0.016682174
-0.020121193
-0.023937067
-0.026364218
-0.021671249
-0.010637949
0.00457404
0.015573458
0.016464727
0.016657596
0.020825878
0.025455175
0.026620474
0.023567399
0.023212891
0.021733535
0.01398063
0.007851142
0.0018981276
-0.0042468514
-6.4214104E-4
0.0112272
0.017710593
0.009840531
-0.007272897
-0.028374806
-0.04515366
-0.044214632
-0.036184814
-0.03049875
-0.017654909
-0.004768306
-0.0011978243
-0.0020289137
-0.003716323
-0.004430777
-0.0054033436
-0.010616414
-0.014742232
-0.006211164
0.0054922234
0.010617234
0.024345841
0.037517004
0.034611344
0.032186568
0.03430846
0.03494235
0.030826112
0.017760737
5.970698E-4
-0.02311462
-0.043860547
-0.048071545
-0.048815805
-0.04428919
-0.026601968
-0.00975309
0.0027064376
0.018669676
0.03441032
0.039807215
0.037723243
0.03301079
0.025991812
0.019261979
0.008952531
0.006525232
0.013868189
0.00409089
-0.014574223
-0.02160316
-0.02061762
-0.020920455
-0.030052744
-0.030463988
-0.020535039
-0.02142249
-0.019001245
-0.003802671
0.009633375
0.016125068
0.021189556
0.029948158
0.03561463
0.03463527
0.024276886
0.0016085636
-0.026263872
-0.050859448
-0.048482224
-0.018759234
-0.0013483305
-0.00826603
-0.022975136
-0.024344044
0.007141545
0.06673922
0.10649405
0.0814909
0.023256406
-0.028823948
-0.06425379
-0.064361595
-0.054091364
-0.065089256
-0.084360346
-0.08555445
-0.061280493
-0.034220178
0.0040943064
0.039513335
0.043078426
0.060141746
0.07978074
0.09495217
0.14259501
0.16150081
0.13177024
0.06902767
-0.015033733
-0.053118195
-0.080852374
-0.11539498
-0.10367317
-0.09194046
-0.08872099
-0.076973185
-0.050844427
0.024025124
0.087098174
0.09782009
0.098775856
0.12203189
0.16379495
0.13294955
0.01891664
-0.082759306
-0.15047759
-0.17130576
-0.1621569
-0.1574639
-0.11857338
-0.065810814
-0.034660652
0.012386622
0.059203457
0.06824339
0.07303036
0.08873814
0.07576523
0.051364593
0.047298443
0.0062833824
-0.071250744
-0.101498954
-0.09593256
-0.089709684
-0.047815196
0.014292494
0.03955169
0.038309243
0.047265027
0.07594718
0.12308592
0.1760544
0.21462186
0.20972776
0.13164155
-0.008328595
-0.16666739
-0.2819981
-0.27930522
-0.17383723
-0.07563948
-0.016650297
0.028536018
0.053750124
0.100365125
0.17090517
0.17319654
0.091634445
-0.032036804
-0.14390758
-0.1473529
-0.037815113
0.06627685
0.07827836
0.0364428
2.6111625E-4
-0.049774487
-0.0846466
-0.059786677
-0.047540266
-0.089482345
-0.12783472
-0.114541456
-0.05909427
0.005719172
0.06189557
0.077696264
0.06100229
0.058181174
0.050088912
0.029925399
0.030224053
0.0386794
0.029893914
0.016777271
0.033420134
0.05605173
0.06751133
0.10644295
0.110631675
0.035389677
-0.029265948
-0.0631072
-0.08486962
-0.06927443
-0.037066888
-0.019430697
-0.022013886
-0.034564223
-0.041241873
-0.046802502
-0.04464347
-0.033598877
-0.0316655
-0.029385367
-0.017952764
-0.0045123356
0.010098729
0.022364685
0.03320559
0.043163482
0.047088493
0.047013655
0.04318272
0.035285864
0.024763756
0.008613509
-0.007900605
-0.015862016
-0.017640986
-0.018070744
-0.018624105
-0.020968547
-0.020919077
-0.014226431
-0.007160365
7.983004E-4
0.011762881
0.013825958
0.010028381
0.010958391
0.011667229
0.0130929975
0.0145894075
0.011049211
0.007888
0.0043643257
-0.0016100515
-0.0049828524
-0.0069713606
-0.011044067
-0.01590876
-0.018628072
-0.019564446
-0.01923316
-0.016817728
-0.014712318
-0.012040628
-0.0071594846
-0.0024518364
7.923081E-4
0.003121074
0.007183426
0.0103003485
0.008834271
0.0072378996
0.0064367247
0.0065240758
0.0075335503
0.0058297943
0.0055108215
0.0076805335
0.007446905
0.0059859427
0.0044501564
0.0038178235
0.0043415986
0.0042237677
0.002485829
-0.0012237073
-0.0023033314
-7.1280333E-4
-0.0020603347
-0.0029235522
-4.7407646E-4
-4.764913E-5
-0.0035341363
-0.0048729503
-0.0019044871
-0.0010571328
-0.0020523835
-0.0024307843
-0.004972017
-0.005682676
-0.002391312
-1.0071251E-4
-1.3942654E-4
-9.321074E-4
5.4637424E-4
0.0039657718
0.0042423503
0.0016883501
2.4015672E-4
-5.317974E-4
-0.0019085645
-0.0016975482
-0.0014111738
-0.003415019
-0.0023521206
5.255719E-4
-0.0017156315
-0.00485813
-0.004578658
-0.0023656813
8.048474E-4
0.0027333288
0.0035554827
0.002448282
-0.0016796051
-0.0019326719
0.0010257526
2.1594357E-4
7.737509E-4
0.0025648258
1.4355081E-5
2.2722155E-5
0.0029954207
0.0036472327
0.004598218
0.0036022293
0.0014790187
0.0022788814
0.001481063
5.4280256E-4
2.5602593E-4
-0.0020568212
-1.1436017E-4
0.0015459735
-0.0022943413
-0.0010517488
0.0022027274
-6.6615205E-4
-0.0025194811
-7.2752545E-4
0.001361742
0.002582129
7.9036335E-4
-0.002970854
-0.004774176
-0.0031345298
-6.062436E-4
-1.9949068E-4
-9.5793034E-4
-0.0011414923
-0.0013781119
-0.0024775837
-0.0015077072
0.0030675062
0.0042140903
1.9730674E-4
-0.0016500005
-0.0015635581
-0.0026912054
-0.003013287
-0.0014351644
1.05175975E-4
1.9049495E-4
0.0011336596
0.001958331
0.0010644273
0.0020268303
0.0017458526
-9.703167E-4
-1.8062638E-4
0.0016304131
0.0016093672
5.835846E-4
-5.4717116E-4
5.257688E-4
6.626931E-4
-3.5188283E-4
5.0305267E-4
6.3072337E-4
-1.8601624E-4
-3.5185798E-4
0.0011027866
0.0023485837
6.726118E-4
-9.532643E-4
-0.00306822
-0.0044842362
-0.001536626
3.691698E-5
-3.9078845E-4
3.858588E-4
5.993885E-4
0.0010621223
5.569487E-4
-9.106753E-4
-6.3158444E-4
-2.8663417E-4
-6.324775E-5
0.0011594574
0.0013760854
-4.969003E-4
-8.438336E-4
9.3157304E-4
7.987128E-4
6.581988E-4
1.1461936E-4
-0.0026452758
-0.0027349757
-0.0013737353
3.0083449E-5
0.0012385749
-0.0017248143
-0.0028834671
1.630463E-4
0.0018072343
0.0035381522
0.0029685088
-0.0024843237
-0.005288251
-0.0021998698
0.0012946016
0.0021801752
0.0022931362
0.0026490057
0.0033868959
0.0034440553
0.0016557156
6.787341E-4
6.9666817E-4
-4.5439517E-4
-0.001940142
-0.0029424992
-0.0028586534
-0.002751059
-0.0028523214
-8.1525254E-4
-1.5163128E-4
-0.0020274979
-0.001199422
-9.040167E-4
-0.0033682017
-0.002099582
0.0010796264
0.00135381
2.4896036E-4
-0.0018611946
-0.0017981341
0.0011269515
7.8202394E-4
-7.346222E-4
1.9513495E-4
0.001224897
0.00208065
0.0019674264
0.001043681
6.229847E-4
5.8616465E-4
9.317107E-4
-2.0209084E-4
-0.0011416713
7.277992E-5
1.1522457E-4
-3.9521634E-4
3.4127542E-4
7.3588913E-4
2.631854E-5
2.9642639E-5
0.001896198
8.6491293E-4
-0.0027799185
-0.0031210273
-0.0020284776
-6.6212454E-4
0.0011535179
2.1000419E-4
-8.647836E-4
3.7603467E-4
0.0010089332
2.8875342E-4
7.903856E-5
7.4365997E-4
5.247678E-4
-2.0929294E-4
-7.924604E-4
-0.001995083
-0.0016375814
-1.4241714E-4
4.262778E-4
9.0289104E-4
-4.7188989E-4
-4.0812025E-4
0.0042040017
0.0042549316
-5.5399706E-4
-0.002070815
-0.0016427111
-4.2325488E-4
9.605222E-4
7.002604E-4
6.843933E-4
-3.6124307E-5
-0.0012357634
-5.9172313E-4
3.894178E-4
-1.2953162E-4
-0.0019284622
-0.0011825362
0.0013676543
0.0012292233
9.929391E-4
-1.3448844E-4
-0.0020708176
-7.052495E-5
0.0011406428
5.728133E-4
0.0010813206
-5.549744E-5
-1.3317376E-4
1.653835E-4
-0.0015778302
-0.0013521638
-3.832052E-4
5.8059016E-4
0.0013200578
-1.7783824E-4
-2.72618E-4
-2.8410708E-4
-0.0017471198
-9.053419E-4
-9.5060316E-4
-0.0024167656
-9.001453E-4
0.0016883494
0.0016534316
-4.4032122E-4
-2.3002883E-4
0.0015881129
0.0013282563
0.0017544171
0.0022393835
1.1015466E-4
-0.0010904587
6.285819E-4
0.0030136448
0.002634069
8.771988E-4
7.489076E-5
-0.0015514756
-0.0012023662
8.3389727E-4
6.9699564E-4
3.044027E-4
-4.482493E-4
-9.485353E-4
-0.0014458772
-0.0034029682
-0.002291379
-6.957167E-4
-0.002238964
-0.002572656
-0.0011860804
0.001334141
0.0030296175
0.002395811
0.0021531745
0.0015646379
2.4696937E-4
-0.0013511863
-0.001570273
0.0020936737
0.0033336699
1.8241786E-5
-0.0012551708
-4.8768587E-4
-9.981669E-4
-0.0032145502
-0.003814446
-0.0013057572
3.261655E-5
4.6562933E-4
0.0016100898
3.570569E-4
-0.0021505288
-0.0018632315
2.7428122E-4
5.083407E-4
-6.2117877E-4
2.3172435E-5
9.445593E-5
-0.0017151975
-5.6196825E-4
0.0020389697
0.001833606
0.0029631366
0.0055794995
0.0058146375
0.0057185167
0.004226453
6.359637E-4
-0.00132462
-0.001789253
-9.2339475E-4
-8.5756986E-4
-0.0025741465
-0.0020031086
-0.0021408102
-0.0025424028
2.0539483E-4
-0.001058207
-0.0033654529
-0.0010616995
-0.001493205
-0.002524188
-2.917339E-4
7.6154293E-4
1.5461283E-4
-0.0024795085
-0.0025866632
0.00173065
0.0024579202
0.0019295346
0.0013765804
-0.0019532393
-7.411122E-4
7.1192917E-4
-0.0033496995
-0.0029218593
0.0020730302
0.0036513219
0.0012515504
-0.0021607534
-0.0021734792
0.0014526427
0.0033533543
0.0018825206
7.9652003E-4
-5.141435E-4
-0.00316127
-0.00256719
-5.9451506E-4
-6.471625E-5
0.0018018229
0.0031901633
0.003456535
0.002785546
0.0014579186
0.004124143
0.0056708413
0.0019313885
0.0011426794
0.0011559008
-0.0032889512
-0.0052254344
-0.004134918
-0.004014137
-0.001166799
0.0018339185
-6.035646E-4
-0.0035307275
-0.0032495519
-0.0022650491
-0.0013877463
2.2625786E-4
8.871401E-4
-0.0014869971
-0.002233102
-3.0587308E-4
-5.578126E-4
-1.8842201E-4
0.0012916804
0.0013688585
0.0019711838
0.001654164
9.849243E-4
0.001629321
0.0013960244
6.803749E-4
6.3209253E-4
0.0014254327
0.001415832
6.205656E-4
5.3191086E-4
-0.0013586523
-0.0016585274
0.0016041114
0.0018269656
5.1012053E-4
5.154176E-4
-0.001001718
-0.0032870392
-0.0042021526
-0.002654723
-6.643931E-5
2.9512105E-4
-1.3920467E-4
9.3152793E-4
6.3400576E-4
-7.3784904E-4
7.7306706E-4
0.0016539013
6.532966E-4
0.0015904326
0.0015169925
5.109399E-4
-1.1272814E-4
-0.0017398781
1.067399E-4
0.0021000658
-9.767779E-4
-0.0020043887
-1.9538647E-5
-2.4219918E-4
-0.0011336784
-3.1134687E-4
4.812124E-4
6.4999494E-4
0.001774936
0.0011198346
-9.931616E-4
-3.796022E-4
-1.4287674E-4
-9.7280234E-4
-7.002831E-4
-0.0015837584
-0.0016822309
2.609274E-4
0.0016253093
0.0019681572
-1.4000872E-5
-0.0022475522
-0.0012659918
3.6380155E-4
9.0174464E-4
4.0380683E-4
1.05369196E-4
0.0016140763
0.0013056333
-2.5377978E-4
1.7536864E-4
-0.0010249726
-0.0021722452
2.235271E-4
0.0012323513
1.3039123E-4
8.954221E-4
0.002029295
6.2919E-4
-0.0010851758
4.6512505E-5
0.0016148823
1.4828941E-4
-0.0023357377
-0.0017587797
6.938333E-4
6.369253E-4
-3.0870282E-4
5.832254E-4
8.3571655E-4
-5.864861E-4
-0.0028053385
-0.004129784
-0.0022886756
4.1901664E-4
0.0015268462
0.0015676522
0.0010515784
0.0015571021
0.0016731734
-6.8056295E-5
-3.4912842E-4
3.448874E-4
0.001220824
0.002219101
2.4726214E-5
-0.0011493637
4.918494E-4
5.764943E-4
0.0016227174
9.557628E-4
-0.002486906
-0.0013704624
5.962737E-4
-4.4983643E-4
-8.74467E-4
-4.2936712E-4
6.066157E-4
0.0010438515
-4.3391107E-4
-0.0020422828
-0.0012931454
-3.7557568E-4
-0.0021286765
-0.0014701072
6.2475353E-4
-2.0414137E-4
0.001044619
0.0021060677
-4.132737E-4
-0.0010477885
7.394089E-4
0.0019992185
6.512607E-4
-8.2976656E-4
4.986427E-4
4.1078203E-4
-3.6390126E-4
7.4068905E-4
0.0010709136
7.561327E-4
-6.361082E-5
-8.124115E-4
-4.859014E-5
1.9929442E-4
-5.9862166E-5
6.8012794E-4
3.0410982E-4
-0.0013505461
-8.990468E-4
9.524101E-4
0.0022035246
0.0027351948
1.6470849E-4
-0.0022244959
7.629707E-4
0.0025867517
-0.0013610984
-0.0044448106
-0.0017763397
0.0017171877
5.251311E-4
-2.4260285E-4
4.9548433E-4
-0.0024992398
-0.0031008888
-2.6057495E-4
-2.4197306E-4
6.482217E-4
5.929266E-4
-0.0022075218
-8.608293E-4
3.640106E-4
-0.0012231184
7.025539E-4
0.0026762255
4.1209382E-4
-0.002073493
-0.0010562083
0.0016346034
0.00108463
-7.555808E-4
0.0011186705
0.0033753756
0.0019742406
2.40108E-4
1.7769793E-4
-2.766017E-5
-2.4199717E-5
5.7419174E-4
0.0017856976
0.0017653549
-0.0010177818
-0.0011642852
6.0319286E-5
-0.0018259048
-9.1295183E-4
0.0012699867
-4.1727934E-4
-0.0010475767
5.4691517E-4
6.607868E-4
-5.010422E-4
-6.948616E-4
-9.940355E-4
-0.0019493338
-0.001603293
-8.271265E-4
0.0015584466
0.002599492
-0.0016625056
-0.0024073937
3.8184595E-4
-3.3408435E-4
-7.369378E-4
-3.8775706E-4
-6.493347E-5
0.0011415121
2.7917963E-4
-0.0014518242
-7.897717E-4
0.0011147762
8.015862E-4
-1.3244433E-4
5.580358E-4
3.7870565E-4
2.1667617E-4
-0.00102107
-0.0026867758
5.0610607E-4
0.003559484
0.0026926757
5.054007E-4
-0.0013698793
3.1336994E-4
0.0021734117
0.0011326896
1.2783722E-4
-2.1154479E-4
9.297983E-4
0.0015606378
6.32851E-4
-1.6373757E-4
-0.0015930883
-0.0010570382
-2.766081E-4
-0.0020019067
-0.0010562744
-2.2082463E-4
-0.0023682315
-0.0016821844
-1.6719649E-4
-5.220939E-4
3.2134555E-4
6.009259E-4
-6.647186E-4
-7.101261E-4
2.2032858E-4
3.6830606E-4
-8.550876E-4
-7.81028E-4
0.0015611354
0.0015713703
7.120144E-4
0.0016608757
9.242692E-4
1.6634606E-4
4.3077872E-4
2.828729E-4
6.3616957E-4
-6.5687724E-4
-7.581175E-4
0.0012303066
4.5015986E-5
-9.2909683E-4
-3.302326E-4
-3.178663E-4
7.4191084E-5
-5.1124976E-4
-7.603769E-4
-3.7930586E-4
7.826783E-4
0.0022045467
-3.078243E-4
-0.0016280917
-0.0010226904
-0.0021089616
3.502176E-4
0.0018837394
2.4834153E-4
2.8694875E-4
-7.6860155E-4
-7.331443E-4
-1.3662793E-4
-6.858861E-4
0.0014147009
0.0014771034
-5.8562466E-4
-8.7973505E-4
-8.091685E-4
3.9686554E-4
3.36114E-4
-2.6139183E-4
0.0010737506
2.6765783E-4
-0.0010238985
-2.0591846E-4
1.2646733E-4
8.302722E-4
0.0023655738
0.0012770875
-4.245955E-4
0.0020146244
0.0024490922
-0.0018002249
-0.0021501752
3.2679248E-4
4.851752E-4
-0.0010238161
-0.002903749
-0.0022399086
-2.4407469E-4
6.8493205E-4
0.001469248
3.797226E-4
-0.0012927472
-8.56137E-4
-0.0010445162
-0.0016654445
2.8943546E-6
0.0014546214
4.564832E-4
-6.0263276E-4
1.2292818E-4
8.8923995E-4
4.0403494E-5
5.251329E-4
0.0023927996
0.0010957125
-8.859001E-4
-6.3821144E-4
-6.83556E-5
5.341494E-4
4.121139E-4
0.0010287996
0.0024688395
0.0014775243
-6.6859234E-4
-0.0022061004
-9.4767037E-4
5.236111E-4
-0.00152611
-6.9242256E-4
-6.999555E-5
-0.0020939934
0.0011598534
0.0023525823
6.1476753E-6
5.747653E-4
-0.0017146501
-0.0022797047
0.0015499571
1.959714E-5
-0.002724725
-2.0059164E-5
0.0016913308
-4.7157792E-4
-1.4168369E-5
0.0010114034
-0.0015545723
-4.7281137E-4
0.0013859585
-4.1134635E-4
7.511097E-4
7.7159196E-4
-0.0014962887
-2.101827E-4
7.521937E-4
6.812305E-4
0.0012011492
0.001008414
8.117422E-5
-0.0011261563
-2.9991672E-4
2.1825673E-4
-5.6263024E-4
6.95506E-4
5.7084736E-4
-9.937605E-4
-0.0011851286
-0.0014199184
-5.5404316E-4
1.04727485E-4
-5.17984E-5
0.0011283505
0.0014866685
0.0012048277
7.3420996E-4
-9.064595E-4
-0.0012228749
-2.9346018E-4
5.4252864E-4
4.9015466E-4
-7.351314E-4
-1.1684683E-4
3.0429676E-4
-0.0013743233
-7.142812E-4
5.196298E-4
0.0012560049
0.002912387
3.26237E-4
-0.0018849546
7.7992334E-4
5.3254844E-5
-0.0012735145
5.16084E-6
-8.462696E-4
-3.9347226E-4
-1.9516621E-4
-0.0021350873
-0.0010859413
4.0391198E-4
9.1395405E-4
9.056419E-4
-0.0014114063
-0.0026903942
-0.0015192336
7.783758E-4
0.0015783658
-1.8162443E-4
9.0673464E-5
0.00133769
0.0013944637
0.0015694719
6.6854194E-4
7.94345E-4
6.470374E-4
-0.0012946313
8.11054E-5
8.0935896E-4
-9.984636E-4
8.758192E-4
0.0025750033
0.0012460833
-1.00363395E-4
-0.0012045221
-2.2079323E-4
0.0010650281
-2.3431999E-4
-5.945158E-4
1.8170624E-4
-5.0855224E-4
-0.0018498637
-0.0026081223
-0.0024187036
-0.002155495
-0.0010490664
0.0013069285
0.0014706536
3.2736757E-4
5.152247E-4
5.034427E-4
3.326302E-4
-3.1324514E-4
-0.0013002115
-4.4999472E-4
4.822629E-4
3.337732E-4
7.4201945E-4
0.0020848764
0.0030934545
0.0010518664
-0.0021771507
-0.0018781731
2.3424905E-4
1.3953623E-4
-8.995E-4
1.6940592E-4
0.0014088913
0.0011259672