-0.0013329234
2.2487911E-4
0.0010766394
2.6967347E-4
-0.0015919332
-0.002460014
-3.7864866E-4
5.5691216E-4
-3.7994373E-4
-7.0184324E-4
-0.0014144002
-6.6276256E-4
7.9487776E-4
-4.2062165E-4
-7.5630425E-4
0.0025896586
0.0028889633
-0.0019355464
-0.0019029641
6.647751E-4
-9.7563537E-4
3.6770018E-4
0.0016961641
-6.5041805E-4
-1.207291E-4
2.5853844E-4
2.9004438E-4
0.0015069832
2.0837518E-4
-6.569046E-4
-0.0011594935
-0.0024601435
-0.0021062936
-0.0012114119
7.16093E-4
0.0020616138
9.7372424E-4
4.020197E-4
-7.0112284E-5
4.4500865E-7
0.0013752235
3.8232098E-4
-0.0014271253
-4.4185444E-4
4.0144855E-4
1.2201339E-4
0.0010410972
0.0012398874
-7.170582E-6
-5.959032E-5
0.0013247047
0.0017053073
-6.331171E-5
-1.9633026E-4
8.6129643E-4
-4.3453366E-4
4.4681598E-5
0.0011165979
2.639898E-4
0.0015469863
7.818608E-4
-0.0017508569
-3.4573E-4
-9.643798E-4
-0.0045279027
-0.0042795874
-0.0011724058
2.8717474E-4
-3.004197E-4
-1.437641E-4
2.5897662E-4
-4.972726E-4
-3.7461682E-4
4.2409363E-4
2.0402038E-4
-2.0900469E-4
1.4383142E-4
8.007662E-4
7.38029E-4
-1.459539E-4
2.8812196E-4
0.0020597812
0.0016722454
0.0010482684
0.002014027
8.873852E-4
-7.847242E-4
-0.0012985462
-8.650706E-4
0.0011412866
3.076906E-5
-0.0018674914
9.032667E-4
0.002641181
0.0015005971
-3.1696394E-4
-0.0025921587
-0.0026444192
-0.0019440134
-0.0019053397
-4.7287796E-4
8.463566E-4
0.0010205201
0.0016786442
0.0018172886
-1.7221055E-4
-5.129401E-4
0.0015524157
9.391771E-4
7.533137E-5
9.3118055E-4
-3.8608696E-4
-0.0011009087
3.751653E-4
4.731991E-4
-3.6522097E-4
-9.4243424E-4
-5.6016084E-4
3.2842965E-4
-0.0012077462
-0.0020303854
9.5250446E-4
9.5428183E-4
-0.0017058486
7.438152E-5
0.0013750208
-4.362196E-4
1.09131404E-4
8.131608E-4
-1.0640052E-4
-0.0011465625
-0.00303634
-0.0027253076
-2.2139757E-4
1.6383364E-4
5.4775487E-4
0.001920008
9.966242E-4
-5.6255696E-5
7.6823344E-4
0.0010920452
0.0012179225
0.0015223037
4.7664106E-4
-3.764671E-4
8.484114E-4
0.0016637869
-4.7143683E-5
-0.001126165
-1.1329398E-5
0.0010374414
0.001452254
4.0544485E-4
-3.8390816E-4
0.0014587726
0.0017871936
6.222454E-5
-4.935454E-4
-0.0012220275
-0.0021976212
-0.0025864367
-0.002075883
-3.7779988E-4
9.814857E-5
-1.3470551E-4
3.704285E-4
-4.984559E-4
-0.001380811
-7.8576047E-4
-4.946021E-4
-2.2535378E-4
-9.954731E-4
-0.0011262816
0.002245025
0.0024261884
-4.7675337E-4
-2.0294047E-4
-3.6484594E-4
-5.2489137E-4
-1.2710095E-4
-0.0012041755
9.370439E-4
0.0023135687
5.396592E-4
9.588581E-4
3.9724133E-4
-3.009202E-4
6.273604E-4
1.749794E-4
6.0526474E-4
6.1178645E-5
-0.0016140407
-2.7458183E-4
3.2553994E-4
-9.5858594E-4
-9.3366264E-4
4.3124746E-4
0.0018113381
0.0012749853
6.51922E-4
0.0010810243
4.7431324E-4
0.0011717597
0.0023581004
3.0999846E-4
-0.0014914178
-0.0015290622
-0.0017538087
-9.850912E-4
-1.5192396E-4
-4.6324343E-4
-9.66834E-4
-0.0014415473
-0.0011641841
9.3825845E-5
0.0011343769
3.000129E-4
-9.888906E-4
-4.383229E-4
-1.6834639E-4
4.2248896E-4
0.0010623512
-0.0013194338
-0.0016937857
8.284716E-4
0.0012453703
9.756028E-4
5.4513634E-4
7.029145E-4
0.0020813886
0.0012608995
-4.4184542E-4
2.7503173E-5
9.001032E-4
2.9881895E-4
2.4012577E-6
8.79115E-5
-0.001350299
-0.0017602916
-0.0017367728
-0.00317235
-0.0026813224
-0.0013276738
-6.9914997E-4
5.9367117E-4
0.0014810733
0.0012913601
3.0185148E-4
-2.8532252E-4
1.5533806E-4
0.0015815583
0.0028382284
0.0018574124
0.001383964
0.00100972
-1.834412E-4
0.0012862271
0.0010028365
-1.6741057E-4
0.0021561526
0.0016311546
2.744528E-4
0.0018429399
0.0015588361
-3.656791E-4
-0.003162832
-0.004912925
-0.0025310707
6.3183215E-5
-0.001173351
-0.004502482
-0.003942222
-3.9293905E-4
-2.4970708E-4
-6.0330285E-4
-8.266055E-5
-4.0014443E-4
6.206139E-4
-4.0404353E-4
-0.0015137318
0.0019760306
0.0035164368
0.0018771576
4.3694742E-4
4.126815E-5
0.0020684374
0.0028501276
0.0023955842
0.001870029
-0.0014075938
-0.002443858
-8.395202E-4
-0.0014943557
-0.0013628863
4.76767E-4
0.002159371
0.0028070556
9.514587E-4
-6.2740594E-4
7.8847545E-4
0.0015012649
-5.11217E-4
-0.0012016249
-0.00143176
-0.0024165355
-6.9055107E-4
1.9144944E-4
-1.8427313E-4
5.202837E-4
-9.03676E-4
-9.438587E-4
1.0351568E-4
-9.973461E-4
-4.6742216E-4
-5.4033764E-5
6.74558E-4
0.002178811
-3.0778308E-4
-0.002546412
-0.0016391159
-0.0010175722
-0.001157901
-0.0014607902
-6.5568E-4
0.0017844838
0.0033818583
0.0015494052
1.7899694E-5
0.0014354403
0.0014996111
0.0013224394
0.0011724966
-5.630768E-4
-3.162273E-4
-3.4539975E-4
-5.8940134E-4
9.821547E-4
4.3466795E-4
-3.8722868E-4
-5.4776034E-4
-8.3756284E-4
3.1109052E-4
-8.773982E-5
-0.001437606
-0.0010318932
3.9148465E-4
4.1208125E-4
-0.001668751
-3.8096845E-5
0.003124834
0.001259136
-8.716488E-4
-8.698215E-4
-5.181533E-4
1.754663E-4
-3.0011823E-4
-0.0010212617
-9.3720685E-4
-9.299065E-4
-7.0748065E-4
2.6134116E-4
0.0010270646
4.94441E-4
8.0192345E-4
0.0018741995
3.709075E-4
-0.0014062596
-0.001180155
-0.0015093192
-0.001175309
8.511031E-4
7.146751E-4
-6.556398E-5
8.4946543E-4
6.1728293E-4
7.571783E-4
0.0013498062
9.363879E-4
0.002212565
0.0016985227
-0.001049354
-0.0010128381
-5.0159654E-4
-1.5391147E-4
3.4227478E-4
-2.0906731E-4
5.9934845E-4
0.0020641522
0.0016733741
-0.0017901694
-0.0044897986
-0.0023680683
-0.0012508784
-7.964895E-4
0.0015875162
5.779345E-4
-2.901509E-4
6.8113225E-4
-2.5755542E-4
-1.3620744E-4
-6.1858137E-4
-0.0027210831
-0.0018460152
7.0720044E-4
0.0012418712
-1.1234862E-4
2.714609E-4
0.0025219207
0.003460605
0.003224253
0.0015165424
-3.3472286E-4
-9.463108E-4
-0.0014196988
-3.1823604E-4
-3.0739125E-4
-0.0019120263
-1.5480052E-4
0.0018064703
0.002324057
0.0029611012
0.0015370094
4.3858812E-4
-8.016185E-4
-0.003267568
-0.0022608517
-3.9567178E-4
-5.03471E-4
-6.9519074E-4
-0.0015872198
-0.0012261
2.1067106E-4
-4.3241776E-4
-5.6163943E-4
0.001786755
0.0019427729
-0.0012976372
-0.0012960173
-5.5067598E-5
-0.002594825
-0.0021431337
1.5700598E-4
-5.269416E-4
-2.7605752E-4
-6.3778466E-4
-3.1282243E-4
0.001660651
1.7603907E-6
-0.0010243325
-4.3991383E-4
-8.2438026E-4
0.0010058712
0.0022833317
0.0029394408
0.0043468256
0.0036011152
0.0030575097
0.0017163764
-0.0014699898
-0.0013460047
0.0013027566
0.0025354568
0.0013374769
-1.7633877E-4
-2.3716447E-4
-0.001209723
-0.0020948476
-0.0013412045
-0.0017289841
-0.0020426298
-0.0013749088
-0.0022681423
-0.0016019195
0.0010708622
-0.0010389144
-0.005132261
-0.0027647126
0.00252825
0.0030901416
0.0010632487
7.8569225E-4
-6.8668934E-4
-0.0029679562
-0.0016463973
6.6545943E-4
0.0020789749
0.002669065
0.0015608219
0.0019393939
0.0029950328
0.001685929
-0.0010897695
-0.0039994135
-0.0043601664
-0.0031332618
-0.0025205628
-0.0018153975
-0.0019486763
-0.001557023
-3.502024E-5
0.001733
0.0035806382
0.0028233416
0.0023201576
0.0033407898
0.0019202761
0.002654088
0.006873796
0.0075647053
0.0037378029
3.374619E-4
-8.1183726E-4
-0.0020531327
-0.0011958645
3.2619294E-4
-0.0032666768
-0.0046091657
-0.0019593537
-0.004222586
-0.005977707
-0.0033404625
-0.0029401537
-0.0035592695
-0.0026597856
-0.002376021
-0.0020799611
-0.0018640305
-0.004180653
-0.0056499667
-0.0016197177
0.0024434328
0.0017139966
0.0017682542
0.0056697833
0.009072687
0.008544854
0.005820856
0.0056300843
0.0066963136
0.0033452348
-8.2026754E-4
1.8605504E-4
0.0028804846
0.003942003
0.0028504767
-2.833496E-4
-9.5910486E-4
-0.001499486
-0.0061525926
-0.006834514
-0.0038105347
-0.0038803811
-0.00339984
-0.0048854467
-0.006948052
-0.0023242515
-4.5932323E-4
-0.00278801
-0.0023225888
-0.0031721597
-0.0029716792
4.5502745E-4
0.0053701308
0.009195507
0.0061581237
0.0045660636
0.004358351
-0.0026584093
-0.0037035018
0.001819135
0.0042663557
0.004060597
-0.0011015722
-0.0029426888
0.0019152161
0.0017880225
-0.0024184242
-0.0041139866
-0.0014877704
0.0027428088
0.0040984624
0.001229859
-0.003634608
-0.0023219448
6.309373E-4
-0.0012813086
1.3350238E-5
-0.0014025692
-0.0068385047
-0.004818819
-8.4186456E-4
0.0013037636
0.0015384607
-0.0014033121
-4.308757E-4
0.0033270644
0.0047610863
0.0042030597
0.004580283
0.006113525
0.0017779812
-0.0025020314
0.0020582897
0.0037843669
-0.0046625887
-0.013622199
-0.014425901
-0.008703553
-0.0010450013
0.005536151
0.008084622
0.009510072
0.011389782
0.011033603
0.009170606
0.003980113
-0.0051116045
-0.013091201
-0.014026886
-0.008592919
-0.006556528
-0.006305969
-0.0016275196
0.0015460007
0.0027104625
0.0031903617
0.0028444596
0.0064666984
0.0073216455
0.0012596742
-1.5823705E-4
0.002382753
-8.6525455E-5
-0.0036820418
-0.0048275045
-0.0051966384
-0.002642259
0.0010361904
0.0018232884
0.0021214932
0.003427095
0.0048574274
0.0063136257
0.007155482
0.0060720188
0.0025259324
1.6289276E-4
7.472716E-4
9.829801E-4
9.421098E-5
-0.0018052032
-0.0041243806
-0.0043882867
-0.004705437
-0.007031967
-0.006117974
-0.0021633143
-0.0023650995
-0.003952137
-0.002775941
-0.0017316388
-8.731342E-5
7.2583876E-4
-9.590861E-4
-0.0025325886
-0.0040678787
-0.0042556534
-0.006122083
-0.008843151
-0.003752158
2.398508E-4
-9.972814E-4
0.002584774
0.006251328
0.008881406
0.011828134
0.010594253
0.011738569
0.012850459
0.009633977
0.009522599
0.008036906
0.003358525
5.53596E-5
-0.004487196
-0.0061312923
-0.0033690976
-0.0015698863
-0.0025687038
-0.0050969603
-0.0020049785
0.0028347273
2.2743446E-4
-0.0026798074
-0.0037590761
-0.005683749
-0.006181937
-0.009958382
-0.015215041
-0.014451886
-0.010654419
-0.008504266
-0.007099271
-0.0034069757
0.0015918422
0.0057075038
0.0082321055
0.0068357843
0.005376048
0.007701642
0.009425119
0.00888107
0.0076882374
0.0077490057
0.008816621
0.0066003525
0.0012870065
-0.00330176
-0.005523141
-0.0053143436
-0.0033478506
-5.6070846E-4
0.002948496
0.007141691
0.0085698385
0.0070193834
0.0056394543
0.001235397
-0.0069502434
-0.013183171
-0.013534779
-0.012586271
-0.016707893
-0.015469716
-0.0045951875
0.0030599902
0.00817765
0.010481515
0.005361825
0.0024781357
0.0030448416
0.0011238562
-9.386533E-4
-0.0011538732
5.25761E-4
0.0030191455
0.006082498
0.009050793
0.009839188
0.0076654376
0.0011013761
-0.005058257
-0.00480595
-7.593286E-4
0.00369206
0.005961358
0.0042210105
-0.0013080981
-0.0048660953
-7.3633716E-4
0.0010530333
-0.0038331884
-0.0055876463
-0.0058921585
-0.007493952
-0.007600833
-0.008896
-0.011591569
-0.013734164
-0.01438356
-0.011844845
-0.006160931
0.0013020164
0.0077586244
0.010730695
0.0100621125
0.010271153
0.01444079
0.014827308
0.009572685
0.0061666793
0.005827026
0.00833326
0.006899161
-0.0018049605
-0.0025899403
0.0037770125
0.0041787373
0.002112857
-0.0012404603
-0.005846068
-0.007158793
-0.0066740583
-0.004620828
-0.003988636
-0.004681007
-0.0014616314
2.9050725E-4
-2.9169943E-4
-0.0012935766
-0.0051716724
-0.005293634
-0.0037343758
-0.00593684
-0.0032532755
0.0029780169
0.0038094018
0.001206956
3.7883464E-4
0.0026073516
0.0062777717
0.010485073
0.011700713
0.0034213574
-0.010790863
-0.021540126
-0.0266613
-0.024255915
-0.015230462
-0.008605175
-0.003062645
0.009243666
0.023764681
0.0321955
0.0331444
0.031178249
0.025500719
0.0132625615
0.0054414487
0.006449566
0.0074458434
0.005697999
-0.0011024679
-0.013381939
-0.023240203
-0.023110999
-0.017341698
-0.017840656
-0.021139415
-0.01958844
-0.015225392
-0.0089409975
-0.007892332
-0.0127632
-0.011075797
-0.005230372
-0.0032718892
-0.0028565763
-0.004303999
-0.008514336
-0.009628856
-0.005015785
0.005584879
0.022780579
0.037059087
0.044862937
0.051833823
0.053972084
0.050881516
0.04249
0.024940632
0.0041610897
-0.014230638
-0.025460014
-0.03146212
-0.03761004
-0.037553865
-0.03461027
-0.032618534
-0.024494702
-0.013744427
-0.0043316134
0.0030334191
0.005340915
0.001853341
-0.0054595578
-0.009460271
-0.009408554
-0.012945487
-0.022513507
-0.028184691
-0.021819117
-0.01273434
-6.1961694E-4
0.016330205
0.024529358
0.032792505
0.04671326
0.048953142
0.040952597
0.028390588
0.01098409
-0.0029251159
-0.00951749
-0.009358219
-0.0028179912
0.0020076626
-0.010516609
-0.0352655
-0.038431037
-0.016174236
-0.0013977961
1.5919202E-4
0.0021549382
0.0022880072
0.0042923572
0.013958262
0.017764106
0.014559695
0.015581445
0.012307632
0.001606426
-0.0076728864
-0.022441456
-0.0386309
-0.03632351
-0.024076913
-0.017557297
-0.006834164
0.012667559
0.029284153
0.033698678
0.028906804
0.026820628
0.022178404
0.003613467
-0.014957109
-0.02362718
-0.030150317
-0.027625257
-0.012461372
-0.005628131
-0.008035036
-0.001791671
0.0026360091
7.8816054E-4
0.009092041
0.016417738
0.009375631
0.001313391
0.0063398676
0.01802496
0.011275819
-0.007689589
-0.013740522
-0.0148738455
-0.011216075
0.0052801883
0.023359757
0.03422264
0.032432023
0.025822734
0.015402085
-0.0029022142
-0.0038953254
0.008733577
0.013953586
0.0075227534
-0.019826548
-0.037491806
-0.035507407
-0.033929598
-0.0092714485
0.0110019455
0.010120896
0.02255185
0.0064712646
-0.02981359
-0.023446744
0.0017637999
0.018578468
0.017575929
0.013490964
0.03742101
0.050575897
0.030943107
-0.0010985798
-0.04285522
-0.06409924
-0.06580962
-0.089261316
-0.09502001
-0.036130313
0.043306347
0.08677185
0.06282158
0.0021517486
-0.0066465847
0.009022785
-0.029993242
-0.07269453
-0.07308794
-0.07934349
-0.11699164
-0.11123273
-0.0086838445
0.098029524
0.17878368
0.28041208
0.33205548
0.30480063
0.23882465
0.11460154
-0.07199375
-0.2691627
-0.3728971
-0.33059162
-0.21037716
-0.07517851
0.059522655
0.17026529
0.19865818
0.14293267
0.06378519
-0.017147508
-0.03775338
-0.023148157
-0.10111192
-0.19001462
-0.20987926
-0.20139517
-0.12269295
-0.018894456
0.044639837
0.11264406
0.1763886
0.21279275
0.19618739
0.1271839
0.07390791
0.01539447
-0.058705494
-0.081883624
-0.09127747
-0.12646349
-0.12781224
-0.078725725
-0.0315774
-0.009717308
0.011294506
0.03657057
0.048005342
0.058389023
0.07816401
0.08009293
0.052592408
0.01427946
-0.02501101
-0.055687316
-0.061781656
-0.044807468
-0.012079462
0.02970385
0.06901407
0.10099744
0.11012502
0.08093208
0.033036906
-0.015091492
-0.058720496
-0.081503
-0.077837184
-0.05283302
-0.017579759
5.753004E-4
-0.012612646
-0.043144606
-0.050189868
-0.018596698
0.002075058
-3.438021E-4
0.00305181
0.0022585571
-0.0030779722
-0.008418936
-0.022740137
-0.025302231
-0.009570806
0.0017859861
0.00524902
0.01023455
0.016051922
0.015366928
0.007417888
-0.0035306124
-0.0056949556
0.004974244
0.011881306
0.0146164475
0.0126044685
-0.0033144047
-0.008656147
0.0072853947
0.0221085
0.028326252
0.02803907
0.027581679
0.030599704
0.029390164
0.022640752
0.015878644
0.009231438
-0.0033610875
-0.015746167
-0.016782235
-0.012285418
-0.007882787
-0.005952333
-0.007853742
-0.00918
-0.01186168
-0.014386327
-0.014368819
-0.016189234
-0.01626964
-0.014859172
-0.017015968
-0.018224945
-0.01531531
-0.011056397
-0.007168831
-0.0021796103
0.0038646178
0.008845337
0.012468404
0.012549186
0.009931934
0.008393169
0.005969055
0.0026334478
0.0011738383
0.0012051251
0.0016463599
0.0018143128
0.0026553955
0.004455389
0.00517897
0.0043726964
0.0044052484
0.0050874753
0.003536089
0.0020858506
0.0028200096
0.004298785
0.0057743867
0.0039161425
7.486246E-4
6.1767925E-5
-5.7933124E-4
9.816648E-4
0.002415068
-2.5732262E-4
-0.001757858
-0.0045565385
-0.008233027
-0.007221206
-0.007712371
-0.0078056566
-0.004408297
-0.005035089
-0.005126521
-0.0017074761
-0.0013460515
-0.0021123642
-0.0019075344
-0.0014288651
-0.0011734006
-0.002758929
-0.0026495706
4.7729154E-5
7.729945E-4
0.0011429664
0.0042715757
0.0053629563
0.001826608
7.644143E-4
0.0024885994
0.002019624
0.0025725616
0.003996493
0.0054081087
0.0073188297
0.0049800845
0.0020900478
3.470761E-4
-0.003580082
-0.00246793
0.0020572983
0.0023898545
2.7774737E-4
-0.0028532285
-0.0033694382
-0.0016494998
-0.002698414
-0.0036764157
-0.0033124194
-0.0028379278
-0.001596503
-7.753589E-4
-2.00348E-4
3.0237355E-4
-2.085479E-4
-0.00162903
-0.0022364156
-5.4267514E-4
6.9197954E-4
-6.589328E-4
-0.0013833098
0.0013462963
0.0034411927
0.001742397
0.0021714852
0.004581014
0.0028153956
9.830735E-4
0.0023280983
0.0020661184
-7.055225E-5
3.7273762E-4
0.0018643383
-9.982254E-4
-0.0040351725
-0.0017514538
6.092564E-4
4.556341E-4
3.8473457E-4
-5.0683248E-5
-6.6775514E-4
-0.0011789566
-0.0023165124
-0.0022607504
-8.7429595E-4
-8.9959794E-4
-0.0014053859
-0.0011924657
-0.0015838937
-0.0013038233
-5.702608E-4
-5.7781255E-4
3.7379708E-4
0.0010758031
7.38725E-4
0.0010679556
0.0018345583
0.0026531003
0.0027906678
0.0025583343
0.0015178854
-0.0011218832
-0.0017170663
-9.3199057E-4
-0.0012168855
-2.6797366E-4
7.1318925E-4
7.4455555E-4
2.5933146E-4
-0.0012293289
-0.0017045408
-0.0021077201
-0.0026886438
-0.0014714968
-8.258057E-4
-0.0016966586
-0.0028525626
-0.0023374744
4.3605434E-4
0.0011930879
8.286881E-4
0.0025044442
0.0022704254
8.213438E-5
7.038997E-4
0.00216389
0.0017529499
0.002603052
0.0042619235
0.004747223
0.005246547
0.0021103155
-0.0033576253
-0.0035056337
-0.0014881962
-0.0013267066
-0.0012010648
-0.0016288881
-0.0013676882
-9.4752375E-4
-0.0020396227
-0.0014393904
-5.7189923E-4
-0.0010591095
-1.0615634E-5
-0.0010615999
-0.0037453726
-0.002940894
-0.0039559486
-0.005666029
-0.0014473761
0.002039033
0.0019745005
0.0026549976
0.0028196634
0.0022456383
0.001838723
0.0012683328
3.3828933E-4
6.49425E-5
0.0016098517
0.0014666906
-4.1160712E-4
-4.6015295E-4
1.043404E-6
3.2274905E-4
-1.0694704E-5
-0.0012699451
-0.0016709311
-0.0018614975
-0.0013357868
8.9235837E-4
0.0024990637
6.6442974E-4
-0.0019511313
-6.4659334E-4
2.1639558E-4
-8.844855E-4
-7.0645154E-4
-0.0024529044
-0.0025516893
2.4442078E-4
-7.1705173E-4
-9.662315E-4
0.0012550486
0.0016993292
9.907605E-4
-7.9643464E-4
-5.663562E-5
0.002252219
0.0014390504
5.589907E-4
-0.001532351
-0.0031435979
-1.9440723E-4
9.0257026E-4
0.0012918519
0.0028941177
0.0016000877
0.0014780659
1.4546083E-4
-0.0030352327
-0.0013276191
-9.3849114E-4
-0.002011036
2.108E-4
-3.184652E-4
-0.0020158244
-0.0015412542
1.430385E-4
0.0025070526
0.0016263007
-2.2711107E-5
-1.5738666E-4
-8.129935E-4
-8.159697E-4
-0.0019382436
-9.576162E-4
0.003514498
0.0034653991
0.0018514935
0.0023327472
9.251184E-4
-7.0694333E-4
-0.0017418459
-0.0017696216
-1.15366245E-4
-6.620043E-4
-0.001411502
5.191453E-4
9.74081E-4
6.452192E-4
0.0013608198
-1.5090324E-4
-0.0017710328
-0.001643016
-0.0024334462
-0.0019201457
-3.6257657E-4
-8.709003E-4
-9.944519E-4
8.401991E-4
0.0025799798
0.001294982
-6.6344027E-4
8.248289E-4
0.0014921376
7.0124876E-4
0.0015621895
0.0013305373
1.88529E-4
-5.6122127E-4
-4.55853E-4
9.0156996E-4
0.0012994892
0.002238207
0.0023356036
-0.0012692609
-0.0027244075
-0.0011505189
-9.593706E-4
-9.933934E-4
-7.7129103E-4
-6.274073E-4
8.0271607E-4
0.0010924822
-0.0015665876
-0.0021767544
1.8297035E-4
-1.8661596E-4
-0.0019589204
-9.129321E-4
-2.3478274E-4
-0.0017627664
-1.3593584E-4
0.002687923
-7.62523E-4
-0.0020219863
0.0031554447
0.0025286833
-3.3638487E-4
0.0011606968
9.989133E-4
5.616392E-4
-5.893987E-4
-0.0029489354
-7.3710515E-4
0.001507275
0.001211871
0.0016247868
5.7069206E-4
-2.203786E-4
5.339011E-4
4.5275502E-4
7.5402873E-4
9.44358E-4
1.8029667E-4
5.2472107E-5
1.1021045E-4
-7.84452E-4
-0.0021043445
-0.002175145
-5.962834E-4
8.149239E-4
7.342589E-4
1.5614014E-4
2.1848307E-4
-4.5362083E-4
-0.0014191654
-0.0010542768
-7.246416E-4
-7.261768E-5
4.3393433E-4
-2.0882484E-4
8.0481166E-4
7.695811E-4
-0.0012202159
3.5786338E-4
0.0014958392
1.0675499E-4
8.444036E-4
8.4426254E-4
4.686158E-4
0.0011842701
-5.7672703E-4
-0.00135613
-1.0744528E-4
-3.450005E-4
-4.4224528E-4
4.3950822E-5
9.488537E-4
0.0013109546
3.525053E-5
-0.0010337525
-0.002910369
-0.0033068499
-5.439025E-4
0.0011868394
0.003029303
0.002661079
-9.152605E-4
-1.7594919E-4
0.0015764366
5.920971E-4
-5.5705133E-4
-0.0022994203
-0.0011528782
5.771658E-4
-1.1891985E-4
0.0015165921
9.285518E-4
-0.0013760198
0.0013996768
0.0012445588
-0.0033557161
-0.0031831446
4.2598514E-4
0.0025223373
0.002026598
6.4144103E-4
8.393936E-4
7.443327E-4
-7.968564E-4
-0.0015043032
-7.9462864E-4
3.601018E-4
5.769651E-4
-2.3559605E-4
-2.6024305E-4
3.220917E-4
2.4979928E-4
-5.314143E-4
-0.0013289183
-7.2165E-4
7.782997E-4
0.0010898256
-8.065996E-5
-4.544982E-4
7.037103E-4
-6.063598E-4
-0.0026389954
-4.4660564E-4
8.9801743E-4
-3.947996E-4
-1.1011781E-4
5.915672E-4
0.0018728687
0.0018216153
-9.920893E-4
2.6241754E-5
0.002399131
0.0010141409
9.2428067E-4
7.811158E-4
-0.0015047382
-5.0975557E-4
0.0012776618
-7.7227895E-5
-0.001521976
-0.0028716712
-0.003136698
-4.8714457E-4
0.0010550148
6.830713E-4
9.3829277E-4
9.309826E-4
2.1497994E-4
-6.9645455E-4
-0.0010883363
-7.861654E-4
-7.3980395E-4
-2.7682478E-4
6.9215166E-4
7.35189E-4
-3.0236886E-4
1.8994522E-5
0.001798808
1.4177615E-4
-0.002428236
3.0406268E-4
0.003081522
0.0010033455
-6.933135E-4
5.2813906E-4
-4.0693508E-4
-0.0028341953
-0.0010196256
0.0012438593
3.1982912E-4
-3.2148074E-4
-1.2145979E-4
7.379121E-5
4.003105E-5
0.0010802812
0.0025959546
0.0013227938
6.00772E-4
4.919464E-4
-0.0015964308
-7.860743E-4
0.0011400905
8.802808E-5
-0.001620249
-0.0024745478
-7.4456166E-4
0.0011999125
5.327584E-4
-1.7669772E-4
-6.9985876E-4
-9.635662E-4
-4.565164E-4
-4.1983658E-5
2.0484162E-4
-0.001130726
-0.0015935157
0.0013659009
0.0022912095
6.756791E-4
0.0014414144
0.0022721803
1.2708205E-4
-0.0022589515
-0.0014962665
0.0010326499
0.0010851502
4.8231156E-4
0.0010844282
-6.766622E-4
-0.0021969995
-0.0011648312
-0.0010128672
-2.6375332E-4
2.1827233E-4
-0.0014504542
-9.984126E-4
-2.9420672E-4
-0.0013567162
4.4648952E-4
0.00277623
0.0018634169
0.0010279639
5.741293E-4
-0.001079699
-4.6013453E-4
0.0020393776
0.0017936437
4.2358716E-4
4.6290192E-4
7.6447416E-4
8.3547307E-4
0.0011501573
0.0018920965
7.085584E-4
-0.002371564
-0.0031469467
-0.002123261
-0.0012490032
-4.7390736E-4
-8.7091967E-4
-6.5266667E-4
8.717534E-4
3.9332706E-4
-0.0013329126
-0.0012776448
4.580104E-4
0.0013402103
2.4013658E-4
-3.5936016E-4
-7.992841E-5
4.4242604E-4
0.0014799505
1.1897042E-4
-0.001452724
6.681898E-4
0.002062232
0.0017123265
6.7221414E-4
-0.0016532439
-7.5295835E-4
0.0014252086
1.49679E-6
-0.0012332269
-6.436742E-4
-7.550776E-4
-0.0018500077
-9.3519007E-4
0.001508361
1.7271539E-4
-0.0016224254
-2.464161E-4
-2.0204848E-4
-6.127544E-4
-4.7855603E-5
1.6218745E-4
9.270611E-4
3.219831E-4
-2.4237478E-4
0.0017979364
0.0016749501
5.254473E-4
0.002126519
0.0011550474
-0.0010809924
4.963293E-5
-3.4266217E-5
-4.2004447E-4
3.894645E-4
-3.3773176E-4
0.0010892223
6.0120807E-4
-0.003981948
-0.0018411
0.0029369665
0.002465237
0.0016065935
-4.3642794E-4
-0.003227824
-9.4887614E-4
0.0023179087
2.806785E-5
-0.003794218
-0.0023407608
0.0012362392
9.5227937E-4
-9.970465E-4
-0.0013882688
-8.0237427E-4
6.4839196E-4
0.001419553
-6.8346196E-4
-0.0018020874
6.2281135E-5
3.5845517E-4
-2.455118E-4
3.4534206E-4
6.1940897E-4
4.1635442E-4
-6.667977E-4
-4.5436394E-4
0.0015020915
0.0010390108
-7.485692E-5
2.6678847E-4
7.9629586E-5
-1.8666763E-4
7.5356674E-4
0.0022165517
0.0015063663
1.07045744E-4
5.0589483E-4
8.261544E-5
-6.305308E-4
-0.0016003873
-0.002579214
-2.1407829E-4
0.0015195367
5.59098E-4
1.0530735E-5
7.938911E-4
0.0025816471
0.0013325368
-6.134801E-4
2.0343181E-5
-9.568549E-4
-9.84652E-4
-3.9630194E-4
-0.0015490971
-4.8798835E-4
-3.1448933E-4
-6.017115E-4
9.38327E-4
-4.1260873E-4
-0.0011741043
5.9242913E-4
6.601727E-4
-4.738825E-4
-0.0021169991
-0.0022249615
-5.860902E-4
1.01582766E-4
3.9170933E-5
-0.0015406194
-0.0023721114
2.2301884E-4
0.0025715348
0.0026062152
0.0010971811
7.6519314E-4
0.0019351292
1.2395825E-4
-0.0013370437
0.0010501464
0.00219332
0.0012519257
2.3581595E-4
5.3561747E-4
0.0013655227
-3.4665887E-4
-2.5568603E-4
0.001577862
3.735782E-4
-5.682759E-4
-0.0020696972
-0.0025811787
0.0011167099
0.0015702934
-6.6910894E-4
-0.0014366454
-0.0016863998
-5.884497E-4
-8.1538217E-4
-3.693614E-4
8.4407895E-4
-0.0010085235
-4.1707413E-4
-3.0209476E-4
-0.0025735265
-2.2634743E-4
0.0011925375
9.919871E-4
0.0021853764
-7.0609804E-4
-0.0019886666
0.0015204758
0.0013631948
-7.3845277E-4
6.9731707E-4
0.0017628149
-3.1595325E-4
-0.00120954
-1.7102707E-4
-3.9881983E-4
-7.191375E-4
2.2384584E-4
0.001282863
0.0013704407
8.540236E-4
0.001508938
0.0018802718
7.3179527E-4
3.8407603E-4
3.723183E-4
-6.085275E-4
-0.0016579857
-0.0021824308
-8.8950095E-4
4.885077E-4
-0.0010186348
-0.0017574448
-3.596498E-4
4.2621105E-4
0.0013386944
5.819022E-4
-0.0014477451
-9.11779E-4
-3.6028892E-4
-5.095863E-4
-5.0079694E-4
-0.001312517
-4.364032E-4
2.90059E-4
-3.87131E-4
4.978665E-4
4.599426E-4
2.5663056E-4
0.0020530333
0.0021902784
0.0012139797
2.84583E-4
-0.0010507479
-3.056204E-5
0.0011192135
2.924561E-4
8.999965E-4
9.14002E-4
4.0749655E-5
9.582174E-4
-7.834433E-4
-0.002668596
-4.929174E-4
-1.1091256E-4
5.9916892E-6
0.0016400927
4.7503423E-4
-4.765886E-4
-6.9934496E-4
-0.002133067
-0.0019714762
-0.0011567438
-7.5202883E-4
-1.0661878E-4
-7.046776E-4
-0.0011084346
4.6750548E-4
8.539632E-4
-0.0010205759
-9.804108E-4
0.0010036146
0.0015980777
0.0016783957
0.002248599
0.0019026735
2.4238127E-4
-1.5476314E-4
9.977457E-4
-3.3070176E-4
-0.0010851923
0.0012218172
7.08476E-4
-2.0232849E-4
0.0014473373
0.0010780392
4.4408135E-4
6.3959445E-4
-7.0646394E-4
-0.0016548027
-0.001035386
3.462169E-6
-1.4360668E-4
-5.890788E-4
-4.531714E-4
-0.0020048767
-0.0025058507
-6.729943E-4
-0.0012992085
-0.0023899223
-9.815825E-5
0.0016271231
-4.6612503E-4
-9.867363E-4
0.0019854023
0.0014650385
-7.559095E-5
0.001626911
0.0013175847
8.972309E-5
-3.617396E-4
-0.001106985
9.0063404E-5
8.88339E-5
-5.3864456E-4
0.0013450561
0.0011096759
-5.5883004E-4
-0.0010842307
-0.0012466146
5.3186854E-4
0.0012419029
-1.1713211E-4
5.841058E-4
8.478785E-4
-2.005267E-4
8.4500026E-4
0.0013330947
-1.917192E-4
-5.5725005E-4
4.593717E-4
0.0016828167
0.0019467615
8.132409E-4
5.107185E-4
9.3017495E-4
-1.9421395E-4
-0.001247734
-4.5310092E-4
-9.804316E-4
-0.0029038736
-0.0017035332
-4.1474465E-5
-9.87832E-4
-8.809474E-4
-1.061264E-4
-1.627678E-4
-4.6136283E-4
-0.0010309562
-8.4677717E-4
-0.0017600771
-0.0023934238
-3.7010925E-4
1.09819055E-4
7.93341E-4
0.0023026974
3.797502E-4
4.1819245E-4
0.0036618605
0.0032571258
1.8436284E-4
-9.394723E-5
0.0015887297
-4.0025418E-4
-0.002965556
-0.0010353259
8.469223E-4
0.0012582449
6.687508E-4
-0.0011934451
-6.912038E-4
4.2610514E-4
4.1970496E-5
-4.0911225E-4
-9.360031E-4
-1.893899E-4
4.53168E-5
-9.1297383E-4
-2.7630315E-4
8.4359973E-4
0.0021634244
0.0021519472
-4.2496852E-4
-0.0016630234
-0.0014876223
-0.001060056
-1.4530488E-5