-0.0010006041
4.0349108E-4
-0.0016026424
-0.0029357166
-2.7154936E-4
0.0023868114
0.0026210903
8.430101E-4
-0.0016831942
-4.2374586E-4
0.001180914
-0.0018939974
-0.0021228401
-1.3859938E-4
-0.0018014857
-0.001932117
-5.0578854E-4
6.215216E-5
4.1558966E-4
-0.0013469878
-0.0017352513
-4.027863E-4
-6.8104576E-4
1.9413496E-4
3.0184764E-4
-9.965859E-4
2.8426506E-5
3.2473887E-5
4.3429216E-5
0.00281077
0.002426492
-1.6142114E-4
5.703146E-5
-3.224227E-4
-0.0025241487
-0.002144221
4.7595703E-4
5.266884E-4
-4.0772464E-4
0.0014428757
0.002135598
5.173921E-4
5.291719E-5
-1.0159282E-4
8.177257E-4
0.0034436644
0.003510136
8.604248E-4
1.3871994E-4
6.154307E-4
-0.0015546565
-0.002622197
-4.5719944E-4
-8.7687135E-4
-0.0029128205
-0.0023078898
-5.5857963E-4
0.0010257086
0.0012607634
3.2558557E-4
5.8235455E-4
7.536248E-4
-8.323974E-4
-0.0016815907
-8.1919594E-4
-5.792438E-4
-5.852393E-4
-2.2196348E-4
-7.335996E-4
-8.0430164E-4
8.4282896E-5
2.1002068E-4
-5.112046E-4
1.8543446E-4
0.0022806493
0.002507576
0.0016092889
0.0012152953
0.0023895728
0.004826283
0.0030403074
-2.7933536E-4
-0.0026629285
-0.0076843686
-0.00793037
-0.0034288794
-9.695063E-4
0.0012733589
0.0010214213
0.001275653
0.0034101456
0.0017373419
0.0024091834
0.0037274272
2.6649752E-4
-9.5149997E-4
-0.0023047328
-0.005332641
-0.0038190684
-4.7893287E-4
0.0022959292
0.003692864
0.0019048081
0.002213238
0.0048152437
0.0030853522
0.0015371633
0.0035257856
0.0011066835
-0.0032602143
-0.003291617
-0.0037210824
-0.004206322
-0.0012609503
7.6871685E-4
-2.1998496E-4
-0.0013532313
-0.0022441791
-0.0027536894
-0.0017170971
-0.0022215408
-0.0032327462
-7.5246446E-4
-4.4154926E-4
-0.0020560538
-4.4208788E-4
-0.0010118793
-0.0024953694
1.7818715E-4
0.0027253868
0.0037127521
0.0036957324
0.00316992
0.0044820397
0.005069304
0.003890475
0.0038254554
0.0029318992
-3.8208917E-4
-0.001142717
0.0021465768
0.0021247235
-0.0023439184
-0.0031096323
4.6438497E-4
0.003282618
0.003593609
0.0011424496
-0.0020295763
-0.0031937414
-0.0018298835
-0.0020977124
-0.006954775
-0.007716286
-0.0031317684
-0.0026514947
-0.0027115303
-7.843731E-4
-4.7104163E-4
5.147805E-4
1.3735346E-4
-7.4188976E-4
5.00944E-4
-2.2857009E-4
-2.3883602E-4
7.553746E-4
-7.1109197E-4
-4.608334E-5
0.0017872535
0.001109082
0.0013449284
0.0034129454
0.0033632184
0.0014010114
0.0017196645
0.001985026
1.2226179E-4
-9.869161E-4
-0.0012200809
4.1025053E-4
0.0012795564
-8.9189206E-4
-3.9008464E-4
0.0017111556
0.0019753526
0.0018761838
2.1996294E-4
-0.001557338
-4.1851072E-4
2.8210762E-4
-0.0017232008
-3.40527E-5
0.004048278
0.0013448132
-0.002399184
-0.0011585782
0.0011989797
0.0025290407
-1.2434706E-4
-0.002588478
-5.5790023E-4
0.0014381404
0.0015452417
-0.0011168112
-0.0021214671
1.0634227E-4
-0.0014945765
-0.004283957
-0.0055657793
-0.006272131
-0.004926923
-0.0031040248
-4.7534803E-4
8.9380314E-4
4.549581E-4
0.0010832626
0.00164969
0.003181071
0.002944737
0.0014004267
0.0024981252
0.0010438961
-1.5673698E-4
7.412258E-4
-2.3076081E-4
0.0015053226
0.0032873359
0.0031276923
0.004150623
0.0029142776
0.001138443
7.426298E-4
-7.371688E-4
-0.0026664026
-0.0027664655
-9.548948E-4
-0.0010724149
-0.0014864298
-5.733442E-4
-0.0012705448
-2.9540822E-4
0.0015496988
2.889673E-4
-0.0017306173
-0.0019425051
4.867405E-4
0.00173364
5.830364E-4
7.382649E-4
0.0012629215
0.0016536674
0.0014226775
1.5988288E-4
-4.6590285E-4
-0.0020885882
-0.0021780948
9.1994484E-4
8.775065E-4
-6.095478E-4
4.6075275E-4
-8.1439555E-4
-0.0029337206
-0.0020530955
-0.0024937307
-0.0023700476
2.1455168E-4
-7.894342E-5
-9.648758E-4
-8.140778E-4
-0.0013391407
-8.89308E-4
-0.0017620854
-0.0011343425
0.0027653512
0.0025880856
0.0011827219
0.0023398467
0.0016002095
4.9752025E-6
0.0011440378
0.0031436498
0.0013445251
-2.3649092E-4
0.0024179625
0.0024826983
0.001898464
0.0036678629
0.001691565
3.856739E-5
0.0013012519
-2.819411E-4
-0.0020105583
-4.687377E-4
-1.4160371E-4
-0.0032410137
-0.0053425757
-0.0050652702
-0.0039073746
-0.0020381243
-0.002261233
-0.0019785753
-1.6770624E-5
-7.2026125E-4
5.486231E-4
0.0020129841
4.8182782E-4
0.0014056215
1.913397E-4
-9.993687E-4
0.0012911449
0.0010409125
0.0028434738
0.0023598042
-0.0022083004
-7.7038084E-4
1.4513299E-4
0.0019742253
0.0071037817
0.0063483617
0.0059381053
0.004320663
-0.0024299917
-0.005733425
-0.007852431
-0.006694
-0.0013490919
-7.14027E-4
-7.9405186E-4
-5.6305595E-5
-0.0014295982
-8.5819355E-4
-3.360467E-4
-6.651204E-4
0.00117438
0.0023182633
0.00219271
0.0028447749
0.0025606204
-5.343672E-5
-0.0031341417
-0.003332099
-0.0019171977
-0.0022887108
-7.1495125E-4
0.0022494756
0.0027200377
0.005464272
0.0060073338
-5.9200847E-6
-0.0029738548
-0.0038506596
-0.0037123202
-1.6258338E-4
-0.0013079478
-0.0025888085
0.0015079766
0.0022649935
-4.1090816E-4
-0.0035953869
-0.0045864363
-2.9910624E-4
0.0025086817
0.0018091003
0.0016049562
0.0019179514
0.0023460807
0.0014109657
4.835084E-4
9.7388716E-4
1.7423798E-4
-0.0012791534
-0.0017156437
-4.8792845E-5
0.002566388
0.0025491808
0.0028565414
0.0035803556
0.0011212842
0.0013071868
0.0031585426
-0.0011681411
-0.0062327986
-0.0065944097
-0.005672253
-0.0041617537
-0.0020989813
-0.0012888557
-0.0011863942
-4.791047E-4
0.0015288024
0.0029799766
2.1883371E-4
-0.002804493
-0.0019363898
-0.0021655688
-0.0018823699
0.0012909919
9.658634E-4
9.6970185E-4
0.003993853
0.003053813
0.0020594143
0.0036505712
0.0036204306
0.003879495
0.0029080312
-3.3196795E-4
-0.0011978397
-0.0010290584
-0.0015034039
-0.0011122479
-6.442087E-4
0.0010882143
0.003028898
3.6095764E-4
-0.003556206
-0.004282538
-0.0039782855
-0.0020960413
5.921277E-5
-1.5083772E-4
-3.109881E-5
-0.0010071577
-0.0027209716
-2.4231884E-4
0.0022901231
0.0019778835
0.001976183
0.0015049273
0.0013760714
0.0025434613
0.0025775093
0.0017286539
4.360247E-4
-0.0015972774
-0.002764568
-0.0023914238
-0.0010837415
2.5346703E-4
7.300708E-4
1.1027348E-4
-8.6536113E-4
-7.410854E-5
8.901503E-4
-0.0012721475
-0.0027094265
-0.0013483368
-0.0017036208
-0.0031303216
-0.0020726158
5.1659433E-4
0.0013774806
4.6725792E-4
0.0012575667
0.0019238973
7.8460504E-4
0.001527808
0.0015602716
-6.301522E-4
5.774152E-4
0.003421265
0.0026509906
0.0018365224
0.0037676962
0.0016621635
-0.0036909897
-0.0039764885
-0.0033020857
-0.0036576919
-0.0014022748
-8.732635E-4
-4.8336972E-4
0.0021106326
0.0029672568
0.0019700879
-5.8516656E-4
-0.0010471315
9.430406E-4
-4.4317593E-4
-0.0024985492
-0.0020647196
-1.9655409E-4
0.0017399584
0.0020885726
0.002622615
0.0028234115
0.00222781
0.0011510185
-0.0017680308
-0.0031529202
-0.0030598
-0.0034862955
-0.0023723561
-7.3127844E-4
-1.396994E-4
-0.0011977204
-0.0011596734
6.1723625E-4
1.4940462E-4
0.0013180516
0.0026483415
-9.93538E-4
-0.001627742
0.0017140359
0.0021202762
0.0012090714
0.001480466
0.0013405608
0.0014407197
0.0038471187
0.003461355
-1.0822443E-5
-2.8914747E-5
-0.0018150898
-0.0052990983
-0.0032478138
-9.86663E-4
-4.3163025E-5
0.0013487212
-1.5793851E-4
-0.0012750555
-7.808774E-4
-0.0016734661
-0.0023781825
-0.0030570216
-0.004461025
-0.0052091316
-0.0044169337
-9.1895845E-4
0.0027751084
0.003263745
0.0013174469
-0.00185841
-0.0023438013
9.4508985E-4
0.0023956068
0.0034700627
0.007322339
0.009714832
0.009055396
0.008366162
0.008841932
0.005013712
-0.002992584
-0.004190979
-0.0012399491
-0.0028493905
-0.0050490415
-0.0072780084
-0.009422853
-0.0056865667
2.1306671E-4
0.0027577942
0.0041407393
0.0049077347
0.0061279326
0.009422315
0.009620282
0.004513203
-2.2458959E-4
7.327081E-4
0.005148465
0.004047515
-7.295145E-4
-0.003175143
-0.009753528
-0.018352661
-0.018997142
-0.015470796
-0.015429604
-0.017739475
-0.018279128
-0.018047715
-0.01565914
-0.00859674
-0.0027863432
4.9455056E-4
0.004548306
0.009051756
0.01243485
0.0111720245
0.0075535057
0.0043338616
0.0014787075
0.0038985377
0.014271373
0.03056177
0.040246546
0.03934538
0.044339947
0.052034363
0.05679256
0.0579518
0.029389739
-0.023023115
-0.061266292
-0.075863965
-0.06589076
-0.042141158
-0.02901665
-0.023549695
-0.014624564
-0.0063227895
-0.003228463
-0.008348633
-0.017356126
-0.019313378
-0.015593529
-0.013360354
-0.0105303535
-0.0069338423
-0.0052363332
-0.001091567
0.0059505813
0.011015776
0.01599445
0.020859571
0.02106012
0.021007657
0.02305431
0.02254658
0.022759698
0.02127836
0.010611521
-1.3987914E-5
-0.0027686167
-0.003845293
-0.006596761
-0.006512299
-0.0013948884
0.0028202834
0.0032676405
0.0023360462
0.0017870286
0.003003661
0.0022868516
-0.0011983949
-0.0033724804
-0.0037203848
-0.0026709829
-0.0044451244
-0.0080781095
-0.008896599
-0.011033758
-0.011490043
-0.008191211
-0.007065008
-0.0060226964
-0.0060593565
-0.006634579
-0.0030295756
-9.825359E-4
-0.0011506531
8.337991E-4
0.0026537243
0.004127674
0.0057274024
0.0058096247
0.005812119
0.0064844843
0.0040979357
0.0015339577
0.0034951302
0.0026295101
-5.160037E-4
8.891632E-4
5.4207514E-4
-0.0016266952
-8.727074E-5
1.9800522E-4
-0.0030806626
-0.005164039
-0.0038020737
-0.0022652554
-0.0028009224
-0.0026233993
-0.001126589
3.4285236E-5
0.0025730242
0.00819626
0.011551354
0.009801103
0.010525417
0.011910463
0.007386724
0.004077123
0.0022930584
-0.0016655902
-8.9322333E-4
-0.0024607833
-0.013708392
-0.019141534
-0.015430764
-0.01180539
-0.006011053
-0.0015624939
-0.0021730985
-9.420804E-4
0.001630736
0.0013451751
-3.9994696E-4
0.0010612378
0.0047861114
0.0011331363
-0.0055810274
-0.0031668525
0.003584528
0.006771136
0.0074683325
0.008501134
0.009779566
0.010569105
0.009774277
0.0061330963
0.005002245
0.0048599173
-0.0024866946
-0.010216658
-0.012557392
-0.012245834
-0.010917136
-0.011325534
-0.009126117
-0.004344152
-0.0024847023
0.0011405735
0.0046713254
0.0028961683
1.4041107E-4
-0.0017045763
-0.0026611942
-2.0671154E-4
0.005098279
0.007995615
0.00938332
0.011519099
0.01023174
0.012657628
0.01904268
0.012836905
-0.0031139727
-0.014422594
-0.014232186
-0.008256377
-0.009868446
-0.011134672
-0.0051343213
-0.002742371
-0.0020779278
-0.002004668
-0.0057463422
-0.0053312685
-0.0024001691
-0.00415423
-0.0064524733
-0.0055229696
-0.0024052921
0.0010510475
0.0031514305
0.0065897293
0.011196208
0.010692672
0.008090379
0.008227502
0.008515173
0.010838565
0.011108255
0.005128776
0.0027365389
0.0016224257
-0.0059545706
-0.011682748
-0.0110634575
-0.009351845
-0.008280011
-0.004841451
-0.0016059731
-0.0030893234
-0.0038395736
-0.0034564866
-0.005719572
-0.005392585
-0.0032425937
-0.002322588
-5.62464E-4
5.958199E-5
3.83965E-4
0.0024158196
0.0048911944
0.007538771
0.0073676975
0.005836868
0.008840012
0.012303524
0.010845334
0.00776345
0.0027273959
-0.006083687
-0.009533855
-0.004567332
-0.0018333584
-0.0028368754
-0.0029060396
-0.0028461118
-0.0030146805
-0.0042372197
-0.005286513
-0.0053239926
-0.007785673
-0.00853845
-0.0037746008
-4.20256E-4
-1.522716E-4
0.0025752531
0.007099023
0.009521834
0.00999522
0.008738953
0.004806759
-7.467319E-4
-0.0048503643
-0.0032664544
0.0029302104
0.0054331934
0.0012871015
-0.0023687861
-0.0022258223
-0.0034215678
-0.005905965
-0.005264428
-8.043867E-4
0.0041767154
0.0018957615
-0.0035331133
-0.002681997
-0.0023450525
-0.0030877988
-0.0016066099
-0.002425897
-7.8833796E-4
0.0014750892
0.0010224472
0.0032820725
0.0023078744
-0.0011362062
-1.0148802E-4
0.0033528039
0.00728779
0.0043078805
-0.0028136962
-0.0048695956
-0.008146625
-0.010560233
-0.007351051
-0.005026812
-0.0013796866
0.005285169
0.0074276137
0.0042956388
0.0019308453
-3.821777E-4
-0.004304962
-0.0032498694
0.0017366179
0.0038471792
0.004027064
0.0035734896
0.0026395964
0.0015997686
5.593444E-4
-3.2334108E-4
-0.0012535664
0.0014556093
0.0065656533
0.0074429098
0.0043135886
0.0010796434
0.0040611723
0.010696022
0.0062920717
-0.005872692
-0.01142777
-0.011530568
-0.009222884
-0.0021191284
0.006019767
0.005982613
-0.0053497255
-0.019623844
-0.028826948
-0.030530807
-0.024282424
-0.0122124525
0.0015467466
0.008302437
0.0067468416
0.0055612666
-7.865735E-4
-0.013765117
-0.01693947
-0.008091009
0.007124684
0.028029613
0.045698363
0.054029014
0.054612383
0.046899978
0.03275613
0.017601844
0.0031565167
-0.008739929
-0.013197868
-0.013270954
-0.017355008
-0.025085164
-0.024866572
-0.019477539
-0.029012254
-0.03519639
-0.0114276055
0.0151365725
0.028445248
0.04372512
0.05739637
0.061923243
0.05455905
0.03413118
0.0058910856
-0.0258443
-0.058793165
-0.09522475
-0.12869063
-0.12990928
-0.08727987
-0.039382543
-0.020530142
-0.024300117
-0.01858933
0.015006048
0.03013879
-0.005910798
-0.053249963
-0.07461933
-0.044586513
0.028431969
0.09859907
0.1491811
0.1651436
0.1534632
0.1713694
0.18800317
0.09565738
-0.07944237
-0.20020987
-0.18952385
-0.07210597
0.045701772
0.100037284
0.12846911
0.15387751
0.1592994
0.11757342
0.04066486
-0.04905597
-0.17849612
-0.28666678
-0.29928333
-0.25402442
-0.14468859
0.04442286
0.23438977
0.30468988
0.2254707
0.11588758
0.030446818
-0.08478277
-0.20527798
-0.26899916
-0.31703705
-0.3806698
-0.35900205
-0.24541086
-0.11321881
0.041129723
0.16277908
0.26433757
0.36765823
0.37954828
0.36258394
0.3353099
0.19372028
0.029733779
-0.04826085
-0.12890017
-0.24545495
-0.17711432
0.09759842
0.3036146
0.4200445
0.4668455
0.33669442
0.06380224
-0.23708268
-0.3687672
-0.36093798
-0.456966
-0.5453922
-0.45741132
-0.27868065
-0.11226257
-0.033397317
-0.0056339353
0.08208171
0.16863145
0.15315989
0.14013326
0.15304834
0.13912964
0.2586168
0.42239842
0.36208612
0.14614418
-0.046080787
-0.031656705
0.059318375
-0.13131203
-0.3757378
-0.35589382
-0.21759269
-0.11204647
-0.054174937
0.019835062
0.07184863
0.03924508
0.054861117
0.11133788
0.048738107
-0.14464477
-0.2710683
-0.17138262
-0.028651748
0.05469942
0.18130165
0.25108385
0.20505711
0.10540469
0.013692919
0.030879188
0.07409355
0.0747967
0.13006118
0.18653616
0.16330361
0.06421314
-0.07040901
-0.1224873
-0.14136946
-0.26121658
-0.37762657
-0.33703402
-0.16310707
-0.0028649145
0.08689065
0.20998906
0.33808422
0.30186644
0.10256876
-0.098089315
-0.17854837
-0.1527968
-0.11319348
-0.08817697
-0.055284962
-0.024445787
-0.006715606
0.010115826
0.04164179
0.035753094
-0.051062867
-0.10660191
-0.09188159
-0.0398784
0.09678926
0.16320947
0.091929324
0.10226764
0.14944015
0.12661578
0.09899942
0.042540923
-0.018397093
-0.05933236
-0.097234204
-0.08990449
-0.050061215
0.038475867
0.12832913
0.100943595
0.01757538
-0.0523084
-0.08441701
-0.07243149
-0.07367517
-0.035650212
0.017166583
-0.025191898
-0.06775408
-0.052868403
-0.038830735
-0.031151494
-0.040243246
-0.041302077
-0.009969837
0.013654673
0.02426965
0.032996915
0.037661828
0.041886244
0.034341294
0.018370153
0.0079297945
0.0017244607
-0.002386504
-0.008001591
-0.0047279075
0.01742087
0.034521498
0.02871056
0.017898777
0.024266189
0.03348191
0.020188315
0.003763958
-6.035055E-4
-0.0063386243
-0.00554775
0.0011768765
5.328089E-4
-0.0057414807
-0.020714702
-0.026464423
-0.010714663
-0.009913002
-0.025966763
-0.028257936
-0.02300835
-0.020207208
-0.01711986
-0.0106989965
-6.170601E-4
0.0033190239
9.061763E-4
7.080985E-4
0.0023144034
0.002311548
0.0022865473
0.0052905795
0.0037554041
-0.0013535415
0.004901472
0.011689403
5.076136E-4
-0.010471505
0.003845844
0.027285282
0.031667173
0.02403128
0.013514793
-0.0058029303
-0.022116978
-0.023161342
-0.015645515
-0.0034857094
0.009092442
0.013052945
0.011051002
0.0020475478
-0.011702136
-0.011125854
-0.0074948217
-0.0121900635
-0.0058207815
5.6652277E-4
0.0020807
0.013079565
0.01688483
0.012212623
0.0072669373
-2.1998923E-5
-0.0011318944
-0.005526796
-0.010580232
0.0035075005
0.025709637
0.036253855
0.021412546
-0.0015744878
4.2696422E-4
0.007328173
7.729948E-5
-0.005598965
-0.01496832
-0.024196826
-0.014666343
-0.0052607986
-0.00939891
-0.008304752
-0.003506292
-0.0045061414
-0.009610525
-0.020875234
-0.02231839
-0.008116951
-7.631518E-4
7.864275E-4
-3.418839E-4
-0.012208942
-0.018496659
-0.010665395
-1.10127105E-4
0.006099787
0.0046513076
0.0060035624
0.014936828
0.015079472
0.007583703
0.0036281587
0.0027592368
0.009616809
0.016762506
0.012328229
0.006394535
0.0034187515
0.005136151
0.01315456
0.013705396
0.009788135
0.010953166
0.009810772
0.0063504344
0.004354968
0.0017269859
-0.0026705423
-0.006445843
-0.0076088333
-0.009505644
-0.0090874005
-0.0040787985
-0.0012276723
-5.17281E-4
-0.0024476433
-0.008852627
-0.0137110865
-0.01574339
-0.01938099
-0.024158077
-0.02272378
-0.012385762
-0.0028108486
3.0771102E-4
4.333138E-4
-6.118676E-4
-0.0010064294
2.2153427E-4
0.0010245845
0.0012899629
0.0010800638
0.0038822333
0.011001471
0.011119821
0.005678185
0.005633569
0.0044217617
0.0019521368
0.004414571
0.006120414
0.006304274
0.0063762153
0.0058969758
0.0068160123
0.007049545
0.0019012559
-0.0071707084
-0.008644156
-0.003719157
-0.0037622857
-0.00404356
-0.0022459025
-8.2067394E-4
0.0015062375
0.001847732
0.004344247
0.0072638025
0.0029107411
-8.181015E-4
3.3228306E-4
0.0018769838
0.0016697238
-0.0015195262
-0.004382837
-0.0053649386
-0.0059823254
-0.0060654134
-0.005483871
-0.003511439
-0.0024081774
-0.0034112982
-0.0031606057
-0.0028825141
-0.004510962
-0.004143892
-0.001581297
-0.001793689
-0.004597398
-0.006490158
-0.0067897555
-0.006075584
-0.004521084
-9.7336556E-4
0.0011756922
-6.34735E-4
0.0012173641
0.004244214
0.0010751878
2.7692455E-4
0.0029090121
0.0016875832
-6.7741127E-4
-0.002380542
-0.003048553
-0.0022674196
-0.0033073553
-0.0050604157
-0.004164895
-0.0021951355
-4.9126515E-4
0.0024744219
0.0038025584
0.0020668365
0.0019946042
0.0012586861
-3.6173163E-4
0.0015912375
0.0019167378
0.0015930961
0.0038992828
0.0033595313
0.0018158435
6.379802E-4
-6.52908E-4
5.5456377E-4
0.0016799868
0.0031461243
0.002524704
-0.0024008988
-0.0031778282
-0.0019622499
-0.0027246932
-5.8841263E-4
8.537026E-4
6.352891E-4
0.0017743547
2.1861013E-4
-0.0034359198
-0.0042223237
-0.002438292
-9.4127975E-4
-3.994846E-4
4.0363916E-4
0.0018572425
0.0015851513
-0.0010692067
-0.001968779
-0.0017682916
-0.0022615897
-9.417117E-4
-7.923244E-4
-0.0016601402
-0.0014927953
-0.0030282403
-0.0013077935
0.003399785
0.003897643
0.0021262185
4.3746043E-4
4.5567573E-4
0.001620353
0.0015557386
0.0025323841
0.0034425352
0.0038939943
0.0039549856
0.0023357044
0.0026471668
0.002506168
-2.679053E-4
-0.0021258022
-0.002999499
-0.0014537758
3.7303334E-4
3.1275616E-4
7.2153343E-4
-1.2437288E-4
-7.7519106E-4
-0.001172336
-0.0034810249
-0.0039163358
-0.0030635335
-0.002587793
-0.0017522849
-8.38079E-5
0.0031001056
0.004044135
0.0027812172
0.0013550301
9.4610514E-5
0.001483859
0.0020101839
0.0011606081
0.0010691312
1.527314E-4
0.0017520548
0.0018887344
-0.0018724395
-0.002801739
-0.0033273564
-0.0020113138
0.001860202
4.1235E-4
-0.0025199899
-0.0032172136
-0.003716253
-0.0024737134
-0.0013624233
-0.0014171634
-5.8457424E-4
7.372971E-4
-6.087596E-5
-0.002324104
-0.0022154679
-9.793922E-4
5.3982716E-4
0.002296149
0.0022636733
0.003405844
0.005491708
0.0053889067
0.0032215107
3.4208174E-4
0.001712584
0.0039628213
5.5537507E-4
-0.0022603795
-0.0018575814
-0.0014338966
1.4959286E-4
0.0017859557
9.653133E-4
-0.0011710885
-0.0012454432
1.609398E-4
2.0812663E-4
1.8050105E-4
-7.9503696E-4
-0.0034720597
-0.0040854984
-0.0026730727
-0.0012541768
-9.054634E-5
7.1760337E-4
6.287271E-4
-9.130017E-4
-8.8987045E-4
0.0020929847
0.0040557473
0.0034570408
0.0015461018
1.3030923E-4
0.0011271177
0.0019699754
2.7695717E-4
1.2975546E-4
0.001520189
-5.448599E-6
-0.0012440365
-0.00109248
-0.0020719082
-0.0012870679
-0.0016546407
-0.004195614
-0.002712266
-6.852829E-4
-4.1547162E-4
3.9977473E-4
1.9800203E-4
0.0013141515
0.002779519
0.0019643412
0.0025884265
0.0046029533
0.0044910763
0.0010033443
-0.0015752435
-2.861405E-4
2.5956714E-4
2.4301837E-4
-2.4646186E-4
-0.0028433276
-0.0023795238
8.2238996E-4
0.0035675436
0.004024901
-2.3137649E-4
-0.0036383476
-0.003537212
-0.0034683456
-0.003149809
-0.0018526346
-2.839288E-4
-0.0011044808
-0.001487794
0.0019125631
0.0033774218
0.0058025448
0.0106066
0.008171673
0.0037290393
0.005223565
0.0062422343
0.0016616944
-0.0052946834
-0.0076590255
-0.0058100317
-0.0038551914
-7.932447E-4
-7.319578E-5
-0.003233096
-0.004769201
-0.004495757
-0.0038873688
-0.0028319086
-0.0015382408
4.017789E-4
3.9599315E-4
-0.0010471053
-0.0013388149
-0.0019708406
-0.00127887
9.3402417E-4
0.0020977464
0.0032223186
0.004223208
0.0060808593
0.0075306054
0.005473021
0.0027230696
-3.275882E-5
-0.001057274
3.51652E-4
-0.0011914675
-0.0025325099
-0.0016741077
-0.0015917234
-0.001344838
-0.0032052735
-0.0034532936
9.627301E-5
3.3263208E-5
-0.001316911
3.117082E-5
0.0019612098
0.0022633285
8.904818E-4
0.0026181785
0.005451077
0.0045396048
0.0022125815
0.002081102
0.004095147
0.0015669349
-0.0029990866
-0.0016382525
-2.2636731E-4
-0.0018646101
-0.0031021605
-0.0026495634
-0.0015698952
-0.002535172
-0.0023086844
-0.0022113947
-0.004288653
-0.0036340863
-0.0029854483
-0.0013185916
0.0023185245
9.904015E-4
-2.8678953E-5
0.0021033648
0.0013229711
2.3621805E-4
6.8710666E-5
-0.0010000431
-4.4275413E-4
2.3058373E-4
-7.3712016E-4
0.0014066794
0.0041603916
0.0018577263
1.7383567E-4
0.0017432199
0.002862161
0.0018072163
-9.078056E-4
-3.4192423E-4
0.0017747332
6.3361117E-4
-0.0021840914
-0.004772476
-0.001982396
0.0031287703
0.0029197503
0.0021804438
0.001739643
-1.0706939E-4
-5.76842E-4
1.2879021E-4
0.001843369
0.0012578269
-8.106849E-4
-6.3551846E-4
-0.0016552858
-0.001960813
-7.065434E-4
-0.0019826428
-0.002274691
-5.2995345E-4
6.754237E-5
0.0011572987
0.0034333759
0.0021942388
-0.0016894352
-0.0018742899
-0.0017207864
-0.0022318568
-2.7074484E-4
-0.0016335519
-0.0024175884
0.0013370451
0.0029911902
0.0060308357
0.006151074
-0.0021554292
-0.0056725433
-0.0054435227
-0.0059125316
-8.8697486E-4
0.001265127
-7.6376385E-4
4.7815993E-4
0.0014586517
0.0035601277
0.004795322
0.0024354944
0.0031307566
0.0025464953
-5.076897E-4
3.6860548E-4
4.1950092E-4
4.757801E-4
0.0027556457
0.0012177308
9.6731485E-5
0.0023291633
0.0012129353
-7.4573845E-4
-1.4958956E-4
-0.0010401435
-0.0023445208
-0.0030615607
-0.0043342467
-0.0033350948
-0.0015504707
-7.026054E-5
0.001494253
-2.5408444E-5
-6.0344423E-4
-2.4275816E-4
-0.0027305102
-0.0012431955
0.0014042121
-7.1169814E-4
-0.0018880493
-0.0018262783
-0.0015348028
-8.9074216E-5
0.0017617818
0.004558491
0.004598597
0.0029858518
0.004115196
0.003980753
0.0020864522
3.1055868E-4
-0.002557676
-0.0025588954
6.848079E-4
1.6942948E-4
-0.0021220094
-1.8154355E-4
9.2059874E-4
-2.1928763E-4
9.065162E-4
1.9322924E-4
-0.0015484316
-1.7380685E-4
9.700894E-4
0.0015151696
2.5671237E-4
-0.0021653392
-0.0018287548
-0.0022682005
-0.0030414592
-0.0020417962
-5.383937E-4
0.002004992
9.5947715E-4
-0.0013347317
-7.470733E-5
-1.3967327E-4
4.73543E-4
0.0011001065
-0.001351725
-8.5963804E-4
0.001152914
0.0015455646
3.2861863E-4
-0.0021618658
-0.0013788248
-0.0010356281
-0.0026823718
-6.679454E-4
0.001559681
0.0016994128
0.0015996622
0.0016386443
0.0016488828
0.0011096613
0.0027121205
0.0039821826
0.0029423053
0.0037530514
0.002459822
-0.0020067813
-0.0036489659
-0.0017564516
8.253705E-4
-6.051463E-5
-0.0018755683
-0.0010838852
-5.720256E-4
0.0013302653
0.0025302193
-7.3453883E-4
-0.0029229268
-0.0032218876
-0.0033354594
-0.002830074
-0.0041310224
-0.0040377076
-7.1439624E-4
-3.831475E-5
-4.8235306E-4
0.0018351356
0.00204004
4.6245012E-4
0.0011310087
0.0010916484
0.0017304578
0.0036766988
0.0032150892
0.0036494313
0.004615494
0.004277583
0.0039155995
8.080067E-4
-0.0011114461
-5.769644E-4
-0.001661373
-7.581651E-4
-3.5046646E-4
-0.0020317442
-0.0015634403
-0.0016854961
-0.0033989192
-0.0070959786
-0.008383171
-0.00235213
4.272218E-5
-0.0022657737
-8.5640844E-4
4.1961716E-4
1.9534754E-4
-4.007129E-4
-6.96664E-4
0.0013222157
0.0022022168
0.0014029949
0.0016093092
0.0023664718
0.0026649593
0.0026446725
0.0036685881
0.005213921
0.006443142
0.006246348
0.003387753
9.6107705E-4
7.6791144E-4
0.0014021005
9.570037E-4
-0.0018417778
-0.0046439916
-0.005399499
-0.004784641
-0.0041123526
-0.0022947849
5.420162E-4
-3.2678112E-5
-0.0019007039
-0.002070958
-0.0024908518
-0.0012395493
0.0010390371
0.0011935497
-0.001693506
-0.004210171
-0.0018542479
-0.0011273893
-0.0028191728
-9.772459E-4
-1.9722321E-4
8.014294E-4
0.004377004
0.0047488473
0.0019889772
-1.529728E-4
4.635032E-4
9.5830276E-4
5.7768554E-4
0.0024176696
0.002077922
-5.195172E-4
-9.5880893E-4
4.5271745E-4
0.002995117
0.0031857274
0.0022622454
0.0038271868
0.0035942548
7.306923E-4
-8.3939213E-4
-0.0012568844
-0.0025096629
-0.0022821496
-1.7753002E-5
-6.1169994E-4
-0.001676885
-6.2472485E-5
0.0016937423
0.002682925
8.0167566E-4
-0.0015892426
-0.0029694547
-0.006566062
-0.0067362823
-0.0030196458
-0.002313066
-0.0034488456
-0.0036866588
-0.0010366169
0.0019267016
9.6772786E-4
3.5522046E-4
6.063539E-4
-6.491831E-4
5.393368E-4
0.003243717
0.0033241224
0.0021410498
0.001882449
0.0033690042
0.0045417803
0.00234301
3.2091764E-4
0.0015118816
0.0030110257
0.0040892633
0.0041511757
0.0028920881
0.0026475596
0.0015497576
-9.774697E-4
-0.0018358404
-0.0020072367
-0.003293075
-0.004799636
-0.004563846
-0.0031202869
-0.0029418806
-0.0038414847
-0.0046054716
-0.0028708354
3.4627313E-4
-6.614561E-4
-0.0031548731
-0.0020131995
-6.444654E-4
4.0593324E-5
0.00141448
5.0782127E-4
-7.9894956E-4
0.0013839126
0.0031684465
0.0032608302
0.0036794862
0.0015944086
-8.154566E-4
0.0012190522
0.0045537795
0.004890127
0.0027671824
0.00113447
3.680428E-4
5.6459644E-4
0.0026128527
0.002679194
-6.9914985E-4
-0.0027017647
-2.0758576E-5
0.0027529383
-2.9237117E-4
-0.0019202392
0.0010642974
-0.001000582
-0.0063742828
-0.008443368
-0.0069604837
-0.0032103104
-4.5568595E-4
0.0014232529
0.0018519515
4.616323E-4
-3.99244E-4
-0.002213509
-0.0030009858
-0.0019928196
-8.0629936E-5
0.003618701
0.0021903464
-0.0013367039
5.541882E-4
0.0018464924
0.0035775627
0.0067071677
0.0053099957
0.0027755818
0.0024759416
0.0012285217
-0.0030304352
-0.0045221793
-0.0013590364
-0.0013214934
-7.37236E-4
0.0021818443
5.398699E-4
-4.7803178E-4
1.4988134E-4
-0.0011028531
-0.0015057292
-0.0026181499
-0.0027214307
-2.4002517E-4
5.962125E-4
8.87764E-4
0.002285649
0.0027177918
6.892295E-4
-0.0010801952
0.0010214659
0.0028671222
0.0019353012
0.001383296
-2.5849075E-5
-0.0018521006
-0.0018028532
-0.0032212974
-0.0035432712
1.48360095E-5
-9.4835187E-4
-0.0041512796