-0.0016635587
-0.0011013618
8.86672E-4
9.6781674E-4
0.0015606029
0.0012930917
-2.4609116E-4
-0.0011767666
-0.0017090439
-0.0010004467
4.5694716E-4
0.0014972693
8.438029E-4
-3.1195747E-4
1.2860708E-4
5.4690946E-4
0.0016547212
0.0020424803
2.727595E-4
0.0011806227
0.0030503944
0.001729485
-7.8003434E-4
-0.0020531674
-0.001473595
-6.75849E-4
3.0100075E-4
5.142608E-4
-0.0021997744
-0.0040156543
-0.0024955587
-2.9522966E-4
-2.6847105E-4
-0.0020209576
-0.0018187878
-7.140788E-4
-7.3195586E-4
1.9340756E-4
9.613034E-4
3.358517E-4
7.1289804E-4
0.0014118437
-4.611839E-4
-0.0010959886
0.0016861485
0.0014338173
-3.640488E-4
0.0013029012
0.0024076712
0.0011828354
-3.7820823E-4
-6.541475E-4
4.4219472E-5
-3.6735734E-4
4.202084E-4
0.0019886477
0.0019193763
0.0026492146
0.0021845433
-0.0011180043
-0.002687403
-0.0017077427
-0.0013406762
-0.0021884723
-0.0017018536
-0.0010075489
-0.0018821348
-0.0010816453
2.6897233E-4
8.5495727E-4
0.0024068132
0.0010261155
-0.0023673505
-0.0027265595
-0.0016945301
-5.2461575E-4
9.031811E-4
0.0025080435
0.003479636
0.0016329819
-3.1308486E-4
-7.3571445E-4
-0.0010667124
4.966518E-4
0.0015552514
-2.2331235E-4
-0.0010208345
-7.3589315E-4
-8.043718E-4
-3.1758356E-4
4.5704166E-4
0.0013904469
0.0016901636
0.0010781578
6.538264E-4
-1.832125E-4
-8.219336E-4
3.11019E-4
0.0010079166
-1.5286675E-4
-4.948971E-4
2.979161E-4
-3.298681E-4
-0.0015202523
-0.0010741963
-2.812947E-4
-1.16540345E-4
4.4327846E-4
5.5479334E-4
-3.747033E-4
-7.093949E-4
-5.4384285E-4
-7.234412E-4
-6.383246E-4
-6.9799944E-4
-0.0013158276
-0.0015312554
-7.226282E-4
5.821646E-4
5.84351E-4
-3.3029096E-4
7.45074E-4
0.0023908303
0.0022127333
0.0024883053
0.0028017836
0.0010586242
-5.1713735E-4
-8.902478E-4
-4.1637235E-4
0.0012630052
0.0021186366
5.8155664E-4
-9.6029224E-4
-4.8945175E-4
-0.0014235572
-0.004042148
-0.0031302033
-7.920116E-4
6.866261E-4
0.0013060941
-0.0023536915
-0.0031699347
0.0014782568
8.253586E-4
-0.0018171559
4.616456E-4
0.0031202985
0.002950101
0.0018273444
0.0029218749
0.00315577
8.040888E-4
-1.3811234E-4
-0.001345943
-0.0025950053
-0.0026639858
-0.0032765043
-0.001505836
7.350045E-4
8.526815E-4
0.0015823102
5.1608833E-4
-0.0018065942
-0.0012921841
-4.677382E-4
-0.0010567305
-0.0015391114
-0.0015237504
-1.0160377E-4
0.0015643315
0.0012740571
0.0012848675
0.0021104875
0.001500587
3.7537995E-4
-9.962765E-4
-0.0014669524
2.9312697E-4
0.0015033652
0.0019534796
0.002349046
0.0014404181
3.1559606E-4
2.2475318E-5
-7.934948E-4
-0.0024909263
-0.0018859537
-8.852297E-4
-0.003197135
-0.0027397708
2.7320563E-4
-1.8864128E-4
-3.492007E-4
0.0016905919
0.0029367518
0.0019054768
1.2530223E-5
-4.664463E-4
-0.0012990306
-7.208117E-4
0.0020199928
0.0016270872
-6.4464676E-4
-0.0016795476
-0.0021261917
-0.0027267933
-0.0021752988
9.651051E-4
0.0021903957
0.001848126
0.0021039243
-5.61776E-4
-0.0011165215
7.7688764E-4
-3.3540584E-4
1.255646E-4
0.0014981992
0.0012501305
0.0013350295
0.0012952965
0.0018893707
8.5452106E-4
-0.0017020789
-0.00260373
-0.0026050343
-3.514073E-4
8.996824E-4
-0.0012890036
-0.0028840844
-0.0035519367
-8.290399E-4
0.0015282736
-0.001424619
-0.0017023826
-1.341635E-4
3.7270266E-4
0.0020782265
8.9957815E-4
3.2222472E-4
0.001833138
0.0023967049
0.004420696
0.0037336259
0.0027606126
0.003779159
-3.5349425E-5
-0.0019180593
-2.4781394E-4
-0.0011748066
-0.0020832382
-0.003489705
-0.0016164583
0.002737841
9.212896E-4
-0.0019958883
-0.004306
-0.007905085
-0.0065483185
-0.0024276583
-5.5659487E-4
-4.1115328E-4
-4.4563442E-4
2.545749E-4
6.695528E-4
0.001521241
0.0027980064
0.003318225
0.0040499037
0.005805772
0.0060701496
0.0021397932
0.0011557871
0.004027871
0.0018576934
2.8295888E-4
0.0011169221
-0.001528351
-0.0022770942
-0.0012253512
-0.0016108787
-0.0025453141
-0.0037259844
-0.0025258174
-4.1634298E-4
0.0010263072
-6.557124E-5
-0.002536679
4.6613105E-4
0.0017340736
-7.328054E-4
3.8181504E-4
-0.0013519657
-0.0031036746
-9.537301E-4
-0.0012795923
-0.0013107009
-0.0013700364
-9.131415E-4
0.0018187972
0.0010068294
-3.9754025E-4
-5.555863E-4
-9.4777654E-4
4.0105666E-4
2.5133058E-4
-6.4107525E-4
-8.829887E-4
-8.932491E-4
9.1581844E-4
8.465959E-4
2.8915063E-4
0.0019460709
0.002940151
0.00383782
0.0030632375
0.0014548547
0.0020714179
0.0019682932
0.0019978997
0.003721244
0.0044275457
0.0019223521
-0.0026222304
-0.0038043116
-0.0020945307
-0.0014802882
-0.0011220712
-8.1770716E-4
-0.0011901509
-0.0028573524
-0.004001444
-0.0030612303
-0.0036254034
-0.003897749
-0.0014273883
-7.847422E-5
-2.3475543E-4
-2.5081678E-4
0.0011767785
0.0015883616
-0.0014481957
-0.0012471661
0.0019360392
0.002819449
0.0023574752
-0.0013106822
-0.0030288426
0.0011813403
8.615969E-4
-0.0025133332
-7.467812E-4
0.0016625195
0.002203497
0.0024729476
0.002121654
0.0021604726
0.0025210406
0.002006147
0.0014937575
0.0016319049
9.258817E-4
-8.2901235E-5
-4.2803062E-4
-0.0013606044
-0.0011529187
-6.970739E-4
-0.0022086247
-4.4364214E-4
0.002070029
-3.4511846E-5
-3.9071214E-4
-1.6778312E-4
-0.001448557
6.3020457E-4
-2.1881332E-4
-0.0039411853
-0.0027277886
-7.344486E-4
-0.0010043479
-0.0027812219
-0.0026657414
2.1714318E-4
-0.0018732611
-0.003259432
1.6996244E-4
-4.420699E-4
7.32893E-4
0.005073165
0.0043049064
0.0036385667
0.004473931
0.0026097428
9.272784E-4
4.9877405E-4
-5.780131E-4
-0.001477105
-7.8897615E-4
6.142198E-5
-1.573745E-5
-3.541504E-4
-1.1020798E-4
7.8527216E-4
5.921931E-4
-5.043619E-4
-9.415442E-4
-4.1406538E-4
-0.0010178154
-0.0035370782
-0.0029106485
-1.8718181E-4
0.0013516038
0.0012626685
-0.004012145
-0.006168275
-3.514321E-4
0.0034291775
0.0038369999
0.0015534123
-3.2291329E-4
0.0021493959
0.0031364732
0.0031609412
0.0023858394
-2.845672E-4
-0.0010075015
-0.0019121943
-5.19527E-4
0.0020107252
-3.0445907E-4
-0.0012265288
-4.7232152E-4
-0.0017382614
-0.0022782446
-0.0025549387
-0.00207286
-4.7181614E-4
-5.1677605E-4
-0.0019320269
-7.133054E-4
0.0017680085
7.6085725E-4
-2.1768385E-4
-9.8359524E-5
-5.468077E-4
4.4170505E-4
0.001209194
0.0032457486
0.0046321745
8.760467E-4
-0.0016490592
-0.0010680621
1.3366756E-4
0.002010249
0.0022461296
0.001020787
-0.0011000754
-0.0021059194
-0.0011009711
-0.001034119
-8.3603745E-4
-5.533656E-4
-2.1460505E-4
8.972483E-4
1.3144175E-4
-6.877387E-4
-7.2867563E-4
-0.0013621941
-8.291757E-4
5.3308464E-5
7.051562E-4
3.1589362E-4
-0.0010256518
1.2545823E-4
0.0016269918
0.0012627078
7.057251E-4
-2.516778E-4
-1.9319054E-4
8.834032E-4
9.93629E-4
6.1063067E-4
1.5927662E-4
-3.566428E-4
-0.002436093
-0.0038535947
-3.5167337E-4
0.0020336895
5.945539E-4
4.6365825E-4
6.509318E-5
-3.702419E-4
7.4183114E-4
7.475575E-4
6.678092E-4
1.6300057E-4
-0.0017012366
-0.0018351546
6.240055E-5
6.041559E-4
-9.1581943E-4
-4.3112892E-4
4.965743E-4
-5.020499E-4
0.0011742136
0.0025097132
0.001303899
0.0011057609
-6.517917E-4
-0.0016654705
-9.4224115E-6
-5.3192786E-4
-0.0023803662
-0.0022840765
-6.911683E-5
0.0011172594
5.816184E-4
9.6823456E-4
0.0018235118
0.001994597
-5.144468E-4
-0.0026242617
-0.0012352589
-0.0013252991
-0.0014009307
-1.12215326E-4
9.664482E-4
0.0032319727
0.0025109565
9.315218E-4
0.0014930961
9.859741E-5
-7.988392E-4
-1.4556364E-4
9.5035596E-4
0.0020284937
0.0011181461
1.2174361E-4
-5.4270896E-4
-0.0011403243
-0.001386844
-8.193994E-4
1.1230797E-4
-0.0017834143
-0.001241258
8.891763E-4
-0.0026585332
-0.004057448
-0.0018310463
-1.9362012E-4
0.0019852389
-2.7254655E-4
-0.0030163096
-2.8433313E-4
0.0017148103
0.001516399
-5.8605627E-5
-0.0035155513
-0.0025706536
0.0020851821
0.0011321679
-4.161537E-4
0.0028229938
0.0025230392
0.0014777662
0.0030540323
0.0017915453
0.0022247522
0.0048687086
0.00421447
0.0010987901
-0.0022671418
-0.0035772673
-0.003509713
-0.002579254
-4.653067E-4
0.001770338
0.0035485865
8.713142E-4
-0.0025555936
-0.0016722002
-0.0020831528
-0.0018225292
8.5866265E-4
8.467835E-4
-6.472827E-4
-0.0025181677
-0.003623799
-0.0030353134
-0.0028184517
-0.0018534125
9.71998E-5
0.0016421985
0.0021443367
0.0015551992
0.00135698
0.001149522
4.5674355E-4
4.663419E-4
0.0018174876
0.0032875095
0.0025510977
9.5543993E-4
-5.8502344E-5
-5.049799E-4
9.427658E-4
0.0019589604
0.0010658315
-4.5174223E-5
-0.0013113832
-0.0016630514
-0.0019648103
-0.0022304326
-5.606867E-5
8.357003E-4
-7.2709634E-4
-9.7129325E-4
-2.8388438E-4
3.5650533E-4
5.9347978E-5
-6.514807E-4
-6.93225E-4
-0.0014667044
-6.349725E-4
0.0011429156
-4.3835805E-4
-0.001445916
1.3498275E-4
1.7756344E-4
-6.561011E-4
-8.513429E-5
6.863563E-4
0.0010441346
0.002003415
0.001717524
-2.2042655E-4
-5.4124946E-4
-3.1387038E-4
-0.0010925484
-0.001461479
-0.0012170051
-5.8491225E-4
-7.684321E-4
-0.001256936
-7.180354E-4
-1.62689E-4
0.0013719142
0.0041779196
0.005701737
0.004131281
0.0014055128
9.4592344E-4
5.841944E-4
-3.4267048E-4
5.6952075E-4
5.066574E-4
-0.0011559614
-0.0021153465
-0.0026688061
-0.0034201846
-0.0035714633
-0.0013894355
4.8073937E-4
-1.9917465E-5
7.013002E-4
0.0014774528
-3.204438E-5
-0.0013832031
-0.0030331789
-0.0044092387
-0.0015830982
0.0025688342
0.003085219
0.002340682
0.002739727
0.002483928
0.0013433171
0.001652802
0.0016122889
-0.0019458368
-0.003193897
-9.866703E-4
-0.0020451706
-0.0036652435
-0.0039401073
-0.003150313
1.1073023E-4
4.3358203E-4
1.0606642E-4
0.0023777515
0.002501793
0.0029606086
0.0021984407
-0.0012590945
-8.789493E-4
0.0010651549
0.0014754365
0.001143355
6.618925E-4
0.0023678362
0.003928819
0.0034702253
0.001487428
2.0311061E-4
0.0031222205
0.004484001
0.0017436041
4.569004E-4
-3.913369E-4
-0.0018440614
-0.0024701424
-0.0037396452
-0.0062630572
-0.007367157
-0.0055250847
-0.004159634
-0.0029210683
4.2498132E-4
0.0017422298
1.5654456E-4
-0.0014170816
-0.0020961934
-0.0015051966
-0.0011020108
-5.02837E-4
0.002116935
0.002563224
-0.0019413731
-0.0036587224
6.3620164E-4
0.004057562
0.0061297375
0.0065011834
0.0029695493
0.0017888414
0.0031325133
0.0030021938
0.0020350863
5.1240023E-4
9.6977403E-4
7.220793E-4
-0.0011663784
-4.1386465E-5
0.001503871
0.0046756133
0.0066352966
0.0020389035
-0.0019867935
-0.007333694
-0.012495322
-0.009239549
-0.004931031
-0.0014479833
0.0014019955
0.0010871103
0.0018479257
-4.8971246E-4
-0.0036219184
4.570645E-4
0.004653117
0.0025696259
-0.0022367672
-0.0043165125
-0.0057347445
-0.0053312164
0.0019940403
0.005500684
0.0021528052
-3.139035E-5
-8.719847E-4
0.0029020112
0.007699821
0.00861612
0.0077448133
0.0021690784
-0.0040000067
-0.0076948013
-0.009290424
-0.006847669
-0.0077959336
-0.0068270187
0.0016083607
0.0034070106
0.0016579647
0.0044757393
0.005277148
0.005242296
0.0056761354
0.0037484984
0.0038972253
0.006743447
0.0061067
0.0041676285
0.006647197
0.007869106
0.0034705698
-3.2405148E-4
-0.0023683945
-0.006039042
-0.008678838
-0.010687856
-0.01603977
-0.017542636
-0.010701519
-0.006752731
-0.0074502034
-0.004655342
-0.0028113478
-0.0037806274
-0.0016056204
-9.788066E-4
-0.0028204927
-0.0021241694
-0.0055994317
-0.012981062
-0.0152897015
-0.01211541
-0.0036233352
0.0077245208
0.018130345
0.026652172
0.02722418
0.021810845
0.02064987
0.02007345
0.012656973
0.0066402885
0.006639756
0.0015828521
-0.0038959652
0.0034080178
0.011889279
0.00958515
0.0011537874
-0.009039764
-0.015046013
-0.01205591
-0.009254041
-0.012690673
-0.011090483
-0.0052426644
-0.004811203
-0.006979038
-0.0151618775
-0.023963988
-0.021350503
-0.017889133
-0.017943908
-0.016528739
-0.014527373
-0.008424588
-1.6022366E-4
0.0046841633
0.0031623314
-5.5102544E-4
0.0062981625
0.017534375
0.016056783
0.008534206
0.012027502
0.02524389
0.042821433
0.05645983
0.044083435
0.020459369
0.009317962
-0.011327316
-0.037030626
-0.049792223
-0.053947836
-0.029540036
0.015907856
0.049193576
0.07528173
0.08569113
0.06505117
0.043040067
0.035749782
0.016736763
-0.016902471
-0.035312727
-0.02812158
-0.018204182
-0.03482871
-0.06308202
-0.06730451
-0.05557412
-0.038551092
-0.022538185
-0.022525026
-0.03726672
-0.08715162
-0.1365055
-0.106498554
-0.054088894
-0.03623614
-0.028686691
-0.031193497
0.0075329863
0.09544061
0.15821236
0.17270026
0.1195995
0.0586288
0.05438973
0.029257068
-0.023179349
-0.060589068
-0.061203722
0.01653101
0.11192336
0.1989416
0.23120195
0.10543365
0.02432264
0.11316846
0.11954043
-0.03827968
-0.21385309
-0.28190446
-0.20997448
-0.1007268
-0.044837955
-0.07676871
-0.14203033
-0.13073322
-0.08712686
-0.061399646
0.007105597
0.13360023
0.22973253
0.14503372
-0.069252394
-0.18203518
-0.15863433
-0.08377382
0.0076348386
0.08158429
0.10694293
0.06419798
0.053249925
0.16813512
0.23564416
0.14326203
0.080189385
0.109693296
0.09095128
0.02533439
-0.06843699
-0.23443337
-0.33684716
-0.26975745
-0.13038476
-0.0016249808
0.071898125
0.073635265
0.03513915
0.01746497
0.038346734
-0.045097817
-0.22273804
-0.21398307
0.013796686
0.20406161
0.24971145
0.21539617
0.10077794
-0.04992272
-0.056472387
0.07739388
0.161852
0.12843533
0.0939696
0.16862386
0.23631981
0.18595424
0.035357326
-0.21553731
-0.4160672
-0.44076094
-0.36653137
-0.23589215
-0.09657003
0.03708072
0.1726928
0.19939813
0.081083715
-0.06692429
-0.0843626
0.03094245
0.11061235
0.07788367
-0.09147688
-0.25874284
-0.20356388
-0.06566422
0.038131613
0.18717866
0.28175867
0.30037057
0.28767592
0.17026916
0.01617588
-0.11771563
-0.22174364
-0.18239668
-0.07431178
0.0088494625
0.108772494
0.08700713
-0.044811793
-0.06458805
-0.04735802
-0.075024776
-0.0028690654
0.15525489
0.20262785
0.06426905
-0.09827014
-0.13514182
-0.09929551
-0.056846194
-0.0024807262
0.030959066
0.014417598
-0.012506976
-0.016420502
0.016805315
0.06679842
0.041644134
-0.0599613
-0.13122001
-0.11949975
-0.05068794
-0.008709087
-0.0093652615
0.009239391
0.037333682
0.051489923
0.054648332
0.04827636
0.040039398
0.04287749
0.06628599
0.058338862
0.008725372
-0.038132157
-0.075768806
-0.053453043
0.017638016
0.0724354
0.088905774
0.01893364
-0.03577152
2.7506897E-4
-0.012549558
-0.046546023
-0.02358859
-0.013836075
-0.014394029
-0.008262731
-0.015837379
-0.030164562
-0.04288605
-0.03698178
-0.015244081
-0.0011657525
-0.0021730645
-2.3586232E-4
0.014732821
0.019228326
0.015363834
0.019755527
0.023211788
0.021289207
0.019196404
0.021733563
0.021970553
0.0136382915
0.002984011
-0.006110867
-0.007341746
-0.0050902045
-0.0075104143
-0.00990785
-0.014544517
-0.019123338
-0.017856624
-0.016298493
-0.015654365
-0.015105231
-0.014002205
-0.008964128
-0.0034444658
-0.004479797
-0.009230818
-0.008260861
-0.0038348653
-0.0017199392
-2.7133894E-4
-0.0043488564
-0.012363701
-0.012409486
-0.009266724
-0.008951308
-0.0033515047
0.0061272033
0.012904459
0.016805448
0.016697882
0.011383356
0.0031760791
0.002846193
0.014163018
0.024635393
0.026677135
0.018224023
0.007077525
0.008391309
0.018019298
0.02433419
0.02826277
0.03547342
0.034497913
0.011507772
-0.011220128
-0.016007945
-0.013950975
-0.009562321
-0.0076826476
-0.010495108
-0.010930436
-0.008222945
-0.007820402
-0.017794289
-0.028744662
-0.024372391
-0.014646536
-0.016749898
-0.025501085
-0.021302614
-0.012815029
-0.021133265
-0.02861059
-0.023944853
-0.021236164
-0.018625494
-0.013903416
-0.0120273875
-0.0067552407
0.007267072
0.020248024
0.026318999
0.030500809
0.029981665
0.028255861
0.027662303
0.018683434
0.013239609
0.021904679
0.033287317
0.03956055
0.03958769
0.039096624
0.036128215
0.027012095
0.0197523
0.008330596
-0.005536114
-0.005424155
-0.0012450918
-0.008658704
-0.020243675
-0.022492323
-0.01767654
-0.016456882
-0.02123066
-0.033650983
-0.044865083
-0.03827498
-0.023251222
-0.01731547
-0.01671422
-0.014289011
-0.013778199
-0.014987225
-0.00937296
-0.0019210444
-0.002024119
-0.0016464075
0.0026456248
0.0063738995
0.011031787
0.011177347
0.0050657867
0.003187351
0.0073697027
0.011258577
0.00894958
0.0032209815
0.0025580234
0.0025032284
0.0027794163
0.007476905
0.006079199
0.0025642575
0.0067292503
0.008642776
0.0068745073
0.007227428
0.009969296
0.015399037
0.016227337
0.011673729
0.008194457
0.0012232248
-0.005250488
-0.001102274
0.0055709463
0.0067843776
0.004141098
-4.681819E-4
-0.0022267231
-0.004446469
-0.010645156
-0.011163713
-0.008213469
-0.009135324
-0.010059806
-0.011951098
-0.0135269575
-0.0133764455
-0.0148082655
-0.012115497
-0.007814272
-0.008628292
-0.007955812
-0.0047201603
-0.0022113977
-0.0018995777
-0.0035786424
-6.8676233E-4
0.0034352813
0.0031099725
0.003368267
0.0050963527
0.006649903
0.0058598286
0.002919005
0.0030757063
0.0028249999
6.1295E-4
0.002136638
0.005551007
0.0068423003
0.0046216385
0.0012506238
-0.0013835534
-0.004077512
-0.0031187884
-0.0024203386
-0.00446931
-0.0013827496
2.8971196E-4
-0.0028972004
-0.0028361655
-0.0037444297
-0.004931681
-0.0028472291
-0.002950091
-0.002786192
-0.0014825411
-0.002006587
-5.6456187E-4
0.0022781526
0.0032868546
0.0017929395
-0.0016271634
-0.0030745475
-0.0027576853
-0.0027634911
-3.9892763E-4
0.0029364773
0.0027483774
-6.844788E-4
-0.003488622
-0.0015446614
0.0018475503
4.1247107E-4
-0.0033986375
-0.004982876
-0.0023718379
0.0012261515
2.361012E-4
-0.0012242937
1.0438174E-5
0.0022572558
0.0035418393
-1.09084176E-4
4.1925634E-4
0.0070415484
0.0069176746
0.0069036256
0.00797852
0.0023273015
-4.3325813E-4
-0.0015599788
-0.0038981105
-0.0029174911
-0.003308986
-0.0020319743
5.4043485E-4
-8.252163E-4
-7.4802205E-4
2.1981518E-4
5.1047327E-4
7.0206495E-4
-2.6175705E-5
0.0013185134
0.0016277175
-2.2772105E-5
-3.6997956E-4
-2.6382008E-4
6.4643373E-4
-6.7766185E-4
-0.0021721972
-2.9367645E-4
-6.5651635E-4
-3.7015285E-4
0.001984762
0.0012050887
2.4400622E-4
-0.0010069666
-0.0029747046
-0.0022394808
-8.430072E-4
-0.0015069179
-0.0028803067
-0.0014146523
-2.6701193E-4
-0.0030674678
-0.0038571241
-0.0022949663
-0.0021757812
-0.0016162334
-3.4646913E-5
0.0017336204
0.0027654183
0.002893469
0.0036772448
0.0050693564
0.006061423
0.0063142274
0.0059568337
0.0062999176
0.008668271
0.0067310804
-0.0038168395
-0.009785422
-0.0052843243
-0.0010603439
-2.6456075E-4
-5.8402267E-5
0.001521222
0.0033056873
0.0028685494
0.0019957297
-0.002891937
-0.009194415
-0.007073702
-0.003441971
-0.0028772585
-9.2686433E-4
-0.00246237
-0.0044667926
-0.0013863995
-0.001477708
-0.003113646
7.245236E-4
0.0018561487
-0.0015284378
-6.18033E-4
0.0020312765
0.001816825
0.0013981371
5.3400244E-4
1.6172165E-4
0.0024546967
0.0032295496
0.0022934664
0.0035344556
0.0037868354
0.0016908228
2.7271415E-4
-2.7455197E-4
9.802711E-4
0.0014542975
-0.0011024808
-9.5393136E-4
0.0013541557
0.0014361053
8.607984E-4
5.315689E-4
0.0013232192
0.0025622977
0.0029627888
0.0032609745
8.1956876E-4
-0.0025461141
-0.002716023
-0.0045020464
-0.0071532354
-0.0033631888
0.0015113213
5.4748653E-4
-9.976083E-4
-0.0010476775
-0.0013081874
-4.25578E-4
-4.2127E-4
3.0912165E-4
0.0018552647
-5.449308E-4
-7.744295E-4
0.0011666545
-0.0014772878
-0.0017186062
0.0010202556
7.658907E-4
4.0266287E-4
3.030373E-4
5.830952E-4
0.002121427
0.0017026365
9.793661E-4
0.001940815
0.0014223523
-4.3733814E-4
-0.0022757358
-0.0040919976
-0.0029104373
2.3597309E-4
0.0010916013
0.0018810524
0.0030553557
0.0016399771
-1.4897723E-4
-6.646914E-4
-8.0973847E-4
4.2829115E-4
0.0019943693
7.2183803E-4
-9.976648E-4
1.7844462E-4
7.509485E-4
-5.270417E-4
-0.0011369439
-0.0013140823
-8.7981153E-4
-4.438025E-4
-6.707736E-4
-1.5022577E-4
0.0019732837
0.004854934
0.003999935
6.148809E-5
-7.5524655E-4
6.942837E-5
-8.1903324E-4
-0.0026292128
-0.003277509
-0.002431464
-0.0022900573
1.3097766E-4
0.0041296626
0.0043543847
0.0062272
0.008936022
0.0027336786
-0.006378762
-0.008480842
-0.006918953
-0.0052542267
-0.0014911259
6.994772E-4
-0.0010987248
-2.163861E-5
0.0023004734
6.602807E-4
4.114971E-5
4.239061E-4
-5.7450857E-4
-1.1797844E-4
4.8195503E-5
-6.273804E-4
6.247911E-4
0.0017646508
0.0017157304
0.0028165125
0.003434612
0.0015637839
6.885409E-4
0.001673016
0.001597946
0.0012347088
7.09677E-4
-0.001632354
-0.0036153991
-0.0023750635
-1.9048502E-4
-8.789955E-4
-0.0022123712
-7.923237E-4
0.0012402931
5.3847216E-5
-0.0029128273
-0.0021194501
-2.366063E-4
-0.0013528507
-1.723405E-4
0.0020406484
0.0010607003
0.0014953606
0.0029710168
0.001854221
6.464064E-4
0.0013306256
0.0016202949
-8.36453E-5
-2.6667706E-4
0.0010366777
-8.095382E-4
-0.002848151
-0.0017278667
5.363176E-4
0.003653086
0.005278762
0.0025993688
-9.570664E-4
-0.002373442
-0.002406241
-0.0010497435
-3.5086158E-4
-0.0022252707
-0.0029640878
-0.0026941963
-0.0033334931
-0.0014569336
4.5298805E-4
9.305343E-5
6.3283654E-4
-5.424673E-4
-0.0018999276
7.9551515E-5
2.2582452E-4
-2.9026009E-5
0.0019348873
0.0017425396
0.0021434089
0.0029381113
-8.204123E-4
-0.0030224342
-0.0011131272
8.897934E-4
0.004594748
0.00694558
0.0037234782
-3.4326487E-4
-6.1002414E-4
0.0022824686
0.0042282124
0.0027712923
-1.1950914E-4
-0.0010418822
6.4920005E-4
-1.8378167E-4
-0.0037802656
-0.004187026
-0.003530518
-0.005025774
-0.0051728263
-0.0022094508
8.111276E-5
-0.0013952606
-0.0020679159
-9.9921155E-5
8.8514906E-4
0.0024192438
0.003242954
0.001781613
0.0016706093
1.3806329E-4
-0.0020000543
4.8114883E-4
0.0019992027
6.4393925E-4
5.0438393E-4
-3.7873661E-4
-8.8160107E-4
3.25072E-4
7.491219E-4
0.0020222722
0.0028674745
0.0017404344
0.0021125493
0.0019249626
8.2053135E-5
-7.0490665E-4
-0.00240806
-0.003519421
-0.0018576586
-0.0013232774
-0.0018147784
-0.0011092102
-4.5488946E-4
0.0012153344
0.0036146927
0.0015931039
-0.0027903463
-0.003158627
-0.0025464615
-0.0026179512
-1.4396684E-4
0.00169192
0.0012782312
7.3823455E-4
-4.0829615E-4
-0.0011738403
-7.919004E-4
7.2584057E-4
0.0027250343
0.0024330358
0.0017735042
0.0021388056
7.1070105E-4
4.5832648E-4
0.0023467774
0.0024030982
0.0019783208
7.615592E-4
-0.0014882128
-0.0015900458
-0.0018169769
-0.0016192608
4.1455316E-4
-2.8591606E-4
-0.0022035441
-0.0026663549
-0.002536536
-0.0017194761
-0.0022924521
-0.00291052
-0.001503953
3.3257084E-4
0.002371572
0.002966321
0.0024247265
0.001692708
-0.0011930056
-0.0036806923
-0.0028945445
0.0010319925
0.0044168797
0.0029552255
0.0012116791
0.0014469742
0.0019071045
0.0043789446
0.0042579854
-7.814307E-4
-0.004128366
-0.0035358735
-0.0019322106
-0.0015733414
-6.965169E-4
9.4984E-4
7.581107E-4
0.0016588484
0.0029925138
2.74282E-4
-0.002457704
-0.0014323345
0.0017883814
0.003065027
-3.7675005E-4
-0.002479853
-0.0015763124
-0.0022097733
-9.4461144E-4
6.650472E-4
-9.912124E-4
-4.3766014E-4
-5.1460805E-4
-0.0033196819
-0.0014910352
0.0016446682
0.0011921639
9.898036E-4
0.0014896917
0.001217344
-7.744562E-5
-0.0016490462
-3.6012416E-4
0.0019063407
7.99146E-4
-1.711007E-4
0.0013932005
0.0017663273
0.0012728579
0.0015016092
0.0022269085
0.0027381787
5.4794346E-4
-0.0021849987
-0.0021710994
-0.0012574415
-0.0011397639
-0.0013882022
-7.7633525E-4
-5.1776005E-4
-6.679797E-4
-5.094932E-4
-0.0019021211
-6.418948E-4
0.0023567288
0.0010504089
2.092605E-4
-2.1869388E-4
-0.0018099324
-6.4663205E-4
4.312548E-4
0.0013842094
0.002000796
0.0011177603
0.0014146861
4.3102287E-4
7.064721E-5
2.456467E-4
-0.0017868485
-0.0010327101
-0.0017976131
-0.003518376
-4.367729E-4
-5.2353705E-4
-8.81819E-4
0.0025174029
0.0019305896
5.365533E-4
0.0012987
6.1909686E-4
-5.121594E-4
-0.0012052914
-0.0017381764
-6.0533785E-4
0.0021360402
0.002749778
0.0016724444
0.0016096567
0.0010320703
0.0012852035
0.0025216602
0.0017980785
-4.780261E-4
-0.0038608955
-0.0053254305
-0.0032496473
-0.0013896204
8.441887E-5
0.0020490433
0.0021622218
-8.891083E-4
-0.003452778
-0.0022227196
-7.2053855E-4
-2.0295872E-4
5.933625E-4
9.300212E-4
0.0013861334
1.8921705E-4
-0.0016181257
-1.14990886E-4
0.0022334603
0.0026212628
0.0013655338
2.818775E-4
4.333703E-4
1.4796862E-4
-3.4367558E-4
-9.9017E-5
0.001975555
0.0045479056
0.0021797596
-0.0018397012
-0.0018514452
-0.0011113342
5.1700765E-5
0.0015401674
3.9368015E-4
3.099793E-4
0.0012767126
-4.965919E-4
-7.995817E-4
-2.8391724E-4
-0.0026389195
-0.00240739
-8.370149E-4
-0.0031213572
-0.0036039483
-0.0013165919
-0.0015920064
-0.0016296247
-3.4990255E-4
-0.001765797
-0.00215723
2.0054028E-4
3.7458347E-5
9.995359E-5
0.0019666497
0.0022092522
0.0035253505
0.0033335225
-7.167662E-4
-0.0018511185
2.8194673E-4
0.0021433914
0.0017211185
4.7713227E-4
0.0028584132
0.004494333
0.004016708
0.0046805576
0.0021137043
-4.7201154E-4
7.14239E-4
-3.2617594E-4
-0.0024187267
-0.003163127
-0.0039290795
-0.0028540737
-0.0020089988
-0.002493424
-8.828747E-4
-2.1520237E-4
-0.001992668
-0.0019322839
-0.0019012709
-0.002326571
-3.8420912E-4
2.8811744E-4
-3.7316586E-5
8.0672244E-4
1.7068324E-4
-1.02358244E-4
1.4722247E-4
-8.13362E-4
3.4197295E-5
8.06951E-4
-5.183237E-4
-2.2711001E-4
0.0010334087
8.190551E-4
6.3435995E-4
0.0019628748
0.00291486
9.2989206E-4
2.779236E-4
0.0037433177
0.003830567
4.4260436E-4
2.2143488E-4
1.4639783E-4
-0.0016553189
-0.0025382517
-0.0024545563
-0.0010032072
4.0656576E-4
0.0013059797
0.0015188179
-6.864028E-4
-0.0011572128
7.548461E-5
-8.219332E-4
-2.5110884E-4
6.8645534E-4
-5.984726E-4
-0.0011379641
-0.0014418125
-0.0011641246
4.8606127E-4
0.0012445742
7.832458E-4
-5.9420645E-4
-0.0010862128
5.082826E-4
7.3639036E-4
-0.0013098991
-0.0013278744
3.4698978E-4
-4.0121534E-4
-5.020779E-4
8.256423E-4
-1.0629344E-4
4.0418684E-4
0.0011092459
-0.0012458157
-0.0011801855
3.0345342E-4
-9.675859E-5
-7.746723E-4
-4.5961433E-4
0.0018047597
0.0021896393
0.0011340325
0.0021705881
0.0014895531
4.9356144E-4
6.600025E-4
-6.4712964E-5
0.001127908
0.0016762668
4.5399295E-4
2.1744189E-4
-0.001165237
-0.0013448066
-6.2921114E-4
-0.002270092
-0.002558053
-0.003493524
-0.005578456
-0.0028693313
1.8624257E-4
2.542641E-4
0.0010207685
0.0012111934
0.0012508316
0.002462945
0.0017941605
-4.6996247E-5
-2.8059175E-4
1.5311947E-4
5.455238E-4
0.0014489328
6.2037946E-4
-3.7795855E-4
0.0038133073
0.006534425
0.0030154472
0.0013988196
7.788157E-5
-0.00268744
-0.0011558614
-6.2187825E-4
-0.0028565035
-0.0026801853
-0.0025802148
-0.0024314318
-8.6084765E-4
-0.00104386
-0.001628424
-8.8468E-4
-0.0017886708
-0.0026450222
-1.227536E-4
8.8601257E-4
-7.7887427E-4
-1.8365988E-4
5.435986E-4
3.8102025E-4
0.001357937
4.2724182E-4
-9.1730244E-4
0.0014204951
0.00267969
6.2055216E-4
0.0011728831
0.0028619377
0.0021741095
0.0032967739
0.003891379
0.001115984
-3.79336E-4
-7.730107E-4
-2.872877E-4
-3.3045228E-4
-0.0036365725
-0.0036734552
4.4544396E-4
0.0018408081
1.1600423E-4
-0.0017209296
-6.710644E-4
0.0012833718
-6.44048E-4
-0.004153601
-0.004265667
-0.0020572192
-0.0015173013
-9.4905746E-4
2.6034503E-4
6.2630085E-7