-2.6010405E-4
6.280645E-4
0.002354756
0.0017467538
-7.6406664E-4
-0.0017758871
-0.002867501
-4.2242164E-4
9.751154E-4
-0.002497932
-0.0018712509
0.0034395526
0.00791598
0.0100074615
0.009541203
0.0054107145
0.0013814993
0.001799053
-0.0022233545
-0.0072178016
-0.0024817255
1.9828363E-4
-0.0017396683
-0.0026082164
-0.0050277445
-0.0036497207
-9.6871937E-4
-0.001948929
-0.0013993196
-5.751865E-4
-8.304581E-4
-0.0013164483
-0.002653117
-0.0025601983
-2.3372899E-5
0.0019142572
3.3651417E-4
2.416354E-4
0.0016501251
-0.0011631948
-7.373527E-4
0.0028814352
0.0020908543
0.0016319688
0.001659002
7.5889035E-4
8.559266E-4
-2.4852985E-5
6.222727E-4
0.0021834467
0.0010946033
-3.9043062E-4
-0.0012818591
-0.0011740567
-8.780137E-4
-0.0016159553
-1.9560312E-4
0.0022659556
0.0013942119
-7.961923E-5
0.0012886603
0.0033080897
0.004537732
0.003731315
-2.773699E-4
-0.0027639018
-0.0021845126
-0.0027958094
-0.003270965
-0.0017180276
-0.001155849
-0.0012786323
8.347187E-4
0.002060492
-6.3574064E-4
-0.0019768248
-5.767915E-4
-7.623294E-4
-0.0014984199
-0.001964703
-0.0025339671
-0.0019882205
-0.0021274057
-0.0016515142
0.0017179798
0.0027007067
4.849748E-4
0.0011493161
0.0028896958
0.0035917764
0.0058437875
0.0037579462
-0.0018933124
-0.0016969062
-0.001830964
-0.004429579
-0.0029160928
-0.0025663737
-0.0024858015
-1.9388199E-4
-3.2427203E-4
0.00124514
0.0028893207
0.00163819
0.003597157
0.00425255
2.4370551E-4
-0.0016492704
-7.5288664E-4
2.0951533E-4
5.119682E-4
-9.834227E-4
-0.0037184542
-0.0022570041
0.0022731314
0.0026901166
0.0033579487
0.0044126827
0.0010347607
1.962056E-4
9.0022624E-4
-7.92764E-4
-0.0022089684
-0.0048768898
-0.005095456
-0.0026343144
-0.0014825591
2.4723553E-4
-8.7521767E-4
-0.0028962474
-0.002124053
-0.0023330827
-3.926079E-4
0.0023712798
0.0019603483
0.0021900553
0.0029310272
0.0026866836
5.7655486E-4
-0.0014485578
-2.2015718E-4
0.0010018515
0.0018252939
9.780227E-4
-0.0021025862
-0.0020231155
-0.0014087736
-0.0017563932
-3.4901034E-4
0.0011972347
0.0023211986
0.0010487172
-3.9293396E-4
0.0014988561
0.003671006
0.004450872
0.001981818
-0.0010005701
-0.0019873194
-0.003262386
-0.0015546757
-9.7478373E-4
-0.0020997568
0.0014552356
0.0022839615
0.0014139656
0.0020685003
0.0014297669
0.004302886
0.0018990202
-0.005430204
-0.003912567
-0.0012458573
-0.001115368
-0.0019222435
-0.004483441
-0.0026535613
-0.001724378
-0.0017679636
0.0016045168
4.846156E-4
-0.0013694545
-2.9189849E-5
3.284394E-4
9.0090284E-4
6.531015E-4
9.999066E-4
0.0019887334
0.0010157033
3.7609437E-4
-9.648976E-4
-7.845095E-4
0.0012679803
9.906132E-5
7.178922E-4
0.0031659924
0.0023699915
0.0016342549
6.868915E-4
-5.9660495E-4
4.1654377E-4
0.002145227
0.0021829295
2.9438533E-4
8.0595905E-4
0.0028670891
0.0016556431
6.09495E-4
2.2573821E-4
-0.0010374164
-0.001322083
-0.002280846
-0.0031998272
-0.0034079407
-0.003161392
-0.0017516211
-0.0017266683
-4.8538728E-4
0.0018246112
7.8844687E-4
7.86107E-4
0.0012539059
-0.0014041597
-0.003587686
-0.0031487446
-7.639857E-4
5.646061E-4
0.0015567144
0.0025269801
8.621387E-4
0.001556329
0.0020086023
-0.0015295763
-0.0011653766
4.3630894E-4
5.958156E-4
0.0027979647
0.0023665042
-3.6023473E-4
-0.0020576084
-0.0030625102
-0.0023161063
-0.0010527313
-6.2902685E-4
-6.9373637E-4
2.1209351E-5
0.0010407221
-2.0289516E-4
-0.0011970177
8.666386E-6
0.0011783071
0.003239475
0.005959595
0.0041178507
-0.0010629258
-0.0021026123
-9.143744E-4
-4.6259805E-4
0.0028525672
0.0052879397
0.0042065782
0.0038163902
0.0028644195
-5.9637206E-4
-0.0042091715
-0.0058651753
-0.0049530687
-0.002261231
-6.277789E-4
-0.0010425608
-9.730152E-4
-0.0017180424
-0.002818772
-0.0011473359
-6.719314E-4
-0.0017616953
-0.0011040324
-2.482752E-4
-0.0010084256
-0.0036085127
-0.0033980738
-1.7007366E-4
9.3670894E-4
0.002382022
0.003367206
0.0020656385
0.002030985
0.0018359884
0.0014266325
0.0019286176
0.0012620122
-2.8472312E-4
-0.0010009592
4.4392323E-4
0.0013436483
4.8753023E-4
0.0011071712
0.0022260717
0.0032539049
0.003588345
9.778977E-4
-0.0017082219
-0.001609306
2.2645333E-4
7.8475603E-4
-1.5958982E-4
-0.0010931395
-0.0026858847
-0.0015410265
0.0014711812
0.0011008973
-5.3146563E-4
-0.003268885
-0.0046697035
-0.0015538029
-3.416607E-4
-8.185106E-4
-7.059434E-4
-0.0021419965
-0.0017230137
-2.848212E-5
-1.4140592E-4
-0.0014278815
-0.003917204
-0.005021513
-0.0016873657
0.0035286332
0.0048538614
0.0030573143
0.002326088
0.002591912
0.005346616
0.005881215
3.9374293E-4
-8.7893015E-4
0.0013534235
-9.365803E-5
-6.4586295E-4
-2.3365697E-4
-0.0010721106
-6.8319286E-4
3.5894793E-4
5.786969E-4
8.015049E-4
0.0016057565
0.0012079108
-8.011097E-4
-0.0025627862
-0.003036338
-0.002520494
-0.0034185476
-0.004135336
-0.0017400817
-1.7084123E-4
-5.3215935E-4
-2.6014604E-4
-7.415862E-4
-7.958051E-4
0.0024419422
0.0040552625
7.4842304E-4
-5.267875E-4
0.0016611081
0.0016873005
5.620249E-4
7.5804366E-4
7.155569E-4
-5.172709E-4
-3.5944616E-4
0.0011947751
0.0011500999
0.0014756513
3.59886E-4
-0.0024741418
-5.926075E-4
4.7157612E-4
-0.0015473932
1.6183514E-4
0.0014623662
5.248571E-4
0.0012002503
0.00186989
-2.6076763E-5
-0.0019173239
-5.261731E-4
-0.0010153609
-0.0028588818
-7.462664E-4
-2.102982E-4
-0.0015306737
-0.0014891138
-0.0020506731
-0.0015160808
-4.5471825E-4
-4.012582E-5
0.0016831376
0.0043067117
0.0042528
-1.1711552E-4
-0.0025264602
-0.0017172538
-0.0020208533
-0.0015361306
-0.0011949604
-0.0010582347
0.001363698
0.0022261085
5.36057E-4
-1.22042984E-4
0.0017707344
0.0036464424
0.0037126213
0.0040551713
0.0028759197
0.0012201838
0.0012782882
-0.0018151726
-0.004805513
-0.00364901
-0.00220064
-8.96276E-5
2.37955E-4
-0.0019937416
-0.0012019614
7.233976E-4
0.0016030143
6.020636E-4
-0.0031253076
-0.0029814958
-3.5507756E-4
-0.0011262565
-0.0011182152
-3.8881192E-4
-4.863528E-4
7.513327E-4
5.456799E-4
-4.459211E-4
2.1852549E-4
3.38305E-4
7.585644E-4
0.0018601463
0.001702716
0.0017619528
0.001351526
-4.8587404E-4
-1.1427214E-4
1.7635868E-4
-0.0012578043
0.0015169963
0.003834126
9.652532E-4
-5.22766E-4
-0.0014030669
-0.0016928215
5.926666E-4
-5.1245326E-4
-0.0017772691
2.2255165E-6
-2.7590562E-4
8.966269E-4
0.003734745
0.0027855495
0.0010844242
5.5163115E-4
-8.96492E-4
-0.0018560017
-6.0216116E-4
6.779925E-4
-2.4230288E-4
-5.104045E-4
8.8632497E-4
1.4048531E-4
-0.0015472911
-0.0010215688
-6.470628E-4
-0.0025335753
-0.0039181774
-0.0017199697
-6.225748E-4
-0.0033986883
-0.0026376836
-2.7894066E-4
-0.0013297168
-4.2158983E-5
0.0012948147
6.311088E-5
1.8835533E-4
-5.556529E-4
-2.0965605E-4
0.001908453
0.0018912662
0.0024340912
0.0021578062
2.5369372E-4
5.623463E-4
0.001143005
0.0015747971
0.0025766755
0.003348032
0.0050095003
0.0047741947
0.0013728245
0.0010988647
0.0038187662
0.0015127241
-0.0038409508
-0.006259321
-0.00572011
-0.0024640772
-0.0023521392
-0.005187187
-0.0022603583
6.533628E-4
-3.9925432E-4
1.9957901E-4
8.7845756E-4
-2.7365455E-5
-0.0016120757
-0.001798341
-9.4940624E-4
-0.002007158
-0.0019948455
5.494766E-5
0.002763937
0.003460059
0.0011336368
0.0026153484
0.0028075576
-0.002267267
-0.0019524636
7.197631E-4
8.518259E-4
0.0015371947
7.3025655E-4
2.15562E-4
8.8628643E-4
5.9842074E-4
0.0012700143
0.0024717452
0.0011603272
-0.0020019882
-0.0027458298
-0.002466945
-0.0026798202
2.9863662E-4
0.002621134
0.0024432715
0.002496384
0.0013617487
0.0017404724
0.001781141
-0.0018870124
-0.0032907876
-0.0018277591
-3.4025067E-4
9.060928E-4
4.0968263E-4
-0.0010961399
-0.0026881015
-0.0040980806
-0.004660783
-0.003077812
6.024332E-4
0.0019587188
5.395162E-4
4.5230154E-5
0.0011735281
0.0015597534
-1.7679905E-4
0.0012599631
0.0064445734
0.007175424
0.0032350586
9.949662E-5
-0.0013602277
-0.0027321246
-0.0022696892
5.605026E-4
7.8673766E-4
1.7746886E-4
5.317973E-4
-0.0018026883
-0.0021501041
-3.5688744E-4
-0.001535536
-0.0024915044
-0.002455085
-0.0021060824
-0.0010310274
-7.97326E-4
-9.791167E-4
-0.0016466326
-9.3928335E-4
3.6523634E-4
-4.9719797E-4
0.0012270748
0.0035436263
0.0028654707
0.0028700002
9.008057E-5
-0.002752519
0.0015144873
0.0052485857
0.0044731796
0.0041152905
0.0032071897
-0.0013654602
-0.0060707578
-0.004250371
-7.586819E-4
-0.0029260567
-0.003388136
6.7274465E-4
0.0022630028
0.002256059
8.3631976E-4
-0.002311169
-9.338402E-4
0.001895858
0.0015910428
0.0026568102
0.0021912865
-0.002528503
-0.004589105
-0.0022874556
1.5021669E-4
-2.9450168E-5
-0.0015847856
-0.001012626
3.565112E-4
2.0666952E-4
5.20846E-4
0.001015339
-3.3208771E-4
-0.0010378812
2.4519238E-4
0.0014829728
0.0023049375
0.0016463886
4.6131056E-4
8.255521E-4
3.5723267E-4
-8.480669E-5
7.5629365E-4
9.6509315E-4
0.0012508741
8.87318E-4
7.0389407E-4
0.001337178
1.5470214E-4
-5.7695835E-4
-6.431845E-4
-0.0015344765
-0.0017687253
-0.0019934003
-0.0011927665
-9.299745E-4
-0.0020043845
-0.0016603103
-0.003266243
-0.0043344935
-0.002127637
-0.002208879
-0.0010566392
0.0031849314
0.004602296
0.0035582818
0.0035680288
0.0048161205
0.0029065951
-0.0010353798
-0.0027316133
-0.004307891
-0.0043564183
-0.0038233974
-0.0047237677
-0.0016841133
0.003452449
0.006480504
0.006300325
0.0032843454
0.0030622517
0.0036610907
0.0027212654
0.0029957478
0.0016333392
7.060043E-4
0.0022310822
0.0038956671
0.0054937424
0.0035284946
3.5209104E-4
-0.0012704203
-0.0047617466
-0.0057532075
-0.0041339323
-0.006720964
-0.01058613
-0.009983204
-0.0057298145
-0.0018682005
-5.437669E-4
-0.001031594
-6.784395E-4
-1.6151069E-4
-0.0037378415
-0.0071162293
-0.0068396986
-0.0073426245
-0.0056601358
-6.3783134E-4
0.0026265795
0.006329049
0.012064781
0.015127953
0.01421317
0.014264674
0.017574802
0.019698475
0.0165018
0.008250775
-0.0021592414
-0.012734531
-0.018895598
-0.017677722
-0.014191322
-0.00956551
-0.0069013494
-0.009356462
-0.007417754
-0.0013612219
0.0048622494
0.010964726
0.0066015753
-0.002126135
-0.0053736297
-0.010079761
-0.011200233
-0.0048437663
0.0011094372
0.00498304
0.007536774
0.008314503
0.0070629697
0.008673886
0.01268253
0.010134056
0.0050024195
0.0016757658
-9.458087E-4
-0.0010000317
-0.0030374932
-0.0058647473
-0.006707465
-0.009024492
-0.010353756
-0.01036555
-0.006465967
0.00106085
0.0025763093
0.002853874
0.006082415
0.006845685
0.008712919
0.01029605
0.0062894444
0.0012367115
-7.5383094E-4
-0.0021816634
-0.003512621
-9.6646993E-4
7.5747684E-4
-0.0029956216
-0.006788313
-0.00971046
-0.012044311
-0.013221078
-0.014103033
-0.009956872
-0.003621623
-0.0012126525
5.1473227E-4
0.0013973342
0.0026442437
0.007454979
0.009228369
0.005908152
0.004659758
0.0077792797
0.012500427
0.01744754
0.02199248
0.022914728
0.019303627
0.016522458
0.014499524
0.0029450827
-0.0178964
-0.03046998
-0.027390894
-0.019340374
-0.014250041
-0.010231249
-0.0034488374
-0.0011846524
-0.0093513
-0.013573649
-0.011553957
-0.01662987
-0.023335885
-0.024481123
-0.019929104
-0.008923933
0.0031542622
0.016800141
0.026414486
0.022075435
0.016004467
0.014946321
0.01602892
0.019124465
0.0100793755
-0.008129027
-0.014669991
-0.009181109
0.003388334
0.014125261
0.009705248
-0.0039709276
-0.012357005
-0.0118888095
-0.012555536
-0.020029189
-0.0236815
-0.017518533
-0.008632645
-0.001356668
0.00875664
0.018312838
0.018743103
0.015279023
0.013401987
0.01597949
0.024947837
0.032517437
0.03414572
0.030304318
0.025367938
0.019484213
0.009688899
0.0047129905
0.0025831272
-4.135584E-4
3.2586473E-4
-5.537773E-4
5.2475865E-4
0.0012782149
-0.009399858
-0.023163714
-0.029774291
-0.026736893
-0.023706906
-0.027497735
-0.027277
-0.017808016
-0.0041105193
-0.0022798546
-0.01661418
-0.030463947
-0.043241832
-0.05552641
-0.050634135
-0.024437038
-0.006011326
-0.014365982
-0.020318644
8.479968E-4
0.045533806
0.085715644
0.08307858
0.048345488
0.015745357
0.004004432
0.017403375
0.025793519
0.0048851296
-0.026472256
-0.03811473
-0.015034692
0.049603265
0.11996545
0.1312615
0.11309145
0.09346962
0.025460871
-0.048604805
-0.09866419
-0.15210183
-0.15020178
-0.090691544
-0.05051973
-0.033061486
0.0012480852
0.05528585
0.075318694
0.043784555
-0.0017979359
-0.041315425
-0.042797044
-0.0116002625
-0.009769843
-0.036760252
-0.041853804
-0.007747669
0.05618102
0.1070033
0.07769217
0.0054202992
-0.021612586
-0.012343873
0.014636655
0.008829494
-0.058538627
-0.06156077
0.0016884964
0.025134152
0.035674125
0.013476551
-0.08792527
-0.16329652
-0.103859775
-4.7164885E-4
0.008781632
0.0041955383
0.05654042
0.092134684
0.11439076
0.11597192
0.07622118
0.061474904
0.05090061
-0.009862464
-0.05386331
-0.03119276
0.001481329
0.0035728705
-0.005231206
-0.016114127
-0.022761695
-0.0052298773
0.02075793
0.0023642574
-0.04311677
-0.046854552
-0.03735207
-0.03151221
-0.0077327066
-0.016717302
-0.028273895
-0.009929701
-0.021415234
-0.047809992
-0.06708995
-0.04940569
0.018023035
0.06385298
0.099524654
0.10565407
0.07271005
0.11026807
0.11110359
-0.011364015
-0.07880515
-0.052444894
-0.0090846
-0.011678667
-0.08269464
-0.097522944
-0.05920838
-0.046028998
-0.0063154907
0.008181334
0.0028840904
0.050335508
0.04472365
0.019455686
0.03431876
-0.020988034
-0.067687616
-0.039313138
-0.02551514
-0.009172171
0.0075141266
-0.0047649643
-0.013792672
-0.005446222
0.008253197
0.026548786
0.101775184
0.1534361
0.06358241
-0.020410532
-0.021467539
-0.023629777
-0.02864141
-0.055237602
-0.07398038
-0.041796576
-0.007961342
0.028812146
0.055899214
0.036941696
0.0034076779
-0.008640665
-6.182626E-4
-0.013436883
-0.029762197
-0.012650939
-0.008775276
-0.007560166
0.02121574
0.032912966
0.018161003
-0.0065027974
-0.020477893
-0.0070261885
2.1382933E-5
-0.0031626443
0.010889673
0.025489718
0.02834126
0.021722091
0.0038670017
-0.0050274977
-8.727968E-4
-3.4210994E-4
-0.0054072426
-0.023135418
-0.04319774
-0.037893474
-0.014709171
0.010074425
0.027056597
0.016995532
-0.013075067
-0.028942978
-0.020409213
-0.005648598
-0.0017182912
-0.008151015
-0.012497987
-0.017971652
-0.0240262
-0.010825124
0.007278761
0.012900662
0.024493637
0.032792233
0.0230229
0.011481419
0.005445406
0.0068587717
0.009046872
0.0046554133
0.007905737
0.019746564
0.024249436
0.012695657
0.002166252
0.014778002
0.02194687
0.009434461
-3.8450197E-4
-0.019375639
-0.034930356
-0.028290482
-0.026572123
-0.01801917
0.004311045
0.0062054386
-0.0025924772
-0.0055437004
-0.01107873
-0.016604591
-0.018578999
-0.014047244
-0.007080528
-0.008604924
-0.011714027
-0.0035246955
0.013046078
0.02511562
0.021615354
0.002105547
-0.01163328
-0.0025024815
0.008062326
0.0075378693
0.010091471
0.0123258
0.007860472
0.0020065403
-0.0019513979
-0.0018823934
-8.6550624E-4
-0.00121693
-0.0017460618
-0.0022106038
-5.759129E-4
0.0015657806
0.0016382621
0.0014945653
0.0039064395
0.0061494983
0.0033277713
0.0014248386
0.0039285473
0.006028072
0.0074263187
0.0075117536
0.008392444
0.010483581
0.0074669104
0.0028303312
6.142001E-4
-0.0019227492
-0.0033269066
-0.0025931145
0.001528918
0.0061807525
0.004844187
0.0030340403
0.0011356589
-0.0054801283
-0.0047915196
0.0013917354
-6.0477556E-4
-0.003955622
-0.009617553
-0.02117016
-0.022361863
-0.014623989
-0.011933478
-0.011394585
-0.0084318835
-0.0051535033
-0.0043374603
-0.003663127
-0.0015912406
-0.0010545248
-4.8296124E-4
-7.567566E-4
-0.001041214
0.002138531
0.004453952
0.0076930313
0.012346344
0.012611882
0.012852909
0.015442722
0.016978368
0.01643284
0.014400966
0.012289811
0.008394801
0.0053477576
0.0047240034
0.0015796783
-0.0017512734
-0.0030194493
-0.0045001754
-0.007175266
-0.009614527
-0.007977099
-0.005793325
-0.00556776
-0.0052810074
-0.0070347628
-0.00856091
-0.0087871775
-0.007310049
-0.0035481784
-0.0039569107
-0.0045217224
-0.0020575507
-0.003712889
-0.0052816793
-0.0045045144
-0.005753964
-0.006697013
-0.006604458
-0.00670727
-0.0059381155
-0.0041704816
-0.0030535078
-0.0016521793
7.0406933E-4
9.4147725E-4
0.0021045082
0.005859542
0.006689369
0.0055739973
0.0053823343
0.0047054864
0.0034616156
0.0049730693
0.008295202
0.0068659256
0.004532447
0.007000416
0.009413522
0.00933072
0.00778447
0.006265831
0.0045904866
0.0022588132
0.002097692
0.0011997918
-0.0014958279
-0.0024535502
-0.0051513836
-0.009811478
-0.011104388
-0.008886852
-0.0073217414
-0.0071661696
-0.00587635
-0.0056510703
-0.0054744217
-0.0025059406
-0.0021497046
-0.0029726764
-5.95617E-4
-7.773005E-4
-0.00391231
-0.0039432417
-0.002166554
-0.0025242264
-0.0012156797
0.0037025341
0.004148252
7.343834E-4
2.8291286E-4
-4.9046904E-4
-7.327205E-4
0.0014446474
6.4207066E-4
3.0368887E-4
0.0021955415
3.015197E-4
-0.0014002172
3.7208674E-4
0.0015396217
0.0023460246
0.0019986597
-0.0013955323
-0.0036928204
-0.0026101572
-9.487007E-4
-4.9207214E-4
-9.27251E-4
4.934475E-4
0.003341202
0.0034157878
0.0036981336
0.0050114933
0.00321998
0.0012963264
-0.0011073501
-0.0029570875
9.1577077E-4
0.0028814713
2.496359E-4
-4.2456453E-4
-4.7856968E-4
-8.212003E-4
-0.0012965078
-0.001283403
4.9251685E-4
-5.019732E-4
-0.004472419
-0.005281489
-0.0017970576
3.1272077E-4
5.403991E-4
0.0036315715
0.004307238
0.0013119575
0.0016508617
0.0020376444
6.825316E-4
0.0016971633
0.003969228
0.003865462
0.0015883975
0.0017035098
0.0034969756
0.0034466449
0.001774384
2.0912946E-4
5.885993E-4
2.4815585E-4
-4.1397016E-5
0.0017049204
5.98011E-4
-0.0024802126
-0.004103315
-0.0028627529
-0.0010311044
-0.0038388006
-0.0058318153
-0.005240071
-0.0048012617
-0.0019559667
-0.0011926063
-9.924163E-4
0.0013806699
7.6672435E-4
7.636029E-4
0.0020453404
0.0022342333
0.0028407467
0.0013945039
-2.4047497E-4
0.0010469775
0.0027520098
0.001259035
-0.0023515127
-0.0019762889
0.0013016347
0.0018808394
-4.8676727E-4
-0.0017631525
3.3920603E-6
0.0016625773
0.0034735561
0.0050378693
0.0039190105
0.0017089327
-0.0011855502
-0.0012773257
0.0016109884
0.0016937607
-3.883527E-4
-0.0022860256
-5.009639E-4
0.0031601398
0.0030780823
0.0022820854
-0.0010834957
-0.0055295667
-0.0026906016
0.0018137407
0.0015293272
-9.4892393E-4
-0.0016604
-0.0012802348
-0.002619036
-0.0013859267
0.0012435892
-2.4161773E-4
-0.0023946613
-0.0022607844
-0.0014057516
-0.0011206385
-1.9636285E-4
-7.27704E-4
-0.0027422947
1.0465082E-4
0.0024009547
0.0016129627
0.0031232217
0.0023426916
7.765771E-4
-4.4279537E-4
-0.0032627326
-0.0024182608
-0.0014350552
-2.3756799E-4
0.0029770143
5.4025656E-4
-0.0040256544
-0.004505581
-0.0011279222
0.0017975793
4.7065853E-4
0.0015205133
0.002383877
-0.002045736
-0.0036364915
-9.782151E-4
0.0026378843
0.004544737
0.0038418067
0.0033112876
5.487595E-4
-0.0019368298
-0.0010323434
-8.212324E-4
0.0010113256
0.0038567362
0.0021926812
-3.9516398E-4
0.0017310468
0.005167918
0.0047589163
0.005098451
0.005339936
-9.051024E-4
-0.0054894146
-0.004501129
-0.0046830783
-0.0053719454
-0.005049507
-0.0050679874
-0.0051131053
-0.0030569225
1.0168755E-4
-7.079719E-4
-0.0028681408
-0.002799789
-0.0033604526
-0.0037255785
-0.0033028463
-0.0030413612
-8.888959E-4
0.0020344618
0.002427513
0.001570803
0.0027304508
0.0036924349
0.0013198621
-6.199869E-4
0.0011589661
0.0034753166
0.0034002082
0.0025176143
0.001995191
0.0016553227
0.002363235
0.0027794084
0.0023942357
0.0015724619
-6.8358163E-4
-5.777498E-4
0.0013587077
-1.9709762E-4
-0.002237182
-0.002819182
-0.002377462
-3.519112E-4
-1.4809751E-5
9.2891464E-4
0.0032880302
0.0010328138
-0.0019949737
-0.0015172338
-0.0016680423
-0.0020297468
-0.0017764501
-0.0029436671
-0.0030740066
-0.0017918965
-0.00215359
-0.0016784272
6.042719E-5
-6.054582E-4
-6.2325806E-4
7.6766335E-4
3.243452E-5
-8.3161384E-4
-0.0017102236
-0.0020288436
0.0014714492
0.0048018056
0.0038123236
0.0012203892
0.0016685928
0.0030122986
8.580549E-4
7.552141E-4
0.0025107528
7.3934096E-4
0.0012227597
0.0036857892
0.0026502516
3.1163642E-4
-9.419675E-4
-3.050942E-4
-9.3636656E-4
-0.002636385
-0.0012083977
8.564884E-4
0.0031786177
0.0045147208
0.003079681
0.0025499542
8.6191983E-4
-0.0017997578
-0.003759497
-0.005981294
-0.003950572
-0.0013425476
-8.1217696E-4
0.0012711501
4.7095236E-5
-0.0015565257
-6.1397284E-4
-0.0028490396
-0.0048379647
-0.004636474
-0.004784227
-0.005427516
-0.004751434
-8.5495214E-4
-8.46917E-5
-0.0014232724
0.0015604785
0.0037836393
0.0045456635
0.003953392
0.0016351169
0.003188677
0.0030321057
-9.103599E-4
-5.261818E-4
0.0021901494
0.0042299232
0.0062403665
0.007242746
0.006375271
0.0031998723
2.4234588E-4
-0.0012193806
-0.0012363952
-0.0010125636
-0.0030329167
-0.0038616874
-0.0033041257
-0.003521789
-0.0019731333
-7.335583E-4
6.887876E-5
-2.9118164E-4
-0.0038696695
-0.0033632834
-0.0011411194
-0.0020904953
-0.0011640575
-0.0030613183
-0.0059310487
-0.00158257
8.4102276E-4
-7.210692E-4
9.137235E-4
7.5050065E-4
-0.0013593333
5.7669455E-4
0.0017794869
7.10983E-4
0.0015768039
0.0010602768
1.2498151E-4
0.0017755878
0.0021910353
0.0021252697
0.0025932183
0.002983133
0.0030702683
4.0834557E-4
-3.4249903E-4
0.002735032
0.0036125083
0.0011148092
-0.0017381753
-6.7853695E-4
0.0011091682
1.3536266E-4
7.252898E-4
-3.3800115E-4
-0.003163403
-0.0027047952
-0.0018440997
-8.6036255E-4
-3.77902E-4
-0.0015997231
-0.0020068497
-0.002298961
-0.002188697
-0.0014738028
-0.0012441069
-0.001691299
-0.0018199746
-1.3171554E-5
2.641229E-4
2.1991252E-4
0.0016011985
-2.8854466E-4
-7.465203E-4
0.001603591
0.0014514433
4.1708504E-4
-0.0013694685
-0.0019562126
-5.8031967E-4
-6.9843604E-6
8.998722E-4
5.758265E-4
4.4286437E-4
0.0021559596
0.0029486232
0.0044736187
0.0052388944
0.003619703
0.0014231474
-0.0013315582
-0.0025031408
-0.0013123421
0.002173357
0.0039853076
0.0016778216
0.0016903685
1.4869423E-4
-0.0033264311
-6.7091646E-4
1.1633869E-4
-0.0017786577
-0.0011892256
-0.002976188
-0.0035584038
-0.0038048944
-0.005751994
-0.0018680029
0.0017643771
-7.4919E-5
-4.18197E-4
2.0389866E-4
-9.0786343E-4
-0.0010117257
2.9091313E-4
-1.2831096E-4
-0.0012124111
9.50588E-5
0.001878294
0.0030040992
0.0034853464
0.0027139706
0.0021917126
0.0019246886
4.2591305E-4
-0.002104745
-0.002600459
-7.516813E-4
5.017885E-4
0.0022675642
0.0021806213
-5.2801427E-4
-5.9491314E-4
-6.431972E-4
-6.243637E-4
0.0010008151
-2.781746E-4
-0.0012948841
-8.473563E-4
3.1394398E-4
0.0036744736
0.0032020519
5.0480786E-4
-2.6407117E-6
-0.0020725592
-0.0035946472
-0.002125947
1.6689884E-4
4.8070165E-4
-0.0017556369
-0.002076219
-9.190966E-4
1.5729298E-4
0.0025584332
0.0024782831
-3.4253026E-4
-0.0017778703
-0.002355759
-0.0025961837
-0.0017591536
-0.001269795
-7.3575997E-4
0.0017316217
0.0032826941
0.0024900923
0.0019447316
0.0017173366
0.0018265842
6.1964535E-4
-0.0014093014
-5.838284E-4
-7.557055E-4
-0.0018005378
-1.0006809E-4
4.8715745E-5
-3.4792454E-4
8.679502E-4
3.7540885E-4
-9.946363E-4
-0.0013758629
-3.441266E-4
5.3710246E-4
-5.205112E-4
-0.0013899163
-0.0018084289
-0.0016281315
5.113977E-4
0.0013858736
2.9064293E-4
0.0018806672
0.004660697
0.0017813973
-0.0034702856
-0.0027503555
-5.961521E-5
-2.0929005E-5
0.0011624786
0.0016841717
-2.9864142E-4
-1.185369E-5
7.7120314E-4
-0.00111863
-9.753228E-4
0.001397831
0.0011801425
-7.440049E-4
-0.0020574962
-0.0023564594
-0.001468966
-0.0016438836
-0.0024789767
-9.432247E-4
7.2588696E-4
0.0014974973
0.0027474272
0.0022970065
0.0015078331
0.0024821826
0.0026896286
0.0012466366
-9.867352E-4
-0.0014483178
2.5462013E-4
-5.9739203E-4
-0.003155427
-0.0022953795
6.4674584E-4
0.0014989701
0.0019135437
0.0027711226
2.4051627E-4
-0.0016394634
-3.39323E-4
-9.3468925E-4
-9.968842E-4
-1.9045125E-5
6.110084E-5
8.1942714E-4
-6.584552E-4
-2.6998093E-4
0.0031998577
7.9020066E-4
-0.0015970182
0.0016445955
0.0025216904
8.8276465E-5
-0.0011297687
1.8850525E-4
0.0022838153
0.0031237502
0.002565245
0.0011739699
0.0014513247
0.0015605676
-0.0021974319
-0.0058958237
-0.006278863
-0.0046587996
-0.003143471
-0.0021533272
-1.0259428E-4
6.4909305E-5
-0.002133011
-0.0026128083
-0.003091201
-0.003069053
-0.0015375722
-0.0017289275
-7.608706E-4
9.673045E-4
9.128497E-5
9.652746E-5
9.753086E-4
0.002997404
0.0059287325
0.005121816
0.0042850394
0.0043757316
0.0019609993
0.0021245736
0.0048569213
0.006224206
0.006007911
0.0034741785
0.0019741529
0.0025785419
0.0021063199
3.3846608E-4
-0.0033559406
-0.0065572956
-0.0057486617
-0.0041721496
-0.003981406
-0.0018841181
3.821348E-4
-0.003976987
-0.009699332
-0.007608606
-0.0036865168
-0.0024959997
-9.923409E-4
-3.1920208E-4
3.8781473E-6
3.8085287E-4
-6.152427E-5
6.487625E-4
2.1270977E-4
-0.0015003304
-2.3351093E-4
0.0017873571
0.0028112575
0.002864797
0.0014038546
0.0028123518
0.005176284
0.0033819643
0.0013623995
5.645005E-4
6.405734E-4
0.0019850598
0.0012194642
5.314801E-4
0.0013934278
0.0011881427
0.0016024298
0.0015126655
5.478918E-4
5.045226E-4
-8.895042E-4
-0.002139091
-0.0016428225
-0.0015505061
-6.937367E-4
0.0018364599
0.002283712
-0.0010221873
-0.0028041054
-0.0015305463
1.2007076E-4
0.0019303823
-5.308229E-4
-0.005252538
-0.005215683
-0.0047801365
-0.0038792954
-9.606532E-5
0.0012407125
7.4795267E-4
2.9771036E-4
5.4030586E-4
0.0018779162
0.0019114941
0.0026011888
0.0020793045
-7.1197987E-4
3.6436238E-4
0.002272956
0.0022623858
0.0027069938
0.002123359
0.0016488418
-5.189753E-4
-0.003134328
-5.4498424E-4
2.1716396E-4
-0.0020487579
-6.3786894E-4
2.257555E-5
-9.686756E-4
-5.427067E-4
2.024882E-4
-2.0335309E-4
-0.0027590971
-0.0027175099
-9.970402E-4
-0.0016017287
-1.2308978E-4
-9.274578E-5
-0.0014062091
0.0012189163
0.0013088528
5.692936E-4
0.0014534326
3.5955905E-4
3.6749116E-4
-1.378125E-4
0.0012325395
0.0051670307
0.0038272035
0.0022281804
0.0026502842
0.001448991
1.9478709E-4
-0.0017274598
-0.0014443711
-9.284926E-4
-0.0027502284
-0.0014362439
-3.446969E-5
-4.9172016E-4
-6.5090146E-4
-0.0021366752
-0.0020897966
3.026071E-5
7.478935E-4
-0.0012777216
-0.0035445073
-0.0021288416
4.5180364E-5
-4.68396E-4
-0.0013746852
0.0011901947
0.004860705
0.0040233694
0.0025839019
0.0023201255
5.7728897E-4
-8.810924E-4
-0.0020905135
-0.0010507399
-6.154604E-4
-0.0045706667
-0.0050149383
-0.0022119065
-9.828684E-4
2.3050023E-4
5.9313816E-4
7.004852E-4
2.748696E-4
-9.834453E-4
-0.0014679268
-0.001331269
2.7873152E-4
0.0016037062
0.0014706288
3.514259E-4
-6.71351E-4
0.0010457447
0.0015671565
0.0015566391
0.004430698
0.0057293354
0.0070467982
0.008094798
0.005371815
0.0021470606
-5.56455E-4
-0.0030078085
-0.006611218
-0.00789239
-0.003432089
-0.0021077706
-0.0032147113
-0.0030288084
-0.0049227364
-0.004073075
-0.0016335095
1.7412839E-4
0.0020505283
-0.0014875588
-0.003624114
-6.5781194E-4
8.954947E-5
2.6837754E-4
-0.0010556161
-0.0023380113
0.001338527
0.003334893
0.00254185
0.0026448006
0.0019187501
0.001863959
0.0024256273
0.0026660592
0.0036775942