0.001024878
-6.5990334E-4
-8.900398E-4
-9.152748E-4
-2.6915825E-4
-1.77606E-4
-1.8110588E-4
0.0036487698
0.004865439
0.001397015
-0.0022290365
-0.005825354
-0.004888351
-0.002536615
-0.0028915806
2.627731E-4
0.0032933326
0.0022340158
9.303475E-4
0.0011628459
0.002886936
0.001666867
-4.2727217E-4
0.0011568712
0.0025369509
0.0034487157
0.0038188968
0.0030354646
0.0015151094
-0.0015919118
-0.0013623005
-8.757911E-4
-0.005297723
-0.0059167235
-0.0019210593
-5.873882E-4
-0.0010835287
-0.0010647428
-0.0019080627
-0.0024562934
2.6858906E-4
6.749474E-4
-0.0033853087
-0.00426519
-0.0019079269
-7.689099E-5
1.4248756E-5
-5.869576E-4
5.520145E-4
0.0011049982
0.0014582137
0.003108219
0.0041978313
0.0044245417
0.0031753397
0.0032383278
0.0036848537
0.0015643614
0.0018520034
0.0019646676
-9.1063564E-5
4.668152E-4
3.6175232E-4
-7.6478766E-4
-9.911276E-4
-6.13558E-4
0.0016053772
3.4146936E-4
-0.0049754693
-0.0062194904
-0.00323172
-0.0010992709
-7.2909484E-4
-6.9836096E-4
-5.895148E-4
-1.9989846E-5
2.832367E-4
2.1012244E-4
4.98263E-4
-0.0012672709
-0.0023082725
-3.3793185E-4
-9.6814554E-5
1.9007508E-4
1.2295273E-5
-0.0022763489
-8.2947087E-4
0.0011652374
0.0012387322
0.0024677226
7.1328157E-4
-0.0011738767
0.0011194363
0.001404355
2.5333642E-5
0.001165645
0.0011085552
-5.5057387E-4
-8.1713364E-4
-0.001820648
-0.0017842131
4.8763223E-4
-1.5593274E-4
-3.677019E-4
0.0025882323
0.0040187235
0.0043561016
0.0029891236
5.167865E-4
5.928819E-4
9.645594E-5
-0.0014763226
-0.0012082538
-3.9282223E-4
5.9179263E-4
7.734404E-4
-0.0017289575
-0.0027453585
1.1041386E-5
-3.4520662E-4
-0.0028520438
-7.5697433E-4
0.0010913253
0.0011088826
8.8527927E-4
-0.0023189993
-0.002028755
0.0015200496
9.823269E-4
9.403036E-4
0.0015117447
-1.6528077E-4
-0.0011525147
-0.0017046608
-0.0016792234
-0.0031331899
-0.0062109074
-0.005040253
-0.0014297885
9.539934E-4
0.002306775
0.0020781737
0.0018925951
5.515579E-4
-0.00311271
-0.0042433785
-0.0016629344
0.0010977958
0.00266396
0.002906672
0.0020472282
0.0017612439
0.0021900216
0.0026785336
0.004742719
0.0070068077
0.00829935
0.009339859
0.0064238436
0.0017574575
4.2831886E-4
-0.0012153833
-0.0034478959
-0.004480669
-0.0060955873
-0.007300657
-0.00770606
-0.00724413
-0.005920578
-0.004187544
-0.0012726581
-4.3574986E-5
-0.001370443
-0.002503288
-0.0029710254
-0.0024618574
-0.0013706567
2.1833675E-4
5.662638E-4
-4.6469382E-4
0.0012886937
0.0032244604
0.004359262
0.006312993
0.005570659
0.0050571137
0.0055076457
0.0046633696
0.004054229
0.001232148
2.02958E-4
0.0016839653
-5.2372797E-4
-0.0015982722
-0.0027533257
-0.0060143266
-0.004218476
-0.0014172243
-0.0018147341
-0.0028938118
-0.003997655
-0.0030569376
-0.0016569535
-9.484181E-4
0.0013088395
0.0027987424
0.0012968096
-4.723395E-4
-2.4144683E-4
-3.2656893E-4
-4.6776983E-4
0.0013323631
0.0020081932
0.002257032
0.0027575574
1.6832417E-4
-0.0013819457
7.447216E-4
0.0014699487
4.5118727E-6
1.8838204E-4
0.002402962
0.0026814505
5.8973057E-4
-7.2952243E-4
-0.0015691421
-0.0031102274
-0.0039251656
-0.0024325745
-3.4800204E-4
7.271628E-4
0.0014292737
-5.475936E-4
-0.002746315
2.787743E-4
0.002113882
-9.910143E-4
-0.0023441436
-7.8844733E-4
0.0013053016
0.0031519115
0.0028969261
-4.409122E-4
-0.0036008882
-0.0020675028
0.0010248944
0.0014412827
0.0017543611
0.0025193177
0.0025957555
0.0021346167
4.50274E-4
-0.0010156492
-0.0014076794
-0.0018923521
-0.0019996269
-0.0015929333
-0.0016978127
-0.0013862205
-7.3579045E-5
-1.1336217E-4
-5.5725704E-4
4.841205E-4
6.3709926E-4
-2.6960846E-5
-9.807982E-4
-0.0014881673
-1.8791437E-4
-2.0953086E-4
3.9613896E-4
0.0026951646
0.0018664745
0.0012412971
0.0022196348
0.0023020045
0.0018976921
1.5753294E-4
0.0014867325
0.004025631
8.613805E-4
-0.0023160467
-0.003175843
-0.0032107227
-0.001262589
-0.0011366647
-0.0015318781
-5.468454E-4
-0.0011853185
-0.0021182518
-0.0024953512
-0.0025202276
-0.0013825826
-1.2718329E-4
-2.07669E-5
-4.833817E-5
0.0010416406
4.2464532E-4
-3.1106564E-4
0.0013589173
-2.3111045E-4
-0.0020010683
9.7331876E-4
0.002504163
0.0025734112
0.0044351113
0.0050416635
0.002425262
-1.08848966E-4
-9.3914644E-4
-0.00375447
-0.004421299
-1.060802E-4
0.0018487467
0.0017684302
0.0018172781
0.0020843854
0.0028496664
0.001162337
3.4343122E-4
-7.9756416E-4
-0.0034728362
-0.0019257134
-0.0031719205
-0.005327557
-8.11438E-4
6.411235E-4
4.3980076E-4
0.0022580968
3.4809977E-4
-0.0013452613
-0.001267142
-6.9100375E-4
5.215675E-4
1.6193703E-4
3.0985216E-4
8.852632E-6
-0.0019688709
-0.0024993434
-0.0022891639
-0.0022748774
-0.0019673388
2.4532848E-5
0.0029443074
0.003302954
0.00280355
0.0027349268
0.001910806
0.001064795
5.8643287E-4
0.0017555892
0.00344115
0.0032583885
0.0012041274
-0.0022651833
-0.0024732854
5.728904E-4
-3.2018436E-4
-0.0022951402
3.525842E-6
0.0026659863
0.0028698442
0.002007178
0.001528356
3.7571872E-4
-0.0033106785
-0.005221615
-0.003701076
-0.0051675146
-0.00678687
-0.003110437
-0.0012428898
-0.0020861607
-6.3037645E-5
0.0014464206
0.0018115608
0.002464252
0.0013267125
0.001218878
0.0024147567
0.0025999418
0.003108659
0.001936266
-3.3139394E-4
3.910336E-4
0.00170477
0.0021763805
0.0035401827
0.0029624922
1.0007645E-4
-3.7257775E-4
-4.6323205E-4
-0.0030924405
-0.0037106643
-0.0035467357
-0.0047081946
-0.002221468
4.3948682E-4
1.05370666E-4
0.0017561059
0.0022119754
-9.7315706E-4
-0.001686573
1.3257671E-4
-3.5325208E-4
-0.00145836
4.5758125E-4
0.0020261642
6.274831E-4
-0.0010794078
-4.3133055E-5
0.004140291
0.0049468586
0.0011245145
-8.9620746E-4
-0.0018437961
-0.0018365881
-5.5214984E-4
-3.3813104E-4
7.6616925E-5
-0.0016504821
-0.0034054827
-0.0012250578
-5.7377695E-4
-2.610117E-4
0.0018802806
0.0019352826
0.0021968214
0.0032579664
5.7091814E-4
-0.0040579573
-0.0026804474
0.0019231674
5.550282E-4
-6.249852E-4
0.0016203775
2.4772144E-4
-7.926109E-4
0.0010527249
4.1890808E-4
-0.0019174938
-0.0015717243
-4.973166E-4
-0.003199958
-0.0040992294
-5.382683E-4
0.0010338484
0.0019302972
0.002310692
9.308454E-4
0.0016708659
0.0013825796
-5.3310936E-4
-1.00838595E-4
8.177377E-4
0.0014556686
0.0016254985
0.0012196264
6.5420277E-4
-7.858218E-4
-9.875706E-4
-1.0535515E-4
5.644562E-4
9.5127587E-4
-9.645432E-5
4.546135E-5
3.1906302E-4
-0.0017346874
-7.509572E-4
0.0021232325
0.0013023684
-7.816636E-4
-0.0022271133
-0.0038389727
-0.003390355
-7.971357E-4
-3.428048E-4
-3.125856E-4
0.0014754843
6.38758E-5
-0.001077815
5.237598E-4
-0.001380961
-0.0019036342
2.2485302E-4
-8.8669144E-4
-8.422329E-4
-1.9939459E-4
-8.4865687E-4
3.8664078E-4
1.4845497E-4
-6.753584E-4
0.0016883075
0.0047085145
0.0048147338
0.0013849934
5.9356174E-5
0.0016041927
0.0016506684
0.0026637064
0.0038926639
0.0030074248
0.0013353336
-0.0017470006
-0.0024998893
-0.0010317161
-0.0037389807
-0.005773731
-0.0023423121
2.7567602E-4
-6.706806E-5
-1.3531925E-4
7.131342E-4
7.8266364E-4
-0.0015426541
-0.0034153769
-0.0018905415
-5.961061E-4
-0.0014592744
-8.3264464E-4
0.0010983942
7.6298317E-4
2.838629E-4
0.0022549385
0.0024666805
7.1199283E-6
-0.0010423355
-0.0011615471
-0.0017711082
-0.0016817385
-6.780168E-4
2.9687805E-4
0.0014867957
0.003170335
0.0034659419
0.0030087
0.0023851488
-1.6323174E-4
-0.0018493689
-0.0011632482
1.6092254E-4
5.546998E-4
-3.9815262E-4
0.0018152301
0.003981326
0.0017426949
0.0020446428
0.0021451206
-0.0019978087
-0.0045830165
-0.005218887
-0.003938099
-0.0025270237
-0.002888478
-0.0015652278
-6.2231004E-4
2.6324217E-4
0.0017096297
-5.310071E-4
-0.0011943884
0.0014295523
9.859527E-4
-2.979793E-4
4.478527E-4
8.032319E-4
1.9054524E-4
0.0015270003
0.004534609
0.0034435105
6.1776786E-4
0.0016891918
0.0021019555
0.0011074407
9.2107925E-4
-0.0019077451
-0.004116918
-0.0031565449
-0.0022750413
-9.3623507E-4
-0.0018717351
-0.00398514
-0.0018748093
-9.232048E-5
-7.0432934E-4
-0.0010126189
-0.0010525452
-9.906658E-4
-0.0012584116
7.8599516E-4
0.003485363
0.0041862805
0.005859837
0.0044836965
0.0012105512
0.002024879
0.0016719579
-0.001127524
-0.003305752
-0.0040446767
-0.0015308558
0.0016374154
0.0020422216
6.985107E-4
8.2662207E-4
0.0016006129
0.0011002374
0.0010845022
-2.2094646E-4
-0.0022145254
-0.002000693
-0.0010769947
-6.3823257E-4
-0.002365972
-0.0031562336
-0.001422976
-0.0019881183
-0.002973674
-0.002228846
2.3007233E-4
0.0016314401
-8.357813E-4
-1.1375677E-4
0.0031288876
0.004649928
0.0041692243
-1.4540085E-4
9.991582E-4
0.0047132266
4.906465E-4
-8.0705935E-4
0.0014538644
-5.311699E-5
-0.0013855494
-0.0021674172
-0.0019163227
-0.0012096614
-4.3079714E-4
0.0014805836
1.8242235E-5
-2.3366863E-4
0.0042908494
0.0035786028
-8.7695854E-4
-1.8071262E-4
4.25022E-4
-0.004325874
-0.0070636068
-0.004706364
-0.0047332286
-0.007310354
-0.004804014
6.45302E-4
0.0022862342
0.0025621776
0.0029738653
0.0037268698
0.009187951
0.012803537
0.008219938
0.001886223
-0.0042439057
-0.008889808
-0.008387245
-0.0062643834
-0.0056431363
-0.004844098
-0.0021023469
5.731438E-4
0.0016006578
0.0029768813
0.004542507
0.006263618
0.0069295582
0.0038685573
6.336925E-4
9.745642E-4
0.0035567519
0.0048112944
0.0029448462
8.9011056E-4
-1.6828533E-4
-7.436533E-4
6.284837E-4
0.0018936342
7.0003484E-4
-1.774413E-4
-5.845483E-4
-0.0022560353
-6.822674E-4
0.0031835549
0.0012028449
-0.0040693423
-0.0051086973
-0.0010476168
0.001874264
-0.0038228205
-0.012375838
-0.016007017
-0.015718775
-0.010561226
-0.0041625192
-1.4599181E-4
0.004336346
0.0064918012
0.0074171545
0.010347963
0.0092158485
0.0034323602
-0.0015455879
-0.0028912001
-9.6198847E-4
0.0015252901
0.0046037985
0.005600128
0.0038969018
0.0044854637
0.0034057188
0.0013705118
0.005329112
0.007394628
0.0018927566
-0.005766431
-0.01028216
-0.0066065616
0.0014703663
0.0049246056
0.0039459215
0.0046351687
0.007951786
0.0075585437
7.1036915E-4
-0.008317456
-0.013663946
-0.011742692
-0.0060025337
-6.9597317E-4
0.0027775487
0.0025073416
0.0018998188
0.005956145
0.00982376
0.0062159193
-5.835064E-4
-0.005061429
-0.0100697
-0.01125273
-0.0055948677
-0.0034618909
-0.0054266793
-0.0054806815
-0.0054733963
-0.004040056
-0.0010677087
6.692443E-4
0.0025940516
0.002840025
0.0011905925
0.0018241901
0.0028338535
0.0015306884
7.299331E-4
0.0038865206
0.007927948
0.0065238504
0.0044886637
0.006645148
0.005671389
0.0012186122
-1.563888E-4
0.0025615576
0.0049340264
4.286561E-4
-0.0054439926
-0.005610298
-0.004945977
-0.0041672727
-0.003974856
-0.002823231
0.003624239
0.0038230096
-0.004151698
-0.0080798995
-0.009186676
-0.009479477
-0.009911472
-0.010286897
-0.0040850486
0.003668723
0.007612281
0.011283453
0.013627023
0.012462932
0.006553723
-6.8216416E-4
-0.0050100912
-0.007560029
-0.0073832283
-0.0067156227
-0.0035632541
0.007522865
0.0148361325
0.011442614
0.005124954
-0.0015074972
-0.0070791114
-0.010307436
-0.008375617
7.555379E-4
0.0054551004
3.630228E-4
-0.001467922
0.0021026363
5.681262E-4
-0.002862534
-0.0027556065
-0.0048322366
-0.008428533
-0.013405233
-0.020771869
-0.016541457
-0.0017319527
0.0034093629
1.9184138E-4
0.0012574113
0.0048201443
0.0053135836
0.0054351557
0.009801959
0.012649646
0.008788351
0.0066352193
0.005658741
-0.0032965583
-0.007286926
0.0013756836
0.0065603987
0.0067575057
0.007905221
0.008528523
0.009745658
0.012124597
0.022172958
0.034652635
0.033909246
0.020361127
-0.0012927514
-0.02117556
-0.03670117
-0.04867038
-0.03908933
-0.011618368
0.016940778
0.030989341
0.011605718
-0.011570959
-0.007995222
0.005063501
0.020242983
0.042776845
0.07061154
0.08721391
0.079321824
0.06317857
0.04451942
0.025924135
0.008274798
-0.056491252
-0.17417014
-0.27244776
-0.32175225
-0.30845973
-0.20826545
-0.08471353
0.008889908
0.10078939
0.17009045
0.18653554
0.17045715
0.13665272
0.08987741
0.026311124
-0.019114537
-0.02455002
-0.024472786
0.007617398
0.07148896
0.11633288
0.14993201
0.18093865
0.24744911
0.2970125
0.17036858
-0.03988728
-0.1298465
-0.10565788
-0.0758855
-0.11551177
-0.18767114
-0.21723105
-0.20537692
-0.19421545
-0.22606483
-0.24259578
-0.12810339
0.074208096
0.20892218
0.24404052
0.22034445
0.08911281
-0.0698304
-0.102749445
-0.11494118
-0.14670502
-0.07762479
0.012596446
0.04677676
0.062067058
0.045058716
0.042851616
0.09451394
0.1019691
0.028374426
-0.016981285
-0.0015326906
-0.020412894
-0.043457273
0.017421814
0.08352905
0.13259198
0.18874127
0.13463576
0.023826791
0.0019262035
0.007870777
0.023060372
0.02999375
-0.049862165
-0.1487182
-0.2286262
-0.23659635
-0.08635962
0.015913293
-0.062427375
-0.12495875
-0.11613649
-0.0849799
0.022675658
0.128589
0.12145886
0.07253646
0.05520559
0.062109098
0.065428995
0.11043743
0.2495786
0.29059288
0.1379327
-0.059178904
-0.30888158
-0.45623207
-0.27094758
0.0012804986
0.14924443
0.2113514
0.1615988
0.057479735
-0.021261904
-0.09209704
-0.13644536
-0.11907183
-0.07306653
-0.054752838
-0.05508449
-0.047382146
-0.01645101
0.0756319
0.21702985
0.2794923
0.17336772
0.074320145
0.115620896
0.104873136
-0.041508738
-0.18615034
-0.26808447
-0.28560013
-0.23976177
-0.14826885
-0.048677925
0.03611834
0.10379503
0.12262534
0.074362494
-0.013285783
-0.070356525
-0.07456361
-0.048475787
0.029669216
0.118468575
0.20881036
0.30030495
0.29426822
0.26175103
0.1968114
-0.035296228
-0.23345469
-0.21841043
-0.119269684
-0.09366546
-0.12261824
-0.050531708
0.029883685
-0.02556681
-0.10089462
-0.16047938
-0.19425863
-0.14364845
-0.07657563
-0.019757599
0.058309376
0.14680712
0.22713453
0.2601883
0.20160002
0.07703344
-0.029204132
-0.09311471
-0.09741811
-0.038135998
-0.023651494
-0.05073749
-0.029710313
8.220633E-4
0.016846323
0.01816057
-0.0011422174
0.017564207
0.051035896
0.015248405
-0.07088591
-0.14345409
-0.15524858
-0.10687175
-0.05707653
-0.008947781
0.058358848
0.10767321
0.13233142
0.11891029
0.056325942
0.039504163
0.09203129
0.10850248
0.038423084
-0.051892836
-0.06418555
-0.027680116
-0.010260815
0.0024000008
-0.010667639
-0.049862407
-0.06860046
-0.055235177
-0.004858464
0.05042478
0.083787754
0.07924534
0.0045056986
-0.07972425
-0.10894656
-0.09334826
-0.045468446
-0.00906608
-0.009799761
-0.020423532
-0.025120912
-0.019642472
-0.008052149
0.0044126734
0.01002321
0.0034127121
0.004756308
0.009344979
-0.0067860894
-0.023175074
-0.015408404
0.0071948455
0.033672497
0.070455246
0.12601484
0.17247728
0.16423376
0.106004804
0.02265845
-0.066130124
-0.10492591
-0.07970019
-0.048049793
-0.026367936
-0.0053210515
-0.0058514997
-0.030833747
-0.04969407
-0.045098543
-0.03720593
-0.04002223
-0.040665608
-0.038777187
-0.037879556
-0.029918596
-0.017772589
-5.331007E-4
0.025506508
0.04046691
0.043637373
0.046724766
0.029226238
0.0074651022
0.013225263
0.01614925
0.0043295254
0.002117319
0.013135447
0.030287394
0.042140644
0.045252595
0.038325217
0.017844882
-0.006363919
-0.029698912
-0.045275673
-0.046472643
-0.038592838
-0.022550879
-0.009413453
-0.006124689
-0.0052097826
-0.009258395
-0.012800778
-0.00772346
-0.0027489532
-8.9173095E-4
0.00563807
0.012606515
0.00790273
0.0032212061
0.016717982
0.035435412
0.030742595
0.0023534026
-0.011500886
-5.4278853E-4
0.0026621867
-0.005731803
-0.0072064647
-0.0025378314
4.7285037E-4
0.0064275656
0.017220968
0.016379243
0.0015252506
-0.010699649
-0.007850324
0.010877005
0.018815776
-5.9603096E-4
-0.023536252
-0.031858813
-0.032341905
-0.030236607
-0.0147694815
0.009471161
0.021899996
0.024281047
0.013757469
-0.012401403
-0.02939249
-0.027236272
-0.013192751
0.00721009
0.024935361
0.031446215
0.019183807
-0.0045893188
-0.023426956
-0.030526755
-0.026654646
-0.01962765
-0.010432592
0.0016832635
0.010207846
0.02169235
0.036180295
0.038553864
0.034908827
0.027873954
2.0502809E-4
-0.019558059
0.0036249238
0.025313286
0.018189983
0.014849823
0.009449752
-0.003818235
0.0016606057
0.007386927
-0.011864185
-0.03103697
-0.031968664
-0.025761051
-0.018929541
-0.014673252
-0.017154597
-0.019865625
-0.0164642
-0.011597617
-0.0116177555
-0.013409651
-0.010746363
-0.006277923
4.075187E-4
0.008691884
0.011699083
0.015187918
0.019492311
0.016809557
0.013472285
0.0134643065
0.01459992
0.0151886875
0.013882242
0.013251995
0.01049122
0.004623707
9.099766E-4
-0.0010775233
-0.005523889
-0.012894997
-0.015507739
-0.012665704
-0.010047902
-0.004676549
-5.891714E-5
0.0030597881
0.009573654
0.0121223675
0.010445461
0.0072259065
0.002044433
-0.0020409978
-0.011552451
-0.019849375
-0.015682174
-0.012265095
-0.014475104
-0.014373665
-0.008571492
8.7725045E-4
0.006396964
0.011367495
0.016607773
0.011068624
-0.005546726
-0.023952963
-0.02917954
-0.016772192
-7.3180726E-4
0.013082446
0.022874404
0.028334834
0.032547776
0.017667105
-0.016192712
-0.023021616
0.0028682135
0.017937938
0.019961799
0.021560894
0.013211492
0.0050740195
-0.0070051625
-0.03755573
-0.052483644
-0.037307825
-0.021498935
-0.0100823855
0.0016838362
0.010846352
0.0169989
0.014375977
0.003964369
-0.009198438
-0.017103575
-0.004484816
0.015488611
0.021552693
0.02857314
0.039125264
0.032764763
0.013468158
-0.00486159
-0.013926841
-0.0153324045
-0.020436166
-0.019868825
-0.009639817
-0.006365697
-0.0059266156
-0.0035081066
-0.004937638
-0.00551008
-0.005951079
-0.0067204433
-0.004430368
-0.004395442
-0.006375161
-0.0065437313
-0.0048686066
-0.0013007101
0.00181589
0.00507114
0.008994615
0.010751384
0.011949433
0.013362786
0.012849724
0.010942056
0.0077113565
0.0023561188
-0.0025582472
-0.003479282
-0.003254104
-0.005420847
-0.006289912
-0.0059888903
-0.005953824
-0.0027673112
-0.0012436304
-0.0021643888
0.0012221797
0.0029432522
7.750159E-4
7.9771644E-4
0.0012881227
0.0019893064
0.002181734
-3.334123E-5
-9.2737493E-4
-7.068814E-4
-0.0010326216
-0.002071195
-0.0035078453
-0.0031822694
-0.0035214268
-0.0037937837
-0.0023995263
-0.00410247
-0.004823276
-0.0015326876
-4.4608075E-4
-2.062366E-4
0.0019740963
0.004219124
0.0044078194
0.0018780644
0.0014071498
0.003522695
0.0035838105
0.0033918158
0.0046265377
0.0053470763
0.0056310347
0.0044521717
2.3965877E-4
-0.0035227314
-0.0040653786
-0.004870697
-0.0062786555
-0.005045203
-0.0035009242
-0.0035230091
-0.0032773812
-0.0031613244
-0.0027774977
-6.9890654E-4
0.0017341189
0.003907953
0.0041612806
6.89131E-5
-0.002163937
0.0018268378
0.004507923
0.0032767204
0.0015917365
-1.4183703E-5
6.943712E-4
0.002164857
0.0015023319
0.0019955917
0.003208617
0.0024770098
8.5790304E-4
-1.8173702E-4
-2.5218496E-5
-0.0010692405
-0.0039522443
-0.0055925543
-0.0051463163
-0.0035994833
-0.0027841264
-0.0020597288
-3.5423358E-4
-8.5991534E-4
-0.0026819604
-0.0029785514
-0.002986739
-0.0019462786
0.0010601456
0.0032529167
0.002917371
0.0020992288
0.0022441675
0.0025575014
0.0026335511
0.0018524782
0.001261606
0.0022435624
0.004493113
0.008033594
0.010095383
0.008777742
0.0036313045
-0.0044653146
-0.0076501276
-0.006197885
-0.006086127
-0.0043474534
-0.0032623124
-0.004859237
-0.004704934
-0.00495925
-0.0053142225
-0.0029731763
-0.0014705964
-0.0031483662
-0.0059942054
-0.0071571013
-0.0075430633
-0.0069954535
-0.003999187
-0.003240601
-0.0031276068
0.0014116493
0.004070803
0.0033542495
0.004590066
0.0054328614
0.0056105503
0.008027398
0.009676983
0.010342802
0.0124172
0.013534949
0.013401018
0.011702025
0.0054367525
-5.166074E-4
-0.00126444
-0.0026538516
-0.0073907143
-0.009996682
-0.0076086046
-0.00329159
-0.0026250558
-0.0058266
-0.007532439
-0.006475594
-0.005270187
-0.0059268116
-0.007601046
-0.0082087405
-0.008799833
-0.007221818
-0.0028808017
-0.0018400077
-7.426298E-4
0.0028403117
0.0023533641
0.0017932097
0.004272238
0.005223351
0.005819221
0.0052721244
0.0037375754
0.0054657995
0.0076031154
0.00740874
0.0046772235
-2.3933491E-4
-0.001961294
-0.0013248867
-0.0022810884
-0.0017853301
-2.3878366E-4
0.0017707255
0.003649492
0.0012252807
-7.415296E-4
-8.0259466E-5
-3.2661014E-4
0.0018037619
0.0032992964
0.0014584977
0.0010587053
9.579636E-4
1.7423197E-4
-0.0010811555
-0.00232222
-0.0015822338
-0.0016734127
-0.0023491739
-0.002153765
-0.0024786047
-0.0019851283
-0.0016162453
-0.002087659
-0.0023247462
-0.0023707051
-0.0019162848
-0.0021293275
-0.0024157627
-0.0017775281
-7.3643797E-4
-3.6975977E-4
-0.0013440012
6.746784E-4
0.0036441055
0.003196433
0.0034245176
0.002678592
6.740944E-4
7.4691774E-4
2.4042792E-4
1.3745918E-4
-2.2197627E-4
-0.001771657
-7.9901004E-4
6.916324E-4
0.0010861544
0.0016057093
0.0023485415
0.002839754
0.0016474434
6.978328E-4
3.5500093E-4
-6.8282004E-4
-2.6954654E-5
0.0016350986
9.0262666E-4
-0.0017107053
-0.0017567786
9.9026074E-5
-5.167875E-4
-1.0145235E-4
0.002108856
0.0017341431
0.001189108
0.0018441272
0.0012577021
-6.276177E-4
-0.0012276976
-1.0099286E-4
-0.0017129123
-0.0042893155
-0.0030190304
-7.1392837E-4
5.4544007E-4
1.7362798E-6
-0.0019149903
-0.001004645
0.001139374
6.990278E-4
2.61753E-4
0.0014788383
0.0022431645
0.0025945667
0.0018722289
-9.3154056E-4
-0.0011317071
8.426396E-4
-7.6226116E-4
-0.001602604
0.0012139854
0.0012802491
-0.0010338249
-6.93518E-4
5.1727105E-4
7.251143E-4
0.002064177
0.0020511115
-0.0011136769
-0.0022980438
-0.0014396005
-0.0017223947
-0.0015040914
-8.044691E-4
-0.0010819224
-0.0016323687
-0.0017334982
-0.0017407648
-0.0013020738
5.241981E-4
0.0013082452
2.5699835E-4
0.0012591472
0.0029230458
0.001720828
8.9383405E-4
0.0016945174
0.0012604989
0.001539898
0.002695242
0.0018195049
0.0014266714
0.0017342083
7.1372313E-4
-1.800219E-5
-8.9912984E-4
-0.0013624602
5.2692555E-4
0.0026368655
0.0017363785
-0.0012212001
-0.0017480985
-7.0710166E-4
3.2611479E-6
0.0012339595
-5.689872E-4
-0.0039279996
-0.004176674
-0.002582795
-0.0011952133
-0.0018916442
-0.0015687353
6.943853E-4
1.9164964E-4
-1.463134E-4
8.106525E-4
0.00136519
0.0022030075
2.9903665E-4
-0.0012400222
1.7112658E-4
-3.7511752E-4
-9.777134E-4
0.0012351138
0.003062401
0.002896553
0.0017909599
3.9287837E-4
-1.2360579E-4
2.594681E-4
-5.537071E-4
-8.193228E-4
-1.9746074E-4
-6.992778E-6
0.0021687371
0.0032186585
0.0018919874
0.0016826325
2.8652203E-4
-0.0015069621
-0.0016203036
-0.0013573674
-0.001777217
-0.0032922716
-0.002441077
-3.436808E-4
5.375433E-4
0.0015283767
3.6643597E-4
3.2002467E-4
0.0027908501
0.002117173
-1.0587901E-5
-0.0010015295
-3.2321224E-4
6.234734E-4
5.241795E-4
0.0019560817
0.0015751478
-7.615766E-5
3.7303625E-4
-8.670892E-4
-0.001167135
2.0582778E-4
-2.0349243E-4
-7.489834E-4
-0.0018044695
-0.0022032398
-0.0027013577
-0.0033858302
-8.750122E-4
-6.3671125E-4
-0.0015217854
5.8684585E-4
3.548254E-4
5.836459E-4
0.001149019
-4.5451504E-4
9.498133E-4
0.0018206873
0.0018074599
0.0035167676
0.0032513263
0.0042790007
0.004680001
0.001671612
0.0010738865
9.062471E-4
-2.565722E-4
-8.4950397E-4
-0.0011097591
8.764252E-4
0.001364783
-0.0015172737
-0.0036948666
-0.0033084056
-0.0010997393
-1.1056285E-4
7.5895176E-4
7.534032E-4
-0.0015560263
-0.0010884474
-0.0014959365
-0.0033552551
-0.0018992823
-0.0033601057
-0.004233716
-6.957069E-4
-0.0011117478
-0.0021829747
-2.0432116E-4
5.462763E-4
8.0306985E-4
0.0013539665
0.0017223286
0.0018806178
0.001196928
0.0011575847
0.0028293398
0.0029422378
3.7406333E-4
-0.0013155033
-0.0021045017
-8.9624524E-4
0.0024531153
0.002583254
0.0028501125
0.0062659993
0.009083661
0.011756351
0.010923048
0.0054105176
-3.816184E-5
-0.0053081685
-0.009216055
-0.010371653
-0.00940085
-0.007453782
-0.005521842
-0.0031898008
-0.003140775
-0.0030357908
-0.001041538
-0.0023611055
-0.002740685
-9.239571E-4
-0.0017098988
-0.0014148153
-4.251053E-4
-4.1065118E-4
2.257861E-4
3.918961E-4
8.9078856E-4
0.0016048984
0.0028562201
0.0048047598
0.004807881
0.0044949856
0.0052957665
0.0045193005
0.0012526572
5.7444535E-4
0.003859647
0.0036751407
0.0020213306
0.0014712835
-0.0033068894
-0.0062184874
-0.004232924
-0.0032566488
-0.002277562
-0.001685957
-0.0013672377
-2.4333678E-5
-4.962582E-4
-4.404034E-4
0.0014980892
0.0014877743
1.44631E-4
-5.740642E-4
-0.0010940782
-0.0011620163
-1.0988179E-4
5.3440436E-4
-0.0012923261
-0.0031933864
-0.0021342929
-3.3053034E-4
3.0366304E-5
4.569112E-4
0.0015992663
0.0025258425
0.0025852502
0.0016803372
7.9711305E-4
3.7287408E-4
3.15043E-4
0.0013261407
0.0022160914
4.5053035E-4
-0.0016641901
1.2116996E-4
0.0020360649
2.1802478E-5
-9.431436E-4
3.2329434E-4
8.494541E-5
4.7320448E-4
0.0010025732
-0.0020655473
-0.0039213374
-0.0015904359
-0.001141284
-0.0029596046
-0.003373736
-0.0030053647
-0.0012890215
5.7394564E-4
4.7630662E-4
0.001009725
0.002352021
0.0023325002
0.0019371941
0.0024771192
0.0021328295
0.001542565
0.0038305642
0.0039551095
4.432674E-4
-6.2752597E-4
-7.3816883E-4
2.3568104E-4
0.0016603919
-5.0929515E-4
-0.0011042815
4.1350434E-4
2.9320072E-4
-9.828417E-4
-0.0033957958
-0.0025768038
-1.286965E-5
-5.499097E-4
-2.5399344E-4
-2.4403435E-4
-0.0029831922
-0.0032150198
6.554726E-4
0.0018359852
-0.0030866966
-0.005143027
-7.555897E-4
0.002728031
0.004583798
0.005184317
0.002446516
5.784639E-4
0.0014285212
0.001607138
0.0018351565
0.0022674133
5.111953E-4
-0.0015438754
-0.0030709573
-0.0033994766
-0.00118371
-7.8479643E-4
-0.001701787
-0.0019544375
-0.0031868338
-0.0012437379
0.0011971275
1.2662368E-4
8.8846276E-4
0.0020392756
0.0014420659
6.999647E-4
-1.523849E-4
5.650405E-4
0.0010527715
5.731668E-4
-1.5431175E-4
-0.0014434259
-3.5011646E-4
0.0014727599
0.0019696672
0.0015520179
4.1814893E-4
0.0017546064
0.0017927495
-3.1220974E-4
8.088429E-4
1.0595355E-4
-0.0015606149
1.8940019E-4
-6.989386E-4
-0.0032248201
-0.003019917
-0.0017916646
-0.0015033567
-0.0026116932
-0.0018249225
6.418157E-4
0.0013736164
0.0019586014
0.0017113421
2.8269333E-4
6.686857E-4
7.252913E-4
2.0254219E-4
0.0011265067
4.2081962E-4
-7.759475E-4
-8.845202E-5
-6.5162545E-4
-0.0013456622
-4.1216132E-4
-7.097719E-4
-0.0015608998
-3.5341724E-4
0.0017832716
0.002477189
0.001602098
-3.1143903E-5
-0.0016175156
-0.0017902409
-0.0010041469
4.685394E-4
0.0016202182
-8.376119E-5
-0.0010754606
8.641935E-4
0.002368384
0.0034384073
0.0023108593
-0.0010054841
-0.0011540416
-6.741241E-5
-4.9948867E-4
-3.6974583E-4
-5.251153E-4
-4.5464718E-4
-2.4961313E-4
-0.001287774
2.1697696E-4
0.0019467549
-9.4324775E-4
-0.0028610022
-0.002993256
-0.0039473893
-0.0020904418
-5.5809793E-5
5.4381153E-4
0.0021478622
6.345739E-4
-0.0023645177
-0.0023908843
-0.0011760432
0.0018549218
0.0042074774
0.0025086657
0.001358123
0.0021723146
0.0026546458
0.003948855
0.0030368993
-0.001744521
-0.0026247047
1.7141158E-4
4.897649E-4