5.652278E-4
-0.002040254
-0.004069855
-0.0019563544
0.0018939602
0.0014952827
-0.0017005365
-4.3396765E-4
0.0025578465
0.0018670125
0.0013885722
5.700844E-4
-0.0012603214
-3.8073212E-4
7.818217E-4
7.160517E-4
7.982986E-4
0.0012621817
0.0015725248
3.3068677E-4
-6.9871615E-4
-1.0067648E-4
5.7184446E-4
-6.757151E-4
-0.0027987387
-0.00147048
1.7849755E-4
-0.0012789468
-0.0013616979
-2.762004E-4
-2.9115018E-4
-7.584826E-4
-0.0010704385
4.4323292E-4
0.0018524505
5.946629E-4
-3.635899E-4
5.811924E-4
5.1437743E-4
-8.923902E-4
-0.0012282646
-9.1345847E-4
6.921344E-5
0.0014642103
0.0010746394
0.0011166313
0.002313434
0.0014103231
-3.9172723E-4
-8.1501534E-4
4.8876693E-5
0.00102299
5.433094E-4
-3.9998136E-4
-8.608518E-5
4.428898E-4
1.9475723E-4
1.0760302E-4
-3.3260894E-4
-0.001431578
-0.0018099877
-0.0020218594
-0.0016881467
-1.2257409E-4
0.0011253655
0.001648072
0.0010906362
-1.3423854E-4
-0.001536901
-0.0029353537
-0.00213636
-0.0012661113
-0.001526174
5.082988E-4
0.0017345852
4.1171545E-4
2.2193645E-4
0.0012489076
0.0026670594
0.002727396
0.0015046824
0.0016980369
0.0010505936
-1.3474087E-4
0.001032307
9.6354453E-4
-8.59237E-4
-0.0010193399
-5.701446E-4
-8.440782E-4
-0.0011853729
-7.32506E-4
-3.7040376E-5
-4.8470378E-4
-0.0011040784
-5.885919E-4
9.854529E-4
0.0012350888
-5.37459E-4
-7.0879067E-4
-0.0013402657
-0.0028352288
-8.15284E-4
-1.9172757E-4
-0.0014484674
-1.08604865E-4
4.4146672E-4
0.001031787
0.0023175222
0.0017616578
0.0010368738
4.8983126E-4
3.5768095E-4
-4.7699612E-4
-0.0015198134
-2.2010585E-4
3.1452064E-4
6.910954E-4
8.3740515E-4
-0.0014548304
-0.0012285577
4.0838822E-5
-5.2482233E-4
-1.840145E-4
5.505313E-4
0.001493666
8.698297E-4
-6.6268934E-5
0.0011176472
5.6513236E-4
5.765234E-4
0.0017169721
5.562081E-4
9.3702355E-4
8.6956355E-4
-0.0016424013
-9.416703E-4
6.190414E-4
-8.614321E-4
-6.744823E-4
0.0012566369
-2.2619226E-4
-0.0016298203
-5.546281E-4
-8.170024E-4
-4.8541345E-4
-5.8668324E-5
-0.0013712521
-0.0016114401
-0.0015734972
-8.016103E-4
-1.4401405E-4
-0.001069807
1.4040571E-4
0.0010362396
2.360502E-5
4.9206225E-4
0.0011768144
0.0012061307
8.3936326E-4
0.0012569587
0.002047051
0.0014342645
0.0018068815
0.0015880741
2.666046E-4
-3.1101602E-4
-0.0020456736
-0.0014204218
2.5122508E-4
-2.6808167E-4
6.4714503E-4
-8.828964E-4
-0.003260351
-0.0011337985
2.0656586E-4
-6.257056E-4
-0.0021066496
-0.0013858932
0.0013908867
2.4457942E-4
-0.0010252498
-5.9316464E-4
-0.0010327771
-7.830243E-5
9.372489E-4
0.0023946501
0.0023956317
7.5503E-4
0.0023849143
0.0020134302
0.0011839606
0.0031524815
0.0015544236
1.5671982E-5
-9.66305E-4
-0.0027302313
-0.0017919927
-0.0017598596
-4.833787E-4
9.816486E-4
-0.0013827941
-0.0012239069
-9.3373215E-5
-5.8187963E-4
-0.0010337224
-0.0019701964
-0.0010479916
-0.0015110315
-0.002345876
0.0015787994
0.0032497523
-9.295556E-5
-0.0021406664
-6.973755E-4
0.0012206296
0.0018873872
0.0029234025
0.0027609495
0.0011693097
-2.4522725E-4
-0.0012604073
3.2303855E-5
0.0013514799
9.966057E-4
6.14342E-4
-1.9477596E-4
-8.580176E-4
-0.0015819182
-8.559085E-4
8.8342186E-4
-5.1627623E-5
-4.4269624E-4
9.636328E-5
-2.3788025E-4
6.490002E-4
2.694448E-4
-0.001125466
-0.0013007742
-0.0018915186
-0.002224502
-0.0014035249
-4.8772662E-4
-4.0453536E-4
6.904078E-4
0.0025039858
0.0015071478
9.2054484E-4
0.0019033477
6.372248E-4
-5.193228E-4
2.8628626E-4
8.680774E-5
-0.0017047476
-0.0016439627
2.2071772E-4
0.001302863
0.0012524043
-0.001400021
-0.0017233263
0.0019251173
0.0021146291
0.0026555038
0.0027760281
-0.0019422314
-0.0022385987
-1.3739114E-5
-5.8623937E-5
6.588398E-4
-6.726042E-4
-0.0013199133
-7.669453E-4
-0.0022403526
-0.0015336188
-2.9209343E-5
4.2517812E-4
7.127711E-4
-4.550266E-5
8.978571E-4
0.0014724026
-2.546341E-5
6.398171E-4
0.001796446
8.487295E-4
-0.0010916968
-0.0026117098
-0.0020966162
-0.0012100055
-0.00205797
-0.002543218
-0.0010706712
8.797062E-4
0.0022569362
0.0024658998
0.001749201
0.0013112004
3.5521688E-4
-7.569128E-5
4.6250658E-4
-2.4077276E-4
8.663375E-5
2.946442E-4
-9.648638E-4
7.20714E-4
0.0011618081
-3.3680166E-4
0.0019150056
0.0019346079
-5.751732E-4
5.171874E-4
0.0013480497
8.429567E-4
6.352037E-4
-9.2023355E-4
-0.0020106714
-0.0014084415
-9.924741E-4
-0.001292497
-9.280031E-4
1.581818E-4
3.786014E-4
-1.706392E-4
-7.294009E-4
2.3702072E-5
0.0011616137
1.545669E-4
1.689843E-4
6.941198E-4
-0.0015518551
-0.001583735
-1.1825885E-4
-0.0013545263
-0.0014220787
-5.941685E-4
-7.8954984E-4
-1.7234066E-4
3.343145E-4
8.802411E-4
0.001225607
-1.12987305E-4
-8.511177E-4
-2.0398313E-4
5.036251E-4
7.6653174E-4
4.2605773E-4
6.868887E-4
8.9821214E-4
7.2931405E-5
-1.2114836E-4
3.075849E-4
3.5742784E-4
5.945929E-4
0.0014661726
0.0018255704
0.0014760718
0.0015225091
6.27154E-4
-1.5688149E-4
8.1376714E-4
3.8139E-4
-0.0010296839
-0.0015936131
-0.0013207102
2.1270505E-4
4.5149116E-4
-3.2968138E-4
-9.091891E-4
-0.0013996284
1.2938224E-5
-2.0136785E-4
-0.0017156928
-6.6498417E-4
-0.0011178948
-0.0016019009
1.4125038E-4
6.3008245E-4
0.0014667477
0.00185585
9.496262E-5
-9.3025854E-4
-0.0012972967
-0.002155199
-0.0029333204
-0.0021201156
-3.308526E-4
7.519425E-5
1.907769E-4
7.7573594E-4
0.001589712
0.0035104118
0.0050279894
0.0042641894
0.0026602808
0.0016258291
-3.4926247E-4
-0.0034204782
-0.0049238075
-0.0030951172
2.3595816E-5
7.591817E-4
5.695568E-4
9.6966414E-4
0.0013313736
0.0030812987
0.0028361038
-1.389709E-4
-0.001441954
-0.0021471893
-0.0012571438
7.4543734E-4
-1.541094E-4
-0.0015771226
-0.002221459
-0.0022292177
-0.0012113826
-6.266536E-5
0.0013181794
4.5463227E-4
-3.4346178E-4
0.0011147339
-7.0959266E-4
-0.001972719
9.956233E-4
0.0012403991
-8.1254094E-4
-4.0370226E-4
5.665892E-4
-6.985101E-4
-0.001294861
0.0010694561
0.0028129653
0.0023023293
4.1656164E-4
-7.4007764E-4
-5.567184E-4
-0.0022231024
-0.0022051241
8.567909E-4
0.0011061153
0.0011878277
0.0029139335
0.0032747074
0.0028350092
5.0684006E-4
-0.0018297988
-0.0020967866
-0.0026174563
-0.0011352741
0.0011522707
2.0825371E-4
-1.7957788E-4
2.6613785E-4
-0.0016641648
-0.0029546404
-0.0014658107
-1.2426545E-4
-6.669823E-4
-9.244899E-4
-7.801525E-4
-0.0014779518
-8.147772E-4
5.297719E-4
0.0010834745
0.0014239128
5.701111E-5
-5.562962E-4
3.5786914E-4
-1.5450866E-4
9.254151E-4
0.002235761
8.404537E-4
7.779378E-4
0.0010437646
-1.0990677E-4
3.0059255E-5
0.0013282229
0.0022162949
0.0030200693
0.0045671235
0.0032182883
-0.001263138
-0.0026947556
-0.002788426
-0.003172009
-8.1225147E-4
3.4205132E-4
-0.0020972039
-0.003414887
-0.0012355879
-6.077954E-4
-0.002789454
-0.001363418
1.5153862E-4
-0.0014777738
-4.4806587E-4
0.0012721856
0.0018316477
0.0021823805
8.3804637E-4
-1.1171315E-4
-0.001020658
-0.0022531054
-0.0016236888
-8.070829E-5
0.0013443935
0.00110807
-1.3484119E-4
2.7428882E-4
0.0013578102
0.0023872422
0.0031718675
0.0019950087
-6.295755E-4
-8.906888E-4
6.53157E-4
-4.2092113E-4
-0.0017385999
-7.144078E-4
0.0010592598
0.0020151685
7.413586E-4
9.2094834E-4
0.0018761978
2.1837316E-4
1.5347687E-4
-3.5271456E-5
-0.0011012197
-7.61003E-4
-0.002850715
-0.0036356526
-0.0017635949
-7.436742E-4
0.0012760251
0.0010814772
1.35411765E-5
4.4582426E-4
-0.001374
-6.99256E-4
8.9134503E-4
-0.002901918
-0.00543837
-0.0032474212
8.145488E-5
6.0406973E-4
-0.0021185104
-2.3566488E-4
0.00500763
0.005208746
0.004567057
0.0045817713
0.00151341
4.2221317E-4
9.10705E-4
-6.217517E-4
-7.7152083E-4
-8.119256E-4
-0.0017937745
-9.799228E-4
5.3423766E-5
2.8036514E-4
3.9889078E-4
7.1586436E-4
4.8133702E-4
-0.0010420199
-0.0012258685
-7.893276E-4
-0.0019403824
-0.001886592
7.371607E-5
0.0012995889
4.6360353E-4
-9.119678E-4
-8.9337345E-4
4.3243857E-4
0.0015688785
7.1764356E-5
-0.0014242587
5.8100493E-5
3.7483967E-4
-9.941218E-4
-0.0012756188
-1.5046E-4
0.0022624943
0.003363762
0.0024771693
0.0017623717
0.0010697866
-9.310709E-4
-0.004070002
-0.0051329737
-0.0028222858
-3.1628582E-4
-4.8936764E-4
-0.0017558726
2.831236E-4
0.0029097085
0.002035768
0.001082464
6.4225594E-4
-3.5047738E-4
-3.8251875E-4
-4.4774092E-4
-0.0011601478
-0.0010056441
7.5024925E-4
0.0023713883
0.0033006177
0.004637374
0.0036181125
4.5544024E-5
-0.002735321
-0.0050895726
-0.0059149056
-0.00294934
5.606761E-4
0.0010316744
0.0012566302
0.0029843382
0.0015774958
-0.0016786138
-8.5459644E-4
5.796358E-4
-0.0013220281
-0.001555292
0.0016843189
0.0034934457
0.002694728
2.7542547E-4
-0.0026810442
-0.0026973062
-0.0017157064
-0.0016255048
7.342017E-4
0.0021365115
7.2191935E-4
5.759294E-4
0.0012015988
0.0010238574
4.3774256E-5
-0.0015640878
-0.0027906452
-0.0028824424
-0.0017023132
-3.8201615E-4
9.399733E-4
0.0012235554
-7.629306E-4
-0.0020607586
-0.0015285299
5.1418407E-4
0.0027666062
0.0017635833
4.3230187E-4
0.0018012521
0.0022752392
5.690953E-4
-2.6499666E-4
0.0012947195
0.003068366
0.0038296832
0.0030909346
0.0010916999
8.818028E-4
-7.1139634E-4
-0.00635647
-0.008518696
-0.004841385
-3.9540103E-4
0.0023765585
0.0026301811
7.949988E-4
-5.8641384E-4
2.2409367E-4
5.2910007E-4
-0.001218408
-0.0018549314
-0.0013620174
-0.0013081516
-0.0023402607
-0.0047204155
-0.0046905917
-0.0021794965
-0.0014564799
-0.0010011098
0.0014229771
0.004101067
0.005253209
0.0050640046
0.005603772
0.0062696566
0.0051313243
0.0034664995
0.0014602621
-8.3609315E-4
-0.0015070131
-0.001466026
-0.0015487571
-0.0016311028
-0.0020967324
-5.6027714E-4
0.0018241735
0.001898219
0.0014171372
-4.8068623E-4
-0.0033149861
-0.002971683
-0.0016521671
-0.0011299878
-1.7481897E-4
4.614785E-4
0.0012165137
0.0011181768
-5.004636E-4
-7.3027523E-4
3.533417E-4
1.0042741E-4
-0.001465585
-0.0032957268
-0.0053879176
-0.0057283873
-0.002677758
-1.7349859E-4
-4.238321E-4
-0.0010252264
-0.0017289381
-0.0028866904
-0.0030272736
-0.001021637
0.0019171737
0.0027317377
7.911626E-4
-0.0013215593
-0.0017301118
-9.4327936E-4
-5.1810224E-5
6.8902946E-4
0.0027454782
0.0069376547
0.00924405
0.010061999
0.01407329
0.016081555
0.0123543525
0.007644446
0.003400987
-3.9881488E-4
-0.005343228
-0.011477333
-0.012242261
-0.00690955
-0.0028387008
-0.004805178
-0.008847079
-0.009232703
-0.008863748
-0.008859287
-0.006327227
-0.003221247
-3.2408207E-5
0.0022452376
0.0012508879
0.0010470992
0.0030718353
0.0021629657
-0.0011157069
-0.0012546292
0.0012386082
0.0035394123
0.0058970437
0.0059869876
0.0039214455
0.0043288325
0.0055487566
0.0048574195
0.0037175268
0.0022827836
0.001227173
-0.001422265
-0.0073315785
-0.009091015
-0.0058321794
-0.005017865
-0.0039769895
-0.0012032639
5.732077E-4
0.0045000208
0.004940797
-0.0014143701
-0.0041675796
-0.0035210452
-0.0020605128
0.0032044163
0.0073199607
0.008758109
0.0067439363
-2.0819007E-4
-0.0022362694
0.001288368
3.7415326E-4
-0.0019646357
-1.708783E-4
0.0014390987
0.0012898896
0.0035893538
0.006223442
0.0032407104
-0.0047599343
-0.010189217
-0.0071697515
-0.0029751821
-0.0045739072
-0.004583803
-6.553755E-4
-7.493755E-4
-0.004926289
-0.005269609
-9.687271E-4
0.0026499005
0.0040507163
0.0027896788
0.0010754913
0.0012552318
4.5864616E-4
-0.0015880071
-0.0050981035
-0.0062366463
-7.840654E-4
0.0025896518
0.0045236987
0.009373313
0.009275917
0.0058881794
0.0032260634
0.0015525249
0.0022264847
0.0037749165
0.008456163
0.009186723
0.0021711686
-7.6578767E-4
-0.0038906059
-0.011029248
-0.014787325
-0.015936185
-0.011809551
-0.0066445014
-0.005601413
-1.3143024E-4
0.0034063465
-5.571814E-4
-0.0021557692
-0.0033536458
-0.0042179157
3.5645263E-4
0.0020780521
-0.001386515
-0.0028612926
-0.0037291523
-0.0057427743
-0.003305126
0.0037989167
0.007473626
0.0069595883
0.008650437
0.012664728
0.015562293
0.013064937
0.0039939713
-0.0036349872
-0.002922655
0.0051447386
0.012605382
0.013598658
0.010971096
0.0064260284
0.0036732974
0.0033818455
-8.3171594E-4
-0.0053199953
-0.008746898
-0.013472718
-0.014424421
-0.015042251
-0.018079119
-0.018474584
-0.016224869
-0.014575449
-0.014626262
-0.011129436
-0.005588092
-0.003838365
4.3360257E-4
0.0065140836
0.005412411
-0.0034012496
-0.014264901
-0.01873235
-0.013945823
-0.003849936
0.007767616
0.021580562
0.031914312
0.025291871
0.011022937
0.007004265
0.007768562
0.004375181
2.2130346E-4
0.0012570953
0.008253719
0.020907525
0.03248447
0.030244926
0.016090197
7.9677533E-4
-0.0052783526
-0.0011743077
1.2408901E-4
0.002129586
0.008133748
0.005505385
-0.0018974516
-0.01047482
-0.025054844
-0.03729728
-0.03723246
-0.021035414
0.0015672909
0.014328031
0.021510225
0.024064885
0.0141956955
0.0136959525
0.033162113
0.038776923
0.011062418
-0.03098676
-0.052034482
-0.042657215
-0.029824119
-0.02175107
-0.025712715
-0.052910645
-0.07162683
-0.06947613
-0.056720056
-0.012835201
0.058898274
0.10996849
0.104210466
0.06698382
0.032006145
-0.015032626
-0.05477952
-0.053302947
-0.03479011
-0.007027737
0.043318022
0.08556209
0.08989078
0.07028291
0.048040606
0.040727787
0.027683338
-0.03951618
-0.09596174
-0.07556412
-0.041891083
-0.002122647
0.050487995
0.067547165
0.08756755
0.081270084
-0.050243754
-0.21308504
-0.26995185
-0.22838654
-0.13785131
-0.015897239
0.109075606
0.17088921
0.18919995
0.21049103
0.17683323
0.12749195
0.11508738
0.059668686
-0.0057813656
-0.055364817
-0.14893138
-0.21554019
-0.23000117
-0.25910535
-0.2660239
-0.16742742
0.018304175
0.15908222
0.23651737
0.3353642
0.37675592
0.26826164
0.08705788
-0.09146213
-0.24303553
-0.31977588
-0.3414052
-0.3043072
-0.1209984
0.09124446
0.21914698
0.3223171
0.3459272
0.29269385
0.15562473
-0.07564084
-0.18669531
-0.18063387
-0.13200209
-0.07845969
-0.12989394
-0.032229688
0.07627368
-0.16626804
-0.26799545
-0.068172805
0.05741269
0.12543206
0.13318646
0.09750668
0.0873571
0.085155725
0.19448309
0.28522477
0.1557041
-0.0409133
-0.15311952
-0.2631696
-0.37413266
-0.28505155
-0.052889436
0.10660351
0.22408281
0.27570057
0.18649904
0.0058073397
-0.15127401
-0.14964134
-0.07940398
-0.06665306
-0.04939112
-0.0059785033
0.056737255
0.1194743
0.120180145
0.033042464
-0.0706026
-0.072499394
-0.0030327311
0.07932153
0.15509297
0.12705116
-4.9007474E-4
-0.12907262
-0.1722517
-0.11336175
-0.065508
-0.06666013
-0.07783201
-0.0798036
-0.03939424
0.03284815
0.10195765
0.10898304
0.08616335
0.1121417
0.071220525
-0.045850456
-0.0739319
0.006188071
0.09081412
0.046822876
-0.041771807
-0.00648736
0.043163292
0.07140173
0.11886367
0.06763367
-0.041639064
-0.06548007
-0.010418269
-0.003373191
-0.084608234
-0.12267274
-0.12612654
-0.13877454
-0.07617644
0.0140951155
0.08715966
0.11178867
0.01928031
-0.04996177
-0.018671159
0.0063100364
0.012847281
0.015119306
0.018206796
0.03594881
0.057754856
0.07283637
0.029717008
-0.052645296
-0.07346383
-0.04716729
-0.04258852
-0.047150876
-0.018234344
0.033487305
0.06817953
0.07699523
0.067754075
0.055438325
0.03133128
-0.019765088
-0.029054528
0.032446835
0.046784237
-0.033898856
-0.09588407
-0.0767644
-0.029938752
-0.005264547
-0.006421825
0.0012519708
0.039563563
0.087001294
0.10571906
0.05173235
-0.03453719
-0.0634238
-0.059506364
-0.06513551
-0.06121236
-0.047327455
-0.02820789
-0.009026864
0.0048528663
0.018526712
0.026561309
0.027475923
0.023001384
0.012816499
-6.0232705E-4
-0.0112453
-0.01176662
-0.013359412
-0.02085641
-0.023645509
-0.024359245
-0.020625573
-0.013416776
-0.014540229
-0.014905509
-0.0059234225
0.012249311
0.048434425
0.07948128
0.0865806
0.095494345
0.0722057
-0.008612097
-0.05372496
-0.02623865
0.02026972
0.057177816
0.050999947
0.0024229565
-0.03440728
-0.038885366
-0.026706252
-0.024780856
-0.04883484
-0.06783014
-0.02500523
0.050642792
0.04546235
-0.020939982
-0.032613933
-0.011578696
-0.017478881
-0.033041548
-0.055464175
-0.07567438
-0.06187169
-0.026694216
0.004769622
0.02764441
0.046262052
0.08573335
0.12776971
0.10958608
0.057175986
0.021219034
-0.026917454
-0.06706268
-0.051497176
-0.034616325
-0.046377443
-0.039400328
-0.019221399
-0.010305641
8.770716E-4
0.016007872
0.026808608
0.027154904
0.02212005
0.019619457
0.002028207
-0.02274211
-0.02555955
-0.014440053
-0.0033274412
0.0012365186
-0.0030857394
-0.0071941833
-0.007398768
-4.4181605E-4
0.011138295
0.027393484
0.05053114
0.057371676
0.050164387
0.058561783
0.06717615
0.033007402
-0.048389163
-0.10762249
-0.09144134
-0.05368421
-0.035894938
-0.015864842
-0.0076018334
-0.018074296
-0.009726995
0.013502666
0.030810056
0.051220037
0.061255667
0.03790109
-0.009133143
-0.05144594
-0.059461556
-0.039215427
-0.021923598
-0.008842685
0.0056542656
0.012571411
0.011305051
0.0088862395
0.010773946
0.010501063
0.0013191946
-0.005977724
-0.0059228977
-0.0046678986
-0.0013774572
0.0036851156
0.008492434
0.017651722
0.020886306
0.0043644686
-0.012808069
-0.012950846
-0.00355495
0.009643817
0.014780249
0.0040620747
-0.0040241913
1.098249E-4
0.004365155
0.0046619545
0.0076196627
0.014962564
0.01975963
0.01062345
-0.0070098154
-0.012579254
-0.019863788
-0.042944547
-0.047581524
-0.026537951
-0.0037573345
0.019595388
0.038442336
0.044674773
0.03192395
0.0039243978
-0.008509797
-0.0042396416
-0.0049390523
-0.006364813
-0.007122359
-0.009546306
-0.0086686835
-0.00659677
-0.0040883897
0.0033790814
0.009443086
-2.4944482E-5
-0.012354118
-0.012209884
-0.01519963
-0.01941861
-0.011850796
-0.002799691
-2.205909E-4
-0.0027397252
-0.0011834492
0.0038057365
1.4484335E-4
-0.0052694823
-0.0076554655
-0.007037934
7.5736076E-5
0.0075199655
0.019959101
0.0374824
0.044738688
0.040390424
0.035988353
0.033614088
0.010276922
-0.024079159
-0.02340684
-0.0051400126
-0.002302359
-1.574723E-4
0.005519515
0.0031366672
-0.01185092
-0.026064012
-0.030981332
-0.04305516
-0.050768886
-0.04022522
-0.03208019
-0.025524331
-0.008745747
0.009976466
0.02138677
0.022570103
0.014175269
-8.213339E-4
-0.010659949
-0.009376028
-0.005325139
0.0027589616
0.017963486
0.031822294
0.039528422
0.050455578
0.06578024
0.059178896
0.025393235
-0.002543608
-0.009016629
-0.011494118
-0.029962517
-0.052198626
-0.05395989
-0.04449535
-0.03411143
-0.016207492
0.0026301814
0.01880665
0.03353689
0.028880162
2.0753303E-4
-0.026948454
-0.037556842
-0.032377854
-0.014599108
0.009439944
0.032855287
0.03419453
0.0076359175
-0.009175966
8.7770046E-4
0.01594096
0.019550115
0.012673404
0.0026103568
-0.011873448
-0.022279592
-0.016978843
-0.010959638
-0.009814383
-0.00639048
-0.006638734
-0.00895709
-0.008700582
-0.0055376003
9.090542E-4
0.003660005
0.0033822665
0.0068429797
0.009975916
0.0077307844
0.003584069
0.0049329028
0.01236775
0.016693985
0.013612275
0.009853796
0.008303506
0.0060360227
0.0043736277
0.0027332534
-4.8869493E-4
-0.003093766
-0.004942258
-0.0055969856
-0.0063346843
-0.007820673
-0.0068855807
-0.005968551
-0.005998548
-0.0044760187
-0.0012070577
0.0038459364
0.0036968745
-0.0032635042
-0.0072675617
-0.0072762645
-0.0061837574
-0.0027478086
0.0012364129
0.002973951
0.0018736796
-0.0016631531
-0.0058423774
-0.005277996
-2.5308348E-4
5.408955E-4
-0.0024942884
-0.0033272314
-0.0020406644
5.5403926E-4
0.002204441
0.0012482647
0.001533004
0.004164431
0.0055637266
0.0064291786
0.008326857
0.008152347
0.00706144
0.007426214
0.0070752143
0.0056220847
0.0032685911
0.0016588129
3.5726384E-4
-0.0030720448
-0.004042479
-0.0034421352
-0.0035341717
-2.7827366E-4
-0.0011461857
-0.007924817
-0.010194963
-0.010056038
-0.011316662
-0.0114829205
-0.008916961
-0.0034089368
-2.5349396E-4
-2.2051945E-4
0.0024162228
0.005607083
0.0059804395
0.005022104
0.0021485211
0.002208389
0.009316065
0.010955097
0.006305822
0.008378199
0.008724256
0.004135858
0.0069820764
0.010911481
0.008560411
0.004162827
-0.003857932
-0.013782603
-0.01490125
-0.007900422
-0.006635459
-0.010510646
-0.011425332
-0.010778269
-0.0065893643
-0.0037814463
-0.0061098174
-0.00455965
-0.0035339158
-0.002675812
0.0024055722
-3.9295192E-4
-0.002714613
0.0058538397
0.011042004
0.010214449
0.008088313
0.004411064
-3.3166632E-4
-0.005416685
-0.003514711
0.0027602082
0.004403441
0.0059992685
0.006586183
0.0033795533
0.0046808766
0.010145106
0.010164163
0.0027208847
-0.0051241824
-0.008170881
-0.005045836
3.3136926E-4
-0.0025510339
-0.008828848
-0.00788016
-0.005764486
-0.0027920983
0.0018233373
8.212233E-4
-0.0016523475
-0.0024795681
-0.00335078
-0.0023399927
-0.0032492224
-0.0072966493
-0.008700795
-0.0059301746
-0.0027307225
-0.0011024525
-7.633683E-5
-5.48509E-4
-7.927333E-4
0.0019604242
0.005783705
0.008218685
0.0075985985
0.0061873253
0.004861877
0.0023317316
0.002249125
0.0011671904
-0.0027599807
-0.0032923326
-0.0036104613
-0.0045283237
-0.0033885767
-0.0028435164
2.4435413E-4
0.004402606
0.0029456008
-4.660715E-4
-8.5938553E-4
4.4916862E-5
-4.0704192E-4
-0.0022377737
-0.0031931598
-7.911828E-4
0.0029028463
0.0046885186
0.00652173
0.008743709
0.009994757
0.008458374
0.0019210213
-0.004134292
-0.006257197
-0.006642775
-0.0053809257
-0.004182105
-0.0024498305
-0.0012451671
-0.003224448
-0.004792351
-0.005167484
-0.0030165701
0.0010625521
0.0016955589
0.0017117612
0.0012922899
3.866671E-4
0.0032926807
0.0023526528
-0.0036738787
-0.0043616914
-4.0861793E-4
0.0034252985
0.006858318
0.009432317
0.008362112
0.0035514971
0.0011051146
0.0014010083
7.6355785E-4
2.4533356E-4
-0.0018366241
-0.004914748
-0.0036132098
-0.0013576046
-0.0031960062
-0.004645656
-0.0025574192
-0.0014955718
-0.003166244
-0.0024159758
2.4255476E-4
-1.0037136E-5
-8.469859E-6
0.0020911193
0.003207626
0.0033983586
0.0027516843
0.0026588351
0.004212967
0.0051589087
0.004428013
0.0016548526
-1.4675847E-4
4.9670064E-4
7.3069526E-4
0.002500909
0.0033347837
-0.0018154493
-0.0071042106
-0.0076065874
-0.0066030356
-0.005920894
-0.0020325962
0.0026877695
0.0013139392
-0.0013210626
-3.5383084E-4
3.9488755E-4
-2.4214396E-4
-0.0010752038
-4.5153883E-4
1.2742869E-4
-0.0010430823
-0.0011906457
-2.9809927E-4
0.0025327797
0.006163997
0.00544869
0.0037387717
0.00438899
0.0039682835
8.8652025E-4
-0.0023697754
-0.0027546228
-0.0020040947
-0.0016935755
-8.920996E-4
-6.713277E-4
-3.7354243E-4
-1.4499173E-4
-0.0015251237
-0.002606141
-0.0029259
-0.0024887132
8.3120883E-4
0.0041650278
0.0034953037
0.0018823019
0.0015584859
0.0014512739
0.001501357
1.219591E-4
-6.336416E-4
0.0016626955
0.0021262895
-2.426586E-5
-8.6143456E-4
-6.595059E-5
4.228434E-4
-7.152654E-4
-0.0013519939
-1.6793051E-4
0.001152702
7.779574E-4
-4.273743E-4
1.1578229E-4
-9.53158E-4
-0.0032534916
-0.0018967658
-0.00111184
-0.0018286821
-0.0014667457
-0.0016364158
-4.431502E-4
0.0012405838
8.394035E-4
3.7146953E-4
5.2924105E-4
9.88646E-4
0.0024317356
0.0034624902
0.0011921136
-7.0772576E-4
5.96139E-4
3.8719183E-4
4.7628977E-4
0.0011034629
-0.0013712757
-0.0019141842
-7.5475324E-4
-5.760988E-4
0.0011692755
0.0020251018
9.4485824E-4
8.849084E-4
0.0032713749
0.0055360775
0.003177664
-0.0023864363
-0.0067962594
-0.007099983
-0.0047821305
-0.0029209733
-1.4176931E-4
0.0020701734
0.002824923
0.0044507035
0.0052421414
0.003086255
-0.001635163
-0.0032923704
-7.4230664E-4
1.6406646E-4
0.0020771753
0.0032153341
-6.308527E-4
-0.0015579642
8.320045E-4
7.737799E-4
-2.541735E-4
3.529466E-4
7.3371705E-4
-0.0016923657
-0.0024183143
-0.0019341655
-0.0035219886
-0.0016107692
9.897418E-4
-6.596471E-5
-9.780412E-4
-0.0013674848
-6.565576E-4
-3.3290815E-4
-9.9208E-4
3.0893795E-4
0.0013852103
0.0020600078
0.0017990645
-7.0417504E-4
-0.0012442181
1.8736985E-4
0.0019647623
0.0025769407
8.137731E-4
0.0010047875
0.0025078296
0.002228247
0.0014261873
7.4872765E-4
2.8066282E-4
-0.001551658
-0.002338819
-2.6721205E-4
-0.0011673686
-0.0024098852
-1.2092032E-4
2.897834E-4
-6.502568E-4
-2.0027331E-4
5.6981825E-4
0.0010652054
-1.27228E-4
-0.0013644819
-5.863544E-4
1.2342181E-5
-3.9034805E-4
-6.254393E-4
-3.4230656E-5
8.006552E-4
2.0278733E-4
-0.0013860915
-0.0011623937
8.5626566E-4
0.0010562707
1.280297E-4
7.9597504E-4
3.1876328E-4
-6.764711E-4
9.540111E-4
0.0017294294
4.9091043E-4
-5.4903404E-4
-0.0013003768
-0.0010208378
-5.0257694E-4
-2.2569216E-4
3.941941E-4
1.5348266E-4
1.3519579E-4
8.3725835E-4
2.4070909E-5
-0.001850322
-0.0016197304
2.1937831E-4
-9.325279E-4
-0.0025995201
-0.0012214904
-7.6301565E-4
-2.464516E-4
0.0018659884
0.0037806947
0.005745057
0.0038003314
-8.365183E-5
1.22029196E-4
0.0010908159
0.001769454
0.0029168038
0.0036342186
0.0037545038
9.838984E-4
-0.0015057811
-0.0017464011
-0.0019945526
-0.0011305659
-0.002370933
-0.0047352626
-0.0032386612
-0.0026761761
-0.0040551946
-0.0033564863
-0.0022038275
-0.0026981994
-0.003849023
-0.0031278336
-0.0013820978
-3.5679238E-4
0.0011845788
0.0024453567
0.0022415458
0.0017521911
0.0024564501
0.0036257221
0.0044496385
0.006163325
0.0057738596
0.0034337088
0.004476375
0.0044539226
0.001405322
0.0013588245
8.308481E-4
-0.002233213
-0.0029529158
-0.00268451
-0.0024016872
-0.002186954
-0.0038950893
-0.0035783525
-0.0014979817
-0.00221971
-0.002510446
-9.977283E-4
-7.231575E-4
-0.0014130671
-0.0017900248
-0.0014457161
-0.0010750943
-3.8098797E-4
5.117455E-4
2.5441984E-4
4.6223844E-4
0.0014166064
0.002441292
0.0024692598
3.8383482E-4
2.6097728E-4
7.320358E-4
-1.4668694E-4
0.0013758775
0.0011794765
-3.7594547E-4
3.0690516E-4
3.7910795E-4
0.0023007793
0.0027595777
2.2908469E-5
0.0011019789
0.0013437757
-3.233756E-4
-4.2303975E-4
-0.0016842217
-1.1239716E-4
0.0016632173
-0.0013896866
-0.0015645181
7.682423E-4
1.5346661E-4
-5.495758E-4
-0.00106151
-0.0021100533
-0.0019498396
-0.0019821473
-0.0014620561
-3.6014928E-4
-0.0018620944
-0.001471844
8.552564E-4
-3.0373607E-4
3.049774E-4
0.0023148227
0.001507445
0.0013636
0.001038666
8.036485E-4
0.0013335001
6.154099E-4
4.3711032E-5
-7.6682627E-4
-2.598993E-4
3.789435E-4
-6.3134835E-4
0.0010548849
7.3566034E-6
-0.0026351844
7.017256E-4
0.0010123106
-0.0010611113
8.960881E-4
9.5228734E-4
-8.0018275E-4
-0.0015373538
-1.321836E-4
0.0016175294
5.0310802E-5
6.739523E-5
0.0013235416
-4.3809552E-5
-3.392689E-4
5.219064E-4
6.697119E-4
1.8844714E-4
6.5727165E-4
0.0018716651
8.741756E-5
-0.0012885933
1.585216E-4
-3.7039626E-5
-0.002127695
-0.003684145
-0.0025706026
-4.7052267E-4
9.901658E-5
6.8367604E-4
1.42760255E-5
-0.0013907208
-9.4353926E-4
7.3930214E-4
0.0022786525
7.6960085E-4
-0.0012432702
-5.3068524E-4
-4.0843137E-4
-2.8022274E-4
0.0012919287
0.0025337758
9.1644004E-4
-0.002221009
-6.6161243E-4
0.002092896
0.0021598432
0.0021427383
-2.4933802E-4
-0.0016256323
8.456887E-5
-5.8553176E-4
-0.0011264911