6.1330426E-4
-0.0020948988
-0.0018254489
5.9509504E-5
4.940219E-4
1.0315969E-5
2.5276767E-4
6.4948417E-4
0.0012615549
0.0024207977
0.0011514598
-0.0010171162
4.5699617E-5
0.0015326194
8.97435E-4
-1.21379935E-5
-4.6090892E-5
4.7894186E-4
0.001518513
0.0025743656
0.0024263873
0.0022464234
0.0022939742
6.309213E-4
-0.0010760156
-8.304433E-4
-5.6774883E-5
3.5073816E-5
7.100086E-4
0.0013923799
3.363115E-5
-6.7653845E-4
-4.0504284E-4
-0.0023449378
-0.0044290964
-0.004021465
-0.001608394
-6.3700933E-4
-0.0022537448
-0.0016357681
6.920163E-4
5.683349E-4
-0.0011742067
-0.0020024667
-0.0012298307
-4.2794993E-5
0.0016247312
0.001386865
-7.153095E-4
0.0013950741
0.003652896
0.0024584003
0.0022692622
0.0015674896
0.001602888
0.002240759
-5.4639176E-4
-0.001910971
4.43086E-4
0.0026381626
8.895692E-4
-0.00264706
-0.0013575237
5.5649893E-5
-7.9419476E-4
2.0463979E-4
-0.0013396099
-0.003181813
-0.0013679528
-4.2846793E-4
-1.4131387E-4
6.5365044E-4
0.0025906053
0.0037982804
-4.4796913E-4
-0.004419932
-0.0033747228
-0.0014725452
1.0490989E-4
0.0015320379
0.0033172874
0.0043454096
0.0014850243
-0.0010144286
-0.0013298481
-0.0042851693
-0.0057156505
-0.0025262672
-3.78902E-4
0.0011490548
0.0029022316
0.0023236915
0.0014616911
0.0013385272
0.0011860587
4.2134026E-4
-6.734407E-4
4.4527216E-4
0.0017846506
0.0013237443
0.001262899
0.0012825464
0.001149856
0.0013830721
0.0015566406
0.0021162892
0.0027977226
0.0011593531
-0.0033401856
-0.0051655965
-0.0045454702
-0.0066030044
-0.0056360424
-8.2068745E-4
-1.4806523E-4
-0.001491827
-8.9548784E-4
8.09684E-6
-1.17255244E-4
-3.152815E-6
0.0014575317
0.0016638655
0.001281296
0.0017008705
4.7537082E-4
-0.0010034778
3.0570227E-4
0.0036325024
0.005013866
0.0042569144
0.0039137118
0.0015391479
-0.0015787595
-0.0021114922
-7.5595314E-4
9.613549E-4
-4.8450736E-4
-9.3871646E-4
0.0017249772
-9.377456E-4
-0.005389368
-0.004526247
-0.0017923346
-8.745196E-4
-0.001029648
1.7530676E-4
-8.191048E-5
-0.0013448676
-6.181773E-4
-9.332829E-4
7.413767E-5
0.0017034292
0.0015027106
0.003317016
0.002768243
3.1310596E-4
0.0018600286
0.0035535567
0.0022419249
-0.0014550117
-0.0029179566
-0.0013862037
-0.0010217497
-5.159224E-5
-6.40559E-4
-0.0022513822
-9.81517E-4
-0.0014969783
-0.0016646434
0.0010919269
0.0014703685
-6.5622083E-4
-0.0018934604
-4.8598816E-4
-1.979941E-5
-5.295362E-4
9.509635E-4
-6.977069E-4
-0.0024065142
-3.879204E-5
3.678305E-4
6.4202055E-4
0.0023325277
0.0026215643
0.003034708
0.0030725338
0.0020883016
9.7203086E-4
5.963197E-4
6.01615E-4
-5.9634185E-4
-0.00133875
-0.001422853
-0.0013912919
-3.737633E-4
-3.4978503E-4
-0.0011997463
-0.0021515207
-0.0030524193
-0.0017630759
-1.15301176E-4
-1.813182E-4
-1.475284E-4
0.0016102192
0.0031993163
0.0013040788
-1.905132E-4
5.490352E-4
-0.0015347527
-0.0036035408
-0.00253907
-6.848173E-4
0.0018484977
0.002216571
1.1338013E-4
1.4079464E-4
7.330248E-4
-3.164088E-5
9.220762E-4
0.0033451577
0.0032457432
7.5325026E-4
-5.922658E-4
-9.824871E-4
-0.001688005
-0.0023093869
-0.003103932
-0.0027197741
-0.0010695779
-5.015487E-4
3.405466E-4
0.0025413013
0.0033856384
0.0019019364
-1.249381E-5
-1.0283176E-4
0.0013484732
0.0016511035
2.7202707E-4
-0.0012039396
-0.0013819254
-5.8013655E-4
-5.599769E-4
3.769844E-4
0.002928472
0.0030595167
8.90054E-4
-0.0022170388
-0.0049878117
-0.0039712912
-0.0026483191
-0.0019651577
7.291799E-4
6.465729E-4
-4.912696E-4
2.3316623E-4
1.6130685E-4
8.0384925E-4
-8.4558116E-5
-0.0013763747
6.2113174E-4
0.0011562632
6.0968363E-4
0.0011988928
0.0020426556
0.0026919642
0.0020391885
0.0022598896
0.0012908876
-1.6143441E-4
0.0016072836
0.0014605542
0.0017748155
0.0033850211
0.0015140066
-6.120809E-4
-0.0040772674
-0.005064988
-0.0022989654
-0.0034447964
-0.0031854361
-0.0021154252
-0.0028369878
-0.0014616563
-0.002746132
-0.002393588
-1.558384E-4
-0.0016213842
-1.2107041E-4
7.084006E-4
-3.1683294E-4
0.0017904554
0.0018234894
0.0014170391
0.0010766705
1.1591335E-4
0.002249613
0.0028095653
0.002753074
0.005710277
0.0067582773
0.003904488
2.7771515E-4
4.5460216E-5
5.977462E-4
-0.0020782305
-0.0043196296
-0.0028940157
0.0010965561
0.0016753243
-8.766728E-4
-1.0545435E-5
-6.2827003E-4
-0.0036751751
-0.0034068213
-0.0028789884
-3.6489384E-4
0.0027280382
-0.0025265606
-0.0073341206
-0.0027871279
0.0010802505
3.493767E-4
5.2354974E-4
0.0013188405
0.0019249939
0.003010725
0.0026158052
0.0012357594
0.0012686141
0.0012369091
-2.17575E-4
-5.6254584E-4
4.707574E-4
-5.682253E-4
-0.0027998053
-0.0026080222
-0.0012495158
-2.3004669E-4
0.0012093805
0.0010394789
2.549019E-6
0.0011401332
0.001409972
7.624252E-4
9.539105E-4
-0.0013634051
-0.0023206302
-1.7250863E-4
-6.914432E-4
-3.9975898E-4
0.0013114802
4.3073695E-4
0.0010948877
0.0028280031
0.002365494
0.0013798731
9.549299E-4
8.103694E-4
-5.505886E-4
-7.5696665E-4
7.2502607E-4
-4.4583908E-4
-6.1886257E-4
0.001174059
3.128708E-4
-5.8438466E-4
-0.0012168317
-0.0021716177
-0.0014179312
-0.0016640844
-0.0022474958
-0.0012776286
-6.116179E-4
-1.4960015E-5
-8.6399773E-4
-0.0018382068
6.3750613E-4
0.0014722523
-0.0012617435
-0.0016876191
-6.340714E-4
-0.0018808257
-0.0027358746
-9.158784E-4
0.0010493193
0.0023926564
0.0032071667
0.0019691691
7.904446E-4
0.0014297783
0.0020447823
0.0017919919
4.8255507E-4
-1.4470352E-4
0.0011631373
0.0021605578
0.0022928154
0.0013656464
-8.888933E-4
-0.0015243654
4.6898948E-4
0.0015092827
1.702663E-4
-3.4271732E-5
1.2086274E-4
-0.0020735848
-0.0022526302
-8.151565E-4
-0.0021417974
-0.0022989216
-3.215079E-4
-7.6481444E-4
-0.0017287151
-7.0497504E-4
-1.1071911E-4
8.348652E-4
0.0018641085
-1.7132115E-4
-5.423811E-4
7.188883E-4
-0.0018466761
-0.002552851
-7.135389E-4
-3.6668035E-4
0.0010849581
0.002007437
0.0028919578
0.003403605
-3.507792E-4
-0.0022455624
-5.219359E-4
-5.70145E-4
-2.720939E-4
0.0013856306
8.58874E-4
-3.9750844E-4
9.337941E-4
0.0012335073
4.2430533E-5
0.001323776
0.0011034138
1.6177403E-4
0.0015467847
2.6599027E-4
-0.0011049095
4.4409317E-4
9.1407006E-4
1.7331174E-4
-9.596114E-4
-0.0012823036
-3.9878296E-4
-4.933297E-4
-9.569555E-4
-6.7840493E-4
-7.101221E-4
-0.0020561528
-0.002938055
-0.0019821336
-0.0011552566
-7.627962E-4
-1.3289755E-5
7.380921E-4
-5.770215E-4
-0.0034807718
-0.002375217
8.2921435E-4
0.0013911808
0.001759118
0.002087939
0.0019243769
0.002269383
0.0027865595
0.0035389452
0.0019093645
-7.246234E-4
2.5193227E-5
0.0012983021
0.0028394444
0.0062447097
0.006073637
0.0022168332
-8.6339633E-4
-0.0033781573
-0.0040351474
-0.0029346726
-0.002562018
-0.0023725643
-0.0032196168
-0.0045408597
-0.004304448
-0.0030154542
-0.0011591053
-9.06084E-4
-0.0014683268
-0.0010424866
-0.0014262083
-0.0012404958
-0.0010487926
-5.652362E-4
0.0019880398
0.002266013
0.0018115466
0.0028132324
0.0034863355
0.004764102
0.0033335881
9.749461E-4
4.518144E-4
-4.3867098E-4
0.0014909314
0.0016236461
-0.001485942
5.374838E-4
0.0024021522
5.1714334E-4
6.216594E-4
0.0013654997
-0.0012285922
-0.003739035
-9.66281E-4
-5.899378E-4
-0.004793869
-0.0030410222
0.0010608236
0.0026546787
0.0036300095
0.0014248012
-6.6750287E-4
-0.0018784922
-0.004333289
-0.0025547794
0.0012601845
0.0010740627
2.4666602E-4
7.425003E-4
-8.243645E-5
-0.0010717391
-0.001052725
-0.0024254594
-0.0041400166
-0.0044740792
-0.0036001531
4.8238618E-4
0.004502031
0.0035736896
0.0020422828
0.0031034218
0.0040280255
0.0040606414
0.0029445724
2.2066942E-4
-0.0015582449
9.7767654E-5
0.00306306
0.0024335536
-2.0402782E-4
3.9978523E-4
0.0012463387
5.9298537E-4
0.0012586875
-4.6018203E-4
-0.0047306893
-0.006172932
-0.004987531
-0.003815817
-0.003379949
-0.0023087983
-0.001958072
-0.002096929
0.0012294985
0.0025964386
7.4627687E-4
0.0014185191
-5.984039E-5
-0.002094751
3.456883E-4
0.0023975435
0.003678685
0.0037530418
0.0023737994
0.0038904685
0.005212816
0.003102286
-2.3948163E-4
-0.002855049
-0.0026975505
-0.0010096004
-2.7285444E-4
-9.3713665E-5
-1.04066625E-4
-6.394777E-4
-0.001045817
-8.525889E-4
-0.0015231989
-0.002698615
-0.0029570458
-0.0030254573
-0.0021437313
-4.1499935E-4
8.301143E-4
0.0025276602
0.0029625231
4.3316162E-4
-0.001456643
-6.374781E-5
0.0021524872
0.002250103
0.001172252
-6.5564054E-5
-0.002006532
-0.0028223847
-0.0019494598
-0.0015537632
-0.0016444197
-0.001078323
6.0381286E-4
0.0024459055
0.0024715005
0.002947025
0.0054298844
0.005409844
0.0031020145
0.001174282
-6.961771E-4
0.0010440974
0.0035097282
0.0010537885
-4.041718E-4
-9.8633325E-5
-0.0011686102
-0.0016196804
-0.0037010112
-0.0049782963
-0.0037351751
-0.0052087284
-0.004945013
-0.0019092552
-0.00216792
-0.002218005
-0.001090818
-9.785664E-4
8.831838E-5
3.3963376E-4
-3.876507E-4
-0.0017678791
-0.004806177
-0.0028843412
0.0023000643
3.325239E-4
-0.0018169977
0.0032146375
0.0071492633
0.008500875
0.010662823
0.01211262
0.010865723
0.003765786
-0.0046262867
-0.007627088
-0.007908527
-0.006542893
-0.004086484
-0.0010344941
0.003314116
0.0035024923
7.184687E-4
4.7074736E-4
1.613362E-4
-2.5139868E-4
6.151393E-4
8.1240013E-4
-1.0438287E-4
-0.0014200156
-0.0019060416
-0.0016509511
-0.002557665
-0.005163287
-0.0051448983
-6.0576585E-4
0.0016361129
0.0014813452
0.0028084263
9.047691E-4
-0.0037655064
-0.005657409
-0.0036268216
9.5766684E-4
0.0032992966
0.0021895994
0.0011510549
6.8397203E-4
7.345173E-4
0.0015021231
0.0020967938
0.0020606709
0.0011738152
-7.5209166E-5
-1.0035322E-4
2.8512176E-4
-0.0015721271
-0.0029407507
-0.0011368139
5.279783E-4
0.0013060893
0.002267131
0.0035158307
0.004921206
0.0038318678
0.0019368593
0.0016918798
-3.180075E-4
-0.0030565253
-0.0030507648
-4.775869E-4
0.0023849767
4.5888603E-4
-0.0036529223
-0.0026270088
6.4840453E-4
0.0023221623
0.0018142657
-2.3310975E-4
-7.063263E-4
-0.0024255884
-0.0032856348
-9.373369E-5
-0.0027543136
-0.007277778
-0.005210587
-0.00442972
-0.003747413
-0.0014223283
-7.039752E-4
0.0026163398
0.0041999044
0.0013633755
1.01667356E-4
-3.9406575E-4
6.4086445E-5
0.0025495088
0.0036653904
0.0027625107
0.0038856154
0.007326783
0.006526451
0.004255038
0.005842549
0.0035390677
-0.00419004
-0.00982489
-0.011077847
-0.007974581
-0.003047623
1.8386607E-4
0.003018339
0.005073952
0.0037776157
0.0023691799
0.0010341518
-0.0016455326
-1.8509994E-5
0.0015269653
-8.9738955E-4
6.3738064E-4
0.0020175832
8.9727907E-4
0.0019453844
4.0233485E-6
-0.0035899023
-0.0046378653
-0.0040638144
-0.0020824336
-0.0013258721
2.1686422E-4
0.0024984437
0.0033572563
0.00524717
0.0033263166
-0.0015893629
-0.0026226274
-0.0027898357
-0.0036314628
-0.004021118
-0.0028588946
-1.17369964E-4
9.693328E-4
0.0012989724
2.569897E-4
-0.0011667387
6.13132E-4
-0.001160497
-0.0076376
-0.009557364
-0.0051460946
0.002126021
0.008540241
0.01176671
0.011523045
0.0092868265
0.007512396
0.004350744
-0.0012464044
-0.0071702986
-0.009879127
-0.0046087126
0.0030280573
0.0058356635
0.0063333646
0.0054563526
0.005511458
0.0075533036
0.005871055
-0.0010876969
-0.011641735
-0.01802868
-0.014491421
-0.012001266
-0.013533099
-0.011605058
-0.008054686
-0.0036471188
0.00241696
0.009864567
0.015191979
0.0082892
-0.0030826083
-0.0020710137
0.0049652215
0.0075820023
0.0068488508
0.0021933827
-0.0038636536
-0.0040478506
7.412065E-4
0.006286673
0.00919119
0.0038650695
-0.0041449578
-0.0060879854
-0.0039772512
-0.0018181985
-0.008890647
-0.019187631
-0.0119633945
0.0010943215
0.0028712018
-9.6053135E-4
-0.00567248
-0.0058917836
-0.0025910947
0.001660982
0.0059437724
0.0040950393
0.004821703
0.0071262335
0.006446516
0.018010862
0.027155705
0.019234218
0.01053446
0.0032263584
-0.002101682
-0.0021689222
0.002366796
0.006944689
-0.0023986725
-0.010189303
-0.0028249158
-3.569759E-4
-0.0013611105
2.2510307E-4
-0.0019576151
-0.0020678719
-0.0012372951
-1.1557095E-4
0.005730619
0.0053878976
-0.004952408
-0.012020904
-0.013007614
-0.01252384
-0.010343934
-0.013493251
-0.01955998
-0.019136596
-0.022088591
-0.02742701
-0.027467493
-0.027892202
-0.024480464
-0.013311694
0.0013861543
0.014178945
0.027949687
0.040877163
0.03177508
0.020005137
0.027320813
0.028509535
0.031627107
0.042974286
0.043899827
0.044873547
0.04052761
0.01669938
-0.008886204
-0.010313666
0.003270464
0.001909392
0.0057570194
0.020453032
0.0106431935
-0.008877347
-0.0151682235
-0.020516543
-0.043986026
-0.068691544
-0.06416738
-0.05165486
-0.023445679
0.016680062
0.013137922
-9.878676E-4
-0.0040402487
-0.02581207
-0.036466792
-0.03285275
-0.032198537
-0.022158926
-0.013012638
-0.021728612
-0.027664483
-0.0016478183
0.032434
0.048478324
0.038728036
0.004219083
-0.011480864
-0.0012922223
0.020447444
0.025962003
-0.016249746
-0.015784534
0.049252663
0.09307257
0.112561956
0.10119453
0.08591691
0.09084382
0.06844758
0.03876647
0.016177965
0.006027818
-0.0011976061
-0.062362228
-0.11758088
-0.11384782
-0.089815795
-0.07158392
-0.08389293
-0.096303515
-0.07972685
-0.06151986
-0.06876759
-0.08552936
-0.06156
-0.025598818
0.010482808
0.046266533
0.023189146
0.023626398
0.079510674
0.08472915
0.05490562
0.028802972
0.024470057
0.045007564
0.05534736
0.068036266
0.0799957
0.09243928
0.09835945
0.07433706
0.06884317
0.05091016
-0.032760717
-0.10372617
-0.11792039
-0.106322125
-0.09116251
-0.08111716
-0.07282568
-0.05688254
-0.037736982
-0.013270674
0.017754346
0.019523099
0.04511101
0.11769335
0.084724575
-0.029704133
-0.07715145
-0.06675116
-0.020319
0.021695495
0.015927322
-0.0033660163
-0.015065675
-0.013009234
-0.008090661
0.008191423
0.04040547
0.040418144
0.016126372
-0.013382427
-0.039418913
-0.0347194
-0.019137312
7.6483656E-4
0.01841173
0.010682661
-0.0046231267
-0.006365162
0.014779183
0.03223206
0.041635063
0.05908543
0.038027395
0.014845824
0.03837584
0.039075404
0.021459758
0.011626473
-0.025246285
-0.058644064
-0.060978495
-0.041774802
-0.012933848
-0.023724629
-0.047658067
-0.013910497
0.012002562
-0.012094641
-0.006278359
0.022802794
0.017142512
-0.006861254
-0.032586623
-0.05034012
-0.035414603
0.0032176867
0.025413586
0.034726426
0.056692936
0.043501124
0.0026004356
0.010710299
0.020116352
3.586589E-5
-0.0042393734
-0.0043866783
0.013531972
0.027968792
-0.005886641
-0.025789088
-0.019454349
-0.011682157
0.0065260543
0.008552925
0.0076861014
0.0062228492
-0.019020602
-0.034777682
-0.02853511
0.005588705
0.0425607
0.032007784
0.005210714
-0.01762405
-0.028893294
-0.016090304
-0.016788743
-0.0149787795
0.01475616
0.034837615
0.023673402
2.1360684E-4
-3.7741273E-5
0.008408192
-9.402502E-5
-0.011965552
-0.017877577
0.0016574344
0.02610099
0.023760993
0.016105672
-3.8918798E-4
-0.0059759067
0.018250711
0.014960602
-0.015074389
-0.022048533
-0.012309636
-0.010705139
-0.012045313
3.6170986E-4
0.004522091
-0.018370863
-0.036837574
-0.032291584
-0.02312037
-0.014840394
-0.002321944
-0.0021716673
-0.003176019
0.015383942
0.01921322
0.01058019
0.014046486
0.0024043329
-0.01142941
-0.005535558
0.0014444893
0.019337345
0.03485799
0.02318973
0.018613076
0.027075691
0.033020105
0.03980697
0.013180781
-0.02862035
-0.02576988
-0.013096454
-0.014062496
-0.010642928
-0.023687104
-0.038422562
-0.027472133
-0.007961651
-0.0020910827
-0.009654184
0.008767577
0.043601975
0.026697826
-0.020741407
-0.034544595
-0.020379378
-0.0032828518
0.008453274
0.009182451
-3.1445306E-4
-0.005136546
0.015530423
0.04321181
0.034378216
0.0024940027
-0.01836261
-0.029552793
-0.024908569
-0.009705393
-0.0044191843
-0.0014842144
0.0017083839
0.0015289673
0.0025362857
0.0022863653
0.0013365161
-2.597269E-4
0.0011902023
0.005353997
0.0016712062
7.4869505E-4
0.0067434413
0.005037613
0.0023131487
0.0019118974
-0.004076253
0.0041214246
0.040645037
0.06738656
0.04791934
0.0015867096
-0.037286755
-0.05257127
-0.042146128
-0.023762507
-0.019319184
-0.02393071
-0.017128978
-0.0057899137
-0.0056281956
4.747389E-5
0.01243534
0.009283778
0.0045770914
0.006749023
-0.0015599441
-0.002725261
0.01121191
0.01037619
-0.00377505
-0.011355141
-0.010136315
-0.004951205
0.0014698553
0.012227867
0.016010711
0.012462086
0.025845625
0.042590376
0.031391725
-0.0028030467
-0.027975576
-0.024023319
-0.011172523
-0.002871588
0.0027279288
-0.0044265487
-0.018495627
-0.024431994
-0.005372937
0.026654895
0.023231417
-0.006191575
-0.02059532
-0.016741121
-0.0026561955
0.00724382
0.008292581
0.0020992605
-0.010565398
-0.015178689
-0.013826745
-0.010407914
-0.0026049616
0.0066827405
0.022053525
0.023457926
0.0057259197
-0.0030047507
-0.0053956155
-0.0043614
-2.7088786E-4
2.6529768E-4
0.0070145316
0.0072250133
-2.4919133E-4
0.0014170911
-0.0023780041
-0.0063836826
0.001831842
0.008247565
0.010730316
0.007392299
7.90875E-4
0.0033740443
0.0048963036
-0.003322906
-0.007375388
-0.0030014268
-0.0010438022
-0.0026003155
-0.0033185892
-0.0037102243
-0.0041322964
-0.0045318585
-4.3250725E-4
0.004141819
-2.6316446E-4
-0.0058361744
-0.0076422375
-0.0060944376
-0.002653851
-0.0034854556
-2.1696983E-4
0.0019667014
-0.0074301446
-0.008627227
-6.0861505E-4
-8.7855384E-5
-0.0030616098
-0.0037023404
-0.002308464
0.0031079599
0.009914891
0.0040368238
-0.0055000475
0.0065325606
0.024558168
0.027214421
0.013506848
-0.011017767
-0.020932326
-0.00869053
0.0056054355
0.0086581195
8.057908E-4
-0.006311866
-0.01135199
-0.01457347
-0.011792887
-0.0032170797
0.01893984
0.039333846
0.034893785
0.0113767795
-0.01776771
-0.026728159
-0.01733133
-0.017296163
-0.012381736
-0.0021456128
-0.0067702094
-0.008381164
-3.8643536E-4
0.00479877
0.00929924
0.009612413
0.0033644664
8.807292E-4
0.0061385757
0.011204094
0.0047375243
-0.009421813
-0.014112227
-0.010688155
-0.007965305
-0.0032897282
7.1198645E-4
0.0035513486
0.0061440165
0.003923539
0.0027486142
0.005446421
0.006979088
0.006566546
0.0029798937
-0.0021784955
-0.003732537
6.0987996E-4
0.0011809634
-0.007049772
-0.010047395
-0.008251481
-0.005349233
0.0033445174
0.006553351
0.0052987016
0.0063992054
0.005468773
0.0073483074
0.0057432535
-0.0026953
-0.005088898
-0.0030887236
7.7182613E-4
0.0044895257
5.537158E-4
-0.0063904305
-0.009391368
-0.008168251
-0.0064600185
-0.0029485773
0.0067635486
0.013983853
0.0137242945
0.010288592
5.4529903E-4
-0.013067735
-0.015702412
-0.0052223243
4.0718607E-4
-0.003282267
-0.0041109417
-0.0025524634
-1.9185587E-4
0.0037748895
0.0031414323
0.0024430745
0.0060340823
0.0061538736
0.0020619223
-8.7220693E-4
-0.001045667
3.3776733E-4
0.0011803146
5.719288E-4
6.7473424E-4
0.0023830717
0.0022397928
0.0014232701
0.0019351064
0.0018717372
0.0018436207
3.3181932E-5
-0.0014387913
-1.1570836E-4
-0.0029845906
-0.006261823
-0.0043693813
-0.003922864
-0.005873244
-0.006026632
-0.0026501466
-2.036971E-4
-0.0015645283
-0.0024547735
-0.0035550667
-0.0024635282
7.6427776E-4
4.5252306E-4
0.0016281904
0.0029739253
0.0027411587
0.005506581
0.005259187
0.0050875596
0.009980442
0.011070635
0.005956566
-3.047511E-4
-0.0026689593
-0.0019514877
-0.0010698024
-5.476529E-4
-0.0017098375
2.616926E-4
0.0029879923
0.0018726608
0.0016763431
-0.0014099109
-0.0045492817
-0.0035511572
-0.0049066343
-0.0039157635
-0.001087214
-4.1719168E-4
-6.402779E-4
-0.0051370063
-0.00669573
-0.005220772
-0.005998136
-2.8022001E-5
0.007832825
0.008285863
0.004873955
5.0117384E-4
-0.002075794
-0.0029457177
-0.003713457
-0.0035841593
-0.0011448704
0.002464478
0.0029934265
0.0016882742
2.1077876E-4
-2.155136E-4
0.0016507662
0.0011396114
6.48901E-4
0.0018807866
4.803509E-4
-1.8349104E-4
2.251435E-4
-4.394681E-4
-4.8479362E-4
0.0016711855
0.0046891873
0.0029117395
5.528045E-4
7.323688E-4
-0.0022343227
-0.0033352873
-0.0020810037
-0.0027136782
-0.0011562106
-3.0601595E-4
-0.0014932224
2.9600537E-4
0.0021554632
8.83738E-4
8.0803016E-5
0.0010061177
3.8521804E-4
-8.7651494E-4
-1.4189018E-4
0.0018130442
0.0025792336
9.801369E-4
2.1432435E-4
-9.398878E-4
-0.0030364636
-0.0011842541
-1.2931318E-4
-6.3886953E-4
0.0017744576
0.002334059
0.0017732035
0.0021157395
0.0020162833
0.0024906427
3.8237355E-4
-0.0029489712
-0.0031366353
-0.002395424
-0.0039257854
-0.006235513
-0.0043832823
-0.0017314435
-0.002391184
-0.0026025646
-0.0027184705
-0.0024695173
-0.0010335322
-1.258057E-4
9.6097E-4
3.9739936E-4
-5.612365E-4
-1.9214975E-4
1.1463371E-4
0.002729153
0.0035706034
0.0015937899
0.0035009119
0.004388915
0.002271285
0.0028706617
0.0041552545
0.0042825053
0.0023497636
5.8335386E-4
0.005567726
0.010008999
0.00559829
3.386228E-4
-0.0019108594
-0.0040849764
-0.0046916576
-0.005152951
-0.007345097
-0.0073957937
-0.004853383
-0.0054396465
-0.0070610805
-0.0028823195
-4.806136E-4
-0.003985002
-0.0027487315
0.0012523865
0.0020578457
0.00320334
0.0034094146
0.0034374353
0.0053903665
0.0052647153
0.003694493
0.0029407507
0.0016701457
3.8398313E-4
0.0010713175
0.003345686
0.0045449827
0.0033908815
-4.947662E-6
-0.0029738257
-0.0027676192
-0.0023385799
-0.002334498
-7.715958E-4
-7.4192573E-4
-0.0025260844
-0.0020678332
-0.0014659731
-0.004939339
-0.0075025884
-0.0044807177
-0.0017195571
-0.0027128658
-0.0028904753
3.4001042E-4
0.0028427907
0.00298341
0.0047911215
0.0055653187
0.0036593808
0.0031884469
0.0017445994
-2.2254148E-4
-5.205673E-4
-5.7324197E-4
0.0012363308
0.0012492437
-5.39639E-4
9.6266234E-4
0.0015607825
0.0017921609
0.004169311
0.005791084
0.0065466296
0.0023069442
-0.0043092533
-0.0037202823
-1.2517595E-4
0.0010981589
6.5635523E-4
-0.0010659214
-6.1545236E-4
7.748753E-4
-7.221237E-4
-0.003020783
-0.004671622
-0.0044286195
-0.002973296
-0.0047033806
-0.0058734077
-0.0028353783
-0.0020074649
-0.003077508
-0.0016322556
-7.265687E-4
-6.257232E-4
8.8931854E-5
2.5912828E-4
0.0010192255
0.0015009169
0.0010865938
0.001476021
0.0010188771
9.4602915E-4
0.0026281911
0.0020909687
0.001733153
0.0033606468
0.0025927236
0.0028915168
0.004605437
0.0036982286
0.0045790826
0.004434385
7.9745904E-4
1.6775078E-4
-7.242363E-4
-0.0020206533
-8.7567704E-4
-0.0025200078
-0.0032236122
-0.0011840991
-7.228779E-4
-3.5653276E-5
-4.8831146E-4
-7.9839234E-4
6.96942E-5
-0.0020320183
-0.0027651382
-2.4052472E-4
0.0014267279
6.6582946E-4
-0.002627232
-0.0035950216
-0.0023089787
-0.0021682472
-3.4014168E-4
6.668355E-4
-0.0011505743
-9.7641186E-4
0.0013403861
0.0020601752
6.9182535E-4
0.0012684106
0.0024923726
-4.1754547E-4
-0.0023857695
-6.3346495E-4
3.4603078E-4
3.6579842E-4
-3.4222743E-4
-0.0015519637
-0.0018291406
-9.7064005E-4
0.0011679515
0.0019577658
0.0017652721
0.0027219246
5.5110344E-4
-0.0020316776
6.4553996E-4
0.0025951362
0.0019220676
0.001886206
0.0012711155
7.471227E-4
-4.78081E-4
-0.0016067956
1.9810682E-4
9.361046E-5
-0.0018636006
-0.0010713437
-1.6453829E-4
3.2799628E-5
1.1547136E-4
-2.145702E-4
-9.028249E-5
-6.6519703E-4
-4.8007324E-4
3.6495956E-4
-0.0012631202
-0.0035613442
-0.004664241
-0.0026657034
0.0016343803
0.0025127607
0.0012213902
4.2735258E-4
4.0297385E-4
0.0025230506
0.0028397436
0.0010386308
6.840225E-4
1.0408956E-4
-6.081514E-4
-0.0012417724
-0.0017405008
-0.0012244789
-9.2400075E-4
8.716297E-4
0.0023989591
8.2710374E-4
-4.110237E-4
-0.0010313661
-3.596952E-4
8.617667E-4
-6.7037775E-4
-8.816468E-4
4.5663925E-4
9.6620404E-4
0.0013756133
-1.8031152E-4
-1.8195096E-4
7.713364E-4
-0.0016369432
-0.002218998
-0.0013908137
-7.550527E-4
0.002403384
0.0036542204
0.0023936406
0.0024739562
0.001846807
-0.0021978195
-0.0041482546
-3.190539E-6
2.887432E-4
-0.0036223812
-0.0024127571
-2.3007947E-4
0.0010647911
0.0023627093
0.0016368873
0.0013151019
-8.0052606E-4
-0.0028624225
-0.0010784236
-2.6671667E-4
2.3366266E-4
8.7433E-4
4.0893257E-4
0.0011742492
2.490145E-4
-0.0011530572
3.961852E-4
0.0012262228
5.7168887E-4
-6.8858867E-7
-5.628726E-4
-0.0011107796
-9.714996E-4
6.7557587E-4
0.0021753784
0.0025982321
0.0021654207
0.0010257924
7.009655E-5
-6.8263785E-4
-1.1574419E-4
-1.221526E-7
-0.002125903
-0.0019027854
-5.1015086E-4
-1.1323879E-4
0.0016168403
7.1116665E-4
-0.0017068922
-0.001664836
-0.0014216898
0.0010585927
0.0024102055
-8.343316E-4
-0.0018802474
-0.0013949412
-2.1994962E-4
0.002770373
0.0017073862
-0.0011391037
-0.0017023082
-0.0019240675
-0.0010451524
6.0457113E-4
0.0017525397
5.632936E-4
-0.0017617434
-4.2088167E-4
6.101066E-4
-0.0010350426
-4.0396972E-4
3.823963E-4
-9.611348E-4
-0.0013980351
-6.372151E-4
3.2672932E-4
0.0010746156
5.86995E-4
8.025326E-5
0.0013986222
0.0026927618
0.0025635369
0.0016686621
-6.728825E-5
-8.492803E-4
7.3049116E-5
6.791221E-5
-4.0325936E-4
4.947584E-4
0.0017092978
0.0028055888
0.0029410378
3.5033425E-4
-0.0022286405
-0.0017174921
-1.6870604E-4
-9.7557786E-5
-0.0016662567
-0.0028862704
-0.0024937165
-0.0014874364
-3.0285158E-4
2.037764E-4
-4.2872207E-4
-0.0015231464
-0.0020352437
-5.488184E-4
9.3432906E-4
0.0012225177
0.0010471003
-9.028656E-4
-0.0027881772
-0.003003629
-0.0013019409
0.0017317169
0.0017514058
0.0014261984
0.0029681446
0.0021044246
0.0013948319
0.0010989896
-4.5407782E-4
-1.2881824E-4
3.2386053E-4
1.953397E-4
0.0010703275
0.0012151945
7.053653E-5
-6.068455E-4
4.6699014E-4
6.785823E-4
1.3984149E-4
6.3320994E-4
-0.0012402245
-0.0029242877
-0.001337649
-4.5723392E-4
-4.6176362E-4
-9.792162E-4
-0.0015041094
-2.9668678E-4
2.2030326E-4
1.3517961E-4
0.0010433713
0.0017921206
0.0016327687
1.7081095E-4
-5.9604214E-4
-4.112115E-4
-0.0011615938
-2.148783E-4
0.0017705235
0.0015729369
0.0016656886
0.0021538395
0.0012457006
0.0012629874
0.0014313951
-0.0011043528
-0.0030660988
-0.0016809328
-6.6272396E-4
-0.0015124846
-0.0015734694
-0.0015641733
-0.0030139368
-0.0029877166
-6.588843E-4
-2.1933051E-4
-1.9736864E-4
0.002299358
0.0022899038
2.554459E-4
-6.2411884E-4
-0.0027675151
-0.0016907098
0.00296744
0.0027730335
-3.0287483E-4
-5.144623E-4
0.0027106234
0.0051820064
0.0020436377
-0.001593215
-0.0010911976
7.8123034E-4
0.0018773434
0.0011520843
2.0075821E-4
-6.29107E-4
-0.0016474422
-4.3880552E-4
0.0010200762
0.001479085
0.001861139
5.367479E-4
-0.0014588056
-0.0028192045
-0.0025759176
-9.562287E-4
-7.029036E-4
-1.0993867E-4
6.901654E-5
-0.002732225
-0.002475502
0.002118528
0.0036382752
0.0010509369
-7.153081E-4
-0.0012560238
-0.0029106175
-0.0015716724
0.0025822702
4.4266027E-4
-0.0037241282
-0.0011574139
0.001283654
1.2256802E-4
4.509029E-4
0.0013802636
0.0010198149
0.0013487624
0.0027353899
0.0020468424
-4.4655232E-4
-5.8163045E-4
1.2951679E-4
-6.0655762E-5
0.0014701014
0.0025004335
6.29647E-4
-9.524631E-4
-0.0013415812
-0.0012087736
5.76462E-4
6.9293956E-4
-0.002932379
-0.003501136
-9.364615E-4
-0.0012904888
-8.486987E-4
0.0011153829
7.892657E-4
9.192288E-4
-1.3147487E-4
-0.0024020728
-7.339192E-4
5.5701873E-4
-7.20568E-4
-9.420188E-4
-9.1604714E-4
7.414893E-4
0.00325072
0.002840983
0.0019519186