0.0036873757
0.004243117
0.0015376884
0.0022952273
0.0052731982
0.006052446
0.0056943814
0.004443313
0.0036313164
0.0024121127
-6.646665E-4
-0.0026919746
-0.002526729
-0.0016115376
-0.002646039
-0.005376912
-0.0060424213
-0.004869814
-0.00385267
-0.0039873156
-0.003988869
-0.002435461
-0.0016501672
-0.0016073628
-0.0022220188
-0.0036122904
-0.0026959176
-0.001455591
-0.0016962414
-9.488719E-4
5.9037394E-4
0.0019855513
0.0023249271
0.002610413
0.003019755
0.0018738031
0.0029713518
0.005236766
0.004636556
0.0052542584
0.006030856
0.004955692
0.0051137945
0.0034093233
-4.3052528E-4
-0.002363382
-0.0030290834
-0.0021880388
-0.0013376276
-0.0028354595
-0.0031301384
-0.0025054538
-0.004355552
-0.004139719
-4.487036E-4
4.6196615E-4
-2.8198602E-4
-2.4082122E-4
-0.002699193
-0.0041900696
-0.0016131856
-3.9523793E-4
-0.0011223188
-8.1819104E-4
-8.4711454E-4
-0.0011227683
7.311191E-5
0.0021212744
0.0038111093
0.0041725454
0.0037502435
0.004187938
0.0035433702
7.889175E-4
-3.5557267E-4
-2.0115393E-4
-0.0013708598
-0.0019888524
-0.0019368075
-0.002287936
-0.0016642092
-9.929666E-4
-5.2525254E-4
6.285543E-4
3.1612054E-4
3.0220315E-4
0.0028080351
0.0031966593
0.0017708389
0.0014540968
-0.0010594246
-0.0035082994
-0.0019476352
-5.483542E-4
-4.603605E-4
2.0141575E-4
3.4116482E-4
8.891317E-6
-4.343133E-4
-5.37456E-4
4.2848228E-4
1.4499019E-4
-0.0014637773
-5.551729E-4
1.9575795E-4
-0.0025813275
-0.0024677338
4.7992854E-4
-8.378454E-4
-0.0023562135
-9.897405E-4
-1.3193104E-4
0.0010979237
0.001343452
0.0010148482
0.0031098495
0.0036359986
0.0024004094
0.0016807746
5.4859294E-4
0.001959466
0.0035149914
0.0020456507
8.727321E-4
-0.0016908548
-0.002978688
-5.25033E-4
-0.001497754
-0.00285177
-9.288456E-4
-4.529298E-4
-8.713945E-4
-0.0017249231
-7.6394563E-4
0.0019666268
8.204186E-4
-0.0012569886
-0.0030312806
-0.0040527554
-6.4542395E-4
1.3560236E-4
-0.0019375077
-8.469643E-6
0.0016871543
0.0010117309
7.202033E-4
0.0012923457
0.0015324024
0.0015014512
0.0025728934
0.0019295368
0.001052409
0.0022994238
0.0012833318
1.8024161E-4
-2.9349825E-5
-0.0019024394
-0.001887735
-0.0012450643
-8.7015535E-4
7.8507187E-4
-6.184264E-5
-0.0015697662
-5.943261E-4
0.0010189237
0.001905292
3.4764525E-4
-9.564755E-4
-2.698878E-4
-8.699664E-4
-0.0018486814
-0.0027001444
-0.0023656704
2.274016E-4
1.12326394E-4
-0.0010277795
-5.972086E-4
-0.0013035911
2.2853687E-4
0.0017255358
1.8182701E-4
0.0011825664
0.002211375
0.0010280948
-1.6208572E-4
-0.0015508031
1.2002801E-5
0.0014488566
4.8529568E-5
0.0010100798
0.0021331827
0.0010614379
4.4969821E-4
5.9595157E-4
0.0011344214
9.798672E-4
0.0012705739
0.0025821321
0.0023817418
0.0013393959
2.8877828E-4
-0.0013628994
-0.0032682074
-0.0037485892
-0.0013058354
0.0011713243
0.0014361694
1.7641738E-4
-0.0020885926
-0.00393807
-0.004775903
-0.0037786486
-0.001959805
-0.0016296956
-8.5555844E-4
-2.747623E-4
-5.40278E-4
0.0011195665
0.0026946997
0.0028997625
0.001919044
2.3801967E-4
0.0013542458
0.0021743574
6.261325E-4
8.595906E-4
2.503792E-4
-0.0014028342
-5.340156E-4
-7.474114E-4
-0.0017657706
-6.2786206E-4
6.128866E-4
0.0020930741
0.002401711
9.051983E-4
0.0019710623
0.0025701325
1.5281729E-4
-5.5991655E-4
-4.6954918E-4
-8.577874E-4
-0.0011926211
-0.002028248
-5.439876E-4
0.0013995238
0.0020393264
0.003520237
0.0022106373
-4.1390903E-4
5.114998E-4
0.0013965011
-5.9170445E-4
-0.003318361
-0.0029608854
-0.0011009068
-0.0020817488
-0.003188933
-0.0035407452
-0.0027663365
4.2201648E-4
-4.42922E-4
-0.0040689167
-0.0019093982
0.001979345
0.0012385993
-6.693567E-4
3.1369325E-4
0.0027649915
0.0031894678
0.0013851274
0.0011374454
0.0018359072
2.1483474E-4
1.4268476E-4
0.0016227945
1.9074487E-4
-4.5645953E-4
4.632956E-4
8.6726846E-5
2.6056488E-4
5.241069E-4
-1.5814566E-4
-8.620668E-4
-8.52003E-4
1.5288535E-4
4.4262988E-4
-5.1917083E-4
-0.0015184279
-0.0015074732
-3.7976736E-4
7.605074E-4
0.0010631633
6.0001155E-4
0.0011622305
0.0017170854
8.9671183E-4
0.0014156296
0.0017639425
9.987253E-4
9.814949E-4
6.338627E-4
7.9982216E-4
-1.9762362E-4
-0.002245154
-0.0010966121
-1.1088411E-4
-2.1828836E-4
-3.2024467E-4
-0.0024459963
-0.002677051
-0.0013172388
-0.0015824544
-0.002607273
-0.0039457795
-0.002133812
5.135226E-4
-3.7395002E-4
-8.327694E-4
-9.2603086E-4
-9.967794E-4
7.7163894E-4
0.0012310761
8.297682E-4
0.0012325771
7.167759E-4
-4.3351026E-4
-4.998661E-4
0.0010326046
0.0017216612
0.0010276765
0.0016608756
0.0030683305
0.004108753
0.003579876
0.0011890386
0.0010354619
0.002528283
0.0015659889
-2.3219692E-4
-6.7658175E-4
2.6245526E-4
0.0017348367
0.0020817074
0.0013417333
-4.3932622E-4
-0.0030822589
-0.004106787
-0.0029005408
-0.0017104603
-0.0020444614
-0.0037835822
-0.0047605173
-0.0036929082
-0.0022905811
-4.269153E-4
9.4713777E-4
-5.685764E-4
-0.0013571214
1.3121552E-4
8.73048E-4
9.442437E-4
-9.570028E-6
-8.375764E-4
3.0049272E-5
5.854086E-4
0.0017238618
0.0037198667
0.0045292173
0.0043116207
0.00348331
0.0032345948
0.0028031634
6.5060833E-4
-0.0016896232
-0.0035811907
-0.0039020558
-0.0024032986
-0.001963338
-0.0020345964
-9.1464486E-4
-7.8206917E-4
-0.0010942955
0.0014940407
0.0026700413
-8.588585E-4
-0.0024022323
-3.672971E-4
0.0012824808
9.364119E-4
-1.6157365E-4
0.0017026216
0.0030052476
0.0016068474
0.0013879102
-3.8886737E-4
-0.002017221
-6.0282816E-4
-4.143187E-4
-5.0168927E-4
2.3756028E-4
0.0013111618
0.0026025937
0.002623315
0.002814122
6.216824E-4
-0.0034192984
-0.0033498304
-0.002798051
-0.0034064865
-0.0021631687
-0.0010418501
-6.5375696E-4
-4.530088E-4
5.8628805E-4
0.0012852796
-2.1699358E-5
8.26299E-5
-4.1884117E-4
-0.0017310868
6.480457E-4
0.0011888935
-6.1747775E-4
-7.848599E-5
-2.7849455E-4
2.1258667E-4
0.002021107
0.0014943769
-3.4735302E-4
-0.0017534012
-4.5730537E-4
1.7868422E-4
-0.0022130955
2.8903477E-4
0.0047462746
0.003609791
0.0016226092
0.0011229363
4.985459E-4
-3.0464342E-5
-9.505132E-4
-0.0015396202
9.571701E-5
0.0025805873
0.0014912077
-0.0013043477
-0.001906828
-0.0022960098
-0.0018033774
6.291457E-4
0.0019049651
3.5008087E-4
-0.0017731773
-0.0012784664
-4.1446695E-4
3.9549082E-5
0.0012675014
5.7686477E-5
-8.5635454E-4
7.0900883E-4
0.0010212924
6.25778E-4
-0.0018503079
-0.0052275667
-0.0027592373
0.0020049568
6.5450417E-4
-0.0033919094
-0.0026061733
-0.0017535231
-0.003046731
0.001208532
0.004680035
0.0019951668
0.0023291074
0.0032851906
9.8019E-4
0.0010889907
0.0014774523
0.0012846432
0.0030375668
0.0020239342
-5.243717E-4
6.017682E-5
-1.9535865E-4
-0.0013111648
7.215338E-4
0.0021286227
1.7466497E-4
-6.4418453E-4
8.832424E-4
5.5019296E-4
-0.0018068793
-0.0032194897
-0.003251155
-0.0021696123
-0.001184192
-9.146147E-4
-0.0013238542
-0.0042859768
-0.006909844
-0.004255501
3.1418787E-4
0.0017366476
0.0022020482
0.0044660415
0.005768399
0.005068767
0.0041513587
0.0027863742
0.0015496158
1.8151963E-4
-0.0015815666
-0.0018252848
-0.0015181132
-0.0013092705
-2.5116984E-4
0.0016995802
0.0042300303
0.004770416
0.0026310668
-3.4000655E-4
-0.0023876587
-0.0019828451
-7.198324E-4
-3.6354558E-4
-0.0027323782
-0.0058294083
-0.004295976
-0.0030779957
-0.0045331586
-0.0023160041
0.0014502944
0.0028028581
0.0019945658
5.265853E-4
5.8677975E-5
-8.211644E-4
-0.002167168
-0.0034787904
-0.0029478394
-6.2086045E-5
-1.0478848E-4
-5.5217628E-5
0.0033968447
0.006178246
0.0097190095
0.009022789
6.3547434E-4
-0.0046769446
-0.0041910955
-0.0013277472
0.0013121107
7.722041E-4
0.0010677326
0.002165925
0.0018315981
0.0022992871
9.845672E-4
-0.0011442224
-0.0019007196
-0.0042333542
-0.0043865624
-0.0012414674
-7.668491E-5
7.689648E-4
0.0019187499
5.2743335E-4
-3.586903E-4
0.0014331993
0.0032076125
0.0028205186
-3.6880418E-4
-0.004423442
-0.0062556425
-0.004262661
8.4509194E-4
0.003978685
0.0032886046
9.6553506E-4
-0.0031813208
-0.004879907
-0.0039847046
-0.0050218212
-0.0029911275
-6.805556E-4
-0.0027812987
-0.0020163222
-0.0011110846
-0.0014535672
0.001969154
0.0032992149
0.002875532
0.0034852135
0.0019479204
0.0022836088
0.0047096987
0.0046135415
0.0029885815
0.0033796616
0.006621715
0.0058588297
4.6680903E-4
2.8241458E-4
0.004240409
0.0033355574
-0.0010290843
-7.122313E-4
0.0027625626
0.0020035913
-0.0023794496
-0.007465916
-0.009737289
-0.0065982337
-0.004040689
-0.00483789
-0.006133035
-0.0073789265
-0.005115806
7.9536956E-4
0.0022501268
-2.6051016E-4
0.0017234002
0.004830536
0.002899088
1.0271883E-4
-0.0015927512
-0.0025052694
-0.0013675799
6.037394E-4
0.0026474653
0.002556446
0.0011667811
0.0024299351
0.004034249
0.005614397
0.007965301
0.007207657
0.003115328
-6.688308E-4
-0.0019185812
-0.0027467192
-0.0033604326
-0.0013640554
-7.474902E-4
-0.0025055541
-0.0027966278
-0.0016420771
-3.363611E-4
-7.7902066E-4
-0.0019905586
-0.0022940435
-0.0027249486
-0.0026258691
-0.0021957122
-0.001358185
-0.0013162461
-0.0032592674
-0.0029077905
-0.0013610101
-4.0587818E-4
0.0024359035
0.0027900303
0.001145753
0.003900932
0.008464131
0.010590172
0.008598437
0.0017408011
-0.0027535295
4.8163458E-4
0.0023210177
-7.5319834E-4
-5.4741505E-4
1.9174298E-4
-0.0022468208
-0.0026700904
-0.0026885534
-0.0033233585
-6.948009E-4
0.001792609
-0.0010182278
-0.0053024697
-0.0042697717
-0.0016873507
-0.0030860868
-0.0049352343
-0.005045094
-0.0020856927
0.0019564063
0.0022540663
0.0046035685
0.0068753883
0.0010682952
-0.0016767308
0.0022925606
0.003736325
0.0026593308
-0.0024836136
-0.008868008
-0.008547848
-0.00373501
0.0032681194
0.008469216
0.007813798
0.005147442
-3.0977788E-4
-0.0068355794
-0.0068267104
-0.0013643244
0.0036481011
0.0048404993
0.0036135567
0.0019021406
0.0010518172
0.003711125
0.0062600127
0.0052107964
0.002221303
-4.0657597E-4
8.904444E-5
0.0015118984
4.4877315E-4
-0.0038630543
-0.0078062858
-0.0053848303
-0.0029286696
-0.0042876494
-0.0036472636
-0.003565583
-0.0038183287
-0.0023711186
-0.0027907332
-0.0035346712
-0.0026659765
7.420296E-4
0.0046416717
0.0046867914
0.0027974306
2.4266695E-4
-0.001236719
-0.0024426961
-0.0071577993
-0.0064682653
0.0014164456
0.0050483514
0.006754353
0.010638083
0.010065357
0.00391706
-4.0888102E-5
5.538152E-4
-0.0019767508
-0.0064447904
-0.005409703
-0.004304754
-0.004267975
0.001417896
0.007915141
0.01211939
0.014802235
0.008055379
-0.0027674937
-0.002805587
-1.0337055E-4
-0.0027600073
-0.0013466501
0.0014072584
-7.908585E-4
-0.0037995074
-0.008622378
-0.011803906
-0.008426936
-0.006974897
-0.010336931
-0.00972967
-0.0023078546
0.0026981605
9.186781E-4
0.0020414656
0.005145181
0.0019293237
-3.4163042E-4
0.0027501758
0.004247932
0.0024260776
0.0013432237
0.003567358
0.0054217773
0.0034454234
0.003369655
0.0067877476
0.006911865
0.0070415414
0.008369138
6.325778E-4
-0.010883019
-0.018040556
-0.024045281
-0.022169825
-0.010798781
0.0018276323
0.012106989
0.013173135
0.0059436
-0.001920177
-0.0068159825
-0.0030731503
0.0052489103
0.010064437
0.011323968
0.0092058405
0.008633212
0.010785587
0.008666887
0.0025893068
-8.659313E-4
0.002642354
0.005966895
-1.4057003E-4
-0.010513783
-0.018539561
-0.023125578
-0.021798411
-0.012899489
-0.0032049292
-0.0027834722
-0.004129659
0.0027725874
0.009903185
0.013254967
0.010980841
-0.0021348759
-0.013407843
-0.010628808
-0.0018858648
0.0041885567
0.005449287
0.0038303107
0.0060371654
0.010689973
0.0134551
0.014554063
0.0050395895
-0.007916128
-0.006974255
-0.013606382
-0.032532733
-0.033058427
-0.020671284
-0.008162632
0.0069612428
0.015519143
0.0133944815
0.0077599767
0.012446046
0.018219003
0.004934581
-0.0031977317
0.0083276015
0.022817723
0.031753197
0.024749663
0.015160029
0.013066035
4.588738E-4
-0.010999449
-0.012286283
-0.018356996
-0.025009668
-0.023284677
-0.01799047
-0.019151269
-0.026093725
-0.034683198
-0.038967572
-0.025537236
-0.00482941
0.011274945
0.029277315
0.050507534
0.07903723
0.10926998
0.13549948
0.14837794
0.12203773
0.070560314
0.019446656
-0.02790425
-0.05693593
-0.07509672
-0.10662108
-0.14522758
-0.15442902
-0.12238557
-0.09053077
-0.07943492
-0.06616413
-0.025072884
0.023039464
0.016950276
-0.03214726
-0.08255583
-0.11448263
-0.08826499
-0.046909004
-0.0463801
-0.038972653
0.0059125274
0.08426611
0.16781452
0.21096288
0.22631232
0.22658664
0.2088452
0.19587676
0.19556983
0.18727937
0.118352965
-0.019855062
-0.14211123
-0.21820705
-0.28327006
-0.28970265
-0.18410218
-0.049805336
0.003272909
0.005882182
0.05573339
0.1450254
0.17773828
0.11963961
0.023767054
-0.10206302
-0.26924384
-0.35783106
-0.29549307
-0.18087903
-0.04213131
0.11841025
0.23059487
0.2975396
0.2744792
0.13479897
0.025678681
-0.028177463
-0.09479888
-0.11777961
-0.06517178
0.02040393
0.06313517
0.0502914
0.037361663
-0.033979125
-0.16755325
-0.24475567
-0.24863154
-0.16081834
0.018634757
0.16239892
0.24731274
0.28921044
0.17771634
-0.016677635
-0.060718246
0.037546813
0.12918942
0.14478041
0.10390792
0.107433096
0.092438616
-0.064078294
-0.2089206
-0.23447104
-0.21541546
-0.116260424
0.083665736
0.22316127
0.19157538
0.09145318
-7.7555364E-4
-0.119866654
-0.23287542
-0.27691615
-0.21473935
-0.11366788
-0.090863645
-0.0942282
-0.068691194
-0.024888577
0.04520347
0.13142848
0.23907891
0.27425787
0.21931311
0.17581524
0.09585079
0.101031795
0.2779767
0.34445858
0.17659058
-0.1444857
-0.4008774
-0.35634065
-0.17478764
-0.07425175
-0.06638759
-0.074566625
-0.015103874
-0.0061628134
-0.0798567
-0.122864306
-0.1474756
-0.11372814
-0.028383426
0.018245155
0.0071143745
-0.06775292
-0.07510937
0.02432249
0.06563204
0.07300671
0.08303942
0.05200839
0.05059404
0.08148098
0.12737632
0.18927771
0.21709423
0.23255207
0.20020415
0.10649528
0.060614087
0.035065886
0.012045359
-0.021645637
-0.16352722
-0.26158184
-0.2159245
-0.16676621
-0.103140004
-0.025783338
0.0029827154
0.007461373
-0.029224234
-0.06736884
-0.04907501
-0.024265712
-0.025162322
-0.040318124
-0.042636164
-0.027002279
-0.009521186
0.0018540308
-0.011955293
-0.01983588
0.0052841473
0.03492485
0.064241804
0.08227529
0.0827798
0.08086802
0.07399745
0.06659594
0.057812613
0.044064432
0.025083117
-0.0013188533
-0.01759577
-0.02877006
-0.045155816
-0.04904946
-0.045785706
-0.042227253
-0.030800985
-0.01902911
-0.009095259
0.0016995751
0.009080811
0.014376467
0.018911785
0.016899055
0.010188288
0.006383556
0.0026991712
-0.0017309212
-0.0057399133
-0.012541406
-0.016831027
-0.01819718
-0.022581344
-0.024150698
-0.018993132
-0.011558249
-0.004068205
0.0022854356
0.008140603
0.0137213925
0.016585497
0.016008554
0.013963945
0.014285276
0.01273955
0.006315834
0.0044953916
0.0016469936
-0.009013896
-0.013972784
-0.012916932
-0.01028478
-0.0061986945
-0.008805754
-0.012998971
-0.010577713
-0.0036636444
0.0027032918
0.0044928207
0.0072331205
0.005758945
-0.0049739326
-0.008603695
-0.002385028
0.0039003852
0.0043015964
-0.0017048008
-0.0036747535
-0.0015514457
0.0011616581
0.0077732974
0.016891299
0.028906746
0.034482554
0.023110861
0.0016053218
-0.021583773
-0.036255486
-0.036026374
-0.026977802
-0.016742676
-0.008537492
-0.0011390114
0.0026009313
0.0022902503
-2.6494474E-4
-0.007592674
-0.0089710355
-0.001854171
8.092131E-4
0.0022838917
0.0050840527
0.0063672564
0.008420234
0.0074166716
0.005412445
0.008424074
0.013362927
0.015539721
0.015041208
0.016868861
0.019703189
0.018532436
0.014606611
0.009840467
0.00842421
0.009728844
0.006879569
0.0024274893
-2.449883E-6
-0.0024147297
-0.0046136514
-0.006503884
-0.008573897
-0.0097587565
-0.00946507
-0.009717896
-0.010026769
-0.007978293
-0.008116749
-0.010909212
-0.01270512
-0.016159818
-0.017029166
-0.013934147
-0.0140046775
-0.0137008615
-0.011749666
-0.010539787
-0.0070789247
-0.004042288
-0.0013021694
0.0029716382
0.006190904
0.009600715
0.0119319465
0.012089667
0.011903911
0.0119410865
0.01350495
0.013754357
0.012599721
0.012216847
0.010560952
0.008941238
0.006850791
0.006210217
0.008607372
0.0074329916
0.006187507
0.0069688
0.0053545567
0.003969944
-2.568592E-5
-0.0037805687
-0.0027751077
-0.005674667
-0.009640682
-0.009409931
-0.009481471
-0.009272891
-0.009781208
-0.010090399
-0.0067647328
-0.005189253
-0.00698063
-0.0069154683
-0.0050938474
-0.0048466665
-0.005749787
-0.00474387
-0.003325089
-0.0043570157
-0.00398937
-0.0017871205
-0.0026912075
-0.003238522
-0.0010393078
-8.205531E-4
-0.001357223
5.698163E-4
0.00384615
0.005162541
0.0046271477
0.0062483368
0.006570559
0.0047828937
0.0062515913
0.0063846554
0.003634422
0.0024751285
8.813954E-4
-0.0011825206
-0.0014112914
-5.2280846E-4
3.509775E-4
0.0014317267
0.00236184
0.0022768562
0.0031613975
0.0031717222
0.0012227934
0.0023904706
0.0023567288
-0.0029678943
-0.006688897
-0.0068336814
-0.0049850736
-0.0023431922
-0.0023421894
-0.0034030539
-0.0019440406
-3.2185504E-4
-7.087365E-4
-0.0014825634
-0.0018402839
-5.5297354E-4
7.4298785E-4
-8.313438E-4
-0.0013363682
-5.935897E-4
-6.996474E-4
-1.8562422E-4
-0.0015572815
-0.0027728393
-0.0024941785
-0.0041966294
-0.004054386
-0.0018453787
-0.0012540092
-0.0026890791
-0.005078367
-0.0043140096
-0.0022960806
-0.0013868785
-9.99827E-4
-0.0025511126
-0.0013600911
-7.409129E-6
-0.0026105403
-0.0015434236
-1.8160214E-4
-8.8554417E-4
0.0014518606
9.3273295E-4
5.507413E-4
0.0045303097
0.0035998826
0.0012992282
0.0027582643
0.0014756756
1.0456003E-4
5.6919013E-4
-0.0021619014
-0.003737421
-0.0015901489
-0.0015299602
-0.0023520372
-5.5242283E-4
7.679973E-6
-0.0013519109
-5.8160163E-4
1.1405665E-4
-0.0011780339
-0.0013964571
-9.988002E-4
-2.684022E-4
1.634634E-4
-0.0016952695
-0.0018375884
-6.8054236E-5
3.4695442E-4
4.2076618E-4
-7.4337365E-4
-4.3967087E-4
0.0016054809
-3.9742095E-4
-0.001351011
7.930042E-4
-3.5591522E-4
-7.8062824E-4
0.0013294917
9.835918E-4
4.231018E-4
0.0017288513
0.001433139
1.6569163E-4
0.0024137525
0.005176872
0.004026966
0.002743899
0.0026649286
0.0028899945
0.00348308
0.0021508434
0.001335117
0.0017421714
1.08859625E-4
-0.0013149144
-0.001804692
-0.0013672019
5.8391164E-5
-0.001511963
-0.004797883
-0.005473495
-0.0031805288
-0.0015987146
-0.002704033
-0.0022939227
-0.0015672228
-0.0023730008
-0.0015709024
-0.0016488516
-0.0020460885
-0.0011462892
-0.0017673023
-4.2597088E-4
0.0034784167
0.005060772
0.0044430653
0.004159431
0.004354953
0.0032482368
0.0022299595
0.0018027076
5.6611776E-4
0.0011506899
0.0018312003
-8.7325505E-5
-5.475955E-4
9.2520396E-4
7.247414E-4
-7.9492707E-4
-8.7037386E-4
-9.180782E-5
2.0722502E-4
1.5369804E-5
-0.001844718
-0.0027764498
-0.0011602158
9.6897405E-5
7.8568445E-4
1.4211771E-4
-8.653786E-4
4.411889E-5
-2.1327079E-4
-0.001486091
3.9040697E-5
0.0024903594
0.0017069012
5.2124093E-4
0.0018417719
7.9864357E-4
-0.0011839054
3.6872827E-4
0.0014045177
2.7837438E-4
-1.999565E-4
4.8436658E-4
-6.3049333E-4
-0.0024658318
-0.0011378728
-7.9923595E-4
-9.978045E-4
9.2087075E-4
9.4462826E-4
0.0013349943
0.0016336966
-3.1206295E-5
2.12934E-4
7.900916E-4
0.0015690401
0.0023134032
0.0010258438
-4.3475933E-4
-0.0018181548
-7.0184935E-4
0.0010139099
6.8984844E-4
0.001767484
3.9657485E-4
-0.001870881
-8.9590845E-4
-0.0012016635
-8.8508154E-4
6.005951E-5
-2.104367E-4
-6.154806E-4
-0.00230653
-0.0017194691
-0.0010618
-0.001648151
5.1332504E-4
-2.5343661E-5
-9.2196756E-4
-2.4568185E-4
-0.0019787662
-1.1369365E-4
0.0015924021
0.0011859441
0.0037418406
0.002135044
-4.9658E-4
0.0011160416
0.0016040924
0.0011781288
-2.8399713E-4
1.8811831E-4
0.0033780164
0.0033879809
0.003171938
0.0036500595
0.0031881032
0.0022161636
-0.0017265411
-0.0037171512
-0.0026766555
-0.0028212895
-0.0012645674
-3.0957672E-4
-9.974793E-4
-1.8478619E-4
-7.5738586E-4
-0.0011781073
-0.0011671504
-0.0034294617
-0.0030693007
-0.0011150439
-0.0011509389
-1.2462481E-4
-7.5723237E-4
-0.0028439013
-3.1981253E-4
0.002839595
0.001954681
-1.1342475E-4
7.266404E-5
0.0023093696
0.0024120945
0.0017732363
0.002930716
0.0021176902
7.1280857E-4
6.640006E-4
1.9372464E-4
-3.4298716E-4
-0.0018508751
-0.0023530638
-4.3766527E-4
5.871242E-4
2.58845E-4
-0.0013054685
-0.0013830723
0.0013113148
0.0013853813
-5.719935E-4
-0.0011274391
-0.0010305422
-4.3785918E-4
0.0012253468
0.0031155956
0.002019359
4.1639872E-4
0.0022635509
0.003334276
0.0023148134
4.1700038E-4
-0.0010624903
9.076408E-4
0.0017884931
-5.476776E-4
-0.0015774389
-0.0018274211
-0.0018578961
-0.0019274842
-0.0036400093
-0.0044535277
-0.0026265688
-4.9369276E-4
-3.277643E-4
-0.0011903737
-0.0012741996
-0.0012724381
-6.9302565E-4
0.0013523198
0.0030397754
0.0030736774
9.860763E-4
-0.0013603906
-9.135025E-4
3.547715E-4
9.1914146E-4
0.001906091
0.0023788644
0.003003509
0.0028773316
6.4921554E-4
2.687309E-4
0.001550626
0.0014220312
5.426051E-4
-9.818848E-6
0.0011175183
0.0017373243
-2.7466746E-4
-0.0018427604
-0.0022096385
-0.0017709369
-7.1327324E-4
-5.506171E-4
-6.985436E-4
-0.0010293963
-0.0019268648
-0.002687163
-0.0018816815
1.993567E-4
-3.7440885E-4
-0.0018976976
-0.0013905456
-0.0022180025
-0.0019554968
0.0010353945
0.0011073228
1.7975239E-4
6.684854E-4
-7.820636E-4
-0.0011707033
0.0011635767
0.0017916668
0.0014886034
0.002054458
0.0028822124
0.0043795328
0.0049360204
0.004252453
0.004098003
0.004394887
0.004250461
0.00170898
-0.0023017789
-0.0043346244
-0.003976263
-0.003177066
-0.0037967346
-0.0036671308
-0.0020787746
-0.0016117926
-1.3637933E-4
0.0014160499
0.0014271641
0.00235973
7.1976456E-4
-0.0028819942
-0.0035182491
-0.0038960583
-0.004138785
-0.0023600599
-0.0010986011
-3.1099332E-4
9.411162E-4
9.587712E-4
9.53602E-4
0.0017587969
-1.0076204E-4
-0.0012576822
0.0017406426
0.0021434554
3.6246947E-4
0.0010209822
0.0013511205
7.7285746E-4
1.762478E-5
1.0835919E-4
0.002060762
0.0027846233
0.0023955181
0.0023727927
0.001213847
6.2722847E-4
0.0012978081
0.0011679914
0.0025578984
0.0038332727
5.877256E-4
-6.464916E-4
8.805134E-4
-0.0013827414
-0.0019660841
-4.6329273E-4
-0.0017380134
-0.0019676108
-0.0016468156
-0.0027399245
-0.0041085877
-0.004370882
-0.0024467441
-0.0018244688
-0.0018180907
-0.0012153224
-0.0010618703
0.0013397032
0.0019594382
1.8571551E-4
5.1352184E-4
2.867627E-4
9.637404E-5
-8.1456726E-4
-0.0025102512
-5.3759E-4
0.0017994733
0.0031879612
0.0033658235
8.0785016E-4
6.0579303E-4
0.0018903502
0.0012032258
-8.9064226E-5
-9.973472E-4
4.7210907E-4
0.002753836
0.0031303985
0.0024563032
0.0013402231
8.445706E-4
0.0013860599
0.0018601618
9.582801E-4
-9.952118E-4
-0.0019471459
-0.0014114366
-0.0013020693
-0.003822641
-0.004748561
-0.0017751066
-0.0015985427
-0.0023750563
-9.177841E-4
-0.002055444
-0.0027141883
-6.9722004E-4
-2.0682953E-4
9.89477E-5
5.191321E-4
-7.136629E-4
-1.6468267E-4
0.0022381654
0.0012668591
-0.0012655113
-1.9802252E-4
0.0030698513
0.0054921564
0.0059967358
0.004646616
0.0023268075
1.7737912E-4
-0.001336762
-0.0024719748
-0.0017373078
-8.6857064E-4
-0.0015833495
-3.2635173E-4
6.97256E-4
-2.3131746E-4
-5.9113314E-4
-0.0023620916
-0.003068476
-0.001446796
-0.0018254525
-0.0018843923
-5.3347106E-4
-1.09394525E-4
9.083434E-4
0.0021404903
0.0019036253
0.0015022662
0.0011802897
-6.4726174E-4
-0.0023191108
-0.0014569466
1.5702323E-4
5.246907E-4
7.183808E-4
0.0019197968
0.0016469223
-9.261809E-4
-0.001434109
6.829634E-4
0.0019075269
0.0016465444
0.0014082774
0.0014931983
8.9132186E-4
-5.325801E-4
-0.0014834454
-8.240151E-4
-8.390797E-4
-0.0016968562
-2.8290966E-4
-5.1611758E-5
-8.904034E-4
6.80104E-4
7.673261E-4
4.6290658E-4
9.1970386E-4
8.541915E-4
0.0023869297
9.539662E-4
-0.001976641
-8.3894085E-4
-2.7033497E-4
-0.0012990567
-0.002483147
-0.0025786732
-5.9691846E-4
1.593164E-4
5.8325386E-4
1.2178198E-4
-9.345352E-4
0.0017156933
0.002620712
-7.77141E-4
-0.0014997
1.8983732E-4
-1.4903514E-4
-4.3594904E-4
7.2793366E-4
7.155489E-4
0.0016575846
0.002056873
-0.0014213946
-0.0024297726
-0.0010040115
-9.1557775E-4
-2.584429E-4
-7.705144E-5
9.550991E-4
0.0022792656
0.0020111117
0.0036787442
0.003930101
9.264276E-4
4.296626E-4
0.001803798
2.2033234E-4
-0.0045668916
-0.0053906343
-3.365849E-4
0.0015362421
-2.9853362E-4
-9.221923E-4
-0.001885661
-0.0018609338
4.766431E-4
0.0021998682
0.003097956
0.0027641377
4.8749772E-4
-0.002764266
-0.005325833
-0.0040167603
-0.002252108
-0.0027484477
-5.357127E-4
8.3621225E-4
1.9300593E-5
0.0015671942
4.3075325E-4
-9.3170226E-4
0.0020702453
0.00272511
0.0018142934
0.0025319292
0.0032915035
0.0031497201
0.0012680073
0.0011224162
0.0017699547
-7.3502836E-4
-0.002356317
-0.001267781
6.9280586E-4
0.0012273712
-7.2587765E-4
-8.211515E-4
-8.868418E-6
-0.0017342687
-0.0028144808
-0.0022283355
-7.222145E-4
7.659508E-4
4.963249E-4
-2.9719027E-4
-0.0022069109
-0.003146898
-1.7171312E-4
5.8144424E-4
-9.7345706E-4
-9.905059E-4
-0.0016334414
4.955042E-4
0.00298643
7.361985E-4
5.895719E-4
0.0017168111
0.001700764
0.0035258515
0.0023747962
9.430353E-5
4.3653796E-4
-3.3834807E-4
6.921056E-5
0.0010969158
-6.594436E-4
-0.002451023
-0.0034759955
-0.0031707645
-0.0015833124
-5.504867E-4
6.1306404E-4
7.145436E-4
1.4553535E-4
0.0011369188
0.0018195225
0.0020094097
0.001215961
-7.5707503E-4
-3.1062646E-4
-5.350866E-4
-0.0023629651
-0.0010494047
-4.7086953E-4
-8.6480245E-4
-5.9201804E-5
-8.703484E-4
6.3187577E-4
0.0015552164
-0.0019925458
-0.001534118
0.0016427161
0.003151883
0.0033949031
3.1591346E-4
-0.0014068886
4.46881E-4
0.0016186893
-8.7141896E-5
-0.0032874846
-0.002180813
6.515254E-4
-1.5721752E-4
-0.0011734249
-9.989432E-4
-4.4856308E-5
2.3664974E-4
-6.5486884E-4
2.0319456E-5
9.678205E-4
0.001132091
2.1912633E-4
1.4130723E-4
0.002583845
0.0018736545
6.283203E-5
9.5437036E-4
8.5175975E-4
-2.5297266E-5
-0.0018724173
-0.0017758951
9.828403E-4
7.7615876E-4
7.607524E-4
6.3018803E-4
-0.0012935464
-0.00115307
-0.0019435062
-0.0018930674
-4.393989E-4
-0.0021582034
-0.0025121968
-0.0020368604
-0.0024139297
-3.9404392E-4
6.321854E-4
7.6889433E-4
0.0018614585
0.0010441885
-8.409784E-4
-7.3903316E-4
0.0016136526
0.003346903
0.0037623814
0.003510645
0.0025609138
0.0035974681
0.0049799467
0.0042984746
0.002808011
-0.0014526122
-0.006411831
-0.008131169
-0.007849125
-0.0053614276
-0.0018991246
-6.703524E-4
-9.564683E-4
-5.2098883E-4
7.536573E-4
0.0011518949
0.0010554562
0.0011563876
-1.1423057E-4
-0.0013157417
-5.448266E-4
8.565432E-5
0.0011536246
0.0039695897
0.003915832
0.0016934419
0.0018347319
9.387015E-4
5.1125E-4
0.002648815
0.0019230759
0.0013985641
0.001981721
-7.540959E-4
-0.0026842926
-0.0030621537
-0.0034772698
-0.0033518965
-0.0038023514
-0.0029286367
-0.0020768142
-0.002104647
4.7928497E-5
0.001976793
0.0021648763
5.9705327E-4
-0.0020732195
-0.0020087427
-7.850353E-4
-3.3225585E-4