-0.0014271038
-0.0014961951
-0.0010115213
1.1638728E-4
0.0016227083
6.3714647E-4
-1.3585601E-4
-8.1179186E-4
-0.0029150317
5.81987E-4
0.0026135086
-0.0028313643
-0.0044254274
-0.0013773115
0.0012890722
0.0026769473
0.0016553239
-1.4701576E-5
-1.4183794E-4
0.0014215824
0.0011523125
8.758729E-5
8.032495E-4
9.3995244E-4
0.0031405985
0.002793532
-0.002400513
-7.0345704E-4
0.0021848644
-0.0010251077
-0.0018503432
-0.002038079
-0.0026939395
7.318495E-4
0.0018250789
-0.0013625993
-8.349913E-4
8.816027E-4
-0.0014367653
-0.0019333207
-2.7885218E-4
-2.5392667E-4
5.538209E-4
0.0019651742
0.0020653307
-2.9107742E-4
-0.0012836729
0.0017876575
0.0011402656
-0.0014091014
-3.8422516E-4
-1.490022E-4
2.3094E-4
3.371727E-4
-0.0015391974
-0.0016166159
-3.9720652E-4
5.5001274E-4
0.0010936892
0.0015258548
9.868233E-4
-0.0011887575
-0.0020700123
-0.0028029846
-0.0022132734
9.658027E-4
7.943528E-4
-3.7702925E-5
7.314582E-4
3.2957437E-4
0.0015694287
0.0019765613
9.278002E-4
8.225631E-4
-0.0012220852
-0.0020403562
-7.14432E-4
-1.9798432E-5
0.001986342
0.002769218
0.0026261476
0.0036193754
0.0017542684
3.3967994E-4
0.0018749724
2.6700797E-4
-0.0035299105
-0.00479593
-0.0036699967
-0.0013414302
0.0010370326
0.0016369253
-1.9520875E-4
-0.0014222095
-0.001168405
-0.0017933889
-0.0016512987
-8.222493E-4
-0.0015002737
-0.0014892031
-5.4225535E-4
-9.893781E-4
-0.0018049681
4.6553443E-5
0.0021929636
-7.711861E-5
-0.0021731341
-5.8855646E-4
0.0016795913
0.0041178516
0.004825849
0.004751657
0.0050828285
0.0029603625
0.0019033623
0.0018424598
-5.2610086E-4
-0.0026997528
-0.00425124
-0.0033826586
-0.0012177901
-0.0011752523
-6.861438E-4
-3.0168547E-5
4.72735E-4
-3.222842E-4
-0.0027252466
-0.0012040935
6.838331E-4
3.7696012E-5
-1.864379E-5
-0.0012146748
-8.3584234E-4
0.0010752537
3.4266114E-4
-9.252633E-4
-0.0015289708
-0.0012358143
-8.173197E-4
-6.913345E-4
3.038549E-4
0.0011032561
0.0025315615
0.00383178
0.0043758247
0.0044881804
0.0017194267
-3.8755388E-4
-9.442931E-4
-0.0029398752
-0.0031792454
-0.0016854154
-5.304611E-4
-0.0011819957
-0.0021756298
-9.7078235E-5
5.986139E-4
-3.339017E-4
-5.543363E-4
-0.0011801153
4.7995758E-4
0.0011376988
6.333574E-4
0.0023112646
6.9029356E-4
-0.0011170872
3.9575266E-4
4.5445142E-4
-4.7276204E-4
-0.0014816275
-4.538339E-4
0.0018351795
4.948535E-4
-5.5323605E-4
2.4533988E-4
-0.001054286
-0.0011255954
0.0019146495
0.0029533643
0.0020068716
0.0017176754
-5.2303023E-4
-0.002156243
-0.0010548079
-0.001721453
-0.0017944119
-7.8167947E-4
-0.001610143
-0.0015960333
-0.0016593081
-0.0020775648
-8.418014E-4
9.941668E-4
0.0024938814
0.0029211412
0.003926531
0.0035321447
3.4717505E-4
-6.0906477E-4
-7.9765E-4
-7.152731E-4
6.2024186E-4
4.0955734E-4
0.0014388496
0.0019338471
-5.794604E-4
-0.0030897737
-0.004924044
-0.002700225
0.0014203183
0.003073437
0.0031875721
0.0010341067
3.6779206E-4
-2.0096469E-4
-0.0021474515
-1.7939221E-4
-0.0015042924
-0.004911434
-0.002411755
-0.0016233391
-0.0018362721
4.4404602E-4
0.0013547742
0.0014065463
3.162339E-4
9.266836E-4
0.0032579764
0.0023055843
8.42337E-4
5.038833E-4
5.401845E-4
0.0010629275
-6.521743E-5
-0.0011696963
-2.3558197E-4
6.586652E-4
4.694468E-4
9.706274E-4
0.0015848286
2.0271384E-4
-8.0265774E-4
-0.0010045809
-7.432327E-4
0.0010916408
2.7987926E-4
-0.0024067173
-0.0024928423
-0.0017974555
-0.0010348296
9.7156895E-5
9.6633914E-4
9.3357364E-4
-2.8752437E-4
-6.003699E-4
3.571386E-4
0.0011338381
1.6134522E-4
-0.001142311
-4.6615454E-4
-0.0010479168
-9.5952646E-4
0.0016754565
0.001204347
1.6270787E-4
7.483531E-4
2.7137215E-4
5.441757E-4
3.2061388E-4
-7.916801E-4
-0.0011075987
-0.0010514358
-2.199035E-5
-6.472042E-5
-7.069433E-4
-9.346164E-6
-2.5001407E-4
-0.0012021064
-0.0018044529
-9.625874E-4
6.1000034E-4
9.1318006E-4
0.0023983365
0.0032027895
0.0017721623
0.0015041789
0.0011681067
0.0011542997
0.0016362086
7.049251E-4
-1.06495114E-4
-9.005384E-4
-3.4590738E-4
6.8920036E-4
-1.9397859E-4
2.901219E-4
-4.2043565E-4
-0.0029726673
-0.002217264
-7.730113E-4
-5.6063297E-4
-0.0012336557
-0.0014040767
2.1830216E-4
-5.0575205E-4
-9.295492E-4
-1.0269475E-4
-0.002125661
-0.0019340772
-0.0014620736
-0.0033775764
-0.001436065
2.9810704E-4
3.8949517E-4
0.0026315777
0.0022768339
0.0013770573
0.0038462277
0.0032735362
-6.1627687E-4
-0.0012970478
7.172737E-6
3.8624354E-4
0.0013023358
0.001976718
0.0024086658
0.0023148798
1.3005559E-4
3.0031372E-4
0.0020023375
8.43873E-4
5.017921E-4
0.0011189815
0.0015560086
0.0011494777
-0.0020647806
-0.0023779836
-8.639833E-4
-0.0024480482
-0.002630293
-0.0018212697
-0.0015082292
-0.0015582592
-0.0025926747
-0.0010331172
-1.7246379E-5
-0.0016851088
-0.0023423363
-0.0028238394
-0.0011627781
0.0010245017
3.902865E-5
5.119577E-4
0.00196735
0.0020775013
0.0023516382
8.684236E-4
-0.0011953423
-5.511834E-4
7.3498907E-4
6.056962E-4
0.0010662716
0.002511761
0.002929672
0.0025333439
0.0019161727
0.0019305557
0.0016934768
-5.128213E-4
-0.0010043152
-2.789447E-4
-9.865025E-4
2.8806677E-4
0.0015763735
0.001041433
8.716159E-4
-6.6452456E-4
-0.0017293274
-0.001357474
-0.0027335752
-0.003783547
-0.0024273894
-1.4658613E-4
8.697635E-4
-1.8960977E-4
-0.0010042851
-8.6675555E-4
-5.385272E-4
-3.6973882E-4
-0.0014435517
-0.0024006153
-0.00227586
-0.0020396912
-7.0598966E-4
1.4997118E-4
-7.093172E-4
9.326072E-4
0.0034776346
0.0022406713
8.7611267E-4
0.0018876009
0.0022443961
0.0015257737
0.0011867838
6.8812835E-4
1.4912625E-4
9.833889E-4
0.0016953484
0.0017255392
0.0019137224
9.523746E-4
4.444568E-4
-1.1242177E-4
-0.0014753762
9.939371E-4
0.0028931035
3.022025E-4
-0.0011907239
-0.0031921142
-0.0038564173
8.2231715E-4
4.0931173E-4
-0.0057014907
-0.005020091
-4.3443966E-4
-1.7164252E-4
-0.0011711264
-9.452049E-4
-8.4376906E-4
-5.579677E-4
-7.7367894E-4
-0.0010290818
6.15583E-4
0.0017778402
2.2929728E-4
-0.0012800669
-6.0588965E-4
7.2293414E-4
0.0011748713
0.0015709618
0.0029283713
0.0037232444
0.0022817343
3.7715444E-4
-1.4053253E-4
6.0083193E-4
0.0020035438
0.0018914958
4.654348E-4
5.4657453E-4
2.5873288E-4
-0.0026340124
-0.004209161
-0.0017002493
4.1464542E-4
4.4995476E-4
0.0021740377
0.0029336086
0.0012784735
9.0453716E-4
-9.773659E-4
-0.003853032
-0.0031474961
-0.0016344871
-5.716811E-4
4.922155E-4
5.1092127E-5
2.0984992E-4
6.078135E-4
-9.5739926E-4
-0.0016352889
-6.9726777E-4
-6.2551815E-4
-0.0013325695
-0.0016988752
-8.3701586E-4
2.2655448E-4
1.6496959E-4
-8.736385E-6
-7.544773E-4
-8.3913555E-4
8.7378925E-4
9.095114E-4
7.501111E-4
0.0015861501
4.3933286E-4
1.2800173E-4
0.0014842099
0.0026903097
0.004260706
0.0037352222
0.0013975793
1.8677079E-4
-7.749945E-5
-7.3987735E-4
-0.001540616
9.8579396E-5
0.0014291978
-4.3814594E-4
-9.763285E-4
-3.7154095E-4
-0.0019703263
-0.0039306614
-0.0034039714
-0.0011283457
3.578113E-4
0.0012492525
4.897996E-4
-0.0011232841
-0.0010258626
-0.0019028417
-0.0011419338
0.0015461071
8.30311E-4
0.001161401
0.00209337
0.0010361484
0.0015378898
-4.5280837E-4
-0.0027916173
-4.5552093E-4
3.8581624E-4
-9.0196176E-4
-5.7801564E-4
7.006517E-4
0.0017525415
0.0020560473
9.913583E-4
-0.0019007276
-0.0028132189
-7.8533456E-4
-7.783958E-5
7.543454E-4
0.0027439552
0.0030421985
0.0016792967
3.244714E-4
-8.1542874E-4
-0.002621886
-0.0020303673
0.0013907019
0.0018137059
3.8673158E-4
4.8110142E-4
0.0010359043
0.0015542675
-3.0968428E-4
-0.003187698
-0.0029317446
-0.0014630845
-1.0481393E-4
1.2542382E-4
-0.0019945765
-0.0016542312
0.0013343843
0.0010214119
-0.0013121134
-0.0016322836
-0.00160398
-0.0026793864
-0.001992093
0.0010350024
0.0028878273
0.0024601873
0.001253799
0.0010205219
0.0021445192
0.002835328
0.0027716088
0.0022612098
0.0011418292
8.1840735E-6
-4.583994E-4
8.1250764E-4
0.0018214117
9.38178E-4
-8.626328E-5
-0.001915938
-0.0029280004
-0.0015884521
-0.0010720027
-8.542086E-4
-3.7881057E-4
-0.001151396
-0.0022169899
-0.0026994133
-0.002218979
-0.0018611881
-0.001748042
-0.0012201997
-0.0016274855
-0.0017301191
-0.0015939359
-0.0026112024
-0.0013242794
0.002815622
0.005187634
0.004066145
0.0030550566
0.0046549775
0.004988285
0.0030388925
0.0032316188
0.0034396471
-2.3018858E-4
-0.0030349086
-0.0024692279
-0.0011357546
7.4255554E-4
5.250755E-4
-0.0014476916
-0.0010277053
3.1550616E-4
9.855443E-4
-9.7360753E-4
-0.003156941
-9.645736E-4
-0.0012012811
-0.0038393051
-0.0038236086
-0.003983136
-0.001828876
3.9029328E-4
-0.0018169064
-0.0033045483
-0.0010625009
0.003725
0.0038289996
-0.0012916292
-1.5177092E-4
0.005283057
0.0054375636
5.5179035E-4
-0.0029187934
-0.0018122911
4.3287882E-4
0.0024547668
0.0021941026
2.676699E-4
0.0014116322
0.002187163
0.002236131
0.0028552976
0.0012822885
0.0012379002
9.2462444E-4
-0.0025260723
-0.00347412
-0.0022642345
-0.0013631361
-7.912565E-4
-0.0013049045
-0.0017683099
-0.0012128217
8.442228E-4
0.0022506034
6.2633975E-4
-0.0012245638
-0.0013315299
-6.1376975E-4
-2.8414527E-4
-6.31784E-4
-1.5984331E-5
2.3443796E-4
-0.0011439254
-7.794587E-4
-8.460906E-5
-0.0018528716
-0.0029147808
-0.0026213375
-0.0012851136
3.843972E-4
-3.253961E-4
-5.088503E-4
2.811173E-4
8.6949876E-4
0.0024951566
0.0022252814
0.0033722203
0.0037281434
-0.0031716176
-0.0042669
0.0011856405
8.6751435E-4
7.188226E-4
0.0022851066
0.0016132835
0.0029977758
0.005404557
0.0058394927
0.0061682914
0.0060068294
0.0022348033
-0.0029002347
-0.0061342674
-0.0073864884
-0.0040544122
-4.7115196E-4
-0.0013678098
-4.869902E-4
5.3772784E-4
-0.0030110558
-0.006289557
-0.0062902686
-0.0044480474
-0.003678278
-0.0033271962
-4.441444E-4
0.0026762225
0.0041991323
0.004768953
0.0042509516
0.0015501265
-0.002603403
-0.0026785086
2.5193382E-4
-4.3577832E-4
-0.0021761842
-0.0012808768
0.0011548189
0.004336184
0.005282801
0.003251577
0.0024288693
0.0023034455
3.9994816E-4
0.0010248994
0.004420812
0.0031630825
-9.733893E-4
-0.0018487666
-0.0027650257
-0.0048627844
-0.004140605
-0.001973167
-3.103658E-4
0.0014351725
0.0011463368
-0.0016011131
-0.0025085288
-0.0017238316
-0.0024376563
-0.0021761213
-0.0011638775
-9.528372E-4
0.001182675
0.001432059
3.1260905E-4
0.0031076414
0.003600139
0.0022964582
0.0038884843
0.00286363
-4.5366316E-5
-0.0012860748
-0.001504232
-1.6060981E-4
0.002531297
0.0045701778
0.002184571
-0.0010780103
-8.636043E-5
0.0015261769
0.003990083
0.0072321612
0.007870983
0.0049617183
-0.0027602937
-0.00919641
-0.010835042
-0.011497085
-0.009627729
-0.0077323327
-0.008222086
-0.006660387
-0.0033707195
-1.6790924E-4
0.0026930985
0.003039655
6.758388E-4
-3.4284475E-4
-4.5247123E-4
-0.002717971
-0.0037191343
-0.0042527737
-0.0047858832
-0.0016200185
0.001825022
0.0052997614
0.008051268
0.0093561215
0.01470631
0.018830998
0.018244594
0.013921401
0.005711858
0.0034749259
0.004441517
0.002546745
0.0025704964
-0.0011744326
-0.0059611015
-0.005467398
-0.008294685
-0.0137214605
-0.014775176
-0.01104807
-0.006134459
-0.005856927
-0.0093817795
-0.011486827
-0.009637679
-0.005747469
-0.0041681803
-0.0029570195
0.0017515192
0.0045530447
0.0024167984
0.0032857957
0.0051563215
0.0017065911
0.0014356881
0.0046279007
0.0052841892
0.007096802
0.0074629136
0.0055164993
0.0053046737
0.0029575792
-0.001424418
-0.0022926494
-2.0771963E-4
-0.0016706568
-0.0053941966
-0.0038954872
-0.0016927822
-0.0026064974
-0.0026707721
-0.0025247748
-0.0029577855
-0.0034464302
-0.001880615
5.849057E-4
3.557479E-4
0.0021848027
0.0060791327
0.00889014
0.0108733345
0.0077075977
0.0029628219
0.0018748231
0.0013795674
3.68872E-4
-0.0017515058
-0.0037114613
-0.0074978275
-0.013524371
-0.0120760575
-0.005999498
-0.0029977197
5.541872E-4
0.0039852066
0.00568251
0.006673831
0.0065410007
0.0055578593
0.0023398534
-0.0033823021
-0.00935703
-0.01137374
-0.009732748
-0.008423866
-0.004801928
-2.9134372E-4
0.0014840044
0.001430249
0.0011253598
0.0081126215
0.019909382
0.027192779
0.027120437
0.014710335
-8.237481E-4
-0.011910728
-0.023914928
-0.026897406
-0.02291612
-0.025336508
-0.030028585
-0.031889297
-0.027344521
-0.021850968
-0.019174224
-0.010424969
0.0026360608
0.020738056
0.038807675
0.044557888
0.047729515
0.05272455
0.05339709
0.045208596
0.028481802
0.017921446
0.011089091
7.997866E-4
-0.006864797
-0.011405677
-0.0038803543
0.020487107
0.050398886
0.06722241
0.062122334
0.034451157
-0.02987073
-0.090976216
-0.09828199
-0.0928237
-0.09235003
-0.066785835
-0.03358255
-0.022661261
-0.02868266
-0.031868882
-0.030796839
-0.018903863
0.001184031
0.0036083385
6.909623E-4
0.009531956
0.029383129
0.04239031
0.022847384
0.0026362753
8.497915E-4
0.021108871
0.06393554
0.05465436
-0.003388339
-0.0341183
-0.038346123
-0.028234173
-0.026506836
-0.031939693
0.006912043
0.07287761
0.12865673
0.17798701
0.18275997
0.09958123
0.0014398851
-0.032499332
-0.058950074
-0.12069479
-0.16844527
-0.13839753
-0.02094973
0.075173095
0.078337155
0.032495655
-0.02058579
-0.018978631
0.039978616
0.042787947
-0.033007108
-0.0880487
-0.098966055
-0.12584837
-0.14073071
-0.06456415
0.076790035
0.1705749
0.13500868
0.023597497
-0.055864695
-0.08247723
-0.063832425
-0.0076664747
0.046873208
0.07524515
0.07403994
0.042047556
-0.015917212
-0.094453864
-0.17002235
-0.16692473
-0.041928843
0.095001236
0.12349548
0.10580169
0.13916235
0.14700337
0.0131314965
-0.16514835
-0.18130526
-0.069052994
-0.013535362
0.03262198
0.15124378
0.2006286
0.13400199
0.046198666
-0.020584725
-0.037709188
-0.05127563
-0.10004765
-0.08339025
0.017054765
0.082429215
0.07221843
0.022213168
-0.06999003
-0.15538035
-0.12976585
-0.0015222573
0.107240975
0.08833425
0.043652542
0.098543555
0.067416444
-0.094596356
-0.14986505
-0.08126118
-0.007603628
0.009602503
-0.014305769
-0.012151488
-0.033886597
-0.07192479
-0.03366861
0.011497715
-0.006434207
-0.028153444
-0.024354188
-0.022701304
-0.014005988
0.0014914797
0.007341039
0.039616432
0.074770644
0.067188874
0.033058785
-0.010327261
-9.304674E-4
0.045675736
0.051016845
0.043400537
0.033126738
0.053778294
0.12030527
0.09170529
-0.04809913
-0.14376739
-0.11675577
-0.017017456
0.0800292
0.15183093
0.12542029
-0.025218967
-0.12406875
-0.08108586
-0.027753053
-0.047771204
-0.06625845
-0.029661346
0.009401222
0.030901551
0.030874226
-0.023121445
-0.0731897
-0.06671812
-0.03515248
0.021012256
0.06106621
0.033971082
0.007612163
-0.010298548
-0.060382254
-0.06313431
-0.007325109
0.024747204
0.020221137
-0.0102917915
-0.023833688
0.0097377
0.04909311
0.07875063
0.06257804
-0.0127554955
-0.041496284
-0.001108604
0.020722678
0.019474758
0.031812776
0.04020081
0.020387046
-0.016037345
-0.037433114
-0.026009366
-0.0013062019
0.009495041
0.013836186
0.033522457
0.06392421
0.06475856
0.013568737
-0.03788355
-0.041902907
-0.029354101
-0.030414859
-0.0299649
-0.026939973
-0.03547856
-0.045732208
-0.04776819
-0.044655107
-0.03436835
-0.023268078
-0.01567714
-0.0060491823
-6.4212654E-5
0.014952204
0.05131105
0.07287716
0.05252367
0.016274821
0.0064535597
0.019273868
0.016177414
0.0023807327
-0.0038774225
0.0017474962
0.0347148
0.075554654
0.10046718
0.08858322
0.0053881397
-0.07631923
-0.07730633
-0.06484255
-0.07810618
-0.07633966
-0.05925762
-0.040560953
-0.024213344
-0.01908311
-0.014113261
-0.0021240285
0.0015069328
-0.0011191707
-7.029874E-4
0.002576525
0.0144542055
0.02964485
0.046606995
0.06770255
0.07434361
0.054517254
0.011366937
-0.016215183
-3.3854702E-4
0.015207546
0.03501049
0.07172794
0.05231116
-0.018358009
-0.06927069
-0.07944185
-0.05244665
-0.026938494
-0.02228088
-0.016838923
-0.015358836
-0.022247499
-0.029801244
-0.024309557
-0.0047502387
0.0056405873
0.02147287
0.04250738
0.029484825
9.621641E-4
-0.013078051
-0.0109297335
0.007484574
0.02022983
0.024567317
0.03179507
0.024533419
0.0027562098
-0.016773855
-0.025060141
-0.01758321
-0.0066041006
0.0026067928
0.01425794
0.014735075
0.0010166223
-0.0075919037
-0.0057167634
-0.0059169014
-0.012775993
-0.014509738
-0.004162569
0.0037700261
0.003515112
0.00672142
0.00992623
0.008173343
0.0056162123
0.0031895316
0.0059078443
0.0101594785
0.008827347
0.004663275
-0.004959851
-0.016745841
-0.021264806
-0.01832216
-0.0073193936
0.01434609
0.033388842
0.018956315
-0.021814262
-0.03955682
-0.025638187
-0.0070328624
0.00343595
0.007442334
0.016665766
0.028431127
0.02992508
0.024687564
0.013146702
-0.0039326306
-0.008780917
-0.0019680082
-0.007957697
-0.020684032
-0.017394999
-0.01141578
-0.012386255
-0.0044422653
0.009359945
0.01686156
0.022745289
0.02522266
0.0046646027
-0.025263192
-0.026217816
-0.016135039
-0.016179984
-0.0061430903
-0.0016822695
-0.01476189
-0.016089868
-0.0029681376
0.009774298
0.012733461
0.0023445592
-0.0074287066
-0.0043508024
0.00799611
0.007097707
-0.011659403
-0.017812535
-0.0062830015
0.01446928
0.039391536
0.045922294
0.04233004
0.04533771
0.034050662
-0.003378129
-0.04805014
-0.06060477
-0.030247118
5.5909896E-4
0.0063113733
9.714096E-6
-0.0013247605
0.0046243933
0.013674216
0.01893578
-0.0026238344
-0.03202807
-0.02580192
-0.010179221
-0.014374255
-0.023152882
-0.02576115
-0.01784299
-0.0067503587
-2.1802542E-4
0.00464171
0.0061761667
0.005515176
0.0059147784
0.009043517
0.011331876
0.012888396
0.019063264
0.019925077
0.017465692
0.021391103
0.022534046
0.019574035
0.011419482
-0.001870633
-0.010839266
-0.017712265
-0.01876408
-0.0106045995
-0.0041382634
-8.2890695E-4
0.0022024778
0.0015337708
-0.0039814506
-0.008492576
-0.011250113
-0.01659607
-0.017937412
-0.015287267
-0.016218055
-0.015664946
-0.009524867
-0.004115007
-0.006221209
-0.010109177
-0.006993042
-3.9696583E-4
0.0076872613
0.01574157
0.017832931
0.015485018
0.014032159
0.012109865
0.0042321957
-0.0024878727
2.5719695E-4
0.004715605
0.008780438
0.013737149
0.015646903
0.013441073
0.0032089637
-0.0075315624
-0.007599733
-0.006055212
-0.005453938
0.0021655974
0.008075497
0.0034157815
-0.0017862037
-0.0026859653
-0.0065871966
-0.011572993
-0.015025385
-0.017204748
-0.014444056
-0.012291465
-0.0117760105
-0.0066490155
-0.0032243328
-0.0038142444
-0.0018838056
0.0016607419
0.0022400415
0.0010100784
0.0018832847
0.0032308223
0.0052849646
0.009020521
0.009688754
0.0089684455
0.009643704
0.009804234
0.009104134
0.007023337
0.0066357525
0.007259803
0.004781542
0.0037532789
0.0032633175
-0.0010966241
-0.0042918287
-0.0052377637
-0.0061829127
-0.0055008032
-0.0045263604
-0.0037296726
-0.0014219951
-8.57472E-4
-0.0034102553
-0.006056445
-0.00772235
-0.0069884188
-0.006194824
-0.0071017677
-0.0038420933
2.2273738E-4
-6.491876E-5
7.5387885E-4
9.0416893E-4
-8.139258E-4
0.0011997382
0.0033650426
0.0026660261
0.0020587686
2.4526712E-4
-0.0020021063
1.1194408E-5
0.0027621358
0.0016520999
0.0017758139
0.002919599
0.0016161463
0.0020637312
0.0023472505
7.3474465E-4
0.0023681815
0.0046152067
0.004772311
0.0047601005
0.0035605435
0.0015670644
-2.7693936E-4
-0.0014333472
-0.0018955411
-0.003572569
-0.0029069497
0.0016801462
0.0035584336
0.0027780011
0.0016676651
-0.0010957038
-0.0016072412
-0.0014344953
-0.00574541
-0.008880207
-0.0071555446
-0.0045285397
-0.0045233294
-0.0051308773
-0.001524219
-4.4529064E-5
-0.0024559004
-2.4111013E-4
-7.0333574E-4
-0.0052276244
-0.0029833817
-2.9227138E-4
2.863096E-4
0.003234705
0.0021705532
-5.759906E-4
7.706857E-4
0.0017503784
0.002169296
0.0046129706
0.006869404
0.006184409
0.0032875824
0.0014247048
1.5258664E-4
-0.0016677525
-0.0019253895
-8.398669E-4
9.470119E-4
0.0016265146
-0.0013060577
-0.0015287389
0.00299782
0.0036481223
7.441506E-4
-0.0011674402
-0.0021755283
-0.0010347451
8.2766387E-4
0.0011592024
-1.4635247E-4
-0.0027339535
-0.002881237
-4.078513E-4
2.2789918E-5
-8.8463095E-4
-7.165965E-4
-1.3200077E-4
5.1041687E-4
-5.984612E-4
-0.0027123536
-0.0011470462
9.993222E-4
7.921687E-4
0.0015598618
-5.662253E-4
-0.005549333
-0.0060912347
-0.0041568163
-0.002999069
-0.0031451455
-0.0047258656
-0.0042235474
-0.001592904
-2.4222126E-4
-0.0023920764
-0.004725298
-0.00272577
-0.0012228034
-0.0017373111
-5.1661016E-4
0.0014341378
0.0024958
9.4580237E-4
7.2595594E-4
0.0034207094
0.0036904884
0.0050087376
0.006364733
0.0042190165
0.0037830777
0.0036568816
0.00356493
0.0034452276
0.002116161
0.0052842316
0.007561667
0.0066764923
0.006974068
3.432405E-4
-0.0074483226
-0.006038771
-0.004628352
-0.006824288
-0.006970241
-0.0048110015
-0.004158711
-0.0045694285
-0.0023439364
4.7282755E-4
0.001165767
-4.5189523E-4
-0.0025240479
-0.0034227495
-0.004713371
-0.0033156325
1.2297444E-4
7.2187645E-4
0.0015317138
0.0021988207
5.861049E-4
-0.001369771
-0.0028342125
-0.0013927864
0.0017289941
0.0045222524
0.0059540733
0.0024583
-6.282186E-4
6.637249E-5
-0.0018396308
-0.003144942
4.7785402E-4
0.0029102657
0.0026692403
0.0018274592
-3.4811525E-4
-4.1972962E-4
0.0026298445
0.0049193054
0.00483286
0.0011766506
-0.0013313529
9.277422E-4
0.0024510238
0.0031208354
0.0033236763
0.0017215114
7.910623E-4
-2.614215E-4
-1.9816706E-4
-6.2705623E-4
-0.0031772282
-0.0031753243
-0.0039370502
-0.0046084924
-0.0026917916
-0.0022583671
7.081772E-4
0.0023257984
-7.9324574E-4
-0.0015103011
-0.0024843859
-0.002677982
-6.345811E-4
-1.9712775E-4
0.001091381
0.0010968479
1.5420404E-4
-2.2904472E-4
-0.0020149683
-8.068665E-4
0.0010969315
0.0022523173
0.004468244
0.0030128155
0.0010171679
-6.016268E-4
-0.0028699907
-0.0010502492
-1.2758242E-4
-0.0010234022
4.8713072E-4
6.681638E-4
6.133111E-4
0.0015530261
2.2847645E-4
-0.0012280677
-5.6335994E-4
-4.5048117E-5
-1.7750569E-4
0.0011304396
0.0015369973
-0.0012383469
-0.0022366613
6.338781E-4
0.002497058
0.0017271151
7.7724975E-4
-4.8236485E-5
3.9245957E-4
0.003034458
0.0031982695
6.517079E-4
-8.500816E-5
8.311757E-5
5.601786E-4
8.861254E-4
-9.004192E-4
-0.0022614312
-0.0016215126
6.0785347E-5
0.0027777536
0.003978356
0.0017822246
3.557717E-4
0.0015560501
4.6848756E-4
-0.0014378225
-3.528101E-4
-0.002050048
-0.004247132
2.4496927E-4
0.002612755
-0.0016952368
-0.0028366346
-2.6982304E-4
-9.3635323E-4
-0.0025017813
-0.0012068594
-7.4099505E-4
-0.002026972
-0.001444275
1.7403932E-4
-7.594095E-4
-0.0028495423
-0.001706567
-3.770142E-4
-0.0014900139
1.1285204E-5
0.0023287537
0.002716877
0.003529425
0.0027342231
9.65937E-4
-5.88717E-4
-0.0013396308
0.001289827
0.0020737294
7.09715E-4
0.001584437
7.709603E-4
3.9760143E-4
0.0032873685
0.0045979624
0.0028803735
-4.981973E-4
-0.0023855502
-0.0017315805
-3.992423E-4
0.0014065851
0.0019210788
0.0016793803
0.0021876113
0.0019428463
0.0019117848
0.0011008029
-0.0016284478
-0.0013899878
7.381316E-4
-0.0010733574
-0.0020570734
3.396709E-4
-0.0014038354
-0.0033457763
-7.723403E-4
-0.0020305265
-0.0043206885
-0.0018241252
-8.902491E-4
-0.0013898909
-2.808907E-4
7.259875E-4
0.0021382219
0.0014828356
-0.0019093842
-0.0019326529
1.12319154E-4
-0.0010743939
-0.0015078043
0.0011135549
0.002026203
9.1793545E-4
4.4946934E-4
5.2149553E-4
0.0011786458
0.0025588644
0.0023854207
0.0010931768
0.0012921706
-9.9590914E-5
-0.002031079
-5.395607E-4
-0.0013239153
-0.0032543628
-3.1688792E-4
0.0019091705
0.0010965918
0.0010394953
0.0019170374
0.0021559407
0.0013123369
0.001434018
0.0012209846
-7.282486E-4
-6.636968E-4
0.001267999
0.0021371066
9.258192E-4
-0.0012101431
-0.0013269583
-4.1406575E-4
5.4254674E-6
0.0010706753
0.0012477252
9.292359E-5
6.2453304E-4
7.6601916E-4
-0.0019868335
-0.002152009
-2.543602E-4
-0.0012915406
-0.0016848643
-9.766376E-4
-4.5533094E-4
8.6859555E-4
-5.6007056E-4
-0.0020024104
-1.8194597E-4
5.633846E-4
2.2880513E-4
-5.1352236E-4
-0.0019249442
-0.0020194848
-7.2027266E-4
0.0010685555
9.2933385E-4
-8.030164E-5
7.167043E-4
3.1518383E-4
2.4833638E-4
0.0022626542
0.001387786
-3.590641E-4
6.178569E-4
0.0011169589
1.0897781E-4
-0.0011912226
-0.0014053707
5.4332464E-5
5.640761E-4
-2.2580473E-4
1.7185086E-4
0.0018097085
0.0025383518
8.9461374E-4
-0.0010111956
-0.0010658544
-3.66313E-4
3.5116985E-4
6.51312E-4
5.8055384E-4
3.1002683E-6
-0.0012148621
-9.6134766E-4
-6.920509E-4
-0.0013260313
4.202744E-4
0.002537807
0.0021090358
-9.1405737E-4
-0.00248636
0.0016904167
0.003369172
4.4442204E-4
6.4362655E-4
0.0010701076
0.0015519662
0.0029265783
0.0014710556
7.918538E-4
-3.3631918E-4
-0.0029699793
-0.0021319536
-0.0013438361
-0.0025696615
-0.0030667444
-0.0024649152
-0.0010342035
-0.0015047445
-0.0027300443
-0.0019009166
-0.0014728913
-0.0020147155
-0.0013003845
0.0010511562
0.0020354274
3.9492818E-4
-1.5969102E-4
0.0012580486
0.0016279634
-1.8761284E-4
-0.0010279987
3.8460555E-4
6.6355575E-4
0.0014558542
0.004516145
0.006107852
0.0057487832
0.0041528586
0.002428392
0.0026638734
0.0020557037
-7.454523E-4
-0.0014772981
-0.0013061593
-0.004996533
-0.0062849442
-0.00249784
-0.0029475014
-0.0038316338
-5.572908E-4
1.06130276E-4
0.0013092222
0.0031010148
8.80686E-4
-1.5914682E-4
2.9176872E-4
0.0013087259
0.002241061
-8.877354E-4
-0.0020335927
1.6566431E-4
-0.0010790873
-0.0023339896
-4.883987E-4
0.0017633657
0.0018093326
1.2861495E-4
0.001113096
0.0016034882
-7.046011E-4
-5.992882E-4
-6.479437E-4
-0.0020329894
-0.0021030998
-0.0031343515
-0.002329698
-1.6539442E-4
-7.1217347E-4
5.9893937E-4
0.0024913573
0.0018181544
0.0026292787
0.0027070355
8.424376E-4
0.0012536342
0.0022409216
0.0018756058
0.0015107517
4.9198687E-4
-2.7000476E-4
9.085879E-4
0.0012667571
1.711608E-4
-2.3303652E-4
-8.8982994E-4
-8.788474E-4
-9.0590667E-4
-0.002876401
-0.002437948
-0.0013985063
-0.0030319497
-0.0017669199
8.8153797E-4
6.2836724E-4
-2.897501E-4
-8.454225E-4
-4.1983442E-4
-4.1284223E-4
-0.0012948471
2.0986807E-5
0.0012126637
8.215186E-5
-0.0010466727
-5.355803E-4
0.0017130063
0.0031088905
0.0031828322
0.0024223984
4.5078223E-6
-1.13155875E-4
0.0019715303
0.0014331128
-2.7568234E-4
-0.0018118384
-0.0033728553
-0.002610433
6.2588346E-4
0.002755656
0.0010896324
-2.1303153E-4
0.001481151
9.098924E-4
-0.0012145272
-0.001542058
-0.0023094157
-8.6477527E-4
0.0030678492
0.0031357082
0.0011646461
6.3169317E-4
2.011296E-4
5.7433E-4
7.145035E-4
-8.738589E-4
-0.0028263112
-0.0036239284
-0.0020394651
-7.49497E-4
-0.0016214411
-0.0018824211
-0.0015148199
-0.0014444146
-0.0016641165
-0.0013865283
3.646747E-4
3.0865418E-4
-3.2681058E-4
0.0014837587
0.0012910466
2.5141516E-4
0.0013920406
0.0010725004
-2.9416068E-4
-2.3539901E-4
6.661773E-4
0.0011025647
0.002009625
0.00447974
0.005380535
0.005704622
0.005762336
0.0025652887
0.0015832529
0.0012403252
-0.0033649923
-0.0054744463
-0.0055549787
-0.0051628947
-0.0017671182
-9.0612913E-4
-0.0016200512
-7.283357E-4
-0.0011557294
-4.256598E-4
9.61304E-4
-2.909569E-4
-0.0011400894
-8.9480093E-4