-6.6351966E-4
-0.0010654842
4.7140958E-4
0.0010474975
-0.0015200757
-0.004308314
-0.004566165
-0.0018819311
0.001121868
9.428772E-4
-2.787169E-4
8.7500695E-4
0.0025026847
0.0019544654
0.001166556
0.001042627
-0.001139903
-0.0024880792
-0.0019010102
-0.004278891
-0.005451773
-0.0011721291
0.0025284912
0.0019273796
8.25597E-4
0.003113871
0.004213261
0.0013011935
1.0764564E-4
3.998367E-4
5.3012893E-5
4.0886717E-4
-3.8340106E-5
-7.611799E-4
-0.0011858175
-0.0025989353
-0.002950566
-6.826873E-4
0.0014898503
0.0011807597
0.0010174018
0.001630549
9.588465E-4
0.0011106828
7.061011E-4
-0.001645047
-0.0013266675
7.608412E-4
0.0012375438
0.0010765208
5.2486605E-4
-8.81664E-4
-0.0016258886
-5.9563405E-4
-3.9667328E-4
-0.0013232748
-4.178189E-4
7.5225433E-4
4.526745E-4
1.0180678E-5
-1.1042857E-4
-3.1621123E-4
-8.128723E-4
-0.0017269682
-0.0028768124
-0.0019440644
1.4218983E-4
2.4845407E-4
0.0010305177
0.0015948979
5.2480267E-5
5.844516E-4
0.0016620198
0.0012423175
0.0015355014
0.0013431904
2.6260276E-4
0.0010283029
0.0039916323
0.0039324695
-5.01178E-4
-0.00398452
-0.004779414
-0.0024744796
5.559611E-4
6.418171E-4
5.7204324E-4
0.0012439907
0.0012908041
-1.2260902E-4
-0.0029872383
-0.0041134474
-0.003518651
-0.0012584123
0.0014794404
0.001777531
0.0024560818
0.0024819856
0.0012687057
0.0015231986
3.8478032E-4
-4.7919378E-4
-4.44238E-4
-0.0018836097
-0.0013690661
-2.9623254E-5
-3.040428E-4
-5.8260467E-4
-6.6112305E-5
4.435051E-4
-0.001069465
-0.0024233488
-0.0019043001
-8.4057194E-4
0.0011407578
0.001985398
6.8677857E-4
-3.099442E-4
-1.7841015E-4
-2.8713312E-4
-5.387265E-4
0.0011541689
0.0025602768
0.0022585883
0.0015766141
4.914749E-5
3.617347E-4
0.001662144
0.0010723799
4.8051853E-4
-3.046879E-5
8.3419733E-4
0.0019078773
0.0011258264
0.0011589082
-8.9781283E-4
-0.0042324835
-0.003454662
-0.0012831002
7.4224527E-6
-1.9482034E-4
-0.0010860256
-5.461403E-4
-9.672645E-4
-0.002245795
-0.0015071279
-4.743434E-6
-1.3628937E-4
-9.642522E-4
-9.3779166E-4
-2.8650856E-4
7.7289704E-4
4.7873915E-4
-6.03993E-4
-5.866478E-4
-0.0012430485
-0.0011572917
6.0922565E-4
0.002351955
0.0032994195
0.0015905249
2.6327494E-4
0.001510637
0.0028029347
0.0030104832
0.0011101133
2.9570406E-4
7.8267563E-4
-0.0011504544
-0.0025704934
-0.0018747373
2.6419034E-4
0.0017502878
0.0010740965
0.0015378303
0.0021510771
0.0015718918
-8.8092376E-4
-0.005052274
-0.0050747697
-0.0018177626
0.0011865546
0.0022860556
-1.0556706E-5
-7.984398E-4
-6.990231E-4
-0.0024312702
-0.0030907968
-0.002755743
-0.002062726
-0.0021975455
-8.4261893E-4
0.0025185563
0.002044522
4.7760832E-4
4.8681893E-4
0.0015737336
0.0041119223
0.003541598
0.0018452657
0.0016134481
5.9004704E-4
-2.2523876E-4
-3.1274097E-4
0.0015178374
0.0015234163
-0.0010078257
9.529556E-4
0.0032358577
0.0025176501
7.278795E-4
-0.0024115366
-0.0023448267
-0.0014737226
-0.0031129161
-0.003839448
-0.004613988
-0.0028473353
0.0012369618
2.8797807E-4
-0.0025344521
-0.0011001005
5.231284E-4
-0.0010882219
-0.0020632646
-0.0012016601
9.8532546E-5
0.0021619368
0.0031863172
0.0040908945
0.0049982197
0.002621
6.824105E-4
0.0016646995
0.0015842109
-7.8580435E-4
-0.0026589548
-0.0012389652
3.2422465E-4
-4.872812E-4
-9.1898466E-5
0.0011360655
3.5261715E-4
-0.0013876474
-0.00217023
-0.0018071132
-7.2044757E-4
2.528597E-4
2.1107213E-4
5.144126E-4
-1.0210761E-5
-0.00199407
-0.001593464
-0.0012090559
-0.0021530178
-6.0665066E-4
9.381764E-4
0.0013808664
0.001966656
0.001675864
0.0011111659
-1.4019863E-5
-1.2504071E-4
0.0011397919
3.6012303E-4
-4.5441164E-4
6.0040766E-4
7.7564834E-4
1.333931E-6
0.0011296915
0.0031267374
0.0017455086
-7.076354E-4
-0.0016239936
-0.002981837
-0.0032708263
-0.0019108499
8.596201E-4
0.0026724448
-8.5638784E-4
-0.0030450285
-0.0010799601
-0.0016129225
-0.0011358091
0.0015946724
8.1653387E-4
-9.6038554E-4
-5.5226416E-4
-1.7243387E-5
-1.7685578E-4
6.6237705E-4
0.0023380418
0.0020690642
0.0012545068
0.002104596
0.0016798314
6.1797077E-4
0.0013090551
3.4254987E-4
-7.462307E-4
9.121677E-4
4.583499E-4
-0.0012632005
-0.0017907041
-0.002700471
-0.0012735195
1.9015105E-4
-9.7197766E-4
-0.0011260447
-0.0017512658
-0.0026283704
-8.809506E-4
0.0013352605
0.0017017827
7.376447E-4
0.001517246
0.0019294183
-1.812025E-4
4.317129E-4
0.0015644723
3.6187324E-4
4.9548293E-4
4.3102878E-4
1.4281925E-4
5.679303E-4
-3.383813E-4
-0.0015070603
-0.0016845339
-8.8200445E-4
-0.0012235376
-0.0019118147
-1.14617214E-4
2.4807337E-4
2.100948E-4
0.0018685977
3.8810816E-4
-8.1579044E-4
8.6613704E-4
0.001122731
4.6030455E-4
-6.0478173E-4
-0.0010570689
4.0935524E-4
5.7347864E-4
-4.7006956E-4
3.6332483E-4
0.0019583015
7.768053E-4
-0.0016267718
-8.2233816E-4
6.860275E-4
5.91748E-4
6.883686E-4
-1.2898257E-5
-3.7317758E-4
5.2867265E-4
3.8683886E-4
3.5673266E-4
-1.6396299E-4
-0.0018102981
-7.1597804E-4
7.6035585E-4
-4.3252073E-4
-0.0011954632
-0.0013703774
-3.7589815E-4
0.0022280596
0.0016732197
-0.0012406254
-0.0012258722
4.7249673E-4
1.8941404E-4
-9.303358E-4
-9.2263486E-5
7.168273E-4
-2.4140287E-4
-4.3280033E-4
-1.876495E-4
-6.41302E-4
8.429081E-5
0.0013514025
0.0014748833
0.0018966388
0.0027794703
0.002198106
9.101951E-4
6.086039E-6
-7.280469E-4
-0.0011586918
-0.0021397276
-0.002778483
-0.0023197671
-0.0026608268
-0.0026889772
-0.0014647205
-7.062082E-4
-6.903964E-4
-7.59801E-4
-3.9532327E-4
-1.981369E-4
7.162364E-4
0.0035264506
0.0047480552
0.0023675286
-7.503792E-5
8.4993546E-4
0.0022043362
0.0010637245
8.613029E-4
9.864948E-4
4.943425E-4
9.5672114E-4
0.0011841761
0.004401081
0.005023505
-0.002224017
-0.0045130057
-0.0029135563
-0.0040171514
-0.0030504458
-0.004214509
-0.004291431
0.0013748584
0.0016828763
-0.0034173355
-0.0046833386
-7.1106595E-4
0.002553237
0.0018693302
0.0032064859
0.0042379843
0.0010731433
-7.1871636E-4
-0.0014622465
-5.981865E-4
0.0014847596
-4.9185246E-4
-0.0014438505
0.0011329582
0.0018523986
4.8705173E-4
-6.737979E-4
1.7081264E-4
6.714426E-4
-3.5446096E-4
-6.164171E-4
-0.0017752479
-0.0016891027
-3.4747503E-5
-8.497437E-4
-5.3451303E-4
0.0010992441
0.0023002196
0.0040633436
0.002831344
0.0011820643
0.0020013559
0.002243069
0.0019319025
-5.732189E-4
-0.0036321548
-0.00371818
-0.0028358141
-0.001484517
-0.001796453
-0.0027570552
1.3557545E-4
0.0018562538
-2.4653942E-5
-8.6076657E-4
-1.3835484E-4
3.8704512E-4
-9.6809334E-4
-0.0022079332
-5.764715E-4
1.6982339E-6
-0.0012469603
7.744033E-5
0.0017689241
0.0026430693
0.005436208
0.0042465692
-9.58245E-4
-8.2170835E-4
0.0015991923
0.0013909044
7.540772E-4
1.4168446E-4
-1.1954402E-5
-0.0013278382
-0.0032965215
-0.0031105494
-0.0026309888
-0.0021419297
-0.0011143368
2.9728914E-4
0.0011883862
-5.2205415E-4
-0.0014440105
-4.0054746E-4
4.773875E-4
0.0015256917
0.0013712548
9.295646E-4
-3.4422847E-4
-0.0024165073
-6.547897E-4
0.0011335462
3.527206E-4
4.197615E-4
4.2560368E-4
0.0012848974
0.0016858706
-2.3418614E-4
6.606114E-5
0.0023871323
0.0034563988
0.0030994765
0.0013909683
-5.117238E-4
-0.0016968936
-0.0020356637
-5.295381E-4
0.0015145044
5.8149005E-4
-5.2917365E-4
0.0012519992
3.38881E-4
-0.0021791428
-0.0016361722
-0.0016287445
-8.916385E-4
3.4348888E-4
-0.0023730437
-0.0038948543
-0.0017966871
2.9428833E-4
4.9914914E-4
-0.001703849
-0.0017627804
-4.589555E-5
-0.0010917144
-0.0018696312
-0.0017430764
-0.0015679336
5.784329E-4
0.0025529515
0.0032065557
0.0029746543
0.0014772299
-4.7170768E-5
-1.8373506E-4
0.0021047632
0.004298578
0.0040946673
0.0039239
0.0038177664
0.0011959597
-0.003069351
-0.003177638
5.315288E-4
5.1281456E-4
-4.6572337E-4
5.963359E-4
8.9019835E-5
-1.8988134E-5
-6.6340633E-4
-0.0018351693
-3.1775935E-4
-2.7562073E-4
-0.0019483148
-0.003268762
-0.004701769
-0.004307063
-0.0039163628
-0.003152051
3.8815342E-4
0.003722028
0.004183031
0.0013392264
-5.229816E-4
7.879518E-4
6.595054E-4
-0.0015999296
-0.0034232498
-0.0022600808
2.2993577E-4
2.1100247E-4
5.625276E-4
8.950735E-4
-1.1197693E-4
0.0013206494
0.0025678952
0.0022283888
0.0031939643
0.0029327716
0.0016484727
0.002940919
0.0040498753
0.0019494703
-3.893384E-4
-0.0010454936
-0.001353079
-0.0019778295
-0.002336848
-0.0016547622
-2.0414546E-4
0.0013765333
0.001499364
0.0010330637
0.0022023164
0.0011999051
-0.0019868766
-0.0045819916
-0.0064495676
-0.0038178419
-0.0018366324
-0.0028537142
3.8623362E-4
0.0013866059
1.3136247E-4
0.0011696457
-0.0011586816
2.447895E-4
0.0039805598
7.2140846E-4
-1.1152611E-4
0.0023900731
0.0013992875
-9.057657E-4
-9.905971E-4
0.002660249
0.0034695556
1.8847201E-4
-0.0014619849
-0.0035613445
-0.005052468
-0.0055887406
-0.006503981
-0.0037291755
-0.0015620056
-0.0024710987
-9.464006E-4
0.0014731492
0.0026600051
0.0031118542
0.0040187114
0.006326246
0.006130002
0.00527511
0.007023175
0.005673747
0.0020219814
0.0017148065
0.0023631046
0.0017648517
0.0020937931
0.003373376
0.0037287208
0.0048789727
0.0063456777
0.0042781546
0.00449942
0.008638071
0.005410828
-0.0048350315
-0.014341569
-0.021084089
-0.022271909
-0.018856812
-0.015348193
-0.013106602
-0.01067342
-0.008264717
-0.0072312714
-0.003766001
4.0252213E-4
6.6019397E-4
0.0015757686
0.0026724476
0.0026637532
0.0036688738
0.0037120495
0.006877337
0.009828649
0.005564563
0.004042992
0.007358879
0.012693778
0.023978991
0.028188
0.015938425
0.0022595043
-9.172541E-4
0.00672813
0.017883576
0.017165318
0.0013860022
-0.014524659
-0.019501528
-0.014940056
-0.009098986
-0.008076097
-0.010634416
-0.014172088
-0.01611848
-0.015007633
-0.01112871
-0.0044078436
5.732823E-4
0.0015063368
0.002683608
0.0033540884
2.3296304E-4
-0.005331793
-0.0089022955
-0.006094894
0.0024891163
0.008090893
0.004431349
0.0018313617
0.0063084876
0.007075302
0.0036706836
0.0024395688
0.001962658
0.0027922976
0.004793247
0.0040798127
0.0017821527
0.0030547306
0.004434174
0.0020409902
0.0026801887
0.003878627
0.0024014388
0.0034653833
7.220667E-4
-0.0037437943
-0.001962405
7.2872484E-5
0.0027057298
0.0030266787
-0.0039528743
-0.00819996
-0.007516182
-0.0064313323
-0.005403964
-0.006419508
-0.006513574
-0.0026890696
0.0010148996
0.0011510849
-5.7315984E-4
-4.6366354E-4
0.004050203
0.009179843
0.0068969834
0.0010809476
-0.0025555089
-0.0057950565
-0.0041609635
0.0016433005
0.005881428
0.0076287305
0.006364422
0.0056507504
0.0016603804
-0.004118615
1.9313076E-4
0.0013878751
-0.00787963
-0.010984845
-0.009727101
-0.009118047
-0.002510888
0.005702598
0.007600865
0.0032449635
-0.0062849764
-0.015263221
-0.014607333
-0.0070373225
0.0030514135
0.013539946
0.017963864
0.021028435
0.021251565
0.01106439
0.0030639064
-0.0011479906
-0.00863534
-0.013280859
-0.012955414
-0.004801007
0.0025396137
-0.0027892538
-0.006011058
-6.3892396E-4
0.0042425194
0.0058110487
0.0019831245
-0.0011448755
0.0018699046
0.0037369027
-0.0015522315
-0.0076442
-0.004927641
-6.6525437E-4
-0.0023313635
-0.0028201654
-0.0026780698
-0.0054941247
-0.0069094393
-0.0051043024
-0.0031369182
-0.002039927
6.921835E-4
0.0040148585
0.0064908965
0.006233904
0.0021446575
0.002559846
0.002925802
-0.009052487
-0.019381668
-0.013155088
0.0014012569
0.011527413
0.014366243
0.015528646
0.0128784515
0.0054187463
0.0054263575
0.011536055
0.012722401
0.010017614
0.0041468334
-0.0055686203
-0.0143208485
-0.018102394
-0.015927013
-0.010079261
-0.0039490596
0.001530082
0.0057195066
0.00704707
0.0047653094
-2.1678889E-4
-0.0044202944
-0.007215079
-0.011680285
-0.012915962
-0.0068157213
-0.0014991566
-0.0017255684
-0.0040470916
-0.004782541
-0.0026781708
8.2242856E-4
0.0030701796
0.0014055962
-0.001341849
-0.0053693717
-0.011951911
-0.0068317885
0.0065295743
0.012371244
0.023818992
0.039388638
0.03784499
0.022828296
0.009504795
0.008773586
0.012123156
0.0022944608
-0.012545959
-0.02248056
-0.025713645
-0.01924894
-0.016750375
-0.023521654
-0.018258912
0.011725348
0.047258656
0.059141837
0.046738155
0.014668435
-0.031925604
-0.055278584
-0.048348106
-0.039540775
-0.029395372
-0.019288406
-0.009908246
0.0045576575
0.021240765
0.034886252
0.020840328
-0.006536903
-0.013427336
-0.02460428
-0.040393
-0.04884233
-0.044882856
0.0041636247
0.04637156
0.029029127
0.0038277814
-0.009281097
-0.022939362
-0.027124269
-0.01044048
0.01472154
0.022604488
0.027096199
0.03497449
0.07035831
0.15138474
0.1934133
0.19086458
0.1776389
0.090353444
-0.040196083
-0.14097777
-0.19737217
-0.19273226
-0.15519549
-0.12956336
-0.12151108
-0.08832971
-0.029757882
0.0063017993
0.054889016
0.09412315
0.07232557
0.027419833
-0.048441496
-0.09087431
-0.046083905
-0.028358052
-0.06050093
-0.09548086
-0.09585047
-0.01654585
0.07263233
0.10070865
0.0989087
0.12639302
0.17458408
0.17465769
0.123326436
0.0441703
-0.0013956446
0.051101275
0.11155921
0.076484084
-0.05825801
-0.22604348
-0.32952464
-0.3259726
-0.22452697
-0.08568069
0.07337688
0.21614997
0.23563692
0.23869409
0.25952807
0.12948424
-0.020082755
-0.05438723
-0.08394722
-0.10729239
-0.08747324
-0.054388415
-0.041722786
-0.06958705
-0.10484551
-0.123210475
-0.086666405
0.025818668
0.12271614
0.13218166
0.087861575
0.033052024
-0.034690607
-0.07642016
-0.054048937
-0.07286441
-0.15313794
-0.16433409
-0.12795785
-0.109676324
-0.07919792
-0.035554845
0.03572618
0.14432007
0.24908993
0.33482504
0.38526365
0.34627742
0.17236996
-0.036775887
-0.1030554
-0.0890517
-0.11664839
-0.07421997
0.046224657
0.053052455
-0.042700764
-0.0696443
-0.0422763
-0.04586305
-0.07205544
-0.14508578
-0.20395319
-0.14407727
-0.08766001
-0.09094079
-0.037401453
0.027383458
0.027014
-0.0012931051
-0.028624348
-0.015302772
0.025356796
0.01499582
-0.006719679
0.018161537
0.047651637
0.11376439
0.22407311
0.2767452
0.26200485
0.14689966
-0.053415228
-0.09859279
0.01668122
0.041152008
-0.03982971
-0.10642833
-0.1391396
-0.15801197
-0.14491881
-0.08194145
-0.033375796
-0.03386385
-0.03272423
-0.01581077
6.804421E-4
0.010638026
0.015710594
0.0106905
-0.021365209
-0.046727322
-0.032941382
-0.0027667845
0.028031642
0.0402137
0.04442167
0.08748482
0.15710244
0.19294952
0.12806152
0.010600993
-0.028432144
-0.030235223
-0.042140443
-0.02603445
-0.061962247
-0.12500426
-0.09482859
-0.022202834
0.039248604
0.08468546
0.09257344
0.057365708
-0.028828673
-0.106302135
-0.12199671
-0.09967932
-0.05407213
-0.029901005
-0.035764173
-0.019066054
0.00823323
0.0396768
0.08435545
0.102865286
0.08486932
0.04715045
-0.003526807
-0.041000873
-0.040661044
-0.020042313
-0.010248301
-0.011342831
-0.011360898
-0.007829097
-3.3010897E-4
0.005758903
0.007001482
0.008224598
0.009571719
0.00803318
0.004628877
0.001865647
0.0033139964
0.005749495
0.0037620054
0.0032880402
0.004164104
0.0029196888
0.004676832
0.0054523977
0.0037086164
0.003804339
0.0015699768
-4.1695715E-5
0.0010481802
-4.9926265E-4
-0.0029760203
-0.006437993
-0.009374871
-0.008973379
-0.009851493
-0.011469632
-0.013111601
-0.015892759
-0.014936416
-0.011908394
-0.0110240225
-0.00897915
-0.0037963823
0.0013783467
0.003104357
0.0058334367
0.009569038
0.00781458
0.007566521
0.0076405904
2.9194605E-4
-0.0022035001
1.315417E-4
-0.0034551732
-0.005746159
-0.0040993085
-0.004598566
-0.005857713
-0.0029116145
4.5826595E-4
-0.004171566
-0.008217734
-0.0033669868
0.001405692
0.0038912199
0.0055450913
0.00395589
0.0033237895
0.004422096
0.0032595885
1.1063401E-5
-7.309097E-4
0.0026939975
0.003515466
0.002857925
0.004101075
0.002467904
0.0026847438
0.0048203454
0.0044774427
0.0075873765
0.006632483
-5.149976E-4
-9.040838E-4
-1.09216635E-4
-0.0011408777
0.0020475162
0.0032097802
0.0011835482
9.436438E-4
0.0010194142
-1.6602098E-4
-1.559696E-4
8.382062E-4
-0.0012056709
-0.0031143583
-0.0023572748
-0.0027232624
-0.0033682897
-0.004779145
-0.0071677356
-0.0063380497
-0.0028010837
0.0010228185
0.0024665403
0.0013924709
0.0014143019
0.0012358702
5.377227E-4
4.4618116E-4
-0.0015364077
-0.0023561728
3.722707E-4
0.0020550056
0.0027869602
0.004139141
0.0036954805
0.002915715
0.0021971718
-8.056763E-4
-0.0023012997
-0.0016592216
-0.001985109
-3.034792E-4
0.0018270042
6.50922E-4
-2.9362697E-4
2.1866342E-4
0.001936539
0.0044633215
0.003029612
-6.184913E-4
-0.001173834
-2.080826E-4
0.0015791954
0.0025761093
6.7075086E-4
0.0013230767
0.004769213
0.0054685925
0.004482709
0.0035704842
0.0033804036
0.00360851
0.001765686
-4.07843E-4
-9.295303E-4
-0.0015285624
-0.0016766383
-0.0012837648
-0.0038531274
-0.0061067776
-0.004368193
-0.0062904507
-0.008663543
-0.0037544211
-5.5510644E-4
5.124049E-4
0.0024278876
2.8959932E-4
-6.3481746E-4
-8.133002E-4
-0.003969921
-0.005216699
-0.0058106584
-0.0065528704
-0.007849731
-0.008362848
-0.003564205
-1.917647E-4
0.0012522317
0.0050541395
0.0054723755
0.0043712114
0.004534281
0.0043205973
0.0052681295
0.005721333
0.004597228
4.1799195E-4
-0.0037053667
-2.4455364E-4
0.0030740858
9.469827E-4
0.0025573175
0.006336241
0.0050083515
0.0015680799
-1.2529294E-4
-0.0011531578
-0.00109229
-4.4106986E-4
-0.0039394405
-0.007926337
-0.0063888934
-0.0043221666
-0.0034038834
-0.002067617
-0.0021990244
-0.0018853403
-0.0010505292
-5.4905907E-4
-1.2460156E-4
-0.001044626
-1.3218734E-4
0.0013723972
0.0011096641
0.0030898964
0.0033068408
4.8272577E-5
-0.0018219491
-0.0030675004
-0.0027662166
-0.003434551
-0.007901624
-0.011033133
-0.012225826
-0.011422992
-0.007566444
-0.0039771325
-0.001913891
-7.7496876E-4
9.851202E-4
0.0030748162
0.003804896
0.0033489647
0.0015329231
3.4776103E-4
-9.379223E-4
-0.0010884922
0.003853235
0.00442547
-3.901012E-4
0.0012847594
0.0055259056
0.0072976598
0.008830657
0.009710729
0.009049184
0.003000341
-0.004977258
-0.00766166
-0.008547369
-0.009198659
-0.008241553
-0.007269674
-0.005393869
-0.0030034422
-0.0019857527
-0.001985212
-0.001036268
5.5278686E-4
-2.8297855E-4
-3.9332715E-4
0.0013382424
-1.242827E-4
-1.5100953E-4
0.0016333794
-0.0010083508
-8.641174E-4
0.0026186754
0.0023135326
0.0023534857
0.0020997843
3.082581E-4
0.0017964605
0.0035874068
0.0033519375
0.0013122594
-0.0013919894
-3.687152E-4
4.6687864E-4
-0.0010276178
3.5336692E-4
0.0020020956
0.0016907029
0.0031086481
0.004558416
0.0011949375
-0.002791075
-5.5714994E-4
9.4284106E-4
-0.0022671674
-0.0016094216
4.0444697E-4
-9.254684E-4
4.3941686E-6
0.002259814
0.0010581925
-0.0019114215
-0.0024241505
-5.1289925E-4
3.2381315E-4
-7.2127565E-5
-0.0018829991
-0.0042440495
-0.003368878
-0.0015986182
-0.0014161788
-3.5434865E-4
0.0014122135
0.0018062909
9.3423616E-4
0.0013979148
0.0019206261
1.06860745E-4
7.270036E-4
0.0029143295
0.0015222161
6.335273E-4
0.0021342535
0.0022499147
3.350302E-4
-0.0010914704
1.8527722E-5
0.0014133228
0.0012437333
3.59045E-4
-0.0010148243
-0.0012722326
2.833247E-4
0.0016963545
0.0014285782
5.258823E-4
0.0010936195
0.0018087205
0.0010950572
-4.8602847E-4
-0.0022576307
-0.002563699
-0.0011905257
6.563455E-4
0.0013953391
2.4677534E-4
-4.7881278E-4
-9.860318E-4
-0.0012996214
8.2876167E-4
0.0017911085
2.15791E-4
-1.0248319E-4
-2.195385E-4
-0.0014579396
-0.0021290793
-0.0014218362
3.6047827E-4
0.0016675029
0.0019409052
0.0017675785
7.627545E-4
-2.3206734E-4
1.6284834E-4
4.0084653E-4
-2.0581343E-4
-1.5678992E-5
-1.7180595E-4
-5.574064E-4
6.5285224E-4
-3.4605665E-4
-0.0030368564
-0.0013567301
0.0012994685
0.001425703
0.0016577791
0.0010367106
5.5204564E-5
4.6397693E-4
0.0014992087
0.0023865136
6.7966303E-4
-0.0013329014
-4.5747543E-4
5.0825773E-5
5.280798E-4
6.798431E-4
-0.001004373
-2.0936184E-4
0.0014219274
5.946283E-4
1.577892E-4
4.1964056E-4
3.5970952E-4
-3.289173E-4
-4.3214962E-4
3.274495E-4
-9.4802654E-4
-0.0016999339
-3.1350704E-4
-3.6377084E-4
-5.9567584E-4
-2.8276144E-4
-4.5598354E-5
0.0012793496
8.207034E-4
-0.0010081468
-1.2106542E-4
5.1692576E-5
-0.0021690382
-0.0015483897
2.170938E-4
-3.458279E-4
6.16866E-4
0.0023510084
0.0017632698
9.7634556E-4
2.7146272E-4
3.5871967E-4
0.0012471705
-2.9417893E-4
-0.001555093
-8.650999E-4
-0.0016175271
-0.0014427009
9.802544E-4
0.0017357668
8.332099E-4
8.7371176E-5
-1.3357901E-4
0.0010617264
0.002486021
0.0018058451
3.435558E-4
-4.233788E-4
-0.0014820865
-0.002129353
-0.0016165775
-2.5562404E-4
0.0014261921
0.0014867397
4.3475503E-4
-4.3718342E-4
-0.0010644712
2.8113075E-4
0.0010276334
-0.0014117003
-0.00153187
0.0013321759
0.0018170093
5.620061E-4
-5.614589E-4
-0.0020085454
-0.0026748315
-0.0020167064
-2.1156012E-4
0.0021335122
0.002087326
-6.426204E-4
-8.3370256E-4
0.002169824
0.002907821
0.002726995
0.003213718
-2.2209834E-4
-0.002761313
-1.2268854E-4
8.553004E-4
-1.69057E-4
-0.0010764769
-0.001521669
7.7821285E-4
6.8811415E-4
-0.0017557765
-4.1064317E-4
5.7363434E-4
-7.186014E-4
-0.0012059213
-9.765944E-4
-5.729673E-4
-0.0010680495
-0.0012922613
-6.2821223E-4
-5.1906717E-4
-8.546353E-4
-7.4583595E-4
0.0011006561
0.002033635
0.0017504543
0.0025806024
0.0015550466
0.0017659275
0.0029941206
3.956742E-5
-4.4444005E-4
0.0011681224
7.934828E-4
0.0013764366
9.119081E-4
0.0018384175
0.0017237457
-0.0033885762
-0.0031454142
1.7621373E-4
-2.1327441E-4
-1.3681591E-4
-8.4613333E-4
-0.0010177849
-4.7233203E-4
-0.0021868388
-0.0020345363
-8.958431E-4
-2.3104987E-5
9.055504E-4
-0.0012570785
-0.0015170103
0.0015684766
0.0018121001
7.709637E-4
7.6769653E-4
8.201529E-4
7.9720997E-4
2.5933175E-4
1.983402E-4
8.104192E-4
6.9935224E-5
-0.001200655
-8.154744E-4
-6.875648E-4
-9.558887E-4
8.507717E-4
0.0022506565
0.002777093
0.0026097742
-8.282722E-4
-0.0025274104
-0.0013475086
-0.0025564122
-0.0032729479
-0.0019000237
-8.830432E-5
0.0021754343
0.0026382
0.0021348195
0.0019757377
8.941114E-4
4.2138203E-5
-3.9624775E-4
-8.396531E-4
-6.104096E-4
-5.091454E-4
-2.736088E-4
8.417852E-4
0.0011529215
-5.6506924E-5
-9.796029E-4
-4.6093788E-4
6.5677194E-4
5.3287967E-4
8.595901E-4
0.0025860288
5.6576665E-4
-0.001331071
0.0013479972
6.5429904E-4
-6.5130665E-4
3.110216E-4
-0.0023867085
-0.0026258847
-2.2680942E-4
-3.7791108E-4
-5.345125E-5
-0.0014555375
-0.0019238074
7.640758E-4
0.0013376031
0.0020935189
0.0021908018
0.0015537925
0.001992636
-0.0031665913
-0.0077544646
-0.0035337275
0.0011360907
0.002139622
0.001663121
2.9921753E-4
-5.0694234E-4
9.685047E-4
0.003423941
0.0026318363
5.9719133E-4
7.1344525E-4
5.6426495E-4
1.7860597E-4
7.161835E-5
-5.556937E-4
-5.668784E-4
-3.9061188E-4
-2.9220578E-4
9.960416E-4
0.001803598
4.494255E-4
2.7765267E-4
0.0012240926
-5.1455834E-4
-0.0016947646
-0.0010353791
-0.0010569973
-4.8753154E-6
-5.3754216E-4
-0.0032139567
-0.0026137885
-0.0012978337
-0.0013259215
-1.847445E-4
5.433195E-4
9.6973026E-4
0.0014340791
8.093591E-4
0.0016063999
0.0024155334
1.6315297E-4
-0.0010161994
-1.17448784E-4
-1.6337163E-4
5.4380123E-4
0.0011733847
2.4371961E-4
8.221359E-4
0.0013047816
6.464413E-4
0.00152827
8.966281E-4
-0.0011713837
-3.6258958E-4
5.7605753E-4
-8.315673E-4
-0.0019963793
-0.0015152324
-8.041563E-4
-0.0010069566
-5.683394E-4
-2.993141E-4
-0.0015703972
-0.0012587804
2.0550778E-4
8.80625E-5
-6.414773E-4
-6.6689495E-4
8.944018E-4
0.0021974293
0.002027307
0.0018343977
8.347939E-4
0.0011865699
0.002111625
1.1673025E-4
5.697529E-5
4.2774258E-4
-0.0014347843
-5.96176E-4
-6.8934844E-4
-9.0727245E-4
0.001098237
-0.001591144
-0.0029502457
4.930823E-4
1.415611E-5
-0.0013669217
3.2519104E-4
0.0011532016
-1.062333E-4
-7.5520965E-4
5.4151594E-4
0.0010209241
3.8818739E-4
-4.882349E-4
-0.0011674251
-4.303827E-4
-6.1045313E-4
-0.0011274208
-2.62823E-4
8.5409713E-4
0.002029646
6.2549586E-4
-3.013171E-4
0.0018520405
3.558579E-4
-0.0015200649
8.227108E-4
0.0014929138
2.157958E-4
-5.304877E-4
-0.0012580052
-0.0018593555
-0.0026495021
-0.002325131
1.9160759E-4
0.0025189044
0.0036052892
0.0050864946
0.00533041
0.002742876
7.5003837E-4
1.3155068E-4
-0.0019102028
-0.004607014
-0.0043697497
-0.0020771318
-0.0015609172
-5.1538897E-4
0.0012292711
2.808258E-4
-5.842241E-5
3.3862767E-4
3.3715758E-5
5.037092E-4
-7.793489E-4
-0.0014187352
-9.0673166E-5
-6.970572E-4
-1.6087733E-4
9.787875E-4
3.0061303E-5
7.89063E-4
0.0015754496
-3.3932895E-4
-0.0024047229
-0.0029476662
-0.0015240341
1.5650046E-6
1.0982823E-4
8.7374856E-4
0.0022958878
0.0013205967
-3.764911E-4
6.914506E-4
6.7839574E-4
-0.0012540277
-2.1928888E-4
0.0011663524
6.4992986E-4
7.3831104E-4
4.2402663E-4
4.355597E-5
0.00125562
0.0022072413
0.0011237455
-3.9756345E-4
-2.3994423E-4
5.4937904E-4
0.0019792195
0.0033957586
0.0015094467
-9.751274E-4
-8.0772873E-4
-0.0014614273
-0.0038500843
-0.0037343206
-8.21808E-4
3.1239E-4
-3.8586205E-4
-0.0011667665
-0.0022232942
-8.212024E-4
0.0011013824
-2.588606E-4
-0.0010434845
1.758315E-4
3.9057015E-4
-0.0010141062
-0.0018104811
-8.6546317E-4
-2.3230679E-4
7.958711E-4
0.0014540392
-6.598704E-4
-0.0014307853
3.9858438E-4
0.002399627
0.004555963
0.0038966078
-6.5920665E-4
-0.0030829904
3.101095E-4
0.0034942895
0.0014446075
-0.001051557
-0.0010351597
1.15654686E-4
0.0020542482
0.0020102046
-5.838476E-4
-0.0018417342
-0.0013645021
-9.783298E-4
3.502058E-6
4.967448E-4
-7.0863764E-4
-7.528534E-4
-3.4651192E-4
-7.9149543E-4
-1.0996617E-4
-6.055873E-4
-0.0016120955
-3.1344988E-4
-4.4316653E-4
-0.0016448552
-2.0278592E-4
0.001254826
5.068627E-4
5.2020823E-5
9.9598146E-5
-4.6479906E-4
2.9588048E-4
0.0010264782
5.149659E-4
2.8225835E-4
-8.3960855E-4
5.4449414E-5
0.0015800669
-0.0014606476
-0.002329522
-6.174625E-4
-0.0011765456
5.319891E-4
0.0021982363
0.0010976655
0.0014479904
0.0021302158
0.0013049145
-1.6868889E-4
4.25219E-4
0.0025118752
3.319298E-5
-0.003168724
-0.0013567411
-3.146258E-5
-1.7297141E-4
7.2421576E-4
3.436717E-4
5.3258927E-4
0.0020298548
8.2958065E-4
-6.100295E-4
-7.526876E-6
-9.591435E-4
-0.00214603
-0.001266737
-0.0015480733
-0.0024943543
-8.041228E-4
2.7203627E-4
-0.0016873811
-0.0021697716
-3.0462694E-4
5.745037E-4
6.014152E-4
6.267555E-4
1.9547644E-4
7.609154E-5
0.001012736
0.0011440864
7.4146333E-4
0.0021466883
0.001703367
-8.035288E-4
-1.2270421E-4
5.5972487E-4
-1.1680781E-4
0.0012022572
0.0015973862
6.871796E-4
7.91839E-4
6.935253E-4
1.5979454E-4
-8.769341E-5
1.9630503E-4
-2.1400166E-4
-9.592771E-4
-3.5632518E-5
-2.8925185E-4
-0.0014692713
8.112908E-5
5.312232E-4
-0.0015695652
-0.0016332708
-4.894523E-4
-9.069972E-4
-0.0013636374
-7.827509E-4
-5.2486884E-4
-4.7048798E-4
4.0826984E-5
5.022332E-4
0.0011385689
0.0011374815
1.1371995E-4
-5.1655824E-4
-0.0011572296
-0.0013936863
-4.197025E-4
5.0969917E-4
0.0015611848
0.0013960439
-0.0015775245
-0.0033402406
-0.0017672463
-2.0265453E-4
7.907611E-4
0.0024919796
0.0034692825
0.0034437024
0.0029765535
0.002512627
0.0025363856
2.4492602E-4
-0.0020847633
-1.667052E-4
-4.066007E-5