-0.0026630533
1.2251454E-4
-2.0551562E-4
-0.001271919
-8.48157E-4
-6.8263564E-4
-0.0017083279
-0.001751881
-6.268709E-4
7.7645745E-5
8.9952623E-4
-2.8789963E-4
-0.0011276472
0.0013738052
0.0019519522
0.003149268
0.0058780857
0.0037332375
0.0019158768
0.0030738644
0.0034271167
0.00350688
3.3487348E-4
-0.0051044836
-0.006097484
-0.0034623714
-0.0029042305
-0.00438413
-0.003029871
-9.217982E-4
2.174989E-5
0.0020856285
2.3265913E-4
-0.002405984
-1.0124365E-4
-9.557585E-4
-0.0024530753
-2.3496123E-4
-5.589249E-6
0.0010979086
0.0027072586
0.003541227
0.005486401
0.002720486
-2.1044647E-4
0.0020010746
0.0027373803
0.0016303816
0.0010647502
0.0016352483
0.0011597879
-0.00158647
-0.0019163307
-0.0020311703
-0.00295827
-0.0018835012
-8.368051E-4
-1.6076243E-5
-0.0016602963
-0.0031389496
-0.0015450192
-0.0019901665
-4.2250284E-4
0.0013147517
-0.0012154669
2.2775377E-4
0.001415111
-0.0014737714
-0.00185444
-0.001262005
-0.001366326
-0.001265051
0.0013906434
0.0047607506
0.003095808
0.0010612353
5.637383E-4
-9.239198E-4
-0.0010181526
-4.997168E-4
9.3723676E-4
0.0020954285
4.875476E-4
-7.907624E-4
-0.0015845419
-9.0118253E-4
0.0028000013
0.0048889127
0.0050164405
0.0058280057
0.004727464
3.0473364E-4
-0.0034238452
-0.0037718634
-0.0035805607
-0.004806804
-0.0040088044
-1.446525E-4
0.0018230428
0.0012385459
-3.2384874E-4
-0.0031386984
-0.0020026648
7.9947436E-4
-0.0027205197
-0.0055355937
-0.002298199
3.3988146E-4
-2.6653166E-4
-0.0013180919
-3.8662663E-4
9.911847E-4
7.6194544E-4
3.7011065E-4
9.898014E-4
0.0026956266
0.0036725171
0.0030910172
0.003145651
0.003314002
0.002130026
5.8136262E-5
-0.0018293922
-0.0014156225
3.4973858E-4
-1.0764848E-4
-7.3131337E-4
0.0012900464
0.0015539541
-9.6341205E-4
-0.0019605644
-0.0021211987
-0.0015299481
8.0002245E-4
7.799405E-4
-0.0017832009
-0.0023771063
-0.0014665463
-0.001068848
-3.0784715E-5
7.123602E-5
-0.0018053812
-6.4165465E-4
0.00274623
0.002596175
-1.5884898E-4
-0.0019272371
-0.0012102438
-6.8283774E-4
-8.6872315E-4
0.0018592041
0.0030447596
9.0596493E-4
0.0018803498
0.004338549
0.0043716696
0.0016344989
-0.0031148721
-0.004742835
-0.0021404952
7.8911206E-4
0.0028897044
0.002286557
-4.793757E-4
-5.8615E-4
-2.6732957E-4
-0.0029004037
-0.0028692752
-4.5636285E-4
-0.002070305
-0.0041843145
-0.0028401376
-8.497392E-4
9.000708E-4
0.0025505337
0.0024463101
8.0045086E-4
8.056476E-4
0.0023324022
0.0026061377
0.0010929011
-0.002484338
-0.0042483024
-0.0023233653
-0.0011782169
9.4949576E-4
0.003960669
0.004055843
0.0030575609
0.0012384192
0.0013874401
0.002906631
-7.921988E-4
-0.003721554
-0.0024855467
-0.0027082376
-0.0025065602
-0.0023286752
-0.0028890201
2.6548404E-4
0.0037689407
0.003080572
0.0013774886
1.1398757E-4
-0.0022180737
-0.0029674456
-3.6246257E-4
0.0020832468
0.0022609523
0.0010997825
1.9177461E-4
-2.8868325E-4
-6.0626277E-4
5.95842E-4
0.001894535
0.0022403547
0.0021318896
1.3891682E-4
-0.0013424295
-0.0012872801
-0.0018073946
-0.0011177922
-6.8439236E-5
3.1931512E-4
0.0015373727
8.126268E-4
-0.0015148077
-0.0014416971
-8.711209E-4
-0.0020255502
-0.002673702
-0.0016218947
1.4066426E-4
1.5425127E-5
-0.002376027
-0.002515391
-9.0711174E-4
-7.858734E-4
-1.7483374E-4
9.7156665E-4
0.0026026203
0.0043694885
0.0030114744
0.0012217698
8.809817E-4
-0.0015284602
-0.0036890628
-7.4285775E-4
0.0042649424
0.0052058827
0.003576993
0.002550721
9.778386E-4
-4.999132E-4
-4.543364E-4
0.001125196
0.0018352056
1.5732387E-4
-4.1077306E-4
7.596862E-4
0.0010409033
-0.0021563119
-0.0073146704
-0.0072981045
-0.0034288312
-8.91837E-4
7.863564E-5
-0.0010687747
-0.0018642353
-0.001217732
-6.8674394E-4
-5.2486703E-4
-4.8659166E-4
9.105884E-4
1.7476761E-4
-0.001074812
0.0016502879
8.888535E-4
-0.0011151574
0.0016419879
0.0024980456
0.0010564078
3.3873282E-4
0.0014466441
0.0036768876
0.0027841085
0.0010290212
3.549184E-4
1.9038083E-4
5.9647637E-4
-5.2986835E-4
-2.9908487E-4
0.0014012347
0.0012124811
5.408611E-4
-1.7523069E-4
0.0011043119
0.0018599048
-4.0503455E-4
0.0010437614
0.0013587768
-0.0027921153
-0.0020563602
1.7824836E-4
-3.922091E-5
-3.4559827E-4
-0.0022943267
-0.0026727007
-0.0015563444
-0.0017236333
-0.0015697816
-0.0022391435
-0.0022037674
-0.0012984342
-0.0015153171
5.1917883E-5
0.0013817481
0.0012108488
0.0017064536
6.6232996E-4
-7.9899066E-5
0.0015906896
0.003034967
0.0021062496
-9.75346E-4
-0.0021197596
-0.0011911177
-0.0010313228
-2.6980447E-4
1.9522077E-4
-0.0010464469
-0.0011123895
0.001137319
0.001830024
3.0227511E-6
-8.8834924E-5
5.9830584E-4
-2.7423355E-4
-0.0013906888
-0.0024124056
-0.0016117926
5.515299E-4
0.0022109696
0.0031136386
0.0012546319
3.8676392E-4
0.0039945776
0.007840706
0.008898802
0.005327876
0.0011270362
0.0016540717
8.841441E-4
-0.003682035
-0.0061545754
-0.0060449443
-0.0055131707
-0.004429134
-0.0031519413
-0.0028331757
-0.0037353279
-0.004407207
-0.0033736096
-0.0018585391
-0.0013008472
-4.851145E-4
4.2980435E-4
3.290178E-4
-6.0325913E-4
-0.0023004732
-0.0020086912
9.290028E-4
0.0022816665
0.0029119723
0.0048968825
0.0053704926
0.0041115806
0.003466448
0.003494976
0.0036987914
0.004010412
0.0022448911
-0.0017600172
-0.0032883761
-0.0025282493
-0.0016281368
9.693005E-4
0.0012368519
-0.0014320973
-0.0010802846
-0.001300615
-0.0039467416
-0.0032493728
-7.162872E-4
0.0010560622
0.0019896794
0.0013253184
0.0017112768
0.0014877701
-9.178988E-4
-6.9637725E-4
3.119649E-4
-1.7624836E-5
-6.051231E-4
-0.0027979342
-0.0025336035
-0.0014011598
-0.003178206
-0.0013388467
0.002002507
0.0020293153
8.736786E-4
-3.7850617E-4
8.828848E-4
4.854517E-4
-0.0021881221
-2.244075E-4
0.001540008
0.002003093
0.0029169284
9.750369E-4
0.0011923753
0.0017816133
-9.609904E-4
-8.851027E-4
0.0011479699
0.0012125284
-9.831807E-4
-0.0018091089
-7.618508E-4
-0.0038070735
-0.0054546176
-0.0019015721
2.4576252E-4
0.0010273244
1.0552435E-4
-0.0016186333
-0.0020654236
-0.003917584
-0.0032481467
9.233829E-4
0.002631353
0.0019218484
0.0011676069
0.0022306668
0.0041869455
0.0045612925
0.003946006
0.0021006842
2.8166926E-4
0.0010909382
0.0043046563
0.0072379606
0.0061557256
0.0023485643
-0.002458921
-0.008047792
-0.007694047
-0.0011336979
0.0022879923
8.569819E-4
-0.0013590107
-0.0025135959
-0.0034520268
-0.0042942064
-0.0026937416
-0.001172247
-0.0025885364
-0.0035586685
-0.003883124
-0.0050838063
-0.004222062
-4.2483085E-4
0.002358251
0.002042134
0.002278442
0.004172237
0.0037359188
0.0015851677
0.0010461392
0.0017407384
0.0022000328
0.0023731887
0.0022178676
0.0011249208
0.0012693008
0.0024461597
0.0010472185
0.0010213614
0.0034181569
0.0014580336
-0.0017618794
-0.001294392
-5.890305E-4
-0.001094997
-0.00196793
-0.0029427863
-0.0035758864
-0.0032863817
-0.0019980567
-0.0017462237
-0.002004112
-0.0011303049
1.2458829E-4
0.001758325
0.001190635
-5.071576E-4
0.0021932495
0.004779784
0.0033457563
0.001766791
9.414701E-5
-0.0019506365
-0.0022877655
7.0676545E-4
0.0041404576
0.0031233702
4.219062E-4
-0.0024897107
-0.004403823
-0.0019840312
-0.0017897873
-0.0036418168
-0.0017429144
-0.0014322334
-0.0032817665
-0.0034937996
-0.0015046977
6.227368E-4
-0.0010936059
-0.0017339875
7.9500425E-4
0.0021607177
0.004599894
0.0063673
0.004896488
0.003528788
0.0033371225
0.0031801842
0.0012670108
-3.3045845E-4
-6.039591E-4
-0.002132094
-0.0021194192
-3.9022774E-4
8.5721945E-4
0.0021578108
8.6726516E-4
-0.0021338495
-0.0029623604
-0.0026295523
-0.0040642777
-0.0056675985
-0.0030881509
-0.0011975244
-0.0032358076
-0.002753023
-0.0019054103
-0.0030098148
-8.4120285E-4
0.0027355137
0.0043136817
0.00530597
0.006359554
0.005772545
0.003232934
0.0029583792
0.004877147
0.0030954692
-0.0013020362
-0.002543042
-0.0025390335
-0.0040660207
-0.0019104882
0.0026844207
0.0027350227
0.0010295667
-8.2303013E-4
-0.00445941
-0.004804501
-0.0023232985
-0.0022288228
-0.0023455303
-0.0017997761
-0.0028771658
-0.002794734
-0.0014269084
-0.0021656235
-0.0019265483
-3.220802E-4
-0.0012382086
-5.6144065E-4
0.0036688352
0.0062796324
0.007469208
0.008514356
0.006372701
0.0028671862
0.0025092016
0.0027981661
2.8972534E-4
-0.0028296472
-0.0036218842
-0.0028857682
-0.0036054451
-0.0040282053
-0.0021065616
-0.0013636735
-0.0013929569
-0.001116361
-0.002205961
-0.00219192
-9.033329E-4
-2.1564847E-4
-8.322261E-4
-0.0028885764
-0.002271158
2.7146237E-4
4.9795426E-4
7.2183285E-4
0.0025533957
0.0045054564
0.0032452221
-5.979579E-4
3.5753095E-4
0.0035857745
0.0025519354
9.627453E-4
0.001120624
0.0013375047
3.128862E-4
-9.632233E-4
-1.07627166E-4
-0.001097177
-0.004320341
-0.004888276
-0.0046287463
-0.002783319
0.0015979602
0.003455067
0.0031751888
0.0026426006
0.0017984089
0.0016697237
0.0020184056
0.0034426367
0.0050656446
0.0056954958
0.005572702
0.0030381947
-7.794593E-4
-0.0033850968
-0.005317227
-0.008113141
-0.011172934
-0.009917062
-0.0050793113
-0.0026152467
-0.002411133
-0.0031246713
-0.0045924177
-0.002599883
0.0019306849
0.0012177033
-0.0020900108
-0.0021089367
-0.0029923455
-0.0031802964
6.3394755E-4
0.0044243895
0.0061938968
0.004566137
0.0051238844
0.01189348
0.01693429
0.01870847
0.016550269
0.008943873
9.4833894E-4
-0.0040024174
-0.002552589
-0.0032792492
-0.012368554
-0.013388673
-0.004858699
-0.0021452077
-0.0064593107
-0.00819455
-0.0041963453
-0.0020118356
-0.0011475047
-3.1543642E-4
-0.003305464
-0.0036855373
-0.0031819157
-0.0040823384
-3.4813068E-4
0.0010976961
3.7648538E-4
0.002179626
4.1707495E-4
-4.877598E-4
0.0013472887
3.5808928E-4
0.0017844848
0.004979485
0.004357043
0.0030413726
9.86342E-4
-9.957695E-4
-8.2237035E-4
-0.0032711085
-0.0041815364
2.0842334E-4
0.0017156384
9.4908534E-4
9.066693E-4
1.98561E-4
0.0021397322
0.0046332474
0.002491085
-0.0011941419
0.0011923651
0.007775717
0.007990659
0.003826935
0.0032247787
0.0048242323
0.00513968
0.0026369235
-0.0012880852
-0.00495434
-0.0073627476
-0.008783646
-0.008943841
-0.0050258334
-0.003976754
-0.007157538
-0.0057136607
-0.0046567856
-0.004604185
-0.0032000751
-0.0049421666
-0.0017143185
0.0056801587
0.00750085
0.006177534
0.0018101699
-0.0031075347
-0.00361139
-0.0022939742
-1.9229595E-4
0.0020996998
0.00484288
0.009757738
0.012381089
0.008906295
0.0033769861
-0.0015242242
-0.00576388
-0.004680569
-8.843264E-4
-0.0039935047
-0.010539065
-0.011100845
-0.0049192463
0.0012559482
0.0027211728
0.003182941
0.0040073716
0.0039944085
0.003952174
0.0012330628
-0.0031017154
-0.004876142
-0.0032024554
0.002884091
0.008765056
0.007768692
0.0035391124
0.0026103503
0.003399577
3.179994E-4
-0.0051502455
-0.0038369258
0.0036860895
0.0038760318
-0.0033663032
-0.00564576
-0.0045531346
-0.0037335472
2.4247693E-4
0.002113686
9.7414944E-4
0.0025799763
0.0017573944
-0.0020758861
-0.002448003
-0.002131249
-0.0018355701
-8.4906747E-4
-0.0043405565
-0.009272514
-0.009643075
-0.007385396
-0.0047081653
-0.0019726336
4.6344467E-5
7.4168853E-4
9.4178016E-4
8.088168E-4
-2.500875E-4
8.3192904E-4
0.0037574235
0.00533479
0.00760423
0.010341287
0.011040472
0.010604726
0.010464906
0.009289266
0.004412448
-0.0013912352
-0.006803381
-0.014947059
-0.022960968
-0.027878467
-0.029907601
-0.02978763
-0.029635472
-0.028780123
-0.026070265
-0.019894402
-0.008667094
0.0048551573
0.0189692
0.03013317
0.030790927
0.026241168
0.031134812
0.041605834
0.043309584
0.037931353
0.032235105
0.026725033
0.021750595
0.022406522
0.03184343
0.032791205
0.014155844
-0.0070763575
-0.020363355
-0.025364084
-0.024109952
-0.022624027
-0.022055333
-0.026484288
-0.034644734
-0.03982468
-0.04121863
-0.03771092
-0.034971498
-0.033598375
-0.03036487
-0.029267417
-0.023155699
-0.013703775
-0.0027183047
0.022309428
0.052641157
0.07778731
0.08855594
0.08015268
0.07185279
0.05475751
0.020746717
-0.004136663
-0.021632208
-0.04292249
-0.06928226
-0.10052794
-0.11383478
-0.101531066
-0.0851981
-0.06623654
-0.033332866
-0.0016563581
0.012637526
0.021157071
0.039084736
0.07484191
0.11709363
0.1372259
0.13449681
0.119802766
0.09435109
0.07144641
0.06437813
0.087611385
0.12305411
0.090612985
-0.012556541
-0.07410712
-0.073238775
-0.09220552
-0.11314223
-0.098506376
-0.13613372
-0.21702407
-0.21378227
-0.15308022
-0.103187054
-0.067421414
-0.09342681
-0.15072466
-0.15897204
-0.12468817
-0.052099366
0.039398633
0.107482605
0.14294812
0.16015275
0.21358031
0.2898216
0.3372444
0.3827865
0.3792895
0.27058488
0.12507501
-0.017332248
-0.12915157
-0.18285342
-0.23077534
-0.2585714
-0.17936088
-0.019344253
0.094075136
0.0927186
0.031159077
-0.035807077
-0.087352976
-0.104846515
-0.16810465
-0.28036794
-0.25878045
-0.11995255
-0.054266825
-0.047001574
0.001877853
0.07189746
0.09294362
0.05791541
0.006494223
-0.07054968
-0.13321394
-0.09870573
-0.02238136
0.054750707
0.16287988
0.2124394
0.16017881
0.09800352
0.03666202
-0.025170969
-0.031271297
-0.0024075522
0.04298104
0.13193758
0.23167269
0.27336955
0.22637945
0.15620764
0.1184714
0.08690335
0.054111067
-0.033167873
-0.14190221
-0.1367352
-0.15025434
-0.286587
-0.37509316
-0.3587439
-0.26718014
-0.1400516
-0.05721214
0.0061124978
0.06892947
0.08756252
0.07656022
0.084313616
0.05232837
-0.0898208
-0.18167603
-0.13385844
-0.066647984
0.006406134
0.07229048
0.13921137
0.27928543
0.38368222
0.3548385
0.25368372
0.16628568
0.09913822
-0.030161873
-0.17715473
-0.24583194
-0.24304155
-0.1845976
-0.10534794
-0.007989461
0.083123006
0.09103166
0.04505232
5.0269254E-4
-0.017460696
-0.023089549
-0.032791846
-0.005247842
-0.023121824
-0.100661255
-0.11075539
-0.10796927
-0.082778424
0.022262124
0.052939042
0.007682596
0.012934443
0.048036244
0.10391835
0.15922101
0.1061899
-0.029257193
-0.10529135
-0.11181395
-0.07124768
0.031007139
0.12140986
0.18807462
0.22528586
0.1432891
0.022491056
-0.038904786
-0.072261676
-0.06581233
-0.057372898
-0.09079469
-0.11007732
-0.10151211
-0.07083678
-0.01498316
0.02092708
0.014602374
-0.011288342
-0.03913947
-0.05649167
-0.05485457
-0.041249696
-0.02506938
-0.012062713
-0.0039376384
0.0056347433
0.015767911
0.02567781
0.036833692
0.042950258
0.04683675
0.051738374
0.054619193
0.052551914
0.041292157
0.028535953
0.016768722
0.005024572
0.0040037716
0.0031370502
-0.006384069
-0.012377284
-0.019287268
-0.028237991
-0.028221438
-0.021977069
-0.015011944
-0.009264137
-0.0037891837
0.0023031605
0.005112281
0.004458915
0.0035879605
0.0038696055
0.0029856274
0.0013164831
2.7926438E-4
-0.0043555005
-0.0089536775
-0.009955103
-0.011614914
-0.011311588
-0.008469936
-0.0064054695
-0.0033797945
8.42892E-4
0.003213975
4.497051E-4
-0.0028584667
-0.0025253913
-0.0020255244
6.0993055E-4
0.0018122768
-0.0027075352
-0.004683973
-0.0038629167
-0.0030337637
-8.4728387E-4
-9.750724E-4
-0.001227756
0.0016659606
0.0034166195
0.0030816328
0.004121811
0.005504
0.0033534775
0.0024646518
0.005982451
0.0067678997
0.0065239547
0.008114969
0.0040402943
1.4726013E-4
0.005259983
0.004960903
-0.004986831
-0.008274
-0.008368411
-0.012688547
-0.014612533
-0.015063699
-0.013304755
-0.008613263
-0.004069329
0.0022590847
0.00289355
-0.0024181958
-0.0038907188
-0.0056268154
-0.0064645247
-0.002456458
-2.468935E-4
5.6311987E-5
0.0033438324
0.0105982125
0.019741246
0.02701602
0.02753621
0.02696531
0.034058183
0.028402993
-7.498794E-4
-0.025260424
-0.03188315
-0.02496833
-0.010713713
-0.00284143
-0.0021420617
-0.0026678748
1.6509312E-4
0.005890254
2.8540698E-4
-0.011945593
-0.013154898
-0.009201038
-0.008332742
-0.007077985
-0.0046928767
-0.0023551472
5.1528297E-4
0.0032875922
0.005385602
0.008192737
0.009810743
0.00860058
0.0070329816
0.004468286
0.0015374621
9.0644305E-4
0.0014193658
0.0030634073
0.0047913734
0.00386822
0.0022667656
0.0016245584
7.3621044E-4
-3.6063392E-4
-0.0014264307
-0.0022844844
-0.0020852946
-0.001964392
-0.003356942
-0.0039466117
-0.0030923302
-0.002382044
-9.790446E-5
0.0023456092
9.128748E-4
-0.0018263399
-0.0027320394
-0.0031794594
-0.0037527345
-0.004303032
-0.0051292516
-0.0058853137
-0.006767007
-0.0071173063
-0.004933518
-0.0012640506
0.0011034135
0.002846285
0.005281097
0.006821486
0.006464878
0.0062301974
0.0075531425
0.007850276
0.006610013
0.007888606
0.0096594235
0.0076938886
0.0055125467
0.0048086904
0.003546607
0.0016193246
-0.00173782
-0.004387983
-0.0043242173
-0.0046440293
-0.0050323824
-0.004186484
-0.004667474
-0.0056788437
-0.006161771
-0.007971349
-0.009651771
-0.010875069
-0.012673869
-0.01149533
-0.007831558
-0.0056895837
-0.0048701772
-0.003383363
4.7668297E-4
0.00257926
1.6528752E-4
3.047039E-4
0.0046716155
0.007858596
0.007911285
0.006949377
0.0067293253
0.006163826
0.0070050536
0.006831805
0.002224231
0.0016556053
0.0060151713
0.007467262
0.0062777167
0.004585968
0.0042243283
0.0035637212
-0.0018372997
-0.009198201
-0.011214322
-0.0072259335
-0.0049380194
-0.00442439
-0.002633638
-0.0034512505
-0.0047523617
-0.0061625578
-0.007179683
-0.0027979433
-5.15057E-4
-0.0019300722
-0.0012633973
-0.002602729
-0.0045763417
-0.0050721876
-0.0049560736
-0.0015448191
0.0015377579
0.0014191278
0.0010515237
0.0015334642
0.0020258718
0.0017911931
9.916642E-4
-6.6480495E-4
-0.001314174
7.2103326E-4
0.0019948436
0.0010154726
7.78367E-5
4.3420237E-4
0.0014947536
0.0011211404
-8.4609695E-4
-5.8538007E-4
0.0012612845
-5.4798555E-4
-0.0018787711
2.3544524E-4
-2.3734294E-5
-2.9925263E-4
3.2283273E-4
-0.0013003566
-0.0015477777
-0.0020653813
-0.0031319424
-0.0018960892
-0.0020243074
-0.0026063449
-0.002786293
-0.002777382
-5.737724E-4
-7.0263876E-4
-0.002173067
-0.0020802487
-0.004566012
-0.0048364587
-1.2462673E-4
0.0022502546
0.0021924444
0.0014356157
-2.6924035E-4
0.0012353354
0.0046219532
0.005939536
0.00661627
0.003985016
-0.0015919912
-0.002469574
-6.978727E-4
-2.416383E-4
9.832063E-4
4.5135115E-5
-0.0018138955
0.001380033
0.0042561973
0.0020084812
0.0011524848
0.0032076258
0.00234925
-6.090323E-4
-0.0023981833
-0.0043375837
-0.005034423
-0.0032465672
-0.0019316253
-8.0201915E-4
-7.651687E-4
-0.0024457718
-0.0010747062
4.2877317E-4
-7.1985624E-4
-3.4796592E-4
-0.0010779423
-0.0015793218
0.0013394236
0.002069362
0.0019176085
0.0034260575
0.0031093883
0.0010549946
-0.0010402447
-0.0013513438
-5.700752E-4
4.3388573E-5
0.0014707346
0.0026854854
0.0045475815
0.00623668
0.0052384203
0.0037615297
0.0022352373
0.0010479155
0.0017847699
0.001912754
-4.6240864E-4
-0.0030902366
-0.0043872558
-0.006293191
-0.0061738966
-0.002244378
-0.0010469042
-0.0015531214
-4.2404537E-4
-6.4259506E-4
-9.922874E-4
-1.8829631E-4
4.535001E-4
-0.0012182865
-0.0032103977
-0.0015845869
-0.0015176799
-0.0020051384
-8.60891E-5
-1.358898E-4
0.0021526031
0.004558736
0.0022564568
0.002037109
0.0024898243
0.0024842732
0.0037434406
0.001555183
-8.2422193E-4
1.8159462E-4
0.0010847376
0.0020117897
0.0029635075
9.803468E-4
-0.0017012267
-7.355558E-4
7.7833096E-4
6.949747E-4
2.4948947E-4
-0.0012982074
-6.461819E-4
0.0012956834
3.398907E-4
2.8441276E-4
0.0013148721
7.55651E-4
8.974294E-5
-8.2612026E-4
-0.0015720212
-8.434474E-4
-7.096245E-4
-0.0023593137
-0.0013974402
0.0011890379
-4.034962E-4
-0.001107984
0.0010964249
4.0070267E-4
-0.0015590957
-0.003201595
-0.0032217829
-5.2486715E-4
-8.394501E-6
-8.672351E-4
1.6936066E-4
0.0010091423
0.0011731097
0.0014752758
0.0015025225
0.0015096695
0.0018850962
0.0013032431
5.329352E-4
0.0014217374
0.0019228715
0.0021321354
0.002053774
3.0710173E-4
-4.6787853E-4
-8.3280227E-4
-0.0015385739
-7.5674284E-4
5.135171E-4
0.002278733
0.0026303553
0.001450448
0.0015436757
-5.7490653E-4
-0.0035337002
-0.002181041
4.0574686E-4
0.0011506713
6.1920284E-5
-6.756962E-4
6.692287E-4
5.273391E-4
-0.002069595
-0.0029067902
-0.0012906233
-9.3792955E-4
-0.0015004425
-3.4992755E-4
-2.884419E-4
-0.0017572821
-0.0012435392
-2.7052418E-4
-8.408318E-4
-4.4743821E-4
0.0017106117
0.0028735658
0.0030531955
0.0022458492
-3.7566206E-4
-0.0011225083
-4.092749E-4
-2.949773E-4
8.0555206E-4
6.737171E-4
5.49077E-4
0.0017169395
0.0022184094
0.0038673212
0.0031278227
4.4846055E-4
6.3232693E-4
-4.3996886E-4
-0.001078934
1.7177413E-4
-0.0014193086
-0.002299254
-2.6553925E-4
7.012005E-4
-7.2379305E-4
-0.0017408781
-0.0018436315
-0.0031596727
-0.002380837
9.554352E-5
6.283694E-4
0.001353896
0.0011506128
-0.001211001
-0.0020730244
7.5238297E-4
0.002144584
-0.001121488
-8.5986743E-4
8.043852E-4
-5.4388517E-4
0.0014187027
7.253668E-4
-0.0028823805
-0.0016785024
2.5200166E-4
0.0029812085
0.0040416885
0.0014484557
7.1093574E-4
3.3547662E-4
0.001869472
0.0021509537
-0.0029488832
-0.002604572
0.001550535
0.001175043
-4.5882617E-4
-9.918993E-4
7.926619E-4
0.00179118
3.019505E-5
5.0004106E-4
0.0020249393
0.0024222352
0.0026199422
0.0011742996
-5.015406E-4
-0.0011042275
-0.0025961846
-0.0035754521
-0.0027656166
-0.0025293843
-0.0015367507
0.0011652305
0.001536549
-2.7760841E-5
-8.322038E-4
-0.0016154135
-0.0018105288
-5.990543E-4
2.2249242E-4
7.4251698E-6
7.408602E-4
0.0014431304
6.0387753E-4
8.6974393E-4
0.00128247
2.753005E-4
1.4648121E-4
-1.9862632E-4
-6.026591E-4
-9.028052E-5
-0.0011172647
-0.0018029035
-3.184703E-4
9.38749E-4
0.0016615032
0.0015957452
4.8166726E-4
7.259395E-4
0.0020297286
0.0018566247
0.0012045708
5.5551078E-5
-0.0024665003
-0.0026874219
-6.9732463E-4
5.256132E-4
0.0015191908
5.7121523E-4
-2.4920632E-4
0.0024515006
0.0034399207
0.0027049768
0.0032640242
0.0019807261
5.4133747E-5
-0.0014399133
-0.0033388308
-0.0036232471
-0.004254052
-0.0048258216
-0.0026080615
-0.0010525776
-4.3007203E-6
0.00213327
0.0019564526
0.0011658315
0.0012482677
-6.519328E-4
-0.0016338971
-5.868044E-4
-5.339127E-4
1.7897757E-4
7.36158E-4
1.8880719E-4
0.0013129862
0.0012631472
-7.9569884E-4
-0.0010166902
1.6399874E-5
0.0010606879
0.0010430122
-1.5143419E-4
-5.415489E-4
3.9431785E-4
0.001470501
-1.0247671E-4
-8.8721525E-4
0.0024042171
0.0023696548
-3.49122E-4
-6.0874363E-4
-0.001880653
-0.00208605
3.8434516E-4
0.0015580886
0.0015960664
7.402067E-4
4.9007655E-4
0.0013666662
6.3292444E-4
1.4149214E-4
8.820428E-4
8.453646E-4
-3.7674786E-4
-0.001453773
1.6536866E-4
7.3478883E-4
-0.0022875199
-0.0024772247
-3.6629193E-4
-6.6355366E-4
-0.0018122409
-0.0030124853
-0.0030990436
-6.5853086E-4
0.0016711181
0.0021133097
0.001537646
0.0012308168
0.0013099407
0.0010441262
9.2781713E-4
0.0010194449
6.9767423E-4
1.7376678E-4
-3.094861E-4
-5.8170517E-5
6.169378E-4
-4.229163E-4
-0.0013929856
5.497781E-4
0.0011148475
-0.0012601423
-0.0013099782
3.2752086E-4
6.7112833E-4
4.7845213E-4
-6.6348404E-4
-0.0021717618
-0.0019361919
-4.6418255E-4
-1.4701173E-4
-5.716739E-4
-2.3636036E-5
2.8373892E-4
0.0010406696
0.0020029736
9.9703E-4
-4.0058215E-4
-0.0026630843
-0.0026777948
0.0015562194
0.002028163
0.0013532337
0.0030332676
0.0019010466
0.0024784056
0.003533789
3.132323E-4
-8.3833735E-4
-8.1801007E-4
-0.0023220947
-0.002349037
-0.002056834
-8.3941885E-4
0.0012830548
4.9380586E-4
-9.552952E-4
-4.8052103E-4
-0.0011146158
-0.0012131868
0.001264734
0.0020516552
0.0010400871
6.591347E-5
-7.0218043E-4
-5.800225E-4
-0.0013459582
-4.672482E-4
0.0014217459
-5.696795E-4
-7.876076E-5
0.0026781668
0.0014493004
9.2757575E-4
2.1287944E-4
-0.0015528032
5.417699E-4
0.0010715035
-0.0027981184
-0.0046229865
-0.0027092032
1.8283132E-5
9.2238915E-4
-4.0371207E-4
-0.0017633239
-0.0021255212
-0.0022677635
-9.005333E-4
0.0012590706
0.0010585774
9.867208E-4
0.0018989249
0.0016648937
0.0013886368
-2.3591505E-4
-8.789425E-4
0.0025702207
0.0042334264
0.003155636
0.0030985763
0.0024409476
5.375256E-4
-4.2639874E-4
-1.6782025E-4
-2.483805E-4
3.6452003E-4
9.307221E-4
-0.0014902386
-0.0023377156
-4.940753E-5
-4.791676E-4
-0.0021219146
-4.1195625E-4
0.0018417296
4.848945E-4
-6.5114815E-4
9.041209E-4
1.2960153E-4
-0.0013415194
-0.0014791609
-0.0023763992
-0.0014494889
-8.3428295E-4
-0.0019446791
-0.0010461347
-6.5387675E-4
-0.0022848493
-0.0027656718
-4.1542415E-4
2.6544902E-4
-0.003726587
-0.0044073374
-0.0015008574
-8.0620835E-4
7.86611E-4
0.0023391307
0.0018570871
0.0013902195
5.1828637E-4
8.6626975E-4
0.0026559434
0.0037450385
0.0048042233
0.0050283927
0.0030234219
0.0025255345
0.0051701497
0.0050140964
0.0025909683
0.0035444903
0.004084669
0.0014295528
-4.7976576E-4
-0.002018686
-0.006104716
-0.008527858
-0.005615736
-0.00388924
-0.0044670277
-0.0035462296
-0.0030045274
-0.0013186714
-3.271593E-4
-0.0018076644
-0.0016905216
-0.0020357983
-0.0011776303
0.0012217647
8.66291E-4
0.0013328695
8.9104206E-4
-9.692136E-5
0.0023732968
0.0029749116
0.002542937
0.0025905299
0.0015587473
9.911037E-4
-6.93519E-4
1.2713119E-4
0.0023023265
4.5680857E-4
-4.2434876E-5
-1.7580113E-4
-0.0013461431
-4.4462337E-5
-0.0010164175
-0.0035447732
-0.0028066516
-5.5269565E-4
7.359491E-4
0.0010975039
0.0019312443
0.0015363063
9.684004E-4
0.0020002045
6.856297E-4
-3.9339025E-4
0.0012774351
0.0020122621
0.0018163489
7.9752516E-4
4.262311E-4
4.3893122E-4
-0.001921907
-0.0024708998
-0.0010745676
-6.9229957E-4
-1.308021E-4
-9.6303783E-4
-0.0013374669
-3.431039E-4
-0.0016948569
-0.0027867905
-0.0015124006
-4.5495463E-4
-8.039324E-4
-8.7092235E-4
2.1305341E-4
-8.1521575E-5
-6.687968E-4
-6.4116693E-4
-7.487142E-4
0.001203164
0.0024884164
0.0023651891
0.002822263
0.0018966935
0.0021898588
0.0028160512
0.0010128174
9.21437E-5
-9.6769835E-4
-0.0017391709
-3.6414358E-4
8.3536E-4
0.0010993143
-2.9314895E-5
-3.9946166E-4
-4.7055917E-5
-9.834978E-4
-7.2618434E-4
-8.063612E-4
-8.61861E-4
3.0471158E-4
-4.714383E-4
-4.884252E-4
-9.597844E-4
-0.0030357097
-0.0019656173
-0.0013020221
-0.0013788415
4.68169E-5
-5.000207E-4
-0.0011309083
-4.157482E-4
-3.616511E-5
-1.852269E-4
4.284197E-4
0.0023307062
0.001365561
-6.480653E-5
0.0017197499
0.0019555066
0.0015109894
0.0013518786
-5.8656576E-4
-6.5168657E-4
0.0014946645
0.002961931
0.0029569378
0.002381531
0.002425052
0.0018770306
0.0012077113
8.758117E-4
4.7108415E-4
2.04052E-4
-0.002753449
-0.006509183
-0.0053515113
-0.001091627
3.169287E-4
-0.0027816312
-0.0050135716
-0.002876401
-3.3085304E-4
-1.7363776E-4
-0.0012289714
-7.097059E-4
0.0012082186
-6.9983456E-5
-0.0023129615
1.9871333E-4
0.002560281
0.0014980343
0.0021483009
0.0022128534
2.745453E-4
0.0012318776
0.0016138067
0.0010334307
0.00330929
0.0029189305
-1.9701746E-4
-3.2898498E-4
4.5918708E-4
-6.339192E-4
-0.0011697896
7.0322456E-4
0.001633862
3.5293837E-4
-0.001028024
-0.001920326
-7.083364E-4
2.7230405E-4
-0.0014473958
-0.002394205
-0.0020599163
-8.558378E-4
2.6076075E-4
-3.805299E-4
6.9182203E-4
0.002467436
9.037352E-4
-9.255639E-4
-5.8711023E-4
3.4815518E-4
0.0010416454
0.0014526761
0.0016450855