-0.001495947
-6.8294385E-4
0.002368699
0.0015120916
6.5868953E-4
6.035869E-4
-0.0018700858
-0.0016723699
7.1889674E-4
0.0015427091
0.0024044344
0.0018688443
7.1958837E-4
3.5013657E-4
-4.7626387E-4
1.7004838E-4
0.0016076653
0.0022823627
0.0020467353
-5.5586884E-4
-0.0028772452
-0.001133188
0.0020292392
6.922655E-4
-0.0035571647
-0.0042660153
-0.002349936
-1.6223136E-4
0.0012583648
5.3328107E-4
6.6926697E-4
6.2027255E-5
-0.0023707775
-5.58415E-4
0.0012042128
-7.7618327E-4
5.160752E-4
0.001698865
-7.2173186E-4
-3.237606E-4
0.0014870507
0.002027509
0.0019225049
-9.1140904E-4
-0.0025504923
-8.24013E-4
-1.2478617E-4
1.4433506E-4
7.48817E-4
2.8198506E-4
-5.6543417E-4
-0.0011483503
-0.0012743246
-6.7853584E-4
0.0012665696
0.0018920688
5.267938E-4
0.0018347626
0.0021091194
-0.0012391993
-9.2323445E-4
0.0014663031
6.1411475E-4
-1.3582957E-4
8.749221E-4
6.246983E-4
-7.7212334E-4
-0.0011075918
-0.0015489525
-0.0020165348
-0.0015564145
-0.0019832116
-0.0011394179
0.0010469041
-5.4133387E-5
-0.0013165068
5.697839E-4
0.0019573136
0.0018615285
0.0010117752
-8.549648E-5
3.738278E-4
5.005816E-4
-3.9256232E-5
0.002141073
0.0033456816
7.8449206E-4
-6.0902495E-4
1.4658319E-4
0.001902483
0.003543584
0.0018894237
-0.0010527631
-0.0024277878
-0.0036567731
-0.004504782
-0.0038762842
-0.002671502
-0.0019648946
-7.2387734E-4
0.0011136718
-5.319616E-4
-0.004554888
-0.003251837
0.0017352124
0.0019474442
-7.7654637E-4
7.116444E-5
0.0026750516
0.002877525
0.0031495632
0.0042329985
8.1751327E-4
-0.0023250813
8.134355E-4
0.0016736846
-9.5549494E-4
-0.0012489652
-4.9954635E-4
0.0014845459
0.0026876559
0.0022145375
0.0024725196
0.0014883414
4.7282025E-4
-2.57519E-4
-0.0014270341
-0.0018322146
-0.0036914074
-0.0037985938
-0.0010801476
2.2912915E-4
4.922515E-4
-3.0581086E-4
4.3302088E-4
9.424867E-4
-0.0019819613
-0.0021033592
-0.0015384144
-0.0020973147
3.906487E-4
0.001743822
0.0010850796
-4.6596534E-4
-0.0010196505
0.0016724229
6.0928625E-4
-0.0019316509
1.4358638E-4
3.5972364E-4
-6.915752E-4
0.0013028977
0.0011334779
-7.660584E-4
0.0012681985
0.0030342834
0.0028554252
0.0049029044
0.004155481
9.708178E-4
0.0010737415
0.0010560518
2.875913E-4
-9.907982E-4
-0.00208864
-8.593982E-4
-0.0021587408
-0.0038206475
-0.0018405344
-6.763449E-4
-6.170648E-4
-0.0012724323
-0.0022073614
-0.0026973619
-0.0041164747
-0.003989417
-0.003059186
-0.0029989358
-0.0021425826
-0.002348496
-0.0026661647
-8.6960633E-4
0.0010019247
0.0021312793
0.002915898
0.0033019835
0.0035625356
0.0040340726
0.0037782795
0.0035377333
0.0051342687
0.0062472676
0.0053115934
0.0024893489
2.2751938E-4
0.0026569196
0.004651826
0.0026382424
6.392898E-5
-0.0037757005
-0.0052110287
-0.003439587
-0.003943038
-0.0027394267
-0.0010555894
-0.003363034
-0.0023205373
0.0013022483
2.955242E-4
-7.582245E-4
9.7240944E-4
-0.001959811
-0.007744197
-0.006547458
-0.0031446056
-0.0032340405
-0.0021253848
-7.1426923E-4
7.575576E-4
0.0030880885
0.0026137496
0.0015309424
0.0010777904
-9.204462E-4
-0.0018660931
7.357954E-5
0.0019310418
0.0013114155
0.0010298514
0.0016232319
0.0014620909
0.002604865
0.0029252898
0.0018585552
0.002308712
0.0022295504
0.0027212473
0.0041550766
0.003978234
0.0037970075
0.0026293616
0.001162625
0.0021490569
0.0019045223
-5.9768715E-4
-0.0012173199
-1.2301256E-4
-4.5308887E-4
-0.0016693537
-0.0031887344
-0.005641453
-0.00609095
-0.005196051
-0.005741904
-0.00514476
-0.0036820418
-0.0037460597
-0.0029894093
-7.98314E-4
-0.0016207829
-0.0039813425
-0.0015265511
0.0014278522
8.640875E-4
0.0012307473
9.142806E-4
-2.0296118E-4
0.0011802539
0.0021054994
0.0025171002
0.0039983075
0.0050435606
0.005402319
0.0049166647
0.0046050404
0.004959313
0.004418388
0.003620153
0.0044680564
0.0049350336
2.4290619E-4
-0.0055732094
-0.0055367327
-0.0045936033
-0.0048247925
-0.0025376799
-0.0023075659
-0.0035709345
-0.0010227066
3.8837048E-4
-0.0012722103
-0.0016962931
-0.001368648
-0.0011742553
-6.5788656E-4
7.883658E-5
4.4643364E-4
-3.8490637E-4
-6.0451345E-4
-2.607756E-4
-0.0011019007
-6.1209296E-4
0.0022449782
0.0034048057
7.954413E-4
-0.0010451528
0.0011010682
0.0029534714
0.0024087096
0.0019119253
0.0012316147
-7.663358E-4
-0.0028429248
-0.0038800156
-0.004267338
-0.0029972482
-9.685363E-4
-3.8232352E-4
0.0010800182
0.0020816172
0.0014007502
0.0026954974
0.0032613347
0.002229814
0.0017129882
-1.4181573E-4
-9.78984E-4
-5.9666025E-5
0.0010195562
0.0024844452
8.282039E-4
-0.0024960926
-0.0026231015
-0.0014430848
-0.0010477105
-0.0010941847
-6.3998194E-4
5.4011965E-4
8.3487574E-4
3.7840303E-4
-1.1560749E-4
1.5333622E-5
0.0013037107
8.707012E-5
-0.0032823938
-0.0027877747
-3.3469286E-4
7.8511756E-4
0.0017739474
9.218963E-4
-6.992442E-4
-0.0011963444
-0.0014632422
-7.580762E-4
-6.050499E-4
-9.417679E-4
-0.0012443748
-0.0017015127
0.0022035567
0.0060571544
0.0041361777
0.001803817
-4.137865E-5
-0.0011263924
-1.474918E-4
-1.4202713E-4
-3.7151075E-4
-3.8621871E-4
-1.8407585E-4
-2.1028581E-4
-0.0018705811
-0.0015347945
-7.886669E-4
-0.0018702343
-8.571579E-4
5.0820014E-4
0.0015866068
0.003173032
0.003324497
0.0041148057
0.0038677824
0.0012613782
1.47023E-4
-0.0013708288
-0.003287331
-0.0028538564
-0.0026512065
-0.002549883
-0.0020182612
-0.00200207
-0.0010190496
-6.177246E-4
-5.274585E-4
-1.9975394E-4
-0.001874057
-0.0014076083
5.725809E-4
7.451041E-4
0.0033801517
0.004573687
0.0019216002
3.4134672E-4
-0.001599175
-0.0013600575
2.1816781E-4
-0.0025679814
-0.002485676
0.002860313
0.005648088
0.004173076
0.0016061392
0.0029013024
0.004995871
4.8168303E-4
-0.004009009
-0.0024353527
-0.0019563776
-0.004954797
-0.0069938144
-0.008712492
-0.011188636
-0.009980557
-0.004115805
9.5679535E-4
0.0046895943
0.008299539
0.008735653
0.008187668
0.009384189
0.010340434
0.009938754
0.004290337
-0.004475276
-0.0064074257
-4.9832254E-4
0.0070749423
0.00796443
0.0011003832
-0.003596146
-0.0064627137
-0.010663546
-0.009408479
-0.004620516
-0.0031536594
-0.0017449134
0.0024942993
0.0031892804
-0.0020854415
-0.005376479
-0.004161194
-0.0030605816
-0.0030111521
-0.0027627926
-0.0014983104
4.974454E-4
0.0025312759
0.004479383
0.005642434
0.006502449
0.0067300904
0.0050951233
0.0036556164
0.0032641315
0.0019068446
4.213073E-5
-0.0014850913
-0.0032546134
-0.003426537
-0.0020415508
-0.0026503177
-0.0035999287
-0.00236983
-0.0016198024
-0.0017102404
-0.0017946081
-0.0017726875
0.0012791078
0.004546477
0.0028460345
0.0021853775
0.00438753
0.0019925665
-0.0012704262
-0.0012224824
-0.0020375743
-0.0016969378
-6.8780035E-5
-4.8679087E-4
-6.1500445E-4
-1.901636E-4
2.785314E-4
0.0011185942
2.1737239E-4
-0.0014333124
-7.9998205E-4
0.0014805588
0.0011208088
-8.953836E-4
3.821677E-4
9.854774E-4
-0.0014484467
-0.0024733725
-0.0014519611
5.8624253E-4
7.251811E-4
7.535133E-4
0.0036680244
0.002514801
-7.731736E-4
-3.1826922E-4
1.298212E-4
9.7030407E-4
7.537385E-4
-0.0015057751
-0.0025250842
-0.0050515756
-0.005592313
-0.0017153798
-1.3198349E-5
-2.3463691E-4
-9.43913E-4
-9.546773E-4
6.9414225E-4
6.634856E-4
0.0012333863
0.003009136
0.0021383162
8.917319E-4
0.0015220996
0.0021627697
0.001858934
0.0021258255
0.0016254446
-4.234991E-4
4.3712233E-4
0.0017233796
-1.3002186E-4
-1.0561852E-4
0.002229844
0.0024109643
5.4313254E-4
-8.450541E-5
-1.684555E-4
-0.0012968923
-6.4555195E-4
-1.3790415E-4
-0.0024126587
-0.0040454273
-0.0031652413
-0.0011281474
-0.0018171644
-0.0038534189
-0.0021545547
2.9692627E-4
9.4419054E-4
9.5371826E-4
5.540331E-4
2.3940298E-5
-5.839278E-4
-6.556435E-6
3.0921516E-4
5.687933E-4
0.002535152
0.001719659
-5.459433E-4
-9.190164E-4
-0.0012897131
2.6328102E-4
0.0015893508
3.5848966E-4
0.0010307628
0.0033446935
0.0041753203
0.0026991144
0.0010168031
0.0010543204
-3.3507028E-4
-0.0023565178
-7.387268E-4
0.0010376634
4.2797466E-5
-2.9099366E-4
-1.4105611E-4
3.1352614E-4
0.0017383842
-4.5087916E-4
-0.003192317
-0.0029385856
-0.004909224
-0.005048389
-0.0018798625
-0.0018801898
-0.002221476
-0.0020122959
-0.0018585682
5.5356463E-4
0.0010397799
-8.4662717E-4
-3.5977954E-4
0.0023701934
0.0040608835
0.0035464696
0.0031121643
0.0026719274
0.0014754203
0.002259712
0.004736312
0.005522556
0.004171536
0.0016321328
-0.0016206338
-0.0032881952
-0.002721497
-0.0014520757
-0.0010659164
-0.0043614674
-0.005646614
-3.040563E-4
0.0011224775
-0.002179754
-0.0015726452
-5.796868E-4
-0.0016578332
-0.0013550216
-3.3432234E-4
-3.0521485E-5
6.6468347E-4
0.0020249197
0.0018005783
6.963014E-4
0.001120259
0.0016942649
0.0020482813
0.0033701265
0.003418735
5.383293E-4
-0.0013858721
-3.5599186E-4
-7.8952906E-4
-0.004011892
-0.00607391
-0.005156959
-0.0031054972
-0.0010956856
7.8740483E-4
0.0013730468
0.0012241469
8.480409E-4
5.772836E-4
0.001996511
0.0019918254
2.5353927E-4
4.235871E-4
2.0888624E-4
3.6500362E-4
0.0026726366
0.0032319396
0.0020650697
6.8979076E-4
-9.687061E-4
-0.0011937466
7.1010407E-4
0.003439442
0.0038355002
8.0286927E-4
-0.0017908334
-0.0025425947
-0.0033541208
-0.003120879
-0.0021199344
-0.0023844666
-0.0016117645
-4.0888364E-4
-3.6348597E-4
0.0022213007
0.004882968
0.0026585523
-0.0011860841
-0.0010826344
0.0024984619
0.002593502
-4.0951167E-4
-0.0014902609
-0.0029232441
-0.0044737156
-0.0055277487
-0.006439321
-0.0043967995
-0.0018678857
9.947753E-4
0.0041611493
0.0034307227
0.0016008468
-8.723041E-4
-0.0023856543
0.0012221345
0.0038587565
0.004517892
0.004642596
0.0030072387
0.003861102
0.0021273308
-0.0029775565
-0.0019546335
8.247501E-4
0.0017802782
0.003586337
0.0034131736
0.0027121657
0.00418987
0.0049546077
0.002199478
-9.6133194E-4
-0.002080882
-0.0056196246
-0.009475259
-0.009911983
-0.009996682
-0.0077174776
-0.0033734096
-0.0015688202
-0.0020198373
-0.003589033
-0.0037691935
-0.0027051128
-0.002372387
-1.2741558E-4
0.0028213097
0.0037511175
0.0042001423
0.0043998347
0.0051932093
0.008030064
0.009114716
0.0051955623
0.0032018665
0.0073637324
0.008237633
0.0035788387
0.0025817263
0.005554692
0.005799318
0.0022733482
-8.631782E-4
-0.0028801977
-0.005363518
-0.0067433477
-0.008843927
-0.012446035
-0.011793311
-0.00879502
-0.008776625
-0.008128336
-0.0047762683
-8.941046E-4
0.0015962936
0.0011831361
0.0018148375
0.0044267904
0.0040104794
0.0029417055
0.0029836423
0.0027390071
0.0058827456
0.008705073
0.0062004393
0.003798039
0.0043939827
0.0070896647
0.008516094
0.0030291378
-0.006130787
-0.011188399
-0.010563377
-0.007885997
-0.004499476
4.980283E-4
0.002008925
-5.595821E-4
-6.9952034E-4
4.3106708E-4
0.0011846479
0.0018228877
0.0010067339
8.2953507E-4
-0.0012187804
-0.0046158577
-0.0012464231
0.0031952264
3.5854705E-4
-0.0028594732
-6.1532174E-4
0.0056638783
0.011838045
0.008368852
-0.0050702263
-0.011832586
-0.0077223005
-0.0042338744
-0.0016819027
0.001809499
0.0013673432
-0.0026886803
-0.007563087
-0.0085077565
3.2944136E-4
0.013030981
0.017519005
0.01313831
0.0056628683
-0.0014391685
-0.0038359456
-0.0020524657
0.001310398
0.0037162043
-0.001922371
-0.0077723227
-0.004585416
-0.0027762237
-0.0029575978
-8.349153E-4
0.0010221548
0.0050041955
0.00216838
-0.011867105
-0.017635684
-0.008341487
-1.4502503E-4
0.0010943449
0.0039621326
0.0045181443
-0.0016838396
-0.0012316708
0.008680838
0.015546897
0.013722321
0.007334713
0.0010239024
-0.004867429
-0.00561606
-0.0012586303
0.0014703
0.0036979856
0.0023593612
-0.0020112325
-0.0021643527
-0.0037678038
-0.006894112
-0.0076588606
-0.009957694
-0.008958469
-0.0050808117
-0.006780933
-0.012177652
-0.017062645
-0.01568759
-0.0051050824
0.004880246
0.011198006
0.01689231
0.016388018
0.013069159
0.011364276
0.006485965
0.004921779
0.0040967055
-0.0056875157
-0.0087050395
-3.5253965E-4
0.0043493994
0.0068602674
0.009045255
0.0065501556
0.0021139064
-0.0016881304
-0.00533268
-0.009650741
-0.012652297
-0.011905768
-0.008102797
-0.0053795027
-0.009723437
-0.012996958
-0.0054439744
9.352366E-4
-0.0014217843
-0.0027400951
0.0021193225
0.0049069943
-8.445978E-4
-0.0037843303
7.9161086E-4
0.0035512496
0.006560241
0.009905282
0.008707426
0.0049121277
8.093545E-4
-1.445833E-4
-0.0020323456
-0.0084057
-0.012389658
-0.0138644455
-0.013705244
-0.009572122
-0.0040273014
0.0032700405
0.01766891
0.034589365
0.04202276
0.045130763
0.04730896
0.042854268
0.042463906
0.048541605
0.046390317
0.024954474
-0.0032067536
-0.008419853
0.0014016265
0.0031224033
-0.0020578455
-0.0043043555
-0.004026988
-0.024267334
-0.05203962
-0.060670942
-0.072100915
-0.089507304
-0.089909844
-0.057827283
-0.019307744
-0.014304264
-0.022620443
-0.035735916
-0.04693377
-0.044002052
-0.04900104
-0.03323858
-0.0012338958
0.019312587
0.056716066
0.0847745
0.10428614
0.11688248
0.0797688
0.05074224
0.049877625
0.029615559
-0.008816541
-0.040109955
-0.015003132
0.028046658
0.014086038
-0.024743654
-0.020130794
0.06079896
0.10658236
0.03221392
-0.042164676
-0.087365925
-0.13313091
-0.13583834
-0.13894768
-0.10706028
0.03261247
0.14536972
0.15485907
0.15234011
0.17196737
0.16558684
0.10575725
0.044994116
3.6016162E-4
-0.06787116
-0.116384454
-0.11431153
-0.1260748
-0.18568511
-0.16428176
0.028878221
0.13571848
0.016404582
-0.10539268
-0.18820111
-0.2521906
-0.206252
-0.10867036
-0.0179506
0.0377848
0.043650657
0.07512578
0.100919455
0.048417363
-0.02290925
-0.022586351
0.07368445
0.20908569
0.3061148
0.3271413
0.26154205
0.17394754
0.19397421
0.18685515
-0.033476286
-0.1723838
-0.119204946
-0.16852114
-0.24951972
-0.23053756
-0.17960174
-0.08519864
-0.02162639
-0.05725629
-0.11624643
-0.11020792
-0.0758366
-0.10677488
-0.11710361
-0.039370004
0.07520278
0.17176211
0.22626275
0.2981388
0.26594302
0.096049406
0.036789663
0.038099643
-0.0014684786
-0.018428788
-0.04706865
-0.09108067
-0.17432873
-0.17223106
0.028075313
0.14670163
0.098762855
0.020671755
-0.08858373
-0.14336771
-0.12781554
-0.11793278
-0.09959385
-0.08916486
-0.068971954
0.005633456
0.0702391
0.0490141
-0.008424714
-0.0014706941
0.06422127
0.1485692
0.23429105
0.25458792
0.2023231
0.11903787
-0.030001182
-0.19179235
-0.22230741
-0.1333198
-0.04463152
-0.029518345
-0.06078298
-0.056408904
-0.03063834
-0.0077552544
0.02965965
0.04322638
0.059094783
0.09364165
0.09123587
0.080886275
0.037447836
-0.058373008
-0.09385984
-0.07465812
-0.052834433
-0.009135485
0.03601705
0.08478001
0.101848416
0.036370497
-0.032837518
-0.077359095
-0.118033
-0.09071484
-0.014007491
0.040607985
0.08573103
0.10209918
0.053536657
-0.0014217518
-0.027666142
-0.068828195
-0.08726674
-0.035720203
-0.0033438827
-0.0151448315
1.04167906E-4
0.026475452
0.038496617
0.029717058
-0.0077136373
-0.022703603
-0.00918928
-0.0060228617
-0.007561934
-0.0065643108
0.0052178917
0.0170795
0.0060751024
-0.0075792447
-0.013007027
-0.013592087
-0.0034455145
0.0059835073
0.011529084
0.022044126
0.031133432
0.0297077
0.020994259
0.0127098095
0.0052533345
-0.0055073784
-0.014358506
-0.015097247
-0.018535214
-0.026463527
-0.025540644
-0.02195343
-0.020484634
-0.015059807
-0.008377395
8.736729E-4
0.009223807
0.013086991
0.016272523
0.011603715
0.0046988875
0.0052064937
0.005006792
0.004337807
0.0027851295
-0.0019071621
-0.0032898642
-0.004016036
-0.006233611
-0.008587503
-0.012014988
-0.010661819
-0.0062664845
-0.004658467
-0.0026466134
-0.0017862117
-0.0029171938
-0.0017069505
-0.0011836231
-0.00213728
5.4701E-4
0.0040951315
0.006635055
0.010212727
0.011506431
0.011940221
0.011016876
0.004195444
-0.0022466874
-0.007433248
-0.015061362
-0.019667163
-0.017137144
-0.00759147
-1.9667376E-4
-1.6856381E-4
0.0012510966
0.0027913603
0.0017258553
0.0017841051
-0.001241486
-0.0048250277
-0.0012300796
0.0034948932
9.290919E-4
-0.0056369402
-0.010568777
-0.010852381
-0.00395406
0.0049823043
0.012397104
0.015983423
0.0074997665
-0.0036037262
-0.0031691005
0.004275768
0.011831587
0.013201805
0.00947748
0.008300001
0.009099384
0.011416413
0.012945429
0.010872058
0.009330641
0.009768867
0.010971438
0.010591206
0.008643737
0.007208603
0.0037774506
7.3209923E-4
-2.6307374E-4
-0.0034941179
-0.007405553
-0.010442181
-0.014064009
-0.018165167
-0.019761538
-0.016903142
-0.015818313
-0.018310213
-0.0195614
-0.019805266
-0.018735094
-0.015447853
-0.011384547
-0.0078796875
-0.0035770377
0.004421985
0.010465635
0.010977142
0.011876551
0.012119974
0.011175112
0.012115683
0.010408212
0.0082493145
0.011578563
0.01458564
0.015154545
0.016625592
0.015076482
0.01141532
0.011019327
0.009362933
0.0050545703
0.00386361
0.0022017374
-0.003582373
-0.0061191306
-0.0044426667
-0.005839665
-0.0065102414
-0.0025924703
-0.0024892003
-0.0051747127
-0.005251726
-0.007342179
-0.00887856
-0.0070047034
-0.0071654115
-0.0065783807
-0.003240717
-0.0028551165
-0.003397519
-8.2540605E-4
-6.064808E-4
-0.0042406823
-0.0049222237
-0.0039139823
-0.004292409
-0.0040705316
-0.0046400414
-0.0041304627
-0.0024947464
-0.0025847359
-9.398079E-4
-3.872255E-4
-0.0013157884
0.0017536554
0.002773551
3.7320604E-4
1.991102E-4
0.0014232452
0.0032426834
0.0043288325
0.0042337873
0.002800605
-1.5015752E-4
8.732103E-4
0.0045914385
0.005051327
0.00460583
0.0040591895
0.0019741557
0.0013512768
0.0027021854
0.002705829
0.0015246233
6.4157456E-4
-2.7678366E-4
8.0022967E-4
0.0028477141
0.0016758696
-8.469747E-4
-0.0012870755
4.111196E-4
0.00109109
-0.0010395489
-0.0014195524
4.9178343E-4
-1.6776206E-4
-0.0033254041
-0.00529048
-0.005184511
-0.0063039553
-0.007101965
-0.0038735578
-0.0024609687
-0.005365569
-0.007104506
-0.0075163133
-0.008441061
-0.007892759
-0.0038833497
-0.0011891524
-0.0040512984
-0.0053693713
-0.003535999
-0.0036604258
-0.0031697433
-0.0014723754
0.001063478
0.0036539054
0.0038841038
0.0071265306
0.0105279945
0.008529746
0.008598037
0.00949109
0.006324104
0.002250709
-0.0011534707
-0.0026494612
-0.0042464524
-0.0069611897
-0.0074717044
-0.0053008264
-0.0025044798
-0.0026174025
-0.0033154616
-0.0024782484
-0.0026202453
-6.23157E-4
-7.485853E-5
-0.0036280202
-0.004016692
-0.0039147176
-0.004586146
-0.0021637194
3.3642302E-4
0.0016913415
0.0020824627
0.0029372692
0.0041776695
0.0032321946
0.0026592475
0.002689277
0.0030535397
0.003979718
0.0026418413
0.0018985315
0.001784963
-2.2671638E-4
-0.0013679164
-0.0020069757
-0.0018804234
-0.0014064149
-0.002490438
-0.0014071553
7.070166E-4
6.939182E-4
9.6921326E-4
0.001481761
0.0018776247
0.0016493831
8.198302E-4
0.0022948924
0.0026437438
-2.453949E-4
-0.0017903729
-0.003051453
-0.0035416267
-6.128479E-4
4.8725976E-4
-0.0017816314
-0.003211323
-0.002663363
-0.0013920811
-9.222285E-4
-3.943288E-4
-7.6455406E-5
-1.3265435E-5
0.0016333559
0.0019989077
9.2906324E-4
0.0011471091
0.0010342046
7.437329E-4
3.55861E-4
1.9338082E-4
0.0021741583
0.0040465766
0.0042337645
0.0033588686
0.0027912278
0.003213713
0.0014184449
-4.93065E-4
0.0018006605
0.002242643
-0.0019973395
-0.0026755407
-5.0437974E-4
-0.0019724176
-0.0018713163
6.521654E-4
1.1267303E-5
-4.7153997E-4
-3.9829154E-4
-0.0016471685
-0.0018934421
-0.0017225035
-8.648169E-4
-1.426359E-4
-5.2915316E-4
-0.0014497027
-0.0042182696
-0.0033297886
0.0015964594
0.0016415076
-2.8415618E-4
2.5996412E-4
7.2704954E-4
0.0014008689
0.0019189651
0.0020271498
0.0027810931
0.0031511255
0.0026826614
0.0022138744
0.001513658
8.2436635E-4
0.0021561838
0.003006901
7.56578E-4
5.027231E-4
0.002365958
0.0012926555
-0.001118562
-0.002085479
-5.51841E-4
0.0020297542
0.0014327503
-9.4868505E-4
-0.0021864441
-0.0027162575
-0.0018180724
-0.0010453106
-0.0015519598
-0.001361851
-0.0024467225
-0.0040480844
-0.0018849035
8.597252E-4
9.496694E-4
6.744675E-4
7.9213193E-4
3.1110956E-4
-8.39889E-5
-5.786135E-5
-0.0013717068
-0.0015891239
0.0015283359
0.0026737798
0.0012122976
0.0012958746
0.0022805496
0.002179563
0.0015137274
0.0025526406
0.00268619
0.0011028686
0.0020097715
0.0010558583
-0.0018166475
-0.0022068322
-0.0031353554
-8.2073355E-4
0.003180716
0.0011784298
-6.009767E-4
1.0225246E-4
-0.0010837227
-0.001985216
-0.0017126249
-0.0024888813
-0.0030131172
-8.3450717E-4
2.1998972E-5
-6.35281E-4
6.2322133E-4
-5.371818E-5
-1.4122672E-4
9.155867E-4
-0.0010565621
2.5951458E-4
0.0025949616
0.001683455
0.0023125391
0.002666209
0.0027829192
0.0017407348
-0.0014688858
-3.1916393E-4
0.0021835256
0.0016967419
2.7832694E-4
-0.0013955645
-5.373511E-4
1.436611E-5
-0.0021086317
-0.0015643119
1.613458E-4
-1.5350315E-5
-0.0011355706
-0.0036850884
-0.0039360127
-4.25442E-4
1.606115E-4
-0.0012877083
4.4259106E-4
0.0010496611
-3.238734E-4
9.941664E-4
0.0020610017
5.17989E-4
-3.2907983E-4
4.062121E-4
0.0010265337
6.742653E-4
1.9422933E-4
9.356665E-4
0.0024738382
0.0030240247
0.0027638464
0.0015786123
-4.926169E-4
3.3933812E-4
0.0013582084
-0.0012352611
-0.0020262029
-0.0012912169
-0.0012064058
1.1542411E-5
-3.233965E-4
-9.3364494E-4
-4.264365E-4
-0.0013402677
-0.0011599314
5.6014047E-5
1.8400494E-4
0.0013252696
0.0026259106
0.0015030912
-3.4287004E-4
-0.0017706117
-0.0032553382
-0.0018405636
0.0012507074
0.0015533451
0.0016383593
0.0018994121
0.0012704738
0.0024209637
0.003167261
0.0015342566
-9.873621E-4
-0.002318845
-0.0017927486
-0.0020276904
-0.0013730075
-5.147878E-4
-0.0024109187
-0.0014914897
0.0010419989
-3.653708E-4
-0.0015494335
-0.0012723254
-0.0022908659
-0.0024364344
-1.973467E-4
0.0017537228
0.0028092933
0.0031562138
0.0015562606
0.0014397366
0.0024151537
-1.0914601E-4
-0.0027862538
-0.0028254893
-1.9505911E-4
0.0030689375
0.0031040784
0.0040087085
0.005280607
0.0025063404
3.4681475E-4
-8.598418E-4
-0.0018739077
-9.03444E-4
-9.3287445E-4
1.853223E-4
0.0031777476
0.0023473187
-0.00117178
-0.003627375
-0.004431765
-0.0040462385
-0.0034439384
-0.0019515828
-3.786394E-4
4.5888714E-4
0.0021333643
0.0014351576
-0.0017698974
-0.0017764168
-0.0016180247
-0.002731693
-0.0017725613
-0.001707946
-0.0013089909
-0.0010710807
-0.0021749635
0.0022801587
0.005019555
6.5036E-4
5.414012E-4
0.0031377194
0.0039677233
0.005289203
0.0042914473
0.0027311393
0.0027174067
0.0016627483
-3.769871E-4
-0.001643414
-4.20142E-4
0.0014901878
0.001051841
-7.4467255E-4
-0.0014640279
-0.0012881067
-0.0017334823
-0.0012093261
-9.396295E-5
-2.94549E-4
2.6848222E-4
3.9924713E-4
-0.0016620086
-0.0030795406
-0.0029299136
-0.0017088315
-1.1448991E-4
3.6390196E-4
4.0192154E-4
5.598412E-4
-8.023277E-4
-0.001648404
9.856345E-5
4.1091527E-4
-2.5418005E-4
3.939167E-4
-4.133283E-4
-9.3231426E-4
-4.971321E-5
9.0737034E-5
-2.2801783E-4
-0.0011254149
-6.714926E-4
4.9422425E-4
-5.278812E-4
-0.0010933789
-2.8922583E-5
7.8725844E-4
5.072463E-4
7.642809E-4
0.0021325948
0.0021372354
0.003784452
0.006871154
0.006248631
0.0043832264
0.0027455776
0.0016846937
0.0019415494
2.665139E-4
-0.0015787714
-0.0017797707
-0.0025572393
-0.0033868528
-0.002728357
-0.001236749
-0.00298496
-0.005743365
-0.0038048103
-0.0026668322
-0.004196596
-0.003383727
-0.0034965894
-0.0042678164
-0.0016515488
2.2807337E-6
-3.744867E-4
6.387772E-4
0.0017807067
0.0023354953
0.002655568
0.0030538237
0.0038078397
0.002895001
0.0024075275
0.0043648514
0.0048586153
0.0041210745
0.004401872
0.0038546547
0.0018456308
6.0523854E-4
-4.3093725E-5
-0.0027516296
-0.0042537036
-0.0029300475
-0.003946954
-0.0051424014
-0.0037523347
-0.0025353772
-0.0011708913
-1.7843125E-4
2.1141836E-4
3.4112108E-4
-9.702783E-4
-0.0011400454
-3.2401131E-4
-7.100389E-4
4.831673E-4
0.002033895
8.2960416E-4
2.3079145E-4
4.3242864E-4
-0.001082021
-5.4476445E-4
0.0021070102
0.00291279
0.003144819
0.0025504404
0.0013230094
0.0020380067
0.0012316691
-0.0019755433
-0.0029373425
-0.0018244298
-8.35705E-4
-1.8898674E-4
1.9322056E-4
-1.2926957E-4
-0.0016880216
-0.002093017
-1.6058769E-4
1.890065E-4
-0.0014368168
-0.0018927343
-0.0015849794
-0.0010345951
-7.87762E-5
4.9455283E-4
6.839582E-4
0.0019230777
0.0046938476
0.004184338
0.0010356993
6.7922217E-4
-0.0011065748
-0.003092836
-0.0010984502
-0.0010859059
-0.0013937936
4.986417E-4
0.0010165507
0.0014237382
0.0014820285
0.0016301213
0.0015962314
-4.189196E-4
-1.772614E-4
0.001305522
-5.7154484E-5
-0.0029334365
-0.0045486675
-0.002534474
-6.1643834E-4
-7.827706E-4
-6.908472E-4
-0.0012247956
-2.4556817E-5
0.0016892067
0.0010404206
0.0022118236
0.002547953
2.67423E-4
5.527698E-5
-5.573628E-4
-0.0019080186
-0.0010131226
4.7230496E-4
0.0018351489
0.0018625696
8.64701E-4
0.0014477754
0.0022334822
0.0028796296
0.0025659227
-7.3731865E-4
-0.0028952064
-0.0019660199
-0.0011857259
-0.0016455245
-0.002252589
-0.001206801
1.9278108E-4
2.946706E-4
-9.358752E-7
-1.5105886E-4
0.0011066588
0.0017225076
2.2258022E-4
-4.911815E-4
-0.0014147285
-0.0023632091
-0.0011858864
0.0015929653
0.003751242
9.0801314E-4
-0.0021509833
4.0332353E-4
0.0018782427
4.4944676E-4
-4.490838E-4
-1.1528211E-4
0.0014164418
0.0011290786
-7.352165E-5
-6.398135E-4
-0.0017469514
-0.001308251
-6.5881474E-4
-0.0015655768
-0.0022050205
-0.0017370424
2.0888176E-4
0.0010386498
5.6079496E-4
0.0015687569
0.0021713043
0.0018412385
0.0013821456
5.6753102E-5
-9.749884E-4
-8.3329575E-4
3.334009E-4
5.275813E-4
-0.0011708685
-0.0014805036
-3.954268E-4
-6.1460864E-4
-6.7780365E-4
6.7453046E-4
7.5775484E-4
-0.0011153728
-0.0012437559
0.0013232115
0.0028586194
0.0019534295
8.281223E-4
2.156745E-4
3.6887734E-5
3.3546065E-4
-1.5085354E-4
2.0710923E-4
0.0018929215
0.0020642322
0.0028877268
0.0030678676
-3.1646024E-4
-0.0019264072
-0.0019830128
-0.0019875155
-9.5993397E-4
-0.0031255272
-0.004288888
-0.0022080194
-0.0028220476
-0.0025745297
-0.0015507798
-0.003174857
-0.0033364154
-0.0017649276
-5.6648406E-4
-0.0017063954
-0.0030579122
-3.2637254E-4
0.0022196092
0.003170431
0.0038822975
0.0031487446
0.0030186581
0.0029516069
0.0039463867
0.0064433725
0.0055484115
0.0026167342
-2.7624547E-4
-0.002919511
-0.0019528497
0.0022128115
0.005102592
0.0034471464
7.394098E-4
4.718754E-4
-7.7937695E-4
-0.0030676122
-0.0037562803
-0.0027209222
-0.0013966328
-0.0021634311
-0.0039736144
-0.0043368493
-0.0035321014
-0.0033510171
-0.003128044
-0.0019262078
-0.001541656
-2.686651E-4
0.0015885535
9.990628E-4
-6.6922524E-4
-0.003443747
-0.0028794883
0.002909795
0.0036442364
3.6407358E-4
0.0011705181
0.0019539408
-3.1086867E-5
1.4212415E-4
0.0025653178
0.0029091379
0.0027140433
0.00397887
0.0046433737
0.0031975461
-6.2911713E-4
-0.0021878807
-0.001053642
-0.0010686794
9.917242E-4
0.0016311415
-0.0014826235
-8.288669E-4
4.7642275E-4
-6.872673E-4
-4.1156018E-4
-9.663571E-4
-0.0027473336
-0.0017480291
1.9564726E-4
-0.0011791829
-0.0015880739
0.0010659233
1.7079948E-4
-0.0015133857
-1.5546397E-4
4.563246E-4
3.525938E-4
-8.437589E-4
-0.0014700035
-2.4217388E-5
-0.0010178384
-0.0026844256
-0.0019020225
-1.8201942E-4