0.00259441
0.0032410196
0.0038023444
0.0031218748
0.0023456519
9.2535454E-5
-0.0010286964
6.371899E-4
0.0016426406
0.0014425991
-9.293412E-4
-0.00232095
7.02773E-4
0.0028545395
0.0012837448
-0.004725369
-0.008242997
-0.0020599822
-3.6492338E-4
-0.0051946514
-0.0039457222
-0.0031242599
-0.0028509696
9.941953E-4
-2.385417E-4
-0.0028282937
-0.0018313911
-0.0012647042
6.8421214E-4
0.0029428527
0.0029748243
0.0028859237
0.0032942132
0.0043123183
0.0044955285
0.0019115926
-0.0021365923
-0.0041890917
-0.0025021217
-8.0171984E-4
1.854012E-4
0.0035067524
0.0056729233
0.0047342465
0.0030532733
2.0301293E-4
-0.0016452069
-0.0019203001
-0.0032693117
-0.0032673497
-0.0022409232
-0.002425504
-0.0019002492
-8.080796E-4
9.127658E-4
0.0020712346
0.0014652893
0.0017681844
5.6809664E-4
-0.0013212047
-8.217642E-6
-6.871E-4
-0.0029492674
-0.002208958
5.4467475E-4
0.00383168
0.0021834949
-0.0016367697
0.0014270035
0.0047394447
0.0032670933
0.0022796849
3.6808295E-4
-0.002404368
-0.001121055
5.2616023E-4
-0.0017554259
-0.0020202892
2.0835311E-4
-0.0017063335
-0.003345686
-6.789257E-4
-7.6629146E-4
-0.0044426126
-0.004452609
-1.9154718E-4
0.0021683674
0.0012160748
-3.4217714E-4
-0.0014532781
-0.0010837698
-0.0018114473
-0.0043517584
-0.0023987466
0.0028087187
0.0049033635
0.003995881
0.0033675472
0.0056069433
0.007041202
0.005714574
0.0064375573
0.0047674105
-1.9589785E-4
-3.0130295E-5
-0.001153259
-0.006012792
-0.004960806
-0.0027712225
-0.002879014
-7.600307E-4
-2.316393E-4
-0.0023461021
-0.004413528
-0.005694456
-0.00431379
-0.0015712404
8.136222E-5
-2.0200465E-4
-0.0017214783
-0.002374801
-0.0020673636
-3.981467E-5
0.0028646912
0.0029914002
0.0020207027
0.002710872
0.0028324309
0.0016795319
0.0023659025
0.004699805
0.004990194
0.003683624
0.0025518795
8.8383205E-4
-5.604478E-4
-0.0014523752
-0.0025468322
-0.003128178
-0.0039651985
-0.004928796
-0.0032035424
-4.4405187E-4
1.9273271E-4
-4.6853558E-4
-0.0011396495
2.854282E-4
0.002416185
0.0017443737
0.0011529671
7.977448E-4
-0.0010071368
-8.095399E-4
6.613306E-4
4.4653524E-4
-4.3286002E-4
2.005978E-4
7.129831E-4
-2.5960538E-4
7.675391E-4
3.5052974E-4
-0.0013184164
0.0010837297
-5.565935E-4
-0.0031552557
0.0010205241
0.0015575031
-0.0014066469
-0.002348605
-0.002756974
-0.0012421084
5.922202E-4
0.0025137488
0.0032408196
0.002670749
0.003796156
0.0012669568
-0.0015468028
7.610597E-5
-4.4543127E-4
-1.429586E-4
0.0013457497
6.127553E-5
-1.5407393E-4
-4.50358E-4
-7.9470064E-4
-2.6604166E-4
-0.0017255718
-0.0024508585
-0.0019842715
-0.0017742238
-5.470625E-4
1.8047878E-5
-1.6562582E-4
4.093151E-4
-1.7602889E-4
-0.0023698695
-0.0015833465
0.001643152
0.0013364918
3.0369218E-4
0.0015692038
0.0015649692
0.0010658217
0.001409625
0.0012404188
5.074569E-4
2.0657803E-4
5.597419E-4
2.2279608E-4
-3.842692E-4
-0.0015693614
-0.0023921411
1.7167901E-4
0.0011893917
-8.103192E-4
2.2739229E-4
0.001791195
0.001396197
9.738921E-4
-7.473988E-4
-0.0023413885
-0.0020565784
-0.0024008504
-0.00343262
-0.0021054063
6.4852735E-4
0.001737661
0.0023179022
0.0030827366
0.0024323617
9.533996E-4
4.985296E-4
0.0013213909
9.521176E-4
9.647538E-5
7.385121E-4
-6.49542E-5
-0.0013727405
-9.901716E-4
-9.482145E-4
-0.0014478693
-0.0024452242
-0.0017108698
0.001433225
0.0026039097
0.002317172
0.0011915663
-0.0017668857
-0.0037814241
-0.0037816386
-0.0017008075
-1.8448803E-4
-0.0011353727
8.655264E-5
0.0019717806
-3.2616023E-5
-0.0022366284
-0.0018404356
-6.6015264E-4
5.0956104E-4
0.0026561748
0.0055548213
0.007260028
0.006915352
0.005027045
0.0027530226
-9.771782E-4
-0.006431232
-0.0075713033
-0.0032815207
7.448721E-5
7.917042E-4
-4.9468706E-4
-0.0021602327
-2.753656E-4
0.0022911022
7.269182E-4
-0.0013982641
-0.001275184
-0.0017425953
-0.0024878234
-0.0016087593
-0.0012446268
-0.0020703415
-0.0015459863
1.5495445E-4
0.0010089831
9.204901E-4
5.8293645E-4
4.7551654E-4
6.881028E-4
6.97817E-4
8.571503E-4
0.0018852943
0.0028264148
0.0025688207
0.0012117531
2.8665612E-5
8.496362E-4
0.0012912272
-7.498958E-4
-3.548864E-4
9.800476E-4
-0.0021443986
-0.0033071102
1.9463245E-4
0.0023347263
0.0021557398
8.928261E-4
7.133037E-4
4.7754022E-4
-0.0023339207
-0.002705838
-5.789801E-4
3.0184956E-4
0.0015073011
0.0022939018
8.843523E-4
-0.0024592844
-0.0035932607
-6.534902E-4
-3.6057585E-4
-0.0022176434
-0.0017733612
-0.0017533392
-0.002031194
-0.00163339
-4.8055474E-4
0.0023187823
0.003280747
0.0014871332
-4.263663E-5
-8.845177E-4
-5.7394925E-4
0.0014612467
0.0027002483
8.7273464E-4
-9.319702E-4
-2.7748532E-4
2.4739007E-4
3.180222E-4
0.0011039505
0.001637168
0.0014436193
9.49235E-4
6.488381E-4
3.053203E-4
2.5133174E-4
9.904297E-4
0.0012859672
-6.785224E-5
-0.002657454
-0.0029996915
-3.831719E-4
2.6575214E-4
-0.0013557756
-0.002307176
-0.0015587385
2.5016986E-4
1.04426465E-4
-1.8576636E-4
0.0010368474
3.1618704E-4
-0.0012327867
-0.0017047822
-4.998446E-4
0.0010457624
-2.3869835E-4
2.1177526E-4
0.002090686
0.0015335851
0.0029033003
0.0019279376
-0.002035659
-9.525829E-4
-3.745852E-4
-0.001199511
7.9686113E-4
6.178313E-4
-2.8025178E-4
-1.7302007E-4
-3.9647004E-4
2.679548E-4
-0.0010479892
-0.0022643136
-0.0011943278
-0.0014712076
-0.0012447387
1.1981341E-4
0.0011631667
0.0012207631
-0.001452939
-0.0023862794
-5.725488E-4
-4.2926823E-4
7.316449E-4
0.002704059
0.0019533078
0.0023807425
0.004612006
0.0029450038
-1.8670905E-4
8.088251E-4
0.0018535035
-4.034965E-4
-0.001834511
-6.711398E-4
-1.2837857E-4
-0.0016905967
-0.0018872817
-9.694531E-4
-0.0018037588
-0.0014548576
-3.9109995E-4
-0.0018388293
-0.0038329554
-0.0036987723
-9.619957E-4
9.42163E-4
0.001148009
5.8834744E-4
-0.00209461
-9.937707E-4
0.0025630642
9.0912543E-4
0.0014892229
0.0048342715
0.0031484233
5.0640723E-4
-3.9617432E-4
7.2304445E-4
0.00315324
0.002471164
0.001674932
0.0017587474
-0.0011074573
-0.0025321946
-0.0012289408
-0.0010949932
-4.8385872E-4
3.9337805E-4
5.636921E-4
0.0010293162
-6.128509E-4
-0.0024288613
-0.0023487506
-0.0031965324
-0.002157067
8.662465E-4
0.0016638524
0.0010798121
-7.4067975E-5
-1.2187908E-4
-5.1624386E-4
-0.0031687596
-0.002153828
5.731623E-4
7.640779E-4
0.0016970071
5.001554E-4
-0.0023703855
-0.0014568111
7.176989E-5
-0.0010388416
-0.002623647
-0.0019936115
2.8084943E-4
8.4943604E-4
-1.9660698E-4
0.0010469262
0.0043372205
0.0043397313
0.0019152113
0.0022389737
0.0041833203
0.0032980153
-0.0011321236
-0.0017937555
0.0031512103
0.0037474511
7.855815E-4
0.0011235987
0.0025590605
0.0017643793
-0.0026054136
-0.0056998725
-0.0027135212
2.8225812E-4
-0.0011388789
-0.0031766542
-0.0019964653
-1.4389958E-4
-9.139115E-4
-8.079091E-4
-5.994396E-4
-0.0036817489
-0.0050437264
-0.0038761953
-0.0041886955
-0.0032281855
4.3942683E-4
0.0035050777
0.004137647
0.0027747087
0.0022107803
0.002057879
5.738522E-4
0.0010706207
0.0016875427
-1.0511054E-4
8.2523853E-4
0.0015344098
-0.0016834576
-0.0013593122
0.002771753
0.0029979323
-2.6745478E-5
1.2087894E-4
0.0021380286
0.001219523
8.123083E-4
0.0011034937
-9.4955857E-4
-5.8062625E-4
4.4381357E-4
-0.0024996856
-0.0045342734
-0.0040652053
-0.002798886
-5.97666E-4
0.0016034232
0.0034857134
0.0037831715
0.0028733334
0.0013876784
-7.8760035E-4
5.352347E-4
0.0019885653
-9.996606E-4
-0.0018830171
-0.0017209625
-0.004084906
-0.0039226045
-2.0149967E-4
0.002750758
7.93146E-4
-7.0881285E-4
0.0011020582
-0.00217648
-0.004504405
-0.0018203676
-0.002093563
-5.2579894E-4
0.0018303982
0.0011184211
0.0029919222
0.0036431367
0.002150544
0.0014774422
-4.481209E-4
-6.969604E-4
2.1613804E-4
-6.5033697E-4
-0.0012853636
-9.7103603E-4
-2.1084484E-4
0.0021252127
0.0054206243
0.004163055
8.273558E-5
-7.9941907E-4
-7.930398E-4
3.144459E-4
9.3368435E-4
-8.5855555E-4
1.4596678E-4
8.8151294E-4
-1.5338593E-4
-7.571014E-4
-0.0044421223
-0.006361654
-0.0032330183
-1.1590829E-4
2.4687676E-4
-0.0014205169
-4.9628067E-4
0.0018346801
0.0023376276
0.0016153335
-6.2475033E-4
-7.172413E-4
-7.212636E-4
-0.0029591592
-0.0019117339
-0.001609913
-0.0028984623
-3.0762167E-4
0.0017069158
0.0015123724
0.0018748563
0.0032728084
0.0053473455
0.006344768
0.007399853
0.0077612638
0.003677492
-0.0019301074
-0.003961299
-0.004422223
-0.0062660077
-0.0061032344
-0.0036525456
-0.0028095676
-0.00207926
8.884715E-5
0.0020691126
0.002632687
0.0031468906
0.0048100813
0.0029258793
-4.2958884E-4
0.0012064521
0.0010848541
-0.0029242553
-0.0038512533
-0.0037714422
-0.003292357
-2.5349928E-4
0.0010324578
3.2456846E-5
-0.0011152816
-0.0023521981
-0.0023792384
-0.0023393237
-0.0031393904
-0.0032074815
-0.00223514
2.7455764E-5
0.0020104533
0.0020918215
0.0021076116
0.0034625384
0.0044630226
0.0023057996
2.6832678E-4
0.0014625414
0.0020137557
0.0040961043
0.008675506
0.010336527
0.010967683
0.008880626
0.0014362442
-0.0018850022
0.0010397305
-2.1779916E-4
-0.008961233
-0.016554551
-0.017840909
-0.01564655
-0.0100574335
-0.004161638
-0.0017147607
4.664155E-4
8.798291E-4
-2.4330981E-4
0.0015501233
0.0025549845
6.832244E-4
-0.0012994464
-0.0016961196
0.0011884272
0.0058279107
0.010144439
0.012244956
0.010530514
0.010756754
0.014473034
0.010894888
-6.357691E-4
-0.007644638
-0.007339205
-0.004388639
-0.0023183585
-0.0032788508
-0.0024042889
7.4377796E-4
-1.0226851E-4
-0.0043625725
-0.01010463
-0.013653938
-0.012010037
-0.008864572
-0.0054709623
-0.0023190766
0.0017573581
0.005963857
0.0060389773
0.0067674913
0.005055933
-0.0014743154
-0.0010138587
8.785917E-4
-3.621091E-4
0.0027572545
0.0046610143
0.005265892
0.0071945717
0.0060127648
0.0038345729
0.0013146648
-0.0018535466
-0.003676133
-0.0017497625
0.0030592703
0.0029489384
7.064918E-4
7.270001E-4
-9.238961E-4
9.4472896E-4
0.0059777168
0.0050025308
-0.0012208475
-0.008138136
-0.01228936
-0.010189695
-0.0034424535
-2.264429E-5
-0.0010268096
-0.0018851049
-0.0047442424
-0.0046958798
-7.723545E-5
4.1445132E-4
0.0014674035
0.0035922506
0.001586881
9.273043E-4
-1.8679195E-5
-0.0018931681
-0.0016093296
-0.0015222322
0.0013369797
0.0046684956
0.004449144
0.0045819865
0.0037711626
0.0043416624
0.008962295
0.008538625
0.0018169123
-0.0028580104
-0.0034560505
-0.0026155778
-0.002906176
-0.003546513
-0.0026685102
-0.0033388154
-0.0062872963
-0.0073988824
-0.0056628888
-0.001300477
0.0040397355
0.0057826
0.0035439534
0.0016531127
0.002922398
0.0044629127
0.003324507
0.0013066309
-0.0020056155
-0.005343929
-0.0044173733
-0.0027453464
-0.0031809928
-0.0015898454
0.0018292649
0.003753059
0.0036368002
0.0033039658
0.005012015
0.0058552166
0.0031918788
0.0012320495
-0.0012243793
-0.008925216
-0.01415606
-0.009900145
-0.0041771755
-0.0020074532
7.1369496E-4
0.0029850556
0.0041591125
0.006790347
0.0066545317
0.002566215
-4.3675094E-4
1.0820778E-4
0.004772871
0.008084425
0.0064431773
0.0024916872
-0.0040637585
-0.0069433833
-0.0039217593
-0.0047084
-0.0071380218
-0.006766146
-0.005331662
-7.784031E-4
0.0027234068
0.0023486905
0.0036786238
0.0061937715
0.005739892
0.0036762503
0.0011042085
-0.0046175183
-0.008775371
-0.0072007976
-0.0061711133
-0.0027588552
0.0047236113
0.0059456667
0.003268227
0.0027254804
0.00441924
0.008940022
0.009838501
0.006803899
0.0051090713
0.002118431
-6.2696787E-4
-0.003782443
-0.010852516
-0.014209682
-0.011925582
-0.009419936
-0.0059520504
-0.003077598
-0.0017697789
8.3645625E-4
0.0030291094
0.004012799
0.0050453893
0.005867807
0.006529774
0.0046838913
0.0021171728
0.0031909253
0.0042790994
0.0045616906
0.0051070745
0.0016975608
-0.0033918584
-0.005444492
-0.0043559014
-0.0016236055
1.2184E-4
0.0019110442
0.0021245189
-0.0019558945
-0.00469118
-0.0051999
-0.0057302252
-0.0047004535
-0.003998881
-0.0035254858
-0.0022023849
-3.595708E-4
0.0014842082
4.914464E-4
1.3367758E-5
0.0021174871
0.0029968254
0.0030980252
0.0024357075
0.0036655397
0.0058801407
0.003574747
0.0040528863
0.008026679
0.007890726
0.004561356
-0.0025438652
-0.008421264
-0.010644731
-0.013286764
-0.010843937
-0.006950444
-0.005737266
-0.0031233008
-0.005007251
-0.0066180467
-7.0118124E-4
0.0038892978
0.0037311718
0.0022794988
0.0038277162
0.006277633
0.003957723
0.0031420786
0.005225855
0.0036940584
-4.793405E-5
-0.002411778
-0.0016861808
-1.5952048E-4
-0.0012384094
-0.0034136062
-0.0043679504
-0.0029696329
1.6858483E-4
0.0029812925
0.002351916
-0.0018903577
-0.004138191
-0.0026681789
-2.065135E-4
0.0021130764
0.0042195013
0.0053973896
0.003181042
9.483141E-4
0.0037007416
0.0063853613
0.006075308
0.00634352
0.0054078265
7.451623E-4
-0.0025125917
-0.0021217817
-0.0043848874
-0.0075238636
-0.008068721
-0.013602287
-0.021143602
-0.022586135
-0.022103019
-0.022064947
-0.021018278
-0.014636045
-1.3104377E-4
0.016630545
0.03105307
0.036148947
0.03121442
0.025142772
0.015556972
0.007885521
0.008373304
0.0042371247
-0.0057182033
-0.017401539
-0.023631543
-0.015305638
-0.011007733
-0.014640933
-0.005977035
0.011579259
0.03248886
0.055241752
0.065236755
0.056030445
0.0379329
0.025766328
0.022317553
0.019469807
0.013839072
0.016737925
0.029947994
0.026884658
0.008987162
-0.006504313
-0.028756049
-0.04063142
-0.03840851
-0.061077375
-0.10785053
-0.14393401
-0.13863055
-0.09120146
-0.048929002
-0.049033657
-0.063089676
-0.051419064
-0.038169634
-0.03069169
-0.016268095
-0.03652878
-0.0763649
-0.09066072
-0.07464951
-0.009878066
0.080647
0.16059427
0.21943446
0.27726114
0.34100404
0.31254035
0.2267786
0.18630123
0.07765251
-0.10764477
-0.20060109
-0.116922885
0.07522996
0.18467031
0.2025345
0.2277151
0.15239218
-0.0757759
-0.3198946
-0.45685297
-0.47377
-0.39987338
-0.24646673
-0.09147679
0.010520677
0.0319307
-0.05111311
-0.06597193
0.035976302
0.026369868
-0.07166063
-0.06106899
0.01454614
0.039199382
0.02325503
0.03335887
0.10669739
0.1518098
0.07806938
0.02349512
0.112622164
0.23714164
0.28512684
0.2657795
0.19515729
0.06101654
-0.07478744
-0.14215203
-0.16252758
-0.15503083
-0.16282658
-0.17322841
-0.106765844
-0.05527513
-0.05308446
-1.2144687E-4
0.05025511
0.06327763
0.10475468
0.19748347
0.2729804
0.20492247
0.08513394
0.043794338
-0.07196185
-0.2639175
-0.3347072
-0.29255816
-0.17847371
-0.02410865
0.047057427
0.047533534
0.039294135
0.046783116
0.09633609
0.09566873
0.0504623
0.03220595
-0.016166283
-0.05351018
-0.07734067
-0.12801734
-0.12382911
-0.09234722
-0.02562044
0.082651
0.1255546
0.18127
0.20823832
0.07722114
-0.015688568
-0.009997584
-0.039297435
-0.036252838
0.003521953
-0.042586505
-0.10452189
-0.06637889
-0.019805519
-0.041133568
-0.0146478955
0.10931619
0.14403751
-0.006336758
-0.12533538
-0.07376376
0.054929737
0.15763772
0.12020909
-0.0117727965
-0.02775157
0.036448937
0.024211768
-0.0015051223
0.06785827
0.13891216
0.037181195
-0.17481127
-0.24692276
-0.13146912
-0.0029863936
0.028108835
-0.024505172
-0.08117216
-0.08828351
-0.09929852
-0.10933043
-0.03337613
0.08325583
0.150103
0.19331679
0.23927025
0.19348314
0.021606635
-0.115104824
-0.13603413
-0.1312259
-0.12976375
-0.092310905
-0.024473093
0.041939065
0.10637842
0.116110265
0.062697075
0.1029089
0.17946672
0.12092347
0.020809267
-0.08004834
-0.17341134
-0.15777174
-0.111053914
-0.088853754
-0.033041097
0.020595983
0.04757564
0.052526195
0.02202031
-0.019743687
-0.03973711
-0.023135534
0.010698494
0.02095893
0.0038695144
-0.012498385
-0.013809888
-0.007845801
-0.004722852
-0.0050892653
-0.0010571614
0.012402682
0.02874873
0.03682166
0.033636544
0.03128349
0.043474298
0.061559413
0.045475
-0.00871389
-0.041754946
-0.043667946
-0.043618977
-0.035639375
-0.025166774
-0.019219002
-0.015473125
-0.01385847
-0.008797675
-0.009979768
-0.005038897
0.0068570836
0.009033197
0.026513396
0.035867132
0.018612694
0.012635658
-0.0033012242
-0.024539413
-0.017871156
-0.011655343
-0.003013614
0.027886136
0.062265366
0.073917426
0.045888618
-0.0022767885
-0.044602033
-0.06975402
-0.06515083
-0.046259876
-0.026793895
-0.0036866742
-0.0046483492
-0.021441156
-4.5023585E-4
0.034976114
0.048428055
0.056383576
0.034006994
-0.012527342
-0.021475483
-0.008220795
-0.006378339
-0.011648762
-0.02516082
-0.030792443
-0.014427552
0.018620389
0.048743807
0.033928845
-0.008471086
-0.01182305
0.0027866985
-0.008358037
-0.014595726
-0.0084931785
-0.006152251
-0.0011005122
-0.004961154
-0.0068868822
0.012216742
0.030866722
0.03572244
0.024417458
0.0058945725
-0.0070749917
-0.016653178
-0.0085702045
0.011593779
0.01602213
0.007117631
-0.0010034821
-0.0014455551
-0.0039484752
-0.008919073
5.887907E-4
0.015599266
0.017503312
-0.008220574
-0.045891955
-0.052571744
-0.0363956
-0.021347808
-0.00842769
-0.0013148248
0.0077158078
0.013136906
0.0033432455
-0.009268814
-0.012948329
2.937968E-4
0.016124072
0.014315563
0.013070115
0.015614963
0.006223006
6.7290885E-4
0.011026452
0.032498714
0.05081782
0.044712294
0.030346965
0.023140915
0.008607906
-0.0072373096
-0.027711896
-0.048464034
-0.04015767
-0.026848583
-0.027858928
-0.018629
-3.0813745E-4
0.010719371
-0.0014150799
-0.022559559
-0.022105115
-0.015958767
-0.0152802095
-0.011296483
-0.008154659
-0.006917789
-0.005976726
0.003023425
0.015683822
0.024597725
0.034797594
0.032660592
0.028886104
0.037085786
0.03215152
0.017607758
8.3862763E-4
-0.022422725
-0.030883271
-0.017755765
0.0012810206
0.0049425
-0.008801189
-0.016561981
-0.01659194
-0.013550671
-0.006714314
-0.006570245
-0.008488014
-0.0044985465
-0.0010245754
-8.4169E-4
-4.2459325E-4
0.0062219324
0.01852706
0.021804834
0.008656611
-9.1463025E-4
0.0043173106
0.0049749105
-0.0032448873
-0.006915365
-0.006088909
-0.004786741
-0.004366839
-0.0059291297
-0.0065939887
-0.0040258905
-0.002582334
-0.0019667153
0.005080836
0.009026128
0.0011027344
-0.0052649644
-0.005523131
-0.0046927105
-0.0019585
1.6251394E-4
3.1257942E-4
0.0012283374
0.0036486224
0.0044974033
0.0027132896
0.0024123
0.0028486883
0.002295099
0.0028689075
0.0022969327
-0.0018656832
-0.006589914
-0.008499019
-0.00758603
-0.0050478266
-0.004368959
-0.0063575916
-0.00455747
9.347176E-5
0.002938041
0.0045700613
0.004815615
0.0063656704
0.0059283213
4.721383E-4
-0.002080737
-0.0029355083
-0.003977918
-0.0024877838
-0.0017747985
-5.8962E-4
0.0013868607
0.0013541271
-8.269938E-4
-0.003479146
-0.003280704
-0.0039038649
-0.0054590898
-0.0026240565
0.0017640474
0.004852605
0.0046827225
0.0024748356
0.0015928183
5.23453E-4
9.519118E-4
0.0019242725
0.0013624514
0.0014988732
0.0010717915
7.434431E-4
-1.8537823E-4
-0.002966769
-0.003555616
-0.0020588033
-7.2684296E-4
5.735478E-4
0.0029928826
0.0029102983
-0.0016866913
-0.0029810157
-0.002865729
-0.003839816
-8.0370257E-4
6.03206E-4
5.9016206E-6
6.0597603E-4
3.8581638E-4
0.0024044486
0.0022489503
-0.0016117647
-0.0013253462
0.0010843966
0.0022274198
0.0026731377
0.0020727336
5.5123336E-4
-0.0013130078
-0.0024100903
-0.003900185
-0.0047018216
-0.0028546217
-8.6158054E-4
1.6630071E-4
4.0535285E-4
3.761983E-4
8.568532E-4
0.0023584832
0.004788254
0.004779475
0.0025566097
8.390888E-4
-4.1087854E-4
-0.00111218
-0.0018784695
-0.0015740298
-8.2347466E-4
-8.279042E-4
4.881863E-4
-9.3231397E-4
-0.0033648931
-1.715179E-4
0.0018269339
4.1867507E-4
1.2736664E-4
-0.0013057574
-0.0022207221
-2.6859785E-4
0.0018088997
0.002567666
0.0018319549
0.001560024
0.0031654425
0.0032424754
5.9879135E-4
-6.748667E-4
-5.2578096E-5
2.5479926E-4
5.198861E-4
-4.0974785E-4
-0.002037664
-0.0018462613
-0.0012588487
-8.9665E-4
3.4124288E-4
8.638123E-4
-0.0010071811
-0.0032585503
-0.004013385
-0.004430525
-0.0023546936
0.0017418857
0.0020929908
6.8858836E-4
8.412613E-4
9.731647E-4
3.993501E-4
-2.9145437E-4
8.1432116E-4
0.001314665
0.0010338431
0.003991298
0.0048304065
0.0014533054
-0.0018426296
-0.0043951054
-0.0046259104
-0.0039894423
-0.0022927767
6.272861E-4
1.4441986E-4
-4.257808E-4
1.2211308E-4
-5.8476505E-4
-7.6485175E-4
-0.0022958908
-0.0022866963
2.2198704E-4
8.368124E-4
0.0025385707
0.0036112508
0.0024000665
0.0020729736
0.0010125262
0.0012068202
0.0023754912
0.0011689201
-2.3701527E-4
-0.0012123506
-9.6331036E-4
-6.718714E-5
-0.0015510346
-0.0034331228
-0.003004889
-0.0014747877
-0.0015372115
-0.0024008313
-0.0021420482
-0.0017532667
-0.0013147985
-0.0019387951
-0.0033162853
-0.0019249539
0.0010105524
0.0022230016
0.0018757659
0.0018259815
0.0015869942
-1.4567758E-4
-9.984357E-4
-2.4852468E-4
-2.963147E-4
-0.0011033855
6.565828E-4
0.003173946
-4.6963975E-4
-0.0047285757
-0.0030198877
-0.0015680927
-0.0014006618
-0.0014527687
-0.0018133719
6.010395E-4
0.0025668545
0.0029391884
0.0017981933
-0.00273052
-0.0039224057
-0.0017080388
-0.0012070789
0.001640947
0.004390344
0.0027030027
0.001932056
0.0027374865
0.0028902227
0.0041500134
0.003649554
-0.0017004965
-0.007021903
-0.0067201355
-0.0036262167
-0.0029287748
-0.0017719598
5.4006896E-4
3.2111176E-4
-3.52406E-4
-0.0011595539
-0.0015012411
-9.207538E-5
-3.2447441E-4
4.513794E-4
0.0033391605
0.003681939
0.0015057749
5.1172596E-4
0.004275834
0.006238703
0.0034175348
0.0033115486
0.0021280465
-4.0118373E-4
-4.620663E-4
-0.0016320207
-8.166292E-4
-2.2384844E-4
-0.0012916117
2.963564E-4
-5.2148435E-4
-8.289729E-4
-2.9661905E-4
-0.004762262
-0.004681369
-3.615296E-5
-8.613731E-4
-0.0042611845
-0.005211213
-0.0040791896
-0.0021826385
2.634083E-4
9.805677E-4
4.6603577E-4
0.0023318322
0.003994737
0.004219086
0.0030625784
7.262241E-4
8.6677E-4
0.0018748704
0.002888043
0.0037681437
0.002051423
5.407018E-4
5.9656E-4
0.0027069058
0.004980035
0.0038540468
0.002968545
0.0010576849
-0.0023207294
-0.0021649254
-0.0027242543
-0.0052790944
-0.0044868966
-0.0010481301
1.9446324E-4
-5.5464666E-4
0.0014417378
0.001619468
-0.0034585577
-0.0061555873
-0.004854756
-0.002821457
-0.0018088476
-0.001467604
5.1295484E-4
0.0012261076
0.0012743392
0.003313669
0.0021540099
7.266636E-4
0.005015382
0.0076525123
0.0055167302
0.0025932435
-0.0020083948
-0.00370927
-8.507609E-4
-0.0018057406
-0.0032985858
-0.0013478316
-7.7640015E-4
0.0015514035
0.005313812
0.0046598427
9.24626E-4
-0.002090067
-0.0023538154
-0.003131801
-0.004188406
-0.0016423892
1.6437512E-5
2.0208779E-4
9.506997E-4
9.73751E-4
0.0018980748
0.0013181118
6.625555E-4
0.0022901897
3.108729E-4
-0.0016990489
4.654286E-4
0.0018433479
-5.4191736E-5
-0.0044436734
-0.004227507
4.184929E-4
5.424868E-4
5.403484E-4
0.0032178687
0.00285952
0.0017605332
0.0026300957
0.002627465
5.790543E-4
-5.2959193E-5
9.2000834E-4
-4.6837573E-5
-3.8277436E-4
2.985248E-4
-2.969862E-4
3.001569E-4
0.0012830367
6.1949325E-4
-0.0011864447
-0.002733963
-0.003709924
-0.004908027
-0.0030791904
-0.0017762788
-0.0048537655
-0.003949801
-0.0015977987
-0.002770849
-8.1211666E-4
0.0013563276
9.904256E-4
0.0025653034
0.0039688232
0.0044192825
0.0056605586
0.006182879
0.0056098965
0.0048328433
0.0031581796
4.7772733E-4
-2.4394004E-4
7.158761E-4
9.488036E-5
-0.0016486328
-0.002787959
-0.002036332
-6.1067333E-4
-4.2429936E-4
-6.234018E-4
-0.0021291056
-0.003699244
-0.0028588
-0.0022231506
-0.0025372843
-0.002609737
-0.0025135488
-0.0014212376
-2.1743626E-4
-6.0304406E-4
-0.0010907857
6.916341E-4
0.0029173947
0.0031115196
0.0030246405
0.003705821
0.0036317112
0.0026004175
0.0027851209
0.0034297532
8.4155286E-4
-0.0012875223
9.939458E-4
0.0022494532
2.7378046E-4
-0.0014301894
-0.0020911098
-0.0019705063
-0.0016124726
-0.0023292974
-0.0031586771
-0.0029286435
-0.0021443146
-5.259247E-4
1.5904223E-4
-0.0014168898
-0.0015672649
-3.5903996E-4
-9.934537E-4
-0.0019086099
-6.5504987E-4
0.0016999629
0.0011643778
-7.6219294E-4
-4.328912E-4
-0.0011243472
-6.5930444E-4
0.0024743658
0.0015512903
-6.557719E-4
7.467393E-4
0.0040153437
0.00623806
0.004356739
0.0027173767
0.0022996329
-8.432141E-4
-4.2474823E-4
0.0030478176
0.0017541032
-0.0013071747
-0.0016643363
6.17472E-4
0.0021200713
9.7103417E-4
0.0016072277
0.0030182924
0.0012136431
-3.2988092E-4
2.0999333E-4
-0.0018250884
-0.006890942
-0.007931622
-0.004730964
-0.004476309
-0.0060331
-0.0051860753
-0.0038178102
-0.0031361803
-0.002002769
-0.0011619396
-0.0019060684
-0.0023889723
-6.026943E-4
0.0017272946
0.0030370206
0.0035658102
0.0030953505
0.002574652
0.0035161357
0.004515836
0.0055166148
0.007849187
0.0077423747
0.005408236
0.005487041
0.005549275
0.0045575923
0.0041375607
0.0023823828
-0.0015806492
-0.0071650767
-0.009506936
-0.0067563197
-0.004917372
-0.003843817
-0.001886904
-9.607322E-4
-9.059027E-4
-0.0018465825
-0.001975975
-0.0015718208
-0.0028971839
-0.0036896463
-0.0030052746
-0.0011148272
7.672851E-4
0.0010232246
6.835999E-4
2.9950618E-4
0.00225646
0.0044416822
0.0032391131
0.0032851011
0.0021221093
-0.0018734559
-3.8253123E-4
0.00235803
-0.0011296205
-0.0040576
-0.0015423263
-1.3132962E-4
-0.0015904317
8.4641884E-5
0.0018555158
9.771865E-4
0.0012507184
0.0012151471
0.001634722
0.002676622
0.0010820135
0.0011023176
0.0034708688
0.0027273926
0.001116224
0.00220665
0.0013289241
-0.0020894276
-0.0021709881
-0.0019796048
-0.0042471024
-0.004439488
-0.0028972146
-0.0014146104
-0.0013676446
-0.0025557508
-0.0030301097
-0.0047187787
-0.004921062
-0.0017058995
5.9308234E-4
0.0018813339
0.0024941096
0.0038469208
0.0056237187
0.0036293126
0.0017070913
0.002593007
0.0036836134
0.003382797
3.3434742E-4
-7.619646E-4
0.001903861
0.0037466406
0.0030631614
-1.0733202E-4
-0.0011284098
4.1537918E-4
-0.0010884408
-0.0030394369
-0.004017643
-0.005721956
-0.0051149633
-0.0025437532
-5.280905E-4
2.0992174E-4
-7.186798E-4
-0.0014860902
-7.2589586E-4
3.2955117E-4
2.1760144E-4
-5.0448935E-4
-1.2120057E-5
0.0010598621
3.9611885E-4
-4.553897E-4
0.0015386747
0.003794992
0.0033634277
0.001476499
2.2526525E-4
7.406996E-4
3.9885563E-4
-4.069133E-4
0.001359393
0.0015744234
9.984948E-4
0.0027836454
0.001519417
-0.0011372835
-0.0014995579
-0.0025636212
-0.0027887
-0.0018195243
-0.0018679344
-0.0025212858
-0.003450181
-0.0017783017
9.868876E-4
1.9555633E-4
-1.3683438E-4
7.7913044E-4
-9.819808E-4
-0.0024655366
-0.0022788737
-0.001396144
5.6192315E-5
6.4161075E-5
5.76956E-4
0.0022504304
0.0029196567
0.004152309
0.004753872
0.0051795514
0.0068673203
0.0057169143
0.0045500686
0.0054747015
0.002121158
-0.0038985815
-0.006364709
-0.0043190266
-0.001181611
-0.0010665874
-0.002144704
-0.0024614204
-0.0034586769
-0.004032131
-0.0041388865
-0.0048779924
-0.0043689148
-0.0033729442
-0.0038480223
-0.0029411383
-0.0010654903
-7.6309533E-4
6.2039815E-4
0.0023414434
0.0030236368
0.0049312143
0.005065627
0.0021431444
9.876431E-5
-7.14503E-4
-0.0010112587
-5.9853643E-5
0.0014422894