0.002425217
5.7032466E-4
-7.739047E-4
1.4065541E-4
9.407482E-4
0.0020377655
0.0016004618
-0.0010307858
-0.0014425431
-7.8001764E-4
-0.0024561188
-0.0027607353
-7.3368277E-4
-2.0529643E-4
-4.430321E-4
-4.7629944E-4
5.8510646E-5
4.6510628E-4
-0.0019218641
-0.0026650692
-6.0634586E-5
8.890717E-4
7.7459624E-4
9.807466E-4
0.002699724
0.004300782
0.0022168392
0.0010859042
0.002429314
0.003385332
0.0030042988
9.291064E-4
8.4336055E-4
7.4893865E-4
-4.9619423E-4
1.3943977E-4
-0.002470791
-0.0042751464
-0.0016491184
-0.0028006812
-0.0040148976
-0.0026613418
-0.0025684964
-0.0011370854
-5.199838E-4
-0.0024190582
-0.0028470822
-0.0013165075
4.617162E-4
0.0012579046
4.640887E-5
-0.0011345213
0.0011526899
0.0024714246
7.431567E-4
0.0022682268
0.0044992147
0.004434133
0.0039820783
0.0028194254
0.003313951
0.0020715394
-0.0014991428
-0.0011652041
-8.1400364E-4
-0.0020500543
-0.0026530111
-0.0023678117
1.19881515E-5
-1.20504956E-4
-0.0014547565
-0.001216882
-0.0029402392
-0.0031757231
-0.0018174112
-4.8603714E-4
0.0022901495
0.002340733
3.8467633E-4
-0.0010212103
-0.0015863179
-5.4425927E-5
3.1791267E-4
1.5763401E-4
0.0010326904
7.493117E-4
0.0013691823
0.0016888683
7.369895E-5
2.5453808E-5
4.6607488E-4
-3.647103E-4
-5.8357517E-4
1.2223385E-4
8.852591E-4
9.5574727E-4
3.4462006E-4
-2.2567317E-4
-9.400898E-4
-9.665094E-4
-2.1312707E-4
-7.614499E-4
-5.605088E-4
0.001038686
1.3098944E-4
-6.901224E-4
4.107069E-4
3.5108096E-4
3.7218197E-4
4.1715347E-4
4.6271583E-4
0.0018332932
0.0010827316
-4.7119052E-4
2.3519404E-5
-0.0010650133
-0.0020642637
2.1967279E-4
0.0013257073
1.4332336E-4
-1.0230532E-4
-2.1030134E-4
-2.7431818E-4
7.9546287E-4
6.2936253E-4
-0.0010667742
-0.0014113862
-2.0131479E-4
-7.10028E-5
-0.0016187744
-0.0022091265
-7.9989654E-4
8.9563883E-4
3.552831E-4
-0.0014115279
4.1446317E-5
0.0013089355
-0.001234524
-0.0016545593
-2.9650258E-4
3.1043797E-5
0.0022647115
0.0025603177
2.6019054E-4
0.0017177701
0.0031543928
0.0011257181
-1.2130065E-4
-4.6193722E-4
-2.4565862E-4
3.3304887E-4
-5.405442E-4
5.8918376E-4
0.00338696
0.002450129
3.8466055E-4
-0.0011132163
-0.003773185
-0.003429207
-7.3052023E-4
-6.4207206E-4
-0.0012326858
-0.0017802279
-0.0026146136
-5.853655E-4
0.0011422096
-4.4828415E-4
-8.188666E-4
2.2113789E-4
6.519402E-4
7.824604E-4
-1.8660395E-4
-6.5098825E-4
-0.0013202628
-0.0031283882
-0.001184803
0.0030688879
0.004671927
0.0048006875
0.0038281886
0.0019931197
0.0015150562
9.10498E-4
-8.0823986E-4
-3.5347827E-4
1.2783104E-4
-0.002215426
-0.0015816691
9.4242796E-4
-1.69741E-5
-0.0010194692
-0.0016499879
-0.0016628779
0.0011890361
9.1475144E-4
-0.0035523516
-0.0046235304
-0.0017324825
-7.674472E-4
-0.0023779701
-0.0025351818
-0.0013769651
5.2282115E-4
0.0031441534
0.0031714502
0.0011929756
2.7606747E-4
8.566298E-4
0.0020847097
0.0021375
0.0010158224
-3.4524707E-4
-9.751748E-4
-7.183023E-5
6.6430576E-4
3.7977457E-4
-5.222296E-4
-0.0012063601
-4.279091E-4
9.6049753E-4
0.0018907666
0.0017352651
8.004915E-4
2.0225372E-4
-4.6342253E-4
-8.8857434E-4
-7.57257E-4
-6.213633E-4
-7.541932E-4
-5.514625E-4
6.3043763E-4
1.8267307E-4
-6.659827E-4
0.0012007038
0.0018984617
7.6984905E-4
1.5994582E-4
-6.7628664E-4
-0.0016283197
-0.0017967063
9.436419E-5
8.6834905E-4
-3.017367E-4
4.3415136E-4
-0.0012758507
-0.004092664
-0.0021067031
2.3997755E-4
0.001211854
3.321621E-4
-0.0021546218
-0.0015436073
3.8597258E-4
0.0018335348
0.0028173106
0.0022301958
0.0017038522
3.265074E-5
-0.001946378
-0.0016122021
-0.0012653525
-4.7064933E-4
0.001610981
0.001353197
-0.00241547
-0.0034307437
0.0015677582
0.0038516417
9.194339E-4
-6.32323E-5
4.3639232E-4
-3.3445266E-4
-7.1703177E-4
5.2868034E-4
0.0018270107
0.0013717571
0.0015236862
0.0031456535
0.0028316432
2.9976093E-4
-0.0010325599
5.061166E-6
5.4959307E-4
2.693407E-4
8.3104643E-4
-0.0011369069
-0.0041781873
-0.0020110533
-4.6019086E-5
-0.0021778683
-0.0017593991
-0.0013743164
-0.003216138
-0.0013428616
3.3490447E-5
-8.556593E-4
-2.7554092E-4
-0.0019273465
-0.002125119
8.144244E-4
3.101931E-4
7.7499065E-4
0.003131437
0.0024836035
0.0016242116
0.0016672752
0.0020551218
0.0011545215
-6.1328977E-4
5.7241996E-6
-6.081896E-4
-0.0017417204
-4.4301772E-4
0.0012467554
0.0036688636
0.0029079125
5.01642E-4
4.900383E-4
-0.002315017
-0.0035188673
-0.0010946766
-9.5855974E-4
-5.1457825E-4
-4.0546558E-5
3.2406737E-4
0.001164992
3.4087824E-4
3.3128582E-4
5.1096154E-5
9.376758E-4
0.0021700799
-0.0013982131
-0.0012796931
0.0016873968
1.8685965E-5
-3.1647837E-4
-6.6948455E-4
-0.0024454573
-0.0025083525
-0.0024402966
-1.518101E-4
0.0017209821
7.0504396E-4
4.2136863E-4
5.0443356E-5
7.797243E-4
0.0020709874
7.5170316E-4
-4.8833765E-4
-0.0016338904
-0.002862935
-9.3709206E-4
0.0015816041
0.0015217734
0.0017272749
0.002095888
0.001119989
0.0015829748
0.0016276533
4.624755E-4
5.287137E-4
-0.001893663
-0.0039591743
-0.0019073925
-7.62296E-4
1.5071218E-4
8.5858663E-4
-4.6368808E-4
-7.981484E-4
-0.0010003857
-0.0018281189
-0.0013845906
2.2740573E-4
9.387421E-4
-2.1678049E-4
-7.975583E-4
-0.0010860094
-3.514024E-4
0.002129568
0.0017126293
0.0013033807
0.003281764
0.0026027355
0.0014857283
0.0018867624
0.0013042256
1.978951E-4
-4.0509933E-4
-5.7675195E-4
-8.6862495E-4
-2.6501573E-4
-9.575671E-5
-4.2874544E-4
0.0018497544
0.001078473
-0.0028443974
-0.0037994515
-0.005319889
-0.004289218
-3.3254555E-4
-0.0010735419
-0.0015931288
-3.1154876E-4
5.075377E-4
0.0025613734
0.002000767
0.0012410185
0.0028584069
0.0025289569
3.347274E-4
-0.0020507993
-0.00221035
-0.0019567749
-0.002128555
0.0010455127
0.0018294249
4.17902E-4
0.0021502846
0.002511466
0.0028366726
0.0038451476
0.002816424
0.0020106153
-8.214192E-4
-0.003955442
-0.0036303934
-0.0030052748
-0.0020612527
-6.8367226E-4
3.475159E-5
4.5874045E-4
9.499807E-4
0.0023225334
0.0013892116
-0.00193656
-0.0033059125
-0.0029000465
-0.0012254593
1.7820917E-5
-5.3713145E-4
-3.1141783E-4
3.0563236E-4
1.5660937E-4
-2.742433E-4
1.9991674E-4
0.0013451801
6.6762776E-5
-1.3258032E-4
0.0020138712
7.873781E-4
8.2500694E-5
0.0011081181
-3.2384554E-4
9.92004E-4
0.0041943816
0.003640213
0.0017800491
1.864744E-4
-7.8202283E-4
-0.0012807536
-0.0020223767
-8.550175E-4
6.1177E-4
-4.7424602E-4
-0.0018525554
-0.0015621554
-7.912871E-4
-4.2140862E-4
1.5439164E-4
-4.2420678E-4
-0.0024743825
-0.002518791
-6.1708566E-4
3.8330705E-4
6.557432E-4
6.4823864E-4
-3.4861846E-4
-0.0013643494
-0.001380249
-0.0015047136
-0.0012595068
4.2320893E-4
0.0021780226
0.0028849414
0.0021806147
0.0012236518
0.0015670754
0.0018506927
0.0010907068
5.401819E-4
3.548995E-4
-6.787491E-4
-7.7893306E-4
0.0018579391
0.0045548277
0.0056734723
0.0029316614
-0.0037293227
-0.0066071185
-0.004445682
-0.0017766547
-6.8465684E-4
-0.002516059
-0.0028956006
-0.0011213757
-8.328632E-4
2.9827005E-4
3.2335953E-4
-0.0015542145
-7.190983E-4
6.734568E-4
5.6677335E-4
-3.5884725E-5
-3.894903E-4
7.1896316E-4
0.0016699126
0.0018099503
0.0011377482
-2.3072258E-4
6.661303E-4
0.0024769695
0.0023992197
0.0025776764
0.003241282
0.0017862199
-4.2557513E-5
0.0011048487
0.0011774682
-0.002677023
-0.0038372858
-0.0016063928
-0.0018066042
-0.0034967528
-0.003856159
-0.0017545287
0.0013401975
0.0011904777
-3.922304E-5
0.001071697
0.0017997738
2.8576664E-4
-0.0020235016
-0.0026507715
-0.002066991
-9.9132E-4
0.001068267
0.001002993
0.0010726597
0.0028787123
0.0013101893
9.052291E-4
0.0030219804
0.001100019
-8.5810665E-4
-8.169691E-4
-0.002394553
-0.00352516
-0.0015232122
0.001860844
0.0022962287
9.618945E-4
9.827004E-4
0.0019626727
0.0035940823
0.0018520375
-0.0015165729
-7.120185E-4
-0.0010386517
-0.0022968764
-4.1725495E-4
-7.261532E-4
-0.0019090362
-8.833706E-4
-0.0010628336
-0.0010183223
0.0011664222
0.002307551
6.828744E-5
-0.0016663653
1.8053973E-4
1.4709945E-4
-0.0023474013
-0.0022044005
-9.7617414E-4
-4.2067133E-4
-9.457328E-5
1.8237415E-4
8.682872E-4
0.0010325887
0.0013712314
4.160201E-4
-0.0017240572
1.9189766E-4
0.0019234932
8.654551E-4
0.0022058573
0.001605223
-5.084132E-4
0.001558414
0.002277311
1.8591515E-4
-9.0731884E-4
-0.0013650496
-2.3665531E-4
0.001607679
3.937963E-4
-0.002839655
-0.002586152
5.27351E-4
0.0011017921
9.3076314E-4
0.0016567782
3.0943702E-4
-7.919608E-4
4.003537E-4
2.4423318E-4
-0.0020013605
-0.0027965212
-0.0019386746
-0.002206834
-0.0021489735
6.429737E-4
0.0032724787
0.0030941358
0.0017722481
-1.8044685E-4
-0.003463528
-0.005649168
-0.004967966
-0.0021498094
7.9267466E-4
9.957751E-4
-3.5362682E-4
-0.0015398887
-0.0016091898
0.0027200396
0.006419703
0.004896105
0.0040147267
0.0035258492
0.0025154254
0.003369096
0.00136918
-0.0013192524
9.380637E-6
5.5210865E-5
-3.0475235E-4
0.0021665464
0.0023740763
4.7793923E-4
0.0010783472
0.0015915593
-0.0015483019
-0.00519668
-0.0056271725
-0.0041338135
-0.0033633702
-0.0032768368
-0.0023256212
-0.0015326462
-0.0022818493
-0.00215396
-0.0016382128
-0.0029459978
-0.0032694407
-0.0023225474
-0.0010150897
0.001872123
0.003575299
0.0040770248
0.0047959653
0.004210734
0.0050105583
0.006358147
0.004394514
0.0018453845
7.665322E-5
-0.0022172744
-0.004170707
-0.004237988
-0.0030113766
-0.0021302227
2.9281006E-4
0.0031652916
0.0035387906
0.0028442335
3.7781888E-4
-0.0011379154
0.0012544958
0.0020093946
2.168199E-5
-0.0027296755
-0.0046935976
-0.003378889
-0.0026877031
-0.002494896
1.1896384E-4
0.0014291628
0.001989051
0.0033180104
0.0037956173
0.0025450415
-4.756739E-4
-3.5620222E-4
0.0022899932
0.0016519194
-7.2424085E-4
-0.0043244334
-0.008084685
-0.008044123
-0.0052119945
-0.0013608458
0.0011457438
0.0021307243
0.0029255303
0.0013252215
6.6823466E-4
0.0026252167
0.0027393198
0.0019784179
0.0012021536
7.2014966E-4
0.0010016868
7.4066385E-4
0.0016504347
6.270492E-4
-0.0023012466
-1.4792298E-4
0.003691887
0.0049466724
0.0029813666
-9.774176E-4
-0.0012582835
-0.0026580442
-0.0049943314
-3.5643793E-4
0.0018149954
-0.0013048487
-0.0013061136
-2.0163684E-4
6.699104E-4
0.0010437752
6.0995336E-4
5.4126885E-4
-0.0010675474
-0.0021169176
-0.0011628132
0.0011733114
0.0019761503
-0.002880006
-0.003711645
7.6161243E-4
-6.4972184E-5
-8.0937217E-4
-9.166966E-4
-0.0040724864
-0.003983123
-0.0020318097
8.8314386E-4
0.003862196
0.0022576733
0.0017373174
0.0036361692
0.0023949428
-9.2277874E-4
-0.0039690975
-0.005615379
-0.0050672484
-0.002688066
8.400617E-5
0.004935739
0.0103731165
0.0073686736
6.7167525E-4
-0.0011212106
-0.0022823522
-0.0027830056
-0.0029402028
-0.0032436517
-0.0012921173
-0.0016656839
-8.5578556E-4
0.0021687767
-6.205632E-4
-0.0026197932
-0.0010212231
-7.65295E-4
0.0014754443
0.0020466351
-0.0018084092
-0.0037426455
-0.0050805937
-0.00854628
-0.009325372
-0.005237666
-0.0011993393
5.4827804E-4
0.0032434566
0.004543666
0.0019677214
0.0015388749
0.0033510807
0.003609158
0.0045731547
0.004102425
0.0024980744
0.0036376803
0.0020595577
-6.8659446E-4
0.0014596786
0.0024940546
0.0012181414
0.003673932
0.007863363
0.008712721
0.009519207
0.011673575
0.008900125
0.0049851304
0.0018467506
-0.0060624736
-0.0108673265
-0.008653527
-0.0055016913
-0.001451327
0.0024847426
0.0041001495
0.003836781
0.0032073655
0.0020348453
-4.5935824E-4
-0.0010925521
-0.0030264093
-0.010967123
-0.017431833
-0.018865239
-0.024126176
-0.031235904
-0.027323388
-0.018136395
-0.014708195
-0.011566688
-0.0057870904
0.0059087067
0.021995986
0.026764294
0.025600247
0.030078353
0.034074984
0.03373124
0.027419515
0.024540309
0.024966791
0.012977471
0.0055926666
0.0076569226
-0.0012459873
-0.009734376
-0.01631651
-0.023615008
-0.0064085545
0.02634897
0.042013593
0.03328034
0.008082771
-0.016237639
-0.028235747
-0.036162905
-0.044784073
-0.04978597
-0.05417062
-0.053249896
-0.04217061
-0.030948432
-0.013741824
0.007957737
0.022077698
0.031323545
0.026791658
0.03062374
0.058441862
0.07225157
0.07336422
0.044785794
-0.023811419
-0.05949364
-0.062312182
-0.045663357
0.0020932858
0.005618931
-0.027392957
-0.024988722
6.783149E-5
0.035373364
0.06378475
0.07358958
0.05820366
-0.0125362715
-0.07710943
-0.08236035
-0.07995434
-0.07309414
-0.048684172
-0.02586043
0.009702002
0.053540707
0.081449814
0.077684715
0.03805785
0.014338189
0.01755844
0.005487922
0.014027007
0.045934692
0.041627616
0.020708082
0.008740495
0.0011297757
4.3798005E-4
-0.013320072
-0.04561619
-0.08381258
-0.098356076
-0.057434622
-0.0023107585
0.012237876
-0.00374105
-0.009140921
0.0066333944
0.012801675
0.0021533072
-0.01224813
-0.019688668
-0.0130047845
-0.013626159
-0.012014841
0.01623658
0.039179225
0.040548593
0.04813968
0.06570181
0.048116684
-0.008574484
-0.026469965
0.00836373
0.032066133
0.0212665
-0.0063035614
-0.023025509
-0.024228975
-0.026515
-0.02958648
-0.025659306
-0.025893621
-0.048169143
-0.058866158
-0.032157164
-0.016738107
-0.014756013
0.017960856
0.05869262
0.05559525
0.016111018
0.0071423487
0.031104311
0.030109145
0.016186528
5.4083237E-5
-0.021548348
-0.003770562
0.034022737
0.04607087
0.056443095
0.06275828
0.033691682
-0.01621231
-0.05482136
-0.07160115
-0.06689318
-0.04414876
-0.018220022
0.010968824
0.028074909
-0.012772455
-0.06424213
-0.054488644
-0.028453171
-0.021945784
-0.020472439
-0.009081146
0.029368753
0.05296425
0.04087994
0.023627158
-0.0033345283
-0.013709284
-0.003772685
-0.002318234
0.03984715
0.10613491
0.10509094
0.046428975
0.012730547
0.024771152
0.0016084675
-0.058071267
-0.069177434
-0.051944204
-0.034052774
-0.008231646
0.0030733263
0.0037135533
-0.004184284
-0.0122430045
-0.020695476
-0.042919394
-0.03565642
-0.011803892
-0.011414596
-0.0041276016
0.0047030346
0.013597803
0.031017473
0.022531401
0.002699615
0.0020309468
0.013073039
0.02792238
0.039428867
0.036527593
0.017760895
0.004659425
-0.004379945
-0.011971457
0.011312286
0.026362816
-0.012769494
-0.052415024
-0.045222517
-0.016752983
6.090096E-4
0.018984625
0.028840113
-0.0044028596
-0.04409809
-0.044057865
-0.012009583
0.018977888
0.018467328
0.0044500176
-6.4737897E-4
0.0012432687
0.0070153386
-0.0020422367
-0.017468195
-0.014320735
-0.00563223
-0.001995794
0.01563893
0.04993723
0.055291127
0.016819548
-0.01706478
-0.020407371
-0.005175843
0.0012539736
-0.004704344
-0.0010276838
-4.12526E-4
-0.0043258076
-2.6616573E-4
-0.003427879
-0.0067425915
-0.007463434
-0.016357997
-0.018047146
-0.009128757
-0.0025784655
-0.0037128313
-0.003080401
0.005655573
0.004467302
-0.009208234
-0.016686616
-0.011260842
-0.0019001327
0.0016801774
0.004474745
0.0066537363
0.0061180443
0.010013869
0.012264948
0.01164548
0.015266662
0.016643878
0.015876468
0.017826349
0.015993452
0.008433252
-6.754952E-5
-0.010222814
-0.018267987
-0.017171534
-0.012344805
-0.009129171
-0.0051765516
-1.646477E-4
0.0021117625
-0.001177515
-0.004355181
-0.0061442815
-0.011947463
-0.017167995
-0.015370281
-0.008719924
-0.0050274953
-0.002976855
0.0027912366
0.0049054176
0.0050217547
0.006587772
0.0038278054
0.003328641
0.0045164586
0.0021225887
0.0025482317
0.005881006
0.013722835
0.024387797
0.026434768
0.017455403
0.0024779378
-0.008423672
-0.01106583
-0.013462118
-0.01600541
-0.013524399
-0.0073790755
-0.0021091278
-0.0015014993
-0.0068606464
-0.012052618
-0.007600784
0.0015525674
0.003352946
-0.0013252753
-0.0038354804
-0.0011755787
1.7783271E-4
-4.302301E-4
0.002066686
0.0025580241
0.001529156
0.0035521544
0.0034450325
0.0027717112
0.0041419375
0.0043063546
0.0046398854
0.005019504
0.00540023
0.0058482015
0.003743245
0.0020854804
0.0017784744
3.1975537E-4
2.8574874E-4
7.6957484E-4
-0.0020947517
-0.0055738324
-0.006501689
-0.006800663
-0.0054061683
-0.0011731752
3.8307753E-5
-0.001695429
-0.0016037523
-0.0013191397
-0.0016154163
-0.002487886
-0.003035979
-0.0020831104
-0.0031640974
-0.0033670545
-6.353967E-4
-4.4596466E-4
-6.956804E-4
-4.4271833E-4
-4.893486E-4
0.0021289543
0.001799945
-6.862771E-4
0.0023695577
0.0048225713
0.0035379285
0.0032267445
0.0029008805
0.0030101687
0.004093381
0.003781722
0.0026533331
0.0017525458
0.0017517367
0.0015951731
1.3112076E-4
0.0010241516
0.0029675376
0.0010483342
-0.0010070167
-0.0012785789
-0.0024933931
-0.0024664113
-0.0013628892
-0.0023579379
-0.0036684915
-0.002997036
-0.0016176836
-0.0022143777
-0.00457901
-0.0040063835
-0.0016593662
-0.004137825
-0.0063110488
-0.0018782286
0.0017171723
0.0016395672
0.0019297036
0.0022590589
0.002236121
7.0033566E-4
-8.5021555E-4
6.611213E-4
0.0024608783
0.0027262745
0.0023071938
0.0026094273
0.0024902308
2.2222074E-4
5.5359065E-4
0.0018033207
4.426911E-5
-3.5685327E-4
-0.0013453538
-0.0031920003
-0.0011200572
9.062618E-4
4.5624928E-4
-5.2905583E-4
-0.002394167
-0.0031476147
-6.5724796E-4
6.5619306E-4
-0.0021667064
-0.0029502152
-8.435773E-4
-4.460424E-4
4.5710913E-4
0.0012521028
5.403123E-4
0.0014557003
0.0021900544
9.84216E-4
-8.7573964E-5
-1.808443E-4
2.3647002E-4
6.08471E-4
6.274324E-4
-3.1037992E-4
-2.636474E-4
0.0010301612
2.9705564E-4
-6.088884E-4
-0.0013748837
-0.00334167
-0.0023885397
-3.8275647E-4
-4.2972603E-4
7.0941256E-4
0.00180401
8.572041E-4
-4.562274E-4
-0.001399366
-0.0012587002
-2.543184E-4
5.3374685E-4
-2.3909414E-4
-0.0023176055
-0.0021827563
-6.035166E-4
-3.581461E-4
3.8892944E-5
-5.5831646E-5
-0.0014803917
-0.0015480554
-5.1196176E-4
-3.466961E-4
-2.1651792E-4
2.908869E-4
-2.0352987E-4
-7.2045036E-4
4.36888E-4
9.2629006E-4
-5.2613614E-4
-9.923794E-4
-1.02727034E-4
-9.817363E-4
-0.0031372833
-0.0024760808
2.8172813E-5
6.0145947E-4
5.8264023E-4
0.0011263057
7.616103E-4
1.9031641E-4
8.8306674E-4
0.0016610483
6.220983E-4
-7.73696E-4
-0.0016039802
-0.0024103469
-0.0011400091
0.0011905703
0.0020881505
0.0024513341
0.0026116571
0.0024419315
0.0016318724
7.283742E-4
1.0506218E-4
-6.009728E-4
2.4124049E-4
3.599874E-4
-9.819291E-4
1.3537034E-4
0.001272174
8.4356806E-4
3.5383913E-4
-0.0012241168
-0.0030708848
-0.003575602
-0.0018115182
-0.0014825789
-0.003605317
-0.0019685293
-3.2016574E-4
-0.0014596342
-3.1409218E-4
5.5229885E-4
5.854355E-4
3.9441962E-4
-0.0016376192
-0.0015114909
2.3180663E-4
7.365237E-5
-7.9556997E-4
-5.8233476E-4
3.8454312E-4
4.416585E-4
8.130356E-4
0.0015262943
0.002217593
0.0033197051
0.0014914453
-7.186076E-5
0.0016577329
0.0023856328
0.0027137094
0.0018475467
-2.0096444E-5
8.6863467E-4
0.0016431282
0.0011855294
-1.0462919E-4
-0.0012785598
3.8735318E-4
4.7370204E-4
-0.0013305296
-0.0010573539
-3.2757796E-4
1.0695566E-4
-0.0012472667
-0.0027623465
-0.0017522281
-0.0018107088
-0.0019379295
-0.0012645015
-0.0019559637
-0.0014082135
-5.588819E-4
-0.0011332966
-9.6367E-4
-5.2394706E-4
-1.508497E-4
6.2404113E-4
5.4626685E-4
-6.32386E-4
-5.1799533E-4
0.002500243
0.0050645727
0.0042127026
0.002579816
0.0011907273
-0.0014788553
-0.0023349377
-4.979906E-4
8.792863E-4
0.0025534465
0.002672585
4.7389365E-4
1.7857325E-4
-4.89659E-4
-0.0013397327
3.258466E-4
2.81543E-4
-7.0671993E-4
5.0214265E-5
4.39368E-4
-7.80207E-4
-0.0016817036
6.315321E-4
0.0025885324
0.0021788878
7.4415286E-5
-0.004591623
-0.0027722623
0.0032984493
7.297545E-4
-0.002650125
-0.0015026111
-7.9439895E-4
0.001262033
0.0024411262
0.0010713378
-4.1441742E-4
-0.0012706218
-7.875044E-4
-0.0011447838
-0.0014810909
4.7517972E-4
0.0014669505
5.231672E-4
3.0103166E-4
0.0017623435
0.0015521543
-0.0011268336
-0.0012122692
6.58129E-4
0.0015692608
0.0018807467
4.8302964E-4
-0.0011188776
-0.0014427026
-0.0018640644
-0.0017313862
-0.0012312896
-6.280707E-4
3.301502E-4
5.3632925E-6
-4.076577E-5
0.0014683919
0.0014370187
-2.9820227E-5
-5.4715504E-4
6.493782E-5
0.0017539839
0.0037371812
0.0032786063
-2.238637E-4
-0.0014608004
6.526328E-4
9.943475E-4
0.0016794379
0.002600842
-5.301263E-4
-0.0022144855
-9.0993405E-4
-3.0879164E-4
-1.7835155E-4
-0.0025826544
-0.004188671
-0.0019262043
-7.401329E-4
-3.474239E-4
-2.8768665E-4
-0.0015228958
-8.5906417E-4
1.3865707E-5
-7.8028446E-4
-1.8181008E-5
0.0011300873
-3.1084823E-5
-6.643567E-4
2.2407503E-4
5.369265E-4
6.3352444E-4
5.085809E-4
0.0012222148
0.0021784632
9.937899E-4
0.0012353576
0.0015709391
-1.280036E-4
6.609914E-4
3.6021636E-4
-0.0012906234
-1.5191632E-4
2.4277123E-4
0.001336995
0.00269102
0.0013804422
8.874617E-4
-1.2771446E-5
-0.0011869897
-6.351898E-4
-6.255794E-4
-7.714957E-5
2.7333821E-5
-0.0017105682
-0.0024714107
-0.0023348504
-0.0012572918
2.7793704E-4
9.398392E-5
1.4763953E-4
3.6384544E-4
-0.0017662256
-0.0026102634
-9.541293E-4
-9.2970923E-4
-8.1723183E-4
7.887657E-5
-6.72324E-4
-1.2703112E-4
0.001087547
7.1334484E-4
0.0014770502
0.0027925926
0.00287216
0.0019881472
0.001954957
0.0033573245
0.0021124915
-2.805485E-4
7.382374E-5
6.950218E-4
7.210709E-4
6.1370153E-4
9.587949E-5
-0.001036424
-0.0021793724
-0.0011054523
-8.743309E-4
-0.002415554
-0.0012403788
9.6540534E-5
-6.3526473E-4
-7.3890423E-4
-1.14968854E-4
-2.3409484E-4
-8.8946114E-4
1.7054779E-4
4.7184867E-4
-0.0021028842
-0.002316547
-5.1780936E-4
-2.3889157E-4
-4.0411044E-4
-9.3876204E-4
-0.0010635328
-4.3101047E-4
1.6723137E-4
0.00164846
0.002916619
0.0024075953
8.6390716E-4
-9.0182024E-5
7.1111874E-4
0.0018717278
8.695715E-4
-8.730426E-4
2.110006E-4
0.0015333128
4.3770662E-4
2.5479586E-4
6.8662554E-4
6.9320574E-4
0.0014690818
0.0019930438
0.0023495406
0.0012049321
-4.847881E-4
4.8841024E-4
6.212094E-4
-7.5090997E-4
-0.001802109
-0.0024327387
-5.372336E-5
2.2941967E-4
-0.003988237
-0.0033083046
0.0011805072
0.0010105914
-0.0015657629
-7.941979E-4
8.933315E-4
-2.9329784E-4
-7.122933E-4
3.4033912E-4
-3.650446E-4
-8.5364305E-4
-6.9000444E-4
-0.0010699044
-1.757711E-4
0.0010760855
3.9792998E-4
-0.0011566698
-0.0016342168
-2.2732983E-4
0.0020710612
0.0033584442
0.003460962
0.0018429325
-6.1517843E-4
3.829668E-4
0.0026896042
0.002000143
5.471143E-4
-0.0010250797
-0.0013072673
7.3235226E-4
2.0873266E-4
-0.0017114863
-0.0014597793
-0.0013257395
-0.0012245508
-2.3483472E-4
2.6554268E-4
2.65239E-4
5.645142E-4
4.7421336E-4
-5.5790483E-4
-8.337112E-4
-3.2581048E-4
-9.0966583E-4
-0.0021467337
-0.0017567372
-6.185497E-6
1.2643768E-4
3.845522E-4
0.0021711204
0.0025501037
0.003003816
0.0028064218
3.8280454E-4
-5.23043E-4
-0.0010237275
-0.0015901948
-6.286651E-4
-2.8293376E-4
-9.188681E-5
-6.5616606E-4
-0.0012181926
-1.22768E-4
-9.0708194E-4
-0.0011593957
3.0156138E-4
-3.947801E-4
3.874233E-5
8.2993513E-4
-6.636509E-4
-6.602719E-4
-3.6667792E-5
2.4281403E-4
8.3388353E-4
-5.8685726E-4
-0.0017021059
-2.466035E-4
0.0010159526
0.0015415456
0.0016461723
0.001003426
0.0011572383
0.0012944118
4.88204E-5
-3.3074323E-4
5.9087888E-5
-3.640066E-5
6.8133936E-4
0.0010711802
-5.6872267E-4
-0.0021200164
-0.0013751285
-2.8583893E-4
-3.6304237E-4
5.947377E-4
6.012528E-4
-0.0017120858
-0.0013833317
7.823227E-5
-9.043854E-4
-0.0012761342
-0.001091134
-6.81989E-4
0.0012040997
0.0011052885
6.43424E-4
0.0025542409
0.0014982676
-0.0010246872
-7.8482035E-4
-4.199935E-5
0.0015617879
0.0016158667
1.3207595E-4
0.0013065111
1.0229603E-4
-0.0017012025
4.6972072E-4
8.312308E-4
2.3730812E-4
-8.008495E-4
-0.0028873698
-0.001557617
4.2353506E-4
0.0014947609
7.94117E-4
-0.0021261175
-0.002141345
-0.0017356032
-7.060029E-4
0.0019082584
4.461541E-4
-9.985279E-5
0.0013553603
6.139041E-4
6.806127E-4
8.29298E-5
-1.14904775E-4
1.9339511E-4
-0.0015052478
1.2661246E-4
0.0023837418
0.0017823281
0.0026221501
0.0026627195
8.0560223E-4
-9.5592235E-4
-0.00201808
-0.0021792222
-0.0026448488
-0.0014966868
2.9477873E-4
2.1731535E-4
-1.2171197E-4
-0.0016412308
-0.0024513858
-8.540562E-4
2.0775323E-4
0.0016504918
0.0013402869
-0.002100271
-0.0016625328
0.0015850303
0.0014474915
9.1507763E-4
0.0015720994
0.0010538636
0.001528836
0.0020219032
2.603249E-4
-1.8992912E-4
3.232924E-4
5.813365E-4
0.001311721
-2.1322256E-4
-9.870759E-4
0.0016890349
0.0030710418
0.0018027374
-0.0016092587
-0.004756632
-0.0040518087
-0.0017567443
-7.4708764E-4
-0.00176545
-0.001791427
0.0017355466
0.0030915579
7.3357986E-4
-0.00118909
-0.0019828044
-0.0010356815
3.4124656E-5
5.7886995E-5
2.4581133E-4
-7.5233396E-4
-9.3484216E-4
0.0013401902
0.0022741046
0.0011299171
4.906929E-5
-2.1129708E-4
-4.0964255E-4
-2.2582525E-4
8.1258157E-4
-3.4880667E-4
-0.0019240577
2.0617666E-4
0.0020351338
0.0010178264
1.9588911E-4
9.835351E-4
9.212005E-4
-3.574906E-4
0.0015780313
0.0027096046
-9.327224E-4
-0.00115226
0.0013282972
4.33226E-4
-7.364205E-4
-8.396215E-4
-8.64529E-4
-0.0018537509
-0.0021152494
0.0012281957
0.0015932751
-0.0013852621
-3.4534904E-5
0.0011263106
-0.0010852414
-0.0022934019
-0.0033592714
-0.003122633
-1.13665854E-4
9.3354454E-4
0.0014013076
0.0033160895
0.0011314513
-0.0017644608
4.7965007E-4
0.0022443107
9.6446334E-4
-3.888424E-4
-8.777316E-5
0.0016287878
0.001102723
-9.656698E-4
-0.0012498957
-8.184666E-4
2.3279554E-6
0.0015398754
0.0020544934
-1.1575506E-4
-0.0022864903
-0.0010268588
2.5946856E-4
-4.956964E-4
-0.001121772
-0.0017411936
-0.0020024437
-0.0011802865
-8.344036E-6
8.9895783E-4
0.0014906243
0.0014199631
2.858469E-4
1.3762433E-4
7.868442E-4
1.25186E-4
-1.2127932E-4
4.2625194E-4
3.2990696E-4
-6.597614E-4
-0.0015230253
-5.8281067E-4
5.618536E-4
8.720329E-4
0.0011145304
0.0011474377
0.0011509411
-7.2464684E-4
-0.0027146966
-5.9280597E-4
0.0022314962
0.00274289
0.0021542946
0.0012233226
8.7637705E-4
-8.623601E-4
-0.0041077184
-0.0041693933
-0.0016824191
-7.595781E-4
-6.218781E-4
2.7414746E-4
7.8824733E-4
3.4394843E-4
-6.937399E-5
8.346198E-4
0.0015768803
2.1484746E-4
-6.9001236E-4
-4.6055941E-4
-0.0011785643
-0.0011434207
-5.258328E-5
-2.540168E-4
-2.58326E-4
0.001558461
0.0021064645
5.483291E-4
4.7624425E-4
0.001033368
5.1414553E-4
3.5639547E-4
-6.043293E-4
-4.0858774E-4
0.0019194603
5.3432636E-4
-0.0015918821
4.2363082E-4
9.49788E-4
-3.6460735E-4
1.5321543E-4
-8.691175E-5
-0.0012076239
-0.0011592014
-8.0756465E-4
-5.855919E-4
-4.8334617E-4
-1.3577209E-4
3.5343698E-4
2.994477E-4
5.7853217E-4
3.0793258E-4
-0.0011523634
-0.0011808833
1.8627755E-4
7.919111E-4
6.009199E-4
8.945391E-4
0.001525399
0.0014194857
0.001357221
5.669168E-4
-7.37027E-4
-5.7430955E-4
-0.0017288399
-0.0023613307
1.7416239E-4
-9.088093E-5
-0.0020006543
-0.0017477489
-0.0017075564
-5.166734E-4
9.442281E-4
2.5168321E-5
-4.538285E-6
0.0013278454
0.0011628605
8.674508E-4
0.001479362
-5.4075736E-5
-0.0021162299
-0.0016704026
-0.0013972302
1.01297024E-4
0.0031064018
0.0031576236
0.0032027012
0.00429113
0.0035924015
0.0029086226
0.0010083687
-0.0014294806
-5.6906533E-4
-0.0010939563
-0.004907071
-0.0047937976
-0.0015277796
-0.0015655513
-0.002958782
-0.0024179954
-7.0276856E-4
6.9933303E-4
-1.5554205E-4
-8.7583496E-4
4.0265487E-4
6.6209375E-4
1.4238574E-5
-1.9420452E-4
2.9908886E-4
2.644611E-4
-6.849089E-4
5.070272E-4
7.6621206E-4
-3.0453416E-4
0.002156011
0.0032662728