5.7074224E-4
3.086216E-4
8.140135E-4
-9.972016E-5
-4.1308784E-4
5.486229E-5
-9.901263E-5
0.002224825
0.0027588885
0.0024134857
0.0036453288
-1.8805877E-4
-0.0025161495
3.345697E-4
0.0013976151
0.0021106275
0.0024775544
0.0020746873
-1.626305E-4
-0.002024427
0.0013256279
-9.2177966E-4
-0.0067278934
-0.003875545
-0.00132469
-0.0017517714
-0.0011256628
-0.0015259675
-0.0011917286
-0.0013258357
-7.894966E-4
0.0021563743
0.003909571
0.0049067107
0.0065650083
0.006474458
0.0012079756
-0.003285182
-0.0022269567
-0.0038128793
-0.0057171686
-0.0033984198
-0.0019833543
-9.25832E-5
0.0015999055
0.0014850957
5.352907E-4
-0.0014522123
6.1289204E-4
0.0036550749
0.0010119532
-0.0023346462
-0.0027374835
-0.0012284467
-1.9173523E-4
-7.061664E-4
-7.832817E-5
0.0011066223
0.001040689
3.5640376E-4
-1.503379E-4
5.0173234E-4
0.0012416124
0.0011583549
0.0022403554
0.003127065
0.001268389
4.184027E-4
0.0016233629
0.0014074564
1.8204308E-4
-0.0028185637
-0.0058925273
-0.0052674715
-0.0039438084
-0.0017634255
0.0011755411
0.0011523542
0.0011249668
0.0021587051
0.0024622765
0.0021308062
0.0011006393
0.0016695856
0.0015104874
-8.7918603E-4
-6.4426847E-4
-1.3494257E-4
-0.002256619
-0.003002472
-0.0016353067
-0.0013052016
-0.0023225732
-8.476812E-4
0.002856686
0.003753592
0.002719934
0.0031076418
0.0030052857
6.6261576E-4
-0.0016548521
-0.0023519227
-0.0018416637
-5.991731E-4
-6.4588216E-4
-0.0016279895
-1.4269903E-4
9.2469185E-4
-9.201195E-4
-9.297245E-4
3.147306E-5
-3.4220974E-4
0.0020811511
0.0048603225
0.002466276
-0.0016111154
-0.0025902435
-0.0019825809
-0.0023493217
-0.0013603247
8.4987935E-4
-6.0866764E-6
-0.001393459
-0.0011130281
-0.0013689906
-9.7116304E-4
-4.4883174E-4
-2.5656936E-4
5.9842505E-4
0.0011496277
0.0025528353
0.0025202024
-8.454825E-5
-1.13799026E-4
4.65025E-4
-3.132029E-4
4.3593993E-4
0.0011758558
0.0018454532
0.0020948264
1.3829797E-5
-0.0012647128
-6.13251E-4
-2.4508953E-4
7.193415E-5
0.0014144983
0.0031141888
0.0035791683
0.0036637296
0.0028869284
-0.001180753
-0.004958845
-0.0051877843
-0.005189602
-0.005395715
-0.0036025583
-0.0014335525
-6.6764443E-4
-0.0016653766
-0.0021437127
6.549348E-4
0.0021451677
0.0011086451
0.0028187074
0.003134083
6.8593386E-4
0.0021889936
0.0029201142
-3.2654128E-4
-0.001005393
-5.348729E-4
-2.599053E-4
0.002359998
0.0031816966
0.0017179574
0.0011310569
5.1918114E-4
1.09609326E-4
-0.0012596024
-0.0024905892
-7.5456896E-4
-1.4271992E-4
-4.014495E-4
1.6517493E-4
-9.617189E-4
-3.629587E-4
5.197106E-4
-0.0012129295
-0.0013812603
-0.0020036206
-0.0018297249
0.0015335114
0.0014325412
-1.5542486E-4
0.0012481161
0.002097043
5.0269096E-4
-0.0018392542
-0.0016216489
-0.0011363259
-0.0026866612
-0.0013709251
9.1731927E-4
2.2054107E-4
-0.001253205
-0.0023668648
-0.0013450171
8.3476526E-4
0.0011171491
0.0013017723
0.0013392435
6.129452E-4
0.0014623634
0.0030317067
0.003914916
0.00287762
-2.5169324E-4
-0.0011611044
-1.6748135E-4
9.5910236E-4
0.0045995726
0.007499232
0.004963335
-0.0020349456
-0.0061628316
-0.0025347408
-9.1522944E-4
-0.004588541
-0.005080086
-0.0029936174
-5.6067994E-4
1.0767734E-5
-0.002756732
-0.0030529175
-0.0012632969
-1.0731412E-4
8.428897E-5
-0.0012780349
1.7433404E-5
9.363872E-4
-0.0010652707
7.648893E-4
0.0023072793
-1.6148703E-4
-2.3936837E-4
6.436748E-4
9.649319E-5
2.1575707E-4
-5.4124615E-4
-4.3306497E-4
0.0015744135
0.0011442291
0.0018400409
0.0051722657
0.003811277
-1.1524558E-5
-0.001386648
-6.80462E-4
0.0010315772
-7.033015E-4
-0.002923324
-6.89441E-4
0.0019531543
0.0043041795
0.004615642
0.0022787603
0.003943624
0.0049808584
-5.467781E-4
-0.005296233
-0.0063298913
-0.004703933
-8.599559E-4
-0.0012742162
-0.0038390935
-0.0015629606
-2.3100826E-4
-0.0011289715
-0.0017512199
-0.004689701
-0.004043165
-7.6834793E-4
-0.0014374427
-0.00151996
-0.0012838868
3.2994073E-4
0.0050711557
0.004547166
9.3141594E-4
5.005149E-4
0.0020537118
0.003730312
0.0017372017
1.1725587E-4
0.0028105262
0.003919475
0.003199991
0.0035180268
0.0032105169
-5.3710036E-4
-0.005358502
-0.0052963444
-0.0027509115
-2.3177145E-4
0.0023605567
0.0013506487
-9.968366E-4
-0.0019311274
-0.0025424089
-0.0031610955
-0.0037995065
-0.0017413496
1.4144147E-4
1.7139227E-4
0.0033210495
0.0049141035
0.0023802463
5.139788E-4
-0.0011840481
-0.0022928705
-0.0026421777
-0.0028298628
-8.3182193E-4
0.0018548202
0.0017882787
-1.09554916E-4
1.6299041E-4
0.0012901011
0.0014229615
8.3399256E-4
-0.0035137387
-0.00508047
-2.6744243E-4
0.0011805482
0.0015625803
0.0036730561
0.0026346208
0.0013980098
7.713899E-4
4.9738144E-4
0.0011832139
8.5414795E-4
0.0016588473
0.0023349926
1.11759866E-4
-0.001276991
-3.037731E-4
-9.994721E-4
-0.0039219516
-0.0028372705
0.0011332997
0.0010294082
-5.837465E-4
-2.9552804E-4
-4.1828395E-4
-0.0017824591
-0.003117355
-0.0030222726
-0.0020313722
-0.001387412
8.14074E-4
0.004067442
0.0035048048
0.0015941123
0.001378002
-7.831552E-4
-0.0013395856
5.9122196E-4
5.911986E-4
0.0014873237
0.0014203486
7.164094E-4
0.0017524705
-0.0010080199
-0.0025374559
-7.684728E-4
-0.0020239446
-0.0011041566
0.0012448359
4.037466E-4
6.5142004E-4
0.0012728934
-2.8493598E-5
-0.0011296244
-2.815589E-4
9.142206E-4
-2.957489E-5
-3.195104E-4
0.0016806618
0.0029910435
0.001987685
-3.2885573E-4
-0.0017515497
-0.0024538597
-0.0030313965
-0.0026713375
-0.0020887686
-5.4787233E-4
0.0019730502
0.0019538575
1.9293246E-4
4.1571714E-4
0.0013375763
0.001076135
2.5940425E-4
-0.0014401692
-0.0023978085
-6.474799E-4
8.5976144E-4
4.8451772E-4
-2.8311388E-4
-0.0015476225
-0.0017920322
8.119699E-4
0.0035623035
0.0039557065
0.0025899482
0.0013711952
0.0012376226
2.2164488E-4
-0.0018417424
-0.0029622547
-0.0027343666
-8.0004224E-4
2.9619163E-4
-6.2833907E-4
1.6680964E-5
0.0015555846
0.0010974985
-0.0015967321
-0.0019341308
0.001899755
7.583575E-4
-0.0034118474
-0.0014625214
0.0021247796
0.0036993152
0.0018075136
-0.0023682273
-0.0019972955
7.451914E-4
0.0019494494
0.0018836422
7.9934037E-4
-3.7165513E-4
-0.0013005128
5.004923E-4
9.916944E-4
-0.0022126161
-0.0019481607
-0.0013523966
-0.0012736891
8.694383E-4
-8.344805E-4
-0.0014731901
3.9167856E-4
-0.0010945358
-0.0012388517
-0.0014103093
-0.002625635
-5.358694E-4
9.114357E-4
0.001325977
0.0019754944
0.0013893425
0.0021330921
0.0030648154
0.0019208792
-7.077545E-5
-0.0014023103
-2.3604758E-4
0.0012932232
0.0016157954
0.002451538
0.0021702005
0.0014321326
0.0026622957
0.0029309636
1.60173E-4
-0.0028055767
-0.0033438
-0.004307996
-0.0054710996
-0.0013649047
0.00115349
-0.00328944
-0.0032609005
0.0025559152
0.0044086315
0.002584188
9.7364554E-4
-5.297351E-4
-0.0023862065
-0.0033947066
-0.0026414867
-4.90516E-4
0.001437921
0.0013727981
5.285935E-4
-0.0012190741
-0.003078943
-0.0017214669
-5.63721E-4
-2.4068315E-4
0.001988385
0.0022133503
0.0018670165
0.002214339
-6.304627E-5
-9.747851E-4
-9.161189E-4
-0.0019635002
6.3389156E-4
0.002873436
0.0012737582
0.001187164
0.0016301313
0.0015947854
0.002727484
0.0023220787
0.0016224942
0.0014825818
0.0010515761
0.0028689543
0.002044428
-0.0030736786
-0.0050822217
-0.0040296763
-9.753788E-4
0.0013791426
-0.0021447309
-0.0050714547
-0.0035562871
-0.0021326116
-3.550442E-4
0.0017094838
0.001600299
-1.6148471E-4
-0.0016618172
-0.0029746061
-0.0035119234
-1.0144276E-4
0.0033974207
0.0027465238
0.0028459285
0.0034275076
0.0011891109
-4.5806638E-4
6.583727E-5
0.0011954865
0.0013931021
2.0463431E-4
-7.046903E-4
-0.0016566254
-0.0016958175
7.54266E-4
9.917303E-4
-9.214042E-4
-4.2716492E-4
2.4924238E-4
0.001496531
0.0032565305
0.0017645606
4.176814E-7
-9.688836E-4
-0.0011373463
-4.8876376E-5
-0.0018864826
-0.0029828192
-0.0017760472
-0.0020642749
-4.8239654E-4
3.448335E-4
-4.7551718E-4
0.0013334733
0.0021770902
0.0025999458
0.002119584
-0.0015268854
-0.0014751302
0.0015006145
8.752718E-4
-0.0021351762
-0.003995981
-0.0030242973
-1.7827583E-4
0.0022703607
0.002261551
0.0014496475
0.0026612768
0.0033504441
0.0028012376
0.0027358327
0.001774855
-1.2304378E-4
-5.3443515E-4
1.066972E-4
-0.0025550677
-0.0063098026
-0.0065609044
-0.0062440233
-0.0038711461
5.3697324E-4
0.0014435346
0.0019323023
0.0024581365
0.0011069297
0.0018205502
0.0037064783
0.005725421
0.005607865
-0.0010963167
-0.00671436
-0.0046626856
-5.1019096E-4
0.001717049
0.0024095455
0.0030009025
0.002939221
9.805327E-4
-5.7945336E-4
-0.0010777282
5.095529E-4
0.0032517423
0.0012172895
-0.0016779043
-0.002435274
-0.005157508
-0.0035433753
2.638866E-4
-0.00264745
-0.0050759795
-0.0038707494
-0.0030796656
-0.0023451846
-2.547562E-4
0.0048222146
0.006625347
0.004111149
0.005713228
0.006610795
0.0028675958
2.6496442E-4
-0.0014780161
-0.0036958954
-0.0047386796
-0.004642912
-0.0045427335
-0.0016503785
0.0038555667
0.0037068366
8.012431E-5
-0.0012888275
-0.0026649456
-2.9319845E-4
0.0045632673
0.0055775815
0.005373835
0.0031949668
-0.0021136475
-0.0058681886
-0.0058332765
-0.0036527764
-0.0021136068
1.4311081E-4
0.0033174993
0.004283534
0.0043342006
0.0050457343
0.005276143
0.002535524
-0.002718611
-0.0059867776
-0.0059853373
-0.00332469
-0.0013495362
-0.0025607331
-0.003694087
-0.004125106
-0.003007881
-7.515135E-4
-4.6674255E-4
-2.4786097E-4
6.147698E-5
7.2246563E-4
0.0019072983
0.0018219876
0.0024554112
0.001195827
-3.178865E-4
8.1319024E-4
-0.0018384284
-0.003026149
8.3873246E-4
0.0031940318
0.0048604207
0.004752005
0.0030766835
-1.729222E-5
-0.0040485896
-0.0019267855
9.5419E-4
5.9345027E-4
0.0019950278
0.0022095733
0.0013719853
0.0011885584
0.0029158152
0.0060762195
0.0056773913
0.004523095
0.0010281836
-0.004837294
-0.0043557184
-0.003622919
-0.0061322516
-0.0049275737
-0.0023117412
-9.02787E-4
9.395454E-4
0.0033655805
0.003185088
-0.0019018266
-0.008463467
-0.012167871
-0.0106322635
-0.006027166
-0.0015482156
0.0014075695
0.0019295879
0.00450785
0.007660476
0.0045130188
2.2619336E-4
3.497589E-4
0.0017500282
6.630318E-4
-0.003215715
-0.0049809483
-8.9611334E-4
0.0071185417
0.014775469
0.018061576
0.01578622
0.010003389
0.0031671445
-0.0019029558
-0.0021700202
-0.0017140739
-0.0047642947
-0.0078091454
-0.013708669
-0.021171859
-0.01898165
-0.012119517
-0.0068713846
4.5332708E-4
0.0021801686
-0.002175311
-0.0024656106
-4.8400435E-4
0.004725979
0.012114934
0.009384639
0.0013621082
0.0030175138
0.012157932
0.013958607
0.001655173
-0.009942822
-0.00892703
4.1778453E-4
0.016280368
0.027528305
0.022192443
0.014139674
0.012281075
0.0047732973
-0.01264551
-0.029541992
-0.034225244
-0.026747914
-0.015485364
-0.0053699343
8.4016327E-4
0.0046546753
0.0063675535
-0.0012659814
-0.010267185
-0.0076798224
-0.0024792491
9.067669E-4
0.0057626576
0.007537602
0.009312665
0.010539031
0.006146738
0.0015798719
-8.4227853E-4
0.0014773634
0.007328343
0.0059161517
-6.6223607E-4
-0.003283576
8.6097774E-4
0.0025839636
-0.009731824
-0.020832628
-0.017799044
-0.0112402085
-0.003749096
0.00322408
0.004697492
0.004060194
0.005984191
0.012241186
0.012698855
0.003645404
0.0027656567
0.011328579
0.01658444
0.01512997
-0.0010889258
-0.019482873
-0.009166936
0.011565271
0.013319868
0.013715343
0.016403902
0.0078106816
-0.0037942727
-0.015396063
-0.02151525
-0.01724705
-0.014942708
-0.013024024
-0.012125723
-0.018580772
-0.020979468
-0.017384266
-0.010113434
-0.0030686203
-0.0070064804
-0.007912098
0.0038523176
0.013598268
0.01831918
0.021301793
0.021945477
0.018770466
0.008726047
-8.206873E-4
0.001297391
0.008316557
0.00834133
0.010823801
0.018916149
0.014519402
0.0017426554
-0.005846726
-0.012707462
-0.015369965
-0.012635154
-0.012866953
-0.009058769
8.523878E-4
0.0054704905
0.0037303464
-0.00324071
-0.011784753
-0.014572126
-0.014002683
-0.006935312
0.0035348765
0.006438007
0.012891319
0.018973969
0.010573022
0.0036865058
0.0016734266
-0.0015070944
0.0011001165
0.0034103913
-9.896338E-4
-0.010498532
-0.020486727
-0.022335825
-0.018711265
-0.015569914
-0.010238009
-0.0044915993
-0.005231636
-0.0048163882
0.006711371
0.022978468
0.041173507
0.050340723
0.039900642
0.027521908
0.01370773
-0.0070311744
-0.021384036
-0.028837467
-0.021854514
-0.0064135827
-0.0061748167
-0.009356238
-0.008434026
-0.0078083253
-7.578293E-4
0.005934269
0.012798914
0.013228095
-0.011378349
-0.037312876
-0.034632076
-0.01162321
0.009109236
0.01934251
0.034502957
0.0524412
0.04956039
0.03481162
0.022798454
-0.0060365624
-0.038844645
-0.032016248
-0.006864255
0.0047220998
0.01134917
0.001639176
-0.0135192005
-0.020040868
-0.04236729
-0.058768623
-0.05153777
-0.040699176
-0.021012604
-0.0028379946
5.7588535E-4
0.0018158018
0.011495278
0.028575618
0.041777197
0.05795451
0.07147641
0.068439655
0.062075928
0.04899544
0.03579001
0.024658265
-0.0054441844
-0.03272232
-0.045483712
-0.061689463
-0.08185497
-0.085541286
-0.04341208
0.017684348
0.0391005
0.011866866
-0.01949844
-0.025116974
-0.032550335
-0.038656075
-0.03258642
-0.02587295
0.009326068
0.04526499
0.044853315
0.04778435
0.0565364
0.038670003
-0.0025142182
-0.0069732037
0.030828845
0.036147363
0.024308711
0.0041028885
-0.042076472
-0.050065015
-0.033113673
-0.045214638
-0.05691227
-0.0376005
-0.008854492
-0.001957779
0.003885585
0.010614937
0.021080358
0.061013818
0.06576772
0.032426804
0.020089375
-0.007439625
-0.040560417
-0.043554917
-0.018470166
0.041214332
0.07268016
0.043288276
0.035331506
0.05987711
0.02916387
-0.039891645
-0.04988983
-0.030608656
-0.06598553
-0.12626733
-0.117029615
-0.034815915
0.014618649
0.0102259535
0.012420112
0.016975552
0.008284677
0.00655038
0.029842941
0.035219707
-0.0032196825
-0.009961396
0.023475323
0.049939204
0.05017925
-1.9261276E-4
-0.026034623
-0.006823442
-0.03499584
-0.036039926
0.032043643
0.04140034
0.010782651
0.01981668
0.024225537
0.011866064
9.63401E-5
-0.0221413
-0.01372016
0.029187512
0.046758305
0.03516512
-0.002611048
-0.04662904
-0.053453773
-0.054421123
-0.054970574
-0.021635273
0.023514748
0.057474967
0.049466677
0.008476499
0.008477023
0.030116364
0.01174342
-0.025982454
-0.055888887
-0.068954274
-0.051116373
-0.019819243
-0.002208804
0.008004849
0.014628803
0.01310791
0.022110552
0.034252033
0.018291714
-0.009208482
-0.02053007
-0.012916451
0.00496128
9.1244036E-4
-0.014606868
0.014257549
0.05698494
0.04877863
0.011695521
-0.0035025198
0.013304697
0.020752031
-0.005724934
-0.024674797
-0.02525872
-0.022558613
-0.0024456137
0.023697756
0.025506431
-0.005623014
-0.030417264
-0.00726008
0.025369778
0.018751515
-0.022012051
-0.0435851
-0.01752872
-0.013057432
-0.0352571
-0.016361153
0.009869162
0.0070756995
0.0075328317
0.019051928
0.020459365
0.013424109
0.016255964
0.016346078
0.025012814
0.055814885
0.055628974
0.020238915
-0.024384879
-0.06431382
-0.049969174
-0.009895372
-2.9246995E-4
-0.0045531243
-0.014381935
-0.012799361
0.0035829803
0.003485604
-0.0081760585
-0.017044645
-0.011139052
0.0040507857
-0.001684748
-0.013681331
-0.012199843
-0.010214839
-0.005105379
0.0047999453
0.008740071
0.005427564
9.073138E-4
0.004350968
0.01332604
0.012748097
0.003549678
-0.0037166951
-0.0033536116
0.010048475
0.019861372
0.015318679
0.016647559
0.020860322
0.016748339
0.0070518465
-0.010142595
-0.023735035
-0.028131261
-0.019655138
0.0024947468
0.012159114
0.014758814
0.028825637
0.032430384
0.01164418
-0.016903361
-0.026799973
-0.023035059
-0.028865721
-0.034110438
-0.029863669
-0.019918548
-0.00922694
-0.0069745947
-0.0042814068
-9.490332E-4
-0.0024797253
0.0011392303
0.005820448
0.006787354
0.0061467104
0.004851726
0.008413266
0.01618913
0.022939296
0.020491853
0.014039063
0.015835397
0.016988873
0.012528868
0.0038781175
-0.003616944
-7.9442776E-4
-0.001971074
-0.0074398885
-0.0011230388
0.0062285587
0.002928463
-0.009622763
-0.019086061
-0.012559661
-0.0025207852
-0.0036121386
-0.0075816624
-0.0060815555
-0.008218781
-0.012714179
-0.008833155
-0.004786351
6.2213716E-4
0.01036499
0.0096210055
0.0053989785
0.005617419
0.0022107742
0.0013139253
0.0028254346
-6.8218587E-4
-0.0035953573
-0.0034873616
-0.0036989253
-0.0037164444
-0.0021514778
-4.0163162E-5
2.6464602E-4
-4.8940064E-4
5.2538357E-4
0.0023841006
0.0029629802
0.0023916033
1.9254914E-4
-4.8687853E-4
0.002806883
0.0042112824
0.0029409258
0.0035531512
0.004651226
0.004485224
0.0030881758
4.693604E-4
-1.2754118E-4
0.0029762941
0.0051638214
0.0045932904
0.0034652248
-5.6689366E-4
-0.0067248093
-0.0083003305
-0.0056626126
-0.0049040313
-0.0055494783
-0.0034960744
-0.001617631
-0.0021110435
-0.002271407
-0.003221059
-0.0043056193
-0.0011643914
0.0050084223
0.0065256446
0.0033994198
0.0031814834
-8.202553E-4
-0.009507127
-0.008718306
-9.573298E-4
0.0070848186
0.01103645
0.0051372587
-0.0015874644
-0.003103358
-0.0015408295
2.861079E-4
-0.0018689681
-0.0027053358
-9.492863E-4
-0.0013060535
-0.00238174
-0.0040400308
-0.006055806
-0.006312104
-0.0011915435
0.0054458505
0.004804645
0.0016823875
5.563113E-4
9.69414E-4
0.0036579638
0.005511871
0.007009738
0.0074778367
0.0061780047
0.0039640623
-7.108808E-5
-4.7980724E-5
0.0026778283
0.003296049
0.0010968809
-0.007850475
-0.012073756
-0.006247978
-0.002915407
-0.0013114576
-0.0015116107
-0.0052369647
-0.006414716
-0.00577585
-0.0037305478
-0.0012778187
-5.7044066E-4
7.1186066E-4
8.8807713E-4
-2.4246877E-4
6.0777795E-5
5.9774896E-4
8.7040913E-4
0.002146217
0.0035583759
0.0036324316
0.0040160343
0.0038022331
0.0010166061
5.086261E-4
0.0023107852
0.0014595427
0.0010972496
0.0025407842
0.0017181766
6.832902E-4
7.632488E-4
-2.928802E-4
1.2592155E-4
0.0011867819
1.3001783E-4
7.7353895E-4
0.0012787394
-0.002962815
-0.006924665
-0.005687862
-0.0018597113
-4.60588E-5
-0.0013244833
-0.003247373
-0.00301281
-0.0019059656
-0.0033638403
-0.00404097
-0.0018502148
-7.715055E-4
-5.946758E-4
-0.0017334792
-0.0032107122
-7.211167E-4
0.0014473093
0.0014649602
0.0038426295
0.0048006647
0.002633721
0.0035356858
0.005698543
0.0048913374
0.004265223
0.003866097
0.0032303096
0.003697148
0.0022938412
6.707879E-4
-5.6949485E-4
-0.004395669
-0.005972486
-0.0054408577
-0.0060765524
-0.0050116894
-0.0029943367
-2.4266845E-4
0.0014673931
-4.948346E-4
-0.001444903
-0.0012190088
-7.0813904E-4
7.5291784E-4
-5.476402E-4
-0.0011552111
9.759829E-4
8.387466E-4
-6.916011E-4
-0.0014000204
1.01580044E-4
0.0029386375
0.0023140481
-1.3626857E-5
4.8452563E-4
0.0019254287
7.6024426E-4
-0.0018152372
-0.0012755161
0.0023663326
0.0036497167
3.7146374E-4
-0.0018397633
3.5326675E-4
0.0011206104
-0.0010163223
-0.0012013598
1.5293396E-4
0.0010726573
0.0022418238
0.003206321
0.0023122102
2.7140175E-4
-3.389304E-4
9.1872644E-5
4.8330394E-4
3.6115645E-4
-0.001020778
-0.0015270085
-0.0016620142
-0.0029746115
-0.0015970202
8.871072E-4
2.7761023E-4
-0.0011875569
-0.0028892127
-0.0034881341
-0.0010926033
6.090498E-4
3.4813167E-4
-3.462405E-4
-3.7055684E-4
0.0012878894
0.0017794892
-2.1461927E-4
-0.0016386249
-0.0012074099
-0.0010151735
-0.0023000147
-0.0025969092
-0.0017325123
-4.445194E-4
0.0018163688
0.0017178523
-2.0724331E-4
-9.247256E-4
-0.0015698869
-0.0010402076
4.30298E-4
0.0016461434
0.0028378367
0.0022523405
0.0018771541
0.0031024094
0.0039630835
0.0047352826
0.0044721276
0.0036626842
0.004615065
0.0062487763
0.0061115487
0.0033217578
6.984239E-4
-4.8839338E-5
-7.424962E-4
-0.0021587487
-0.0045199636
-0.0072434703
-0.008023708
-0.0043065776
-6.8610144E-4
-0.0044355965
-0.008426606
-0.0066062505
-0.0047021345
-0.0027053494
-2.4240608E-4
5.5930903E-4
6.4120686E-4
-0.0015671771
-0.004547469
-0.005241891
-0.004341945
-0.0017978278
0.0011670002
0.0035801455
0.005516168
0.007167239
0.008425883
0.006386505
0.0037957437
0.0043841405
0.0036498758
0.001123695
-1.1560667E-5
3.8272628E-4
0.0015300446
0.0011577712
2.297719E-5
4.976365E-4
0.002238713
0.0030689524
0.0018567955
0.0025796485
0.002723118
-0.001678902
-0.0017952163
0.0013879733
-7.859146E-5
-0.0020751993
-0.0035821064
-0.0048899013
-0.004075087
-0.0038786894
-0.003829589
-0.0029950747
-0.0015478743
-0.0010428713
-0.0039625997
-0.004027945
-4.889164E-4
-5.834159E-4
-0.0015150671
-9.892364E-4
-0.0022550914
-0.0034806884
-0.0021254634
-5.4142554E-4
-4.9124024E-4
-2.3304867E-5
0.001537285
0.0038961973
0.0049887276
0.0031081506
0.0028370693
0.0030392515
1.2678523E-4
-3.5534022E-4
0.0017520784
0.0024426784
0.0031098207
0.0035863644
0.0021401145
-1.7747863E-5
-7.273163E-5
3.8646784E-4
-6.1679975E-4
-2.343534E-4
5.192103E-4
6.88581E-4
0.002539584
0.0028129306
4.3322617E-4
2.0084798E-4
0.0012459371
-7.177005E-4
-0.0035033277
-0.0042049037
-0.0043358165
-0.003698823
-0.0020529563
-0.0011593183
-0.0021392226
-0.003513062
-0.0016535381
3.737958E-4
-9.3543594E-4
-6.245596E-4
0.0018553194
0.0016043342
-9.04758E-4
-8.4289676E-4
7.3350896E-4
-5.000443E-4
-6.5319106E-4
9.5586583E-4
0.0011704249
0.0023911393
0.0021224613
3.9812518E-4
0.0021537833
0.0038689275
0.002154339
-1.6419053E-4
1.4142349E-4
8.9437596E-4
4.147666E-5
0.0011001781
0.001078782
-0.0015215619
-8.001474E-4
3.5586642E-4
-0.0013967083
-0.0021874667
-6.346087E-4
0.0017741078
0.0032385753
0.0030979868
0.0018322257
-7.6659146E-4
-0.0036114757
-0.0029473484
-3.2623622E-4
-7.7453395E-4
-6.191277E-4
0.0010664053
-3.7617827E-4
-0.0018791842
-0.0019102969
-0.0018595454
-7.7835436E-4
2.2192765E-4
6.998761E-4
0.0010628863
0.0021796736
0.0020936218
-2.6601326E-4
3.057502E-7
9.116362E-5
-0.0018701742
-4.353412E-4
0.0018938328
0.0033464748
0.0037516616
0.0011628317
-3.0192366E-4
6.4261956E-4
0.0011594765
3.4261006E-4
-0.0011095481
-0.0018989866
-0.002105833
-0.0013339103
-3.919434E-4
4.9013623E-5
-4.9779477E-4
-0.0022556253
-8.4984227E-4
0.0012467845
-1.9825039E-4
-7.1682205E-4
-4.296255E-4
-2.1440227E-4
2.0238502E-4
-8.021016E-4
-1.3504586E-4
7.268366E-4
-3.9413685E-4
-5.9216625E-5
4.8242652E-4
4.4807917E-4
0.0012410412
0.001251093
7.985971E-4
0.0021047394
0.0034265101
0.0013693066
-0.0010276155
7.861345E-6
0.002150396
0.0029880623
0.0013512783
-0.0011414274
-0.0014646417
-0.0011468622
-0.001154861
-6.62337E-4
-2.1748012E-4
4.0885512E-4
7.6268666E-4
4.4830676E-4
8.74956E-4
3.2595993E-4
-0.0031558503
-0.0041535012
-0.0011459683
-0.0012758368
-0.002977672
-9.940054E-4
4.2549986E-4
-4.886635E-4
-1.5766968E-4
6.9635845E-4
9.890129E-6
-2.6709411E-5
0.0013135187
1.4549428E-4
-0.0020475853
-0.0014645881
-5.9203384E-4
4.8936166E-5
3.2811868E-4
-0.0010738125
-1.0926428E-5
0.0023087927
0.00144889
5.8558385E-4
-2.3147147E-4
-0.0013805514
5.172673E-4
0.0021531014
0.0018729988
0.001925822
0.0010192323
4.8486135E-4
0.0011129127
0.0013021745
0.0011397735
4.01422E-4
8.048963E-4
0.0015298475
7.125773E-4
8.548907E-4
2.6749595E-4
-0.0012721022
-0.0012083424
-0.0018390667
-0.0017778389
-7.423513E-4
-0.0014034249
-9.141536E-4
1.1483651E-4
-6.3445873E-4
-8.66668E-4
-9.754269E-4
-0.0021959739
-0.002186253
-0.0012493462
-0.0021323333
-0.0018284225
0.0013099655
0.0022660985
7.036161E-4
-2.3563692E-4
-3.3223588E-4
-4.3075354E-4
5.6653225E-6
0.0015004376
0.0012259916
2.1590281E-4
7.3566835E-4
8.800662E-4
0.0017465693
0.0013928214
-4.2071103E-4
6.862034E-4
0.0010805741
3.274282E-4
6.845863E-4
9.0519164E-4
0.0027113268
0.0028484766
0.0016654935
0.0023148898
-1.6521156E-4
-0.0017766365
6.3568796E-4
-4.0962157E-4
-0.0025357523
-0.0012320256
-7.577143E-4
-0.0018736759
-1.783843E-4
0.0018534822
-9.719322E-4
-0.0031269065
-0.0015876854
-9.0386654E-4
-8.024794E-5
2.5586857E-4
-0.0012086
-0.0017526291
-0.002407178
-0.002089622
1.5155633E-4
4.252124E-4
2.3627098E-4
0.0011438142
0.0012143177
0.0015952201
9.906695E-4
-5.6916295E-4
9.331844E-4
0.0022565154
0.0012348362
0.0019590417
0.0019177168
-2.9362107E-4
-5.8529415E-4
-4.2695948E-4
-7.2788E-4
-1.09212204E-4
-6.8047586E-5
7.046424E-4
0.0024975964
0.0014046803
-0.0013668629
-0.0010246695
5.2854477E-4
-7.320048E-4
-0.0010882076
3.8529834E-4
-8.726741E-4
-6.856508E-4
0.0020360644
9.438732E-4
-6.562905E-4
-4.3674125E-4
-3.55995E-4
0.0014300975
0.0015217692
-2.4549665E-5
3.1431945E-4
-0.0012545687
-0.0025277133
-8.3155156E-4
-2.9839284E-4
-5.545851E-4
-3.624392E-4
0.0012370722
0.0018532105
-0.0018890486
-0.0029261832
-5.613423E-4
-0.0013775476
-0.0021044519
-9.1707724E-4
-3.0796207E-4
-5.119227E-4
-0.0011857778
-3.1035382E-4
7.7563664E-4
-1.8737256E-4
1.2685459E-4
0.0018531168
0.0019937584
0.002978338
0.004505386
0.0023333128
2.644309E-5
1.0881978E-4
7.6851655E-5
0.0015230603
0.0022383856
5.580044E-4
3.498155E-4
-3.1298722E-4
-0.0016928858
-9.3602674E-4
-2.4102521E-5
-5.092561E-4
-0.0019538542
-0.0017571916
-3.9716795E-4
-0.0010652532
-0.0010005609
-1.9001254E-4
-9.6169335E-4
-8.60977E-4
-3.6269272E-4
-4.296458E-4
7.3964143E-4
0.0014599522
1.929812E-4
-7.393681E-5
2.8172726E-4
-0.0013594681
-0.0013451012
4.531863E-4
9.6746784E-4
0.0019522755
0.0011501957
-8.18449E-4
5.434671E-4
0.0015301204
3.753613E-4
-9.026405E-5
1.0182083E-4
-0.0016788477
-0.0042793383
-0.0014559507
0.0014629372
-0.001727561
-0.0024541188
4.619334E-4
0.0020578231
0.0029459044
0.0018731828
7.468234E-5
6.751897E-4
0.0020397822
0.001220703
-7.850177E-4
-4.5691937E-4
0.0012008774
0.001611081
5.604534E-4
-8.1446086E-4
-3.1018213E-4
-1.5319108E-4
-0.0018257458
-0.0014596911
-4.2073653E-4
-4.888921E-4
0.0011291397
0.001074399
-0.0020438188
-0.0029197293
-0.002540323
-0.0017882911
6.626065E-5
3.4191232E-4
6.9011183E-4
3.435272E-4
-5.744131E-4
9.3112764E-4
2.9864634E-5
4.0572726E-5
0.003530384
0.002897005
0.0019532058
0.0017050125
-6.0048193E-4
-3.3640393E-4
6.6553114E-4
4.8652236E-4
-6.435115E-4
-0.0013741638
-1.1016279E-4
1.8682469E-4
0.0017318662
0.0022256253
-3.481986E-4
-8.4443716E-4
-0.0027961575
-0.003382613
-4.1995564E-4
-1.9760961E-4
2.3531787E-4
-1.3544036E-4
-0.0014759685
-6.724623E-4
-3.5451772E-4
6.416576E-4
-1.8322776E-4
-0.001424563
-1.0360424E-4
-0.0014306604
-0.0017087077
-6.2525645E-4
-1.674405E-4
0.0022246386
0.0012925094
-5.6804967E-4
-3.9983008E-4
-0.0011979265
-9.342511E-4
-9.051485E-4
2.068855E-4
0.0023787462
0.002395027
0.0029920766
0.0031783257
0.0030327975
0.0034525492
0.0027325992
0.0017194252
-8.40409E-4
-0.001587362
-8.158264E-5
-0.0011807526
-0.0010767201
-2.702494E-4
-8.204456E-4
-1.9126158E-4
-8.960421E-4
-0.0027433294
-0.0038177841
-0.0030350173
-1.0411356E-4
2.838178E-4
-7.8048406E-4
3.8978297E-4
4.022993E-6
-0.0022802537
-0.0020135122
-0.0010882752
-0.0011571457
0.0010375992
0.0020220475
2.6780932E-4
0.0013349578
0.0017171724
-7.3534E-4
4.343003E-4
0.0030205974
0.0016494513
4.674122E-4
0.0010880126
-0.0013468398
-0.0038436793
-0.0025144985
-5.6367302E-5
0.0017645186
2.8008295E-4
-9.443567E-4
5.917871E-4
-0.0013880109
-0.0010457303
0.002510082
8.5573236E-5
-5.246864E-4
0.0027876715