-1.3212765E-4
5.521619E-4
8.758747E-4
-7.489069E-4
-9.151908E-4
3.188151E-4
3.956386E-4
-3.2414065E-4
-7.9033163E-4
-8.7642744E-5
1.3563297E-4
1.8919207E-4
6.988693E-4
-1.2890695E-4
0.0016874195
0.0037725787
0.0012606208
0.0015407262
0.0027266585
2.4986945E-4
4.6182433E-4
8.400747E-4
-0.0012953618
-0.0027856429
-0.00420303
-0.0029161873
-3.1528686E-4
-0.0013790437
-0.0031111373
-0.0025409134
-3.83586E-4
0.0016558773
0.002882791
0.004135116
0.0042587365
0.0030738104
6.701817E-4
-0.0024172892
-0.0028726137
-0.0019845068
-0.0017355247
-0.0013567226
-0.0025333844
-0.0028915294
-2.03921E-4
9.901949E-4
2.682813E-4
7.14015E-4
0.0019769839
0.0034461233
0.0040575806
0.00248817
0.0015638965
0.0018827454
-0.0015033907
-0.0054598
-0.0037249718
-0.0011072163
-3.6311062E-4
0.0015713254
0.002868599
0.0022230498
0.0012551526
5.9270795E-4
-2.9189716E-4
-0.0016365739
-0.0016773178
-8.997899E-4
-7.059794E-4
-5.017863E-4
-0.0011384852
-0.0013203046
-3.2087666E-4
-8.3587185E-4
-0.0014110008
-8.2553504E-4
-7.508792E-4
-7.070489E-5
0.0019490599
0.00294402
9.6077874E-4
-0.0011789519
-1.0123706E-4
0.0019319947
0.0022888402
8.0582045E-4
-5.4392112E-5
0.0021001578
0.0025540423
-8.424809E-4
-0.0027967193
-0.0021137653
-6.054534E-4
5.2428557E-5
-5.364747E-4
2.821347E-4
0.0010621848
3.648063E-4
8.772181E-4
6.240556E-4
-6.1779656E-4
5.952875E-4
8.2892337E-4
-0.0010673333
-0.0013619924
-6.0594594E-4
2.713075E-4
-7.333239E-5
-0.001161217
-3.150402E-4
-6.2501343E-4
-0.0011378078
8.0651295E-4
7.4807537E-4
4.0824353E-4
9.753406E-4
-8.5488806E-4
-9.63465E-4
5.052134E-4
-3.1150624E-4
-0.0010984559
-0.0018348851
-0.0029643956
-0.0019875383
-4.8721704E-4
-0.0010092483
-1.3077974E-4
0.0025032992
0.0016722302
3.8684972E-4
0.0015880917
0.0012065917
0.001047736
0.0019125789
5.45726E-4
-1.0162475E-4
0.0021007028
0.0028489497
3.426732E-4
-0.0011348162
-3.5568132E-4
5.7237624E-4
0.0016104965
0.0017180813
0.0018469177
0.0024131292
0.0017370537
0.0014722133
-0.0011483011
-0.0049999184
-0.0035333107
-0.0023000452
-0.0035286231
-0.0029485098
-0.0030967582
-0.0027000739
-7.4332394E-4
-4.2770355E-4
-4.7019307E-4
7.573934E-5
3.364429E-4
-2.490238E-4
-0.0010123488
-1.7100967E-4
6.002833E-4
-1.9038607E-4
1.4509263E-5
0.0019097131
0.002227334
0.0011856396
0.0025536034
0.0042697596
0.002683364
3.8243327E-4
-1.8829966E-4
-5.8866374E-4
1.4356687E-4
0.0030744663
0.0031059554
1.8101782E-4
-9.784532E-4
-0.0017849568
-0.0020517502
-0.0015848303
-0.0025894085
-0.0029518707
-0.0022101675
-4.320302E-4
0.0015057428
1.5649597E-4
-0.0012317228
1.11833906E-4
7.6616794E-4
2.6111977E-4
8.43928E-4
0.0014636006
1.0046333E-4
-2.9929238E-4
0.0013637097
0.0018436594
9.305873E-4
-5.3924863E-4
-0.0010937887
-4.8134246E-4
3.1391656E-4
0.0015376356
3.5158498E-4
-0.0020182321
-0.0019376673
-0.0015458664
-0.0017101817
-0.0021599538
-0.0014963342
-2.6351793E-4
-9.000461E-4
-7.203457E-5
6.702229E-4
5.374027E-4
0.0022119929
-3.5825797E-5
-0.0023508512
1.7673367E-4
-7.5027616E-5
-4.5398262E-4
0.0035518967
0.006590916
0.0055726212
0.002359209
7.4595376E-4
3.4290427E-4
-0.0013111988
-0.0030667584
-0.0025735807
-5.408015E-4
-8.118393E-4
-0.0016241216
2.9407276E-4
0.0015504555
-2.646011E-4
-0.0026841657
-0.001988688
-2.942729E-4
-0.0010413886
-0.001124656
-1.1675584E-4
-4.8633144E-4
-0.0021807356
-0.003183427
-0.0017719257
-4.850133E-5
0.0019396422
0.003155176
0.0020374751
0.0034832875
0.004924914
0.0023193292
6.5867393E-4
-9.404981E-4
-0.0043365387
-0.0054247477
-0.0030304757
5.028716E-4
0.0024643233
0.0016774295
-3.09802E-4
7.2268123E-4
0.003677185
0.0022307911
-1.09727E-4
0.00103317
4.4630804E-5
-0.003170652
-0.002971963
-5.2256114E-4
9.423311E-4
9.6189044E-4
-2.8380344E-4
-2.3744786E-5
0.0014786316
7.0861605E-4
6.9601747E-4
0.0011076437
-9.7135454E-4
-0.0015211495
-0.0016911702
-0.0017178826
8.9878344E-4
0.0012651235
-3.6969583E-4
-0.0013283705
-0.0017215323
-0.001130554
-0.0020512561
-0.0014030745
0.0016917078
0.0017855323
0.0010165093
4.9797E-4
-6.795736E-5
5.4869865E-4
-1.6330705E-5
-4.4968518E-4
5.9802198E-5
5.113869E-4
0.0014159373
0.0010391476
4.6799454E-5
-5.117495E-4
4.097257E-4
0.002350862
4.2873566E-4
-0.001391193
3.9998634E-4
1.0406034E-4
-8.472346E-4
2.3604052E-4
0.0010653832
0.0010975733
8.978443E-4
0.0012014338
1.3062806E-4
-0.001589849
-0.0010658947
-0.0021476673
-0.004146507
-0.0020099708
3.914448E-4
-1.5085509E-4
-4.7556803E-4
8.27895E-4
0.0016440982
-1.0878797E-4
-0.0025931452
-0.0031008273
-0.0022849673
-7.173475E-4
0.0014651299
0.0024281978
0.0015055774
0.0012336916
0.002689455
0.002418051
6.4430333E-4
3.7683215E-4
-2.8616466E-4
8.9661725E-4
0.0053908313
0.0051192907
7.672606E-4
-9.4997947E-4
-0.0013494577
-0.0017502966
-0.002153758
-0.0022283134
-0.0022422515
-0.0028304288
-4.6078622E-4
0.002393432
0.0019377286
8.9523784E-4
-0.0026880149
-0.0062559787
-0.003743035
-0.0010416203
-0.002603953
-0.0032288807
-2.6590782E-4
0.0021481956
0.0025707025
0.002156958
-2.4809537E-4
1.6002801E-4
0.0033993456
0.0023632457
0.0010782682
0.0012717498
3.7208872E-4
0.0013686114
0.0017502467
8.109151E-4
9.897111E-4
4.8196243E-4
3.4799363E-4
5.465094E-4
-1.5366885E-4
-1.9215651E-4
9.091073E-5
-2.53473E-4
-0.0010823706
-0.0018486375
-0.0020214815
-0.0013458962
-4.3990795E-4
-5.30619E-4
-4.977236E-4
6.2922656E-4
0.0019152813
0.0010381789
-0.0021838648
-0.0024720111
-5.700806E-4
-7.7498064E-4
-3.796178E-4
2.187215E-4
-5.9924676E-4
-4.841787E-4
-3.167057E-4
-2.5709425E-4
0.0015204664
0.0034296366
0.002710075
-3.8024632E-4
-0.0023836496
-0.0014265508
2.564388E-4
3.079609E-4
-9.099088E-4
-0.0014819416
7.0638844E-4
0.0029401411
8.475525E-4
-5.4256635E-4
9.2546747E-4
7.4757474E-5
-5.112903E-4
1.4205075E-4
8.152388E-5
0.0010336213
5.9935986E-4
-2.5509263E-4
3.770394E-5
-0.0010856423
-3.8251924E-4
8.7127514E-4
-0.0013494045
-0.0021424333
-2.5179615E-4
1.7503528E-4
-3.748803E-4
5.695957E-4
0.001672485
0.001157237
0.0010123935
6.017643E-4
-0.0024047922
-0.0031155476
0.0012479308
0.0026611295
-4.7521843E-4
-7.021105E-4
1.2632676E-4
-6.8975415E-4
-2.6004487E-5
2.04555E-4
-9.876155E-5
8.4515393E-4
8.6331577E-4
2.3235183E-4
-3.9413324E-4
-9.262908E-4
-5.5727316E-4
-6.933218E-4
-0.0014808745
-0.0015199805
-5.231192E-4
2.7456356E-4
-7.4885855E-4
-0.0016433866
-5.728937E-4
6.538243E-4
0.0016531385
0.0024027
0.00227133
0.0030496793
0.003994501
0.0021766617
-7.02807E-4
-0.002195388
-0.0021093832
-6.6812837E-4
-6.984891E-5
-0.0014952318
-0.0027312457
-0.002284867
-7.375394E-4
0.0012633674
0.002825628
0.003045669
0.0024240105
8.494221E-4
-0.0014210327
-0.0024991941
-0.0029001017
-0.0028594572
-0.0016415854
-2.3959391E-4
0.0014747998
0.002312576
0.0017725388
0.0019985521
0.0021499812
0.0018640439
8.918444E-4
-0.0014699382
-0.0026843606
-0.0027588988
-0.0023495846
-0.0013247216
-0.0014312626
-0.0010756972
-5.3549746E-5
-1.5378075E-4
3.0405415E-6
-2.8252109E-5
-2.4933912E-4
3.6147807E-4
0.0018284528
0.0036145216
0.0018444881
-2.9393172E-4
0.0018439946
4.8819868E-4
-0.0020362665
0.0022868463
0.0043387027
0.002001172
0.0014301742
-0.0013097578
-0.0036473556
-0.001838705
-0.0014924794
-0.0013480907
-3.207685E-4
-0.001788746
-0.0021321576
-0.0012663292
-0.0023708632
-0.0019452033
1.4367726E-4
1.9595842E-4
-4.5726064E-4
5.2407174E-4
0.0016623221
0.0011513068
4.4171553E-5
-3.0262288E-4
0.0010880821
0.0034291327
0.003670769
0.002708083
0.002543038
0.0017679094
5.9260026E-4
6.83743E-4
0.0015177272
1.8328665E-4
-0.002679256
-0.0030532377
-0.0026221778
-0.0027830973
-0.0015178077
-5.6057685E-4
-9.817638E-4
-0.0011890426
-2.4034384E-4
-4.189006E-4
-0.002206505
-6.1978074E-4
8.453195E-4
-0.0022895795
-0.0036844823
-0.0023723708
-6.598254E-4
0.0021282826
0.004112534
0.0042079072
0.002506539
0.0012213687
7.1876514E-4
-3.4832902E-4
0.0010828482
0.0026210009
0.0015854873
5.757158E-4
-9.360689E-4
-4.6616222E-4
8.8826695E-4
-0.0011850129
-0.0015078634
7.594417E-4
0.0012441411
0.0011352279
0.0016587112
0.002107398
9.680564E-4
-0.0018009266
-0.0030743156
-9.4616384E-4
4.4636012E-4
-0.0027672225
-0.0046459767
-0.0015411114
8.007833E-4
-5.3427735E-4
-0.002385441
-0.0013954109
2.2763741E-4
8.100166E-4
0.0017574698
9.2792854E-4
-2.5507453E-4
1.0030459E-4
5.0448274E-5
-6.5206696E-5
-0.002112439
-0.0032986645
3.775573E-4
0.0027830477
0.0011081367
-0.002234369
-0.002037274
0.003028867
0.0039211996
0.0020801278
0.0028820601
0.0034952895
0.004115143
0.0022706203
-0.0012014471
-0.0018763513
-0.002181958
-0.0010821361
7.516715E-4
9.8801655E-5
-3.3220797E-4
7.799866E-5
5.9119768E-5
-0.0011304852
-0.0015232408
8.936458E-5
-7.001073E-4
-0.0023313158
-0.0022132224
-0.0024950118
-0.0027290077
-0.00313087
-0.002420948
-6.2367256E-4
9.2837436E-5
0.0016938422
0.0023903332
0.0012827853
5.148565E-4
-8.9095486E-4
-6.62696E-5
0.0021058547
0.0014886853
0.0017202573
0.0033895609
0.0028667545
0.0017128333
0.0014404992
4.286805E-4
5.3290353E-4
0.002406622
0.0023092183
4.4319316E-4
-0.0040420094
-0.0074316505
-0.0037761088
-0.002971409
-0.0049905838
-0.0012493681
8.315285E-4
0.0018509018
0.0035111685
0.001289656
0.0011568926
0.0020990698
0.001117084
5.616153E-4
-0.0013562075
-0.0018706329
-0.0014727885
-0.002011455
4.3375365E-4
0.004199115
0.0069803083
0.0064532114
0.0017577953
-0.0010938895
-0.0020242156
-0.004280872
-0.005088133
-0.0022412397
2.5611065E-4
-8.572955E-4
-7.488762E-4
0.0010253879
-4.6994173E-4
-0.0024252043
-0.0017929417
-1.9065685E-4
2.7382842E-4
-7.816326E-4
-4.2386603E-4
9.0783683E-4
5.553549E-4
-3.648544E-4
-3.7982926E-4
4.0968624E-4
6.9916254E-4
4.0894386E-4
6.65912E-4
6.3978403E-4
8.195604E-4
0.001886445
0.0018702315
9.4247714E-4
6.3057366E-4
0.00109756
0.0020653047
0.0023391058
0.0015110851
2.6094785E-4
-9.086742E-4
-0.0016147662
-0.0020331147
-0.001240115
-9.1300855E-5
-2.7008558E-4
8.398779E-4
0.0012950301
-5.997844E-4
1.0230504E-4
7.4452946E-5
-0.0022599988
-9.497136E-4
-1.2412025E-5
-0.002470248
-0.0033700643
-0.0031782673
-0.0038293926
-0.0028900397
-0.001204714
-0.001481826
7.726381E-5
0.0031881714
0.0027643663
0.0024133613
0.0026550218
8.8584656E-4
0.0016059731
0.003399831
0.0025509652
0.0014590793
4.4694385E-5
-0.0027304369
-0.0038734386
-9.2788844E-4
0.0016739083
7.211337E-5
-0.0020196536
-0.0026493322
-0.0019357341
0.0012298062
0.0043468424
0.0050815386
0.00636449
0.0078036417
0.0037623954
-6.143883E-4
-3.5930684E-4
-0.0036859747
-0.0073758047
-0.0047916723
-0.0031094975
-0.003099317
-0.0015104873
4.1827132E-4
0.001618475
-5.2718545E-4
-0.002521407
-4.680557E-4
5.4808863E-4
-0.0010566508
-0.0026653898
-0.0038890215
-0.0049063624
-0.006855224
-0.0073622987
-0.003488745
8.858324E-4
0.004341603
0.0077235135
0.007986767
0.007064358
0.00771791
0.007938193
0.006648103
0.0041415375
0.0036998766
0.0037734346
-1.20221535E-4
-0.0030042639
-0.003797225
-0.0048852074
-0.0038852743
-0.0030544957
-0.0029295713
-0.0021973408
-0.0020141175
-2.1780121E-4
0.0016764525
-4.866016E-4
-0.0055979523
-0.007702193
-0.0028025124
0.0029981793
0.004311152
0.0036959995
0.004592201
0.0076261954
0.007159209
1.5624682E-5
-0.0074817264
-0.009468236
-0.0074068997
-0.0052711857
-0.0020036665
4.619072E-4
-5.9146987E-4
1.9344487E-4
0.0019145196
0.003728203
0.0071438253
0.0025952156
-0.0075292736
-0.011489099
-0.010201615
-0.0049803467
0.002221838
0.0069105136
0.00795045
0.0068601933
0.007990648
0.0085915765
0.0054504196
0.0032327278
0.003383267
0.005922673
0.0077498364
0.004172781
-0.0023388907
-0.009155932
-0.012696352
-0.009049434
-4.0060477E-4
0.008679787
0.011503789
0.003635319
-0.008903611
-0.01498796
-0.013257604
-0.009220171
-0.003913221
-7.860727E-4
0.0014288204
0.0065150764
0.0056708977
0.0010224682
0.0011490452
0.0015006713
0.0016084067
5.046442E-5
-0.0049000233
-0.0072918665
-0.0066912575
-0.0046874112
-0.004243612
-0.004016216
0.0036877524
0.013473676
0.0171355
0.012852348
0.0050457655
0.0052056825
0.007217561
-0.0020848915
-0.014620517
-0.01606322
-0.0073835263
-0.004007533
-0.0089512
-0.008593282
-7.077491E-4
0.00718273
0.012526896
0.0155645795
0.012685874
0.0038943037
-0.0033790905
-0.009313715
-0.013783166
-0.013422155
-0.010957355
-0.0041195834
0.0013493367
-0.0023508416
-0.0016399465
0.0076345205
0.013614638
0.010578088
-3.112941E-4
-0.0068454053
-0.0031884096
8.6723745E-4
-5.046773E-4
-0.0076827453
-0.0143235335
-0.0118420925
-0.0032863643
0.0050638528
0.010677384
0.014262007
0.018771544
0.02006158
0.0125022605
0.0032834834
-4.0874E-4
-0.0058752866
-0.013188214
-0.009395291
5.18545E-4
8.807901E-4
-0.005493095
-0.010039235
-0.014505549
-0.018401217
-0.015835227
-0.010500809
-0.0072386535
-0.0030596738
-0.002203178
-0.0031893344
0.006414012
0.020594565
0.027607018
0.0308413
0.030910593
0.028148416
0.0281067
0.029682053
0.041735124
0.06177375
0.054359794
0.020982955
-0.0074289273
-0.031050308
-0.048630573
-0.055101864
-0.05546793
-0.048861902
-0.046939407
-0.055180527
-0.058046825
-0.05637889
-0.05291276
-0.033028424
7.7679E-4
0.027091593
0.035271466
0.031783525
0.033821806
0.046634346
0.05886149
0.06620947
0.063579395
0.038946062
-0.007599476
-0.030641388
0.013494803
0.06559691
0.07677502
0.07109149
0.022520488
-0.06851203
-0.14775223
-0.19299828
-0.18671457
-0.1391625
-0.07145025
-0.011489211
0.0065601966
0.018346736
0.029703513
0.020655721
0.043544203
0.1090247
0.1559504
0.13460667
0.07669548
0.04247563
0.024909483
0.033780552
0.0792328
0.12882578
0.15230604
0.13295452
0.11054784
0.05805698
-0.05806796
-0.12910213
-0.16831772
-0.2259338
-0.20668264
-0.1386351
-0.114264496
-0.11162865
-0.10338921
-0.09629232
-0.07900951
-0.039307263
-0.011207371
-2.9534422E-5
-1.3961848E-4
-0.030761516
-0.016259631
0.062916465
0.10805305
0.11968334
0.1225911
0.10435216
0.09048494
0.07869027
0.055602644
0.05419181
0.073755965
0.054188266
0.010240507
0.0022317262
-0.005678168
-0.02406904
-0.012579284
-4.683208E-4
0.0030224076
0.0010671266
-0.019105589
0.002791018
0.03945421
-0.01906895
-0.08567309
-0.06711119
-0.06670859
-0.09522615
-0.06774515
-0.0199862
0.006088774
0.03354126
0.058017153
0.05017792
0.014042491
-0.02603621
-0.054382242
-0.05080382
-0.0402565
-0.04436742
-0.023399275
6.018243E-4
0.0046803383
0.009225259
0.0016727237
0.026800096
0.07236046
0.04888324
0.0112364
-0.0020136738
-0.022356188
-0.0030027842
0.040058028
0.04358868
0.017233944
-0.010198725
-0.015520048
-0.01599758
-0.019914597
0.010064247
0.043142706
0.03680564
0.015056421
-0.004589158
-0.0123866275
-0.010558165
-0.015246639
-0.019612953
-0.016020326
0.0063693044
0.03621181
0.03258594
0.006929165
-0.011248589
-0.019620143
-0.018631482
-0.017108602
-0.010030774
-0.0032879715
-0.013755552
-0.021200722
-0.015395832
6.710412E-4
0.02496473
0.04129243
0.039966714
0.0088293
-0.030834345
-0.04242004
-0.031796563
0.0029997174
0.03108093
0.01074162
-0.014705452
-0.021060117
-0.025693735
-0.019275146
6.1177654E-4
0.018508634
0.015308128
0.0034144202
0.009170295
0.017342752
0.018484782
0.025796324
0.025500923
-1.6639939E-4
-0.019511184
-0.004131938
0.011180187
0.006317316
0.0019513702
0.006550746
0.01314117
0.006820379
4.918296E-4
0.0012671727
-0.017753059
-0.0198387
0.02225198
0.035636466
-0.006794728
-0.04763316
-0.048999295
-0.021801762
0.0018278449
0.0066454136
-0.003153991
-0.01635333
-0.013074723
0.0054676887
0.0065957564
-0.0013604617
0.01963933
0.033206537
0.0103481505
-0.0026351442
-0.007842435
-0.017767988
-0.002011294
0.012887337
-0.0031911144
-0.02188467
-0.021714635
-0.00529317
0.0029021897
-0.006977406
-0.003039006
0.015171079
0.018097823
0.015654422
0.024238877
0.02753795
0.008694155
-0.019792622
-0.026113302
-0.009131151
0.0012179437
0.0010595405
-2.7850404E-4
-0.004375443
-0.004599934
-0.0011183176
1.3861964E-4
0.00459036
0.013083077
0.020262247
0.021358777
0.019492887
0.018268328
0.006278638
-0.013042083
-0.02566096
-0.03963474
-0.050532844
-0.03410717
-0.0018109838
0.010582667
0.010754963
0.02034391
0.018873246
0.0068623587
0.010408016
0.0104884505
-0.0052585714
-0.016378354
-0.02378654
-0.027270628
-0.01541629
9.3872246E-4
0.006551125
0.003945612
0.0016630386
0.0052905898
0.018179104
0.029359259
0.020812223
0.0026645092
-0.0035404544
-0.0011818364
-0.0030323225
-0.009297899
-0.009139998
-4.3943716E-4
0.0016339952
-0.0078043924
-0.014305072
-0.0128932055
-0.009190066
3.5450423E-5
0.010504584
0.011278133
0.0103384685
0.012355645
0.017645294
0.034512263
0.035217542
-0.0027799874
-0.031801738
-0.027872562
-0.022701252
-0.014093706
0.0047748657
0.014459252
0.013360438
-0.0029842407
-0.020622136
-0.0035592131
0.01861556
0.008654222
-0.010627713
-0.021622546
-0.018276958
-0.008043292
-0.00779705
-0.0029443456
0.0033706937
-0.0059019094
-0.009004075
-2.2399386E-4
0.0051704645
0.0141354
0.025545422
0.023955356
0.011462125
0.002024058
0.0017126551
0.0089397915
0.012291898
0.0026718837
-0.004130846
-0.0045722523
-0.012465805
-0.013956362
-0.0035358083
0.004191095
0.005740346
-0.0021713914
-0.007973633
-0.0048840404
-0.0065547097
-0.0064084358
-0.0038101685
-0.0045456733
-2.3572027E-5
0.0027953037
0.008374555
0.017653983
0.0011276109
-0.02491214
-0.018893175
0.0036777619
0.008590808
-0.0015839286
-0.005227508
0.001956592
0.008852297
0.009413646
0.005661995
0.003198291
0.0028107727
0.0011204359
-2.4688346E-4
-9.3370734E-5
-0.0010367227
-0.0031974162
-0.0069849817
-0.008368444
0.0020837
0.012928408
0.0078091803
-2.3330397E-4
-0.0025550271
-0.0063214153
-0.008669758
-0.008949848
-0.008216687
-2.3132675E-4
0.013023978
0.0245308
0.03458023
0.030967211
-0.0022431668
-0.033760145
-0.03043184
-0.015003235
-0.0074161147
-0.0048216768
-0.002751222
0.0041869534
0.008841871
0.012560222
0.01347838
-0.0022208695
-0.014509657
-0.011322194
-0.0104897395
-0.010732462
-0.008947995
-0.007982532
-0.0050760154
-0.0024756058
-3.0763246E-4
0.0010530798
0.00187078
0.005897054
0.008408155
0.006952611
0.00850305
0.012271542
0.010959916
0.005977887
0.0011468882
-7.6014677E-4
0.004523086
0.009494069
0.006287507
-0.0010121954
-0.008456415
-0.008620223
-0.0016270252
-1.4102872E-4
-0.0030355123
-0.0034772598
-0.0038535036
-0.0045028497
-0.0043119444
-0.00438417
-0.00477442
-0.0040423614
-0.00155267
-7.272336E-4
-0.004371078
-0.0086767245
-0.009109576
-0.005212476
0.002735245
0.012397682
0.019040441
0.021171847
0.015478747
-0.0018994281
-0.016743999
-0.012493662
-0.0010843585
0.0024826527
0.0019063192
-0.001587302
-0.0038228496
0.002656947
0.0078071197
0.0047308607
3.8356803E-4
-0.0053328387
-0.011247944
-0.009257909
-0.003046391
-0.0012163571
-5.540666E-4
0.0011153589
-9.0944486E-5
-9.467673E-4
7.669368E-5
-0.0013872088
-0.0018093114
0.0016674452
0.004815488
0.0069833472
0.0076021682
0.0056629465
0.0037078934
0.0018977912
4.4877117E-4
8.982634E-4
0.0015774154
7.392687E-4
-4.9643003E-4
-5.3050313E-5
3.712468E-4
-3.4518418E-4
1.2240453E-4
-2.3620483E-4
-0.001362413
-0.001386157
-0.0026907455
-0.0029481205
-0.0016611542
-0.0017701773
-0.0019665544
-0.0027530924
-0.003732977
-0.0040181926
-0.003742964
-0.0017831392
-0.0014917221
-0.001987676
2.3472105E-4
0.0010147697
8.9871965E-4
0.002122428
0.0018331342
0.001489196
0.0021899184
0.0017734757
0.0014710198
0.0026326363
0.0030550163
0.0024227023
0.0030117254
0.0031779825
8.7344716E-4
-5.4458965E-4
3.748707E-4
3.577922E-4
-7.826212E-4
-6.505458E-5
0.0015710251
0.0010025831
-3.937554E-4
-4.2098103E-4
-8.78669E-4
-0.0019228804
-0.0018146713
-0.0013766832
-8.175838E-4
-9.5412607E-4
-0.0023326825
-0.0019647945
-0.0010665865
-0.0016387291
-0.0019178442
-0.002197764
-1.3376604E-4
0.004407053
0.0045862244
8.549517E-4
-7.562523E-4
-2.8925706E-4
-8.1171753E-4
-0.0011293956
2.1831467E-4
4.151395E-4
-4.3012833E-4
-3.7231127E-4
0.001187068
0.0029525955
0.001277726
-3.0626348E-4
1.2333444E-4
-5.1225716E-4
-7.672672E-5
-0.0016413496
-0.0033772383
-5.678208E-7
4.4128805E-4
-7.9325965E-4
-4.1631033E-6
-0.00161751
-0.0012605622
-1.2136077E-4
-9.507688E-4
7.408699E-5
5.2855967E-4
5.554832E-4
6.692099E-4
-9.550777E-5
1.3276668E-4
1.5325456E-4
0.0014741851
0.0030696997
0.0021007215
7.965944E-4
-0.001268244
-0.0010066357
0.0011391747
1.7860704E-4
3.2624745E-4
-3.7143173E-4
-0.0032848949
-0.0019514624
-2.0123461E-4
3.7736743E-4
0.0020563824
0.0016457193
8.151129E-4
3.4049686E-4
-0.0010816598
-0.0011203754
-0.0012772181
-0.002653885
-0.0017363967
4.6212075E-4
8.428091E-4
0.0015169356
0.0025252874
0.0020251921
0.0021276504
0.0022318421
8.6072535E-4
-7.336424E-4
-0.0015540653
-6.9195474E-4
-9.821823E-4
-0.0029127672
-0.0024589456
-7.775725E-4
1.9341406E-4
-4.1834585E-4
-0.0024246855
-0.0032336926
-0.0033502376
-0.0026037623
-0.0016860929
-0.001516426
1.0202804E-4
5.438031E-7
-0.0016645902
-0.0016014725
-0.0024173104
-0.0011726151
0.002177141
0.0017118467
0.001383238
0.0026001178
0.001016797
5.4886885E-4
0.0029302726
0.0035990495
0.0039128345
0.0053104125
0.005722279
0.006450481
0.0061748377
0.0033135857
5.843368E-4
-5.85465E-4
2.4317798E-5
-0.0018798428
-0.004854683
-0.0019531266
3.7196935E-6
-7.8295765E-4
0.0010021975
6.1185466E-4
-0.0022463927
-0.0057970113
-0.007467007
-0.0040139547
-0.0022285387
-0.0030504754
-0.0032657143
-0.003494301
-0.0027714255
-0.002854896
-6.3833495E-4
0.0037424536
0.00315547
1.7579776E-4
-0.0023383703
-0.0032421802
-0.0014098912
0.0011127647
0.004798223
0.005424952
0.002740279
0.0016750301
2.0885763E-4
5.315096E-4
0.002184951
0.0013286088
0.0012114589
0.0015177968
0.0015813367
0.001850582
0.0023244955
0.0029993877
2.9668747E-4
-7.804655E-4
0.0010475046
-7.390044E-4
3.43066E-5
0.0024603994
6.307199E-4
1.7677758E-4
-5.147496E-4
-0.0023188912
-0.001285882
-0.002005702
-0.00492346
-0.0051492183
-0.0030856996
-0.0018687935
-0.0017599288
-4.3193228E-4
4.1282646E-4
-0.0013279651
-0.002308863
-4.276515E-4
0.001744508
0.0019266763
0.0013685371
1.6433977E-4
-0.0023631211
-0.0014715692
0.0027884545
0.0025196942
1.3645511E-4
0.0023511157
0.0040017082
0.0023114993
0.0014170131
3.9709872E-4
-9.807891E-4
-0.0013673303
-9.3733246E-4
0.0012401491
0.0014298941
-0.0011149475
-0.0014952607
-0.0017067908
-0.0014110968
0.0014419381
0.0017344565
9.0957223E-4
0.0020869817
9.677249E-4
-0.0011363394
-6.519056E-4
-0.0014806084
-0.0043817456
-0.0037964433
-9.778539E-4
7.0379284E-4
0.003983119
0.0053991373
0.0011418889
-0.002956009
-0.0048375153
-0.004856002
-0.0022009634
-0.0010276556
-0.0020164368
-8.6498127E-4
0.0030486966
0.0056105633
0.0032180313
-1.9727193E-4
-7.366298E-6
0.0017643156
0.002896442
0.001783916
-7.610506E-4
-2.737755E-4
0.0015695309
0.0014606622
0.001803801
0.0022094108
0.001202933
3.2941773E-4
-9.656248E-4
-0.0030108076
-0.004083961
-0.0026324035
-4.0457016E-4
-8.614153E-4
-9.80568E-4
6.7478395E-5
-0.0016861355
-0.0026158583
-0.0011476248
-1.2914093E-4
2.2187099E-4
-0.0013049144
-0.0011821846
0.0018453923
0.0019505315
3.1484084E-4
1.4348979E-4
0.0011323337
0.0026369567
0.0032652519
0.003840401
0.0039228853
0.0021729758
-3.303078E-4
-0.0024521947
-0.002565392
-0.0015123392
-6.400941E-4
6.3084724E-4
9.995011E-4
1.6580814E-5
-0.0013322353
-0.0014301101
-4.07084E-4
-6.4307987E-4
-5.081773E-4
-1.556721E-4
-0.0018048863
-0.0027186044
-0.0017023179
-3.3639287E-4
3.2887355E-4
7.72738E-4
0.0016154387
6.270419E-4
-4.02719E-4
8.756258E-4
0.0011622943
0.0010181993
0.002362433
0.0032368037
0.0028060577
6.2307285E-4
-0.0023185452
-0.0033139703
-0.0022110713
-2.3782926E-4
7.415474E-4
1.6331473E-4
5.4243734E-5
-4.0429618E-4
-9.839272E-4
3.6603204E-4
4.3636325E-4
-1.3962261E-4
7.9029944E-4
-1.2762817E-4
-8.064262E-4
-6.362642E-5
4.357702E-4
0.0016678122
4.924676E-5
-0.0019392981
-2.6828182E-4
3.9940313E-4
8.1795553E-4
0.0013014786
6.1369076E-4
0.0012997813
0.0013735719
3.3929365E-4
-0.0011052322
-0.0023570086
-3.9799843E-4
0.0022932917
0.0022636089
0.001049566
0.0013288056
8.2450475E-5
-0.0032580204
-9.5550105E-4
-2.3641624E-5
-0.0056504104
-0.00523708
-0.001950217
-0.0015831939
4.1707963E-4
0.0015094425
0.0030721992
0.0044341874
9.745876E-4
-0.0019408946
-0.0018408872
-0.0016032119
-0.002282856
-0.0028694228
-9.995336E-4
0.001066818
0.0012141173
0.0010576703
0.0018261959
0.0047771204
0.006501968
0.0027640131
-9.812026E-4
1.09082306E-4
0.0013471331
3.6992042E-4
-6.1626197E-4
-0.0020757217
-0.0031030555
-0.0015505202
-1.7546007E-4
-9.323106E-4
-2.2002056E-4
0.0016478511
4.945437E-4
-7.589984E-4
3.1760702E-4
0.0010864257
0.001692949
5.426325E-4
-0.0027508927
-0.0029084543
-9.797157E-5
9.461614E-4
-1.5221526E-4
-6.6696986E-4
-9.5599436E-4
-0.0016923079
-1.3529819E-4
0.0016304558
8.271865E-4
-1.1750764E-4
-6.952857E-4
-5.569133E-4
-4.6285208E-5
-8.357941E-4
-0.0012551175
-2.3539235E-4
6.396461E-4
-4.162398E-4
-0.0016479816
-0.0010326043
-9.878771E-4
-5.1017746E-4
0.0018797956
0.0035117161
0.0033823666
0.0012313669
-2.1482944E-4
0.0014104643
0.0025251377
0.0013607516
-8.473582E-4
-0.0019303052
-0.00102395
-4.8452895E-4
-4.4009608E-4
-6.855332E-4
-8.0080377E-4
0.0010034997
0.0020202554
9.4788306E-4
3.4996716E-4
-2.11168E-4
-7.738663E-4
-2.8915715E-4
-6.693309E-5
-6.6796015E-4
-8.404247E-4
-2.6633407E-4
-1.5758553E-4
-7.739636E-4
-9.962921E-4
2.1212847E-5
0.0020207071
0.0020836368
-5.492806E-4
-0.0013729531
-4.230225E-4
-0.0014069076
-0.0018932177
6.531432E-5
0.001416643
9.989121E-4
2.4275041E-4
4.4251166E-4
9.945643E-4
-1.2570094E-4
-0.0030007144
-0.0043116687
-0.0011209063
0.002973003
0.003462897
0.0022004507
0.0011055531
7.631852E-4
0.0017733768
0.0018141579
4.4698417E-4
-1.4972438E-4
-2.447184E-4
-1.5780453E-4
2.0835074E-4
-0.0013493948
-0.0047696405
-0.004485221
3.8261505E-4
0.0018525238
-0.0010868262
-0.0012328144
5.311892E-4
-2.486822E-4
-0.0011554499
-4.5385296E-4
-6.2237517E-4
-0.001375239
-5.7231233E-4
3.215386E-4
2.167841E-5
4.427999E-4
0.0019334179
0.0027042457
0.0027835593
0.003860524
0.0039159823
0.0016755989
0.0021505808
0.00243789
-0.0016040019
-4.6803537E-4
0.0047326693
0.0039364966
3.830264E-4
-0.0027324273
-0.0047756485
-0.0046569384
-0.0040530763
-0.0012544406
2.0315364E-4
-0.0025784555
-0.002990161
-0.0015048395
-0.0020529723
-0.002983706
-0.0024324858
-0.0010573552
-5.867371E-4
4.7435012E-4
3.8772408E-4
-0.0013082167
-7.1233185E-4
-0.0013801983
-8.9172577E-4
0.0023506563
7.1395066E-4
-4.600312E-5
0.0013012522
4.6423238E-4
0.0040475964
0.007051578
0.0060617966
0.0064528254
0.0040810416
-1.3694524E-4
-0.0022511487
-0.0029816716
-0.0025117884
-0.001891921
-1.2883704E-5
0.0013562206
0.0012644217
0.001416931
9.002818E-4
0.0033864628
0.0043387343
-0.001502845
-0.0031277675
-6.1147875E-4
-0.0024173108
-0.0055916966