-8.1142364E-4
5.433012E-4
5.934421E-4
-0.0016971859
-0.0011587462
1.7110887E-4
1.1246801E-4
3.0886193E-4
2.5041605E-4
1.1375584E-4
-8.098402E-4
-0.001367354
4.6061625E-4
3.614437E-4
-9.3959866E-4
0.0012902684
0.0024386526
3.5523268E-4
-7.5138675E-4
-2.4505137E-4
8.06537E-4
0.0011725117
0.0016908284
0.0014500811
-0.0018663325
-0.0017128576
0.0017079499
6.921435E-4
2.2572678E-5
0.0015499846
0.0012120219
9.602294E-4
0.00103556
0.0022968857
0.0035046581
8.519262E-4
-0.002035385
-0.0010831538
0.0018893882
2.2330545E-4
-0.004273146
-0.0034274894
-0.0026076674
-0.0018655282
0.0011736864
-0.0018388282
-0.0030737324
2.9879287E-4
-0.0019457806
-0.0029390466
-0.0014424965
-0.0017279322
5.321616E-5
-1.3670055E-4
-0.0010990702
0.0014623784
0.002452534
0.0015484656
9.934261E-4
7.7478285E-4
0.0010922785
0.0010123058
0.001339634
0.0019299221
0.0012030167
5.015706E-4
7.1302336E-4
-1.05417756E-4
-0.0011750319
-3.3502514E-4
-2.7251532E-5
-6.754013E-5
7.5186865E-4
-4.400432E-4
-3.5577732E-6
0.0022411398
-2.5789972E-4
-0.0025418564
-0.0010323972
-7.872559E-5
4.805869E-4
7.578044E-4
0.0017361544
0.0021397977
-7.131745E-4
-8.544735E-4
5.268131E-4
-0.001186022
-0.0010191342
-3.178562E-4
2.18254E-5
0.0018111881
1.6995607E-5
-0.0024653573
-0.0020399417
-0.0019243619
-0.001086459
-3.5199075E-4
-5.380556E-4
6.452069E-4
0.0013088066
-5.674667E-4
-0.001443592
0.0012280287
0.0014681262
-0.0010213541
-8.512863E-5
0.00147316
0.0023471462
0.0027279088
0.0018084614
0.0014183745
-0.0021383825
-0.004702516
-0.0023806284
-0.0022633513
-0.0013809748
-7.0652546E-4
-0.0027835572
-5.545488E-4
0.0014633993
0.0010158076
0.0010095548
-1.598225E-4
0.0013540679
0.002933496
0.0013969969
4.3667396E-4
-4.6215262E-4
-3.9049797E-4
-1.1647864E-4
3.092336E-4
0.0027384043
0.0027103946
0.0022916603
0.0041842135
0.0036269054
0.0016503483
-2.4153362E-4
-0.0021628237
-0.0023058404
-0.0014551805
-0.0011542835
-0.0028932258
-0.0043003857
-0.002917105
-0.0025078587
-0.0016460342
9.665234E-4
8.686393E-5
-0.0013941086
-9.5072127E-4
-0.0023017768
-0.00257206
-9.3102764E-4
-1.01692436E-4
8.2166115E-4
1.1547623E-4
-0.0013266283
1.5443761E-4
0.001947521
0.001282137
3.9175837E-4
0.0012254885
0.0018956665
0.002562227
0.004430282
0.0031719017
-3.9460318E-4
-8.2655123E-4
0.0013555839
0.0031952297
0.0014753022
-6.099453E-4
8.471543E-4
0.0010222483
1.0851478E-4
-9.284001E-4
-0.0027439545
-9.3218056E-4
5.913207E-4
-9.601749E-4
-8.927448E-4
-2.1007088E-4
-8.959958E-4
-0.0029484155
-0.0024102589
2.3385926E-4
-0.0014611688
-0.0024740894
-0.002364135
-0.003997794
-5.8254844E-4
0.0016905272
-2.1569867E-4
0.0013026177
0.0010718022
-0.0013107068
-5.9426983E-4
0.0014100458
0.0030450893
0.0020082267
5.2291085E-4
5.0610566E-4
4.7941667E-5
5.606316E-4
1.5637118E-4
6.5814325E-5
0.002071703
0.0024691934
0.0032405101
0.0023892294
-6.5807725E-4
-7.079122E-4
-5.5854995E-4
0.0014392135
0.0025033515
-0.0030644631
-0.0046672216
-0.0023239003
-0.0023764118
-0.0014081794
-0.0012658457
-9.035528E-4
-4.445316E-4
-0.0015629897
2.8504647E-4
4.100322E-4
-0.0019322708
-5.245596E-4
6.715569E-4
3.7568755E-4
8.088769E-4
0.0011621444
0.0012383148
0.0010304075
0.0020126945
0.0026405759
0.0013546271
0.0012525133
0.0018536915
4.2609248E-4
-3.7869887E-4
0.0014621203
6.12379E-5
-0.0039802925
-0.0025701427
6.8508845E-4
0.0012881145
4.494602E-4
-0.002598699
-0.0044711293
-0.00291181
1.10482695E-4
1.5631999E-4
-0.004506168
-0.004720518
-1.9603536E-7
0.0018504114
0.003010946
0.0048220973
0.0057866606
0.00470992
0.0017431688
1.6775368E-4
-9.039592E-4
-4.0349035E-4
0.0012686473
4.5270732E-4
5.607169E-4
-2.1508988E-4
-0.002417895
-9.000872E-4
-1.4452998E-5
2.8478348E-4
8.237946E-4
-0.002677019
-0.0044339825
-0.0030964557
-0.0027449003
-0.0020449802
-0.0020729152
-0.0017915111
-6.1441533E-4
-6.770233E-4
-3.5620973E-4
2.1683882E-4
0.001246868
0.0022314864
7.3581055E-4
0.0013256735
0.005114235
0.005459186
0.0028003063
0.0026580559
0.0045650527
0.003597444
-3.0757647E-4
-0.0033860484
-0.004645148
-0.0035925994
-0.0013024333
-3.0932328E-4
-3.0586455E-4
-3.2479534E-4
4.640659E-4
8.408374E-5
-0.0026925125
-0.0023432786
3.2750377E-4
8.98594E-5
-4.0949555E-4
-5.8314035E-4
-0.001268562
-5.274466E-4
-5.8282854E-4
-8.5397577E-4
7.995094E-4
9.247759E-4
3.7176278E-4
0.0020181697
0.0021313415
-8.867134E-5
-1.454566E-4
0.002003559
0.0031289845
0.0026090776
7.969146E-4
-0.002136493
-0.0035609002
-0.0014761091
8.293685E-4
4.7528167E-4
-8.252474E-4
-0.0019837036
-0.0022077656
-3.8725184E-4
3.1914236E-4
-3.351906E-4
0.0011043797
0.0010201553
-8.36703E-4
5.250278E-4
0.0014162093
3.6789328E-4
9.259601E-4
0.0017946495
0.0019080486
-0.0010384017
-0.0058848555
-0.0049092635
-4.978628E-4
-6.850533E-5
-0.0015862288
-6.799951E-4
0.0016508828
0.0019431472
0.00149904
0.0025885415
0.0023945065
1.8015075E-4
-6.477417E-4
3.5021256E-4
-2.071931E-4
-9.197935E-4
0.001424573
0.0024624164
0.0010231435
9.003299E-5
-0.0014949128
-0.0011769917
0.00199992
0.0030706273
0.0015569184
0.0012896749
0.0033097956
0.0020166114
-0.0018579026
-0.0015869009
-0.0024729318
-0.0051739253
-0.0036451824
-0.002484064
-0.0023917435
-0.0017644074
-0.0022193487
-0.0017269467
-0.0013814803
-8.327565E-4
4.5723726E-5
2.4039755E-4
0.002509971
0.0024526892
0.0011536697
0.002999958
0.0010263456
-0.0015218538
-0.001385773
-0.0027612736
-6.987791E-4
0.0018401878
0.0019631681
0.004004627
0.0027612816
5.180624E-4
0.0017768198
0.0014737076
0.0012748346
0.0011629225
-0.0012070413
-0.0015375437
-5.1588286E-4
-0.00164779
-0.002091947
0.0010353402
0.0030199643
3.2952728E-4
-0.0023036099
-0.0022679456
3.6246344E-4
0.0035192068
0.0028624847
0.0014685909
0.0010133805
-0.001579571
-0.0038608625
-0.003730983
-0.0023788658
-0.002592326
-0.0033818795
-0.0014765426
-0.0010233235
-0.0010538793
2.8025097E-4
-0.0015041276
-0.0012659612
9.025112E-4
1.6848478E-4
0.0010980833
7.143538E-4
-0.0013756836
-6.19438E-4
-8.341373E-4
-1.3446585E-4
0.0023728264
0.00320078
0.0034529443
0.0039550816
0.0073097246
0.0074409004
4.284005E-4
-4.7735678E-4
0.0026999302
0.0014583389
0.0015525757
1.2162022E-4
-0.003412277
-0.0024075366
-0.0023235218
-0.005478503
-0.005151172
-0.0011536534
4.664505E-4
-0.0018735116
-0.0023781017
-4.011832E-4
-0.0010800789
-0.0022355367
-0.0011415727
-2.163013E-5
8.9741644E-4
5.610493E-4
-4.8094426E-4
5.379243E-4
5.0785144E-5
-0.0013773943
4.8420063E-4
0.0011860534
0.0011846696
0.004487292
0.0053065466
0.0015272751
-7.132836E-4
2.0340442E-5
-7.18274E-4
-0.0030333763
-0.0030404353
-0.0021731365
-0.0020314783
-0.0013725779
-0.0011740975
-0.0016866981
-0.0011458114
9.848006E-4
0.0012855043
-9.141451E-5
0.0017278171
0.0033039136
0.0023124171
0.0023398197
0.0024246327
0.0033948747
0.0045689875
0.0029868614
0.0012336469
-3.9006368E-4
-0.0011026694
2.0741444E-4
2.3210336E-5
3.700748E-4
0.0019421922
-3.2738774E-4
-0.003598953
-0.0041138493
-0.0050426917
-0.0053260364
-0.002701016
-0.0018087917
-0.003326291
-0.0030390464
-0.0016792982
-9.2675275E-4
-2.6812233E-4
0.0011823586
0.001620944
-0.0010163472
-0.0015586466
7.8193494E-4
0.0017919258
0.004265714
0.005791498
0.0038661717
0.003747252
0.0021256339
-0.0015116417
-0.001605605
-0.0024296958
-0.002715545
6.50414E-4
8.790387E-4
-5.8040023E-5
1.3629632E-4
-0.001464961
-1.4778E-4
0.002486543
0.0027992066
0.0028321443
7.9559634E-4
-1.3655295E-4
8.0772303E-4
-5.4083555E-4
-9.1061636E-4
-4.976238E-4
-9.7479124E-4
-0.0013823381
-8.7602146E-4
0.0011673898
-6.8611675E-4
-0.0025041925
2.9327828E-4
-6.0394383E-4
-0.001587902
-1.0325908E-4
-0.0012475331
-0.0013777469
-0.0019303962
-0.0029064112
-9.0524857E-4
9.0014434E-4
0.0022905131
0.0023471222
9.0133393E-4
6.041789E-4
7.53159E-4
4.556652E-4
-2.469684E-4
0.0017077358
0.003869653
0.0013909067
-6.445267E-4
-0.0016901317
-0.0019111894
8.9386624E-4
7.5698073E-4
-0.0012398645
-0.0012954207
-0.0019278903
-0.0019969356
-0.0016671454
-0.0019513833
-0.0017771347
-0.0015314771
-0.001235412
-7.99456E-4
7.989371E-4
0.0037300484
0.0059274454
0.0063360333
0.0044733644
0.0019775978
0.001315747
0.0012670915
3.7441816E-4
-7.7884446E-4
-0.0021978852
-0.0026673877
-0.0012418228
-7.508083E-4
-0.0010773045
-3.958408E-4
-9.673512E-4
-0.0023680613
-0.0016375522
8.1708236E-4
0.0017170367
5.423335E-4
-2.725841E-4
-0.0018340967
-0.0016642757
8.4118295E-4
-2.3378561E-5
-1.2445723E-4
-3.2234116E-4
-0.0036336405
-0.0011331227
0.0011801289
-0.0010291814
0.0012177299
0.002276887
2.9972172E-4
8.960839E-4
0.002065056
0.002451901
-8.17682E-4
-0.0045380774
-0.003291926
-0.0026731428
-0.0028707455
2.6069267E-4
0.0024712898
0.0010630348
2.8350743E-4
0.0020195404
0.0028429313
0.0024570606
0.0027823872
0.0035572594
0.0046156403
0.0049597295
0.0042205513
0.002578035
1.17337375E-4
-8.439646E-4
-8.6092437E-4
-0.0028599421
-0.004975255
-0.0048977146
-0.005045089
-0.005595711
-0.00475272
-0.0041527245
-0.0016187628
0.0030384574
0.002355137
-0.0023914026
-0.004738303
-0.0036926914
-3.855489E-4
0.0014604811
0.0014451257
0.0020026208
0.0032252283
0.004025499
0.001443525
7.5306126E-4
0.0063504167
0.007670943
0.0035042276
0.0019735636
0.001517409
9.754713E-4
5.291399E-4
-3.7512174E-4
-2.571266E-4
-0.0019255079
-0.0046663475
-0.0038863467
-0.0026878854
-0.00403546
-0.0057720616
-0.0054623242
-0.0027185131
-5.7019584E-4
3.2166694E-4
0.0012846
0.001902706
0.003444689
0.004164529
0.002113536
0.0010992909
-8.2492246E-5
-0.0021707227
1.627121E-4
0.002212048
1.7810686E-5
-0.0010034114
-0.0023878529
-0.0017017011
0.0024763343
-9.099788E-4
-0.004244424
0.0013370687
0.002789123
5.6758E-4
6.385784E-4
4.2311152E-4
-6.8667716E-5
-0.0026003255
-0.0018467096
0.0013666535
5.176941E-4
0.0026652426
0.003927956
0.003294537
0.008058592
0.0065864855
4.78163E-5
-0.0012502933
-0.0018057775
-0.0015335894
-0.0015227937
-0.0024447725
-7.3584044E-5
0.0016317295
9.877328E-7
-0.0025418736
-0.0040891254
-0.004414496
-0.004321795
-0.0036638444
-0.0034945149
-0.0027886773
-0.0013035238
-5.190833E-4
2.5089603E-4
-2.8835222E-4
-5.9556076E-4
2.1077778E-4
2.2688987E-4
0.00214354
0.0040746843
0.0029595266
0.0013785113
0.001465731
0.0021481777
-1.6280668E-4
-0.001187842
0.0011647727
8.450922E-4
4.943632E-4
5.8200024E-4
-5.344977E-4
3.3418165E-4
0.0012025078
0.0022655842
0.003432034
0.0038743778
0.0038222538
1.0146613E-4
-0.0015870557
-9.0282806E-4
-0.003553276
-0.0039505395
-0.003997916
-0.0037611
8.9568575E-4
0.0019882459
0.0012088865
0.0020948618
0.0012787335
0.0024924679
0.0024556995
-8.798227E-4
3.9181477E-4
0.004717966
0.005780057
0.002839124
-0.003298522
-0.010201701
-0.011886574
-0.008927224
-0.008181832
-0.0065797996
-0.001772794
8.277382E-4
0.0010616147
0.0010161583
0.0025556404
0.0036084547
0.002106436
0.002480686
0.0011743007
-0.0021158366
-2.0887291E-4
9.986486E-4
-8.971427E-4
-0.0020327943
-0.004798247
-0.0047478527
0.0031566075
0.014103502
0.021176716
0.022505831
0.020679494
0.015279933
0.005401765
-0.005850446
-0.014658853
-0.018256359
-0.014410008
-0.0069918893
-0.006163385
-0.008060773
-0.0071645104
-0.010350561
-0.009150751
-0.0011501258
4.902494E-4
7.283747E-4
0.0027221583
0.004397544
0.0065810853
0.003756922
6.613104E-4
-0.002204571
-0.008501406
-0.009181122
-0.0047604814
0.00112633
0.0066433996
0.007825668
0.0083933305
0.0076143923
0.0054764636
0.0034209555
-0.0010281655
-0.0037725917
-0.00547332
-0.005690149
-2.2097996E-4
0.0044227387
0.0049223374
0.0041267467
0.005360614
0.0071027842
0.0034853427
-0.0014302026
-0.0053980565
-0.0074883723
-0.0031268927
7.61489E-4
0.001756454
0.0051268637
0.00871588
0.009326033
0.0039531956
-0.0032808676
-0.0022454541
-2.943378E-4
-0.009392962
-0.01843853
-0.01935028
-0.021019835
-0.020750483
-0.012931702
-7.7191544E-5
0.012998493
0.015308889
0.008708105
0.0029187794
1.21446916E-4
0.0032901547
0.005534616
-1.2844637E-4
-0.00914218
-0.014158242
-0.010370864
-0.0069637005
-0.005157092
0.0031774354
0.011840016
0.017904053
0.018939497
0.016176978
0.018712157
0.01947127
0.015308831
0.015703665
0.017618502
0.0098387245
-0.0029675374
-0.0068332436
-0.0055611697
-8.4966636E-4
0.003788554
-0.009372618
-0.02875273
-0.036544997
-0.035991635
-0.023014823
-0.002567251
0.008900114
0.013051843
0.016828997
0.00866673
-0.00970093
-0.014456981
-0.009242485
-0.0067773936
-0.008426859
-0.016884817
-0.017970506
-0.006580358
0.0074948072
0.02295372
0.030947441
0.0299205
0.029121974
0.026842857
0.013989781
-0.0073266546
-0.021495624
-0.03136295
-0.0386206
-0.038171418
-0.04691981
-0.054066557
-0.043210644
-0.028836194
-0.0033870053
0.029792735
0.051140998
0.07531422
0.098451
0.092939295
0.07482537
0.061391935
0.022580992
-0.029218987
-0.043706372
-0.036878724
-0.019182032
0.019066975
0.037505716
0.040753294
0.056206964
0.05063293
0.013282826
-0.04846062
-0.113855235
-0.12314649
-0.09223562
-0.0723185
-0.046904717
-0.019488052
-0.008441798
-0.004254672
-0.0056708343
-0.0017635552
-0.013163491
-0.048941553
-0.025344849
0.05770733
0.10313436
0.096760035
0.055978652
0.0018646653
-0.028802555
-0.05335968
-0.07806138
-0.09091961
-0.10695568
-0.09446292
-0.012214816
0.107804574
0.19440697
0.2273729
0.21580139
0.11515528
-0.0093207
-0.031986035
-0.036306337
-0.10017519
-0.16076218
-0.17907998
-0.14955148
-0.09956262
0.008823461
0.1891359
0.29526472
0.29456607
0.22106709
0.07400367
-0.057674475
-0.16587155
-0.24719845
-0.2406299
-0.19614734
-0.120811656
0.016198508
0.16119526
0.18064673
0.025865547
-0.07235722
-0.05585457
-0.11716758
-0.17192607
-0.073261395
0.10221613
0.20040269
0.19952153
0.17825052
0.02916019
-0.19186929
-0.2531324
-0.25569838
-0.20215514
-0.029888056
0.04231385
0.05889916
0.12919338
0.10906886
0.03204781
0.00206356
0.056835547
0.190968
0.22118549
0.12404919
0.06674322
0.020085463
-0.055104025
-0.1117208
-0.14938758
-0.10292676
0.023062494
0.10521621
0.13365598
0.12761426
0.052360747
-0.036905266
-0.03554248
0.006230657
-0.0187517
-0.04768034
-0.047111843
-0.06387756
-0.074085794
-0.10582072
-0.1143938
-0.0347044
0.0042993114
-0.0061669927
-7.566888E-4
-0.015663732
-0.0040812716
0.004633891
-0.04482126
-0.04006893
0.02225772
0.04984256
0.05706573
0.03446586
-0.02708935
-0.047734227
-0.034588996
-0.028419295
0.010895674
0.025787737
-0.01832893
-0.02089601
0.011148032
0.025275933
0.036108732
0.03781166
0.03320985
0.029213464
0.016779715
0.0031832869
0.006952863
0.0444641
0.10715396
0.14820762
0.15148892
0.13471742
0.0068566883
-0.20494817
-0.2230547
-0.071036436
0.0020944271
0.012629298
0.0074900324
-0.010312748
0.015720036
0.05944637
0.07141813
0.036124483
-0.012045573
-0.04318351
-0.08507121
-0.10977818
-0.10611185
-0.09542518
-0.058365393
-0.020364728
6.4390694E-4
0.016272238
0.020633718
0.023746341
0.024650062
0.017812522
0.0075211492
0.0037956573
0.01431142
0.020565901
0.023020556
0.025979284
0.016628666
0.0043225763
-0.0015501997
0.0019775748
0.0101474915
0.013209617
0.016673267
0.016606057
0.012978352
0.021710405
0.036488824
0.031207934
0.009320047
0.002898801
0.005877543
-4.2798655E-4
-0.0061145355
-0.0139869815
-0.021728147
-0.019731032
-0.016768284
-0.013156085
-0.008398649
-0.0049358504
-0.0014649627
-0.0011426219
2.458211E-5
0.002443875
-6.220054E-4
-0.005919907
-0.0060945963
-0.007290782
-0.017477674
-0.018869942
-0.007614392
-0.0061540045
-0.007368353
-0.003657592
-0.005243858
-0.00557675
-0.00268891
6.556375E-5
0.0037834565
0.0045083617
0.003773693
0.005635124
0.009474584
0.010552662
0.008056536
0.005642324
0.002313847
0.002818428
0.003789842
-0.0011943687
8.3432585E-4
0.0063079884
0.00568569
0.0083525255
0.011894943
0.010111413
8.3135656E-4
-0.013862092
-0.017892404
-0.011516027
-0.00946455
-0.010475703
-0.0073223426
-0.0031594823
-0.0057723927
-0.0076175113
0.0025498266
0.011582115
0.010516556
0.014720288
0.022702234
0.015250651
-0.0011398265
-0.011607407
-0.018868193
-0.01878632
-0.008705215
2.0725744E-4
0.01111757
0.021188205
0.008864938
-0.011479638
-0.011523196
-0.005234119
-0.0042928574
-0.0023571886
-0.006025937
-0.00860313
-0.001090337
0.0041400776
0.007842136
0.011561932
0.0049744495
-0.0019109467
0.0013360651
0.005277394
0.0060148174
0.0070670974
0.0071464707
0.006508225
0.0064617894
0.003517176
7.0033764E-4
0.005214216
0.010814865
0.009498307
0.0061902087
0.0051850653
0.0025318533
-0.0022148476
-0.0052399165
-0.0072285696
-0.007607565
-0.0055154623
-0.0053231064
-0.005738436
-0.0041003143
-0.0030381004
-0.0026469938
-0.0053375238
-0.011638987
-0.014351748
-0.015110671
-0.018596943
-0.019089373
-0.017440474
-0.016929718
-0.012965739
-0.010404984
-0.010620675
-0.005322716
0.0020979617
0.010115288
0.018024802
0.019366905
0.020488294
0.023399688
0.022488626
0.022197273
0.022485277
0.020624533
0.018666435
0.014622829
0.009202178
0.005070224
-6.116966E-4
-0.0029292905
0.002271081
-1.5940732E-5
-0.009531023
-0.008995833
-0.0077217384
-0.013163689
-0.01450835
-0.014405482
-0.01550837
-0.016071059
-0.017589688
-0.015915925
-0.011508352
-0.008614072
-0.005776732
-0.0015354673
0.0020001612
0.0039248094
0.0062533324
0.008514085
0.010645692
0.0109652905
0.0073914765
0.004383168
9.4241253E-4
-0.0030487159
-0.0032302048
-0.0019586007
0.0011814809
0.004453816
0.004924892
0.0028211803
-0.0046070335
-0.009875544
-0.008490572
-0.005603222
-0.002560796
-0.0023771415
2.3826897E-4
0.00515504
0.003087536
0.0014125883
0.0028356712
0.0036905138
0.005598477
0.0051716426
0.0042708865
0.002661093
-9.2541147E-4
3.0182593E-4
0.0017621187
-2.9422512E-4
0.0013133292
0.0028232525
-0.0011755544
-0.0032047085
-6.556334E-4
7.1940577E-4
5.8221875E-4
-5.5859674E-4
-0.0023355936
-0.0042050905
-0.006523694
-0.004404871
-0.0015127022
-0.002800579
-0.001871828
-0.0010247509
-7.1183837E-4
0.0024449858
0.001728002
-0.0021068994
-0.0042353272
-0.003983609
-0.0029512132
-0.0035967268
-0.0019185474
4.8728415E-4
6.138673E-4
9.952822E-4
-5.284849E-4
-0.001819857
-0.001862477
-0.0028408722
-0.0014664066
2.8021538E-4
8.499816E-4
0.0012771357
-2.848005E-4
-0.0029819005
-0.0039344495
3.2297612E-4
0.0040555336
0.0018689429
0.002039262
0.003896634
0.003573736
0.0051971446
0.004800401
7.373327E-4
-0.002539967
-0.0054608695
-0.00733226
-0.006380012
-0.0036499985
-0.0016879352
-0.001860006
-0.0028832406
-0.0022254111
6.133086E-4
7.7873643E-4
-0.0013306234
0.00110868
0.004013429
9.2358567E-4
-0.0024122237
2.5438683E-4
0.00525375
0.0061386293
0.0034334254
8.3600846E-4
5.056114E-4
0.0027771916
0.0034495986
0.001062373
-3.812511E-4
6.7679957E-4
0.00260433
0.0019467196
-6.8727724E-4
-8.882845E-4
-7.66902E-4
-0.003428016
-0.0055957003
-0.003790661
-8.335273E-4
-5.5880647E-4
-2.2418224E-4
-7.8872807E-4
-0.0035565982
-0.0010766669
0.0033084906
0.0016770423
-3.2438076E-4
-2.2867744E-4
1.16123396E-4
0.0020640402
0.0028612053
0.0018120818
7.3341344E-4
-0.0015325306
-0.0021096212
3.782162E-4
8.776126E-4
-0.0015434206
-0.004505649
-0.006025675
-0.004678154
-0.002906616
-0.0011832305
2.9898944E-4
-3.703169E-4
6.918539E-4
0.0026099314
0.0017838661
0.0024633082
0.004180852
0.0045602852
0.004054833
0.00265631
0.0040360666
0.006508156
0.0049971775
8.1821444E-4
-0.00224369
-0.0021880313
-0.0025595222
-0.0031826892
-0.0015797152
-0.0010429678
0.0010774165
0.004190152
0.0032763353
0.001941157
-3.5470416E-4
-0.0042417455
-0.006353824
-0.0071985177
-0.005178247
-0.0027590152
-0.0026817666
-0.0019371433
-0.0019042075
-6.541529E-4
0.002802407
0.0030773547
0.003506947
0.005359024
0.0034845236
0.0018173654
0.0029504413
0.002402361
1.1693821E-4
-0.003304678
-0.007523031
-0.0059525026
6.269512E-4
0.0014119449
-0.0021672952
-0.0020208003
2.9092972E-4
0.0019698234
0.002884937
0.003397697
0.0027207816
-2.0935063E-4
-2.862347E-4
0.001618126
-8.835144E-4
-0.0020273048
-5.658311E-4
-0.0023773252
-0.0020277267
0.0014185242
0.0017074039
3.6318877E-4
4.5465384E-4
0.0020179737
0.0029833475
0.0028499959
0.003200666
0.0022602915
0.0014642477
0.0032335538
0.0034008422
1.7544099E-4
-0.0030812367
-0.0033429859
-0.0015147224
-0.001145073
-0.001415888
5.4614164E-4
0.0031113198
0.0029369483
5.9286994E-4
-0.0020221511
-0.0047007464
-0.004839626
-0.0014658256
5.5614073E-4
-5.801589E-5
-4.1133823E-4
-0.0017327185
-0.0029825796
-2.6123924E-4
8.033267E-4
-0.0018255453
-0.0010946082
-8.268361E-4
-0.0020533423
0.001093672
0.0020448808
-3.8442056E-4
-5.995419E-4
-4.639819E-4
4.2368434E-4
0.0014008608
0.0021221864
0.003312133
6.4387306E-4
-0.0020301295
-8.5843797E-4
1.107896E-4
0.002287524
0.0033778276
2.484749E-4
-7.817109E-5
0.0022329849
0.0015930344
0.0015377201
0.0028736473
0.002146992
0.0023742411
0.002991666
0.0011571831
0.0013701201
0.002583781
0.0015842664
1.907746E-4
-0.0032847847
-0.0052835997
-0.0029906572
-0.0029039297
-0.0033167512
-0.0023532186
-0.0033078247
-0.0029640072
-0.0023472675
-0.0022233282
3.8880002E-4
2.504096E-4
-0.001664256
-2.537332E-4
-9.8064964E-5
-0.0015653935
-0.0013470855
-2.3168331E-4
0.001237159
0.0022147365
0.0028847537
0.0025329757
-4.234074E-4
-0.001790641
9.961841E-4
0.003050173
0.0021182757
9.040999E-4
3.6228297E-4
6.181455E-4
0.0016437605
0.0017818573
0.0016968758
0.0019251872
4.9411337E-4
-0.0023505827
-0.003703012
-1.050506E-5
0.0047049993
0.003486999
0.0024772887
0.004674389
0.0030707824
-5.699703E-4
-0.0035410603
-0.00528661
-0.0023443105
6.831119E-4
-3.388695E-4
-0.001532767
-0.0022259927
-0.0030481787
-0.002868925
-0.0025308982
-0.0025928114
-0.0021192846
-0.0014495236
-0.0014793613
-0.0013403319
-7.536041E-4
-5.545874E-4
-7.07927E-4
-5.5726146E-4
5.244876E-4
0.0024373014
0.0051016505
0.0058650817
0.0026731193
2.869735E-4
3.5370278E-4
7.36837E-4
0.0020049966
0.0022890044
0.0029521692
0.0051740394
0.0022902838
-0.0033507473
-0.0032912577
-5.798855E-4
-5.947187E-4
-0.0018247487
-0.001544484
-3.2318587E-4
-7.585731E-5
-2.7091382E-4
-4.279561E-4
-9.305078E-4
-4.2131697E-4
5.29132E-4
1.2538875E-4
-2.0029939E-4
-4.588163E-4
-0.0016559387
-0.0012365895
3.33144E-5
-3.763163E-4
-8.3822693E-4
-0.0010425037
-4.2625907E-4
6.2327756E-4
-6.20097E-4
-0.0012036087
2.3383212E-4
7.928229E-4
3.349228E-4
-0.001863468
-0.0029248893
-1.9070752E-4
5.980651E-4
-3.2347246E-4
0.0015380558
0.0023788193
0.0018207323
0.0026455
6.110931E-4
-0.0015662259
0.0026809198
0.0056468025
0.0035241202
0.0023272173
6.409992E-5
-0.0018788718
4.3988304E-4
0.0014543246
-4.3288004E-5
-4.8430957E-4
8.212525E-4
0.0022100909
7.018763E-4
-0.0018702344
-0.0029894733
-0.0021309997
-5.681719E-4
-0.0017020307
-9.965216E-4
0.0019398482
-4.6871894E-4
-0.0025414773
-1.8549882E-4
-8.31826E-4
-0.0033030724
-0.002485373
-0.0010079744
-0.0018754641
-0.0025103497
-0.001216698
-9.3857915E-4
-0.0021756194
-0.0022134306
-6.846273E-4
8.267391E-4
0.0016915747
0.0015644786
6.7674334E-4
3.6374942E-4
-3.8249316E-4
-7.764613E-4
0.0018066956
0.003334453
0.0017150994
0.0021413798
0.00426083
0.0038147243
0.004581852
0.0074507515
0.003810638
-9.457261E-4
0.001747572
0.0020800093
3.277346E-4
0.0023083608
2.6772654E-4
-0.003719076
-0.0037221322
-0.0022420362
-0.001720806
-0.004167661
-0.0054518078
-0.0036260479
-0.0018603057
2.22226E-4
-9.877024E-4
-0.0031664514
-0.0014676609
-0.0019201221
-0.0022958964
7.750857E-5
-6.853544E-4
-0.0010052642
8.1389607E-4
3.9760544E-4
3.880162E-4
0.0014134692
1.3595233E-4
-9.3977584E-4
3.0053256E-4
7.587399E-4
0.0015686877
0.0029825734
8.462434E-4
3.8712294E-4
0.0032234679
0.0031808878
0.0042561884
0.0049748425
9.889224E-4
-3.1154865E-4
-7.252582E-4
-0.0030546745
-0.0010351633
9.197481E-4
-0.0012021542
-0.0016825339
0.0010449897
0.0028278027
3.344361E-4
-0.002050948
-0.0011812346
-0.0014824325
-0.0020344919
-0.0010507948
-2.968427E-4
5.6629657E-4
-0.0011941496
-0.0041129477
-0.0026522607
-1.8424583E-4
8.742659E-4
0.0017154118
0.0018269244
0.0025903315
0.0023541523
0.0014143664
0.0031195653
0.0030022492
-4.615079E-5
-7.3580485E-4
-4.481265E-4
-0.0011631413
-5.235738E-4
5.47107E-5
-0.0019625018
-0.003629906
-0.0024555898
-4.1111853E-4
2.1468053E-4
-3.317763E-4
3.9790865E-4
5.296443E-4
-0.0027374672
-0.0035577344
6.5491337E-4
0.0032396023
0.0018379919
4.447141E-4
6.9036626E-4
9.017162E-4
0.001978528
0.0028972197
5.7809683E-4
-7.0022565E-4
3.7753338E-4
-3.6795528E-4
-0.0014794609
-0.0014461002
-2.9022244E-4
9.40629E-4
6.3097966E-4
9.909025E-4
0.0011596591
5.6435405E-5
-1.7503685E-4
-9.3056145E-4
-0.0018382983
-0.0016109049
-8.046262E-4
8.2589226E-4
2.9516997E-4
-9.835814E-4
9.739069E-4
0.0012573763
-2.1460357E-4
7.501259E-4
2.0023406E-4
-6.851807E-4
0.0013561458
0.0014280877
-2.4330775E-4
-6.657315E-4
-1.9473792E-4
0.0014550857
0.0018542886
9.1061916E-4
-9.0632465E-4
-0.003246842
-0.0014006426
-3.6144178E-4
-0.002185817
1.7278262E-4
0.0014000693
7.132605E-4
0.0013536087
-7.1504986E-4
-7.9483865E-4
0.0015860231
0.0028399772
0.0040291417
0.0015305358
-0.001671339
-0.0020798468
-0.0018941521
-0.0013191155
-0.0025256446
-0.0016941336
5.251251E-4
-0.0012738854
-6.260033E-4
0.0010452556
6.054446E-4
0.0011122829
-0.0015011232
-0.0028144023
-2.2897821E-4
2.2894518E-4
4.461645E-4
-4.3910908E-4
-0.0015210006
-3.9408598E-4
-0.0017155068
-0.0032274667
-0.0023764884
5.0780636E-5
0.0031923917
0.0030140972
0.003520698
0.005930981
0.0046388824
0.002595125
8.305916E-4
-6.967147E-4
8.468849E-4
0.0011128486
-3.133398E-5
0.001688878
0.0016020288
-0.0016482648
-0.0017789877
-6.5607857E-4
-0.0015258045
-9.238024E-4
-6.278382E-4
-4.0652129E-4
0.0015509259
-8.991695E-4
-0.002767295
-1.1989839E-4
-0.0026194456
-0.005117335
-0.0022689647
-0.0012679785
-9.482155E-4
-0.0013224784
-0.0028974547
-0.0011321177
-2.7041498E-4
-0.0012716092
6.213728E-4
0.0019076726
0.0012285751
6.0132367E-4
-7.2618213E-4
-9.040919E-4
0.001247598
0.0037326375
0.0036807572
0.0010324236
4.6800406E-4
0.0011469815
-1.9927783E-4
-8.05547E-4
-4.7002034E-4
-3.0861952E-4
1.7102876E-4
0.0016562488
0.005935443
0.008924383
0.007669231
0.005122822
0.0011805041
-0.0011209025
2.5427292E-4
-0.0010339738
-0.005768013
-0.007635441
-0.0051353485
-0.0028913724
-0.0017118468
8.024983E-4
4.964809E-4
-0.0026124425
-0.002563006
-0.0023992064
-0.0047137057
-0.005012674
-0.0033472283
-0.0023544338
-0.0019197196
-0.0017617515
-5.657727E-4
0.0016212618
0.0014160371
1.8657073E-4
0.0012957877
0.0017346393
8.7838894E-4
0.0016577635
0.0031336965
0.005072052
0.006658685
0.0062277922
0.005726462
0.0035031731
-7.155019E-4
-0.0011270681
7.701298E-4
0.0016389071
0.0017236321
-0.0016071053
-0.0044935644
-0.0027002508
-0.0013257811
-0.0013991431
-0.0011341547
-3.4263625E-4