1.17916316E-4
-2.757796E-4
-0.0012953744
-2.5786817E-4
7.32E-4
0.0019880796
0.0026304692
6.611367E-4
4.1307323E-4
0.001214047
1.6915845E-5
5.6063547E-4
9.960767E-4
-0.0018357433
-0.0025711043
-0.0016723373
-0.0031584783
-0.002582513
-1.2066566E-4
-2.133724E-4
-4.876553E-4
-7.0091785E-4
-0.0012382761
8.729385E-5
0.0010649659
2.4091253E-4
-0.0012598035
-0.0015602486
2.382885E-4
0.0011550533
0.001547422
0.002346343
0.0016103757
0.0012522113
0.002466079
0.0037751077
0.0041981647
0.003170085
0.0014424897
1.4365127E-4
2.9782404E-6
-7.737557E-4
-0.002783161
-0.0035797425
-0.0036367343
-0.0028619003
-0.001756668
-0.0014393779
-2.5643437E-4
-5.5809057E-4
-0.0015368938
-2.360448E-4
-7.573198E-5
-2.848374E-4
-2.6581791E-4
-0.0010898908
3.533869E-5
9.679889E-4
7.873889E-4
7.535688E-4
8.455695E-5
0.0011003078
0.0012240646
-7.5220375E-4
9.0976193E-4
0.003068827
6.2677107E-4
-0.0016897311
-4.4834588E-4
6.892867E-4
4.1081232E-4
0.0010178582
0.0013438254
6.827495E-4
-4.021982E-4
-0.0014208229
-8.567258E-4
-0.0012408309
-0.0015475224
7.934887E-4
3.6431587E-4
-0.0016895653
-8.013407E-4
0.0010601293
0.0025365907
0.0013564553
-7.887688E-4
-3.4195394E-4
-2.60911E-6
-3.9825187E-4
-7.7748194E-4
-3.861791E-4
5.611894E-4
-7.1295386E-4
-8.5374183E-4
4.990783E-4
-8.0629706E-4
-0.0013370855
-5.164462E-4
-7.6359266E-4
3.1669845E-4
0.002257758
0.0020909838
6.0244865E-4
1.7911213E-4
-4.2979977E-5
-5.137734E-4
-1.7072985E-4
-8.370133E-4
-0.0010641265
0.0012018797
0.0017257526
-9.190519E-5
-4.8054513E-5
7.176556E-4
-0.0013450902
-0.0024002858
3.4042148E-4
8.67122E-4
-0.0010355685
-9.5518713E-4
-1.6587648E-4
3.364856E-4
7.539697E-4
7.449556E-4
-6.955183E-5
-4.712229E-4
8.6909124E-5
-4.6627765E-4
5.480131E-4
0.0010699973
-0.0018251903
1.5901089E-5
0.0025694533
7.967165E-4
0.0019038122
0.001246376
-0.0015905051
-0.0012777348
-0.0023117063
-0.0025485747
-0.0012797173
-2.8446096E-4
0.0024367387
0.0023250093
0.0012669475
0.0019627924
1.0038266E-6
-0.0016731365
-0.0016931471
-0.001167164
2.6815856E-4
-1.3568424E-4
-9.0080866E-4
-4.839074E-4
2.25525E-4
9.678081E-4
9.842094E-4
0.0017142226
0.0012842746
6.7429505E-6
9.1352116E-4
-7.7207113E-4
-0.0034310014
-0.0023963181
-0.001260608
1.02118975E-4
0.0011046203
1.7845987E-4
4.841824E-4
0.0010732069
2.6361854E-4
-4.118326E-4
-1.8471837E-4
4.7360914E-5
-3.3903674E-5
0.0010179672
8.696258E-4
-0.001543443
-0.0019319836
-1.01948426E-4
0.0010660324
4.7760244E-4
6.9019276E-5
0.0016657114
0.0018430703
-3.275576E-4
-5.54579E-4
0.0010003587
7.4592786E-4
9.0486155E-4
0.002412471
-1.7936793E-4
-0.002271026
5.645489E-4
2.1405485E-4
-0.0017586123
-7.5254234E-4
-8.899223E-4
-0.0016071212
-0.0014984699
-0.0010637203
-9.114072E-5
3.168857E-4
1.07241416E-4
-6.081413E-4
-5.5294274E-4
2.9675732E-4
2.0222024E-4
-1.3441693E-4
-2.9648142E-4
4.558626E-4
0.0011400334
6.009073E-4
5.4293504E-4
-2.5203617E-5
-3.751596E-4
-2.2089397E-4
-0.0012721275
-0.0010771648
6.8410474E-5
0.0015528396
0.0026707621
0.0016604316
0.0018484326
8.370848E-4
-0.0019555606
-0.0013807169
-0.0013147373
-0.0010123926
0.0014417496
7.95269E-4
-1.0146217E-4
3.858694E-4
-1.18579446E-4
-3.0320615E-4
-9.335287E-4
-6.553497E-4
8.7655336E-4
5.481721E-4
9.4452735E-5
1.16374475E-4
-8.4206136E-4
-4.2755157E-4
6.43378E-4
-6.832328E-4
-0.0016364992
-5.0929066E-4
-2.6977522E-4
-1.48657155E-5
0.0011557622
6.2300137E-4
-8.313994E-4
-8.566139E-4
1.5751083E-4
1.1323572E-4
-8.065576E-4
-4.016106E-4
7.286986E-4
0.0019783198
0.0024782652
0.001328747
0.0010587691
6.8240677E-4
-0.0010332866
-0.0013814488
-0.0012987789
-0.0014738147
-8.2726934E-4
2.2389919E-4
6.568521E-4
-7.0497324E-4
-0.0010892294
-1.283161E-4
-4.278128E-4
7.6499063E-4
0.0014719559
-4.3081652E-4
-1.01547135E-4
5.151517E-4
-4.0304498E-5
8.760622E-4
0.0010540138
6.496988E-5
-0.0017451906
-0.0023447918
0.0010138537
0.0016944383
-0.0013719288
-6.979199E-4
0.0013971975
0.001216266
0.0012042596
0.0015215382
9.292115E-4
-8.4048035E-5
-4.8521627E-4
-3.909225E-4
-4.951555E-4
-8.493542E-4
-0.0016758599
-0.00238593
-0.0012214357
0.0010821077
8.25554E-4
-8.980808E-4
-1.5405441E-5
5.6435564E-4
-3.0048878E-4
3.6485854E-4
-1.648363E-5
-0.0011337997
-6.401482E-4
-8.993674E-4
-9.97332E-4
1.9684606E-4
9.77307E-4
0.0012351698
1.606307E-4
-0.0020420204
-0.0015300625
0.0022618424
0.0030724166
7.772423E-4
8.553946E-4
3.9661248E-4
-1.2528851E-4
0.0025356137
0.002657189
2.0747643E-4
-6.2772E-4
-5.2594416E-5
3.5751858E-4
-8.974979E-4
1.0822302E-4
0.0014885479
-0.0013802471
-0.0020112914
-0.0010387825
-0.0016161551
-6.183677E-5
-5.211519E-4
-0.0034597258
-0.0027304022
9.869798E-5
6.1910413E-4
-0.0014166823
-0.001964608
-1.3329762E-6
0.0013809414
0.0010876567
-7.941396E-4
-0.0014147912
5.212613E-4
0.002510423
0.0032903862
9.7564096E-4
-0.0012435326
1.1126819E-4
1.6975078E-4
1.2779598E-4
0.0026981272
0.002903997
0.0011640063
3.010279E-4
-8.938949E-4
-0.0018232111
-8.0755237E-4
6.0576206E-4
1.7631093E-4
4.778027E-4
0.0010344855
-0.0013900972
-0.0019483326
-7.19304E-4
-0.0012834646
0.0013520118
0.0033913737
-0.001139703
-0.0039486336
-0.0018128627
-4.4681143E-4
-5.17775E-5
0.0011722452
0.0012568452
4.945456E-4
7.777516E-4
-6.5234915E-4
-0.0019521508
1.624755E-5
1.6888403E-4
-1.821384E-4
0.0013684671
7.0576405E-4
6.6130556E-4
0.0016543623
2.617084E-4
-5.2751886E-4
-4.4150054E-4
-1.4132584E-4
8.8140595E-4
2.5633019E-5
-0.0010214719
7.6507E-5
-9.907119E-5
-0.0014106424
1.9281358E-4
0.0015718907
-0.0010693892
-0.0022328054
-1.3856482E-4
-4.887894E-4
-0.002153365
-9.572337E-4
-2.0865006E-4
-0.00122395
2.6428286E-4
0.0015103488
1.9465756E-4
5.5855885E-4
7.758554E-4
5.1334227E-4
0.0017437998
6.502248E-4
-5.2764645E-4
-8.6701206E-5
-6.1004754E-4
5.287595E-4
0.0019320118
0.0025217915
0.004062429
0.0028414964
-6.153711E-5
-0.0010420037
-0.0011980672
-0.0012342423
-0.0023177313
-0.0031319386
-0.0012873926
8.797428E-5
-1.7409835E-5
0.0015706464
0.0017015465
-9.4169856E-4
4.1352885E-4
0.002038088
-7.6335395E-4
-4.2833068E-4
1.0795468E-4
-0.0030856535
-0.002911856
-8.7634876E-4
3.7891289E-6
-2.1486575E-4
-0.0013011656
2.4259825E-4
2.1050757E-4
-0.0015763122
2.869514E-4
8.6084375E-4
2.651271E-4
4.1430042E-4
-0.0011572274
-7.632967E-4
-3.8393485E-4
-0.0014366548
-6.385906E-5
-2.090884E-4
-0.0010388712
0.001725439
0.0040796795
0.003639554
0.0029074755
0.004011826
0.004292491
0.0018936626
6.057529E-4
2.483481E-4
-0.0015139786
-0.0032805218
-0.0027239807
-3.8616944E-4
-2.8485857E-4
-5.548467E-4
0.001112203
3.273401E-4
-0.001256539
-9.470295E-4
-0.0010750417
-0.0019526203
-0.0033924212
-0.0029290067
-7.48565E-4
-9.812756E-4
-0.0014132179
-6.0734554E-4
-6.1985024E-4
-0.0015223107
-0.0028428636
-0.0026482602
-0.001197611
0.0011702206
0.0040486446
0.0035093615
0.0029537112
0.0055517447
0.005612034
0.0022691342
-0.0014262055
-0.002899483
-5.972239E-4
0.0020718465
0.0025106615
0.001763173
0.0017346668
0.003020013
0.0046321237
0.005421493
0.002873609
-0.0021599918
-0.006056299
-0.0078007714
-0.006036664
-0.0035186296
-0.005137691
-0.0067218044
-0.004325317
-0.0032134987
-0.004741872
-0.003282876
2.971727E-4
0.0023865432
0.0029054047
0.0013137665
7.536731E-4
0.0023479695
0.0029798069
0.0031291419
0.002366251
0.0030105521
0.0056199543
0.0045190784
0.0019774225
7.52822E-4
0.0017652707
0.0055092988
0.005482535
0.00398893
0.0046166475
0.0029617965
-0.0010871323
-0.007961469
-0.011984467
-0.008986373
-0.0067066676
-0.004196498
-9.725964E-4
-0.0015616968
-0.0020735017
-0.0020489134
-0.0024969098
-0.0015350278
1.8003152E-4
0.0031466205
0.0052731987
0.0035146307
4.6543952E-4
6.086076E-4
0.0041921306
0.005743039
0.002401611
-0.0011800041
-5.6568213E-4
0.0013351465
5.87842E-4
-7.5591676E-4
-0.0011196252
-6.8241404E-4
-4.9156344E-5
-5.1915005E-4
-8.9834805E-4
-0.0016938242
-0.002643118
-0.0024489602
-0.0030403652
-0.0031095336
-0.0028483632
-0.0031153876
-0.0020456412
-0.0017241504
-7.1622245E-4
0.0011908307
0.0019802803
0.005561375
0.008882727
0.008976933
0.007948954
0.005386845
0.0046040365
0.0033282808
-7.160516E-4
-0.0022496453
-0.0028532827
-0.0031984951
-0.0027430481
-0.0035692924
-0.0042674136
-0.00633191
-0.006831133
-0.002648609
-3.9163733E-5
8.0282893E-4
0.0018499766
0.002062565
0.0019211635
-0.0010601428
-0.004564622
-0.0035745532
-0.0010543811
-6.4454897E-4
-0.0010232226
-3.9123197E-4
9.2886075E-5
0.0012610063
0.004552158
0.0070730164
0.008310374
0.0070245625
0.0026268666
0.0015114018
0.0020364393
-0.0016843381
-0.005761762
-0.007323001
-0.006485629
-0.003915661
-0.0033672177
-0.0044024177
-0.0041824384
-0.0026920354
-1.4277175E-4
0.0024336928
0.0036820644
0.004104101
0.0067009684
0.0096921865
0.00473642
-0.0040725125
-0.0066173337
-0.0068710013
-0.0055165407
0.0014500757
0.0065152263
0.006355645
0.005286832
0.0035435245
0.0024377352
0.0021274423
-8.071775E-4
-0.005091113
-0.00564691
-0.0027044078
-0.0020039137
-0.0032468128
-0.0023274631
-1.5048805E-4
0.0024353664
0.0030465296
3.951118E-4
-0.0012748839
-0.0018450074
3.368345E-4
0.0058526867
0.0059477407
0.0029733933
0.004564561
0.0058046337
0.0030748418
-0.0015429453
-0.0038999275
-0.0024235956
-0.0022203636
-0.0041915183
-0.0054098647
-0.0044929814
-0.0022453526
-0.0032512785
-0.0063159238
-0.007049004
-0.005955434
-0.0030068636
1.266548E-4
0.0011824323
9.767733E-4
-4.927643E-4
-0.0018416417
-9.943657E-4
4.356882E-4
-3.225865E-4
-0.0030138395
-0.0055648885
-0.005512556
4.8452968E-4
0.009422594
0.0149888415
0.017522035
0.018427039
0.019779788
0.020401847
0.01270607
-4.474866E-4
-0.011800493
-0.019778036
-0.018908681
-0.009077439
0.00113213
0.005751893
0.0048965835
0.005149897
0.005920103
-2.8909923E-4
-0.009276982
-0.014459355
-0.014399285
-0.0088829575
-0.006265741
-0.009005544
-0.0069106948
-5.575838E-4
0.002906849
0.0026475184
-5.051362E-4
-0.003629045
-0.0058495565
-0.0059657544
-3.3964554E-4
0.0059814113
0.009835098
0.015432593
0.019035375
0.016476676
0.0138664935
0.01355085
0.0067090075
-0.0055389144
-0.012387647
-0.01751886
-0.020349255
-0.012730286
-0.005374766
-0.0032731239
-0.0010356121
-0.0021722992
-1.10203924E-4
0.007832897
0.0078762425
0.0030296266
0.004490369
0.006456694
0.0042881253
0.0020289007
-0.002335306
-0.008559702
-0.010429115
-0.008271689
-0.0029341513
0.0037635916
0.009238606
0.016526692
0.019052597
0.012521738
0.008032379
0.006104526
-1.8194299E-4
-0.010010807
-0.01904366
-0.020127628
-0.011973516
-0.0027134118
9.850581E-5
-0.0015894148
-0.0018501396
-0.0043332144
-0.008966856
-0.0066145174
-4.320463E-4
0.0020350914
0.0036770767
0.0063983337
0.008037435
0.008887754
0.009783354
0.010486945
0.007807889
-8.4571197E-4
-0.008622917
-0.010908867
-0.010134883
-0.0054338328
-0.0013248164
-4.6180873E-4
0.0017873595
0.0016784315
-3.1449806E-4
-0.0012205286
-0.004490582
-0.0048589907
-3.1466768E-4
0.0045800125
0.008164344
0.005869286
-0.0014384165
-0.00870418
-0.01098842
-0.0059087663
-0.0014652577
-6.512047E-4
-0.001491259
-9.7285403E-4
0.0075724428
0.014752163
0.014003753
0.015006212
0.017093118
0.01717063
0.011997502
1.4812694E-4
-0.0073028123
-0.012306533
-0.0195285
-0.019162932
-0.013616931
-0.010033449
-0.0057145613
-0.0013096142
-0.0011017725
-0.003481091
-0.0025637508
0.001281825
0.0037560116
0.0015268216
-0.0060744863
-0.009099427
-0.002371436
0.005358073
0.010135298
0.013577709
0.013617466
0.0058404845
-0.0048328186
-0.005913589
-9.853357E-4
3.38665E-4
8.351064E-4
0.0028983748
0.005104968
0.0038256496
-0.0020265093
-0.0034261092
0.0022640412
0.00653684
0.009152168
0.010844884
0.0036404815
-0.0070320875
-0.008139501
-0.0037384287
-0.0015238593
6.405921E-5
0.0051296894
0.012547351
0.014855953
0.009754872
0.0020575265
-0.0027781161
-0.003718456
-0.002568487
9.045055E-4
-7.435052E-4
-0.008261065
-0.015986508
-0.03486467
-0.05256493
-0.04524398
-0.026334718
-0.0029662221
0.018930776
0.015984047
-0.0021949955
-0.013586503
-0.010208274
0.009085367
0.022380212
0.020199316
0.010834992
-0.0035482617
-0.003522862
0.010519045
0.02464547
0.04735502
0.054203197
0.027361987
0.0016718777
-6.886344E-4
0.009752236
0.00875432
-0.011515291
-0.028265867
-0.019037062
0.002363865
0.013621542
0.039123945
0.074310675
0.08666053
0.08526793
0.056744937
0.024748003
0.025270317
-0.008483579
-0.09039416
-0.1509042
-0.16505785
-0.14312834
-0.0852248
-0.009083033
0.012395325
-0.030559275
-0.07717154
-0.090171166
-0.05658087
-0.0409833
-0.05086102
-0.035877705
-0.03280557
-0.0058801225
0.03955055
0.017121319
-0.011111492
0.00598363
0.057807386
0.1452909
0.23158698
0.27485874
0.27091214
0.28632137
0.26904193
0.12623148
0.015765645
-0.0020874809
-0.05856836
-0.12842798
-0.16972163
-0.24441108
-0.2967689
-0.20782259
-0.06504868
0.015582251
0.035718095
-0.044893913
-0.13168997
-0.10733146
-0.05937408
-0.02644174
-0.03564034
-0.08314853
-0.07771362
-0.090646096
-0.12851761
-0.05258868
0.07479471
0.1353654
0.19116797
0.28032807
0.27899295
0.15199357
0.03334
0.0061154235
0.043078095
0.06541138
0.040060166
-0.06699779
-0.27255023
-0.35104203
-0.20081705
-0.07543544
-0.006907874
0.15356089
0.27759433
0.25576884
0.223902
0.22102726
0.1456164
-0.03218227
-0.24734794
-0.3358525
-0.24302211
-0.098847575
0.08151434
0.27607176
0.3612007
0.29940248
0.06647479
-0.2226681
-0.3503497
-0.319635
-0.22241177
-0.14710791
-0.14029138
-0.102986924
-0.037624598
-0.015418807
0.012941257
0.049083844
0.08946585
0.13963836
0.08958837
0.001970509
0.046934508
0.09262302
0.045547787
0.04787427
0.076346956
0.07705327
0.12303668
0.17304844
0.17370571
0.13769655
0.02915033
-0.122862704
-0.1839229
-0.11631165
-0.050866485
-0.06752204
-0.11310618
-0.12393705
-0.06378715
-0.016911857
-0.04574158
-0.024837121
0.03761135
0.03156661
0.0016284687
-0.010031166
0.014075274
0.055227492
0.033734802
-0.017136255
-0.012041125
0.066319674
0.16953357
0.19708355
0.087192595
-0.0907176
-0.15108229
-0.049818072
0.037090424
0.010657109
-0.070994735
-0.10997281
-0.08537242
-0.054474074
-0.026456673
-0.0033590272
0.0052136374
-0.013797922
-0.061839852
-0.05505675
0.0025728603
0.052701436
0.10105529
0.08137668
0.01440713
-0.004618078
-0.008545632
-0.001070977
0.029735198
0.042262748
0.028009843
0.008942923
0.024804417
0.046384286
0.025718613
-0.004817684
-0.02817738
-0.021877
0.028805194
0.069205396
0.07594943
0.04747962
-0.024947476
-0.09030496
-0.10032525
-0.09006858
-0.079627216
-0.037558805
0.013589318
0.05025434
0.060613718
0.0020522263
-0.053271923
-0.01743123
0.04208758
0.042587243
-0.020530373
-0.06457131
-0.03723929
-0.010008203
-0.008681735
-0.010588873
-0.014695422
-0.0036191684
0.008570801
0.012009421
0.0178044
0.018089866
0.01922352
0.016559543
0.008699965
0.008721941
0.006970848
0.007448157
0.014180402
0.018432628
0.02567821
0.030292625
0.026117858
0.01605619
-8.8656513E-4
-0.017087748
-0.027707385
-0.032809723
-0.026074348
-0.009917923
0.005527961
0.012837238
0.006579228
-0.002208833
0.0015512763
0.007365494
0.0033233063
-0.008784353
-0.022351326
-0.025279118
-0.021220706
-0.017242111
-0.008520439
-0.0022390168
1.3384403E-4
0.006842389
0.008793753
0.0015199264
0.003766379
0.022489166
0.035702575
0.04061138
0.049751457
0.037200913
-0.00862486
-0.048231486
-0.057960533
-0.046093237
-0.027752977
-0.015980866
-0.012335612
-0.0103263855
-0.005617618
2.298273E-4
0.0064473194
0.011850915
0.013679293
0.0184083
0.027412668
0.029738972
0.018211547
-7.999269E-4
-0.008610109
-0.008253426
-0.011406861
-7.611693E-4
0.015794758
0.01418698
0.014213518
0.020820817
0.011927919
-0.0010030378
-0.003392658
-0.0054929196
-0.009218471
-0.008960326
-0.011706228
-0.019963253
-0.019951317
-0.012042658
-0.011003284
-0.011766248
-0.007093435
-6.846721E-4
0.013050886
0.02906959
0.032508112
0.022770636
0.003422996
-0.011929861
-0.013237092
-0.011838656
-0.008110267
3.6795577E-4
0.00555226
0.0077822558
0.0065794787
0.0027949621
9.558636E-4
-0.002865033
-0.009385743
-0.0126295565
-0.011904468
-0.011452359
-0.010837499
-0.0080117285
-0.0055933804
-0.0022011553
0.0045959977
0.011560926
0.015857074
0.019215269
0.024031855
0.026234034
0.023574803
0.019621978
0.01572355
0.012306375
0.0065379776
-0.004010951
-0.014191005
-0.01956165
-0.022815885
-0.028039869
-0.03350254
-0.037455514
-0.039707825
-0.039666284
-0.037098814
-0.02389527
-9.972985E-4
0.016059075
0.0261289
0.034501716
0.03639726
0.030944055
0.02526525
0.016381377
-0.0025363276
-0.024244655
-0.041417625
-0.04031103
-0.014747038
0.016630044
0.05027102
0.081197135
0.106628075
0.120871395
0.07327558
-0.016721286
-0.074507274
-0.09372514
-0.076733544
-0.051977478
-0.053210735
-0.04776719
-0.0339221
-0.028168375
-0.023266666
-0.020473802
-0.0080274185
0.02010714
0.06124666
0.08825367
0.07111414
0.03973479
0.0034689594
-0.03403921
-0.04130894
-0.041264582
-0.042312574
-0.02720037
-0.0127044255
8.5926895E-6
0.0108479345
0.01418751
0.015428211
0.015353605
0.019188978
0.020287111
0.01679174
0.012797077
-0.007159532
-0.0305519
-0.035578568
-0.03172568
-0.025215214
-0.0144681595
-6.983023E-4
0.009464674
0.013470514
0.018332185
0.021342678
0.021457097
0.020288186
0.015751112
0.013818115
0.011824399
0.0061612534
0.0011899546
-0.006157102
-0.013490008
-0.017965855
-0.020598158
-0.018900206
-0.016449567
-0.011897359
-0.0050191972
-1.963946E-4
0.0073498995
0.012443262
0.012505295
0.0156073375
0.015442852
0.010643566
0.007822964
0.007316769
0.006719716
0.0022679265
-3.0645577E-4
-0.0013717109
-0.007019063
-0.010503678
-0.014031646
-0.018757762
-0.018212643
-0.016679404
-0.015248784
-0.014152864
-0.013588842
-0.011615408
-0.010431577
-0.00663836
-0.0025649094
-0.0013581507
7.8817835E-4
-6.026637E-5
-0.0036618416
-0.007814709
-0.00843463
-0.0022738255
-2.3148152E-4
0.0013858348
0.007832021
0.013162605
0.025805874
0.04301487
0.0519083
0.047198124
0.03523816
0.03192507
0.020233743
-0.00552241
-0.014114747
-0.015240424
-0.023485558
-0.026342815
-0.026735412
-0.024249636
-0.01738084
-0.00903314
0.0014839328
0.003614919
-8.8249607E-4
-0.001175863
-0.0029346661
-0.011885463
-0.024074037
-0.027047541
-0.01724193
-0.0075589684
-0.0027522915
9.4578776E-4
0.006855428
0.01328401
0.013820956
0.012196861
0.011664242
0.008579754
0.005450845
0.0041710883
0.0033842037
0.0021885806
0.0017244316
0.0037283099
0.002985399
-6.829343E-4
-0.0016900719
-0.002400093
-0.0030273362
-0.0016248705
9.484777E-5
0.0013571877
0.0014483767
0.002707591
0.005125823
0.0051126448
0.0033737647
7.957028E-4
6.220407E-4
0.0017444445
-0.002062948
-0.0044679563
-0.0022882938
-0.002566874
-0.0040647737
-0.004741603
-0.0049743694
-0.0026282545
-8.422158E-5
-0.0017421442
-0.0054994635
-0.0050099543
-5.072878E-4
0.0023010892
0.0025039157
0.002505345
0.0032714263
0.0032174306
0.00128697
-8.0514624E-4
-0.0020170682
-0.0021019706
-0.0015511079
-0.0011132119
-2.9171808E-4
0.0013456362
0.003466595
0.0037536498
0.0016912493
4.0066766E-4
5.6578225E-4
7.5360545E-4
3.0735874E-4
-1.5074729E-4
-1.2790483E-4
-1.3496027E-4
-1.1969714E-4
-7.6023093E-4
-0.0013432713
-0.0018505714
-0.004427851
-0.005737375
-0.004511239
-0.0041910596
-0.0034014839
-0.0012254615
9.4853155E-4
0.0031301002
0.006030681
0.007030792
0.002447228
-7.354786E-4
2.3585093E-5
-0.0030575283
-0.004401082
-9.3084446E-4
-0.0013054345
-0.0030446379
-0.0027852834
-0.0026526623
-0.0014929611
-0.0013943133
-0.0026725077
-0.0018999274
-0.0010425077
-0.0021044791
-0.0028714435
-0.0016376623
8.632801E-4
0.0020019298
3.7990927E-4
-4.9886014E-4
0.0020391657
0.0028563985
2.855357E-4
0.0010333816
0.0049525034
0.0071482672
0.008471081
0.01072226
0.012382657
0.009522457
0.0039818026
0.0023960127
0.0014313657
-0.0029556428
-0.005290612
-0.004190317
-0.003996024
-0.0075062243
-0.012386606
-0.012742397
-0.008406503
-0.004385686
-0.0033372366
-0.0019905816
0.0015061831
0.002474242
0.0020263772
0.0019350722
-0.001467093
-0.0038746279
-0.0025732694
-0.0013796056
-1.0073221E-4
1.765313E-4
2.845604E-5
0.0024267985
0.0045070453
0.0034588599
0.0015441583
0.0019038747
0.003714441
0.0059873094
0.008964106
0.009104397
0.0055386657
2.1276591E-4
-0.0040859524
-0.0036051823
-0.0027892597
-0.004012651
-0.0028732943
-0.0027637053
-0.0063816654
-0.0077765686
-0.005006749
-0.0039018625
-0.004214121
-0.0012878281
-5.5733556E-4
-0.0030537595
-0.0022040745
1.5531963E-4
0.0024889272
0.0041096583
0.002949403
0.0013287961
5.1114324E-4
0.0010772976
0.0022038121
0.0035733161
0.0066447887
0.008708205
0.009985162
0.010805845
0.009643571
0.009732191
0.010059743
0.008211191
0.0038377852
-0.004059353
-0.011988177
-0.017290337
-0.017237805
-0.010529628
-0.0045358553
-0.0036653364
-0.0052527967
-0.0062089507
-0.0051572192
-0.0027181234
-0.0015849179
-0.004162242
-0.0054381755
-0.0025759698
-9.156245E-4
-9.989099E-5
0.0015760118
0.0022758497
0.0037625483
0.006686968
0.0082580745
0.0077942023
0.007024826
0.0063300473
0.005724579
0.0053294855
0.0047653634
0.0041824705
0.0012813029
-0.0018706488
-0.0011336649
-7.813011E-4
-6.500005E-4
5.932136E-4
-8.419752E-4
-0.0023852277
-0.0028318781
-0.0016670999
0.0018831711
0.0018128305
-0.0014905725
-0.00474044
-0.007496934
-0.0063261837
-0.0040273564
-0.004150964
-0.0023737792
0.0021116901
0.0050797155
0.0052427882
0.0037315765
0.0012659781
2.1106537E-4
0.002279658
0.004336105
0.0023983368
-0.0017199113
-0.0017972926
0.0020519304
0.00458764
0.005253092
0.004211932
0.0010686525
-0.0016059027
-0.0019295764
-0.0010999542
-0.0015804052
-0.0039623277
-0.006514856
-0.0056684
-0.002116657
-0.0018290633
-0.0029796758
-0.0017523055
-0.0017702561
-0.002676023
-0.0010712593
4.8505893E-4
2.4653797E-4
0.0010302437
0.0017678587
0.001857147
0.004038378
0.0045008208
0.003300845
0.0034722304
0.0013643237
9.404924E-4
0.0036616449
0.003424657
0.0022151917
0.0012340044
8.278279E-4
0.0013754874
-2.0905558E-5
-0.0010721796
-0.0011320842
-0.0018005854
-0.0021017499
-0.0014740371
-8.282407E-5
-7.5668585E-4
-0.0010444585
0.0011793801
5.131376E-4
-0.0012607968
-0.0010735976
-5.090983E-4
3.3881737E-5
-4.2798338E-4
-5.150448E-4
-6.5485894E-4
-0.0011664111
-1.8147279E-5
3.411968E-4
3.599367E-4
6.452515E-5
-0.0018984271
-0.0015003354
-9.450242E-4
-0.0025059565
-0.0015044924
5.9603044E-4
5.777524E-5
-1.5899488E-4
0.0024741774
0.003061554
4.110281E-4
2.7008742E-4
0.0014770444
0.0017779247
0.0025637958
0.0017461337
-2.9305567E-4
-1.1519128E-4
0.0013670232
6.296482E-4
-8.509059E-4
-5.051963E-4
-0.0012739734
-0.0016061469
4.0340988E-4
3.5549753E-4
-5.5804165E-5
5.7280716E-4
-5.492076E-4
-3.6858974E-4
0.0018872253
0.0014094952
-0.0018779046
-0.0026776788
-2.2560121E-4
0.0011479551
0.0012666119
7.63171E-4
-5.2516116E-4
-5.516339E-4
-3.4577286E-4
-9.555055E-4
-0.0018541083
-0.002304625
4.4659566E-4
0.0030025344
0.0010100624
-6.9736165E-4
5.492204E-4
0.0010986386
-0.0015458575
-0.004405145
-0.0031586718
-5.5176084E-4
6.899021E-4
0.0015852773
0.0013732151
0.0015358544
0.002499954
0.0019199091
7.022264E-4
3.503534E-4
0.0021089003
0.004168332
0.0030414367
0.00114359
6.1849155E-4
7.3252275E-4
4.1731988E-4
-1.2657058E-4
6.1984244E-4
-0.0011056206
-0.0044281497
-0.004272692
-0.0035267477
-0.0019369236
3.5921982E-4
7.772646E-5
-3.7797668E-4
-7.8249915E-4
-5.379949E-4
7.135283E-5
-0.0010879603
-0.0010711779
-8.742989E-4
-4.1460077E-4
8.20216E-4
-6.3246254E-5
0.0010976567
0.0021505416
6.1023276E-4
0.0020954353
0.0032768361
0.0027893488
0.0020298683
-4.7972737E-4
-0.0015068565
-0.0013685689
-4.186694E-4
-2.5227882E-5
-0.0024450733
-0.0019634531
-4.6052842E-4
-9.1297465E-4
9.886516E-4
0.0018074071
-1.159499E-4
-0.001385393
-9.576515E-4
0.001009421
0.0014872508
4.308094E-4
1.428634E-4
6.070235E-4
0.0010600467
0.0014573951
0.0030712117
0.0026583695
-5.9666538E-5
-4.7519853E-4
-0.0014475205
-0.0024042316
-0.0010729079
-6.8088947E-4
0.0010084135
0.0015727617
-0.0012804721
-9.930102E-4
-9.568621E-4
-0.0030470658
-0.0014020915
1.9628054E-4
-3.6134454E-4
-1.7223794E-4
-1.20155346E-4
-4.9670745E-4
-9.3219435E-4
1.7527344E-4
0.0016897381
9.7638567E-4
0.001132689
0.0010858831
-2.6262787E-4
5.1455834E-4
6.9524416E-5
-9.065562E-4
9.004633E-4
0.0011089689
1.5220411E-4
-1.3012964E-4
-1.6673551E-4
0.0010833403
7.744933E-4
-9.389613E-4
-0.0013363988
-0.0013375974
-0.0010590961
-0.0011259741
-9.784754E-4
9.6888485E-5
2.1483707E-4
4.7728245E-4
0.001293169
7.6106185E-4
6.0702546E-4
0.002134411
0.0021999038
6.4206595E-4
8.416289E-4
5.8809516E-4
-0.0011020399
-9.700545E-4
-8.128249E-4
-0.0010099632
6.0741884E-5
0.0010993765
0.0015173721
6.979483E-4
-9.504084E-5
4.109971E-5
5.5052934E-4
1.5833773E-5
-0.0042572976
-0.0054348363
-5.616145E-4
0.0014438451
0.0016151582
0.0015842624
-5.40788E-4
-4.964355E-4
-5.5265275E-4
-0.0016599214
8.395131E-4
0.0025394198
8.033822E-5
-0.0011041511
3.6638358E-4
3.2524273E-4
-2.8781773E-4
5.2438804E-4
3.624492E-4
3.297929E-4
9.431689E-4
-3.143873E-5
-7.766936E-4
-3.1940054E-4
-4.288722E-5
-2.6614682E-4
-1.0338421E-5
0.0012617406
0.0014834862
6.4929394E-4
9.3343144E-4
0.0015881046
9.09555E-4
-2.7080294E-4
-1.3032103E-4
3.0172864E-4
-2.6743868E-4
-8.0986694E-4
-8.5910776E-4
-8.85018E-4
-7.518944E-4
-1.4987712E-4
-0.001177895
-0.0026230498
-6.446057E-4
4.5155748E-4
-4.6863558E-4
5.716093E-4
2.7148786E-4
-9.317963E-4
1.8213919E-4
9.361327E-4
8.137646E-4
0.001035814
8.9948927E-4
3.026414E-4
7.9119613E-4
0.0014353228
2.1414088E-4
-2.2124496E-4
-9.1654074E-5
-0.0011555877
-4.8500267E-4
9.638179E-4
8.84901E-4
3.750827E-4
-9.628429E-4
-0.0023700823
-9.3275E-4
0.0011373804
1.123485E-4
-8.426222E-4
-5.984068E-4
-0.0013164354
-6.2564685E-4
0.0012452054
0.001737599
6.686304E-4
-2.4928353E-4
6.0450635E-4
0.0011726982
0.001690307
0.0017861142
1.3501175E-4
-1.9847248E-4
-5.154723E-4
1.9608345E-4
0.0032395588
0.0026243273
-2.9027494E-4
-0.0025554406
-0.0043415576
-0.0045524198
-0.0037682785
-6.845727E-4
6.326616E-4
-0.001781823
-9.2304626E-4
0.0016343433
0.0013243741
1.2410086E-4
0.0010593535
0.0016836427
-6.59048E-4
-7.469684E-4
2.3832357E-5
2.758725E-4
0.002735047
0.0020157082
0.0012016954
0.002491272
0.0017629245
0.0020218908
4.4333484E-4
-6.6624105E-4
0.0012208846
-2.120631E-4
-1.4793855E-4
-2.2515142E-4
-0.0031288033
-0.0013462778
1.6200925E-4
-4.6996181E-4
-3.5643752E-4
-0.0025449712
-0.0046428707
-0.0047460333
-0.0020964637
0.0010104005
0.0011506835
0.0016866206
0.0014773456
7.077193E-4
0.0016808639
3.0285981E-4