-0.0015107066
8.5423613E-4
0.0012100938
0.002438256
0.0014509676
-0.0019287267
-0.0022435922
-0.0031772007
-0.0028794222
-1.6432094E-4
-0.0014909684
-0.001970565
8.366994E-5
9.180933E-4
0.0015437306
4.3017737E-4
-2.8850688E-4
9.24949E-4
0.0012305025
7.4081874E-4
-9.381992E-4
-0.002724975
-0.0022575024
-2.7383046E-4
0.0015998697
0.0019347138
3.6740478E-4
5.505559E-5
0.0022178881
0.001406177
-3.816767E-4
0.0010878277
-4.4254813E-4
-0.0018299777
0.0010484166
0.0014175762
4.5997492E-4
-2.3464295E-4
-0.0011008052
-2.5166792E-4
-2.525163E-4
-1.599241E-4
7.956376E-5
-9.252873E-4
-4.5408346E-4
-7.931248E-6
5.620548E-4
0.0014075743
1.0288244E-4
3.7755535E-4
0.0018857375
5.368203E-5
-0.0028046633
-0.0026156984
-4.2307746E-4
5.919371E-4
0.0018829899
0.0031041468
0.0011637126
-3.4207688E-4
-4.7179428E-4
-0.0020347307
-0.0025572402
-9.4415765E-4
0.0016063983
0.0026206884
1.527448E-4
-9.375318E-4
4.7589056E-5
-0.0014049344
-0.0016224085
0.0013657551
0.0019163681
-3.7340273E-4
-6.191174E-4
7.3430705E-4
-7.069766E-4
-0.0014483832
0.0014509135
0.0013244649
-7.283807E-4
-4.6824457E-4
-9.146134E-4
2.1602941E-4
0.0026235478
0.0013803928
-0.0011088507
-0.002549631
-0.0021910348
-0.0012770904
-0.0014553001
6.922838E-4
0.0020366497
0.0011281399
0.002153483
3.0203044E-5
-0.0029433921
-0.0010972073
-0.0013361017
-0.00231369
6.886029E-4
0.0034589195
0.0040826513
0.003151371
0.0026897718
0.0018381426
-0.001296682
-0.0031103424
-0.0034110327
-0.002469858
-4.6737748E-4
-3.484069E-4
8.583484E-4
0.0030115335
0.0028785116
0.0022806262
0.0010451588
-1.260944E-4
-0.0014718487
-0.0044943728
-0.0048623523
-0.0027884792
-0.0020688975
-4.3260312E-4
0.0021802972
0.0025294344
0.0017432417
6.9397426E-4
-0.0011607563
-8.849303E-4
4.964396E-5
-8.320688E-4
1.0280939E-4
0.0012713373
0.0010175545
0.0015093982
0.0017770824
0.0023756884
0.0010660357
-0.0014687087
3.5370342E-4
0.0015680502
-5.261003E-4
-0.0016008812
-9.767121E-4
7.661305E-4
2.0896488E-4
-0.0013669367
-5.164256E-4
-8.004645E-4
-0.0017220336
-9.758187E-4
-5.712888E-5
-3.137454E-5
-6.58193E-4
-2.8311854E-4
1.1927776E-4
3.457256E-4
0.0010326398
-3.8700615E-4
-0.0013865681
3.987153E-4
8.8698743E-4
-5.1912834E-4
-9.719251E-4
-4.592145E-4
-3.5101955E-4
2.2696363E-4
0.0015941738
0.0020622658
0.0013366294
-3.8075203E-4
-0.0012229535
1.2817321E-4
9.97224E-4
5.878718E-4
-1.3477387E-4
-6.007567E-4
6.020672E-4
0.002629987
0.0032533365
0.0020490596
9.48844E-4
0.0011113647
1.7775084E-4
-0.0023944566
-0.0034655528
-0.001296983
0.0017499011
0.0019781482
3.8890494E-4
-3.2369493E-4
-7.640458E-4
-0.0015950707
-0.0031894532
-0.0036920921
-0.001166375
-4.1901474E-4
-0.0015821663
4.8525337E-4
8.029949E-4
-0.0027371484
-0.003327964
-0.0017921077
-0.0011337422
2.0758148E-4
0.002371498
0.003957134
0.0032179225
6.952432E-4
-6.013814E-4
7.5335236E-4
0.0022751917
6.8662973E-4
-0.0016012455
-0.0018352965
-0.0015026666
-7.0560304E-4
6.7811675E-4
0.0021133234
0.0034479313
0.0034109603
0.0021646586
0.0011356617
5.404919E-4
-2.6052407E-4
-0.001197403
-8.727238E-4
2.8040961E-4
-1.0223432E-4
-0.0011735727
-6.19945E-4
-6.946493E-4
-0.0020157413
-0.0014580059
-3.066984E-4
4.911757E-4
5.7618454E-4
-5.6634645E-4
6.0636667E-4
6.868644E-4
-0.0014077293
6.523438E-4
0.0012777257
-0.0021664607
-0.003694181
-0.0034032934
-8.7265664E-4
0.0018191948
0.0022564798
0.0018147025
5.1463814E-4
6.4344873E-4
2.788188E-4
-9.8851E-4
1.6331248E-4
-2.297426E-4
3.006574E-4
0.0032266148
0.0028908816
7.513774E-4
-0.0037588195
-0.0061502284
-0.0020343158
-3.530859E-4
-0.0011946546
-0.0012699713
1.4113117E-4
0.004511674
0.003779685
-1.0462383E-4
4.961195E-4
0.0012940638
9.322908E-4
-1.5699031E-4
-4.806024E-4
7.4228377E-4
-1.9261276E-4
3.8729957E-4
0.0020046185
6.018261E-4
9.928591E-4
0.0015861518
-6.202004E-4
-0.0015055839
-4.3777438E-4
4.1777347E-4
7.605657E-6
3.8913256E-4
8.724666E-4
-0.0016816809
-0.0028594926
-0.0019641623
-0.002918785
-0.002344074
-5.09957E-5
-2.250818E-4
-0.0015531159
-0.0016098974
-5.056088E-4
0.0010761061
0.0019195155
0.0011513635
5.462489E-4
0.0017094797
0.0020031573
-1.4697523E-4
-8.401085E-4
6.9741113E-4
2.6499212E-4
-9.771286E-4
-4.77232E-4
3.9529297E-4
0.0011006127
-3.1100467E-4
-0.0012170832
0.0015946912
7.6868734E-4
-0.0017565505
2.3227296E-4
6.04564E-4
5.6380354E-4
0.0020714356
8.072735E-4
-1.6246714E-4
-1.1140982E-4
3.2308386E-4
8.393312E-4
-0.0017835359
-0.002626312
1.2404493E-4
8.4051304E-4
4.2472096E-4
8.7709853E-4
0.0020786782
0.0028956898
0.001575928
0.0011227045
0.0026861497
0.001172893
-0.0026887555
-0.0031634013
-0.0034599707
-0.0056492924
-0.0040427684
-0.0010049898
-1.01376565E-4
3.375655E-4
-6.987352E-4
-0.0014191194
-5.841733E-4
-3.98895E-4
-5.3669285E-4
-5.52018E-4
3.0891618E-4
0.0023276242
0.0038533355
0.0028237656
2.4110304E-4
-9.1528134E-5
-9.884418E-4
-0.0027527076
-3.1185127E-4
0.002530064
0.004199494
0.0056371693
0.0037066285
0.0023058017
0.0026707428
0.0018872576
0.0016632809
5.1879033E-4
-0.0013780463
-0.001420535
-0.00276791
-0.005542288
-0.004953341
-0.0027751292
-0.0034927444
-0.003060658
4.2571907E-4
7.1485556E-4
-0.0011560465
-0.0012955165
-0.0017468167
-0.0017875693
-8.614028E-4
-6.4854533E-4
-1.4767823E-4
-3.1191975E-4
-0.0014435019
-6.1893114E-4
0.0011777566
0.0025447092
0.0038400167
0.0035348143
0.0025835275
0.0022322137
0.0019524717
0.0016292527
9.158684E-5
6.002329E-4
0.0035809388
0.0023739839
-7.526388E-5
-7.648245E-4
-0.0031846068
-0.0023943924
0.0010899331
-9.2231104E-4
-0.003079131
3.8133835E-4
0.002075993
2.3265628E-4
-9.0270485E-5
-1.3748238E-4
-4.1337297E-4
-5.166218E-4
-0.0018449984
-0.001693139
-7.600623E-4
-5.6404964E-4
1.9225749E-4
-0.0011734056
-0.0025612179
-0.002048398
-0.0020897952
-6.136256E-4
-5.2717153E-4
-0.0019534386
2.6435367E-4
7.0249196E-4
-9.0116495E-4
4.025435E-4
6.946043E-4
-1.9953168E-5
0.0012550848
0.0028488457
0.0029140564
0.0022526765
0.0026868866
0.0027268264
0.0024055724
0.0025981949
0.0010299227
2.2528014E-4
0.0014840809
0.0012539505
7.741829E-4
1.21859404E-4
-0.002624142
-0.0035593463
-9.307506E-4
4.7091744E-5
-0.0018554353
-0.0020989575
-0.0011030469
-0.0012474415
-0.0011401329
-0.0017124934
-0.0037288086
-0.0044088857
-0.0024085997
-1.3032947E-4
-0.0017274307
-0.0032776834
0.0014457374
0.005074059
0.00427412
0.006777319
0.0078696385
0.0020078453
-0.0021634065
-0.0025060012
-0.0025996256
-5.8878615E-4
5.135976E-4
-0.0014003298
-0.0014333809
-3.6696927E-4
-6.820355E-4
-5.7002914E-4
1.9184234E-4
0.0011908851
0.0011388817
-1.2986983E-5
3.582615E-4
0.0011271256
0.001045427
3.6771104E-4
-0.0016860027
-0.0030621034
-0.0031761427
-0.0024703117
2.1679698E-4
0.0015691994
5.311277E-4
8.040084E-4
0.002141603
0.00321639
0.0036069022
0.0033357546
0.0030394485
8.589059E-4
-0.002379288
-0.0033340575
-0.0035177
-0.003754133
-0.0023788013
-6.6064607E-4
6.722676E-5
-0.0010658484
-0.003097837
-0.0014902881
0.0015818798
0.00172338
0.001664999
5.684054E-4
-0.0010536467
0.0011070602
0.0022630037
7.804367E-4
6.928503E-4
3.3919388E-4
-3.6821578E-4
-2.6616483E-4
1.0890008E-4
-3.3438092E-4
-0.0011790775
8.7742606E-4
0.0014611268
-9.639689E-4
4.0430334E-4
0.0015638988
0.0011318706
0.0030272137
0.0014165549
-0.0019285219
-0.0026954433
-0.0044258684
-0.0032482075
8.454899E-4
8.550453E-4
-1.3042022E-4
8.509811E-4
4.947286E-4
7.460237E-7
0.0015978195
0.002055725
4.7840507E-4
0.0012864238
0.002392164
2.3868991E-4
4.1028182E-4
0.0017612686
-8.693945E-4
-0.0015438496
-5.5340165E-4
-0.003002873
-0.0038958215
-0.0032778322
-0.0038681324
-0.0017354941
0.0012333004
0.001850086
0.0014407646
-6.74684E-5
-8.7350985E-4
3.309894E-4
0.0011841785
0.0015654232
0.0017556095
2.6154754E-4
-0.0012724113
-0.0012758699
-2.2496465E-4
0.0034905588
0.0062177833
0.0037221927
0.0022740168
0.002488873
-0.0010680428
-0.0041395975
-0.003086529
-7.043275E-4
1.8197203E-4
-8.4797794E-4
-5.6300143E-4
-6.9354086E-5
-0.0029244043
-0.004660176
-0.002602334
-3.7845763E-4
0.0014732978
0.0012418543
-0.0013802996
-5.262516E-4
0.0014180228
4.0317126E-4
9.997062E-4
0.0022752017
0.0022959975
0.002621572
0.0011668394
-9.775338E-4
-0.0015688449
-9.27747E-4
3.998879E-4
0.0010190579
0.0015121843
5.95993E-4
-0.002028453
-0.0015629729
0.0010413681
3.4145996E-4
-0.0031785103
-0.0035112714
-4.8671913E-4
2.5437446E-4
9.325727E-5
5.40662E-4
-4.8945538E-5
5.2569876E-4
0.0015472342
0.0011936091
3.052085E-4
-0.00129779
-0.0026963088
-0.0010070973
0.0029940007
0.0041902545
0.003176549
0.0014143554
-0.002319675
-0.0026900826
-1.8520716E-4
3.0711325E-4
8.570683E-4
8.8748074E-4
6.0115044E-4
2.2947474E-4
-0.0017900327
-0.0016208083
-7.860965E-4
-0.0022016787
-0.0020948488
-0.001271762
-0.0015702198
-2.92458E-4
0.0017974419
0.0013403026
6.8755384E-4
0.0022368722
0.0020035298
-1.0414797E-4
1.1677571E-4
9.875837E-4
2.5503792E-5
8.9447317E-4
0.002566376
-3.2038387E-4
-0.0018024471
5.50932E-4
5.599641E-4
0.001109206
0.0015206096
-7.137162E-4
-0.0016042843
-0.001922042
-0.0015757713
-0.0018522639
-0.003311506
-0.0016025974
5.995935E-4
0.0016522254
0.0014188358
1.9178474E-4
0.0016090918
9.561469E-4
-0.0014235177
-0.0010983143
-9.663221E-4
3.2719618E-4
7.269173E-4
-3.563264E-4
0.0016960124
0.002625272
0.001995611
0.0015475157
-0.0013438538
-0.0031215635
-0.0015143198
3.7080902E-4
-1.0210222E-4
-0.001334789
-9.828669E-4
-0.0012685804
-0.001048914
6.742152E-4
0.0012692036
0.0014375462
4.52136E-4
-5.765108E-4
1.8736633E-4
-5.301593E-4
-8.1494363E-4
8.484508E-4
0.0012022653
0.0017832426
0.0032829358
0.003768348
0.0018537168
-0.0018278054
-0.0034203713
-0.0035263468
-0.002426488
3.6542E-4
6.4325424E-5
-6.724549E-4
6.3070096E-4
-8.169653E-4
-0.0015289567
9.929039E-5
-1.1720772E-4
6.67675E-4
0.002545845
0.0017476429
0.0017045588
0.0026011583
-7.954725E-4
-0.0027589556
-2.2087345E-4
-6.429542E-4
-7.369554E-4
6.094554E-4
-9.3108433E-4
-3.3627436E-4
7.140666E-4
2.2263797E-4
8.6142635E-4
-2.698024E-4
-0.0010328741
-5.1624875E-4
-9.310829E-5
7.7162444E-4
-0.001590211
-0.003165466
-5.9798727E-4
3.2134308E-4
8.9290625E-5
0.0014099904
0.002219398
0.0010249254
3.4477448E-4
0.0010022008
6.251378E-4
7.991263E-4
0.001265225
-3.0825147E-4
-0.0018869379
-5.830955E-4
0.0012718486
-6.14582E-4
-7.7066827E-4
0.0015470155
-4.4706892E-4
-0.0015807647
-6.395078E-4
-8.807052E-4
-4.641513E-4
-8.8916224E-4
3.7200295E-4
0.00160063
-6.180394E-4
-0.0011114209
-6.9050345E-4
5.246644E-4
0.0010909041
-0.0027353433
-0.0031242035
5.4520456E-6
4.2248075E-4
7.419499E-4
0.0015958956
0.0017186829
0.0016783673
0.002155776
7.2876294E-4
-0.002299615
-6.6959544E-4
0.0020354888
2.2587419E-4
-0.0015991897
-3.9355963E-4
0.0018210296
0.0013307212
3.7951354E-4
0.0033545166
0.0060142833
0.0060893
0.004247115
-0.0014714624
-0.007123851
-0.007071323
-0.0039119627
-0.002220334
-0.0011409097
1.398112E-4
4.1699712E-4
-2.2929015E-4
-0.0022912151
-0.0038351584
-0.0024620607
-2.9499354E-4
5.3028803E-4
-0.0012826681
-0.0033718492
-0.001926767
5.9126184E-4
0.0016768171
7.3011697E-4
-0.0011634091
-3.292787E-4
0.0017551532
0.0035799388
0.004779031
0.0031585502
0.0027163746
0.002979776
3.110314E-4
4.807129E-4
0.002358755
0.0020186503
0.00254364
0.0015847632
-4.0858926E-4
4.255252E-4
0.001243374
1.0160157E-5
-0.0020301328
-0.0022593443
-0.0018453244
-0.0034068397
-0.0028200322
-7.295678E-4
-0.001328563
-0.0019548943
-0.001587083
-0.0017510923
-9.39045E-4
0.0013816032
8.669839E-4
-0.0022391465
-0.002374183
-0.0026608864
-0.004011006
-0.0031506396
-0.0038601526
-0.0032094899
8.816356E-4
0.00312983
0.0056413133
0.007155784
0.005212969
0.0047993017
0.0045481483
0.0013770575
-0.0020750763
-0.0027630872
-4.7391126E-4
0.0015766995
0.0024392346
0.0014507443
-0.0019642038
-0.0030588002
1.8330383E-4
0.004289688
0.0040636044
4.1140974E-4
0.0010357925
9.0356235E-4
-0.004085559
-0.0028636414
0.0014045464
-0.001218035
-0.005322259
-0.0041043083
0.0013696121
0.0031425222
0.0011245467
0.0021089318
0.0011743448
-0.0020835218
-0.0025730687
-0.002956995
-0.0022630857
-0.0020586392
-0.0042133364
-0.0042811767
-0.004525868
-0.0056175375
-0.005500685
-0.0061242734
-0.005118424
-0.002299674
-8.2866364E-4
-3.127885E-4
-2.9511366E-5
6.175093E-4
0.0012415111
0.0018412628
0.0029508986
0.004448907
0.006348304
0.0061406293
0.0033129104
0.0014170818
0.0039930837
0.009638625
0.010772015
0.0064352164
-6.3649367E-4
-0.0082618
-0.009445335
-0.009373973
-0.0140571995
-0.014406526
-0.010322165
-0.006240095
-0.0022018545
-4.3075468E-4
0.0020913633
0.005238969
0.005739181
0.0038578885
3.3139647E-4
0.0011628272
0.0022184101
-0.004305002
-0.008259328
-0.004481301
0.0043847896
0.017703509
0.02637798
0.025912978
0.0243095
0.026305038
0.026740087
0.022044905
0.017654257
0.012973321
0.003942858
-0.003460522
-0.008082565
-0.015542288
-0.02324693
-0.024258196
-0.018672846
-0.015712112
-0.017376307
-0.015002241
-0.010278725
-0.0047009876
0.007797754
0.022617845
0.031485017
0.023679312
0.001344823
-0.010968781
-0.010387227
-0.005304996
0.0055304035
0.01103547
4.4558707E-4
-0.024022248
-0.043290667
-0.047496777
-0.05407847
-0.06329719
-0.05902556
-0.036888797
-0.020133361
-0.020774081
-3.1896634E-4
0.031967506
0.039550044
0.049210604
0.058478646
0.033780444
-0.002691932
-0.015493703
-0.016076462
-0.012301556
0.019605996
0.055376265
0.07635705
0.105754845
0.12519105
0.13820297
0.15803814
0.14183362
0.06453928
-0.03233751
-0.096984625
-0.16871959
-0.2239504
-0.16071354
-0.08131236
-0.072118044
-0.04782775
-0.007037826
0.010237098
0.0045236466
0.013589677
0.028486509
-0.027030626
-0.06768734
-0.03153641
-0.014991133
-0.018492896
-0.028543554
-0.03527972
0.005818567
0.04560295
0.059675965
0.0638079
0.058729127
0.06930004
0.052282874
-0.009084307
-0.031014519
-0.0074822647
0.01632737
0.029009525
0.011724088
-0.01539564
-0.011177032
0.0019750157
-0.0013542383
-0.0036143672
0.0056968764
0.021897886
0.051022585
0.0904721
0.09174147
0.024393491
-0.06217019
-0.101762824
-0.077127166
-0.039591994
-0.03083723
-0.020890433
-0.004004193
-0.0031690334
-0.0076098386
-0.009516875
-0.01880564
-0.026575027
-0.0023309812
0.0203789
-0.0057285326
-0.021214971
-0.00591567
-0.0039698775
0.0081672035
0.035329513
0.053911272
0.06624576
0.042913273
-0.016767561
-0.03389065
0.014205558
0.041749433
0.017560745
5.812939E-4
-0.011214931
-0.052946217
-0.08390188
-0.064284734
-0.027672986
0.003524223
0.026219504
8.431215E-4
-0.039650124
-0.026590668
7.357201E-4
0.016094059
0.030642822
0.037115965
0.070492424
0.1058577
0.06853692
-0.00462364
-0.044717867
-0.04788263
-0.0302784
-0.008104059
-0.006169464
-0.025767976
-0.035943687
-0.030266006
-0.016892208
0.0030008373
0.016244235
0.016622022
-8.386745E-4
-0.020644475
-0.017640619
-0.010014757
0.0014457995
0.022328354
0.028358432
0.033874862
0.06281812
0.08713565
0.05115929
-0.023301754
-0.049239278
-0.033104718
-9.826031E-4
0.055135313
0.088466994
0.07995583
0.02272253
-0.08093853
-0.12924407
-0.08395813
-0.03689336
-0.0419309
-0.055431306
-0.03728836
-0.010976946
0.025892224
0.05633782
0.02214838
-0.022221126
-0.020657916
-0.012879857
-0.0073437747
0.004047265
0.020968638
0.038620837
0.036582142
0.028536852
0.025228057
0.016939567
0.009308124
0.0017440849
0.007674034
0.02377415
0.004959469
-0.02051616
0.007856044
0.03805902
0.011725795
-0.027084956
-0.04072983
-0.037534304
-0.019065049
5.019939E-4
9.836095E-4
-0.0076237004
-0.010603667
-0.010710649
-0.010014042
-0.0057674297
-0.0037122783
-0.0054937745
-0.0039811865
-0.0027946858
-0.0016203619
0.0057428936
0.010443372
0.009321706
0.006436353
0.001765436
0.0023197795
0.005981924
0.006807718
0.008087875
0.0072711227
0.0063835317
0.0054595107
0.0037038582
0.009096187
0.008245565
-0.0023300673
-0.0058503603
-0.0095615955
-0.013141264
-0.011387222
-0.012000208
-0.009764857
-0.0068828193
-0.007009995
-0.004153301
-0.0014991371
-7.1912684E-5
7.6361E-4
0.0021413262
0.0027556305
9.836653E-4
0.0033147074
0.004085732
0.0050715785
0.012601632
0.012548896
0.008435067
0.0067017754
0.0027765662
0.0038971258
0.005112876
0.0024307375
-2.8169123E-4
-0.0039960393
-0.0013774149
5.692145E-4
-0.004317031
-0.0048580724
-0.0034218957
-0.002727248
-0.0031886522
-0.0053847674
-0.0019895025
5.0116284E-4
-0.0024287647
-0.0045051402
-0.0076155285
-0.005852658
0.0014825632
5.890054E-4
-0.00107294
0.0034512181
8.4085466E-4
-0.0055521247
-0.008762029
-0.011812823
-0.00955644
-0.0028241621
0.0043507814
0.00743371
0.003977139
0.00583182
0.006138874
-0.0015050803
-0.0033768853
-0.006526727
-0.008391544
-8.7991124E-4
0.0013433059
0.0018340535
0.0036091236
0.0016383587
0.0016241113
5.561717E-5
0.0010315998
0.0060742083
0.0061351457
0.007413433
0.008135273
0.0039081764
6.961098E-4
-0.0019220951
-0.0031491108
-0.005291795
-0.0071726497
-0.002863303
-9.4387186E-4
-0.0015263438
0.002190454
0.0030085042
6.869255E-4
0.0012714658
0.003584456
0.0049408395
0.003347313
0.0013353586
4.959663E-4
-8.8506326E-4
4.9273286E-4
0.0025777495
9.575485E-4
-5.359991E-4
-0.001369042
-0.0011132373
-0.0014148836
-0.0062502264
-0.007223939
-0.0044976063
-0.0049754037
-0.0045791194
-0.005018253
-0.0042692246
-8.0835936E-4
-0.0018265203
-0.0012309954
0.0014664032
-2.3057191E-4
-0.0018191865
-0.002877088
-0.0028913692
-0.0014183162
-9.775781E-4
3.5996415E-4
0.0011985168
0.0024785206
0.0054724202
0.006012738
0.0060635693
0.006398783
0.0038154612
0.0027202994
0.005147711
0.0037348869
0.0010335369
0.0030596922
0.0019241261
3.9564326E-5
0.002018696
1.4283461E-4
2.6261085E-4
0.0023294226
-1.4855759E-4
0.0012261003
0.0024007503
-7.708915E-4
-0.0018720313
-0.0037163633
-0.0044013867
-0.0018765721
-4.136322E-4
-4.7776644E-4
-0.001780898
-0.002788653
-0.0055087386
-0.009064602
-0.00815129
-0.0063985297
-0.0035565053
0.0013393757
0.0018025958
1.0162975E-4
3.6412055E-4
0.0018611824
0.0022106578
-0.0012005393
-0.0021978887
0.0010561765
0.0020337822
0.0026406848
0.0026481317
-4.0900128E-4
-7.310416E-5
0.003982195
0.0061321473
0.005346915
0.0024120982
8.8386855E-4
4.761808E-4
-0.0012155457
-0.0011921582
-0.0013653917
-0.0019050669
9.93162E-4
0.002594916
0.0019364515
0.0019062002
0.0010240215
-3.6569887E-5
-0.0020276413
-0.003662405
-0.0015855755
-5.257141E-4
-0.0031517516
-0.0039004304
-7.785035E-4
0.0011515499
-8.573121E-5
-9.251607E-4
-3.1258274E-4
-7.586952E-4
-0.002973984
-0.0021344207
7.2707725E-4
-0.0016314483
-0.0031897118
-3.566627E-4
4.592498E-4
0.001974414
0.002622076
-3.0667635E-4
-4.0280123E-5
0.0016388019
0.0015049108
0.0012343313
7.5231794E-5
-3.3029326E-4
-1.5170948E-4
-4.6040613E-4
2.3356559E-4
4.3747397E-4
-8.4162387E-4
-0.001903502
-0.0011303251
-4.3332815E-4
-0.001850493
-0.0018479853
-6.4123125E-4
-4.592947E-5
0.0017732172
0.0012445727
-0.0016469777
-0.0020190645
-0.0020354337
-0.0018209663
-3.112162E-4
-2.4623328E-4
-2.0079679E-4
2.9046973E-4
8.861454E-4
0.002878539
0.0022046678
-9.386673E-4
-0.0010442652
-6.261802E-4
-0.0020397834
-0.0026981225
-0.0027262082
-0.0012005268
0.0021693916
0.0036830131
0.0024857922
-0.0011257798
-0.0043803533
-0.002556881
-7.377342E-4
-0.0030772279
-0.0039880024
-0.0015282899
0.0015332405
0.0023289646
0.001899593
0.0026448402
6.241168E-4
-0.0031553444
-0.00397516
-0.004396507
-0.0027185176
0.002625659
0.0032018786
-5.176711E-4
2.1331459E-4
0.0015454681
8.087867E-5
8.4659446E-4
0.0011927155
6.039968E-4
0.0021950016
0.0023255164
0.0024438116
0.0035522473
0.0022018056
0.0010481657
0.0014446548
2.6988142E-4
-0.0030213639
-0.0035647545
-0.0010122759
3.926855E-4
0.0028210056
0.002501018
-0.0013206379
-1.9627807E-4
4.9472717E-4
-0.0018305324
-0.0027463224
-0.0016641207
0.004738704
0.006313209
1.9663869E-4
3.6604222E-4
1.7042612E-4
-0.0041548675
-0.0024892103
5.160457E-4
8.759893E-4
6.57499E-4
-0.0014883975
-0.0031145446
-0.0028072805
-0.0021697816
6.440658E-4
0.003604335
3.4396848E-4
-0.005528369
-0.0056598773
-0.0018806856
-8.975931E-4
-0.0025362482
-0.0018436034
2.1260032E-4
0.0017808215
0.003858395
0.003163498
0.0019172264
0.004116016
0.0052197794
0.0046848087
0.003449164
4.0355264E-4
-0.0015403065
-0.0013239087
-5.740457E-4
-0.0014531607
-0.0029692017
-0.0012465421
0.0011015092
0.0011225238
0.0015854042
0.0025733763
0.0027529204
0.0034879067
0.0028052526
-6.4483675E-4
-0.0032821759
-0.0053289016
-0.00561042
-0.002948591
-0.0021393993
-7.7072525E-4
0.0014074781
0.0012412156
0.0027049535
0.0020929277
8.7571505E-5
0.0015881879
6.985925E-5
-0.0025427868
-0.0035749357
-0.0045882636
-0.0025668833
-0.002744881
-0.0044992417
-0.00284553
-0.0011696768
0.0012658992
0.0031499611
0.00392089
0.0052019963
0.005051943
0.0063840104
0.0062368466
0.0026755398
0.0017421683
0.0014502686
0.0016913657
0.0014705763
-0.002715256
-0.0046324236
-0.0026460115
-2.9412497E-5
8.343726E-4
-9.0825505E-4
-0.0011220907
-0.0011091335
-9.1584155E-4
1.301523E-5
-0.0029444832
-0.004282616
-0.0019493826
-0.0016447931
-0.0014208311
-0.0014379683
-0.0018633831
-0.0015476352
-0.002046958
-1.238652E-4
0.0033597688
0.0051528043
0.0075494903
0.007734179
0.0036720138
9.0838096E-4
1.9971034E-4
-0.0011378414
-8.2820293E-4
3.5355095E-4
-0.0016085127
-0.0028862809
-4.956668E-4
3.8353406E-4
-0.0011662627
-0.0013543686
-0.0014206381
-0.0023387778
-8.987014E-4
5.3053134E-4
-6.777063E-4
-1.7734807E-5
0.0015208141
0.0015848095
0.0024579114
0.0016045889
-6.5680355E-4
-0.0011440654
-0.001145046
-2.9623005E-4
1.7754035E-4
-6.0800626E-4
-2.834501E-4
-7.700918E-4
-0.0018395823
-3.8879324E-4
0.001254923
9.5446616E-5
-0.0017307703
-3.6279517E-4
9.436242E-4
-7.0117495E-4
-1.9103284E-4
1.22328E-4
-0.002456319
-0.0010237714
0.0020480284
0.0019245044
0.0026209238
0.003839342
0.003677336
0.0030626191
0.0011250216
1.2732919E-4
0.0020956863
0.0012214988
-0.00206393
2.146739E-4
0.0020006276
-0.0017355577
-0.0031207267
-0.004301847
-0.0053181993
-0.0015222818
-0.0014968432
-0.0037179308
-9.2171674E-4
1.780154E-4
-7.707992E-4
3.8918943E-4
7.690851E-4
6.258806E-5
-1.338478E-6
4.7043388E-4
8.984822E-4
3.4771557E-4
-1.1758687E-4
0.0016463877
0.003287752
0.0034664164
0.004956139
0.004484016
0.0013323746
8.45744E-4
1.1890449E-4
-0.0015797918
-6.863312E-4
-1.3576742E-4
-3.26422E-4
-8.284742E-4
-0.0020807867
-0.0010317214
-8.8293577E-4
-0.0041145077
-0.0037989484
-1.9598361E-4
1.5111279E-4
-4.2543246E-4
6.7777414E-4
2.1712673E-4
-0.0017371479
-0.0017302686
7.967044E-4
0.001283214
-6.8526005E-4
-1.4910018E-5
7.73126E-4
2.3368633E-4
0.00155197
0.001988642
4.3912753E-4
-0.00229396
-0.0029591664
0.0012140971
0.0029767854
0.0016803198
9.6735195E-4
-1.19322794E-4
0.0022483554
0.0038858855
3.9783932E-4
-0.0013239594
-0.0012871994
-0.0012487492
-4.4447684E-4
-9.221326E-4
-0.0016084549
-0.0018908448
-0.0019099092
-0.0011260831
-9.4331056E-4
-5.473622E-4
7.592256E-4
2.9444374E-4
-7.560353E-4
0.0011499388
0.0022210912
4.111271E-4
-6.481419E-4
-0.0025524453
-0.0036553578
-0.0012809203
2.0771804E-4
9.817282E-4
0.0017792499
0.0036568886
0.007084938
0.0047008386
-2.2408545E-4
-0.0011049884
-0.0014812849
1.9358848E-4
0.0020199104
9.016642E-5
-7.3521223E-4
2.3416775E-4
0.0012276534
7.0774835E-4
-0.0011676493
-8.4855754E-5
-4.8196147E-4
-0.0043001855
-0.0035133827
-2.81385E-4
-7.44657E-5
-6.3781685E-4
-7.2362156E-5
0.0010003736
1.2540995E-4
-0.0018776462
-0.0021871538
-0.002330486
-0.0015426157
1.4701851E-4
-0.0013670512
-0.002566983
-1.9780548E-4
-2.6988273E-4
-0.002188767
-1.14686096E-4
0.0017713989
3.8453625E-4
7.8990153E-4
0.0025393763
0.00354575
0.0042639193
0.0026092043
0.0016719134
0.0022947441
6.8712095E-4
0.0013053692
0.0027867076
8.317941E-4
5.8985874E-4
0.0010110493
0.0011254412
0.0017138781
-0.0012812837
-0.0012188707
0.0024010348
-6.508097E-4
-0.0042905114
-0.0031058767
-0.001382572
8.024661E-4
-9.595443E-5
-0.003489868
-0.0026321618
-3.7552475E-4
-6.190148E-4
-0.0018342123
-0.0024436025
-0.0011872312
2.636409E-5
-1.3290472E-4
-3.6844146E-4
-4.900526E-4
2.4115537E-4
5.0117733E-4
-4.844511E-4
-4.3570597E-4
-1.5554651E-4
8.270549E-4
0.0024050032
5.373862E-4
-0.002215548
-0.0018265964
4.393081E-4
0.0022877224
6.250477E-4
-0.0017125199
-2.9124983E-4
9.79423E-4
0.0011769217
0.0021255722
0.0010369107
9.419472E-4
0.003708327
0.0016373374
-0.002513478
-8.69532E-4
0.0014203337
0.0021391555
0.0032797721
0.0016156144
-4.8717938E-4
-2.5915587E-4
4.8720164E-4
0.0017816969
0.0016609575
3.548925E-4
7.133152E-4
8.5478625E-4
-3.44674E-5
-0.0012059578
-0.0026477443
-0.002377498
-0.0011567448
-1.5996367E-4
0.0012166239
-2.805346E-4
-0.0035374754
-0.0041662827
-0.0045546833
-0.0033689067
-4.8763503E-4
-0.0028266783
-0.0039343545
0.001282541
0.0012422146
-0.0028446645
-0.002170422
-0.00104095
-1.2853715E-4
0.0019197038
-7.672881E-5
-0.0017444149
0.002044484
0.0047351005
0.0049565397
0.0045159846
0.0022426704
0.0025124827
0.004827185
0.0035621524
8.428471E-4
-2.760364E-4
-3.4322677E-4
-1.1975175E-6
7.0165354E-4
0.0011173858
0.0012578676
0.0021709774
3.606269E-4
-0.003438247
-0.0027069554
-4.003434E-4
-5.146058E-4
-0.0012937553
-0.0023541746
-0.0021660887
-1.079492E-4
0.0016215625
8.391835E-4
-0.0016618869
-0.0024576522
-0.0025355371
-0.0032127204
-0.003110055
-0.0018261176
9.7361604E-5
-4.198575E-4
-0.0012165861
-7.259417E-5
-0.0013812255
-0.0014576954
2.7238793E-4
-4.6568448E-4
0.001313122
0.0025930936
0.0013216272
0.0032468564
0.0021995509
-0.00195701
-0.0017922202
-7.6144945E-4
-7.5553585E-4
0.001358157
0.0057417206
0.0073834034
0.0053424058
0.005010357
0.0023595802
-0.0020057645
-0.0010982673
-0.0018757652
-0.0044914973
-0.0019224667
6.237667E-4
4.622336E-4
2.5596225E-4
4.73402E-4
0.0010293172
8.9528E-4
-4.7007608E-4
-0.0023100842
-0.0024586015
-6.3078443E-4
6.5357325E-4
-0.0010438646
-0.004923784
-0.0054636844
-0.0032304665
-0.002451856
-0.0011169934
4.4061034E-4
2.5713575E-4
-0.0012765989
-0.0028692128
-0.002641891
-0.0013570326
0.0014905926
0.0033995055
0.001903694
0.001820659
0.001701487
0.0015071377
0.0028568644
-7.571363E-4
-0.0023244747
0.0035177087
0.00521083
0.004094647
0.0049462426
0.003384161
0.002856476
0.00468096
0.002910036
-4.493333E-4
-0.0019354189
-0.0036543608
-0.003109752
1.1215131E-4
-7.447536E-4
-0.0034525217
-0.0025064517
-0.0014215215
-0.0022907406
-0.0028608616
-0.001760692
-6.0816004E-4
-0.0017847057
-0.002518939
-0.0019382924
-0.0025685022
-0.0024501113
-0.0019072082
-0.0017644737
8.5232005E-4
0.0018840578
-0.0010185114
-0.0011505513
8.685167E-4
-2.1288106E-4
-0.0018876857
-0.0013309546
6.993134E-4
0.004284784
0.006848689
0.006013273
0.0044660196
0.0022757524
4.542385E-4
0.0013796418
7.9801935E-4
4.1322265E-4
0.0023317297
0.0013317622
0.0010585993
0.0020749043
7.1326055E-4
9.148902E-5
-0.0015478918