0.0014384405
0.002600121
0.0027665223
0.0011590415
0.0014707972
0.003296073
0.004108239
0.004054362
0.001673316
-0.0023023242
-0.0068139806
-0.007786228
-0.003940735
-0.0034791208
-0.0037845075
4.5536388E-5
0.0012994532
6.2088325E-4
0.0021212043
0.0019441447
-0.0023382388
-0.0045639058
-9.878236E-4
7.30545E-4
-0.0012088689
-8.3804777E-4
2.4507547E-4
-5.8990216E-4
-6.806739E-4
0.0011022688
0.0018847168
0.0015734746
0.0015493197
2.950854E-5
-0.0010392255
-5.5718416E-4
-3.3872094E-4
7.6874596E-4
5.9047295E-4
-0.0010544462
-1.8411012E-4
0.0018911351
0.0021046905
1.7158983E-4
-8.676103E-4
-4.3064644E-4
-8.2495995E-4
-1.4203909E-4
0.0014738837
0.0027805383
0.0039912676
0.002951363
0.0024127646
0.0035561014
0.0021401523
6.535713E-4
4.9382576E-4
-0.0011101571
-3.8260364E-4
0.0027339826
5.6919653E-4
-0.00583824
-0.00890908
-0.0064079766
-0.0022075358
-0.0012463
-0.0011978614
-2.2265353E-6
-9.0863544E-4
-0.0022538272
-0.0022816716
-5.739117E-4
0.0014413543
-1.3498554E-4
-7.2931005E-5
0.001706262
7.838416E-4
0.0027521274
0.0042468836
0.001696825
4.977741E-4
3.7430428E-4
0.0014921101
0.0024170312
0.0023106383
0.003224723
0.0018155011
-1.0429536E-4
-7.4165117E-4
-0.0025524318
-0.003095383
-0.002619492
-0.0014250054
8.648699E-4
9.4531686E-4
-9.222551E-4
-0.0018796113
-9.4147224E-4
-7.390495E-4
-0.0012027845
-6.478637E-5
-4.3281764E-4
-6.47613E-4
2.606317E-4
-8.8002096E-4
0.0010431819
0.004490873
0.0031001768
0.0010449586
-9.221401E-5
-0.0011212414
-9.685558E-4
-0.0020501856
-0.0028596472
-0.0011569458
-4.7750017E-4
-4.6102298E-4
0.0019002756
0.0040479763
0.0031307074
2.9866918E-4
-0.0021329299
-0.0029845636
-0.0021981862
-1.3247295E-4
0.0014618795
0.0020503318
0.0026343884
0.0026090406
0.0018177294
8.3415805E-5
-0.0012320344
-4.0835163E-4
-6.3097855E-4
-0.0011444014
3.7543953E-4
5.986016E-4
-3.7493647E-4
-0.0018114824
-0.002067505
8.0138247E-4
7.3207804E-4
-0.0023090686
-0.0029713518
-0.002339747
-8.212186E-4
2.0416823E-4
-4.941646E-4
-5.187011E-4
3.9018324E-4
8.5829606E-4
1.15890216E-4
-9.583017E-5
2.1579996E-4
5.4258468E-5
0.0014169856
0.001193145
-3.331941E-4
0.0010731535
0.0017540458
0.0020332327
0.001993397
-0.0011598666
-0.0016050262
7.7289494E-4
0.0017053613
0.0032224162
0.004027507
0.0014120302
-0.0018368696
-0.0015165413
-2.5094027E-4
-0.001184018
-0.0012825383
-0.0020575172
-0.002426453
8.4906386E-4
5.69992E-4
-0.0024722745
-0.0013055329
0.0011144943
0.0023089808
0.001489072
-0.0012590374
-0.0031570334
-0.0028481123
-9.290181E-4
-7.720033E-4
-0.0014509124
-8.806613E-4
-0.0012031366
4.8546397E-5
0.0023159985
0.0027842957
0.0029948466
0.0011384591
-3.4649024E-4
5.717979E-4
7.9148397E-4
0.0014858902
-6.7344087E-4
-0.003299397
8.860225E-5
9.908337E-4
-7.8916E-4
6.916732E-4
0.0013502529
0.002470406
0.0021948435
-0.0014598911
-9.990633E-4
0.0010083043
-4.4223798E-5
-4.2173767E-4
6.134182E-4
0.001251263
-1.4573117E-4
-7.7837164E-4
0.0010521234
3.7094238E-4
-2.091298E-4
0.0016419198
-7.2713796E-4
-0.0041172896
-0.0024091257
-8.2604674E-4
-0.0014048096
-9.4385096E-4
-5.7483336E-4
-4.5160166E-4
4.826225E-6
-0.0011208027
-0.0019306156
-4.3236584E-4
4.8142482E-4
-1.4742606E-4
-2.2497702E-4
7.045677E-4
0.0011931412
8.7719766E-4
0.001169557
0.0028583875
0.0048092245
0.0040991623
8.2451035E-4
-3.9411947E-4
8.245194E-4
5.691479E-4
-6.116899E-4
-6.6713034E-4
-0.0016884967
-0.0033058135
-0.0024858096
-0.0017198883
-0.0023441543
-0.0013655088
8.500392E-5
-7.005257E-5
-2.718936E-4
8.667691E-4
7.5217494E-4
-0.0012416466
-7.844223E-4
-2.654247E-4
-0.0011723564
0.0013647933
0.0030846063
0.0019065299
0.0026949786
0.0034814617
0.0032561538
0.0022760294
4.3557052E-4
4.6106012E-4
6.5074535E-4
7.471758E-5
-7.404284E-4
-0.0024545868
-0.0027995117
-0.0034080774
-0.0049109757
-0.004742843
-0.0033697921
-5.2002945E-4
1.2386886E-4
-0.0010594457
6.7668996E-4
-4.8349557E-5
-0.0014778737
6.0390565E-4
6.710511E-4
0.0012764817
0.002752463
0.002023713
0.0027060986
0.0019873187
-5.992045E-4
8.837887E-6
0.002419838
0.0029917827
0.0018238293
0.002369276
0.0013326133
-0.0022817615
-0.0015787451
-3.3436887E-4
-5.582148E-4
-6.9203833E-4
-0.0039171744
-0.0037799955
-5.2641775E-4
-2.3023407E-4
5.4645695E-4
1.3652629E-4
-3.208308E-4
9.97491E-4
-5.523206E-4
-7.203417E-4
8.433077E-4
3.2715914E-5
5.1896536E-4
7.828918E-4
-3.4508604E-4
0.0012418355
0.0026518535
9.296088E-4
-1.876229E-4
4.4668638E-4
8.9040026E-4
9.6140074E-4
-1.1350084E-5
-0.0015010614
-0.0019694879
-0.0015414773
-5.807173E-4
-3.5577634E-4
1.769712E-4
1.9477971E-5
-0.0034307598
-0.0031631095
0.0015585233
0.0022247313
7.062121E-4
9.311082E-4
8.000126E-4
-0.0014590144
-0.0028841796
-4.8130722E-4
0.0013283367
3.6251152E-4
-0.0017150205
-0.0022722268
0.0014760382
0.0026496588
-4.3932008E-4
-5.732183E-6
0.0020308448
0.0025852341
0.0025363038
0.0015846236
3.3614493E-4
-0.0013684432
-0.0011410791
8.8376604E-4
8.6738414E-4
0.0010854992
9.4972516E-4
-0.0014600891
-0.0014447623
-0.0010368635
-0.0024258255
-1.4782832E-4
0.0015606027
-0.0022162476
-0.004074144
-0.0021323257
-4.483505E-4
2.9518834E-4
-0.0010040685
-6.017769E-4
0.003972711
0.0043406347
-8.5964735E-4
-0.0022735214
0.0013704179
0.0035645622
0.0025200215
9.721368E-4
-8.8326813E-4
-0.0017200973
2.263478E-4
-4.1286772E-4
-0.0034007484
-0.0016339945
0.0015435736
0.0017637454
0.0011401668
1.2276447E-4
2.0643343E-5
4.8291267E-4
-9.827823E-4
-0.002300886
-0.0020161844
-0.0022379279
-0.002548383
-0.0015146219
-2.1211407E-4
0.0012900359
0.0012269567
-0.0014525851
-5.3454377E-4
0.0019621216
8.2987663E-4
0.0022878312
0.0035919836
0.0012192832
0.0016776294
2.2925244E-4
-0.003335667
-0.0012498306
-1.0316602E-4
-0.0018664525
3.6608792E-4
0.0026251886
0.0017639342
0.0016212222
8.401515E-4
-5.5647036E-4
2.458034E-4
3.335359E-4
2.883647E-4
0.0011906878
-2.8690245E-4
-0.0015830159
-0.0016406674
-6.4368185E-4
0.0025340721
0.002921807
0.0012400299
-3.0562162E-4
-0.0036795768
-0.0042355624
-0.0025875403
-0.0028091504
-0.0015530594
6.3566105E-5
-2.9090812E-4
-1.1119074E-4
2.6921392E-4
6.7794614E-4
0.0011345024
-3.9154687E-4
-8.716781E-4
7.377754E-4
3.2574442E-4
-5.2567673E-5
5.171757E-4
7.5820455E-5
8.5849816E-4
0.0020638895
0.0014911509
-0.0012600931
-0.002763192
-1.4909136E-4
1.6600138E-4
-4.8842054E-4
0.0022081474
0.0019606214
1.343254E-4
6.68144E-4
0.0026912312
0.0043491377
0.0014840012
-0.0017619688
-0.0024962265
-0.0029472327
-9.2517753E-4
3.5326285E-4
-3.0710388E-4
6.324433E-4
9.892402E-4
2.0980643E-4
-8.741062E-4
-0.0020081787
-0.0012651337
0.0014054
0.0024816755
-7.1205216E-4
-0.0024617377
1.977173E-5
3.4941256E-4
-8.9451467E-4
-7.422615E-4
-0.0014599026
-0.0015069934
2.7913603E-4
4.8708732E-4
-0.0010643371
-0.0015295089
5.2179697E-5
0.0023847288
0.0031524894
0.0034027079
0.005116372
0.0049036923
0.001328777
-0.0021420121
-0.0041946387
-0.0054786373
-0.0051397444
-0.0026269138
-0.0012102643
-7.828346E-4
0.002259274
0.0037731605
0.0023387866
0.0015901936
-0.0010622257
-0.0035931324
-0.002295469
-6.9518184E-4
1.8192724E-4
-1.0816912E-4
-3.9564667E-4
0.0022607038
0.0037178376
0.0032639843
0.0036844383
0.0027890012
0.0018008373
3.2119994E-4
-0.002976519
-0.0031087692
-0.0014876387
-6.9145364E-4
9.931967E-4
3.212292E-4
-9.2964765E-4
2.2445747E-4
-0.0011603805
-0.004396092
-0.0059607574
-0.0056729782
-0.0023799003
4.8350947E-4
-1.5259278E-4
3.514196E-4
0.0019697344
3.0136746E-4
6.037976E-4
0.0044530975
0.0024188713
-0.0011394361
0.002361604
0.0046718675
0.0027520312
0.0018037909
0.0023222072
0.0040608933
0.001943254
-0.0032521945
-0.0032555375
-9.635644E-4
3.1091407E-4
-2.4900795E-4
-0.004133614
-0.0059362855
-0.0050253007
-0.0022184874
0.0016380923
9.81342E-4
5.060952E-4
0.0012360174
-8.913986E-4
-1.8433171E-4
0.0010530781
7.93884E-5
-3.8818613E-4
-0.0012149777
0.0013574631
0.0040301685
0.003451811
0.005334539
0.0050197574
0.0016122186
5.8583065E-4
-0.001388982
-0.0031098593
-0.0022269865
-0.0015495537
3.9599754E-4
0.0022225692
-5.7714694E-4
-0.0028900788
-5.33741E-4
-1.6107813E-4
-0.0033958775
-0.0054470617
-0.004997988
-0.0025661755
-0.0012463329
-0.0014808449
-2.085185E-4
0.0022369563
0.0041405163
0.0039509307
0.0037089712
0.0040947134
0.0015997617
-0.0015383214
-0.004504166
-0.007866511
-0.006492429
-9.5022965E-4
0.0031540806
0.0041723773
0.0040695216
0.004202976
0.00450043
0.0055999574
0.004734148
-6.56564E-5
-0.0047758305
-0.005252628
-0.0015180383
0.0016713755
0.0028256075
0.0027445902
-2.0580944E-4
-0.0027696192
-0.0041357977
-0.00478904
-0.001163649
6.030118E-4
-0.0025676612
-0.0018838247
0.002222543
0.0029053495
5.111831E-4
-1.3049874E-4
0.0019485271
0.0016555109
-0.0016157737
-0.0035339268
-0.0039080367
-0.00282654
2.608582E-4
0.002913609
0.003665681
0.0026931146
0.0023507378
0.004280339
0.0036284076
2.1846825E-4
1.1211523E-5
1.757543E-5
-0.0030400732
-0.0037848477
-0.002177139
-0.0022872682
-0.0010117032
6.518372E-4
-0.0034340352
-0.0075625475
-0.0053858208
-9.953011E-4
0.0012751144
6.047434E-4
0.0015841345
0.0040396308
0.0038114267
0.0059788544
0.0069648447
0.0018416605
9.5330505E-4
0.0031030485
2.7758663E-4
-0.003367403
-0.0040230635
-0.0021222557
3.634329E-4
0.0016117318
0.0028768769
0.004978251
0.0040661297
-0.0017334599
-0.005094484
-0.004349794
-0.00513316
-0.005465895
-0.0041100765
-0.0027419608
-0.0019949097
-0.0037284915
-0.003786219
7.5157813E-4
0.0055667465
0.008704085
0.011475588
0.015232035
0.016860267
0.012563326
0.0042171907
-0.006475625
-0.0155672515
-0.016392393
-0.010327134
-0.0043154988
-7.033486E-4
0.0011064903
3.192421E-4
-0.0012075613
-0.0034240296
-0.008659773
-0.010831148
-0.008733467
-0.009472178
-0.009065484
-0.0042656125
-1.4972869E-4
0.0039744526
0.007615749
0.0066654654
0.0039692973
0.004479158
0.007686633
0.010129695
0.0116528515
0.013585983
0.013540522
0.012880461
0.013389458
0.010585288
0.0074529634
0.004330679
-0.006348068
-0.014944151
-0.014341594
-0.01543099
-0.01737608
-0.014161641
-0.010120354
-0.007587534
-0.00606353
-0.0045019737
-0.0020741795
-0.0021718664
-0.0027960597
5.2689854E-4
7.1003614E-4
-0.001120286
0.0049502756
0.0075755124
-0.0012946121
-0.00753875
-0.0047596428
3.3423558E-4
-0.0010349818
-0.0040731286
0.0016299881
0.007044791
0.009935052
0.017577473
0.021269804
0.016802752
0.008800753
6.9034664E-5
-0.0046930527
-0.004943052
-0.004954735
-0.0061737215
-0.005458013
-0.0057371203
-0.008808794
-0.004196935
0.0045111883
0.00542268
0.0039240858
0.0044314447
0.0031948984
-6.983704E-4
-0.004830277
-0.008572885
-0.014019067
-0.016807718
-0.013259902
-0.008037619
-0.0036179384
4.7468295E-4
0.004968999
0.011312006
0.016403696
0.012117503
8.732412E-4
-0.0060092085
-0.0101625845
-0.012318755
-0.009291683
-0.010305763
-0.012906103
-0.00691756
0.0017864394
0.0073310896
0.012014052
0.015048409
0.008016641
-0.0020988355
0.001691466
0.0076483707
0.004629988
0.0027869921
0.005679263
0.011502923
0.01624511
0.022271592
0.027055018
0.020346286
0.013595709
0.008321103
-0.008304249
-0.032730613
-0.06223402
-0.08610713
-0.08764794
-0.06649514
-0.03320088
1.18251315E-4
0.03149496
0.061920654
0.08656967
0.09883298
0.102191485
0.10055939
0.0762563
0.033755608
-0.001012924
-0.03312455
-0.05421893
-0.032305382
0.018976035
0.056311093
0.06668353
0.063273035
0.053986903
0.01696606
-0.055763245
-0.12431803
-0.17707469
-0.19857098
-0.16250715
-0.1298036
-0.12010836
-0.089879185
-0.06528127
-0.06028669
-0.03486049
0.021128664
0.0405573
0.012884153
0.041061282
0.11886748
0.18529516
0.22160548
0.18562965
0.119679205
0.09152937
0.10371941
0.091793366
0.0025660135
-0.06941744
-0.10864401
-0.13752663
-0.08798257
0.010356099
0.14492247
0.19063273
0.02982272
-0.10512234
-0.083645195
0.008288029
0.015501606
-0.08757163
-0.05179062
0.045800354
0.06143419
0.06868774
-0.0587451
-0.19782053
-0.2107302
-0.25930828
-0.25928733
-0.12497237
0.11373509
0.32566258
0.34810513
0.31073698
0.15286587
-0.14047837
-0.26556665
-0.30305234
-0.31780487
-0.19611819
-0.08739239
-0.02168526
0.071462534
0.18115796
0.29166144
0.31705713
0.28092858
0.27917287
0.27765095
0.13646954
-0.181101
-0.38658264
-0.30683953
-0.18138607
-0.1270589
-0.020710953
0.13829418
0.23682696
0.25070593
0.20538613
0.05193097
-0.16211963
-0.3019703
-0.38124067
-0.3646497
-0.18940517
0.02412176
0.23883677
0.3769235
0.29507834
0.16769655
0.055367805
-0.12503678
-0.20791246
-0.19021401
-0.09440036
0.09719474
0.10796274
-0.026155569
-0.048921637
-0.02579717
0.045781747
0.18404871
0.22850125
0.08878388
-0.12161876
-0.18128097
-0.1404465
-0.11678667
0.009299358
0.15771317
0.15705492
0.07555905
4.662495E-4
-0.039391894
-0.07298583
-0.14059617
-0.15208153
-0.04258168
0.05200384
0.048971206
0.07083457
0.11653533
0.07782536
-0.011753876
-0.057154823
0.018210474
0.07354697
-0.0647853
-0.18801713
-0.16749483
-0.13696241
-0.11173148
-0.090229824
-0.051101588
0.037479486
0.09485531
0.13598225
0.17170376
0.115196526
-0.0070558093
-0.11814857
-0.11849064
0.015037938
0.1198994
0.10065757
-0.034832686
-0.09981517
0.11300098
0.34532067
0.41043627
0.3938254
0.15036577
-0.24256054
-0.44590053
-0.28500146
0.16226742
0.43307784
0.32076657
0.021781046
-0.36714077
-0.5518607
-0.38305822
-0.16400906
-0.0675385
-0.060453765
-0.041135095
-0.030423006
-0.08017585
-0.068803154
-0.05089539
-0.06166343
-0.014184352
0.006731478
0.008435918
0.045488026
0.10767058
0.16619232
0.15979095
0.19982713
0.24517216
0.110984236
-0.028507045
-0.019726638
0.06186138
0.12380769
0.06454907
-0.03981764
-0.057728913
-0.042055015
-0.048214063
-0.06259667
-0.075929314
-0.066711806
-0.030023534
-0.0039346847
-0.0062510143
-0.018738031
-0.026120553
-0.028879255
-0.03472793
-0.014156117
0.029755844
0.030868988
0.0039265878
-0.011087043
-0.027203163
-0.028168019
-0.0020141527
0.029977899
0.046188682
0.03427582
0.0022090455
-0.023681698
-0.016498458
-0.0063500726
-0.029579025
-0.046315204
-0.037531313
-0.028471682
-0.018297244
-3.2775206E-4
0.017987762
0.025312027
0.023226308
0.018595455
0.0137394555
0.017478768
0.028127635
0.04514861
0.06266283
0.048668284
4.683061E-4
-0.045463458
-0.05496618
-0.03131595
-0.017944206
-0.018648744
-0.009155842
-0.003898343
-0.0110067
-0.021765066
-0.032033112
-0.028791798
-0.013781257
-0.0054421
-0.0035267025
0.0023559383
0.003439872
-0.003382476
0.002151087
0.014966686
0.017081896
0.016732944
0.01594935
0.015494895
0.020798404
0.023945797
0.029205523
0.038023714
0.040886164
0.03920934
0.026804676
0.010402003
0.0069413506
0.004927273
7.176482E-4
0.004434845
0.010886198
0.011154689
-4.1084047E-4
-0.015515816
-0.017719837
-0.009214326
-0.006446442
-0.013296087
-0.016876062
-0.01648878
-0.018341148
-0.01914436
-0.022054523
-0.027644033
-0.032644726
-0.03742767
-0.03808461
-0.038051747
-0.04042391
-0.0398326
-0.033807106
-0.024417035
-0.018818634
-0.014602376
-0.006341505
0.0014740576
0.010083242
0.020496279
0.032554775
0.044444777
0.04754272
0.046180792
0.04797987
0.050897352
0.04858089
0.036739774
0.025509017
0.021951633
0.024977794
0.030459415
0.029669676
0.028057372
0.023931004
0.010715721
4.0351955E-4
-0.009900941
-0.0217392
-0.02535605
-0.030363847
-0.036942337
-0.0379667
-0.038283743
-0.034415863
-0.024480036
-0.015826486
-0.016508218
-0.026185708
-0.029394139
-0.023210362
-0.017016556
-0.0088745775
-0.003369968
-0.0037805338
0.0015488476
0.008540583
0.0068072304
0.0026704615
6.062377E-4
-6.461638E-5
-5.717678E-4
-8.125847E-4
0.003492575
0.0067389025
0.0055747163
0.007894236
0.010722167
0.01031685
0.009907236
0.0098797735
0.012847918
0.015583099
0.01299288
0.010955611
0.011446313
0.009632194
0.0064768526
0.0058984947
0.0066488907
0.006183936
0.004782376
0.0027596613
0.0036161337
0.0071104737
0.005178681
-5.967673E-4
-0.0048315343
-0.0094026495
-0.012190491
-0.011992078
-0.011735662
-0.010323594
-0.008474813
-0.008594898
-0.009655511
-0.010346614
-0.010658127
-0.011200164
-0.01018753
-0.0067510353
-0.004183204
-0.0030641877
-0.004060534
-0.0064826044
-0.0035682856
0.002398061
0.004386469
0.0038178803
0.0022927816
0.0019692136
0.0033377465
0.0036399795
0.0040146117
0.0032696566
0.0024436146
0.0046331324
0.0045657633
0.0014192548
-6.8209803E-4
-0.0013852994
-0.001059131
-0.003798373
-0.009388299
-0.010311131
-0.0063622743
-0.0026091293
4.106782E-4
0.0023279279
-2.4676207E-5
-0.002939921
-0.0014076256
-8.368418E-4
-0.0027537886
-0.0025207917
-0.0011783643
9.253627E-6
0.0014245816
0.001904339
8.8973914E-4
6.977616E-4
0.0023159652
0.0025452063
0.0027049703
0.003912387
0.002578689
0.0010383597
0.001008617
-5.980848E-4
-0.002736813
-0.001357662
0.0024478652
0.001759258
-0.0014844704
-7.154384E-4
-1.5352729E-4
-0.0020719096
-0.0023593977
-4.6812173E-4
9.7586773E-4
0.0012131354
0.0020526953
8.679158E-4
-0.0014359981
0.0011731194
0.0029231238
-6.212828E-4
-0.0021669727
-7.503348E-4
-0.001225838
-0.002461519
-9.045396E-4
0.0015240263
0.001513935
6.010533E-4
-1.6235179E-4
-0.0016769724
-0.0019225812
-7.51302E-4
-0.0013126888
-7.378086E-5
0.0041426136
0.0045108087
0.0042843283
0.0064020525
0.0052006454
0.00233758
-0.0012088979
-0.003743801
-0.0012815922
3.8406654E-4
3.0831504E-4
0.0010577467
6.0627767E-4
8.6116954E-4
4.0239258E-5
-0.0015432521
-3.8967843E-5
-1.8495455E-5
-0.001865515
-0.0022620051
-0.0026857946
-0.0021345562
-8.1485795E-4
-0.0012607377
-0.0020692085
-0.0015304573
-7.0557545E-4
9.366251E-4
0.0035509334
0.0025753998
-9.1434375E-4
-3.3809757E-4
0.0020994789
0.0014212145
-6.84974E-4
-0.001105648
-9.773475E-4
-0.0023675496
-0.0022739368
-4.1430967E-4
5.536595E-4
0.0031363624
0.0047198767
0.0020202103
8.277511E-4
0.0014110157
8.12687E-4
9.125815E-4
3.8504633E-4
-3.930366E-5
0.0019331544
0.0016544147
-9.532277E-4
-0.0011919332
-0.001224456
-0.002269421
-0.0018923734
-8.834095E-4
7.0323463E-4
0.0034009088
0.0040066824
0.0014154123
1.4975872E-4
4.6862446E-4
-0.0027436775
-0.005761352
-0.0043746075
-0.0032737185
-0.0016128254
-4.0357318E-4
-0.0027411617
-0.0012232707
0.0021743688
0.0017483059
0.0021976947
0.0019232252
0.0013160845
0.0018378735
-8.392814E-4
-8.0671726E-4
0.0020844592
0.0012875348
0.0013370155
0.0015748433
3.498929E-4
7.768307E-4
1.1716214E-4
9.632864E-5
0.0020534133
0.0024749795
0.0029485098
0.0024508117
3.3409233E-4
5.3234876E-4
0.0012621004
4.483177E-4
7.2089705E-4
0.0024242976
0.001806711
-0.0019418949
-0.003926298
-0.0033057726
-0.002843454
-0.0021074787
-0.0015726252
-0.0015243834
-0.0011195559
-0.0015100333
-0.0027000164
-0.0031402796
-0.0025169565
-0.0024120586
-0.0020509125
2.446045E-5
-4.0468803E-4
-0.002691375
-0.0016383892
6.632691E-4
0.00152675
7.965708E-4
7.383237E-4
0.0024235242
0.0015881652
0.001261435
0.0040814667
0.0051561124
0.006178091
0.0081117675
0.0074195075
0.0042417194
0.0017385838
0.001669785
4.915091E-4
-4.247256E-4
0.0011367481
-6.736874E-5
-0.002546673
-0.0030031637
-0.0031363408
-0.0042328183
-0.0059661
-0.0052018287
-0.0048616924
-0.005727949
-0.003396259
-0.0024076276
-0.0023122511
-3.5357533E-4
1.6711777E-4
0.0010509426
0.00120525
1.860133E-5
4.9234007E-4
8.26811E-4
0.0012064107
0.0021856972
0.0034152025
0.004706987
0.004562784
0.004227155
0.0032874516
0.0018055385
0.0015326275
0.0017501096
0.0018033261
2.2239225E-4
-9.417822E-4
-0.001055567
-0.003382562
-0.004039219
-0.003214096
-0.0040473654
-0.0033117603
-0.0023313267
-0.0013206579
3.0282667E-4
-8.308483E-5
0.0012784309
0.003823603
0.0029343627
0.0021808727
0.0031660872
0.0030685198
7.893233E-4
-0.0019599132
-0.0011599367
8.477872E-4
-3.6071983E-4
-0.001559514
-0.0011018191
-1.5620187E-4
0.0014190067
0.0021487651
0.0023632853
0.0014537253
-6.058065E-4
-2.8661787E-4
-0.0013603095
-0.004348866
-0.0023925395
5.0051865E-5
-7.60387E-4
-8.159108E-4
-3.9675916E-4
8.625008E-4
0.001434876
-4.989361E-4
-6.541298E-4
5.234324E-4
6.5149047E-4
8.7337627E-4
2.7506507E-4
-5.5738515E-4
-2.1822484E-4
-2.4329055E-4
-0.0013243814
-0.0018383671
-4.306796E-4
0.0015556534
0.0016036853
-0.0010885826
-0.003056338
-7.6403184E-4
0.0023412341
0.0025953304
0.0010047206
-3.2991715E-4
5.1125928E-5
0.0016622401
0.003628696
0.0035168752
0.0016483649
0.0019743885
0.0013754843
3.1812038E-4
0.0013920814
-0.0012669394
-0.002822516
-5.2947685E-4
-0.0023338292
-0.0025151407
2.0945756E-4
-9.86851E-4
-0.0017135843
-8.814217E-4
-8.8371086E-4
-2.7585612E-4
-2.8914507E-4
-0.0022951628
-0.0035020898
-0.0012251871
0.0010193032
0.001919132
0.002096739
-3.0285312E-4
-6.726872E-4
1.5923427E-4
-7.0371025E-4
0.0015254808
0.0022783545
6.5032416E-4
0.001813412
0.0015533994
0.0011183914
0.0021902071
0.0016141664
0.0017252757
0.002149563
8.244868E-4
3.2882983E-4
0.0013512712
-0.0015677479
-0.006962194
-0.0045586494
2.8698065E-5
-0.0018951641
-0.0017375799
0.0019974804
0.0014514775
-0.0010453433
-0.0011504404
-0.0018687666
-0.0018997146
9.6282735E-4
7.465974E-5
-0.0011507011
0.0021310796
0.0020121143
0.0013331305
0.00232922
-4.5336294E-4
-0.002128802
-0.0011389029
5.5691565E-4
0.0020005922
1.4246325E-4
-3.444631E-4
0.0011661818
-4.7257793E-4
-0.001631914
0.0011792447
0.00256913
-5.511711E-4
-3.655525E-4
0.0026574512
2.7130998E-4
-0.0019948718
-0.0015036946
-0.0015387832
-5.095023E-4
-8.937439E-4
2.2732336E-6
0.0033028475
0.0026646738
0.0018259352
0.0014532579
-6.025647E-4
1.1049715E-4
-7.578982E-7
-7.7762565E-4
0.0018989481
0.00173643
-0.0015704785
-0.002512309
-0.0010777784
-4.2993025E-4
-0.0034178002
-0.00518725
-0.0026126702
-7.976148E-4
3.8504726E-4
0.0014795698
-1.7433596E-4
-6.0140644E-4
0.0019621688
0.0020358444
-4.3617253E-4
-3.1179542E-4
0.0022777712
0.0023973868
-3.9948302E-4
-8.1247074E-4
5.895807E-4
-3.4550534E-4
-2.5203562E-4
0.0011577039
7.1344635E-4
0.0023257092
0.0042817756
0.002368565
0.0012119755
7.587255E-4
-0.0010798557
-0.001381848
-9.070525E-4
-3.9040938E-4
3.4838304E-4
-2.7046478E-4
-4.1862708E-4
8.01501E-4
7.009506E-4
-4.146814E-4
1.2806029E-4
9.966422E-4
-1.0748582E-4
-8.54268E-4
-9.2881336E-4
-0.002784534
-0.004711789
-0.0040865955
-0.0011622142
6.660636E-4
3.7173892E-4
7.176119E-4
-1.098066E-4
-8.853245E-4
0.0014690039
6.0072745E-4
-9.520809E-4
0.002888528
0.002610669
-3.5862214E-4
0.0022884235
0.002476173
9.727591E-4
0.003096692
0.0015710825
-0.0016934074
-0.0022092175
-0.0027016166
-0.002032456
-9.2024857E-4
-6.347294E-4
-0.0012032283
-0.0022949686
-8.5255795E-4
2.707973E-4
-1.786842E-4
3.3325484E-4
-0.0011379952
-0.0030933076
-0.001929609
0.001820323
0.0054104663
0.006077233
0.0063196844
0.004222667
3.1749473E-4
0.0013434076
0.0028941354
0.0042160368
0.005557454
0.0020755292
0.0010537993
-1.08427834E-4
-0.006606412
-0.008406466
-0.007612663
-0.006930288
-0.0039014444
-0.0041189003
-0.004532674
-0.0023950608
-0.0016201683
-6.299238E-4
-2.9070268E-4
-0.0015845423
-0.0020651165
-0.0020649747
-8.1614405E-4
0.0023912813
0.0044991137
0.0048040664
0.0060365996
0.006719264
0.0052589383
0.005317393
0.006095456
0.003812206
-1.9369643E-4
-0.0037122054
-0.0040557487
1.5530326E-4
0.003318566
0.0013270822
-0.002193884
-0.0054917666
-0.008196244
-0.0058849305
-7.758037E-4
0.0011883177
9.4560906E-4
-0.0016082561
-0.0043903403
-0.0026594754
-6.72891E-4
4.0205676E-4
0.0037202418
0.004753487
0.0039442666
0.0046759564
0.0027668397
-8.339253E-4
-9.0888253E-4
0.0025218888
0.006027325
0.005534195
0.0015019597
-0.003204711
-0.0054761544
-0.0036836425
-0.0028953883
-0.003863414
-0.004770474
-0.0059893206
-0.0021186983
0.0014977515
-6.537875E-4
1.8060043E-4
7.329873E-4
-2.861485E-4
0.0024284287
0.0015100269
-3.103059E-4
0.0011938292
-4.712747E-4
-0.001597337
3.965328E-4
0.0025594784
0.0037925225
0.0017515724
-1.6807535E-4
6.1167084E-4
0.0012100152
0.001006115
-2.4652397E-4
-0.0010159308
7.7968114E-4
0.0017718354
-0.0010676448
-0.0026288545
-2.3350994E-4
-2.9604428E-4
-0.0020562918
-0.0016425014
-0.0017462666
-5.0645624E-4
0.001474704
0.0015637203
0.003561171
0.0039391224
6.692117E-4
6.6290953E-4
0.0018117665
1.656587E-4
-0.0016656001
-0.0035518652
-0.003572363
5.041718E-4
0.0025104112
-8.4593316E-4
-0.0033940834
-0.0017376646
9.4964256E-4
0.0013073869
1.0992825E-4
-9.224378E-4
-0.002397256
-0.0015535249
0.0021765616
0.0027513597
3.9565173E-4
-5.3675123E-4
3.4879724E-4
0.0011412106
9.702933E-5
-1.320219E-4
8.7910856E-4
-2.9463865E-4
-0.0023794684
-0.0030510344
-0.0021624947
-0.0017717552
-0.0021756662
-6.2853564E-4
7.632809E-4
9.648143E-4
6.112675E-4
-4.293038E-4
0.0017367937
0.0033818972
6.993375E-4
2.3610624E-5
0.0012399859
0.0015829714
0.0016938763
8.744954E-4
7.3034794E-4
0.0022532549
0.0041913423
0.0044273925
0.0031499695
0.0028373785
0.0010387858
-0.0021575952
-0.0018616634
3.147747E-4
-6.8563875E-4
-0.0036761002
-0.003714712
-0.0022278512
-0.002801796
-0.004812924
-0.0057688095
-0.002496473
4.5433664E-4
-6.6169194E-4
-0.0012863802
-0.0017213572
-7.187274E-4
9.059918E-4
-0.0012014961
-0.0011641576
3.0261683E-4
-2.5950158E-5
0.0012560799
6.496486E-4
2.447398E-4
0.0023558266
0.0024276688
0.0037071533
0.0056634224
0.0036403188
4.0440334E-4
4.1096943E-4
0.001920518
-3.5476583E-4
-0.0013027558
9.5443474E-4
2.1138064E-4
7.9542544E-4
0.0010098525
-0.0017325882
-1.167467E-4
0.0014852299
0.0014493376
0.002415141
-1.307028E-4
-0.0013946482
-0.0015249018
-0.004720897
-0.004590339
-0.0030059782
-0.0022259771
-7.2880764E-5
-2.1349174E-4
-0.0011359601
-0.00201379
-0.0025122256
6.6707384E-5
4.1925302E-4
-2.6795482E-5
0.0021411562
0.0011550189
-4.330236E-4
7.5126874E-5
-1.1220478E-4
3.5654078E-4
9.977795E-4
0.0016743485
0.0021198017
0.0017922757
0.0026664454
0.0019600878
3.82305E-4
8.244808E-4
9.2517247E-4
0.0020985275
0.0014437303
-0.0022277539
-0.0012626703
2.780984E-4
-0.0014222004
-0.0013429781
-5.978099E-4
-5.9695094E-4
-0.0021263398
-0.00296906
-2.0800575E-4
1.4456718E-4
-0.0015151527
-8.7400223E-4
2.4101387E-4
0.001354652
7.984628E-4
3.815686E-4
0.0012343177
5.967774E-4
0.002018179
0.0022504614
-5.4302043E-4
5.064193E-4
4.5801638E-4
-0.0017664861
-0.001148534
-7.4748305E-4
0.0013032247
0.0038046192
0.0020581791
-1.1297309E-4
-0.0014161293
-0.0015527467
1.0219939E-4
-1.8242128E-4
-0.0014968549
-0.0018710238
-0.003892984
-0.005847049
-0.003443649
1.6606734E-4
-5.790609E-5
-0.0012507254
-9.602725E-5
6.3611486E-4
-1.5627327E-4
5.536582E-4
0.0019425577
0.0011457637
0.0012280747
0.0028083804
0.0025907492
0.002512235
0.0016015858
-1.6729207E-5
0.0019911283
0.0027602192
0.0015331706
0.0017092298
3.358192E-4
0.0019058201
0.004566219