-0.0017938532
-0.0016516373
-0.0010236996
-4.4173538E-4
5.560525E-4
-4.4964586E-4
-0.0012958695
0.0021117886
0.0025823938
-0.0023617006
-0.0025945553
5.565006E-4
0.001158276
4.2802264E-4
-0.0024059664
-0.004787253
-0.0050219228
-0.004543914
-0.0021003499
-0.0010041435
-0.0013600152
-5.0150283E-4
-6.353801E-4
-2.0306974E-5
-1.622343E-4
-0.0019560317
5.55444E-4
0.0026032075
3.3766325E-4
6.3672516E-4
0.003420088
0.004458108
0.002889094
4.4117644E-4
4.7737267E-4
0.0029142967
0.00501058
0.004543964
0.0024864252
0.0010570773
-4.5070372E-4
-7.3644053E-4
6.454772E-4
6.4315234E-4
-3.3351997E-4
-7.126183E-4
-4.2447343E-4
-9.805873E-4
-0.0022396734
-0.0014463721
-0.0020050076
-0.004405878
-0.003231534
-0.0014293285
-0.0017715016
-0.0022042915
-0.002016377
-4.659517E-4
0.0010440294
0.0011727689
-0.0010698845
-0.0037858551
-0.0020966723
4.5041819E-4
0.0012278911
0.0022102625
9.821776E-4
-2.534971E-4
6.712282E-4
0.0015873655
0.0026614387
0.0018346637
-2.3014504E-4
-3.3444352E-4
-5.3180206E-6
-5.969457E-4
-0.0016219952
-9.248896E-4
0.001969166
0.0042048674
0.0054891794
0.0053625926
0.0036598714
0.0032133402
0.0022945558
-0.0024114018
-0.0057218685
-0.0033773237
-0.0020649354
-0.0032386822
-9.257537E-4
0.0010693783
-1.534299E-4
-8.3668914E-4
-0.0012147486
-8.351071E-4
-6.218283E-4
-0.001823233
-0.001007707
-5.152063E-4
-0.0021116263
-0.001794245
-0.0011805722
-0.001217244
-4.0831487E-4
-9.935562E-4
-0.001603889
1.5859952E-4
0.0023353668
0.003152585
0.0028767681
0.0039442163
0.0048991335
0.0019188966
-0.0012620236
-0.0014712614
2.1227876E-4
0.003524877
0.0047795037
0.0022923355
-0.001024969
-0.0035827993
-0.004694103
-0.0055817906
-0.00488491
-7.1111706E-4
0.0019569607
0.0014283309
9.187706E-4
6.880547E-4
-5.775299E-4
-0.0020797246
5.025919E-5
0.0023923418
2.410384E-4
-3.979996E-4
2.2156964E-4
-6.139987E-4
6.549879E-4
9.256024E-4
2.3125726E-4
7.023402E-4
-7.0684345E-4
-6.578666E-4
1.731337E-4
-0.0016153296
-0.0018310832
-0.001404064
-0.001208376
0.0011798592
0.0020191907
-1.8555787E-4
-8.603229E-4
0.0012283884
0.0016907548
9.0090424E-4
0.0023037533
0.0026347593
0.0018948534
0.0024533877
0.0018259388
5.421127E-4
-8.1238264E-5
5.447561E-4
0.001806986
0.0015241362
0.002275478
0.0025274733
-3.7581997E-4
-0.0017693803
-0.0024152596
-0.0038275416
-0.003749694
-0.0031085787
-0.0028944432
-0.004867936
-0.005734294
-0.0029210178
-0.0024425301
-0.0022884505
-0.0012210512
-0.0026796157
-0.00233705
-0.0016212008
-9.21465E-4
0.0020811707
0.0021375208
0.0019322532
0.0031061645
0.003399595
0.004255614
0.0015018529
4.3570806E-4
0.003506207
0.0018084998
0.0029600528
0.0074971463
0.005911556
0.0037047158
0.0025849799
0.0015136009
0.0011425669
-2.9498891E-5
0.0015883205
0.003545782
0.002243204
1.4814161E-4
-0.0018160607
-0.002309563
-0.0039665652
-0.0069070924
-0.0069210096
-0.005956457
-0.005055407
-0.0058257044
-0.0071779187
-0.003218456
-4.2779106E-4
-0.0028070584
-0.0019081618
1.4224129E-4
-8.6069276E-4
4.6574732E-4
0.001771511
1.087376E-4
0.0012118291
0.0024999091
0.001873516
0.0036227745
0.0029246004
5.9441116E-4
0.0036622698
0.0073264753
0.00614692
0.0019425835
1.09049404E-4
7.7933853E-4
-7.4978406E-4
-7.708297E-4
0.0012842697
4.3452994E-4
-6.759288E-4
-5.941834E-4
-3.7213627E-4
2.5713904E-4
2.3949074E-4
-1.10748566E-4
-6.1780534E-5
-1.2290305E-4
-0.0023994574
-0.005587615
-0.005093228
-0.0023747901
5.68807E-4
0.0030735917
0.0029583836
0.0023413298
0.0020775585
9.940679E-4
4.164599E-4
-7.72921E-4
-0.0024308981
-0.0024320732
-0.002069098
-0.0021568623
-0.0019117227
-0.0018980562
-0.0028905233
-0.0032932002
-0.0016731323
-3.4159364E-4
7.966437E-4
0.0032033406
0.0032060987
0.0020871945
0.004098728
0.0055224397
0.0050741723
0.0036777204
3.4940417E-4
-6.338185E-4
4.9765594E-4
-5.167178E-4
-0.001472028
-0.0016020859
-0.0026882847
-0.0037265252
-0.0027751615
-0.0010732164
-7.3609425E-4
-7.572244E-4
-0.002904639
-0.0053651487
-0.003745046
-0.0034078003
-0.0037101386
-0.0010407025
-5.682865E-4
-4.0034778E-4
0.0012859644
0.002265841
0.004057551
0.0041132676
0.0033132762
0.004815343
0.0060167485
0.007435312
0.009100081
0.008232725
0.0055112
0.0036585168
0.002408315
-0.0010453555
-0.004844653
-0.0071316883
-0.008395889
-0.0077111633
-0.006939865
-0.005522785
-0.0031694204
-0.0034844386
-0.0033972198
-0.0012890098
-9.812758E-4
-7.39061E-4
2.5930422E-4
-0.0016339631
-0.003453388
-0.0014196094
-8.149729E-4
-0.0014182188
9.988749E-4
0.002674604
0.0034258575
0.0035945554
0.0028772922
0.004839051
0.0057349787
0.004296698
0.0026066096
5.266453E-4
0.0023203588
0.0035130875
5.593494E-4
-0.0013033181
-0.0028938423
-0.0024571968
-9.904113E-4
-0.0020586308
-7.3461345E-4
0.0014125454
7.898747E-4
-1.9317785E-4
3.428801E-4
0.0016491683
-2.9997528E-4
-0.003033213
-0.0027708148
-0.0019639228
-0.0024732912
-0.0048455517
-0.004550316
-0.0020527304
-0.0027995084
-0.0025338733
-3.4679603E-4
0.0016055647
0.003568561
0.0031993221
0.0033992736
0.006121717
0.007992716
0.0067516393
0.0046879905
0.0039912807
5.67529E-6
-0.0030858447
-0.0022025902
-0.0037535992
-0.0014565077
7.619728E-4
-0.0041790046
-0.0032615075
-3.764471E-4
-0.0026523564
-0.0034795564
-0.005753648
-0.0066337073
-0.0042122304
-0.0054811668
-0.0059082313
-0.003160427
-9.499722E-4
0.0010010906
0.0013534604
0.0018554365
0.004665023
0.0069503644
0.008378534
0.009966233
0.010415182
0.009346189
0.0075935377
0.004801145
0.0012500102
-0.0013424669
-0.003073473
-0.003206766
-0.0012871624
-0.0026005683
-0.00699933
-0.006234998
-0.0026030317
-0.0030064064
-0.0035505889
-0.0025977383
-0.0033023376
-0.0028691653
-0.0011217848
-0.0022194558
-0.005171107
-0.0057171723
-0.0029293275
-7.5146416E-4
3.9493706E-4
0.0038651251
0.0067860936
0.006634172
0.006025777
0.0053374046
0.0036856998
0.0020659019
0.0020456617
0.0020852187
1.0710108E-4
-0.0012912703
-0.0015379733
-0.0031059803
-0.0046210843
-0.0037069414
-0.0015420801
-2.7228365E-4
6.869306E-4
0.0022936347
0.0043126075
0.0040131845
-4.1381482E-4
-0.0023116148
-0.001294907
-0.0033963963
-0.0036463838
-0.0019465879
-0.0024606325
-0.001792265
-9.200774E-4
5.7670026E-4
0.0021887268
3.788977E-4
8.3409395E-4
0.0027995298
0.002047579
0.0032172964
0.0042713354
0.003058649
0.0026563634
5.05662E-4
-0.0031271062
-0.0034912413
-0.0012984485
2.8807842E-4
4.5426795E-4
1.2665876E-5
9.4391213E-4
0.002534286
0.0012180515
-0.0023603165
-0.005497347
-0.0066661313
-0.004505678
-7.664142E-4
0.0022638852
0.0025075432
-9.0918405E-4
-0.0030180735
-0.001635215
-4.436053E-4
-3.983041E-4
-6.169153E-4
-0.00117004
-8.92426E-4
0.0015086024
0.0036593904
0.0048276647
0.0071180947
0.007853733
0.006044359
0.0029701132
-0.002300138
-0.006846415
-0.00916922
-0.008040687
-0.001822596
0.0026512265
0.0028302346
0.0022492069
6.5262767E-4
-2.850805E-4
9.077604E-5
-5.546282E-5
-0.0014416048
-0.0033707994
-0.0027117962
-7.0198544E-4
1.3050917E-4
0.0010744366
0.002145007
0.004016259
0.0056395065
0.004977755
0.0032225228
1.147655E-5
-0.0021985378
-0.0014847845
-0.0017782954
-0.002182871
-0.0014078391
-0.0017783389
-0.0028610057
-0.0031704565
-0.0013782495
2.2836293E-5
-9.5718475E-5
0.00169576
0.002364969
9.1254833E-4
0.0010444443
5.770185E-4
-0.001039621
-0.0018481982
-0.0012027826
-1.4500489E-4
-0.0013147744
-0.0020638048
-5.9835278E-5
0.0017022305
3.105635E-4
-0.0027193902
-0.0014693
0.0018694883
0.0017011858
3.244295E-4
-0.0012223552
-0.0012393986
0.0012516755
0.0027121028
0.003457637
0.0029516502
0.0021310614
0.003513643
0.0021013746
-8.821824E-4
1.5614835E-4
7.659973E-4
-4.6135773E-4
5.790652E-5
-2.6068583E-4
-0.0022464988
-0.0024097688
-0.0016954743
-0.0017221915
-0.0020316404
-0.0035260639
-0.0047568874
-0.0038473783
-0.0022612666
-0.0011473491
-0.0011575385
-8.414893E-4
0.0021725327
0.0049657407
0.0050650933
0.0058757667
0.0071772556
0.0055075656
0.0044169556
0.0057820412
0.004871099
0.0017130184
-0.0013193965
-0.003186798
-0.0032174496
-0.0038237362
-0.0042731054
-0.0032710514
-0.0045690294
-0.006968287
-0.006384642
-0.00456145
-0.0043417006
-0.005005437
-0.0038747496
-9.3703327E-4
2.1089795E-4
-0.0014330597
-0.0022354042
-7.0796977E-4
9.588669E-4
0.0020638932
0.0028135846
0.0033702585
0.004830992
0.00776984
0.011413473
0.012412654
0.00869599
0.0034080844
4.0334117E-4
0.0013866941
0.004157396
0.0036682726
-0.0014189654
-0.00677553
-0.007006835
-0.00391659
-0.003282756
-0.0037031637
-0.0014911327
3.3386605E-4
-9.342185E-4
-0.0011709771
-3.8489545E-4
-0.0021468983
-0.0024249402
-0.0017253904
-0.004470203
-0.0056582657
-0.0034786128
-0.0020503693
-0.0015734516
-4.138274E-4
9.579374E-4
2.3949354E-4
-6.241206E-4
4.2066045E-4
0.0010787005
0.0023690097
0.004490924
0.0044822544
0.003809521
0.0047353823
0.004058967
4.4116436E-4
-5.092355E-4
0.0010617065
5.160246E-4
-6.101224E-4
-0.0016045254
-0.0018312549
-2.826561E-4
0.0014166272
0.003276664
0.0020392376
-0.0022812681
-0.0030323544
-0.0012760498
-0.0010091723
-0.0014561152
-0.0011490122
-0.0010071136
-0.0025405383
-0.0028989022
-7.256024E-4
0.0016260351
0.00238722
0.0010872411
-6.0136146E-5
9.128371E-6
0.002096905
0.004675891
0.0038233108
0.00248818
0.0020040614
0.002047413
0.0031618413
0.0014906282
9.814738E-4
0.0016477585
-0.0027600597
-0.0058432077
-0.006341172
-0.0068713874
-0.0041989307
-0.0013062743
4.133015E-4
0.0011723649
-3.3990128E-4
-0.0028291165
-0.004661778
-0.0032921873
-0.0013607101
-6.7150645E-4
2.3672411E-4
-0.0013250086
-0.0015979678
8.246544E-4
0.0019074306
0.0040323175
0.004683225
0.0023118027
0.0012222877
0.001955777
0.004584665
0.0060837725
0.0058985907
0.006338109
0.0042714393
0.0012143231
-5.5751664E-4
-0.0022614968
-0.0029634584
-0.005738449
-0.008784353
-0.005229374
3.4522288E-4
0.0024932025
0.0024166019
7.01457E-4
-5.501632E-4
-0.0020306206
-0.004640829
-0.0041429778
-0.00265752
-0.0016265854
0.0023887607
0.0042310352
0.0021962612
-2.2584139E-4
-0.0026365293
-2.3927016E-4
0.0039176866
0.0027379123
0.0015523509
0.0034413752
0.0061588557
0.0064575253
0.0015992615
-0.0016110274
-0.0013024154
-0.004371327
-0.0074560754
-0.0048411298
-5.2414415E-4
2.1854271E-4
-0.0022425572
-0.004346258
-0.0046142368
-0.003414659
-5.083884E-4
0.0021280816
0.0014991424
-9.466568E-4
-0.0019859658
-4.087345E-4
0.0022266228
0.0027193655
0.0017934922
-8.707642E-6
-0.0028206347
-0.0011295029
0.003385582
0.004918644
0.0066467253
0.0066447305
0.0024583975
3.0658633E-4
-6.102975E-4
-0.0034020273
-0.004426326
-0.0028330868
-0.001248034
-0.0016231689
-0.0040916638
-0.0058808834
-0.0058335317
-0.0053161755
-0.0029352708
0.0016119784
0.004955156
0.0053312085
0.0019813764
-0.0011176165
-1.781673E-4
-0.0020029983
-0.0056874678
-0.004705867
-0.006138804
-0.008548046
-0.0032196278
3.6965657E-4
-0.002380685
-5.849757E-4
0.0051810876
0.007842637
0.010466193
0.014818129
0.0142638795
0.0065142405
3.2383803E-4
0.0014330508
0.005030699
0.0074909646
0.0068882997
0.0026921316
0.0011490391
0.0045652585
0.0070734327
0.0026142513
-0.0065458305
-0.01069445
-0.009166474
-0.0075811455
-0.006526327
-0.005746123
-0.0037854295
-0.002311479
-0.0038312455
-0.0028457507
0.0036303306
0.010264792
0.00733632
-0.005756594
-0.014790032
-0.018425193
-0.026359396
-0.036876936
-0.042682175
-0.032513812
-0.006511196
0.015385899
0.029362906
0.042675227
0.045015708
0.03570685
0.023771117
-0.0016343956
-0.031367444
-0.032960415
-0.012672349
0.0027304215
0.0074713374
0.010532946
0.015438779
0.011335724
0.0025623655
9.6472807E-4
-0.0021071504
-0.01374464
-0.019124728
0.016817262
0.07269514
0.073571995
0.03838515
0.029345032
0.034081854
0.028043296
0.008050226
-0.023459993
-0.057384677
-0.07555311
-0.06638644
-0.059260342
-0.055559587
-0.018175863
0.013565862
0.0019036438
-0.0077436874
-0.002916039
0.007558657
0.035377514
0.055565
0.051435586
0.022390699
-0.025701497
-0.04280231
-0.02653884
-0.020171236
-0.033401467
-0.06464303
-0.07361957
-0.03494599
0.020237802
0.062952645
0.06227863
0.050593328
0.05659048
0.039756656
0.030588899
0.023598976
-0.012046178
-0.0060364255
0.0050755655
-0.03422565
-0.047464523
-0.026792813
-0.018432269
-0.034298643
-0.07146733
-0.105165124
-0.12664142
-0.11543971
-0.030106531
0.09849237
0.19732316
0.27445492
0.32404503
0.2497115
0.08462844
-0.050183117
-0.13836665
-0.1863807
-0.20923811
-0.18277426
-0.08260228
-0.0019513159
0.08803348
0.22744057
0.23995331
0.10641636
0.0096111465
0.016909875
0.035076737
-0.031057563
-0.12821619
-0.24770997
-0.40398872
-0.42119053
-0.28699842
-0.16755351
-0.062685184
0.037372295
0.109808005
0.16130334
0.17232244
0.18253617
0.20841953
0.20472558
0.15765195
0.06525775
-0.004974123
0.013575999
0.09273561
0.18037792
0.22132239
0.23534521
0.21927309
0.081826024
-0.12874004
-0.29202425
-0.31403998
-0.19507869
-0.12363338
-0.1358151
-0.13120887
-0.11128791
-0.032341834
0.039255682
-0.0057518547
-0.04461136
-0.020844743
-0.021964282
-0.085019626
-0.1579198
-0.11675224
0.03688216
0.18060109
0.23220661
0.19116153
0.1566865
0.14071114
0.09396843
0.05986189
-0.0052730325
-0.09525051
-0.07555297
0.005032893
0.09593925
0.19563423
0.11640114
-0.12319578
-0.2695801
-0.30452287
-0.26400593
-0.14184871
-0.048192505
-0.010485815
0.0030924657
0.048316345
0.20287679
0.35595265
0.46203807
0.44928083
0.056646347
-0.40586713
-0.45135596
-0.29619327
-0.1707622
-0.045925166
0.019965054
0.04613726
0.055360626
0.02042003
-0.018759096
-0.0034033805
0.04385025
0.02488893
0.04661915
0.1572663
0.06661546
-0.15786758
-0.17473133
-0.08463284
-0.049009178
0.039867394
0.1810981
0.22696234
0.16066274
0.0798887
0.028666262
0.0034281122
-0.016671453
-0.034708574
-0.01916025
0.025200201
0.062288612
0.020655474
-0.11488102
-0.20537749
-0.18086599
-0.1104961
-0.036337174
0.022329066
0.04173388
0.026768278
0.0047088657
-0.009125042
-0.008833716
0.0035870902
0.010832463
0.024541192
0.03913839
0.029369634
0.01984502
0.00463519
-0.021342324
-0.013233496
0.0113384165
0.01376132
0.00864143
0.017574694
0.027155941
0.010890639
-0.004943946
0.0042821257
0.010688064
0.008377671
0.008769751
0.0041441573
-0.00290731
-0.001016388
0.001640042
9.42649E-5
0.0032512546
0.003935263
0.004769197
0.014041886
0.020762358
0.021077873
0.0067615714
-0.012762792
-0.013804431
-0.011586972
-0.013876519
-0.013148896
-0.01597592
-0.022974594
-0.03190295
-0.03535634
-0.02897957
-0.016868306
-0.006454455
-0.0068903253
-0.0053333896
-0.0028884185
-0.013751136
-0.018180344
-0.011766155
-0.0027836305
0.010894253
0.015542195
0.014296582
0.015791217
0.015778434
0.020967156
0.025658797
0.026246995
0.032099225
0.041487373
0.05629201
0.066049285
0.058047425
0.04141565
0.005082296
-0.04569781
-0.06433885
-0.048920862
-0.02886134
-0.009484888
0.0018324672
3.6425708E-4
-0.004661731
-0.014225687
-0.032695714
-0.047974408
-0.04455844
-0.031619377
-0.025214624
-0.019347131
-0.010967165
-0.005811245
-0.0015740041
0.0033289082
0.00978667
0.016923094
0.021946717
0.024005475
0.021188939
0.018277654
0.019785367
0.024810629
0.028467678
0.022181993
0.0138625195
0.0071022296
-0.0038178267
-0.0042859796
0.004266015
0.009836429
0.0135629345
0.0013982046
-0.01868448
-0.019846043
-0.01182115
-0.007852259
-0.006059959
-0.0074264617
-0.00898764
-0.007530722
-0.0054471
-0.0058581475
-0.006558024
-0.0054086265
-0.004950132
-0.0041045006
-0.0023352806
-0.0014242061
-0.0014743996
-0.0026506968
-0.0019333443
7.558514E-4
0.0012013233
0.0013910937
0.004050897
0.0062013553
0.007948806
0.010373695
0.0073168995
-1.2892533E-4
-0.0033415728
-0.0023733606
2.948227E-4
7.0454855E-4
-0.0021484303
-0.002293994
-0.0023941768
-0.0039875787
-0.0034658988
-0.0032284705
-0.0035901202
-0.004998118
-0.005606296
-0.0025869266
-5.780078E-4
0.0016956549
0.005294523
0.006119075
0.0055319956
0.0046176086
0.004334839
0.0026687821
-0.0013614091
-0.0023236498
-0.0017743665
-0.0016850717
-0.003104822
-0.0056820796
-0.0014428382
0.003683509
0.0039742696
0.0067602666
0.0065406505
1.4783583E-4
-0.0069139395
-0.012109604
-0.01019035
-0.007438505
-0.0087669045
-0.0060559697
-0.0030502914
-0.0014342385
0.0025918838
0.0019468501
6.3623296E-4
0.0047791665
0.006615639
0.008393098
0.011268764
0.006986811
0.001357449
-5.7237817E-4
-0.0035017533
-0.006327989
-0.0060194144
0.0011961322
0.010476549
0.01142856
0.010465391
0.008213483
-6.998097E-4
-0.0026876025
0.0020276606
0.0010638706
9.575847E-5
0.0014080445
1.7293199E-4
-0.0037253797
-0.009108308
-0.011072664
-0.0089338105
-0.0069151605
-0.005035145
-0.0023168644
3.1232066E-4
1.19802346E-4
-0.0019560936
-0.0025637755
-0.0031444111
-0.0038200186
-0.0041453824
-0.0047738887
-0.002524771
0.0013613437
0.002082772
8.4121467E-4
6.8934757E-4
0.001952162
0.0032636363
0.005067723
0.0074996585
0.006934346
0.0045587122
0.003542147
0.0023077063
0.0023331053
0.003101613
0.0017660242
0.0016718479
0.002552208
0.0020032355
0.001904239
0.0023013474
0.0027848936
0.0022258898
-5.07395E-5
-0.001987665
-0.0025239268
-0.0013699628
-0.0011773562
-0.002094008
-0.0014692699
-0.002512784
-0.0035621275
-0.0027175695
-0.0047036
-0.005206706
-0.0019238845
-0.0021467828
-0.0049856375
-0.0032463865
8.6709147E-4
-0.0011712731
-0.00430272
-0.0015579734
-5.2586943E-4
-0.0015011822
9.56159E-5
0.0012644064
0.002048508
0.002558742
0.0022961674
0.0021358414
0.0027906026
0.0052920347
0.0049479236
0.0013584326
6.294265E-5
-6.8872585E-4
6.0706876E-5
0.00401864
0.004063064
-0.0012999168
-0.0045589334
-0.0026963716
-5.40671E-4
4.466951E-4
0.001885
2.0092765E-4
-0.0019080034
-2.6114666E-4
-8.313852E-4
-0.002367466
3.3132941E-4
0.0029922829
0.0012151195
-0.0039639357
-0.0047596623
-2.374804E-4
2.2273985E-4
-0.0018114062
-0.004118183
-0.0065656155
-0.0024552888
0.0012907198
0.0011416104
0.00407617
0.001863832
-0.0035347112
-9.754385E-4
0.0020532215
3.0874857E-4
-0.0025580009
-0.0024879822
1.2967426E-4
-1.6856844E-4
0.0015813402
0.0058317967
0.004453723
0.003345829
0.0050588096
0.0031232487
-6.113137E-5
-0.001221317
-0.0016028074
-0.001411258
-0.0010169513
-0.002518098
-0.004679185
-0.0033403023
2.717669E-5
4.145672E-4
-0.003384812
-0.0056182006
-0.002632173
-8.059859E-4
-0.0013651705
-0.0015708274
-0.003054444
-0.0025746762
-9.198436E-4
-0.0015165402
-9.3184365E-4
3.0231167E-4
0.0021836
0.0040147454
0.0018959601
5.690804E-4
7.28014E-4
-2.9658256E-4
6.547964E-4
0.001015563
0.0010518237
0.0028068754
0.0022782143
0.0013358583
0.0019355866
0.004084954
0.0064455047
0.003847859
0.0013383046
0.0021242534
0.0015326714
0.0025431886
0.0034273039
5.627896E-4
-0.0019190605
-0.0032394645
-0.002798225
-0.0024953755
-0.005010686
-0.005674025
-0.00484385
-0.004456954
-0.0034034362
-0.003070215
-0.0012212406
1.986417E-4
-0.0011610539
2.0772155E-4
0.0015457756
2.3078099E-5
1.8615458E-7
9.88834E-4
0.0018919983
0.0013461413
6.5105426E-4
0.0036962775
0.006477593
0.006907037
0.005909597
0.003004139
0.0016853159
0.0018458194
0.0028527644
0.0025432624
-0.0028226108
-0.004214503
-0.0023034918
-0.0059400746
-0.0053705834
-3.7244533E-4
-4.3596336E-4
-0.0019062345
-0.004194412
-0.0059151263
-0.00264225
7.870335E-4
0.0012851921
4.854424E-4
0.0010470963
0.0048717954
0.00730689
0.006585443
0.005301204
-2.7949765E-5
-0.008038043
-0.009296608
-0.004580153
-3.0421765E-4
0.0030979095
0.0042820442
0.004487388
0.007939155
0.010037357
0.0047707977
-0.002872525
-0.0042794524
-0.0017177504
-0.001789614
-0.001618827
-5.672103E-4
-0.002769525
-0.0044114925
-0.002884483
-0.0017078917
-0.0013514516
-3.805142E-4
1.43608E-4
-0.0010724608
-0.0025446007
-0.0021487784
-6.7549566E-4
-8.078887E-4
-4.0717667E-4
0.00266815
0.0027012022
-5.321679E-4
-0.0023337754
-0.002256211
8.2719227E-4
0.0032452375
0.003381503
0.0046851938
0.0043054135
0.0037047048
0.0044847494
0.0035103357
0.0021291825
-2.5951638E-4
-0.0012397765
1.3396097E-4
-0.0015809744
-0.0029856975
-0.0021350994
-0.002224763
-0.0026532395
-0.0026597935
-0.0011050635
-0.0012923058
-0.0032350118
-0.0015177182
1.6937412E-4
2.8245858E-4
0.0015828623
0.0023387626
0.0033181733
0.0046372735
0.0047053467
0.003692593
0.0013199105
-7.596029E-4
-4.6984313E-4
-9.492043E-4
-0.0048417924
-0.0059300996
-0.0024884322
-0.0016431244
-0.0019656916
-0.0014553546
-0.0026315572
-0.0024606597
-0.0019180903
-0.0020450125
3.5479144E-4
8.854856E-4
-0.0012509043
-4.0834243E-4
0.0016088039
0.0020313293
0.0020880417
0.0022849734
0.002582943
0.0021346959
0.0019149972
0.0030542735
0.0039468594
0.0061040726
0.0078024603
0.0054366207
0.0051124096
0.006089265
0.0019467528
-0.0023731259
-0.0051436205
-0.008237194
-0.009024781
-0.0077141747
-0.00516338
-0.0030721787
-0.0021320474
-7.32267E-4
-6.714177E-4
-0.0017349859
-0.00230401
-0.0019060272
3.0680196E-4
0.0014792016
0.0020731231
0.0041645486
0.004209874
0.0029274968
0.0026242353
0.0018407006
0.0011718648
0.0011492383
0.0013038554
7.6297804E-4
-0.0016288233
-0.0036374573
-0.0033862537
-0.0026020396
-0.0024893247
-0.0027977712
-0.0032280295
-0.003953741
-0.0036078433
-5.9429806E-4
0.0019294474
0.0023456353
0.0018299796
1.704507E-4
0.0016813307
0.0051240628
0.0035187008
8.695347E-4
7.709106E-5
4.9410935E-4
0.003000979
0.0039983285
0.0060542286
0.008438569
0.006714371
0.008449373
0.009668333
0.0031439057
-9.033937E-4
-0.0011905233
-0.004366892
-0.009606586
-0.012549891
-0.010248225
-0.007188188
-0.005164453
-0.002589324
-0.0022846465
-0.0025493957
-0.003643874
-0.0072036176
-0.0069649247
-0.0041714055
-0.0041113654
-0.004032511
-0.003085304
-0.0013264114
0.0011123484
8.069933E-4
2.9408507E-4
0.0028319862
0.003928311
0.0023862338
0.003419868
0.006879815
0.0074440236
0.0071654385
0.009053267
0.0087044425
0.007980831
0.010430001
0.011989859
0.011571888
0.009236379
0.0052093943
2.5691857E-4
-0.006178606
-0.00817859
-0.0066063856
-0.00876527
-0.007807742
-0.002950184
-0.004481811
-0.007041107
-0.0038641256
-0.002871013
-0.0057123285
-0.0050577526
-0.0021694626
-0.0017533714
-0.002978322
-0.004146871
-0.0051417067
-0.006723021
-0.0062616984
-0.003397814
-0.0033319844
-0.0036735781
-0.0019022707
-5.9826183E-4
0.0012563736
0.0017288068
0.0017098004
0.0039572003
0.0036948635
0.0021050537
0.0023765194
0.0018969516
0.0014128899
0.0026152432
0.004100023
0.003932916
0.0044596144
0.0073715583
0.009459893
0.011823988
0.015191479
0.01762017
0.017421357
0.010855189
0.0032639005
-8.0733467E-4
-0.0054010614
-0.0071954182
-0.0065151625
-0.007974578
-0.009678638
-0.011453529
-0.010504965
-0.0067784498
-0.0057476796
-0.0067614373
-0.009702104
-0.010864799
-0.0069174166
-0.005529149
-0.0058841784
-0.004220301
-0.003715444
-0.0022123866
-9.2831935E-4
-0.0015700855
-6.5794186E-4
9.3674724E-5
6.776685E-4
0.0026982147
0.0046651247
0.0057203965
0.0046598623
0.004199022
0.005226625
0.003420223
0.0014244447
0.0026238663
0.003266462
0.002652543
0.0046863407
0.007190051
0.0057505392
0.004204098
0.0047415076
0.0056016357
0.0074919215
0.0077555026
0.0060045733
0.0040888772
6.3934474E-4
-0.0015937376
-8.682694E-4
0.0011740456
0.0014147129
-0.0036114813
-0.008874847
-0.011024275
-0.011124404
-0.0085637085
-0.008007275
-0.008613974
-0.007120865
-0.007289034
-0.006649572
-0.0042311293
-0.0032134308
-0.0023240102
-0.001786729
1.7795402E-4
0.0032178934
0.0030204474
0.0019047941
0.0019345117
0.0028392398
0.004986461
0.0056769955
0.004575716
0.0047594164
0.0063285255
0.006558898
0.0051554586
0.0031435178
4.3199124E-4
1.9369558E-4
0.0020357578
4.0702368E-4
-0.0022080562
-0.0013684082
3.9807877E-5
1.9782364E-4
6.724324E-5
-0.0014844958
-0.0031044583
-0.0020286324
-4.8453567E-4
0.0015101436
0.0039392193
0.002642909
7.264154E-4
8.022015E-4
-5.357764E-4
-0.0023581276
-0.003914355
-0.005824732
-0.0066483985
-0.0059466152
-0.005042917
-0.0036990999
1.438383E-4
0.0027204615
0.0019099134
0.0014516456
8.5995E-4
0.0018922732
0.0036324514
0.0011431652
-0.0019763683
-0.004529705
-0.004907851
-5.1413226E-4
0.0019987514
0.003222886
0.005847273
0.007249928
0.008665354
0.007165956
0.0032408128
0.001960975
5.0153147E-4
-0.0020852643
-0.0021896209
1.1443865E-4
-9.2560746E-4
-0.006200119
-0.008502309
-0.007497521
-0.004825483
-0.0016965441
-0.0021654605
-0.0016314003
0.001227471
0.001136915
1.1834771E-4
-5.568357E-4
-0.0012154876
-5.279421E-4
0.001752554
0.0039072554
0.0019755692
-1.18139076E-4
0.001976961
0.0030609996
0.00326264
0.0036261203
4.5124046E-4
-0.0020045952
-7.500822E-4
-7.2041404E-4
-0.0014155284
-2.499022E-4
-3.3984652E-5
-0.001197187
-4.2885737E-4
0.002893903
0.004247477
0.0014679694
0.0010907806
0.0031166908
8.8424317E-4
-0.002508472
-0.0048192823
-0.004772036
9.70517E-4
0.0033643455
-6.0483033E-4
-0.0017239515
-5.4993975E-4
1.6024639E-4
-1.828944E-4
-0.0022857243
-0.0021750052
-0.0015559135
-0.0029412562
-0.0018332934
3.9265686E-4
2.4772962E-4
-4.991972E-4
-9.4378315E-4
-8.2548236E-4
-1.7302853E-4
4.5888673E-4
0.0011232244
8.5263443E-4
4.8286357E-4
0.0013157566
0.001735353
0.0015903293
0.0016023665
0.0030979945
0.0068728263
0.007824736
0.004639342
0.002009819
-9.52171E-5
-0.0011323092
-0.0010095588
-0.003624579
-0.0063248086
-0.00649543
-0.006918232
-0.005060763
-5.417936E-4
5.2081974E-4
-0.0011283737
-0.0014468592
-0.0012849146
-9.840431E-4
-1.692739E-4
6.1790226E-4
3.2431417E-4
-0.0018755061
-0.0018947595
1.5945415E-4
-0.0012953167
-0.0013512991
0.0019769466
0.0027881411
0.004860343
0.0068525583
0.0041326173
0.003754714
0.0041737366
0.0014254547
0.0015162613
0.0027678323
0.0025536062
0.003086412
0.0021013194
-5.008922E-5
-0.0013276412
-0.002787572
-0.0048695095
-0.0073668924
-0.0068675745
-0.002432764
-6.474771E-4
-0.003179281
-0.005018732
-0.0042392467
-0.0025344316
-0.0016046134
-8.9865027E-4
4.5165184E-4
0.0015885368
0.0016191561
9.83881E-4
0.0012278671
0.00238994
0.002821316
0.0021142587
9.7053574E-4
6.975882E-4
0.0019854845
0.0028537812
0.0026935115
0.0030548528
0.0027675012
0.0019887597
0.0023910105
0.0014125373
-4.1718493E-5
7.132536E-4
6.0644776E-5
-5.056418E-4
0.002145677
0.0017592895
-0.0027364409
-0.0052209976
-0.004816857
-0.0034027894
-0.0029857906
-0.003772122
-0.0023950886
-6.860612E-4
-0.0024676865
-0.0027581828
2.997481E-4
0.0016544192
0.0017811602
9.4760745E-4
-8.009246E-4
-4.7249778E-4
-7.435306E-4
-0.0018749341
-0.0018003474
-0.0022266346
-8.147799E-4
0.0015105992
0.0022127572
0.0030318645
0.0028759458
0.004406417
0.007575759
0.0058802753
0.00156903
-7.6858577E-4
-6.71624E-4
-0.0012032519
-0.0050002593
-0.0059865303
-0.0029646491
-0.0012983133
-0.0010370597
-2.3876344E-4
0.0029302875
0.005216868
0.0036865333
0.0015410024