-5.137782E-4
-0.0025102447
-0.001923589
-7.8913197E-4
-6.504276E-4
6.060457E-4
3.493783E-4
-6.4319646E-4
-6.5143814E-4
-2.1592954E-4
-3.0595495E-4
-0.0013203032
-0.0011223104
-3.224703E-5
0.0013165394
0.0022363602
0.0015385629
0.0025699257
0.0031200587
-4.5182728E-4
-0.002506387
-0.0010892665
4.3006576E-4
5.7323585E-4
5.007098E-5
-2.0082657E-4
-5.5626594E-4
6.033499E-4
0.0012257766
-9.217293E-4
-0.0018857527
-0.0026530684
-0.0028648942
-3.6592063E-4
3.2517017E-4
-3.9435845E-4
-0.0015210347
-0.002565885
3.6413298E-4
0.0024611207
0.0020040474
0.0025251443
7.451936E-4
2.631649E-4
0.0036027175
0.003132697
0.0010023655
0.0019421197
0.0021504397
8.836565E-4
-7.6120935E-4
-0.0021134226
-0.0019800311
-0.001695546
-5.3289544E-4
6.217677E-4
-1.9534354E-4
-1.0492108E-4
-0.0010463932
-0.0034391892
-0.0029346158
-0.0020333284
-8.18528E-4
2.4123321E-4
-0.0015543388
-9.319187E-4
0.0016454778
0.0021442468
9.455211E-4
-0.002082954
-0.0023877935
-7.722481E-4
-0.0014684661
-5.6816783E-4
0.0016934932
0.0032612234
0.0037893911
0.0028107374
0.003118729
0.0019781105
-0.001634046
-0.0025189964
-0.0017600835
-2.921005E-4
0.001720706
0.0012163094
1.6307848E-4
4.8171825E-4
6.771644E-4
7.61622E-4
6.158408E-5
-7.9674606E-4
3.520738E-4
-9.967669E-5
-0.0030357623
-0.0022828637
-1.6259281E-4
-4.6709515E-4
5.729363E-4
0.0010413304
-5.9552427E-4
-3.5452173E-4
5.875567E-4
3.0034347E-4
-4.0728322E-4
-0.0013174694
-0.0015077479
-8.5747015E-4
-5.993786E-4
1.15515475E-4
0.0018131653
0.0011951776
-3.3359276E-4
9.937447E-4
0.0014453346
2.3116551E-4
-6.535705E-5
-2.7325467E-4
2.0130348E-4
2.356371E-4
-6.720665E-4
-0.0010729687
-8.104918E-4
0.0019041944
0.002897319
3.529412E-4
0.0010761585
9.495854E-4
-0.0020772386
-9.967263E-4
-7.5083884E-4
-0.00227266
-8.123234E-5
-5.068194E-4
-0.0029232742
-0.0016272006
-0.0010038965
-6.1312586E-4
-4.0702387E-5
-0.0010590971
1.6887354E-4
3.350885E-4
-2.1888911E-4
0.0026332573
0.002737193
0.001754289
0.0014866494
-0.0017187493
-0.0021281848
1.3574304E-4
0.0014475267
0.0019338315
8.748538E-4
0.0017143739
0.0011906786
-0.0015302277
3.9177758E-4
0.0022547175
0.0018889637
0.0022327078
0.002723173
0.00406146
0.0015169557
-0.0039732605
-0.005639729
-0.0049858238
-0.0035647047
-0.0031420798
-0.0031406006
-5.442891E-4
0.0012250001
0.0013276637
5.2807824E-4
-0.001116317
-9.836584E-4
-5.878487E-4
-1.5683651E-4
3.424929E-4
-0.0011575338
-0.0012583536
-5.8702246E-4
-0.0012116698
5.4931524E-4
0.0021980717
0.0016779883
0.001817411
0.0016232304
0.002238253
0.0033712452
0.0021422533
0.002172784
0.002736442
7.8657106E-4
7.193884E-5
-1.2758133E-4
-9.811275E-4
-0.0010652455
-0.0023202645
-0.0025576816
-7.014221E-4
-8.372581E-4
-0.0019602994
-8.7272713E-4
7.4824184E-4
-4.364566E-4
-0.0018466038
-5.2433484E-4
-1.549494E-4
-9.2755957E-4
-2.5093954E-4
4.0151447E-4
-1.5671087E-4
-8.9593994E-4
-5.133957E-4
-8.5102237E-4
-0.0011986038
0.0016245176
0.0028478606
7.9439074E-4
1.4275029E-4
6.740741E-4
0.0011308298
0.001119088
0.0013396866
0.001401512
2.3474859E-4
9.7016786E-4
7.7558076E-4
-0.0019956834
-0.0011376378
4.726783E-4
1.9682685E-4
7.3127093E-4
-3.9935423E-4
-0.0018536588
-0.0012183409
-4.5980836E-4
1.7373064E-4
5.3368224E-4
7.312003E-5
-0.0012207425
-0.0015238674
5.062475E-7
4.4082265E-4
1.3843722E-4
-2.6722194E-4
-0.0013968258
-0.0010737634
1.7160171E-4
0.0011273432
8.8503095E-4
-0.0014371875
-0.0014214825
0.001675509
0.0022302424
-0.0010056812
-0.0025860383
0.0015876045
0.004679166
0.0025269145
0.0011223427
-4.5522494E-4
-0.0018816389
8.795304E-4
0.0014266804
-0.0013068671
-0.001740668
-0.0016551212
-0.001195279
1.8370408E-4
1.4781815E-5
-3.8345795E-4
4.6304427E-5
-5.557742E-4
-0.0016187939
-9.614791E-4
-5.0176744E-4
-9.938804E-4
0.0010743833
0.0018229423
-0.0012261268
-9.815993E-4
0.0013795258
0.0010481462
8.1543875E-4
0.0013622654
0.0018143421
0.002694967
0.0027632304
0.002289512
0.0021541468
2.3587409E-4
-0.0031677508
-0.004034477
-0.0024875149
-0.0013132264
-7.484286E-4
-9.817234E-4
-0.0014200986
-8.38308E-4
-4.537615E-4
-0.0011388938
-0.0013567967
-7.1591458E-6
0.0016226897
0.0020784028
9.5278554E-4
-0.001164815
-0.0021252693
-0.0017060456
-0.0015887755
-0.0014052158
4.966503E-4
0.0037125095
0.005292305
0.0045539425
0.0027729725
6.0743856E-4
1.3094814E-4
5.5692677E-4
-0.0011825662
-0.0030129077
-0.0025935192
-0.0020953114
-0.00252098
-0.0023475867
-7.5496454E-4
0.0019425842
0.0022448145
-3.6903788E-4
9.96762E-5
0.0012064234
-9.6109824E-4
-9.759302E-4
-1.3389003E-4
-7.046709E-4
3.7731515E-4
0.001124433
0.0011183253
0.0013713555
0.0011398944
7.474252E-4
-2.2455762E-4
8.2879787E-4
0.0030659365
8.261464E-4
-0.0030639444
-0.0039675464
-0.0031807013
-0.0013634819
0.0012426914
0.0022079123
7.741512E-4
-7.798161E-4
-0.0014696846
-0.0015750868
-0.0012525825
-1.6921472E-4
0.0027050385
0.0044109114
0.0022419775
-8.1638526E-4
-0.0022294866
-0.001498607
1.3216124E-4
0.0010844333
0.0025908696
0.0035703708
0.0019623144
2.0303449E-4
-8.6091604E-4
-0.002117842
-0.0017117907
-9.6126914E-4
-0.0012191747
4.8741777E-4
0.0016255446
-1.6681476E-4
-2.4251662E-4
7.0216483E-4
-0.0012586687
-0.0032057958
-0.0015725356
7.7002926E-4
4.7339973E-4
-0.0016409657
-0.0043865163
-0.004390483
-0.0016614759
-0.0017234056
-0.0010172105
0.001803719
7.681618E-4
9.625031E-4
0.0032034707
0.0015081117
8.4721565E-4
8.774687E-4
-0.0017824075
-0.0013941437
6.404878E-5
-1.6450584E-5
0.0026259103
0.0042964467
0.0034509317
0.004318888
0.0052098488
0.00539735
0.0056470823
0.004725188
0.0019599583
-0.0027815697
-0.005645376
-0.0058211135
-0.0064336485
-0.0048061344
-0.001605537
-2.7709006E-4
7.8065146E-4
1.4663821E-4
-0.001107563
9.0119545E-4
4.0726268E-4
-0.0043728827
-0.0057149096
-0.0036569135
-0.0018763122
-4.2791822E-4
-2.1959784E-4
1.34848E-4
0.0020712223
0.0032691364
0.0020733569
5.508021E-4
0.0012442936
8.064908E-4
-8.548876E-4
4.7248238E-4
5.6148105E-4
-0.0010928917
-0.0010867667
-0.0018601778
-0.0017812016
-8.1188296E-4
-0.0011202113
-2.976611E-4
0.0013032701
0.0019105724
0.0013869784
0.0021400345
0.0039054784
0.0036301836
0.0035143544
0.0021403532
8.973362E-4
0.00245237
-3.6890793E-4
-0.0020270157
0.0017556113
0.0019629714
0.0012734986
6.6892384E-4
-8.800862E-4
-5.049173E-4
-0.0020636232
-0.0018883712
6.557646E-4
-0.0013424712
-0.003334029
-0.0036023562
-0.005972527
-0.0068515837
-0.0028262276
5.124933E-4
-0.0011844931
-0.0022053933
-0.0019477715
-0.0024414684
-4.1631176E-4
0.0015269583
0.0024665336
0.0041024196
0.004320195
0.003717149
0.0038870212
0.005160435
0.0041620787
8.439506E-4
5.6287914E-4
3.0178574E-4
-0.0013631977
-0.0018800016
-0.0032056263
-0.003454266
-0.0014958602
0.0010431616
0.0027020166
0.0014822271
-9.441888E-4
-0.0029507233
-0.002054146
5.966837E-4
-3.487835E-4
-0.0022883615
-0.0034874892
-0.0032572981
-6.031142E-4
-4.7742913E-4
-8.7561243E-4
7.0223905E-4
0.0025936144
0.0047284844
0.0031529882
5.636775E-4
1.12828675E-4
-4.155474E-5
0.002702975
0.0036916067
0.0014218554
0.0016677298
0.0013995876
1.0955701E-4
-5.072364E-4
-0.0012302006
-0.0018360928
-0.0036775398
-0.0035538112
-0.001858438
-0.0025518085
-0.0015839919
0.0011116843
0.0025129574
0.0031820363
0.0023060073
1.0799794E-4
-0.00160323
-1.683362E-4
0.0016588721
-0.0010772131
-0.003181501
-0.0020540743
-8.714325E-4
5.495129E-4
3.1079454E-4
-6.239293E-4
-3.5590786E-4
-0.0016132066
-0.0021774038
-9.892855E-4
-4.5230845E-4
8.3439116E-4
0.0013910785
3.075327E-4
-1.7904682E-4
-0.0013990615
-0.0015611192
0.0015793911
0.004253004
0.005774469
0.0057867416
0.0025783768
4.8042083E-4
-3.2234177E-4
-0.0023679896
-0.0011570394
0.0013681019
6.7410106E-4
1.6957555E-4
-6.970948E-4
-0.0020707983
-5.494045E-4
5.148244E-4
-0.0013886828
-0.0037885997
-0.0039806454
-0.0024273738
-0.002414408
-0.001955277
-0.0011565182
-0.0032828075
-0.0030764432
4.4970916E-4
0.0017934775
0.0022581138
0.0033005339
0.0033514732
0.003215548
0.0041337633
0.0046010353
0.0033149363
0.0020798724
5.36623E-4
-0.0023461364
-0.0039034472
-0.0035246806
-0.0032794746
-0.0032524473
-0.001877815
-4.958262E-4
-0.0012718565
-8.5868104E-4
0.0015038975
0.0014040092
7.6782226E-4
0.002454971
0.002948171
0.0023393629
0.0030666823
0.0016207469
-0.002159161
-0.0029611555
-7.2071893E-4
0.0026693873
0.0056445077
0.0050185127
0.0026583064
7.1883353E-4
-0.0030525362
-0.0055681155
-0.0039630546
-0.0037198956
-0.004635541
-0.003201825
-0.003381694
-0.0035216135
-0.0015983778
-0.0023226533
-0.002028879
8.8774774E-4
0.0023567376
0.003163839
0.0016217956
3.4566318E-7
-1.6239523E-4
-0.0028015086
-0.0025401376
5.351525E-4
0.0023551264
0.0066121994
0.008744347
0.007329012
0.0068075615
0.0032447125
-0.002832649
-0.006625822
-0.006621812
-0.0034817772
-0.0013791159
-0.0027414474
-0.004041258
3.8539534E-4
0.005796557
0.005050733
0.0046342807
0.005354691
0.0013106433
-0.0030475566
-0.0039746896
-0.0039041112
-0.004842872
-0.0037773822
6.1861624E-4
0.0037264552
0.0065027317
0.0077925404
0.00462573
0.0015878823
-0.00114027
-0.0040106275
-0.0070709074
-0.00994723
-0.007893228
-0.0072370367
-0.008368423
-0.0036393867
-0.002658832
-0.0057471287
-0.001676744
0.006260033
0.010919407
0.010471649
0.008099188
0.0039240555
-0.0029070945
-0.00517912
-0.0023632313
5.597485E-4
0.0021154578
0.0020370167
0.003658242
0.0059974035
0.0042866208
1.7273784E-4
-0.0014257565
2.7873027E-4
0.0031609163
0.007261124
0.008782512
0.005428522
1.0824854E-4
-0.006889481
-0.008947009
-0.007869612
-0.012402229
-0.011103566
-0.0025694917
0.0021158257
0.004938766
0.0040138834
7.9017563E-4
4.7527117E-4
5.6284185E-5
0.002083654
0.005038662
0.0026520188
-0.0028767427
-0.007911094
-0.007627071
-0.002578229
2.715553E-4
0.0014144566
0.0024607717
0.0013229297
-0.00200809
-0.0047672023
-0.0017988504
0.003821183
0.0029507945
-1.3308717E-4
0.0021875876
0.0061505227
0.0073628635
0.004985246
9.415358E-4
-0.0026346212
-0.0065768994
-0.0086603975
-0.0067648473
-0.0020724004
6.582142E-4
-0.002924647
-0.0035065985
0.0025719833
0.003492057
-6.9992826E-4
-0.0028935957
-0.0020924362
-2.0103509E-4
-7.5168407E-4
-0.0030643244
-0.0036316074
0.001313042
0.006527295
0.0031894853
9.979745E-4
0.0048957807
0.006282151
0.00610952
0.0027191655
-0.0051596947
-0.0085420385
-0.005741347
-0.0044153943
-0.008319472
-0.010060553
-0.0051940395
9.550385E-4
0.0077784485
0.014894521
0.018322531
0.01573935
0.007795967
-7.915048E-4
-0.005891443
-0.0026192267
0.0067033754
0.013832254
0.020175552
0.022791563
0.016906569
0.0076814275
-0.0019998243
-0.007821379
-0.008127909
-0.0075854645
-0.00943649
-0.0145736
-0.014300918
-0.010082701
-0.012660817
-0.013960449
-0.013085204
-0.017552637
-0.017311916
-0.0097772945
-0.0077665523
-0.013902393
-0.01687749
-0.0099996375
0.0031585726
0.01568688
0.019984746
0.021267323
0.029414566
0.03462258
0.024985546
0.008121895
-0.0013032475
0.0011111627
3.4441546E-4
-0.022846097
-0.050243735
-0.050007757
-0.030618358
-0.0011582118
0.035381112
0.053230483
0.04770752
0.025728313
-0.0025963103
-0.011506053
-0.00995037
-0.0044238423
0.02641142
0.05971268
0.051848616
0.010036103
-0.01565358
-0.009677351
-0.0021779751
0.00670896
0.026979428
0.0332415
0.012272994
-0.0069011413
-0.012072395
-0.0238978
-0.025260907
-0.018753255
-0.04919831
-0.088859655
-0.09917784
-0.0850212
-0.056707367
-0.038901072
-0.017172672
0.0111278035
0.013028438
0.0058013853
-0.003978375
-0.0034826254
0.028182935
0.05065845
0.060041208
0.06245296
0.040393002
0.030493347
0.0447367
0.0507241
0.038836647
0.021712514
0.0049744574
-0.013414416
-0.0036662733
0.028526045
0.039138507
0.031145168
0.014872662
0.0013494482
-0.013906433
-0.04204344
-0.047879167
-0.0334363
-0.027886836
-0.041846134
-0.06923367
-0.06212085
-0.029403847
-0.008429604
0.0071357493
-1.081933E-4
-0.018145978
-0.016888188
1.1297006E-4
0.026034793
0.032551356
0.022504132
0.020630399
0.013218198
-7.732838E-4
-0.0020120747
0.01500415
0.01998388
-5.4492865E-4
-0.011866599
-0.012837661
-0.016953234
-0.015997823
-0.00377245
0.015183817
0.032180246
0.057353396
0.049575973
-0.0134170195
-0.036068376
-0.013431207
-0.012722062
-0.0023881558
0.023964245
0.022384653
-0.0069655613
-0.031173611
-0.025100071
-0.006812524
-0.0038726742
-0.008262382
-0.005071242
5.04567E-5
0.0012475699
-0.0011944746
-0.009734903
-0.0069571356
0.014766881
0.02627789
0.007629246
-0.025049793
-0.036183327
-0.032111883
-0.029000867
-0.006199943
0.014747838
0.025631424
0.049480427
0.04371381
0.0099467235
-5.843351E-4
-3.4197676E-4
0.01008299
0.03212678
0.03145928
0.024650868
0.02370911
-0.0040472946
-0.034545418
-0.034190774
-0.022562785
-0.011376024
-0.006467792
-0.0027296257
0.010403632
0.0061123692
-0.016478362
-0.026461335
-0.013497921
0.012121208
0.0017986232
-0.042314526
-0.048363324
-0.026059514
-0.015996596
-0.003439209
0.0136699835
0.025447922
0.02180296
0.0066503976
0.013020282
0.031142902
0.033566445
0.027524404
0.014862542
0.010649447
0.019384643
0.015985413
0.018218132
0.021177126
-0.010358438
-0.02640458
0.0022920673
0.021984082
0.015373767
-0.014286109
-0.04621409
-0.031133628
-0.0064000734
-0.021055289
-0.029989742
-0.018302813
-0.010251564
-0.011601919
-0.022186154
-0.015810683
8.912816E-4
0.0046326476
0.010506373
0.008765959
0.0014968379
0.0019067572
0.016288519
0.059321836
0.06345114
0.025081817
0.025036322
0.0043697376
-0.03344762
-0.010497066
-0.0011856374
-0.020993711
-0.01738218
-0.014201863
-0.0027715696
0.015076576
0.009386647
-0.008861533
-0.026738606
-0.022929646
-0.0055781817
-0.0053332904
0.0033684697
0.017162362
6.8148534E-4
-0.018138064
-0.016380101
-0.010077138
-0.0010778367
0.012506298
0.01989318
0.011599929
0.0016029342
0.00494058
0.006944312
0.0014614685
-0.004734229
-0.009453756
-0.007370903
-0.002816003
0.008297204
0.020742264
0.007482795
-0.012888638
-0.015950615
-0.013131705
-0.004470251
0.0025072275
0.002510045
0.004442693
0.0018071895
8.649017E-4
0.0061068223
0.008619127
0.014922518
0.016826075
0.002807021
-0.012931136
-0.018520517
-0.014105075
-0.00924495
-0.009055499
-0.0058505237
8.045835E-4
0.0038014147
-0.0025241736
-0.009812536
-0.0035891328
0.006457847
0.009125328
0.0090362495
0.007511086
0.0054965806
0.0036031774
0.0039224504
0.005181014
0.0013605331
-0.0017550294
-0.0042481953
-0.005411625
0.0016857861
0.003958646
-6.323586E-4
-0.005226722
-0.010982729
-0.006912645
-6.4945966E-4
-0.002955157
-0.0018907366
6.8094916E-5
-9.2957687E-4
-0.0038321326
-0.009139003
-0.0076628304
-0.0026039928
6.221243E-4
0.00445719
0.0051144944
0.0056296764
0.007726092
0.0075133783
0.0056606974
0.0024718123
0.0014374526
0.003195169
0.003614842
0.0021049283
-2.8234857E-4
-8.7863463E-4
-8.326674E-4
-0.0034285008
-0.0062347073
-0.0055212206
-0.0027373515
-0.0010112938
0.0022621232
0.0036781488
-0.0013607336
-0.004628736
-0.0044836015
-0.0033785964
-0.0012576283
-0.0011797027
0.0010735841
0.0033552456
0.0014808893
0.0014906749
0.0015929934
0.0014932508
0.0028835372
0.00233926
0.0016478639
9.156389E-4
5.0981995E-4
4.8248473E-4
2.704014E-4
0.001957112
4.863356E-4
-0.0027657012
-0.003123551
-0.0033068215
-0.0016222951
-5.0327735E-4
-0.0017631716
-0.0035808014
-0.0045857267
-5.157579E-4
1.2416967E-5
-0.0030888985
-1.8985783E-4
-8.142395E-5
-0.0011822104
4.7723332E-4
-9.772531E-4
-1.5929861E-4
5.035761E-4
-3.091061E-4
0.0019887795
0.0012953214
8.093988E-4
0.0029384396
0.0017381035
7.000562E-4
0.001911688
0.0027200433
0.0026510549
0.0031630471
0.0037283115
0.0022463214
0.0020258268
0.002810867
0.0025317264
0.0033365828
0.0019442055
-0.0013022947
-0.0022277676
-0.0032794785
-0.004109944
-0.0020220624
6.819058E-4
4.6497406E-4
-7.703685E-4
-4.423158E-5
-9.065419E-4
-0.00241316
-0.0016287299
-0.0023944532
-0.0031447532
-0.0025425383
-0.0027166049
-0.0014253777
-0.0012136983
-0.0022484437
-3.4762235E-4
6.270292E-4
1.475224E-4
4.928312E-4
-4.7368588E-4
-0.0016477325
-0.002256259
-0.002066989
-8.685178E-5
0.0011665822
7.069998E-4
0.0011576972
0.0033269883
0.0038679861
0.002295076
0.0012300368
2.653132E-4
0.0011127417
0.0027983966
0.002093414
0.0021138126
0.002140242
0.0015160632
0.0025450664
0.0025246658
0.0018052339
0.0012340697
3.3592994E-5
-0.0011291108
-0.0024541782
-0.0016078728
-5.7873054E-4
-0.0020507404
-0.002653109
-0.0031445066
-0.003173826
-0.0016061247
-0.0016121481
-0.0025693541
-0.0022018605
-2.4368629E-4
3.5597608E-4
-0.0012484766
-0.0016833255
-0.0025639723
-0.0025282062
6.0903945E-4
0.0012029624
-1.4172563E-4
6.560687E-5
-6.7579E-4
-0.0015713124
0.0012872256
0.004504319
0.0021595433
-5.015688E-4
8.9802407E-4
0.002070095
0.0023662744
0.0016124893
2.4221552E-4
-5.901122E-4
-0.0021567266
-0.0019071111
-7.87239E-4
-9.006303E-4
-2.2283413E-5
-7.3921867E-4
-0.0023532927
-0.001083415
0.0010533734
0.0016898955
1.6145332E-4
-6.512734E-4
-1.3387413E-4
-0.001079175
-0.0014815114
-0.0021728543
-0.003036853
1.7520426E-4
0.0029305625
0.0018438627
7.3559524E-4
3.1289965E-4
3.5708994E-4
6.475983E-4
7.082274E-4
0.0010725355
7.896939E-4
3.441645E-4
2.4426068E-4
-6.8111345E-4
-3.2762627E-4
0.00128597
3.6551566E-5
-0.0022492174
-7.6990604E-4
0.0023655118
0.001809684
-0.0019368184
-0.0035858175
-0.0011135422
0.001623518
3.6763286E-4
-0.0023865805
-0.002315499
-0.0010033427
-6.391512E-5
9.158465E-6
-6.010438E-4
6.82445E-4
0.0012479763
6.265567E-4
0.0015096819
-8.9847867E-4
-0.0030006787
3.2163542E-4
6.3248543E-4
-0.0011205955
-8.75013E-5
1.7790121E-4
9.14186E-4
0.0012048496
-1.3812091E-4
8.9769176E-4
0.0018743789
0.0014883521
0.0018051877
7.6054316E-4
-9.5062307E-4
-0.001259653
-1.5165418E-4
9.551928E-4
-4.624328E-4
-0.0017062135
-3.2170917E-4
2.8146442E-4
-4.2779022E-4
2.7547084E-4
0.0019616662
0.0017073532
2.0107263E-4
4.5739635E-4
7.1319565E-4
-4.1055985E-4
-9.454739E-4
-8.666601E-4
-5.38781E-4
-5.785661E-4
-0.0010283492
-3.3208617E-4
1.2714141E-4
-5.0787155E-5
0.0010144908
0.0011267824
-7.4640254E-4
-0.0014726983
-6.041008E-4
2.7985024E-4
3.2413244E-4
-6.3404726E-4
-6.2128616E-4
2.9833528E-4
-9.019478E-5
2.6589708E-4
0.0011900286
-1.3807541E-4
1.2356375E-5
0.0014278311
-1.3137134E-4
-2.86865E-4
0.0017644278
0.0010250502
-2.6024692E-4
4.183627E-4
0.001760731
0.002070003
-6.7619636E-5
-0.0016025937
-0.001683712
-0.0027670676
-0.0017303543
8.239989E-4
-2.801456E-4
-0.001968905
-0.0016023803
-0.0026961889
-0.0030649945
-9.2890183E-4
-9.439011E-4
-1.7309451E-4
0.0033012317
0.0031576834
0.0027106102
0.0031614206
3.2338986E-4
6.4898044E-4
0.0020037612
-4.8860314E-4
-1.5077184E-4
9.5061265E-4
0.0011478591
0.0032863193
0.002322073
-9.8200166E-5
0.0015194849
0.0028209107
-0.0013882025
-0.006022327
-0.004320005
-0.001042369
1.3005919E-5
0.0011333195
3.3728164E-4
-0.0028895263
-0.004192863
-0.0022291306
-0.0014440687
-0.001705301
-1.6627436E-4
3.0298563E-5
0.0011791817
0.0033051134
0.002080118
0.0026759917
0.0029051944
-3.1704918E-4
-8.080483E-4
-3.032548E-4
-2.2107968E-4
5.1727315E-4
2.9413876E-4
2.5089888E-4
0.0011470786
0.0023389996
6.550979E-4
-0.0015238321
-5.0211174E-4
-9.992658E-4
-1.6616608E-4
0.0015080948
-0.0010058191
-5.0070375E-4
0.0010375535
-0.0010035079
-8.996865E-4
0.001033554
0.0017941237
-7.0113584E-4
-0.0027458635
-3.1014672E-4
2.380303E-5
-0.0010087669
2.7453373E-4
6.394838E-4
5.512585E-4
2.244219E-4
6.3786726E-4
0.0015466383
-3.7229396E-4
-0.0013276291
-1.3951016E-4
-7.411518E-4
-7.6523516E-4
8.732325E-4
4.5620053E-4
-5.6949904E-4
9.909678E-4
0.0010636749
-0.0014424139
-0.0015773419
-7.640157E-4
-2.3039984E-5
0.002085839
0.0021715048
0.0012142853
0.0015182297
7.7903474E-4
-8.449181E-5
-2.114452E-4
-4.3755904E-4
-1.0450878E-4
6.426591E-5
-1.5231787E-4
-2.9884928E-4
-1.2403185E-4
0.0014573153
0.0022745058
2.2243163E-4
-0.0015514685
-0.0020123157
-0.0025632442
-0.0012597581
3.7163976E-4
-9.806261E-4
-0.0018899802
-4.5392782E-4
0.0017794097
0.0025841296
-0.0012618812
-0.0036631227
-5.631903E-4
8.0905674E-4
7.290582E-4
8.474051E-4
-5.2750454E-4
9.977317E-5
0.0010697413
5.3974432E-5
-3.207664E-4
0.0011652161
0.0041530393
0.004454585
0.002036878
-3.3152188E-4
-0.0030874533
-0.0032875524
-0.0028228052
-0.0027693626
-3.5527727E-4
3.351472E-4
8.008797E-4
0.0015588183
4.371156E-4
0.0011681298
-1.2186119E-4
-0.0013040529
8.4196386E-4
-9.4601634E-4
-0.0013389477
6.657253E-4
-0.0010043867
-8.1063353E-4
7.5814105E-4
0.0015439625
0.0031763748
0.0033137535
0.0019383213
4.8565105E-4
1.537288E-4
-0.0015258986
-0.0045414763
-0.0031750079
6.16857E-5
0.0012882225
4.3563326E-4
-6.863474E-4
8.788246E-4
5.036737E-4
-0.0018822025
-0.0021774955
-0.0025882986
-0.0012977541
8.768194E-4
3.6579403E-4
3.80733E-4
0.0018384776
0.0025550534
0.0020421431
0.001425406
8.396706E-4
1.1237522E-4
3.8123113E-4
9.042254E-4
0.001538066
1.2519174E-4
-0.0022838302
-1.8444842E-4
2.0144686E-4
-0.0020070164
4.6288408E-4
0.0014863537
-4.3717978E-4
-2.00483E-4
2.800106E-4
-6.625415E-4
-0.0022922123
-0.0017056544
-4.620137E-4
-0.001309597
-0.0012367922
-0.0012755308
-0.0010183661
7.9651264E-4
0.0011245472
0.0022842614
0.003485051
0.0012630125
-3.4381895E-4
-4.45969E-4
-0.0014377839
-0.0015294544
3.4460152E-4
0.0013338103
7.861321E-4
0.0013725794
0.0014005395
2.1951142E-4
7.0180825E-4
0.0013994751
8.0440694E-4
-0.0010515763
-0.002036579
4.0911435E-4
0.0017224217
8.009135E-4
2.2808387E-4
-0.0018624967
-0.0020743955
6.0980394E-4
9.817029E-4
2.3253367E-4
-1.2966487E-5
-7.7487486E-5
3.7270915E-4
8.7895045E-5
-0.0010262355
-0.0025326328
-0.0018056718
7.553149E-4
8.1390084E-4
5.559863E-4
-4.0318855E-4
-0.0023897476
-7.47709E-4
4.1529708E-4
5.058138E-4
0.0015343301
-2.4618793E-4
2.3640507E-4
0.0017414727
-8.901289E-4
6.168272E-5
0.002125313
-2.635168E-4
-4.272602E-4
0.0017171268
0.0015009175
-7.5307995E-4
-0.0022955248
-0.0012652209
-5.8752117E-5
7.349445E-5
8.126993E-4
0.0011607364
1.365062E-4
-4.6332375E-4
-0.0012358052
-0.0029948407
-0.0020627235
5.612218E-4
6.2138896E-4
0.001000471
0.0022021767
9.427707E-4
-3.9861444E-4
-7.079436E-5
0.001124661
0.0023290473
0.0016011543
3.2411877E-4
2.8075365E-4
0.0011063317
0.002685984
0.0023870792
6.6408975E-4
2.252051E-4
-8.8952575E-4
-0.0014454455
-0.0011562635
-0.0032556178
-0.0032746645
-9.4877207E-4
-0.0022724422
-0.0032468827
-0.001224931
-1.7457611E-4
0.0010770919
0.0019384769
3.1067408E-4
-3.208299E-4
-3.3115546E-4
-0.0011321664
-1.6553578E-4
-3.5899814E-4
-0.0022226544
-5.9329567E-4
0.0017297949
0.0012073382
1.3017986E-4
-8.658758E-5
0.0016488272
0.0033492544
0.0020707739
3.7462128E-4
-7.3754723E-4
-0.001569826
1.8019102E-5
0.0015464021
9.1224734E-4
0.0012382473
0.00144467
-8.393449E-5
-0.0011689004
-0.0015160707
3.171721E-4
0.0029517312
0.00210629
9.561746E-4
5.8824744E-4
-0.0011105268
-5.91408E-4
0.0010305975
-3.697874E-4
-0.0023029447
-0.0017108156
-3.84499E-4
-0.0015220303
-0.0035478622
-0.0026926426
-3.3999697E-4
-4.1600494E-4
-0.0018448337
-9.080729E-4
5.3541805E-4
2.4553867E-5
-8.738551E-4
-0.0012915242
-6.287671E-4
2.8178198E-4
8.099218E-4
0.0016256821
0.0013157242
0.0011060159
0.0014755055
0.0010320722
0.0016733152
0.0017535358
7.677341E-4
9.2093414E-4
5.5841694E-4
7.876422E-4
8.837227E-4
-5.8961794E-4
2.5359992E-4
0.0010001409
-2.0099257E-4
-6.1354394E-6
-0.001281979
-0.002848719
3.0273626E-5
0.00220665
8.718382E-4
-1.5488522E-4
-0.0010928065
-0.0013195544
6.496479E-5
-4.145368E-4
-0.0013895349
1.6299043E-4
8.0519286E-4
-0.0011499283
-0.0017687475
1.8799535E-4
3.98081E-4
-9.875568E-4
-3.1154603E-4
-8.871566E-5
-0.0013207833
-0.0021825787
-0.0023015556
-2.1990751E-4
0.0015058039
0.0012512301
0.0011913104
6.13281E-4
4.0318086E-4
1.5098871E-4
-0.0011388408
-3.6959656E-4
0.0012221595
0.0019048873
0.0020136468
0.0010475839
0.00130789
0.0019190983
0.0016002364
0.0012988569
-8.163033E-4
-0.0016901855
2.4690115E-4
9.881766E-4
0.0014532374
7.763597E-4
-9.4015134E-4
-2.6328134E-4
-7.906704E-4
-0.0019689833
-0.0010076597
-0.0024548233
-0.0035384498
-8.4423635E-4
-2.5491867E-5
-7.965812E-4
-2.4604597E-4
-1.8607626E-4
-8.394456E-4
-0.0019268728
-0.0021444988
-9.097839E-4
-7.342511E-4
5.048684E-4
0.003023534
0.0019287589
-1.8351375E-5
2.419704E-4
9.5452747E-4
0.002384525
0.0025786567
0.0010875389
5.707316E-4
0.0012958465
0.0024694507
0.0023082013
0.0020933822
0.0015938268
-0.0015248465
-0.0016797598
1.616033E-5
-0.0021941985
-0.0031626266
-0.0020257584
-0.002151026
-0.0015458997
5.4973416E-4
0.0018380452
6.705093E-4
6.803538E-7
2.962622E-4
-0.0010653555
-0.0016900767
-4.618755E-4
6.633167E-4
-3.14978E-5
-4.4581262E-4
0.0011162204
-2.7988572E-4
-0.0013669973
7.7994005E-4
-3.7174792E-5
-6.9511065E-4
-1.8308671E-4
-7.423383E-4
6.488976E-4
-1.2475136E-4
-0.0017477791
2.038564E-5
3.6208785E-5
-8.503268E-4
-7.9509E-4
-8.6426554E-4
2.2181148E-4
-6.683729E-4
-0.0017941663
0.0010955726
0.0023661153
0.0014087105
0.0033194472
0.0048905797
0.004227913
0.0029541207
9.4178156E-4
9.3612005E-4
4.518461E-4
-0.0023031556
-0.0014322872
2.6312706E-4
6.444666E-4
0.0010346798
-0.0020464584
-0.0034702602
-0.0027841437
-0.004036186
-0.0015727815
2.2025351E-5
-0.0029235175
-0.0026352939
-9.260463E-4
-0.001259002
-0.0015488744
-9.761009E-4
7.5957965E-4
0.0018675432
7.5863244E-4
-1.0108425E-4
8.088812E-4
5.306478E-4
-2.9540992E-5
9.727265E-4
0.0011901312
0.0026748383
0.0035387436
0.0015374814
0.0017940254
0.0018435289
0.0011739293
0.0014172577
-8.762081E-4
-0.0012873907
-7.309742E-4
-0.0027164435
-0.0017734593
4.6069841E-4
0.0012391992
7.0029235E-4
-0.0021958814
-0.0025870292
0.0010803001
0.0023821546
-8.259815E-4
-0.0024317892
-4.7812096E-4
4.6350143E-4
4.8480634E-4
8.108272E-5
1.006134E-4
0.0018271
0.0014228722
-6.256621E-4
-0.0024687455
-0.003758447
-0.0021132387
-2.8923918E-5
5.710268E-4
4.7621052E-4
4.0071757E-4
9.4634213E-4
6.267381E-4
0.0012254032
0.0013295413
-0.0010771638
-0.001104492
-6.203513E-4
-0.0011534152
-6.642427E-5
4.409312E-4
8.369951E-4
9.366216E-4
5.3029467E-4
0.0012104841
8.6316623E-4
5.41868E-4
0.0011721521
0.0015381234
0.0013476756
-1.565581E-4
-6.2068953E-4
-0.0011990314
-0.0025124766
-7.6776586E-4
8.4669684E-4
9.0273545E-4
3.0300548E-4
-0.0016369292
-4.2254498E-4
0.0016554466
1.8556617E-4
3.5174984E-5
6.295533E-4
-0.0017970258
-0.0029867198
-0.0013953767
-0.0010498408
-6.282468E-4
7.063729E-4
-5.898395E-4
-0.0020598627
-0.0010985571
6.238911E-4
0.0026883706
0.00285673
9.2643074E-4
1.2578233E-4
1.5074838E-4
-3.6284482E-4
-8.026882E-4
-4.064083E-4
4.499555E-4
0.0012878192
0.0019546994
0.0014037915
-1.3083409E-4
-5.847814E-4
3.42375E-4
7.2731817E-4
2.9211945E-4
-1.313128E-4
-0.0010112306
-9.6191565E-4
-6.625596E-4
-0.002137237
-0.0013495041
9.605331E-4
1.964951E-4
-6.778282E-4
-5.163598E-4
-0.0012836652
-0.00130363
3.6937514E-4
4.3669184E-5
-0.0027469313
-0.001135407