-0.0012273656
5.628086E-4
2.9245976E-4
-4.4276592E-4
-0.0011717976
-0.0010515925
-7.9220845E-5
0.001005242
0.0022684962
0.0017748906
0.002355136
0.005675086
0.005541878
0.0040953574
0.003630403
0.0020996449
0.003945064
0.0053032204
0.0027313714
0.0019478003
-1.0026116E-4
-0.0032133562
-0.0029125228
-0.0033614687
-0.003950521
-0.002685679
-0.0016592754
1.6735282E-4
-7.0607684E-6
-0.0026005977
-0.0020280816
-3.1631076E-4
-0.0010641231
-0.0032236287
-0.004892377
-0.004221866
-0.0030645155
-0.0013191401
8.5450243E-4
0.0015870823
0.0036301953
0.0025420375
-7.318674E-4
0.0020179343
0.003040818
0.0019930478
0.003510088
0.002225893
0.0017369797
0.0025198704
0.0034643451
0.004509476
-1.8738162E-4
-0.0033917415
-0.0022197606
-0.0016822774
2.2012915E-5
-0.0011913124
-0.0021691052
0.0012470199
9.487454E-4
-0.0025907508
-0.0026770122
-6.293783E-4
-0.0016781539
-0.001870948
2.9323867E-4
-0.002270771
-0.004259197
-0.001643764
3.4065684E-4
-3.2892774E-4
-3.4815638E-4
0.0039010714
0.003154328
3.0463078E-4
0.004428326
0.00502112
0.003969026
0.0030823865
4.7918333E-4
0.0024350923
-3.4522844E-4
-0.0035152785
-4.0056056E-4
-0.0012684861
-0.0010325781
1.6433522E-4
-3.5248222E-4
2.525766E-4
-8.3091593E-4
2.1827784E-4
-0.001102842
-0.002247788
0.0033925602
0.0024868175
-0.0021247393
-0.0029187587
-0.0032137868
-0.0022364457
-0.0037261483
-0.0041405368
-0.0016050482
-3.4148057E-4
0.0012967002
1.446229E-4
1.7098233E-4
0.0037561068
0.0036378708
0.001422408
-0.001404256
-0.0023878426
-0.0011986855
-0.0021140857
-3.4177196E-4
0.0027417294
0.0024872643
0.001742412
1.8277888E-6
-0.0010385776
1.9524463E-4
5.508346E-4
0.0010881347
0.00402653
0.006294808
0.004615546
0.001999944
9.763765E-4
9.5522054E-4
0.0018162432
9.2334393E-4
-0.0017173316
-0.0034008464
-0.0038827544
-0.003589354
-0.0037606244
-0.0028710836
8.497581E-5
0.001105074
-6.393088E-4
-0.0019945293
-0.0017143104
-0.0012173342
-0.0010562794
-0.0011722179
-0.002896345
-0.0036370838
-0.0014997745
-0.0010693725
-0.001651679
0.001265297
0.0032493183
5.5803236E-4
-3.1601594E-4
0.0019517008
0.0022275427
0.0026403198
0.003963082
0.0034560019
0.0024842925
0.0020435422
0.0026073179
0.0014917
-0.0013624654
4.3003025E-4
0.002282313
1.4531738E-4
-4.6666426E-4
-7.061963E-4
-1.6101003E-4
8.474124E-4
-0.0010348147
-0.0012670485
-3.2392846E-4
-1.7061595E-4
8.3054905E-4
-1.8151409E-4
-0.0020648704
-0.003005029
-0.002961121
-0.0018196563
-0.00199058
-0.0021886162
-0.0022575115
-0.0015201373
0.0011413412
9.340245E-4
1.664565E-4
0.0011299915
3.5715264E-5
-9.712432E-4
-1.1314969E-4
6.967367E-4
1.2757798E-4
7.702382E-4
0.0022546982
9.652115E-4
0.0012622371
5.187721E-4
-0.0018593519
0.0021001163
0.004371276
0.0030018275
0.0037942969
0.0026964496
0.0012474655
-9.994265E-4
-0.0026360163
-9.5126696E-4
-0.0018559882
-0.0019059803
-3.5649203E-4
-0.0018219812
-0.0030390222
-0.0030437354
-0.0010942147
-2.1483998E-4
-0.0010944289
3.0952354E-4
2.8085196E-4
6.672202E-4
0.0013632134
-8.688878E-4
-8.005994E-4
-9.1267924E-4
-0.0017605755
-0.0010700916
-7.5168E-4
0.0020524934
0.0025222583
0.0011610511
0.0037767044
0.004153319
0.004099236
0.0032823563
-0.0016680531
-0.0017475295
-9.3279476E-4
-0.0049552177
-0.005117098
-0.0019425121
-0.0012704108
-0.0013535272
-3.4378006E-4
2.7204966E-4
0.0013264026
0.002486653
7.1985193E-4
-3.0813113E-4
3.100472E-6
-0.002055156
-0.0025407043
-7.4513536E-4
0.001593248
0.0041900165
0.0036764632
0.0026146774
0.0037280985
0.003561546
3.219293E-4
-0.003569469
-0.0037509513
-0.0026403966
-0.003532237
-0.0036884053
-0.003932449
-0.0033284593
-6.406786E-4
-6.6886816E-5
4.12083E-4
0.0024926693
0.0022995041
1.7265826E-4
-0.001153588
4.8889156E-4
0.0026381433
0.001412427
3.7130542E-4
0.0010330661
8.873E-4
0.0020205209
0.003950201
0.0034941002
0.00356877
0.005129311
0.003385749
-7.0986623E-4
-0.003203429
-0.004255059
-0.0036527026
-0.0024409574
-0.0026569797
-0.002751852
-0.001883987
-0.0014006287
-0.0016477201
-0.0014415208
-0.0012189954
-0.0026268126
-0.0031444225
-0.0025322742
-0.0041618696
-0.0048068333
-0.0018326372
0.0013542064
0.0034199078
0.004577444
0.0036394773
0.0010904261
5.9132685E-4
0.002276319
0.0020957312
6.116141E-4
1.5415942E-5
-3.5482383E-4
-1.4366426E-4
0.0016817667
0.0026486672
9.134124E-4
0.0015239895
0.0042363256
0.003794668
0.0035607216
0.0039265063
0.0023612254
0.001403685
0.0015186503
0.0024099234
-6.085474E-4
-0.0077644796
-0.008814986
-0.0048302063
-0.0020046448
-7.642162E-6
0.0010381246
2.8511393E-4
-0.00312504
-0.003996008
-0.0011703017
-0.0017689246
-0.0038536664
-0.004316486
-0.0037915565
-0.0020516333
-1.6744288E-4
0.0016763594
8.9302147E-4
-9.393015E-4
-7.926942E-4
1.1852509E-4
0.0035621421
0.004013085
0.0014821627
0.004195151
0.0044121877
5.8862794E-4
8.5051043E-4
0.0027998674
0.0034314315
0.0024216694
0.0014684441
4.0106924E-4
-0.0012346146
-6.9061463E-4
2.3871612E-4
0.0022654657
0.003741865
9.7030716E-4
-0.0013290829
-0.0034348418
-0.0040077562
-6.541849E-4
2.7430747E-4
-7.044751E-5
-8.574439E-5
-8.950587E-4
-9.887258E-5
-2.8924216E-4
-9.509331E-4
-0.0010424142
-0.0028019242
-0.0032807123
-0.00231271
-0.0016663129
-7.7186176E-4
-8.653042E-4
-0.0012389545
-5.4980855E-4
-6.4827834E-4
-0.0019819017
-0.0021733101
-3.7589003E-4
0.0022396618
0.0039144973
0.0037352368
0.003269348
0.0032000267
0.0024414123
0.0010247716
-1.4105551E-4
-0.0013321372
-0.0024526662
-0.0010750608
0.0012483906
0.0020856468
0.002788907
0.0022886638
0.001523143
3.3314104E-4
-0.0023321754
-0.0021403974
-0.0017524139
-0.0020344155
-1.599618E-5
-9.913925E-4
-0.0029056638
-0.0027401121
-0.0026304976
-5.386584E-4
6.5707725E-5
-0.0016255312
-5.677953E-4
0.0024547651
0.0039450307
0.0029222085
0.0023730006
9.198906E-4
-0.001222655
1.0371838E-4
4.8417255E-4
5.06993E-4
0.0020076616
0.00156696
0.0011503228
-5.3208333E-4
-0.0016376674
-0.0014265408
-0.0027202014
1.5421816E-4
7.301984E-4
-0.0024635168
6.569879E-5
-1.4898147E-4
-0.001113789
0.0014429479
-0.0010047536
-8.761789E-4
0.0010924664
-0.0029859575
-0.0038275297
-5.00266E-4
4.1979045E-4
-4.6184252E-4
1.1759279E-4
0.0024006008
0.0020252643
8.27484E-4
0.0011307619
6.5700224E-5
-5.277579E-4
-4.691591E-4
-9.751427E-4
1.4504672E-4
0.0017487517
0.0027553155
0.0026032098
2.631305E-4
-4.0280283E-4
8.5006334E-4
3.4409054E-4
5.6337466E-4
9.989466E-4
-9.299104E-4
-0.0011131907
6.5253204E-4
0.0011116795
-4.307965E-4
-0.0020871048
1.8027914E-4
0.0016297292
-0.001017533
-0.0015597399
-0.0014892751
-0.0021715355
-0.002686052
-0.0045911465
-0.0021995401
0.0014162884
-3.7658046E-4
-3.618453E-4
0.001818225
0.0018408598
0.0022768846
0.002026034
-5.295948E-4
-0.0013819825
9.471093E-4
5.129213E-4
-0.002429785
-0.0014185464
0.0012983457
0.0035940602
0.005147138
0.0040200064
0.0036397025
0.0030395165
-0.0013811805
-0.005418812
-0.005343254
-0.0041275765
-0.005317558
-0.004395046
7.939474E-4
0.0036811072
0.0035005528
0.0023189299
-9.9036944E-5
-5.067341E-4
0.001853752
0.0014601108
-0.0022914873
-0.002063043
6.3961715E-4
1.7961596E-4
5.8648762E-5
-2.0927588E-5
-5.555079E-4
0.0014738673
0.002458109
0.0016720897
7.414267E-4
-3.838355E-4
-1.2600992E-4
-1.2793325E-4
-6.033395E-4
-6.4758235E-4
-0.001143917
-0.0011529367
-0.0014423658
-0.0017419496
-0.0011689439
-8.038879E-4
-3.6317587E-4
-6.025688E-4
-4.351986E-4
4.3967963E-4
-5.736535E-6
0.0017670216
0.0044732024
0.003571234
0.0030248743
0.0031956378
0.0012255532
-5.966253E-4
-0.0013608352
-0.0019570794
-0.002513239
-0.00200372
-7.673495E-5
7.2349276E-4
2.7475288E-4
-1.7447986E-4
-0.0011100797
-0.00112834
-3.301875E-5
9.024466E-5
-0.0013321356
-0.0028495449
-0.0018644481
-9.125721E-4
-0.0028213977
-0.0025121437
4.4297267E-4
0.0016756573
0.0018250683
0.0019060078
0.002924464
0.003461299
8.3833013E-4
-0.0015518549
-0.0015073421
7.032213E-4
0.0036904875
0.0034687994
0.0018569666
0.0011017281
5.3018716E-4
0.0013167183
2.4369372E-4
-0.0023596904
-0.0011637164
0.0011570682
0.0016503081
9.3321136E-4
-0.0012669532
-0.002497619
-0.0017289442
-9.321147E-4
5.084645E-4
0.0018723623
6.971739E-5
-0.0025226611
-0.002750822
-0.0025301536
-0.002517002
-0.002725018
-0.0024864988
-5.712004E-4
6.711536E-4
0.0015602184
0.0020267142
1.6229549E-4
-0.0013327528
-0.0026195964
-0.0025217372
8.164191E-4
0.0022989933
0.0026811985
0.0026584787
7.7674654E-4
0.0017564384
0.0025333352
0.0016238581
0.0030950902
0.002038209
-6.9403363E-4
-8.163911E-6
0.0016129451
0.0015568938
2.4049456E-4
0.0012347229
0.002466838
7.9096324E-4
-4.0225434E-4
-0.0030537723
-0.00503126
-0.0017912878
4.4335646E-4
6.033805E-5
-5.503424E-4
-0.0010706699
-2.4790154E-4
-9.4957395E-5
-9.221813E-4
-0.0024318332
-0.0045393356
-0.0041104513
-0.0012546536
0.0021975434
0.0035151877
7.809069E-4
-0.0022184113
-0.00158275
0.0020989554
0.0028818722
5.9012677E-5
5.9305E-4
0.0025299203
0.0018790305
7.257367E-4
-3.9891357E-4
5.6804707E-5
0.001732477
8.719832E-4
-0.0014178025
-0.0012140834
2.1573005E-4
-0.0010761755
-0.003040003
-0.0024842871
-7.6736236E-4
0.0012539772
0.002954521
0.0036348964
0.003082967
7.2724675E-4
-0.0019531965
-0.0028085494
-0.0019722905
-9.321362E-4
-2.2784459E-4
3.0939723E-4
0.0012697303
0.0026590822
0.0026376173
0.0031193264
0.0045480565
0.0026934815
-4.665362E-4
-0.0033947253
-0.004819701
-0.0013997746
3.071649E-4
-0.0016282542
-0.0016772166
-0.0014850701
-0.001403453
-7.138585E-4
-2.1081469E-4
4.8495946E-4
8.5774163E-4
0.0014898917
9.247756E-4
-3.3395237E-4
-3.3004375E-4
-0.0018941673
-0.0038223574
-0.005160088
-0.0063528162
-0.004351957
-0.0015296874
0.0013898108
0.0044291457
0.0037717766
0.0029279941
0.0027699315
0.0015039165
0.002377525
0.0026915318
0.0013522352
0.0011008424
3.6826413E-4
7.8816747E-4
0.0032274183
0.003955738
0.0012264268
-0.001460389
0.002207457
0.007457399
0.0057826126
0.0015313596
-0.0023520878
-0.0061326018
-0.005906016
-0.0037370566
-0.002439976
-0.002464237
-0.005028198
-0.0047327927
-0.0015034382
-0.0025904505
-0.0036735844
-9.1709266E-4
-3.6472132E-4
-0.0015480566
-6.2638515E-4
8.7052863E-4
0.001442567
0.0015706611
0.0032767795
0.0056552584
0.0048907436
0.0021602435
-6.780229E-4
-0.0021729365
-6.1662204E-4
4.924543E-4
7.515425E-4
0.0010880843
-6.022193E-4
-0.0015689767
-0.0018290223
-0.0020950213
-3.0051824E-4
-2.280514E-4
-9.642676E-4
4.1607794E-4
5.6238496E-4
-7.9195807E-4
-0.0016762173
9.3426363E-4
0.005156357
0.004780156
0.0030332934
0.002286293
8.97534E-4
5.264093E-4
-6.1222364E-4
-0.0013669095
3.1893735E-4
-1.8424857E-5
-0.0014348681
-0.0013666109
-0.0018273416
-0.001104595
9.3667244E-4
9.148047E-4
5.355407E-5
-4.8122858E-4
-0.0016104503
-0.0022119125
-0.0019668913
-0.0013599583
-1.3667472E-4
9.707388E-4
-2.0543314E-4
-0.0034481601
-0.0028812208
0.0019278072
0.003556238
0.0026213357
0.003767851
0.0034026846
-0.0011723778
-0.0040312908
-0.002556829
-0.0016029099
-0.002251127
-0.003632219
-0.0048588514
-0.0047598975
-0.006989744
-0.008816301
-0.006339682
-0.004180369
-1.438838E-4
0.005330505
0.007265157
0.010605887
0.013435536
0.011301328
0.010035681
0.009870672
0.007591351
0.003813541
-3.041887E-4
-0.0012656833
0.001131312
0.002498934
0.0026625732
0.0017583078
-0.0034875192
-0.009350052
-0.009369075
-0.006260564
-0.0029234805
5.4394576E-4
-3.800157E-4
-0.005412339
-0.006882653
-0.0047386615
-0.0044680336
-0.004258305
-0.0028521938
-0.0036672095
-0.0053253146
-0.004922435
-0.0021737064
6.0279877E-4
0.0012146719
0.001995913
0.0026017579
0.0031535944
0.00686886
0.009886798
0.008648302
0.0043689604
-0.0010424366
-0.0050535835
-0.00557344
-6.604671E-4
0.0036360938
0.0030578442
0.002974866
0.0019601712
0.0018254155
0.005285496
0.0056159785
0.005697936
0.007307209
0.0074568004
0.008843707
0.008024414
0.0075368243
0.009949914
0.0028517707
-0.012605008
-0.022104602
-0.022898866
-0.020641979
-0.017279822
-0.011086426
-0.0068860874
-0.00886735
-0.010183941
-0.0049814275
0.0014685092
0.0018052415
-0.0012846333
-0.0044557936
-0.006888357
-7.0361776E-4
0.00999696
0.008735741
-1.7429395E-4
-9.841044E-4
0.004708863
0.0076064668
0.007351602
0.007997946
0.010667704
0.013662055
0.016091585
0.015919121
0.0064852186
-0.008648947
-0.013527844
-0.0078048585
-0.004467862
-0.0028625205
2.9086546E-4
-0.0023035028
-0.0077417875
-0.009919869
-0.016424714
-0.021881001
-0.014021003
-0.0022992026
0.0053443937
0.010538483
0.010745651
0.007628125
0.006180337
0.0059397896
0.0041372674
0.00750118
0.018291354
0.02245711
0.020580553
0.016292237
0.0034973181
-0.0051702624
-0.006333217
-0.008715713
-0.007314157
-0.005549005
-0.0064873807
-0.0058190497
-0.003911846
-0.0014407755
-0.0011461126
-0.0019708439
-0.0073081763
-0.01794261
-0.02169606
-0.021235244
-0.020719506
-0.016361639
-0.012242331
-0.00958355
-0.009347114
-0.0056060613
0.006746111
0.019000847
0.025033679
0.016430791
0.0016209704
0.003645854
0.025244247
0.055645514
0.065027535
0.042247437
0.017909745
0.009315084
0.02706221
0.06567302
0.073326275
0.026178999
-0.03222739
-0.07106815
-0.08749768
-0.062240373
-0.012748332
0.022736067
0.036520477
0.015730787
-0.015410839
-0.028732434
-0.03484504
-0.038320675
-0.06461452
-0.08392874
-0.062021986
-0.05025641
-0.040245235
-0.028997686
-0.01847854
0.029507244
0.04331966
0.012931069
0.0036042589
-0.01382242
-0.02435572
-0.0048024342
-0.0043919855
-0.05195929
-0.07238424
0.03797092
0.18870471
0.23483181
0.17483607
0.08594019
0.044573218
0.016629858
-0.0039378707
0.005110034
-0.031048272
-0.029538814
0.05412887
0.05376069
0.011938748
0.04426553
0.067709625
0.022545075
-0.039176878
-0.07028298
-0.10892475
-0.1718902
-0.1810747
-0.14885668
-0.15035853
-0.12505725
-0.043721605
-0.01154338
-0.028230025
-0.027138494
-0.007106123
0.044783603
0.09389189
0.08578916
0.052106883
0.033654347
0.026969966
0.015282003
0.021405006
0.041666076
0.04981355
0.09436594
0.14482738
0.1062232
0.0105974665
-0.022471815
0.043552972
0.058008596
-0.0274616
-0.06590439
-0.04673128
-0.04003586
-0.05968488
-0.06981923
-0.048479825
-0.04796417
-0.021670133
0.03180779
0.05929373
0.14369331
0.16564286
0.032053187
-0.045406163
-0.047519658
-0.06649137
-0.07769857
-0.06944785
-0.020905547
0.017580183
0.005221381
-0.00844934
-0.028159995
-0.042093642
-0.025546076
-0.0052517
0.01644247
0.014380562
-0.03693997
-0.06918294
-0.03429378
0.012797892
0.029592536
0.02626436
0.012046593
0.004104234
0.012097461
0.025539914
0.028781636
0.01253712
0.005411775
0.01278442
0.007518244
0.005964087
0.010836644
0.00765288
0.0026421142
-0.016554274
-0.03638143
-0.029912313
-0.019304559
-0.016708756
-0.013758576
-0.0072557097
0.01246928
0.025901863
0.016171351
0.0128072165
0.01861566
0.027008254
0.046428878
0.055584278
0.07628303
0.11775433
0.12290141
0.096806794
0.015031398
-0.12151596
-0.14480948
-0.060880333
-0.036133997
-0.0409912
-0.024422182
-0.025872808
-0.02792045
-0.01682843
-0.013238305
-0.016996397
-0.014635995
-0.0052111223
-0.00950737
-0.026282681
-0.034963984
-0.037809562
-0.03563063
-0.024679452
-0.011300283
0.0043425565
0.017394006
0.018338602
0.016523473
0.023441179
0.033342898
0.037962295
0.037934363
0.03544904
0.026229266
0.012178131
0.0051463526
0.0026388464
-0.002429337
-0.0037660846
-0.0039754086
-0.009057932
-0.012235042
-0.010490138
-0.00562113
2.0994381E-5
0.0036122275
0.0046700668
-8.2439237E-4
-0.007844879
-0.006127203
-0.0046395417
-0.007873397
-0.00915753
-0.0133108655
-0.015093481
-0.009167155
-0.012070026
-0.01905942
-0.01185492
-0.0021406852
1.4666529E-4
0.0036734387
0.008364802
0.010965118
0.013541832
0.01414278
0.009579806
0.0010892317
-0.005482789
-0.0066051343
-0.0076248897
-0.008783727
-0.005435924
-4.734284E-4
0.005038557
0.008052799
0.0055288053
0.0065889764
0.010386447
0.00872477
0.008875431
0.012742193
0.010365276
0.003891476
0.0014880503
-6.834949E-5
-0.0038763578
-0.0066055898
-0.009834404
-0.01283095
-0.013716556
-0.01594998
-0.0170478
-0.018091828
-0.020544654
-0.019199511
-0.01977874
-0.022527814
-0.022202475
-0.022707483
-0.023166407
-0.028216125
-0.029090988
-0.004075006
0.02678628
0.040131886
0.044455677
0.04500362
0.046128094
0.04791655
0.045463946
0.042427525
0.03839597
0.032202736
0.02421416
0.01457208
0.009772499
0.010281116
0.009157219
0.0013011143
-0.009714652
-0.013699432
-0.0142573025
-0.020338982
-0.028074218
-0.03221103
-0.033021417
-0.03301922
-0.03309223
-0.032059737
-0.02879
-0.022396797
-0.015858121
-0.010940613
-0.0052027353
-4.8907945E-4
0.001095045
0.0037465335
0.007905764
0.008754393
0.009729468
0.013134009
0.013613834
0.014314414
0.015545277
0.012408538
0.010176004
0.008865703
0.00520152
0.0046681995
0.008818531
0.011940642
0.010037993
0.007960296
0.009129198
0.010198835
0.009815344
0.004249308
-0.0016624945
7.66334E-5
9.723936E-4
-0.0012095418
-0.004169912
-0.008694423
-0.007663692
-0.0075281393
-0.013310372
-0.013196232
-0.009851369
-0.009392498
-0.010232725
-0.012204751
-0.0109970635
-0.008900017
-0.008853637
-0.006979452
-0.0051355995
-0.0029502586
-0.0013180937
-0.001310125
0.004318334
0.010385178
0.01106268
0.013275415
0.014896025
0.014142466
0.01465627
0.015084964
0.015135286
0.012680058
0.009832032
0.010717298
0.007557867
5.094049E-4
-0.0021926898
-0.0042542093
-0.007903503
-0.009710332
-0.010733448
-0.012486409
-0.013851058
-0.013418974
-0.013277083
-0.014521323
-0.013922334
-0.013064722
-0.01309053
-0.010964901
-0.0097949095
-0.011028924
-0.010816928
-0.008198821
-0.0042458414
-0.0019435306
8.317185E-5
0.0038308015
0.0048470926
0.006574837
0.010377629
0.008561183
0.0048730723
0.0036239803
0.002269949
2.5456244E-4
-0.0024474268
-0.0013976631
9.259646E-4
-7.235721E-4
-4.2014886E-4
2.4191731E-4
-7.406125E-4
2.4094294E-4
-7.9532404E-4
-9.098184E-4
0.0017421398
9.920467E-4
-0.0010037284
-0.0026723396
-0.0016388651
0.0023764467
8.8308024E-4
-0.0014129606
0.0011652195
0.0022713162
0.0016727556
5.877577E-4
2.8267692E-4
5.584983E-4
-0.0023875707
-0.0030707754
-0.0016823248
-0.0044877664
-0.0056345044
-0.0037235229
-0.0032395422
-0.0031310339
-0.0024434903
-6.659243E-4
0.0011231828
0.001923902
0.0028644465
0.0041184374
0.0039575165
0.0013797629
0.0011204004
0.0028599524
0.0023448016
0.0028659485
0.002671769
0.001022672
0.0016403005
0.001244794
0.0010910475
1.243406E-4
-0.0039570685
-0.00419633
-0.0038538645
-0.0058250385
-0.0057269773
-0.007316969
-0.009063426
-0.008195544
-0.007795166
-0.007292137
-0.0078009204
-0.00696268
-0.0014079636
0.0035216967
0.006750472
0.009838867
0.008499033
0.0045678564
0.0054757716
0.00844545
0.006845578
0.0050129453
0.006842467
0.008225141
0.008303824
0.008598112
0.007973008
0.005583821
0.0031661703
0.0028879233
0.0028658253
5.151211E-4
-0.002021859
-0.00273495
-0.0035289514
-0.0039938292
-0.0021839885
-9.724365E-4
-6.52043E-4
3.796147E-4
-0.001645284
-0.004438678
-0.0028015838
-0.0017232655
-0.0039903545
-0.0046445443
-0.0028553267
-0.0015849697
-4.717786E-4
0.0016620785
0.0018235157
-8.446256E-4
-0.0018562032
-0.001387689
-0.0019726583
-0.0024192824
-0.0034130358
-0.004356968
-0.003642623
-0.0029445575
-0.0016544561
-8.237301E-4
-5.81752E-4
0.0033784807
0.0063957986
0.004664642
0.0044014347
0.0059805447
0.0058313445
0.005156035
0.006214383
0.0064850836
0.0036936756
0.00296234
0.004604362
0.0042106505
0.0025171044
0.0015804262
0.0029194707
0.0025545175
0.00165919
0.0044528623
0.001092782
-0.004367976
-0.0034642583
-0.006793288
-0.008691968
-0.0044569043
-0.0048620473
-0.005367212
-0.005033611
-0.006895357
-0.0057661883
-0.0037804395
-0.00130028
5.831517E-4
-0.001616637
-0.0024289547
-1.0934586E-5
0.0025181742
0.002708422
0.0010628119
0.0018281068
0.0034371358
0.004631706
0.005425772
0.00408463
0.004699462
0.0058400608
0.0035228347
0.0019823837
0.001240966
-2.4424025E-4
-4.6236085E-4
5.719373E-4
0.0018298303
0.0012304718
2.2307235E-4
0.0019963062
0.0025530797
-7.034829E-4
-0.003913897
-0.005622074
-0.0052225715
-0.0026666839
-0.00209245
-0.0028382929
-0.0029864216
-0.004464417
-0.0033447142
-0.0016437061
-0.0035568965
-6.2940054E-4
0.0035807458
0.0020694975
0.0031099329
0.0035129879
-0.0011584758
-0.0029384312
-0.0022882638
-0.0011415242
0.0010160893
7.963191E-4
-1.5098163E-5
5.089861E-4
0.001094707
0.003163406
0.0039043785
2.8592642E-4
-0.0016936265
5.3240784E-4
0.0021051497
0.0017059372
9.494954E-4
0.0012555476
0.0022546332
0.0021725923
5.363421E-4
-0.0013696157
2.7827866E-4
0.0023067105
-3.4355558E-4
-3.4506992E-4
0.0024279738
9.8862E-4
-4.5311116E-4
1.04806444E-4
-6.5055305E-5
-8.7954133E-4
-5.57792E-4
7.205295E-4
-0.0013351361
-0.0034003775
-0.002267007
-0.0019642552
-9.949096E-4
-4.2658785E-4
-0.001099513
4.8109575E-4
8.932709E-4
-5.174671E-4
-5.185941E-4
0.0014232908
0.0029981793
0.0013854788
5.7704333E-4
6.342619E-4
-3.3447484E-4
6.7443465E-4
-1.4338555E-4
-0.0020128647
-4.7639426E-4
7.4304926E-4
6.580625E-4
4.4733196E-4
0.0013176894
0.001831045
-6.6324143E-4
-8.4941706E-4
0.0010938102
5.039303E-4
-0.0013736911
-0.0034944427
-0.0026764674
7.410768E-4
0.0025580316
0.0034669905
0.0031255456
0.0019382174
0.0011034189
2.1711527E-4
8.3701557E-4
0.0017881941
6.8014656E-4
-0.0023543984
-0.0039626644
-0.001613867
6.5186745E-5
7.0712983E-4
0.0029137733
0.003207745
0.0017848798
4.4617007E-4
3.114324E-5
0.0014006082
8.04226E-4
-0.001447412
-0.0014143288
-4.794155E-4
-0.0013649802
-0.003567317
-0.0050056083
-0.0050434084
-0.0028983813
-2.894067E-4
-5.544241E-4
-0.0015757412
-0.0014847331
2.8200896E-4
0.0023809648
8.0587965E-4
-0.0010693079
-6.564716E-4
-5.897713E-4
-9.3277334E-4
-0.0018409013
-0.0012397371
0.0014811775
0.003981721
0.0055233124
0.004654062
0.0044929553
0.0055287005
0.0050415085
0.005259746
0.0025724825
-7.2512066E-4
7.6987053E-4
-0.001264211
-0.004911593
-0.0037834726
-0.0029948868
-0.0034474132
-0.0035548604
-0.0012780983
0.0014222291
-2.601904E-4
-8.387433E-4
-9.833181E-4
-0.0033305609
-7.484431E-4
0.0019584973
7.923979E-5
-3.7066932E-4
-3.989133E-4
-0.0014259239
-0.0019475953
-0.0017395952
-2.5351997E-4
6.833926E-4
0.0012825734
0.0014844751
6.730523E-4
0.001847581
0.0028166766
0.0018130186
3.8954758E-4
-0.0022589583
-0.002203546
-0.0014011479
-0.0051313117
-0.004754328
0.0010082328
0.0018018143
-0.0013054017
-0.0011484491
0.0022112129
0.0033616247
0.0024526604
0.00264412
0.001163301
-3.8175398E-4
0.0018000474
0.0043880907
0.0051361485
0.003547853
0.0012662144
0.0015905721
0.0015824572
-6.1339396E-4
-0.0021672256
-0.0032659392
-0.004717231
-0.005032688
-0.0034677493
-0.002001761
-0.0023372031
-0.003102186
-0.002600914
-0.0011973636
-0.0011285398
-0.0025252376
-0.003961845
-0.004781699
-0.0021742482
0.0012726387
8.0651714E-4
0.0012009857
0.0032777477
0.0028513952
0.0017495286
0.0014646181
0.0031454437
0.0065313866
0.00823995
0.008624246
0.00904285
0.008655165
0.005761653
0.0011235967
-0.0023766146
-0.0054691103
-0.00811479
-0.008292498
-0.00555916
-0.0023393722
-0.0024366945
-0.0026296033
-0.0017578856
-0.0018053473
0.0011647991
0.0020298501
-0.0028127073
-0.0049522775
-0.0034435007
-0.0014315553
-9.0054836E-4
-0.0013855491
-7.667611E-4
-0.0010330745
8.3976873E-4
0.002737926
-1.3535711E-4
2.7412825E-4
0.0031136016
0.003300948
0.0041580196
0.0033670221
0.0016860721
0.0018493104
2.4146178E-4
-0.0015585975
-0.0011577469
-0.0010312253
-0.0015813247
-0.0023739364
-0.002664954
-8.12307E-4
0.0010974928
0.0024977578
0.004316809
0.0033450618
0.0031665904
0.005371787
0.003422688
0.0013899829
0.0012548526
5.41547E-4
0.0014648389
-6.532546E-4
-0.0028775367
-8.7615947E-4
-0.0017956867
-0.0029793638
-0.0017499529
-0.0013083129
-0.0017781629
-0.0036648242
-0.0023635584
4.075602E-4
-0.0013355112
-0.0022936966
-0.0010147064
-0.001501849
-0.0032189442
-0.0032376728
-0.0016029342
-0.0020238739
-0.002141662
-2.6506875E-4
7.833392E-4
0.002092472
0.0019243018
4.108382E-4
0.0025738026
0.0055311276
0.0040858206
0.0015340832
0.0023941733
0.0043670014
0.005173263
0.0034639852
-0.00126687
-0.0033994042
-0.002638017
-0.0014752094
6.198355E-4
-4.5466583E-4
-0.0018223684
5.8874337E-4
0.0021236185
0.0022808358
0.0025988899
0.003427861
0.0026186144
-4.3104708E-4
-0.001076978
-0.0020383797
-0.004305236
-0.004042811
-0.0031072954
-0.0020023054
-0.0023583262
-0.002892245
-0.0012395072
-0.0026782306
-0.003962539
-0.0012509006
-1.21864716E-4
-2.737712E-4
2.595751E-4
3.2158833E-4
2.082505E-6
7.619565E-5
3.177191E-4
2.686641E-4
0.0017561743
0.0027268678
9.446148E-4
0.0011683287
0.0041463803
0.0051839496
0.004891814
0.006460366
0.0065360223
0.004288854
0.0040017865
0.0031602485
6.069499E-4
-0.0028500636
-0.0060406006
-0.004513809
-0.004607336
-0.007015393
-0.0039668013
-0.0018742121
-0.0018501036
-7.167028E-4
-0.0013969761
-0.0010547136
-2.8956885E-4
-5.275619E-4
-7.5800717E-4
-0.0012989336
7.549659E-5
0.0011604539
0.0014213106
0.0014377125
5.0714816E-4
0.0018708146
8.8940855E-5
-0.0030920245
0.0013418111
0.004666124
0.00321495
6.385047E-4
-0.0028905675
-5.79687E-4
0.0034318569
5.927117E-4
-0.0017739929
1.5318343E-4
8.662484E-4
-4.072453E-4
-0.0014176137
-0.0015683724
-4.194202E-4
-4.9848844E-5
-5.5172615E-4
0.0015924781
0.0027353647
0.0020910976
0.003846105
0.0038720253
0.0028371136
0.0023451305
-0.0029621825
-0.0068459846
-0.0041550803
-0.002206189
-6.967623E-4
0.0022759598
9.783467E-4
-0.001658408
-6.971214E-4
-0.0013591961
-0.0025306826
-6.926619E-4
-9.001946E-4
-0.001903979
-7.419698E-5
3.6312634E-4
-0.0015039216
-4.307906E-4
0.003419475
0.004450604
0.0029091896
1.8261943E-4
-0.003006705
-0.002734383
-0.0010519933
7.4191426E-4
0.0024718747
0.0011501947
0.0010498832
9.149787E-4
-1.8028573E-4
0.0029202516
0.0037588656
0.0033023127
0.0041628676
-3.7994471E-4
-0.0035071427
-0.004170412
-0.0061467583
-0.0032979567
-3.5655271E-4
-3.113263E-4
-6.38209E-5
-2.3678392E-4
0.0020601086
0.0031887102
7.8034564E-4
-4.5267752E-4
-0.0016603786
-0.0027631696
-0.0033767992
-0.003027555
-1.4934414E-4
-1.128074E-4
-0.002568421
-0.0020450538
-2.301296E-4
0.0011080784
0.0010645222
6.1248784E-4
0.0019803538
0.0026628838
0.0034804663
0.00503482
0.002588236
-3.2301684E-4
4.7015038E-4
6.6347554E-4
4.04294E-4
8.270041E-4
2.2727934E-5
3.3482577E-4
0.00128675
6.479829E-4
0.0016089502
0.00256908
-7.087597E-4
-0.0037503217
-0.0029601222
-0.0013682529
-2.2769452E-4
-1.4473534E-4
-0.0015281274
-0.0015957644
-0.0011777456
-0.002597146
-0.0028877368
-0.0014069013
-9.914142E-4
-9.463869E-4
-6.6095893E-4
-0.0013405825
-9.992622E-4
0.0010095361
0.0013478604
1.9462181E-4
-6.5430824E-4
-3.497532E-4
0.002015952
0.002980633
0.0013473418
1.52414E-4