8.165302E-4
0.001049719
-0.0015343094
-0.0014415799
2.4262395E-4
-1.2524707E-4
1.4615107E-4
0.0024802736
0.0018182452
2.5140744E-4
0.0012326456
0.0012856285
0.0012972461
0.0017897125
0.002121456
0.0023015933
-8.6730765E-4
-0.0030072795
-7.884164E-4
-3.4819887E-4
-0.0021181016
-0.0020686523
-9.3239587E-4
-0.0016288101
-0.0019550684
8.966749E-5
3.06125E-4
-0.0011970503
-0.0020091792
-0.0010321338
0.0010167956
-3.8237302E-4
-9.849429E-4
7.556169E-4
-6.380764E-4
2.995376E-4
0.0023913127
0.0015635556
0.0033949958
0.0030371116
-2.2544811E-4
4.1307867E-4
5.4808747E-4
3.7910423E-4
8.832866E-4
-0.0017902803
-0.0016243581
0.0022399276
0.0033088007
0.0030370608
0.002298405
5.1985326E-4
-0.0013712178
-0.0043805297
-0.0065061944
-0.005840767
-0.003262569
-3.3212858E-4
-2.0974313E-4
-3.7129762E-4
0.0020979359
0.0026615432
0.0014967883
6.082681E-4
-8.9328235E-4
6.8332494E-4
0.0027522782
-2.541435E-4
-0.002270257
-0.0016359839
-0.0023577404
-4.1822577E-4
0.0033284137
0.0049792537
0.0064686956
0.004084591
-6.960489E-4
-3.3149432E-4
-2.409563E-4
-0.002149998
-9.982834E-4
-1.0812687E-4
-2.7255912E-4
-0.0011214826
-0.0037040045
-0.0046158116
-0.003207874
-9.6257613E-4
2.3697651E-4
7.7677934E-5
8.6985755E-4
4.497281E-4
-0.0015294347
-0.0017562372
-9.812198E-4
-0.0016082096
-0.0025842565
6.813665E-5
0.0032327936
0.0031374374
0.0032415916
0.0015670814
-5.1114446E-4
0.0022169147
0.0046153665
0.0038378655
0.0012744039
-9.736722E-4
1.6360347E-4
6.566696E-4
-8.3426066E-4
-0.0011868504
-3.5798264E-4
0.0024905524
0.0034284974
-0.001256423
-0.005309147
-0.004156285
-0.0014885796
-3.5945215E-4
2.5338642E-4
-9.5452234E-4
-0.004016175
-0.0046339314
-0.0028022344
-1.4094173E-4
0.0021749455
0.0019669908
5.8990123E-4
-3.0261415E-4
4.093769E-4
0.0022472646
0.0022074913
0.0019253717
0.0017507266
-6.8565697E-4
-0.0014833581
0.001173498
0.0027810824
0.0020798356
9.5982914E-4
-5.486135E-4
-0.002446935
-0.002691733
-3.8061483E-4
0.0022443936
0.0023149569
-4.5632385E-4
-0.0031577302
-0.0024434463
4.9118785E-4
3.6510883E-4
-0.0016670931
-4.0713378E-4
4.207571E-4
-0.0013145107
-0.0010973794
-3.7853885E-4
1.8249435E-4
0.002509549
0.0030002862
0.0015559773
0.0012278769
6.459949E-4
-3.8679724E-4
-3.1351275E-4
0.0012107032
0.0027764034
0.0016463711
3.4868794E-5
-2.7649605E-4
-0.0030247096
-0.0046989773
-0.0024381955
-0.0028500585
-0.0034289646
-6.1695328E-6
0.001710367
0.0021343953
0.0018423492
-0.0022693274
-0.004695449
-0.0030952366
-0.0011659437
0.00149929
0.003911723
0.0037702944
0.0019955612
0.0016900355
0.003057967
0.0017093817
-2.2853348E-4
7.2698726E-4
5.132711E-4
7.685109E-5
0.0010868008
5.0371565E-4
-3.2552524E-4
-2.5909723E-4
2.490958E-4
2.6483467E-4
-0.0015379131
-0.0023286452
-0.0014276681
-2.9275924E-4
-2.504214E-4
-0.0021867624
-0.0016697984
-2.9685156E-4
-0.001688898
-4.064557E-4
0.0022099987
0.0014064906
-3.7283073E-5
-3.3007198E-4
1.8763976E-4
0.0014179944
0.0020891454
5.312623E-4
-5.4053444E-4
-1.8328654E-5
-0.0025143388
-0.0044064033
-0.0019848188
3.7647542E-4
0.0015456087
4.056102E-4
-7.178379E-4
0.0013157475
0.0018852812
0.0011635848
0.0015002287
0.0010741561
-6.4767845E-4
-9.284867E-4
0.0020174873
0.0017864518
-5.180788E-4
2.950339E-4
-0.0013075247
-0.0012440663
0.0017814507
5.171383E-4
1.742868E-4
-1.8309028E-4
-0.0025249063
-0.0015137178
2.8497208E-4
0.0023594243
0.0023506659
-0.0013357424
-0.0021268923
-8.3062076E-4
9.395915E-4
0.0019186641
-7.55907E-4
-0.0026803093
-0.0033462844
-0.0032000358
0.0010296467
0.0052051893
0.0050693187
0.0029536453
1.4840293E-4
-0.003400618
-0.003734771
-0.001281314
-0.0015625521
-0.0018899067
-7.1829907E-4
-7.5858145E-4
-4.9592013E-4
-0.0016030561
-0.004112048
-0.0030611376
0.0021904015
0.0070943725
0.008105658
0.0072179935
0.004462241
2.840845E-4
-0.002255815
-0.004682838
-0.0035606062
6.842798E-4
4.4867588E-4
-3.671159E-4
-5.5544893E-4
-0.0028902423
-0.0025473395
-7.767882E-4
-0.0011454031
-0.0017425589
-0.001468033
-0.0011601803
-9.752553E-5
0.002064081
0.0010390866
-0.0010138983
0.0011480295
0.0023881223
2.206985E-4
-4.920863E-4
0.001774227
0.002295108
3.162094E-4
0.0017175096
0.0022503738
-0.0010530723
-5.6700374E-4
0.0018915696
0.0013656686
-6.6738925E-4
-0.002323537
-0.0031441434
-0.0035162023
-0.002702719
-0.0028733513
-0.0034828915
-0.001455387
-3.7121976E-4
3.0109155E-4
0.0022458022
0.0021141453
0.0011709818
0.0021698228
0.0042752884
0.00345036
0.0017650027
0.0043057087
0.004097972
-4.3136417E-4
-0.0013279606
2.9306635E-4
0.0011549899
0.0017624527
0.0013766587
-0.0023019381
-0.005820128
-0.0041418583
-0.0027675505
-0.0034066252
-0.0031451967
-0.004230486
-0.0030523604
0.0012893832
0.002475629
-1.0603474E-4
-0.0021703434
-9.829373E-4
-1.2527754E-4
-6.567154E-4
4.163056E-4
8.413146E-4
9.675886E-4
0.003149953
0.0052008023
0.003773964
5.197783E-4
7.723781E-4
5.5784895E-4
-0.001789566
-5.189803E-4
2.2592615E-4
-8.239584E-4
-7.8412873E-4
-6.275292E-4
0.0010794755
4.8315333E-4
-0.0014400672
-2.476793E-4
-2.6085533E-4
0.0013201555
0.004196927
0.0026593662
7.597756E-4
-6.774383E-4
-9.315059E-4
0.0011944639
8.1588386E-4
-6.4045744E-4
-3.913837E-4
2.239357E-4
-1.9683401E-4
-0.0015429335
-4.7889704E-4
0.0011655738
-9.4884174E-4
-0.0039254287
-0.002729621
4.1776404E-4
-3.6654793E-4
-0.0017813782
-0.0012494816
-0.0015686348
-1.552265E-5
0.0011951623
2.588649E-5
-7.657861E-5
-0.002222318
-0.003193272
3.6564516E-4
2.4465544E-4
-0.0017879583
-1.699213E-4
3.5788384E-4
-5.691431E-4
0.0010212675
0.0020010497
7.6634594E-4
0.001766894
0.002438137
-5.9709273E-4
-0.0021097837
-7.9363E-4
8.2486187E-4
0.0022359053
0.0040412284
0.0054024737
9.994215E-4
-0.0032119167
0.001514468
0.0035318243
-3.7690697E-4
3.9109396E-4
0.0026634026
0.003632177
0.0041175294
0.0014576764
2.8219345E-6
-4.0505602E-4
-0.0037661556
-0.0050703133
-0.0036872476
-0.0038023237
-0.004360701
-0.003937577
-0.0020423722
7.105405E-4
0.0018179378
0.0021026232
0.0026422197
6.31326E-4
-0.0021606719
-0.0019602103
-0.0012189589
-0.0013145391
-0.0022640123
-0.0032830485
-0.0019153474
-0.0021646693
-0.003144827
-2.343322E-4
9.196202E-4
9.82601E-4
0.0026958745
0.0013156444
9.660158E-4
0.0035574401
0.0027847488
3.374177E-4
-1.5972127E-4
-5.472378E-4
-0.0010199515
-2.3062162E-4
4.0393232E-4
0.00208945
0.005419595
0.005500634
0.0032685406
0.0015923445
0.0013987854
0.0039556394
0.0032048468
-4.7563535E-6
-2.772915E-4
-0.0028649243
-0.0050364565
-0.0033837867
-0.0029445738
-5.73831E-4
0.0022590475
5.81697E-4
-9.115006E-4
-0.0029167077
-0.006223015
-0.0045463224
-0.0011086462
-0.0014138296
-0.001868349
-8.2855864E-4
0.0012586261
0.00346267
0.002541869
0.0011879121
5.7571154E-4
-0.0030583518
-0.0056799348
-0.003975828
-0.0012348302
2.6506482E-4
1.6468286E-4
0.0013118068
0.0035420784
0.0029836902
8.18794E-4
-4.6617448E-4
-1.10871144E-4
0.0015979158
0.0033226397
0.0042119673
0.002009113
-0.0020982665
-0.0021309427
6.680365E-4
9.171852E-4
0.0012321677
0.0030680567
0.001957002
0.0010748443
0.0041883704
0.0051974547
0.0027503064
7.514154E-4
-0.0018831034
-0.0036100517
-0.0018366344
-0.0013319567
-0.003503063
-0.0038392358
-0.0032117928
-0.0028775688
-0.0016530112
-0.0019137347
-0.0031615766
-0.0024756482
-0.001250182
-0.0010019197
-0.0013162297
-0.0011602817
-6.4032973E-4
-9.5125695E-4
-0.0015004127
-0.0012547679
8.331926E-4
0.0027957957
0.0014418046
0.0014475838
0.0042990614
0.0039829924
0.0035696304
0.0058058347
0.0047591436
0.0021975094
0.0019777997
0.0013104388
-1.19799486E-4
-0.001988415
-0.0029755214
-0.0016354453
-0.0020902683
-0.0016545978
0.0028827263
0.002364948
-0.0026713994
-0.0034011023
-0.002890845
-0.0052389624
-0.00819744
-0.007379634
-0.0020634045
6.913303E-4
5.035976E-4
0.0034293106
0.0060544433
0.0043971115
0.0025307783
0.0042051817
0.0055921874
0.0014928794
-0.0013405794
0.0010747635
8.512293E-4
6.0768707E-5
7.0688286E-4
-0.0016852928
-0.0010274589
0.0015485781
3.8431177E-4
-1.7105651E-4
-0.0021776515
-0.0037468865
-0.0011875283
-0.001649751
-0.0030296016
-0.0024187174
-0.0026730383
-0.0013985111
2.6881113E-4
0.0015476568
7.913132E-4
-0.002252729
-1.2129957E-4
0.002970913
0.0012604002
-0.001175292
-0.0023399454
0.0013621572
0.0052081537
0.0034088087
0.0033462883
0.0036251745
1.1667795E-4
-0.0014864914
-2.4925897E-4
3.243314E-4
-0.0018991231
-0.0038050232
-0.0016685592
6.0899503E-4
9.837401E-4
8.5726724E-4
-2.8128168E-5
-4.5797782E-4
8.494602E-4
0.0022860353
0.0015807304
5.0740945E-4
2.9577504E-4
-0.0016027119
-0.0032201174
-0.0021367848
-0.0011412206
-0.001617723
-0.0032291587
-0.004438517
-0.0027635184
3.149567E-4
0.0021555421
0.0029259843
0.0028095536
0.0016529848
8.111501E-4
4.059585E-4
-0.001208792
-0.0024275766
-0.0015773235
-5.162275E-4
0.001338165
0.0028024893
0.0015700924
0.0029462369
0.006051088
0.005231941
0.003967202
0.0015303699
-0.0018055697
-7.4389623E-4
-0.0014298072
-0.0037044515
-0.0010086866
-4.2851642E-4
-0.0025193843
-0.0012029642
-6.828916E-4
-0.0025496562
-0.003434977
-0.0032187796
-0.0025048137
-0.0016105593
-0.0013276855
-9.998971E-4
-2.6605587E-4
-4.2983922E-4
1.3462999E-5
4.4970555E-4
-0.001027594
-9.8603E-4
-0.0010758517
-0.0012205668
0.0029321334
0.0046117217
0.0028314102
0.0031977636
0.002611119
0.0017212267
0.0021871133
0.0032490923
0.004599436
0.0019521461
-0.0014278683
-3.4826712E-4
7.988797E-4
5.077507E-4
2.5224325E-4
-6.9326896E-4
-0.0015414997
-0.0012420793
-0.0012613703
-0.0012317031
0.0012259034
4.4716298E-4
-0.0060772183
-0.008808317
-0.0062530725
-0.003402377
-0.0015187833
-0.0010728915
5.210496E-4
0.0016152053
0.0013956443
0.0054638507
0.008207434
0.005117937
0.0037570784
0.0036677124
0.0013843236
-5.850802E-4
-9.716821E-4
-4.72115E-4
-0.001297095
-0.0013379792
5.87723E-4
-7.6500553E-4
-0.0018770501
-4.901922E-4
-0.002759695
-0.0042919386
-0.0016470272
5.149571E-4
0.0010540549
-9.6230477E-4
-0.0017366594
6.410622E-4
3.258743E-5
-0.0011656237
-1.9974542E-4
1.6122765E-4
4.558729E-4
-9.401094E-4
-0.0019620906
-6.5624504E-4
-0.0016624032
-0.0019790966
2.8148675E-4
0.0015755736
0.0035194694
0.004484818
0.0038984558
0.0039974414
0.0013860314
-0.0023313425
-0.0052620834
-0.0092292335
-0.008221436
-0.002382793
3.3972866E-4
0.0012124652
0.0033974238
0.0050170007
0.004364317
0.0047053816
0.009190115
0.011895451
0.01020886
0.0078884745
0.00486189
0.0020093522
-0.0028033569
-0.010644434
-0.013009249
-0.010209622
-0.009459146
-0.008655867
-0.0043682256
0.001925968
0.0046972525
0.0017525495
-1.00882084E-4
1.2476569E-4
-0.0030271097
-0.006018949
-0.005283995
-0.0044868207
-0.0037893779
-0.0025354659
-0.001711977
1.483978E-4
0.002486152
0.004155352
0.0042035915
0.0026346527
0.0030897385
0.0042569484
0.0050677103
0.006939225
0.0050617848
0.0016787603
4.0963382E-4
-0.0030006387
-0.0044365516
-0.0022750385
-0.002319049
-0.0029588798
-0.0032829717
-0.0037599257
-0.0022457996
2.714235E-4
0.0023670075
0.002910344
0.0024968055
0.0036347697
0.0040510125
0.0011274945
-0.0035096386
-0.0065456354
-0.004560108
-0.0011553308
-0.0018141904
-0.0032170715
-0.0034280256
-0.0029873399
2.745835E-4
0.004781587
0.008943371
0.010857874
0.008416272
0.005802224
0.005723939
0.0060884166
0.0019004958
-0.00633224
-0.012008787
-0.017606476
-0.019217456
-0.01123931
-0.007548311
-0.010148591
-0.006496654
0.0013818233
0.004287648
0.002585964
0.0025594323
0.0022343555
0.0021091278
0.0023706183
-0.0042886366
-0.007019407
-6.7596073E-4
0.0019225382
0.002888216
0.00396428
0.0052149873
0.008040077
0.006587695
0.0055327313
0.0046283687
9.663967E-4
0.0040902672
0.01454051
0.022966081
0.014067801
-0.011634769
-0.030053135
-0.039844338
-0.046906985
-0.03803403
-0.01758438
-5.004477E-4
0.010879468
0.015003826
0.020238647
0.039821554
0.06290084
0.08345547
0.10606775
0.11131436
0.099269375
0.084702946
0.054389756
0.013760117
-0.026000967
-0.07346545
-0.12289764
-0.15663975
-0.14129634
-0.077282496
-0.028326718
-0.01572749
-0.014343881
-0.00981863
0.021505604
0.060578305
0.045006447
-0.012180907
-0.053978644
-0.07878262
-0.09764216
-0.1130166
-0.12834762
-0.11492877
-0.072958186
-0.024106782
0.049815066
0.11959299
0.14245813
0.1300993
0.097185045
0.08718581
0.094255514
0.0124879405
-0.15729398
-0.24443558
-0.1329727
0.07012281
0.19075614
0.20945632
0.196948
0.20928308
0.24943735
0.19063823
-0.009469566
-0.11421993
-0.028507339
0.059176743
0.11017765
0.11798115
-0.028742665
-0.1418078
-0.0054474515
0.10909899
-0.054925095
-0.2899893
-0.34764048
-0.23771259
-0.1226312
-0.13481894
-0.20078798
-0.24263486
-0.29975414
-0.29043168
-0.14312786
0.04846914
0.17676902
0.23037627
0.2716917
0.2584074
0.18741152
0.14579742
0.0396746
-0.058608048
0.019058341
0.027920574
-0.09708572
-0.04520739
0.15441759
0.24714957
0.18869986
0.067425676
0.020038767
0.07531229
0.068526715
0.016804816
0.019567402
-0.0606806
-0.12832585
-0.03414443
-0.016673923
-0.052565113
0.06384311
0.18360929
0.14906535
0.0012033915
-0.066111945
-0.014577449
-0.103296645
-0.26600978
-0.22775234
-0.076033905
-0.013115107
-0.057804074
-0.025433728
0.08984372
0.01057339
-0.10202668
-0.04194876
-0.11742188
-0.21188581
-0.05544429
0.00239679
-0.10823267
-0.13822718
-0.13348557
-0.06727565
0.053698085
0.10569566
0.20449232
0.36815456
0.45374003
0.48643014
0.4270926
0.16946237
-0.1703507
-0.37525868
-0.3035935
-0.051633473
0.055199925
-0.060835943
-0.17785913
-0.1615201
-0.005316797
0.13472438
0.088070475
0.008845949
0.05990978
0.10392212
0.026720924
-0.12499644
-0.26607257
-0.29437885
-0.2047971
-0.08622779
0.0018489948
-0.0029732992
-0.027850067
0.04977834
0.09914918
0.06566857
0.09194611
0.2029299
0.3093823
0.24929911
0.048706908
-0.027349263
0.05008517
0.07319632
-0.031968538
-0.102072194
-0.07722659
-0.09253672
-0.117710866
-0.10804891
-0.072381236
-0.02249611
-0.075181805
-0.09626996
0.005804327
0.024772756
-0.010510279
-0.04674213
-0.08706025
-0.039008375
0.020399852
0.05165175
0.068355344
0.05077375
0.057849605
0.050003476
0.017777253
-0.012775863
-0.041979734
0.04496622
0.17225029
0.18763088
0.13900274
0.02919567
-0.10005302
-0.14460406
-0.10991464
-0.048739586
-0.020725287
-0.003990501
0.024628619
-0.012226253
-0.08796756
-0.099580556
-0.060728483
-0.034542587
-0.019228198
0.0049274163
0.025681715
0.042197526
0.051126383
0.048927605
0.05246004
0.053810842
0.050377347
0.047497842
0.024696033
-0.007899535
-0.02215697
-0.026859134
-0.035458297
-0.041246884
-0.041657977
-0.03552618
-0.017017849
-0.0019437858
-0.0015655623
3.699616E-4
0.0040735076
0.0059385197
0.012663747
0.012730787
0.008622482
0.012091365
0.007253066
-0.0017396268
0.005405355
0.014015405
0.014776259
0.018072078
0.02094299
0.018810106
0.0067916987
-0.00762164
-9.901156E-4
0.011063629
-4.7261183E-4
-0.01840227
-0.01912959
-0.015869673
-0.025691913
-0.028255943
-0.014935248
-0.013493188
-0.021150764
-0.021328866
-0.017264336
-0.006503097
0.0022755337
9.0377213E-4
0.006132013
0.01800345
0.02299725
0.029098982
0.030985212
0.013967181
0.0068922737
0.024891127
0.036817126
0.032333106
0.011701224
-0.019520314
-0.03346106
-0.020757327
0.007881586
0.024256568
0.004688869
-0.02960782
-0.050089054
-0.043090485
-0.021293063
-0.014489953
-0.01487002
-0.01167831
-0.0140497675
-0.015193955
-0.008259292
0.003909314
0.014473235
0.018480204
0.019112745
0.018643457
0.01672382
0.012787741
0.014025666
0.02096319
0.022662923
0.023309292
0.022755906
0.016573139
0.014272973
0.012622023
0.007107563
0.004965902
0.004678919
-6.6548033E-4
-0.009482773
-0.011738834
-0.009253145
-0.012069684
-0.017757481
-0.01877378
-0.013795204
-0.013825724
-0.02005486
-0.01843042
-0.014546086
-0.014761274
-0.015197025
-0.024451751
-0.03680732
-0.034263078
-0.024639575
-0.021805864
-0.018996364
-0.010548806
-0.0031373661
0.0012558489
0.0054563954
0.0105260685
0.015017319
0.016877273
0.020856233
0.02785681
0.03149644
0.032857627
0.035260264
0.037071418
0.036268823
0.034114182
0.031749148
0.025707638
0.01660561
0.010113056
0.0074457224
0.005638179
6.9724163E-4
-0.007413515
-0.013636599
-0.016410088
-0.01888036
-0.02113386
-0.022263737
-0.023856202
-0.023234816
-0.020879569
-0.022945773
-0.02437628
-0.020788701
-0.017875228
-0.014891979
-0.012041385
-0.010826716
-0.0054849773
0.0016931222
0.004229327
0.0019758937
-0.0020822864
-0.0029192462
-0.0015961528
0.0015575507
0.007926594
0.009408191
0.006776552
0.006026823
0.004620881
0.005621743
0.008012317
0.0066871634
0.0059144455
0.0068455045
0.009067776
0.013382624
0.01604033
0.016897177
0.016901126
0.012562775
0.004161336
-0.002078005
-0.0026768693
1.0036156E-4
0.0021892102
-4.2948296E-4
-0.0057999897
-0.007675405
-0.006210579
-0.004847214
-0.0041662096
-0.0042107757
-0.007414379
-0.012580003
-0.013901517
-0.011738575
-0.007907387
-0.004162844
-0.004080751
-0.0031208806
2.445327E-4
0.0015910837
0.0033931886
0.0066616912
0.0066894777
7.124353E-4
-0.0037124732
2.2955996E-4
0.0031105976
0.0013913722
0.0011451683
0.001712095
0.0024208843
9.7532826E-4
-9.629283E-4
0.0014675913
0.0011341206
-0.003189477
-0.0044121896
-0.0047084554
-0.005816904
-0.005678916
-0.004134605
-0.0020241123
-0.0012501689
-0.0015490036
-0.0012720241
-0.0013405122
-0.002705023
-0.0030278917
-0.0014559436
-9.4562187E-4
-0.0014972396
-0.0012069878
6.496506E-5
0.0017948339
0.0023166495
8.39532E-4
-0.0014247713
-0.0019099357
-2.1053938E-5
0.0016446691
0.0027958904
0.003214149
0.0023426889
0.0020670253
0.0015769671
-5.0364266E-4
-0.0018222268
5.9999485E-4
0.0037893185
0.0023915698
0.0019984057
0.0061399397
0.006627068
0.0028330605
-5.771927E-4
-0.0031661422
-0.004475937
-0.004734954
-0.0035952202
-9.4463164E-4
0.0013122772
2.0638134E-4
-0.0036233836
-0.0041822935
-0.0023143124
-8.6164696E-4
8.6250564E-4
-0.001383858
-0.0045894203
-0.0033255466
-0.002021884
-0.0019879793
-0.0025821812
-0.00293006
-0.0016677466
-3.88402E-4
0.0016114078
0.0021234644
0.0010425099
0.0029566
0.0050112805
0.00542903
0.005126159
0.003129791
0.0011833785
8.3693885E-4
0.002169845
0.0020154133
5.7185953E-4
0.0013965961
0.0011036879
0.0010704465
0.002648813
-6.788078E-4
-0.005290495
-0.0055547883
-0.0035165302
1.0559047E-4
0.0030051442
0.0025616307
4.161852E-4
-0.0013438193
-0.0023357735
-0.002975085
-0.0036022377
-0.0032983327
-0.0011003613
8.250823E-4
0.0013924101
0.0018707486
0.0023775448
0.0031132523
0.0020009873
2.4944832E-4
0.0014152012
0.002122678
0.0021389907
0.0013751466
-0.0012647886
3.1970392E-4
0.0019515003
-9.3979953E-4
-5.2622496E-4
6.603324E-4
-0.0020873006
-0.0046557686
-0.004824491
-0.0014608895
0.0016598554
-1.1096239E-5
-0.0026199594
-0.0034383684
-0.003016733
-7.912769E-4
0.0016102872
0.0019667712
0.001010284
5.0886016E-4
7.464683E-4
0.0013457176
0.0024456976
0.0027144244
0.0018333232
0.0029216902
0.0038431964
6.1262824E-4
-0.0019734662
-0.0011808632
5.3033287E-5
0.0012791448
7.2076806E-4
-8.9276046E-4
3.02982E-4
0.0021777533
0.002829745
0.0025776047
0.0025845969
0.0051145367
0.0039965166
-0.0019341588
-0.0028336102
-0.0015055558
-0.0023697843
-0.0010419034
-7.321302E-4
-0.0022556602
-0.002110616
-0.0018868512
8.1096974E-4
0.00414437
0.0014543629
-0.0026032643
-0.0034976646
-0.0046770717
-0.006624123
-0.006026274
-0.00257341
-9.415613E-4
-0.0017637952
-8.4487995E-4
7.394543E-4
0.0011095749
0.0012905179
0.0014411054
0.002228695
0.0027563735
0.0019447142
0.001219616
0.0017198055
0.0046126605
0.007942731
0.008639302
0.007844817
0.0053194244
0.0020407261
-7.229704E-4
-0.005888336
-0.00873454
-0.0040570027
0.0014420897
0.0033141954
0.003276167
0.001303483
-0.001219759
-0.0015575697
-0.0017146863
-0.0025282246
-0.0015973836
-0.0017928394
-0.00197202
0.0018200787
0.0036822157
2.3106657E-4
-0.004564217
-0.004515499
-2.622579E-4
-8.63611E-4
-0.0019878123
3.5891478E-4
-2.0219927E-4
-5.16755E-4
-9.940037E-4
-0.0018460748
6.332205E-4
-4.712353E-4
-0.0019656806
0.0011060431
0.0014989319
4.1374174E-4
-1.4210188E-4
-3.1226935E-4
0.0015046477
3.721352E-4
-0.002051319
5.3952285E-4
0.004037422
0.0042527714
0.003910846
0.004121947
0.0030017304
0.0010980393
-9.715983E-7
-6.7794556E-4
-0.0016448316
-0.0017837621
-7.525997E-5
0.002665613
0.005213213
0.0028560767
-0.003942018
-0.005353456
-0.0028905396
-0.0035928276
-0.0045107817
-0.0033923395
-0.0012894957
2.6003525E-4
0.0013133093
0.0030149482
0.003749988
0.0026196775
-3.2382304E-4
-0.0011823665
-7.622735E-5
-0.0031159334
-0.0040347553
-0.0010418671
-0.0011498774
-4.9705274E-4
8.077034E-4
0.0010720909
0.0028438903
0.0033480562
0.0021852644
-8.830528E-4
-0.0030054715
-3.650129E-4
0.0013659202
0.0011789841
5.5142184E-4
-6.4019026E-4
5.2170135E-4
7.3697267E-4
-9.5876004E-4
-0.0012838066
-0.0013354212
-8.774937E-4
-2.759795E-4
3.0566895E-5
0.0011179828
0.0031289659
0.0055118897
0.0046500894
0.0012648379
-5.9254485E-4
-0.0014614861
-0.0011439531
-0.0019112007
-0.004375053
-0.0022017683
0.0014165259
5.545294E-4
3.242618E-4
0.0017872105
0.0018976153
0.001709264
-4.0259815E-4
-0.0032576704
-0.003118344
-0.0028500098
-0.0025986736
-1.2798882E-4
0.0021286756
0.0023805883
8.596636E-5
-0.0024524317
-0.0025738114
-0.0018168271
4.2147492E-4
0.003479935
0.002474052
-6.804597E-4
0.0013429926
0.0052271555
0.0031142065
9.38183E-4
9.512381E-4
-0.0031790652
-0.004418715
1.2881249E-4
0.0027683952
0.0038044036
0.0027709703
-8.5909927E-4
-0.0024930297
-0.0010989909
5.076726E-4
-0.0014275466
-0.003939571
-0.0022584256
2.068189E-6
9.448935E-4
0.0016882905
0.0016799689
3.7507628E-4
-0.0022008703
-0.0032069627
-0.002059413
-3.0310565E-4
0.0014947734
0.0011954836
9.172433E-4
0.0014179323
-9.699117E-4
-0.0018696941
5.704526E-4
0.001256262
0.0019880675
0.0031352292
0.0016685062
3.4965592E-4
0.0012654881
0.0033498039
0.0031652765
-1.3351958E-4
-1.4068055E-4
0.0015007985
-0.0012254625
-0.0030170863
-0.002657879
-0.0044854246
-0.0034448877
0.0012704849
0.0025099365
0.0014627851
3.8462685E-4
-0.002101793
-0.002682487
-0.001545422
-0.0017547571
-0.0018008746
-0.001109839
-7.471198E-4
-0.0024252117
-0.0043330966
-0.002851076
-4.978649E-4
0.0017215556
0.0022176667
-1.0152671E-4
0.0015185284
0.004989083
0.0046840324
0.003633431
0.0030974431
0.0035856178
0.0037978943
0.0024517523
0.0013771473
0.0014808684
0.0034440071
0.001800245
-0.0019650066
-9.1608614E-4
-0.002345529
-0.0041006277
-0.0023849942
-0.005488304
-0.0042593046
0.004607968
0.0064196214
0.0014020157
-0.0023854831
-0.0033177533
-0.00431504
-0.00438114
-7.993788E-4
-4.8862035E-5
-0.001587109
-3.422976E-4
-6.5054995E-4
-7.284744E-4
0.0025026205
0.0021124722
-0.0036474287
-0.005651252
-0.0012666862
2.576219E-4
-0.0021509568
-0.002002744
-6.2234764E-4
-2.2892006E-4
4.507187E-4
0.0010088715
1.4933701E-4
-1.3875069E-4
0.0014271379
0.0015805337
0.001160221
0.0018846209
0.0028335808
0.004519076
0.0042194915
0.0036507656
0.005925493
0.0069952398
0.007939802
0.008276044
0.004463439
7.869148E-4
-5.826693E-4
-0.0022637388
-0.0063446877
-0.009448333
-0.008043971
-0.0060050744
-0.0026824453
5.195337E-4
-6.972794E-4
-0.0013964623
-0.0015459118
-0.0019662424
-0.0010623906
-0.0021212755
-0.0029702606
-0.0031407825
-0.0034454274
-0.0027510074
-0.003925969
-0.0022111994
0.0014975879
-9.619149E-4
-0.0029207512
4.0433096E-4
0.0039157807
0.004770038
0.004194439
0.0035912257
0.0014546035
0.0019595176
0.0037586123
-8.216118E-4
-0.0031113154
3.939657E-4
8.926653E-5
-0.0011727785
0.003040926
0.008668312
0.0097373435
0.008408812
0.006211686
0.0018368189
0.0014675389
0.002495963
-0.0013971967
-0.0036505961
-0.004911668
-0.007462659
-0.006512453
-0.0048327665
-0.0035999129
-0.0018904372
-0.002270736
-0.0025909485
-0.0025467009
-0.00301083
-0.0021919152
-0.0018735017
-9.1264554E-4
0.0013263719
0.0010382758
4.5487555E-4
9.700726E-4
0.0012134166
0.0024632977
0.0027180712
0.0023730276
0.0028934202
0.0010459572
-0.0012119589
-6.1774853E-4
7.4531697E-4
5.9465395E-4
-5.6324014E-4
-0.0014262778
-0.0033648955
-0.0034601926
-1.539137E-4
-7.1514497E-4
-0.0026260442
-4.2344726E-4
5.5725174E-4
1.4464678E-4
0.0011493248
0.0021465796
0.0030926866
0.003996838
0.005654163
0.006827666
0.004912377
0.0029047118
0.0022400254
0.0015557456
0.002307754
0.001463256
-0.0020916008
-6.264734E-4
0.0022232758
-0.0013766552
-0.0040176627
-0.0042517143
-0.005838483
-0.0054785893
-0.0066334736
-0.007415761
-0.0024012534
2.1415102E-4
-8.3638536E-4
-5.8660115E-4
-2.7061405E-4
9.6630084E-4
0.0019617206
0.001660879
0.0015407797
4.2697953E-4
-3.030025E-4
2.3255665E-4
2.0819988E-4
-1.5909015E-4
-1.4498524E-4
3.2484994E-4
9.729142E-5
-4.7739895E-4
5.578092E-4
0.0021952651
0.002272597
7.864546E-4
5.424818E-4
0.0012294551
-4.960357E-4
-0.0014726612
-2.6143425E-5
-3.2526854E-4
-0.0014684789
-0.0022077318
-0.0024298688
-4.161781E-5
0.0019300196
0.0035357361
0.0076566134
0.007869253
0.003869048
0.0026823513
0.001928894
-8.375791E-4
-0.0034743913
-0.0035134326
-0.0013243203
-0.0030594852
-0.004609049
-0.0012087486
-0.0013095047
-0.0018256998
0.0010506928
4.897202E-4
-0.0010362469
-0.0024326954
-0.0038086132
-0.0017391369
0.0011961766
0.0040165763
0.0022167738
-0.0035808862
-0.0031737671
-7.4582675E-4
-7.453595E-4
-9.909356E-4
-0.002051893
1.6798846E-4
0.0039094677
0.0055778124
0.0046085776
0.0015497822
0.002810448
0.0018257636
-0.0037427824
-0.003351627
-0.003027308
-0.00299048
-1.4539012E-4
-0.0024608015
-0.003975742
-0.002264603
-0.002465125
-0.0021441062
-9.686959E-4
0.0022821906
0.0041703247
0.0028743732
0.003944167
0.003573521
0.0019164175
0.0020677703
2.7940053E-4
1.7868866E-4
0.0016759358
2.4164935E-4
-8.3955564E-4
-6.8419566E-4
4.250783E-4
0.0039341873
0.0067599425
0.006512533
0.0062558474
0.00625806
0.0020989967
-0.0037630035
-0.0069803237
-0.008945725
-0.00878403
-0.0072175683
-0.0063895285
-0.004605812
-0.003712924
-0.004020116
-0.0025057497
-1.3256246E-4
0.0017817476
0.0010878497
-5.3814983E-5
0.0032676868
0.00489637
0.0022081903
3.814562E-4
-0.001399636
-8.8193064E-4
0.0013269057
2.0153052E-4
9.246635E-5
1.9074735E-4
-0.001404159
1.9908443E-4
0.0013133701
0.0020741147
0.0051119737
0.004433066
0.002148911
0.0013182744
-6.2725507E-4
-0.0020235244
-0.002343262
-0.0021846644
-0.002944487
-0.0035973417
-3.1347416E-4
0.0019600706
0.0023865493
0.0051644696
0.0052325744
0.0040590116
0.0056660934
0.0052940617
0.003311475
3.22676E-4
-0.00431939
-0.0055611413
-0.0048803445
-0.005635506
-0.0046478687
-0.0035128326
-0.0037457286
-0.0020121702
-7.0280384E-4
-0.0017209873
-0.0017807881
-0.0014821594
-0.0020302478
-0.0011957042
0.0017869177