0.002668509
0.0027103296
0.0013109561
2.6045294E-4
0.002264965
0.0021679322
-0.0041992087
-0.008669759
-0.006983147
-0.0036817302
-0.0012108387
-0.0018023246
-0.0021891014
0.001062682
0.0024516261
0.001666077
9.233473E-4
-7.5514964E-4
-0.0011264548
-9.662651E-4
-0.0010297353
1.2095135E-4
8.070768E-4
0.0012403876
0.0014824022
0.0014366729
0.0017953777
8.750417E-4
-2.2925942E-5
-6.426098E-4
-0.0021990389
-0.0034659114
-0.0056345337
-0.005737351
-0.0022506583
-4.341664E-4
9.448781E-4
0.0024768466
0.002558752
0.003036026
0.0023911984
0.0021051602
0.0027697762
0.0018627612
0.003241912
0.004588399
0.0017799174
0.0012491255
0.0036209107
0.0035739066
0.0021951601
0.0013083469
2.1793418E-4
2.8255847E-4
0.0018769221
0.0017078462
-3.9298952E-4
-0.0029123412
-0.006630009
-0.008758775
-0.007876717
-0.007852477
-0.008168534
-0.006328223
-0.0028544005
0.0012863801
0.002732133
0.00179276
0.0020698428
0.0013965362
0.001130025
0.0024344516
0.0013943234
0.0017333074
0.002351428
3.210091E-5
7.88859E-4
0.0013508972
6.204809E-4
0.0030724162
0.0030556542
0.0019650094
0.0024070079
7.3633733E-4
7.0997856E-5
8.5599365E-4
1.9230391E-4
-0.0022180695
-0.0036061103
-9.7178045E-4
0.0022325877
0.0045749615
0.005198523
0.002302276
-7.2553975E-4
-0.002604889
-0.0022332778
-0.002124011
-0.0050216643
-0.0035839467
9.999914E-5
-4.3710956E-4
-7.5899326E-4
-5.76057E-4
-9.848898E-4
8.2643237E-4
0.0020240746
-2.702162E-4
-0.001301865
-4.6037044E-4
-0.0018264084
-0.002140969
-0.001979537
-0.0031411333
-0.002037652
-0.0015128053
-1.9149383E-4
0.0023492796
0.0013053416
0.002168909
0.0045276517
0.0049467795
0.0057585863
0.0049851816
0.0040892516
0.001043996
-0.0040335394
-0.0030347153
-0.0014311321
-0.0039500496
-0.0050819386
-0.0033111994
6.493576E-5
0.0023245087
0.0034314864
0.0036241994
0.0023551306
6.9616735E-4
-0.002004834
-0.001901009
-2.8682745E-5
-0.0016111205
-0.0015519912
-9.879515E-4
-0.0034447447
-0.0029752692
4.645888E-5
0.0015012053
9.1716624E-4
-3.788695E-4
-1.2390366E-4
2.6837032E-4
-1.7539415E-4
7.278621E-4
0.0015805792
-4.698543E-4
-0.0019445595
-4.093619E-4
-2.5486367E-4
3.175066E-4
0.004440332
0.0066065397
0.0053740246
0.0029873888
-5.719545E-4
-0.0025523822
-0.001063881
-1.58096E-4
-0.003184504
-0.0051005157
-0.0032215149
-0.0016274913
1.4434275E-4
8.5306045E-4
-5.1036826E-4
3.3748898E-4
-3.860988E-4
-0.0044398797
-0.005919622
-0.0044174306
-3.60564E-4
0.0032050959
0.0027470903
0.0025082265
0.0025177295
0.0019829753
0.0037566046
0.0032101707
2.4928426E-4
0.0016970056
0.0040615182
0.0030219555
0.0028244634
0.0049083764
0.0062292223
0.004743062
0.0011826055
-0.0025396098
-0.0072580753
-0.011231351
-0.010508032
-0.0078585325
-0.0047277072
-5.9553277E-4
-8.163022E-4
-0.0043927436
-0.0040685767
-4.8411582E-4
0.0011388181
0.0012844031
0.003997003
0.0041473294
-8.801507E-4
1.5090681E-4
0.005424557
0.004958857
0.0039799907
0.0048461016
0.0032308022
4.4114442E-4
1.7371614E-5
0.0031440046
0.0044668275
0.0020913077
0.0014893728
0.0015423787
-5.753496E-4
-0.0027763606
-0.0041029663
-0.0055180634
-0.006496562
-0.0049727326
-0.003151389
-0.0030333619
-0.0019545977
-6.069291E-4
-2.4166748E-4
2.7150655E-4
4.7221233E-4
2.281371E-4
-2.424039E-5
9.192852E-5
0.0018199214
0.0050166524
0.004362962
-2.5246857E-4
6.4922153E-4
0.0031570764
-7.5943157E-4
-0.0028813207
-0.0015165212
-7.346355E-4
0.0011767554
7.618022E-4
-0.0011627265
-0.0013605915
-0.0025557098
-0.0021763693
2.5109493E-4
0.001024283
0.0019623803
0.002850132
0.0017782211
1.1348952E-5
-8.6917746E-4
0.0011394871
0.0041412083
0.0029538942
-7.472811E-4
-3.6873497E-4
0.0023514412
3.4337008E-4
-0.0031849637
-0.002566568
-0.0010356589
-7.371985E-4
-7.630904E-4
-3.969234E-4
5.7313277E-4
5.263005E-4
9.4548566E-4
0.0010523784
-0.0027540748
-0.0060119843
-0.0050213817
-0.0020741492
2.978395E-4
-1.5471214E-4
-0.001302353
-7.937342E-5
0.0031881516
0.0055694943
0.0036791775
9.406331E-4
-2.6961317E-4
-0.0011121383
-1.8149217E-4
-0.0012782775
-0.0032962312
-2.3513734E-4
0.002363362
0.0023383433
0.0027124789
0.0013052154
4.4127752E-4
0.0011202786
-4.9819774E-4
-0.0015558337
1.1237646E-4
2.92479E-4
-2.5471507E-4
7.725843E-4
1.9119198E-4
-0.001064434
-4.050693E-4
8.4354647E-4
0.0019343309
5.1512534E-4
-0.0021219542
-0.0026584049
-0.0034031102
-0.0029447295
-0.0013511234
-0.0021074815
-0.0014245084
0.0010783072
0.002489721
0.0032502636
0.0016351038
-2.3866289E-4
-1.4785922E-4
-0.0015964507
-0.002296926
4.0067354E-4
0.0011057145
2.416938E-5
0.0015821666
0.0027426942
0.0031269207
0.0052301693
0.0057524666
0.0041247522
7.287517E-4
-0.0037957719
-0.004239574
-0.003082057
-0.0033926028
-0.0014622973
-5.2488834E-4
-0.0019256324
-0.0019602985
-0.0022452716
-0.0019514961
-0.0010071284
-0.0023806538
-0.0032603012
-0.0031391967
-0.0033935728
-9.6557866E-4
0.0027491366
0.0044050347
0.0046959775
0.0033524677
0.0010810731
8.1848307E-4
0.0010592927
4.071485E-4
0.001816169
0.0024897559
6.378927E-4
0.0011594587
0.0019078534
0.0026255634
0.005486723
0.0047078817
0.0024429848
0.0011680255
-0.003077371
-0.0062817624
-0.0066989996
-0.0049155024
-0.0011972256
-4.2123298E-4
-0.0017207185
-0.0027630378
-0.0024429562
-4.1896876E-4
-2.2399909E-4
-7.3789654E-4
-0.001901812
-0.0034852556
-0.002969372
-0.0036479037
-0.0022334273
0.0028061469
0.003687499
0.0012028089
-9.0993405E-4
-6.461696E-4
0.0026751503
0.005765837
0.0078177815
0.008134372
0.0069561503
0.0045036417
1.7409136E-4
-0.0016887595
-0.001137563
-5.5545097E-4
5.0500996E-4
-1.5626947E-4
-5.2900476E-5
0.0014241374
-5.775813E-4
-0.002563593
-0.002041785
-0.0037389076
-0.007112721
-0.007459431
-0.004295597
-0.00201673
-0.0036546956
-0.0055691786
-0.0046814387
-0.0028125576
-1.15799434E-4
0.0016737573
0.0018576286
0.0046974123
0.007340434
0.0066975933
0.005686066
0.005006676
0.005330493
0.0039599785
9.858299E-4
-2.7897616E-4
-0.0030941162
-0.004478338
-0.0026872114
-0.0012115497
0.0016603263
8.114102E-4
-0.0024772054
-0.0013360966
-9.443469E-4
-0.0010382355
-7.519774E-4
-0.002175492
-0.0021296619
-0.002817114
-0.003786965
-0.0017658168
0.0018915322
0.004849779
0.00407381
0.0029333304
0.0033856912
0.003035898
0.0026090937
2.7117942E-4
-8.947263E-4
0.0010241929
-8.959953E-5
-0.0033234784
-0.00471946
-0.0030330345
-0.0017537049
-0.002848621
-0.0014001151
-0.0010705914
-0.0022665078
-3.3052E-4
5.298488E-4
0.0024971939
0.0046929675
0.0025980817
0.0027686602
0.0052262926
0.0059582405
0.004110406
-5.7116494E-4
-0.0038716146
-0.0048541804
-0.0038360578
-0.003230186
-0.005380292
-0.004830117
-0.0030259402
-0.0029514967
-0.0021534848
-6.9529953E-4
0.0023300096
0.0014096817
-0.003343211
-0.0017096411
0.001424519
0.0011806781
4.366139E-4
-0.0014019506
2.5649098E-4
0.0036483968
0.003726898
0.005788702
0.009266577
0.010713739
0.01192503
0.010706607
0.005772867
0.0017721064
0.0012105892
-4.7099608E-4
-0.0069502476
-0.012466256
-0.010852037
-0.0064548594
-0.0055762837
-0.006665063
-0.007138306
-0.0066002025
-0.004038188
-0.0013018477
-1.488588E-4
3.950369E-4
8.2351785E-4
0.0021435323
0.0032368961
7.8225724E-4
-0.004154608
-0.0061108954
-0.0038548857
-0.002092301
-6.064908E-4
0.001760447
0.0025974843
0.0046023903
0.006135361
0.004550946
0.006013064
0.0075217546
0.004152497
0.0019359781
0.002695851
0.003991595
0.0038578312
0.0015446463
-4.098138E-4
-9.5298025E-4
4.2303008E-4
0.0031322532
0.004820998
0.0047364957
0.0024858085
-0.0010658422
-0.004554778
-0.006307202
-0.006304641
-0.007047507
-0.006456567
-0.0050998456
-0.0071505764
-0.009047134
-0.0071047647
-0.0038184428
-0.0033409258
-0.0038710732
-0.0015419612
-5.678227E-4
-7.003893E-4
0.0015553011
0.0034774218
0.0050325394
0.0059876395
0.007137215
0.008787784
0.0073921527
0.0067113116
0.0072423564
0.0055721384
0.0040478227
0.001724778
-6.727059E-4
-0.002569902
-0.0050360193
-0.0054313326
-0.0051042945
-0.0016657986
0.003797837
0.0029233305
7.380332E-4
3.9916055E-4
-5.0303905E-4
8.0554666E-5
-0.0015606375
-0.0036768068
-0.0027260522
-0.0021173502
-0.0011740185
-0.0020951289
-0.0050271046
-0.004981514
-0.004239539
-0.004697349
-0.004469047
-0.00141222
0.0028825474
0.0015955868
-0.0023731855
-0.0012960965
0.001304391
0.0013580531
0.0016942336
0.0023889428
0.0020716107
0.0030449694
0.0034295195
0.002228831
0.0046084397
0.007898777
0.008873426
0.010213188
0.010071965
0.010068257
0.01043254
0.005167584
-0.0011582392
-0.0047918456
-0.009894784
-0.013123636
-0.0143102845
-0.017373903
-0.015914246
-0.009558455
-0.0058200336
-0.003085122
-5.6721224E-4
8.9326187E-4
0.0029990878
0.0015170467
-0.002254381
-0.0018285929
0.0014422538
0.0036450627
0.002097193
-2.8821969E-5
8.012322E-4
0.0034272147
0.009329381
0.012925799
0.012069397
0.013185715
0.008493925
-0.0015315112
-0.004560616
-0.0040927925
-0.004430139
-0.0056064883
-0.0059695565
-0.0020128647
2.6478086E-4
-4.9648446E-4
-0.0010346171
-0.0029840574
-0.0029313716
-9.950491E-4
8.8665845E-5
0.0013943348
6.491683E-4
-4.3051882E-4
6.9053675E-4
5.0701207E-4
-0.0014862125
-0.002076238
2.0902051E-4
0.0018073376
0.0010022472
0.0021774347
0.0043597487
0.0031831018
-3.360289E-4
-0.003158072
-0.0038162842
-0.0033023318
-0.0019056427
-1.094522E-4
-8.4424875E-4
-0.0023957624
-0.0021291461
-0.00268103
-0.0035227686
-0.0027806945
-0.0013834463
0.0012809243
0.0025268833
5.511159E-4
9.371753E-4
0.0031635968
0.00285436
0.0025272227
0.0026240346
0.0019062646
0.0014703578
4.2615985E-4
-8.4164605E-4
-0.0011414017
-2.5868308E-4
0.0023261616
0.0043407916
0.0039510154
0.0036592814
0.0040026237
0.0017117801
-0.0010906198
-7.8007043E-4
-0.0017969704
-0.0034999554
-0.0015718883
-0.0010008008
-0.0018951665
-0.0015401818
-0.003413068
-0.0050958185
-0.004053244
-0.0029281003
-0.0026053395
-0.0028263782
-0.0014473178
0.0016012735
0.0037169717
0.0037274791
9.3081756E-4
-0.0021416578
-0.0029149263
-0.0020414034
1.317736E-4
0.0024710668
0.0027250515
6.666124E-4
5.4883375E-4
0.0025787945
0.0014741501
-2.7927282E-4
-2.336421E-4
-8.1711175E-4
-2.6726516E-4
0.0021330805
0.0051032635
0.0062526823
0.003978113
9.249138E-4
-0.0015813425
-8.8532624E-4
3.060201E-4
-0.004348112
-0.0066294707
-0.0024405317
1.3721293E-4
1.0695976E-4
-4.0027915E-4
-1.3964527E-4
2.5825411E-5
-0.0014233416
-0.0012673705
-1.8548411E-4
-1.379076E-4
-4.0875256E-4
-0.0017258936
-0.0012984944
0.0013199147
0.0024218692
0.0025238213
0.0012918408
-0.0018988169
-0.003940875
-0.0029508555
-5.2263724E-5
0.0023372343
0.0039739977
0.0051263194
0.004455251
0.0031371606
0.001633042
-0.0015631118
-0.0052568014
-0.0069977813
-0.0044724797
3.2967975E-4
0.0016540152
5.6209444E-4
0.0013617096
0.0032773628
0.005025809
0.0045940946
-4.300918E-4
-0.004728122
-0.0040491037
-0.0031973566
-0.002805481
-0.0012445968
-8.692834E-4
9.964512E-6
0.0013455424
0.0012726238
0.0012951762
-4.1773576E-5
-0.0010834468
2.677824E-4
1.5319773E-4
-1.9576105E-4
0.0012494168
0.0017589323
5.11937E-4
-9.961391E-4
-9.773645E-4
-4.3339474E-4
7.1260415E-4
0.002919078
0.0031488684
0.002504645
0.0026147675
0.0023906657
9.0800656E-4
-0.0013497275
-8.431264E-4
-7.638282E-4
-0.0021484124
-0.0015234986
-0.0057745175
-0.009568226
-0.0031453634
0.002010522
0.0019158272
0.0033064575
0.005600307
0.0064905565
0.0035677734
-0.0012409063
-0.0039885505
-0.0060842726
-0.009145874
-0.009844274
-0.0060541295
-0.0030244607
-0.0011757086
0.0017487993
0.0030648832
0.006175838
0.008726376
0.005835275
0.0051752203
0.005976462
0.003731673
0.0014732041
-0.0018104422
-0.0043992954
-0.003810776
-0.0023567055
-0.0010796074
0.00115158
0.0065209195
0.010200896
0.009023573
0.0074844314
7.174318E-4
-0.009701475
-0.011294386
-0.009245446
-0.01050935
-0.009302642
-0.0068073645
-0.0061314194
-0.0051540555
-0.004161487
-0.0021494066
1.6219006E-4
-0.0011199444
-0.002420379
-4.0066795E-4
0.0016649291
0.002517614
0.0021276143
0.0025093444
0.004381769
0.003463019
0.003165768
0.005877044
0.0048529203
0.0020085033
3.8863058E-4
-0.001515508
-5.3860515E-4
5.8458163E-4
2.7831516E-4
0.0027481972
0.00463919
0.0041324976
0.0026337043
0.0024045259
0.004157168
0.0015998324
-0.001009037
0.0010217108
0.002578963
0.004035002
0.0025978722
5.040941E-4
0.0023828514
0.001869418
0.0013298957
0.0010209552
-0.0030918508
-0.0056806216
-0.0075744647
-0.008658637
-0.0070878062
-0.0063557
-0.0072962414
-0.011493217
-0.014042206
-0.011859826
-0.012582413
-0.015195998
-0.015304856
-0.013409171
-0.010378417
-0.007625591
-0.005198883
-0.003926871
-0.0048975046
-0.008162159
-0.0099344775
-0.003744841
0.010111457
0.024500158
0.033153806
0.040665258
0.0516403
0.052936602
0.034021698
0.014427576
0.02248212
0.042567525
0.03598746
0.005684572
-0.01395779
-0.003227282
0.01078149
-0.004691086
-0.021542951
-0.007983913
0.0179671
0.02879982
0.02007882
0.0032089916
-0.023696383
-0.058430653
-0.075420074
-0.06478929
-0.04561802
-0.03265385
-0.023675684
-0.029794896
-0.053203322
-0.06794753
-0.0747219
-0.06952129
-0.039546195
-0.01371001
0.018451959
0.090662494
0.1560614
0.16627698
0.14646082
0.114778146
0.04989633
-0.03856576
-0.12235299
-0.18523744
-0.1812408
-0.107549965
-0.03371089
0.026454095
0.09571093
0.16504882
0.19121735
0.116715044
0.033138834
0.073017135
0.11626726
0.050351653
-0.030109381
-0.075784996
-0.11339341
-0.16823117
-0.20301788
-0.1512223
-0.060128577
0.07587113
0.25392658
0.30819014
0.23330052
0.15498652
0.096221425
-0.01570415
-0.24494046
-0.411731
-0.4086434
-0.40069795
-0.33971292
-0.14531352
0.022393929
0.111250676
0.17903972
0.2294771
0.23903881
0.19370133
0.14303519
0.13182408
0.093475364
-0.025142666
-0.113965414
-0.10037294
-0.063502885
-0.032978807
0.010834355
0.083295055
0.17007154
0.21581835
0.25370604
0.2587868
0.16394234
0.07636634
-0.01433669
-0.18813346
-0.31295
-0.3455592
-0.33239704
-0.23629023
-0.107489325
-0.0047911443
0.083582215
0.12325791
0.06971885
-0.03124282
-0.04321435
0.010448224
-0.021057775
-0.04825055
-0.027674032
-0.100289255
-0.1504047
-0.07735363
-0.012454661
0.048485026
0.12496148
0.1536556
0.19882315
0.28306165
0.27182958
0.13832548
-0.015354793
-0.13285467
-0.116842434
0.03186742
0.09094155
0.043770794
0.035078477
0.048927855
0.06463641
0.03317629
-0.074653655
-0.1462148
-0.16428848
-0.14741611
-0.09186095
-0.088127315
-0.11888496
-0.11838229
-0.10949471
-0.07410388
-0.051342502
-0.069736585
-0.031608623
0.077767715
0.21015908
0.27688968
0.20176269
0.10597384
0.017129747
-0.13376907
-0.19485672
-0.09435225
0.05962803
0.21044938
0.2627669
0.14497544
0.0017363676
-0.03619134
-0.083161265
-0.17877159
-0.19235657
-0.123051375
-0.011155136
0.081046894
0.07849154
0.047304075
-0.043490633
-0.19590493
-0.23095876
-0.12667602
0.055454634
0.21539497
0.26129505
0.27781615
0.19333273
-0.048148643
-0.16945156
-0.08764841
-0.0061199144
0.018064158
0.051700234
0.06807498
0.007323172
-0.03939746
0.0024211633
0.0056245
-0.07860151
-0.12604421
-0.11998958
-0.11471633
-0.06911398
0.009421516
0.041444395
0.02049832
-0.02665756
-0.058808696
-0.03552371
-0.006608861
0.009962907
0.056763355
0.07406234
0.04830227
0.055400606
0.06477149
0.07866531
0.09627843
0.016624307
-0.04987537
0.0071811625
0.034005534
6.949695E-4
-0.011474441
-0.012504115
0.012607081
0.054060414
0.04625262
-0.023012694
-0.08542145
-0.08808225
-0.061869472
-0.031922463
-0.009529886
-7.6250394E-4
0.013994506
0.019220755
0.012162656
-0.009302799
-0.061609473
-0.08091267
-0.04610958
-0.018020133
-7.0762646E-4
0.018605119
0.03775745
0.055510633
0.047790334
0.01681283
-0.0054949876
-0.011758154
-0.006712049
0.0033773722
0.016139416
0.037331
0.045055315
0.02808196
0.01804182
0.027289303
0.0396767
0.017299967
-0.0491648
-0.088727415
-0.06823077
-0.032571908
-0.009658619
0.0062464634
0.012790922
-0.01087071
-0.034542385
-0.020644724
-0.0037953006
0.0141350785
0.043221805
0.045588866
0.022192104
-0.009050475
-0.038293604
-0.0455617
-0.01697281
0.046458926
0.102604926
0.12648176
0.10680707
0.016465764
-0.05644331
-0.030931158
-0.0032685283
-0.026874123
-0.03604405
-0.021758158
-0.032568146
-0.063061714
-0.06834069
-0.055041146
-0.04430807
-0.02606683
-0.006480738
0.0055403765
0.009684524
0.005132384
0.00785077
0.01812476
0.019581743
0.023261808
0.03723454
0.041508485
0.037720356
0.041098367
0.045862556
0.053028055
0.049388055
0.015229777
-0.021486616
-0.03757244
-0.034825373
-0.021969672
-0.021457724
-0.025721852
-0.021661242
-0.019256668
-0.01779117
-0.01942379
-0.019437147
-0.011653139
-0.009853056
-0.011830955
-0.010218423
-0.008831756
-0.007831184
-0.008422236
-0.008146927
-0.007581088
-0.0078615835
-9.869239E-4
0.0117621785
0.02345587
0.032455713
0.042912155
0.056118544
0.05148253
0.03277165
0.039603174
0.049133837
0.013105586
-0.036497265
-0.05931107
-0.06099378
-0.053122062
-0.035321455
0.0026430804
0.036740337
0.04266881
0.04903697
0.058918104
0.04611649
8.326562E-4
-0.063909516
-0.09500104
-0.08069126
-0.059910562
-0.035561696
-0.0135801425
-0.008909891
-0.007950424
-0.0010326422
0.005564933
0.00527476
0.006068224
0.013419919
0.020710437
0.02443179
0.016525598
0.0074018203
0.012955633
0.015324649
0.0046993
-0.003553478
0.0026154136
0.014134542
0.01731352
0.021869898
0.02551563
0.0204097
0.019697832
0.016390903
0.0012286197
-0.012042534
-0.015172171
-0.012120818
-0.011694319
-0.012069331
-0.00996684
-0.012258163
-0.016653206
-0.018563127
-0.01781532
-0.015331002
-0.014504747
-0.0124390535
-0.008439925
-0.0047510657
-1.4542739E-4
0.001197195
8.7503257E-4
0.00587971
0.010553012
0.009475896
0.0070915264
0.0035460596
0.0015420753
0.0062172185
0.006479002
0.0015026083
0.0043474
0.0051197386
-2.4467005E-5
0.0025479062
0.006837469
0.0032990575
-0.0031140416
-0.0030927272
0.0021575266
-0.0025540767
-0.012078551
-0.012281682
-0.012180466
-0.012196304
-0.006512583
-0.0039463
-0.0053128866
-0.0061760587
-0.00591735
-0.0033620072
-1.7551323E-4
0.0029494008
0.00430549
0.0046663373
0.008675782
0.013513704
0.015951112
0.014526934
0.010277679
0.008145922
0.0040877042
-6.186991E-4
5.052466E-4
1.14812814E-4
-7.820027E-4
0.002839336
1.08367654E-4
-0.0071653742
-0.005844545
-0.0030979195
-0.008196335
-0.011721704
-0.009914653
-0.009775556
-0.009606576
-0.0073466217
-0.0055181324
-0.0033220083
-0.0015791839
-1.9742374E-4
0.0022430015
0.0029229329
0.0025496306
0.0038927093
0.0037544388
0.001702677
0.0021932875
0.004297769
0.0053093955
0.005135592
0.0041390443
0.005526595
0.008290403
0.0074666617
0.004575343
0.0024658118
0.0016930175
5.02927E-4
-0.0031717005
-0.0049368977
-0.0021800837
1.6022084E-4
-0.0012772462
-0.0032650502
-0.0025045567
-0.0015077564
-0.0014742432
-0.001494696
-0.0018030208
-9.1497647E-4
-6.7718625E-5
-8.927011E-4
-0.0019416785
-0.0023795045
-0.0014874827
-0.001093646
-0.001886004
-0.0017912136
-0.0014103369
-3.0849964E-4
3.3522965E-4
-0.0016943128
-0.0031030974
-0.0027010771
-0.0026608182
-0.0024179409
-4.3342522E-4
0.001609205
0.0012447694
0.0014102961
0.0029951741
0.0020697578
8.960444E-4
0.0033588354
0.005086458
0.0020918327
6.998309E-4
0.0036415565
0.0033234104
0.0010389677
0.0012876254
6.606614E-4
-3.3635046E-5
1.4441145E-4
6.772676E-4
0.002895845
0.0038150998
0.0035541833
0.0014813073
-0.0041526663
-0.005138982
-0.0026794146
-0.0057808096
-0.009377789
-0.007903249
-0.0037460297
-8.352241E-4
-5.749225E-4
0.00107536
0.0028375236
5.394019E-4
-0.0013175467
1.7023025E-4
0.0019906817
0.003013017
0.0034906776
0.003990183
0.0036638612
-3.707556E-4
-0.005037511
-0.0057456866
-0.0055035497
-0.0043217484
-0.0012585053
-4.8347635E-4
4.2653308E-4
0.001007252
-0.0020706998
-0.0022262284
-7.477481E-4
-0.0012107487
2.1635962E-4
4.5381088E-4
4.6785438E-4
0.0011353048
-0.0012594238
-3.2141613E-4
0.002078794
5.756872E-4
0.0016104552
0.003536214
0.0031341326
0.003499379
0.0032277398
0.0020089482
0.0011617857
-6.3374586E-4
-0.0039052858
-0.0050925715
-0.002373512
-0.0014879045
-0.0038099743
-0.0034446805
-2.5119705E-4
-1.1972571E-4
-0.0033398194
-0.0038222484
-0.0020701038
-0.0014286465
-2.4352864E-4
6.200816E-5
-8.4539613E-4
4.252719E-4
0.0023727817
0.0019847022
1.9469389E-4
-2.6363072E-5
0.0010184827
8.551711E-4
7.0502015E-4
6.1980524E-4
-0.001044154
-0.0014338964
-1.6669362E-4
-0.0012055695
-0.002140092
-5.2029213E-6
4.0995245E-4
-0.0019397606
-0.0022255788
6.475452E-4
0.0029724434
0.002342652
0.0025104678
0.0037112238
0.0031695294
0.0038879404
0.0035859926
6.123813E-4
-8.728724E-4
-0.003399185
-0.0048045935
-0.0013991941
6.539948E-4
0.0016593526
0.004069268
0.004107734
0.0036331983
0.0046094144
0.0026002403
-0.0019845043
-0.0051226174
-0.007549675
-0.008349876
-0.006275163
-0.003971207
-0.002007208
-0.0020197313
-0.0026941246
-1.2603597E-5
0.0019131841
0.0029891892
0.005009029
0.0040737656
0.0036652226
0.003915663
5.914135E-4
-6.8446103E-4
0.0010562954
3.0628598E-4
-0.0025784143
-0.0037540817
-9.4101304E-4
0.0019932478
0.0028664279
0.005394139
0.0069744266
0.006003521
0.006319927
0.004440537
3.6486235E-4
2.5784248E-5
-1.7022502E-4
-0.003248189
-0.0061277226
-0.007242341
-0.005477791
-0.0040521254
-0.004856441
-0.0024569372
0.0017070464
0.0025147265
0.0030641928
0.0033399805
7.986761E-4
3.8533815E-4
0.0013282353
-0.0012350804
-0.004353362
-0.007526576
-0.009597192
-0.007340454
-0.0041510276
-0.0011919988
0.001356355
0.003622747
0.0070958235
0.0087048765
0.009213089
0.00777265
0.003846946
0.0035481858
0.0026940976
-0.0014423965
-0.0043750806
-0.0062402533
-0.003566511
0.0024481758
0.0054712635
0.00599947
0.006945768
0.00848011
0.0056550046
9.094803E-4
2.2872919E-4
-0.002246229
-0.0074427477
-0.009074031
-0.0073938565
-0.006276109
-0.0057004727
-0.0023726202
8.265578E-5
-3.849469E-4
2.2793612E-4
5.0532084E-4
-4.7974748E-4
-0.0017808528
-0.0012772303
3.514013E-4
-0.002514682
-0.0036886095
7.1995007E-4
0.0027319556
0.0026958594
0.0030959684
0.0037292906
0.00369672
0.0015881516
0.0015861943
0.0022259913
-6.4977816E-5
-6.062039E-4
0.0012465636
0.002657345
0.0030760632
0.0022817168
0.0013967913
6.6423503E-4
-2.311568E-4
1.1678297E-4
2.4145785E-4
-0.0026032734
-0.0046188314
-0.0031605416
-0.0011588858
1.2186545E-4
-0.001742134
-0.004193403
-0.0016152348
8.3111215E-4
8.558205E-4
0.0012275119
4.576709E-4
9.617321E-4
0.0022739973
-3.4969542E-4
-0.0035978649
-0.003959436
-0.0028768342
0.0010600144
0.0058008926
0.005105516
0.0025386016
0.0015909431
0.0010819222
0.003934948
0.004284351
1.9767792E-4
5.053411E-4
2.9253386E-5
-0.0033817503
-0.0028623366
-0.0015637075
-0.0012511011
-4.69858E-4
0.0013740694
0.0035209034
0.0019679405
-2.4698285E-4
-3.5562698E-4
-0.0018938568
-0.0042859665
-0.0039800894
-9.6939557E-4
-9.3245343E-4
-0.0038820228
-0.0044659628
-0.004426963
-0.0029064321
0.0010667235
0.0030149147
0.0035771849
0.004031555
0.005016534
0.006021526
0.004345771
0.0031046178
0.0018041257
-0.001648562
-0.0016599342
3.5367763E-4
2.1482621E-5
-3.823877E-5
2.2966335E-4
6.5460896E-5
6.394579E-4
6.908738E-4
-7.837505E-4
-0.0026711833
-0.00286976
-7.97545E-4
4.163539E-4
-0.0010724938
-0.002196289
-0.0014142366
-5.047026E-4
8.4520824E-4
5.268886E-4
-0.003414033
-0.003145583
0.0028052954
0.0043081823
0.0018687812
0.0020598092
0.0035364705
0.003131777
0.001274503
3.8440584E-4
-0.0012888205
-0.0045139417
-0.004455296
-0.001575979
0.0013842828
0.0022165347
-0.0016748091
-0.0053479928
-0.0049679256
-0.0027088453
-0.0011047407
-7.402235E-4
5.604302E-4
5.76567E-4
-3.2668E-4
0.001470584
0.003892938
0.0073179114
0.008163019
0.0046283836
0.0032434373
0.001948984
0.00170818
0.0023287728
-0.0030903707
-0.006487792
-0.0030012156
0.0012253459
0.0019079134
-0.0025975367
-0.004566029
-0.0033060787
-0.004274322
-0.002171636
0.0018743561
0.002679133
0.0027155515
0.0020484037
-0.0014415237
-0.0039807684
-0.0018152233
-4.5558485E-5
-1.6198197E-4
0.0012365048
0.0020189984
0.0029855634
0.003352909
8.1462844E-4
6.3780615E-5
7.7119075E-5
-0.002107646
-0.0022988506
7.4199605E-5
6.7661837E-4
-4.916223E-4
-5.030455E-4
-3.0733125E-5
5.6479935E-4
-2.592957E-4
-0.0027483145
-5.5545854E-4
0.0029950063
0.0013407151
-0.0012876785
-0.0020297158
-8.1529276E-4
-2.1850404E-4
-4.7897428E-4
0.001344306
0.0014991526
0.001714451
0.0032875664
0.0015860915
4.8578694E-4
7.8227196E-4
7.4502174E-4
0.0014397172
8.641402E-4
-5.444199E-4
-0.0029046799
-0.003340772
-8.1723067E-4
-1.3754649E-4
0.0030256475
0.00598667
0.002137711
-2.5887822E-4
-3.917963E-4
-0.0011629375
0.0015437527
0.0019197866
-0.004667759
-0.0068908273
2.0896875E-6
0.0023973433
-0.0021495982
-0.0026053223
-0.0015171272
-0.003465042
-0.0051337895
-0.0051826243
-0.003395319
-0.0020280797
-0.0011903116
0.0013219902
0.0029514097
0.0031721387
0.00447337
0.006371589
0.0059142127
0.0032605117
3.336449E-4
-0.0036421753
-0.0038544086
6.106016E-4
5.399868E-4
-5.5523997E-4
0.0030637064
0.0048541687
0.0034710402
0.0011507551
-3.8069737E-4
0.0016184534
0.0032954803
0.0026852349
0.0023046879
4.6217418E-5
-0.0032541635
-0.003841872
-0.002440315
-0.0010093391
-0.002546347
-0.0044063884
-0.0013337736
0.0010617941
6.6037517E-4
0.0011172398
-1.987032E-5
-0.002250033
-0.0037524062
-0.0033352918
-0.0010527056
-0.0014987802
-0.0019228812
-5.7348853E-4
-0.0011577718
-0.002542947
-0.0040939897
-0.002269457
0.0015808635
0.0015509527
0.0024059871
0.0033335725
0.0020907929
0.0023991659
0.0016204653
0.0011521432
0.001792418
0.0016840383
0.0035654188
0.0043607326
0.0036593499
0.004078846
0.0036200555
0.0033484523
0.0025765635
4.7937858E-5
-0.0014099162
-9.834481E-4
-1.9773102E-4
-5.110725E-4
-0.0015613226
-0.0021497407
-0.00204155
-0.0028805227
-0.0053048767
-0.006102182
-0.0035894902
-3.4781187E-4
-0.0020400176
-0.0057462044
-0.0038475685
-0.0038570226
-0.005587279
-7.4626727E-4
0.0019141902
7.3601323E-4
0.0012593162
0.0026213306
0.0049115634
0.004416846
0.0041940003
0.005754803
0.0019467492
-0.0015522089
-5.96942E-4
0.0013070197
0.0033628948
0.0040756403
0.005453123
0.004750511
-1.4784503E-4
-0.0031496563
-0.004662646
-0.004498367
-0.0013782034
4.8611613E-4
5.289307E-4
-8.279777E-4
-0.0021938372
-0.0014214953
-5.209863E-4
-6.317882E-4
-0.0012220205
-0.0014107681
-4.0253054E-4
0.0016201785
0.0029835901
0.0019840715
0.0011254327
7.3834206E-4
-0.0011925775
-0.0021109257
-6.281703E-4
0.0018401481
0.0019260261
-0.0022992915
-0.005858542
-0.005316461
-0.0019548605
0.0012752324
8.432671E-4
-8.838213E-4
2.1494961E-4
0.001815073
0.0011853185
6.435678E-4
0.0011872202
5.13479E-4