-8.806145E-4
8.712532E-5
0.0017510514
0.0011917326
-8.207884E-4
-6.4728974E-4
-6.710303E-4
-5.26544E-4
-2.976978E-4
-0.0016939994
-0.0011616183
7.017082E-4
9.793335E-4
0.001274484
0.0019005013
0.0015272422
1.3217414E-4
-1.1021612E-4
7.847683E-4
5.70663E-5
5.2930816E-5
0.001389646
7.625956E-4
5.727757E-4
0.0011161877
4.807365E-4
-1.7957803E-4
-0.0019336536
-0.002290615
-9.037953E-4
-0.0021914144
-0.0029337506
-0.002772571
-0.0027982884
-8.3527167E-4
-0.0019555115
-0.003598566
-4.058309E-4
9.4182044E-4
-2.2706168E-4
-1.0393029E-4
0.001170984
0.003045552
0.0024356877
1.9048918E-4
-6.3805253E-4
-0.0014128806
-0.00200978
-7.6189736E-4
0.0010911387
0.0031660644
0.0059160446
0.0056695244
0.0034201008
0.0028535475
0.0018595967
0.0029880023
0.003520847
-0.0018112392
-0.0037426152
-0.0030720308
-0.004689802
-0.0021083797
4.0555035E-4
1.00061225E-4
0.0011432432
3.42598E-4
-0.002410496
-0.0045693927
-0.0040296013
-0.001478869
-0.0016169453
-0.0020634844
-5.980582E-4
-3.6502111E-4
-0.0010970848
-5.2748376E-4
2.7318017E-4
-4.0536764E-4
7.044076E-4
0.0025439742
0.0011321653
2.6753856E-4
0.0012298657
0.003495728
0.0057369247
0.0030097642
-2.369474E-4
1.5363333E-4
8.348009E-4
0.0023779129
0.003524119
0.0015906668
-7.859192E-4
-0.0013944568
-7.926912E-4
0.0011109686
0.0025966498
-1.9233514E-4
-0.0029068154
-9.496669E-4
5.775695E-4
5.607913E-4
4.9849245E-4
-1.0112397E-4
-1.8559041E-4
-0.0023137461
-0.0048865397
-0.0035824098
-0.0027010494
-0.0033196486
-0.0013261542
0.0010205384
7.3482166E-4
6.855761E-4
0.0015296248
0.0011646498
0.0015854251
0.0019703917
4.0665144E-4
-5.1832566E-4
-0.0015665463
-0.001727831
2.2187315E-4
2.9141217E-4
5.29616E-4
7.364579E-4
-0.0019708243
-0.0016123827
0.001128063
0.0015437277
0.0017214247
4.8688287E-4
-6.98033E-4
0.0019501221
0.003129642
-9.155758E-5
-0.0026619323
-0.0030243215
-0.0031620297
-0.0021993075
3.630775E-4
0.0028971569
0.004251764
0.0032863936
0.002558972
0.003691601
0.0027120863
0.001225937
8.0843375E-4
-6.490517E-4
5.750256E-5
0.0016511063
0.001496609
1.2387354E-4
-0.004360988
-0.0062955096
-0.004020463
-0.0034769017
-0.0024939135
-0.0021809514
-0.002491043
-3.6840313E-4
-8.526209E-4
-0.0013259774
8.2566304E-4
6.886572E-4
4.4473022E-4
1.5406898E-4
-0.0014155245
-0.0013342277
-3.6009602E-4
7.792069E-4
0.0014557159
0.0016235436
0.002249277
0.0018551417
0.0019181208
0.0028379373
0.0017881627
0.0012001469
0.002594334
0.0027954874
0.0019143791
8.433081E-4
-9.53092E-4
-9.146911E-4
4.2688215E-4
-9.3141606E-4
-0.0030386872
-0.002888218
-0.001593967
-7.8668015E-4
-9.5133885E-4
-0.001358307
-9.996683E-4
5.3095445E-4
6.660577E-4
-9.964729E-4
-0.001267458
-0.0013223005
-2.967912E-4
0.001910759
3.492446E-4
-0.0013832265
1.522967E-4
8.411585E-4
9.902682E-6
2.4027775E-5
0.0016971178
0.0010168653
-0.0018714583
-8.7739696E-4
9.824713E-4
6.6828384E-4
9.429447E-4
0.0011901289
0.0012473876
4.99399E-4
-0.0016238324
-0.0029114308
-0.0026929781
-0.0013672453
5.173563E-4
0.0018497319
7.227304E-4
-0.0011791927
1.6398524E-4
4.96224E-4
-0.0015462075
3.0011684E-4
0.0027682292
0.0010916111
-3.6815932E-4
0.0015152607
0.004250364
0.003241926
1.0442643E-4
0.0014902999
0.003811908
-2.9073039E-5
-0.004690257
-0.004446124
-0.0026290799
-0.0022707214
-0.0026164057
-0.0016398029
-3.744741E-4
-5.7128666E-4
-7.8072207E-4
-0.0021055639
-0.0034769317
-0.0012889681
6.917778E-4
2.7058527E-4
5.2533498E-5
3.045415E-4
0.0014673725
0.002557137
0.002013043
0.001157842
5.781899E-4
5.3683313E-4
0.0012096782
0.0010097037
2.721604E-4
5.352417E-4
7.258303E-4
9.476808E-4
0.0018837504
0.0013417047
7.1288866E-4
0.0019313858
0.0015667579
3.118949E-5
-1.992684E-4
-0.0010135486
-0.0019289063
-0.0014800687
-7.047855E-4
-2.3509933E-4
-0.0010682204
-0.0017485744
1.6305721E-4
0.0016968849
0.0017629454
0.0021067506
0.001587315
0.0014417602
0.001127092
-0.0015250815
-0.0035943224
-0.0048883236
-0.004598035
-0.0015797728
-0.0010163706
-0.0014786518
-3.7929966E-4
-0.0011978492
-0.0017761044
-0.0011679034
-0.0015978384
-9.447668E-4
0.0014221868
0.0024544483
4.9036706E-4
-0.0013036602
-0.0010790352
5.154432E-4
0.004059624
0.0052212775
0.0023795094
8.622807E-4
0.0013140815
0.0016780513
0.0010515548
2.5287716E-4
-4.8162834E-5
-8.2808617E-4
7.5872993E-4
0.003958119
0.0036924277
0.0016570908
7.246628E-4
3.272334E-4
-0.0010625619
-0.0026101025
-0.001483135
-5.7017966E-4
-0.0014260013
-0.0014850658
-0.0031332327
-0.0049619884
-0.0022231806
5.476214E-4
-7.4457837E-4
-0.0011921524
7.0435886E-4
9.1065874E-4
0.0013838747
0.0025170257
-0.0014611586
-0.005720366
-0.002849701
7.7817537E-4
7.28327E-4
9.779383E-4
0.0017804287
0.0015521513
0.0011233672
0.001027102
0.0011159269
0.0013249953
0.0020259935
0.002361576
6.687871E-4
-0.001455373
-0.0014073782
1.8791472E-4
0.0011786886
7.354324E-4
-5.888839E-4
-0.0018350845
-0.0019041728
-0.001504701
-0.0011184547
0.0010201284
0.0022811186
6.4934795E-8
-0.0018956568
-0.0016671797
-2.5350746E-4
0.0016791021
0.0019347725
0.0016434428
0.0021690119
6.0971954E-4
-0.0025321299
-0.003270839
-0.0019644029
-6.678433E-4
7.096316E-4
4.1904283E-4
-0.0012207481
-0.0010282345
-2.7756792E-4
0.0011228734
0.0030920813
0.0018811882
-7.426836E-5
-2.9693474E-4
2.7765657E-4
0.0013930876
6.431554E-4
-0.0010103006
-0.0017790559
-5.5890874E-4
0.0031355706
0.0027701936
1.1373266E-4
0.0010146733
8.1081124E-4
-6.8964536E-4
-0.0023874044
-0.004174379
-0.002380196
-9.937686E-4
-0.0022793293
-0.0027379994
-0.0018464598
-1.4043137E-4
2.9220548E-4
2.1815281E-4
2.909892E-4
-9.248092E-4
-0.0013216847
-0.0015018467
-0.0013241642
-5.0474564E-4
-8.1220275E-4
0.0017358306
0.0053666257
0.0054385574
0.0046752393
0.0038538175
0.0031890883
9.85476E-4
-0.0034007698
-0.004167208
-0.0014146556
0.0015030837
0.003011425
0.0019281594
0.00138581
0.001066886
-0.0012607548
-0.00202206
-0.0012091285
-0.0021381667
-0.0017348947
2.1761336E-4
-0.0019342077
-0.0034617495
-0.0011900448
-0.0013630572
-3.4520662E-4
0.0018894215
-2.2413662E-4
-0.0015129356
-0.0013388566
-8.6033443E-4
0.0016686748
0.0017126887
1.4906692E-4
3.3932654E-4
8.718449E-5
-6.8015215E-4
-4.8658362E-4
3.9561436E-4
0.0011706802
0.0020175588
0.0011456823
-8.612742E-4
1.14876544E-4
8.927948E-4
5.795449E-4
0.0020507781
0.0014225564
-5.69177E-4
-0.001570519
-0.0025730478
-8.7215204E-4
0.0019825085
0.0018094517
1.202121E-4
-1.0835206E-4
9.229572E-4
0.0012771024
7.681475E-4
-1.9997211E-4
-2.998073E-4
4.0901446E-4
-2.1777721E-5
-3.2039208E-4
-3.3761695E-4
-4.6368327E-4
-9.6361595E-4
-0.0030074217
-0.003259041
-0.0025039348
-0.0030620454
-0.001906794
-6.501002E-4
9.596109E-5
8.767689E-4
2.7320732E-5
0.0013761863
0.003998672
0.0030524724
9.254538E-4
-7.400727E-4
-0.0020024283
-8.232143E-4
0.0014197095
0.0020144223
0.0025561682
0.002867838
0.0020995557
0.0034035074
0.003758883
4.957653E-4
-0.0016481493
-0.002033257
1.16712494E-4
0.0025576698
-0.0011236434
-0.0048557664
-0.0031567032
-0.0021046158
-0.002817272
-0.0016530724
-4.7871197E-4
-0.0016444294
-0.0023646972
-0.0015619331
-2.1504711E-4
0.001671819
0.001072327
-0.0012073056
-3.2979588E-4
0.0018354285
0.0015983575
1.0987007E-4
-2.468198E-4
2.4570165E-5
-1.15457646E-4
-7.077442E-5
3.8502913E-4
0.0010140695
4.3663476E-4
-3.168666E-4
-1.7030312E-5
-0.0022304484
-0.0030816405
0.00289336
0.0063432707
0.0020450975
-5.395241E-4
8.672263E-4
-2.3635173E-4
-0.0012859141
9.860767E-4
0.0011435971
-5.6896264E-5
7.5577805E-4
4.0949986E-4
-4.2263645E-4
-6.0498685E-4
-0.002017128
-0.0022730953
1.3942753E-4
0.0030175322
0.004489892
0.0024368751
-0.002472156
-0.00501858
-0.0036101693
-0.0020787849
-0.0020226084
-0.0023802249
-0.0017919819
-1.264411E-4
4.3327676E-4
5.570451E-4
0.0013774756
6.4814254E-4
-3.1197126E-4
4.4340664E-4
0.0011479154
0.0021492434
0.0025764168
-1.95128E-4
-0.002036259
-3.087088E-4
-7.214371E-4
-0.0028068908
-2.719393E-4
0.0031476142
0.002087607
9.4796106E-4
0.0019075066
0.0014219185
-2.3629045E-4
-5.1724655E-4
1.9126586E-4
-1.17494295E-4
-2.9326967E-4
9.613669E-4
3.365849E-4
-0.0016937321
-0.001812976
-6.329771E-4
0.0011924324
0.0015745597
7.223039E-4
0.0016132079
0.0015245541
1.121869E-4
9.6560914E-5
-3.6136163E-4
-0.001494608
-0.0016000563
-0.0011605128
-9.679283E-4
-2.2114509E-4
6.718931E-5
-0.0015316512
-0.0013819655
1.4190165E-4
-1.0497032E-4
-3.6656586E-4
-0.0017267074
-0.0024557123
2.51209E-4
5.5151846E-4
-0.0014819052
-7.330416E-4
2.2177036E-4
-1.1042106E-4
0.0010852413
0.0023360988
0.0019693032
0.0024816892
0.0029345336
0.0014406042
-5.5394456E-4
-7.612062E-4
0.0015041458
0.0010496122
-5.594975E-4
0.0018946005
0.001286772
-0.0011458084
0.0012811852
0.0022213077
3.6130563E-4
3.0907465E-4
3.80459E-4
-0.0025555359
-0.0059480947
-0.0046210145
-0.0013183134
-1.3377733E-4
-1.3134368E-5
-4.1506247E-4
-3.409498E-4
9.304038E-4
0.0020127
1.8570479E-4
-0.0018091738
7.124219E-4
0.0022446872
0.0011855311
0.0014677588
0.0010933012
3.8293737E-4
-2.846641E-4
-7.9005864E-4
-7.85187E-4
-0.0030724118
-0.0038554613
-0.0012741039
7.907748E-4
0.0025774385
0.0026867727
0.0017276072
0.0016476201
3.819317E-5
-0.0014045323
-0.0017364695
-0.002685677
-0.0024454047
-0.0019709982
-0.0017043854
0.0013605272
0.004167977
0.0033238216
0.0016698054
8.2775793E-4
2.1192864E-4
-0.001068763
-0.0014430314
0.0021940395
0.0044830223
0.0013798374
-0.001112879
-0.0019647558
-0.0032344686
-0.0026234076
-8.996135E-4
4.009169E-5
2.1304518E-4
-0.0012609747
-0.0022616189
-3.7282694E-4
2.3388064E-4
-7.438827E-4
0.0010916364
0.002430657
0.0018311284
0.0020262054
0.0018509608
0.0028151246
0.004492364
0.0031237418
-9.874393E-4
-0.0057658223
-0.006734471
-0.0039988747
-0.0029120354
-0.0017933866
2.5709518E-4
6.480846E-4
6.577893E-4
-0.0011466324
-0.0036826283
-0.0013697081
8.802383E-4
-0.001019129
-0.0015237844
-0.0026164292
-0.004342561
2.100936E-4
0.005567723
0.006847823
0.007814771
0.0057938453
0.0010670475
-7.180683E-4
-2.178373E-4
0.0016149317
0.0048365872
0.0051850546
0.0013376692
-0.0014268123
-0.0012456715
-9.217476E-4
-9.728896E-4
-0.00235595
-0.0042704223
-0.0025107048
2.854111E-4
-5.8394065E-4
-0.0019216862
-9.773237E-4
2.6379834E-4
0.0011512479
0.0014508701
4.9481844E-4
-9.598708E-5
-5.634699E-4
-0.0017313898
-0.0016567938
-0.0023934462
-0.0047093765
-0.0039354092
-0.0019573714
-0.003054406
-0.0045414823
-0.0028813835
8.093981E-5
7.9777825E-4
0.0017094939
0.002775064
9.6076966E-4
0.0014848313
0.0025334647
-2.9411193E-4
-9.065448E-4
-7.348565E-4
-6.8753987E-4
0.00174556
0.0024579356
0.0048864796
0.009004187
0.010006675
0.010485445
0.008641291
0.0065835826
0.0060036005
0.001909147
-0.0011602648
-0.0028425748
-0.006603764
-0.008428573
-0.008980305
-0.008558189
-0.0061476575
-0.0049420707
-0.0041588303
-0.0020811162
-0.0011113656
-3.1224033E-4
9.812985E-4
-0.0030436672
-0.006225596
-0.0011366986
-4.3719925E-4
-0.004136493
-0.0032900746
-0.0028220206
-6.308981E-4
0.0031455508
0.0025540555
0.0018394396
0.004804181
0.009262851
0.009548632
0.0071442476
0.0054656826
0.0010872643
-8.020988E-4
0.0014658932
0.0033043
0.0035809344
-0.0031558669
-0.010379455
-0.008794108
-0.003993509
-9.790753E-4
-0.0011937522
1.0341346E-4
0.0031372323
0.0013177143
1.3235358E-4
5.699501E-4
-9.072506E-4
-1.58062E-4
-1.9824776E-4
-0.0020280476
1.4752423E-4
0.0030585646
0.0014725992
-8.2974456E-4
-5.0623028E-5
0.002955315
0.007381412
0.00808411
0.0034341202
-7.31522E-4
-0.004995387
-0.0073905857
-0.005875319
-0.0066194464
-0.0068392646
-0.003330389
-4.1635724E-4
0.00160697
0.003176441
0.0040718974
0.0019042308
-0.0034611824
-0.0042857644
-0.001090055
-0.0021306246
-0.004715316
-0.0022344391
4.4669726E-4
7.2264066E-4
0.0045142593
0.0075824927
0.006358617
0.0064200014
0.006612429
0.006674709
0.0055756755
-2.03076E-4
-0.0026898792
-6.2227715E-4
-0.0019798311
-0.0035769441
-0.0038529867
-0.008113528
-0.0124870585
-0.010733743
-0.0060565737
-8.5325935E-4
0.0033460294
0.0015485652
-0.0018596251
-0.0030628608
-0.0052616694
-0.004211545
-0.0013291411
-0.0029124587
-0.004500476
-0.0038951798
-0.0016306872
0.0024350882
0.0043365527
0.0059278957
0.011040254
0.016386729
0.015571836
0.0068989093
-5.666954E-4
-0.0027616879
-0.0062745
-0.008359472
-0.0049266354
-0.0022249613
-8.149735E-4
0.0012067639
6.633207E-4
-0.0013484192
-0.006540813
-0.014348084
-0.016251717
-0.01587922
-0.012410009
7.509114E-4
0.011816854
0.020307198
0.028852634
0.030100087
0.033253267
0.030533236
0.013073333
8.961824E-4
-0.008108757
-0.017003583
-0.016856275
-0.017107973
-0.018144604
-0.021139294
-0.029246598
-0.03301018
-0.036423586
-0.037853412
-0.029864252
-0.015232471
0.00494447
0.020583821
0.028399857
0.032775503
0.03345649
0.034292094
0.02816502
0.019465359
0.020626077
0.01863187
0.012584829
0.010581923
0.0011745401
-0.018578399
-0.025142051
-0.017428044
-0.028487874
-0.03988027
-0.026791513
-0.017803889
-0.0059048366
0.019964365
0.034399316
0.032098774
0.031128133
0.044626564
0.04739017
0.043195337
0.06000664
0.062241998
0.045232087
0.021141576
-0.011422308
-0.0059726187
0.013999813
0.008941958
-1.7402334E-4
-0.04488102
-0.09518666
-0.066748574
-0.022047564
-0.033831388
-0.06463218
-0.09419781
-0.1091178
-0.101442546
-0.11323819
-0.11933278
-0.10513589
-0.11193334
-0.08437019
-0.02404917
0.0015013863
0.015294195
0.06222936
0.18026514
0.2908601
0.32635662
0.33782652
0.25919953
0.09745849
-0.043024644
-0.10486304
-0.031537108
0.016335648
-0.0338502
-0.069737695
-0.1119126
-0.08031324
-0.008922497
0.013619237
0.06281501
0.013680369
-0.057451796
-0.045195136
-0.112773776
-0.08501384
0.018707402
-0.023836227
-0.037357386
-0.04651842
-0.14925992
-0.21637522
-0.2221142
-0.15069658
0.006669129
0.21139531
0.30996937
0.20705949
0.1724521
0.23801091
0.12283588
-0.09255994
-0.20843093
-0.2047628
-0.10179288
1.6477704E-4
0.028235588
0.04343645
0.06140047
0.07557756
0.072025605
-0.067440934
-0.23079903
-0.20498604
-0.11563961
-0.015787156
0.11743268
0.14231513
0.17256989
0.29131907
0.2453749
-0.027646432
-0.3092716
-0.37970778
-0.23002245
-0.03126015
0.16931455
0.3258309
0.33467558
0.23382598
0.07566512
0.0042509926
0.09459776
0.058445908
-0.122922316
-0.18789156
-0.14961465
-0.025061483
0.010936817
-0.2425799
-0.40196866
-0.26382372
-0.12840274
-0.07703756
-0.048982527
-0.041328005
-0.017623065
0.06736461
0.2162751
0.32092866
0.2805046
0.14449354
0.031673055
-0.07126164
-0.18134043
-0.13119541
0.05949268
0.17199902
0.15275767
0.11965696
0.22665554
0.33558607
0.19520879
-0.093287654
-0.27226418
-0.18199146
-0.028266812
-0.12311328
-0.27696472
-0.28058323
-0.20881529
-0.12069873
-0.07751627
-0.06173718
-0.034872867
0.019707246
0.114435025
0.17057046
0.22186111
0.23041153
0.09599847
0.032423105
0.071528845
0.02753639
-0.01609556
-0.0043127686
0.016561838
0.018849552
-0.049979202
-0.10783572
-0.082315594
-0.030686904
-0.015675383
-0.063945346
-0.07966929
-0.02593064
0.025832687
0.101882435
0.111845076
-0.010034152
-0.052519057
-0.001660048
-0.026040975
-0.08312783
-0.08723858
-0.029420778
0.055227682
0.101455376
0.10081652
0.072572365
0.0527234
0.0773994
0.095028795
0.06029894
0.017431576
-0.014942201
-0.05114146
-0.060242224
-0.06772359
-0.12591425
-0.15958297
-0.12402579
-0.070868626
-0.0022967919
0.067743346
0.098203294
0.08493952
0.041883186
0.004807082
-0.008157566
-0.009517956
-0.005415136
-0.00845449
-0.026049083
-0.039312482
-0.03163253
-0.010926939
0.014383497
0.027319381
0.0033293343
-0.023684783
-0.016010769
0.0086626485
0.029061666
0.026550347
0.022619607
0.043423526
0.0530928
0.047444467
0.023813106
-0.025300017
-0.029348336
0.018969046
0.059018724
0.05897017
-0.019998012
-0.11014554
-0.10576771
-0.061768506
-0.029251361
0.012190142
0.045404878
0.06518088
0.08060803
0.08074752
0.03627402
-0.036434203
-0.06736216
-0.0841331
-0.08488593
-0.01366318
0.016521571
-0.011365032
0.002452462
-0.0012050221
-0.009557587
0.02870256
0.0504772
0.048348602
0.01777238
-0.03215369
-0.04844838
-0.043468997
-0.036930192
-0.03819492
-0.027783718
0.017464703
0.054982882
0.075140946
0.07457859
0.035123836
-0.020148091
-0.05787856
-0.022512207
0.0726592
0.14145507
0.1174615
-0.017654963
-0.11994469
-0.09543182
-0.05092186
-0.020033829
-0.0035272117
-0.017218145
-0.012040156
-4.0236945E-4
-0.0038834529
-0.007979035
-0.019222166
-0.025542175
-0.020043448
-0.0069382936
0.006098505
0.019624658
0.03455089
0.014330833
-0.017983591
-0.013991115
7.704763E-4
0.013670547
0.024903284
0.028342534
0.031057822
0.021868695
0.006311152
8.5883145E-4
3.9326915E-4
6.2018145E-5
-0.0047456836
-0.01157353
-0.017395884
-0.022265105
-0.020684037
-0.017495036
-0.0143365
-0.006221009
0.0047461228
0.017327446
0.02783077
0.033339646
0.029706663
0.015102218
0.0032539493
-0.0039463313
-0.011051371
-0.0073167696
0.0018273124
0.004156294
0.004678825
0.0029673455
-0.007960307
-0.025282625
-0.030835535
-0.016357599
-0.0069020595
-0.013750461
-0.020097863
-0.02121757
-0.017290661
-0.010564533
-0.006451842
-6.4267317E-4
0.0037178432
3.9380143E-4
-0.002663345
8.4907596E-4
0.0052554333
0.006008919
0.007881899
0.012103019
0.017525615
0.028107608
0.040536966
0.048915576
0.04782485
0.026219234
-0.008279016
-0.030506743
-0.03759344
-0.036931276
-0.021293085
0.0026967686
0.01863559
0.023305973
0.013064348
-0.004410673
-0.015342806
-0.022560004
-0.024846137
-0.017554589
-0.0032647564
0.009755382
0.008688447
-0.0038308841
-0.017554408
-0.024214143
-0.01609821
-0.005009844
0.001742907
0.013246259
0.019421102
0.0092819715
-0.0017893537
-0.0023602354
-0.0015166269
-0.0024623147
-7.4212905E-4
-0.0010357678
-0.003441965
-0.0033309052
-0.00207707
3.9006997E-4
0.0025556155
0.0033648026
0.0051015196
0.0062635997
0.006410533
0.0074064545
0.008891182
0.0075333035
0.0023720125
-4.4945066E-4
0.0010061064
0.0020395643
0.0021081152
0.0025427355
0.002589459
0.0024289342
4.509249E-4
-0.0039824857
-0.006032932
-0.0075314646
-0.009789945
-0.0062000356
-0.0033387435
-0.0062908875
-0.0067272293
-0.004386911
-0.0016652577
-4.939782E-4
-5.5637176E-4
0.0016960498
0.0013441996
-4.452808E-4
3.24212E-4
9.161496E-4
0.002996785
0.0027686663
-2.0354954E-4
-1.3146279E-4
-0.00106912
-0.001443294
0.0031969487
0.0077498285
0.006483631
0.0013977991
-0.001017954
-0.004813377
-0.008764555
-0.0059502563
-0.0058800145
-0.007613482
-0.004917472
-0.0045743347
-0.004078443
-9.711197E-4
0.00234195
0.0015596773
-0.0055858386
-0.0056493697
8.863832E-4
0.0020091864
0.0025384102
0.007698089
0.015131898
0.01531929
0.009505278
0.008492748
0.004075522
-8.5093756E-4
0.0049012257
0.011351427
0.015454831
0.01613064
0.0069758254
-0.0040653297
-0.008277541
-0.006728778
-0.003558069
-0.0021454028
-0.00791808
-0.018474245
-0.020698942
-0.017152399
-0.013938333
-0.0073681986
-0.0018809483
7.793374E-4
-5.925603E-4
-0.0075744456
-0.009954367
-0.0060050315
-0.0014647456
0.0016886148
0.0013609723
7.2029914E-4
0.0015151545
0.0023870198
0.0031409161
0.005045073
0.010316559
0.011491605
0.0070316563
0.006158586
0.0050034365
0.0018740785
0.0021161407
0.0013754715
-6.1632827E-4
-8.5223845E-4
-0.0016221284
-0.0017366037
-0.001097497
-7.107495E-4
0.0011377077
0.0013681492
-3.484303E-4
-2.1803725E-4
-9.1017707E-4
-0.0018561993
3.279098E-4
0.001627639
-1.8684927E-4
-0.0018005037
-3.721331E-4
0.0015113058
2.3661522E-4
-9.0430724E-4
-0.0011698662
-0.0021829086
-0.0021948824
-0.00235973
-0.0018687975
-0.0013245139
-0.0027943891
-0.001716537
-4.1750603E-4
-0.0016138962
-9.488905E-4
-0.0014823577
-0.002090132
0.0011909525
0.0021904255
2.6084736E-4
-9.14183E-4
-0.0010693554
5.95748E-4
0.0011689712
6.1478E-5
2.454869E-4
4.8769364E-4
1.641188E-4
-9.110671E-4
-0.0021752324
-3.397699E-4
0.001113911
-0.0027647114
-0.006398905
-0.0055793957
-0.004475138
-0.0033032594
-0.001057112
-6.834483E-4
-5.8127183E-4
7.7639567E-4
0.0017900921
0.0027183364
0.0017616102
3.7933543E-4
0.0022682743
0.0038843197
0.0045273704
0.005581207
0.0037933877
0.0018959192
0.0035470494
0.0049987263
0.006001173
0.008301065
0.0067377193
1.672552E-4
-0.0050631873
-0.0065397513
-0.005416295
-0.0040065264
-0.0035583659
-0.0034859932
-0.0051227985
-0.007152062
-0.008051807
-0.0058440063
7.8530284E-4
0.0017949811
-0.0024110712
-8.912502E-4
0.0013368893
0.001389721
0.0022037723
0.0023419345
0.0017797861
-0.0012652839
-0.0011129021
0.0046905447
0.007062834
0.007466719
0.0074291253
0.005029022
0.0025130962
-0.0022740464
-0.005504356
-0.0055385944
-0.008198584
-0.009653696
-0.008409416
-0.007953903
-0.006594062
-0.003561503
-9.580685E-4
-7.2140334E-4
-9.5466594E-4
-9.3919755E-4
-7.6059334E-4
0.0017834156
0.0018966084
0.0012132094
0.005824912
0.0065512443
0.003106614
0.004964619
0.0066579105
0.0048926314
0.006227662
0.0110752955
0.014350637
0.0130340075
0.0061333594
-0.0021303745
-5.420966E-4
0.007895773
0.006068697
-0.004348295
-0.0116555095
-0.014586883
-0.013126891
-0.010852824
-0.011425896
-0.010090634
-0.0054048523
-4.793519E-4
0.0028271892
0.0036380508
0.002285058
-0.002236818
-0.007856352
-0.008997174
-0.0061628832
-0.0023595763
0.002468609
0.0046889056
0.0013666474
-3.3171225E-4
0.0028141672
0.0056445454
0.007945308
0.007932824
0.00404983
0.001477945
1.6916335E-4
-0.0016098781
-0.002113291
-3.0754745E-4
0.002428641
0.0016068263
2.7257088E-4
0.0031182806
0.004722753
0.0023789401
-0.0012717441
-0.0042311777
-0.005021853
-0.0029743875
4.3365062E-4
0.0017198056
0.0020492766
0.001709118
-0.0010565748
-0.0014292295
-8.0709804E-5
-0.0010716079
-0.0022484718
-0.0031559232
-0.002529488
-5.8812957E-4
1.2286224E-4
4.425544E-4
-2.4118258E-4
-4.5491377E-4
0.0015238798
0.0029018747
0.0023916725
8.2554034E-4
6.3493097E-4
8.0414425E-4
-4.7902064E-4
8.332085E-4
0.004155106
0.005602298
0.0050263805
0.0039668395
0.004247665
0.0027601402
-0.0017697633
-0.0058403164
-0.008528575
-0.0077452655
-0.0055952105
-0.0052073034
-0.0017755656
0.0019415775
0.0011428485
0.0019104569
0.003057957
-4.8895134E-4
-0.0025130527
-5.826551E-4
6.6335296E-4
8.635238E-4
-4.462425E-5
-1.929502E-4
0.002892959
0.0034168265
3.2110338E-4
-5.6410494E-4
-5.487304E-4
1.02544305E-4
0.002754571
0.0034825208
0.0025913485
0.0023943083
0.002152589
0.0025537289
0.002168684
-5.121533E-4
-0.0022104243
-0.0020672898
-0.0026242803
-0.002530874
-9.209139E-4
-6.6119246E-4
4.88551E-4
0.0032112056
0.0015702698
-6.931908E-4
0.0017666928
0.0029801885
0.001857944
0.0011431575
-5.882062E-4
-0.0015158483
-8.6737284E-4
-5.493664E-4
-8.83697E-4
-0.0024213279
-0.0035580602
-0.002908564
-0.002051478
-0.0016207513
-0.0012245331
-3.2781903E-5
0.0021111106
0.003211501
0.0014832916
-0.0010062035
-7.7432866E-4
1.8795452E-4
-1.883931E-6
5.113627E-4
5.320002E-4
1.8374294E-4
0.0012664371
0.0021826911
0.0017781635
4.91213E-4
-3.3261307E-4
-4.8517395E-4
-4.517309E-4
6.209762E-4
3.6568026E-4
-0.001401312
-2.3699849E-4
0.0019298895
0.0014061109
0.0011274292
0.0025416822
0.0020518622
3.8170375E-4
9.450725E-4
9.981076E-4
-6.224173E-4
-0.0019767531
-0.0038847069
-0.004172346
-0.002219105
-9.1141305E-4
5.37237E-4
0.0012534072
6.668116E-4
8.181517E-4
6.316311E-4
2.4549873E-4
-2.1881913E-5
-0.001644182
-0.0023678392
-1.3610609E-4
0.0017980782
0.0012697588
0.0012279726
0.001341858
6.989432E-4
0.0022065854
0.002957519
0.0023993815
0.0034863513
0.003482381
0.0036795298
0.002054516
-0.0034530552
-0.0041601365
-0.002026603
-0.0026046333
-0.003816244
-0.0061129895
-0.004999437
-0.0010208865
-0.0018993013
-0.0044737067
-0.0030580664
0.0012707984
0.0022135684
-8.1561616E-4
-5.925953E-4
0.0011538784
0.0019332976
0.0029915934
0.001513441
-1.9302638E-4
2.3090091E-4
0.0016593371
0.0041223224
0.0042892466
0.0025984168
0.003997014
0.0068335403
0.005689834
0.0012741463
-0.0012371622
-0.0014091848
-0.0012229991
-0.00204114
-0.0042453813
-0.0042327014
-0.0027689335
-0.0029106478
-0.0024384512
-0.0018670944
-0.0023794936
-0.0021878434
-9.86287E-4
5.608675E-4
8.6397177E-4
1.5173377E-4
2.0893407E-4
6.556505E-4
0.0013766013
0.0021969783
0.002483111
0.0022250514
0.001535981
0.0011113072
2.9303713E-4
-7.663165E-4
-8.4875204E-4
-0.0012643633
-8.285055E-4
0.0013968224
0.0017807651
5.161325E-4
-1.17625284E-4
-4.4683306E-6
0.001184069
0.0014934448
1.9346007E-4
-9.627259E-4
-0.0018789606
-0.0014153395
-4.7313134E-4
-0.0015995635
-0.0017804181
7.0903153E-4
0.0022831173
0.0020517586
0.0023536421
0.003395222
0.0026483387
6.826059E-4
7.2984846E-4
8.552144E-4
-0.001530911
-0.0036282367
-0.0041115913
-0.0037433053
-0.0013353582
0.0012849408
8.3947985E-4
-7.3628325E-4
-9.711576E-4
1.348751E-4
0.0017621213
0.0016897703
8.617076E-4
0.0012539915
3.714108E-4
-0.0015023524
-0.0015322596
-0.0011502282
-0.0014514228
-4.765192E-4
0.0015655672
0.0015852152
5.1561295E-4
1.7985748E-4
-0.0019532305
-0.0026899648
5.338508E-4
0.0014886286
8.861674E-4
0.0015172965
0.0011974926
0.0022877415
0.0028989455
3.0074196E-4
-3.835139E-4
-5.53833E-4
-0.002771352
-0.0021729367
1.2594457E-4
-1.2905104E-4
-5.0653366E-4
-7.8229335E-5
-8.990873E-4
2.3283459E-4
0.0031472645
0.0021554006
1.0144392E-4
3.6237168E-4
-3.6725003E-4
-0.0018237904
-0.0018542699
2.1209902E-4
0.0020989822
6.497803E-4
-9.253364E-4
-8.3074847E-4
-0.0010668561
-8.819164E-4
-6.177532E-4
-8.766058E-4
-9.3334785E-4
-1.7168328E-4
9.3750353E-4
-4.8949226E-4
-0.0026417878
-0.0018640348
-2.5836428E-4
8.43851E-4
0.0011929641
0.0010077403
0.0017427221
0.0012377485
-5.087701E-4
1.2478848E-5
0.0016123668
0.0015147063
0.0010461104
0.0017968935
0.0018144229
0.0019627349
0.0034010787
0.0025498152
0.0029273564
0.006111762
0.003497346
-0.0024141818
-0.0048145438
-0.006275984
-0.007505812
-0.0062497314
-0.0030932885
-0.0024955925
-0.002950065
3.6880642E-4
9.264546E-4
-0.0014689892
-9.51451E-4
-0.0011517751
-6.102584E-4
6.7493576E-4
-1.5001421E-4
3.831966E-4
9.2609065E-5
7.104207E-4
0.003550405
0.0016618336
-1.638965E-4
0.00202558
0.0044988696
0.0059729135
0.003214644
4.6270672E-4
0.0012393229
6.0326705E-4
6.2699616E-4
0.00198478
0.0010211545
-1.4265464E-4
3.9642848E-4
0.0010535803
2.0487149E-5
-0.0015686696
-0.0028008453
-0.004074357
-0.0031473755
-9.0388034E-4
-5.166665E-5
1.9312023E-4
0.0010484755
5.654161E-4
-0.0038726893
-0.0047829323
1.03106904E-4
-0.0015867323
-0.0055958424
-0.001866323
7.168691E-4
-8.059243E-4
-4.252742E-4
4.7704254E-4
5.6136574E-4
0.00131329
0.002273243
0.0022189578
0.0017778088
0.0015876497
0.0010851332
0.0010746587
0.0018914461
0.0030632736
0.004295362