-0.0028228506
-0.0030962317
-0.0025370184
-0.0042094146
-0.0022022964
-6.640596E-4
-0.0017576568
-0.0022366026
-0.0038193886
-0.0018768741
0.0017485187
0.0013700326
0.0016037185
-1.7783021E-4
-0.002940113
-1.2007757E-4
0.0012656285
-3.0266872E-4
3.9742643E-4
0.0012778225
0.0010361698
3.6220727E-4
4.151123E-4
0.0015916338
0.003595303
0.0048800125
0.0026351374
8.303191E-4
0.0024242043
0.0038990749
0.002367659
-0.0016278173
-0.0017826372
2.893979E-4
-1.3281158E-4
0.001750911
0.0024275752
8.9237024E-4
0.0020901675
-8.94123E-5
-0.0031968572
-0.0023530093
-0.0020337754
-0.001193642
-0.0015276372
-0.0036810886
-0.0028783379
-7.9439936E-4
-8.8941204E-5
-0.0016582243
-0.0028547249
-0.0013377694
-7.7479135E-4
-9.419003E-4
3.1925225E-5
0.0011805494
4.1128026E-4
-0.0015914092
-6.4230285E-4
-6.903902E-4
-0.002239208
-8.6337014E-4
-0.0010422129
6.461428E-4
0.0048899925
0.0034176817
0.0024515486
0.0038922932
0.0015468869
-0.0012400309
-0.0020038448
-4.01106E-4
0.0019503705
0.002189913
0.0027255288
0.004445956
0.004924691
0.003325269
0.002383129
0.002613204
4.2147376E-4
-0.0026219403
-0.0034664294
-0.0028780366
-0.0033544907
-0.004982598
-0.004455284
-0.0039000628
-0.0031307451
1.3611894E-4
3.2217207E-4
-0.0013369687
-5.784932E-4
7.4382604E-4
9.5626194E-4
-0.0019186646
-0.0037638636
-0.0017053802
-3.8631206E-5
8.6411554E-4
8.003907E-4
0.0010621954
0.0035013158
0.0043528876
0.0031106747
0.002023482
0.0013854336
8.914525E-4
4.883497E-4
3.2366658E-4
-4.9121638E-5
-3.134902E-5
-3.2522142E-4
-7.671731E-4
-7.639228E-4
-0.0022265534
-0.0019242176
5.28427E-4
0.0010481192
0.0012998447
9.529956E-4
6.523336E-5
8.8878174E-4
0.0014371504
4.6552985E-4
-6.750079E-4
0.0012998785
0.0042826603
0.0027853947
1.7297346E-4
-0.0013464529
-0.0031670074
-0.0036754305
-0.0036041685
-0.0039232457
-0.0035265803
-0.0024775933
-0.0027751273
-0.003026434
-0.0011852417
-0.0012572594
-0.0010198153
0.0015167196
-5.7407684E-4
-0.0033873625
-0.0015661772
8.255505E-4
0.0034212656
0.004902683
0.0041620363
0.00420167
0.0039970465
0.0026459694
0.0026171948
0.003831978
0.003929064
0.0035580865
0.0035778289
0.001353142
-0.0010824683
-5.396875E-4
-0.0012608869
-0.0032096782
-0.002051313
-0.0017627273
-0.004241456
-0.004559183
-0.002913913
-5.8331652E-6
0.0025067101
-7.597047E-4
-0.004493361
-0.0016449408
0.0020319575
3.122286E-4
-0.0037808744
-0.002835593
9.98504E-4
9.123653E-4
-4.4536468E-4
-8.110036E-4
2.3548643E-4
0.0012306137
-0.001177835
-5.4092344E-4
0.0022523405
-3.2228293E-4
-0.002362186
-0.0014797156
-6.0800416E-4
1.47141E-4
1.2556916E-4
0.0016545602
0.0026853092
0.0020286166
0.0029095062
0.0025925527
0.0016836767
0.0018400988
0.0013765714
0.0019100811
0.0022569736
0.002060814
0.0024931103
0.0025329276
0.0024595624
3.4684685E-4
-0.0022789112
-0.0028494652
-0.004307242
-0.0050721173
-0.0036440026
-0.001554928
-2.2469377E-4
-0.0018359255
-0.0020705918
-2.8042097E-4
-0.001183831
-0.0019953535
-0.002190287
-0.0028502897
-0.0018730963
1.0476159E-4
0.0018709722
0.0018231722
0.0014596593
0.0016029854
1.5853093E-5
3.7364126E-4
0.0011899713
-3.674947E-4
0.0015532321
0.0037181037
0.001674384
2.648451E-4
3.4079608E-4
5.63335E-4
2.7630792E-4
-4.844468E-4
-2.9741673E-4
3.7590394E-4
0.0012748218
0.0014891119
7.9941493E-4
3.7263767E-4
-1.3873639E-4
-2.1970218E-5
3.817082E-6
-5.745642E-4
-7.791729E-4
-0.0016560481
-0.0017696755
-0.0011155232
-9.067445E-4
3.943444E-4
7.7974383E-4
3.4383903E-4
5.920509E-4
-9.0350537E-4
-0.002185256
-9.660478E-5
0.001587935
-9.97252E-4
-0.0023536703
-4.1938963E-4
-9.234238E-4
9.380082E-5
0.002528229
0.0016646928
0.0025422126
0.0013626929
-0.002018407
-2.9898202E-4
2.3179442E-4
-7.569983E-5
0.0024632972
0.0026739133
9.774126E-4
-0.0014485845
-0.0024194608
-1.2938776E-4
8.570896E-4
-6.467855E-4
-0.0015929439
-1.4129956E-4
3.4514556E-4
-6.792955E-4
3.6399136E-4
-8.3783705E-4
-0.0033579802
-0.0015278301
0.0014646589
0.00243466
-2.365996E-5
-0.0030067326
-0.002869207
-0.0019206681
6.494608E-4
0.0034630045
0.0035377564
0.0026326522
4.909311E-4
-0.0010396483
-2.9370227E-4
9.337407E-4
0.0017023279
2.0273909E-4
-0.0012749383
-5.2631675E-4
2.2929668E-4
8.091389E-4
-2.4611186E-4
-0.0014256198
-3.8784852E-5
-5.0974154E-4
-0.0018836242
-8.672955E-4
2.1028816E-5
0.0012244703
0.0013072483
-7.947034E-4
-3.9806438E-4
9.583022E-4
-5.474599E-6
-6.202658E-4
-7.982927E-4
-0.0011675277
5.9571397E-4
0.0019042088
3.482345E-4
8.0766634E-4
0.0024507751
0.001715494
0.0015133892
4.4337282E-4
-9.7607484E-4
-3.3368904E-4
-0.0020432437
-0.0037403344
-0.003717234
-0.0043272106
-0.0019160226
9.478399E-4
0.0018435161
0.0022245653
5.9926603E-4
-2.3952218E-4
-6.309517E-4
-2.0326544E-4
0.0026515804
0.001800605
-4.7397884E-4
7.859367E-5
7.239007E-4
6.82766E-4
-0.0012004696
-0.0012788168
0.0020304157
0.004242443
0.0036648603
-8.48867E-4
-0.0026974198
6.4152677E-4
0.0016479476
0.0013254395
-5.4678525E-4
-0.0026966832
-6.625495E-4
3.3942495E-5
-5.112453E-4
-2.758621E-4
-0.0015636829
-8.6106797E-4
0.0010539046
8.698876E-4
-0.0010729007
-0.002581989
-3.9980104E-4
0.0015803507
-9.930171E-4
-0.0041087233
-0.0027919346
9.882966E-4
0.0012625837
-6.8423414E-4
-0.0012217289
-7.9457666E-4
-1.2726612E-4
-0.0012998292
-0.0020338546
7.74203E-4
0.002645557
0.0018978906
0.0011198188
8.550543E-4
0.0014016025
0.0021832576
9.215353E-4
-6.973202E-4
0.0015066775
0.002822061
4.2754845E-4
6.777496E-4
0.0012141103
-2.7525768E-4
6.184291E-5
-2.1267417E-4
-1.6990876E-4
7.783739E-4
-6.410508E-4
-3.8357236E-4
7.854674E-4
-7.647002E-4
-0.0015746666
-0.001742978
-0.0029348154
-0.003636001
-0.0020271228
8.685201E-4
8.749822E-4
-2.8186798E-4
0.0011115919
0.0024816354
0.0018307004
0.0010369591
0.001014638
-2.9483702E-4
-0.0013623569
1.9661344E-4
2.878892E-4
-0.0014385572
-0.0018546495
-0.0022232493
-0.001997177
-6.8311446E-4
-0.0011369656
-0.0018344438
8.395438E-4
0.0027870813
0.0013673113
9.932818E-4
4.8114968E-4
-3.782771E-4
4.2310613E-4
-3.0717236E-4
2.1205917E-4
0.0020406782
9.219069E-4
7.0239464E-4
6.933845E-4
-0.001220946
-0.0021259757
-7.82158E-4
0.003201323
0.005336093
0.0040421207
0.0024683687
-0.001348974
-0.0046268147
-0.0025543156
0.0011529061
0.002219264
0.0012411057
-8.912313E-4
-0.003916162
-0.0036897764
-8.931206E-4
-0.0012149882
-0.0021128792
-0.0013785788
-0.001193675
-6.8360387E-4
7.083704E-4
0.0011751237
0.0014671581
0.003697595
0.003100126
2.183879E-4
0.0010931324
4.476376E-4
-0.001309234
-7.497017E-4
-0.0012246446
3.4652418E-4
2.8236985E-4
-0.0031831916
-0.0025011317
-9.28955E-4
5.417815E-4
0.002152954
4.907956E-4
-5.333894E-4
-1.3095088E-4
0.0014090316
0.0022829773
-4.111462E-4
-0.0010638708
-2.5171906E-4
-0.001689824
-0.0023896007
-0.0020619214
-0.0014566287
-1.13210066E-4
0.0011369351
4.5700022E-4
4.786502E-4
0.0033271476
0.0035479802
0.0026041758
0.0029588062
5.1624456E-4
-0.0011927513
-2.253978E-4
1.1303443E-4
7.688835E-5
-3.718746E-4
-0.001495995
-0.0030734264
-0.0031206876
-0.0012965869
-1.4508239E-4
0.0017456962
0.0041782013
0.004399455
0.0023258007
0.0012149041
0.0031054255
0.0021472643
-0.0019851658
-0.003971055
-0.0044617355
-0.003127793
-0.002954489
-0.0047059315
-0.0025595354
7.295983E-5
9.6512877E-4
0.0022912764
0.0013658137
-6.142095E-4
-0.0011929956
-5.1557046E-4
1.3946956E-4
-9.1174454E-4
-0.0012247913
4.5217364E-4
0.0014573818
0.0010582743
0.0016177978
0.0026605125
0.001504985
0.0014678615
0.002614559
6.775521E-4
-0.0017514953
-0.0027554987
-0.001976207
-2.2879793E-4
-4.738159E-4
-3.6712317E-4
2.3125972E-4
-3.171561E-4
1.22051424E-4
0.0012366275
0.0012772807
-7.4991514E-4
-0.0013602973
4.49275E-4
-1.6813319E-4
-1.8850138E-4
0.0010496192
1.6255393E-4
4.7558345E-4
8.968756E-4
8.4625336E-4
0.0027444595
0.0034376096
0.002469561
0.0029798925
0.004044474
3.1512923E-4
-0.0048704753
-0.0035077925
-0.001468384
-0.002640646
-0.004835672
-0.0072619156
-0.0040057558
-8.527731E-5
-8.026434E-5
0.0032834357
0.0042917673
2.6812547E-4
-0.0017992212
-0.002471261
-9.4616035E-4
1.7874497E-4
-0.0013794746
-5.9285795E-4
2.5858973E-5
-0.0011594561
-2.022756E-4
0.0016445109
0.0024221558
0.002710355
0.003414208
0.0029551156
9.222732E-4
0.001071134
0.0012952236
-9.654249E-4
-0.0013556838
-5.405708E-4
-8.198177E-4
1.4025642E-4
0.0017766728
0.0030125203
0.0037194886
0.003159587
0.0023865185
8.906359E-4
-0.0010525181
-0.0013591015
-0.0011352849
-0.0016824269
-0.0029428254
-0.0029017138
-0.0020559742
-0.0042263153
-0.0053855157
-0.003826327
-0.0027042017
0.0010485061
0.0038229378
0.0017540385
0.0011459207
0.0024903358
0.001549052
-0.0017499458
-0.004082288
-0.003987672
-0.0023383207
0.001120603
0.0019756895
2.3364257E-4
0.001769737
0.003425567
0.0032866586
0.0033706285
0.0024002348
9.859054E-4
-9.559809E-5
-0.002050347
-0.005124292
-0.003514851
0.0033533406
0.005117595
0.0026146607
6.6925684E-4
-0.001314344
-4.4072128E-4
-3.1022448E-4
-5.3369877E-4
0.0029420198
0.0019207693
-0.0012677821
0.0014626755
0.002537977
-7.5013225E-4
-0.0022896936
-0.0026508616
-0.0017535517
0.0012284124
6.220057E-4
-0.0027432896
-0.003855528
-0.003961666
-0.003167836
-0.0027748328
-0.0023525234
-1.9601188E-4
-4.1376174E-4
-4.9241586E-4
9.772147E-4
7.2953396E-4
0.0018487502
0.0032121402
0.0038592664
0.003891393
3.8378238E-4
-0.0022253094
-0.0018955439
-8.0944685E-4
0.001427574
0.0040617622
0.005868474
0.0037351784
-4.5383762E-4
-0.001212361
-6.5288716E-4
-0.0012430936
-7.643363E-4
8.909594E-4
3.0959537E-4
-0.0010904205
-0.0011194882
-0.0019841394
-0.0015395898
-5.5785757E-4
-0.0010724971
-0.0016037134
-0.004146773
-0.004731531
-0.0027889325
-0.0019136041
0.0018253402
0.0038334394
0.0018714723
0.0015503234
0.0016526385
0.0021236506
0.002431651
0.0025181307
0.002977142
0.0015275422
-5.6601155E-5
-0.0017744693
-0.0020810352
0.0010333818
0.0037076864
0.0050217696
0.0029833987
-0.0012028194
-0.0026061311
-0.0020744065
-3.0167277E-5
-1.8906769E-5
-0.003231974
-0.004194276
-0.003398963
-0.0026483065
-0.0023751783
-0.0024075452
-0.0017907572
-0.002321498
-0.0034967593
-0.0040857955
-0.0042804186
-0.0031939417
4.9674476E-4
0.004686288
0.0047480315
0.0036632798
0.0034762146
0.001373858
-2.7510396E-4
-6.200627E-4
0.0010585148
0.0038133257
0.0039104694
0.0034973873
0.0017396054
-2.6681495E-4
0.0017315382
0.0035373361
0.0038764337
0.004797125
0.004628099
0.0030487245
0.0030128907
0.0041831373
0.0010851506
-0.0031626732
-0.0044913893
-0.004938325
-0.002905383
-0.0027681033
-0.0050405697
-0.0033030661
-0.002929664
-0.0045554275
-0.0030916533
-0.0019904443
-0.0020729203
-0.0021210166
-0.004103891
-0.006816722
-0.005320979
-5.7985337E-4
0.0021766312
0.003661451
0.0032460217
-6.7409134E-4
-0.0023561358
5.4280274E-4
0.0022095153
0.0023470582
0.0046121264
0.0031731378
-4.9544853E-4
0.0017005884
0.002342282
0.0015205829
0.003659632
1.5342003E-4
-0.003908035
-0.0013681573
0.001968435
0.005042331
0.0070799757
0.0067446614
0.0051356023
0.001423236
-0.0036561235
-0.006515877
-0.0056504374
-0.0049785078
-0.0040693884
0.0011215844
0.0072633405
0.010765544
0.011000518
0.008053232
0.0032638137
-0.0014095012
-0.00575493
-0.012304254
-0.0145465
-0.009313213
-0.007869575
-0.009958671
-0.010283607
-0.009200787
-0.0043727965
-0.0016136329
-0.0020204233
0.0020623845
0.004932075
0.0019757384
1.5584128E-4
6.783276E-4
-8.971085E-5
8.951473E-4
0.004911466
0.007360005
0.009591752
0.010815843
0.008541087
0.008737694
0.008714307
0.0043532634
0.004094431
0.0060143205
0.0022664324
-7.19088E-4
0.0020015787
0.0046446687
0.004344814
0.0012276239
-0.005829404
-0.012142569
-0.01344741
-0.013986159
-0.015394713
-0.013619633
-0.009404894
-0.0055812076
-2.4483834E-6
0.004721842
0.005554881
0.0079439515
0.010617343
0.012787632
0.016411988
0.014251116
0.009679116
0.005010089
-0.007662542
-0.021341119
-0.029002244
-0.028572882
-0.021748688
-0.017644295
-0.0116300685
-0.001784572
0.011434145
0.031431276
0.04110778
0.03409934
0.018998465
0.003421578
0.0011389909
0.003134146
0.0038446153
0.009559995
0.0059037837
1.7935874E-5
0.004578145
0.004747602
-0.009145955
-0.032920536
-0.044012427
-0.03322077
-0.012457826
0.010625027
0.009716088
-0.00678422
-0.004015117
-0.004231855
-0.014756363
-0.017578548
-0.022639895
-0.02657016
-0.0207449
-0.004406026
0.02168448
0.0517922
0.07829544
0.07669831
0.056786448
0.052064247
0.04105379
0.017058285
0.0038512233
-0.013338917
-0.037292577
-0.046152823
-0.041663095
-0.036886644
-0.03327814
-0.020112645
-0.0029767258
0.0018797939
0.006644599
0.010626226
-0.012320588
-0.04380711
-0.04844571
-0.03809416
-0.03318207
-0.022997275
0.0061696456
0.035002258
0.03395305
0.009288987
-0.012740298
-0.012295107
0.012129571
0.033478655
0.038408007
0.037142605
0.034458425
0.030642265
0.0047071595
-0.04219913
-0.06484545
-0.066535175
-0.07386992
-0.067606896
-0.03319668
0.024326695
0.099253796
0.1564459
0.15181729
0.11043278
0.08238779
0.05533148
0.023671163
0.004669771
-0.01608632
-0.036339194
-0.047861062
-0.06025169
-0.06879714
-0.072033465
-0.05237286
-0.012789961
-0.015152193
-0.038243484
-0.025828011
-0.034438618
-0.072621875
-0.08802313
-0.118195675
-0.12870134
-0.036408234
0.048026744
0.035719763
0.018243458
0.012328304
-0.0063133147
0.031479094
0.09655329
0.0961964
0.07264836
0.054430462
0.017808083
0.043263186
0.1521142
0.20280884
0.13277912
0.04225065
-0.0038718486
-0.042859383
-0.063840166
-0.053882807
-0.07550991
-0.1040341
-0.10347082
-0.11564268
-0.1045299
-0.050213683
3.6837315E-5
0.043103956
0.06811936
0.07861348
0.067567155
-0.012245518
-0.08043439
-0.057077613
-0.040496834
-0.06563986
-0.053907108
-0.027070954
-0.02131975
0.017568184
0.073297784
0.07727095
0.07324245
0.09335493
0.07758367
0.037374444
0.0065327287
-0.022901973
-0.032218017
-0.05832176
-0.07291749
0.019864058
0.06306937
-0.029861229
-0.046205994
0.0136070615
5.641493E-4
-0.033996016
-0.028425517
-0.0077769286
0.0049841576
0.00488779
0.0070206774
0.019687286
0.020075029
-0.008055206
-0.028487112
-0.022722013
-0.010188563
0.0056085433
0.007258224
-0.0013644865
0.010264408
0.045972105
0.07238693
0.035083394
-0.015059097
-0.010718308
-0.00744847
-0.011248399
-1.6419953E-4
0.0019564512
0.008368552
0.012868334
0.007395559
0.01039949
0.011755109
-0.009593313
-0.057130076
-0.07708162
-0.034595378
7.6428475E-4
-0.0084142815
-0.0064122467
0.009651353
-0.0131211905
-0.03182594
-0.004715558
0.01254005
0.01935641
0.028750887
0.019844403
0.013100933
0.01141274
0.013522341
0.0072299726
-0.014449824
3.7001524E-4
0.021957727
0.0110441195
0.011201088
0.012759796
0.007486387
6.6053437E-4
-0.015343146
-0.008611491
0.004426942
-0.00731782
-0.019886917
-0.020510592
-0.01134169
-0.0030076734
-9.421512E-4
1.9434132E-4
-2.2942343E-4
0.0034658597
0.0041285525
-0.0035721364
-0.0064901845
-0.003457693
4.7773457E-4
0.0030815222
0.007184092
0.012037683
0.013335519
0.012936175
0.006548772
5.0708477E-4
-0.002315801
-0.010563774
-0.010509123
-0.0031205863
-0.0027544089
-0.00421849
-0.006714062
-0.009002726
-0.0074612484
-0.0023066388
0.0012654201
-6.220099E-4
0.004456178
0.010770113
0.0067163873
0.003939921
0.0061436645
0.013125568
0.015340636
0.0056825476
5.6816835E-4
-0.0024027335
-0.004367958
0.0042332597
0.0161691
0.033613734
0.036921013
0.0028361427
-0.032093365
-0.04314642
-0.042595048
-0.03328946
-0.02347673
-0.019461267
-0.014408778
-0.0055647013
0.0028916213
0.0027312953
-0.0017252496
-1.5359186E-4
0.0010525156
4.5909872E-4
0.0045345724
0.009338186
0.014303923
0.0179271
0.015367234
0.015712371
0.02029296
0.018061116
0.012869472
0.012110187
0.016708829
0.022407409
0.015650503
5.724494E-4
-0.002011935
0.004721413
0.0015122136
-0.01402196
-0.025677294
-0.023086814
-0.017028399
-0.014860383
-0.010643379
-0.008193462
-0.011584845
-0.012289972
-0.008260393
-0.005825755
-0.0039563915
0.0018334072
0.0052312594
5.4872705E-4
-0.0034101924
-0.002932002
-0.0020781541
4.1111492E-4
0.0028647736
0.0030035882
0.001211871
0.0018351263
0.008633117
0.0082428325
0.0017162942
0.0066232346
0.009579438
9.5637736E-4
-0.0058340323
-0.009246344
-0.006591935
5.65108E-4
0.001902054
8.104954E-4
-7.0174265E-4
-0.0018938964
3.5672865E-4
6.3386455E-4
0.001706918
0.0040791766
-2.937193E-4
-0.0021273668
0.0036283152
0.005084599
0.0025193891
0.0016990299
8.280217E-4
-0.0010680937
-0.003970123
-0.005425954
-0.0039627478
-0.0031632425
-0.002689864
-0.0014784738
-1.7263035E-5
0.0035505407
0.0052034003
8.995906E-4
-0.004592393
-0.0063373176
-0.0036680344
-8.9679944E-4
-0.00216491
-0.0035386488
-7.688825E-4
9.2476496E-4
-0.0031450528
-0.005972854
-0.0036614337
-0.0015506159
1.777515E-4
0.0029500548
0.0058486173
0.007474973
0.003929659
-6.030744E-4
0.0010427681
0.0026644734
2.7837016E-4
0.0010576405
0.002379172
-8.1587315E-4
-0.0015518846
-0.0025303555
-0.006940422
-0.0046927216
0.0016075666
0.0063082944
0.008013685
0.0025297818
-9.378964E-4
-0.0014623012
-0.00633206
-0.006309403
-0.0029923767
-0.0038215693
-0.0037008098
-0.003390354
-0.003406734
-7.61333E-4
0.0016376006
0.0019460168
0.0010289327
0.0010543861
0.003261258
0.0035188112
9.137235E-4
0.0011184785
0.0027827343
0.0011369139
-0.0017753848
-0.003488685
-0.0011121593
0.0032663532
0.0024279677
4.3578277E-4
0.0025698543
0.005617991
0.006775302
0.0053709643
0.002554627
-0.0015460883
-0.004939613
-0.0057573766
-0.005794035
-0.0028754321
3.0097555E-4
-6.960996E-4
-9.415832E-4
3.8562433E-4
-1.22028E-4
-0.002409977
-0.0033020563
-0.0013190808
-2.4896167E-6
0.0016915175
0.004558184
0.0037449545
-0.0016630981
-0.00646283
-0.006536493
-0.006421017
-0.0047386363
0.0017775362
0.0021196713
7.6178595E-4
0.007048865
0.006355269
-0.0029454948
-0.0061399858
-0.0032435982
-6.686079E-4
6.6558365E-4
0.0018935349
0.0024938465
0.0011849628
-7.324066E-4
-0.0011629082
-0.0011162005
1.4000073E-4
0.0031468384
0.002821498
0.0026912787
0.0058190757
0.003893922
4.0182506E-4
7.943904E-4
0.0013284627
0.0015717072
-3.5527063E-4
-0.0025263608
-0.0023562962
-0.0015311374
6.660959E-4
5.343002E-4
2.751133E-5
0.0019684602
5.2087504E-4
-8.648509E-4
-7.5138654E-5
6.797993E-4
0.0016789172
2.7993021E-5
3.5462956E-4
9.742499E-4
-0.0038100234
-0.0056179813
-0.0049249795
-0.0043150294
-8.288769E-4
-6.3077244E-4
-0.002650183
-0.0027864384
-0.0033557457
-0.0018708397
3.9201792E-4
-0.0012848593
-0.0034246293
-0.0022953511
-0.0013432959
-0.0011642261
4.5086085E-4
5.333224E-5
-0.0012390799
-7.925584E-4
-5.122141E-4
0.0018131954
0.0029796176
9.973827E-4
0.0010226063
2.8508337E-4
0.001191884
0.005717445
0.0045195133
0.0014538928
0.0024938977
0.0019221493
1.7015474E-4
2.2553497E-5
-1.6256748E-4
-7.909839E-4
-2.1842183E-4
1.8455874E-4
-0.0015328603
0.001103131
0.008184847
0.008999557
0.004316452
0.0010222911
-9.0585156E-5
7.555615E-4
0.0017495728
-2.986366E-4
-0.004217087
-0.0048827208
-0.0031993422
-0.0030533664
-0.002883767
-0.0036174308
-0.004603437
-0.0029754902
-0.0024198496
-0.0031985966
-0.0032514418
-0.0034550864
-0.0039759674
-0.004617941
-0.002462195
-3.6990576E-4
-0.001982837
-0.0015370229
0.0014366619
0.0030945893
0.0016659749
-6.5953704E-4
7.044792E-4
0.0017384785
0.0032738391
0.0074188183
0.006721773
0.0038222712
0.0028690102
0.0029948323
0.0040340154
0.001731809
7.940455E-4
0.003162149
0.0016514872
5.6762615E-4
0.0022405263
0.0025837298
0.0017314712
0.0013789646
0.0020553637
-4.141612E-4
-0.0028682759
-0.0016672813
-0.0029060573
-0.0032245247
-0.0024140975
-0.0050543183
-0.0029146585
0.0018143138
5.05444E-4
-0.0010268755
-7.759447E-5
-0.0014392266
-0.0037405826
-0.0030726641
-0.0015493387
-0.001786434
-0.0027662585
-0.0028912702
-8.423443E-4
8.657116E-4
7.730578E-4
6.260719E-4
-2.888497E-4
1.877254E-4
0.0023408378
0.002880821
0.0031894133
0.003230313
0.0023767415
3.8573006E-4
-0.0026886852
-0.0025762152
-0.0010153492
-0.001250796
-5.637355E-4
9.1616507E-4
0.0019165833
0.002308499
0.002802778
0.0029227312
0.0013049834
9.584785E-4
0.0015381795
7.922642E-4
-5.403789E-5
-9.02584E-4
-8.165859E-4
-9.434475E-4
4.1690895E-5
0.0027174265
7.381893E-5
-0.0012233633
0.0029146133
3.4335852E-4
-0.0034766858
-0.00118184
-1.18671756E-4
2.0812129E-4
3.090292E-4
-0.0020196254
-0.0025087774
-2.2935876E-4
0.00128708
0.0011470598
5.5618375E-4
1.8247344E-4
1.5455473E-4
-4.7523783E-5
0.001661574
0.00576368
0.0054245177
0.002264166
8.5299497E-4
-0.0026090213
-0.0034839218
-0.0013757935
-0.0024507055
-0.0017990578
-9.0479E-4
-0.002138547
-0.0015827249
-0.0020652823
-0.0015851547
6.929388E-4
9.493613E-5
-0.001339422
-0.0023143538
-0.0018275712
-2.1615595E-4
-3.7057206E-4
1.9309847E-4
0.0016565367
0.0020507805
0.0017564934
0.0014799018
0.0031532694
0.0050631845
0.005346366
0.0044141095
0.0017042346
1.3157436E-4
0.00112011
0.0017799113
8.9702086E-4
-0.0010349912
-0.0029692391
-0.0039500995
-0.0024727294
-7.063242E-4
-0.0022344107
-0.002583667
-3.533205E-4
-2.6867425E-4
-0.0012631967
-0.0014174248
-8.036411E-4
-1.6745695E-4
-7.8298646E-4
-6.948844E-4
4.3842412E-4
5.070919E-4
-5.4804125E-4
-0.0012776174
-3.9774174E-4
3.3657972E-4
4.240958E-4
0.0014640185
9.3990646E-4
-0.0013980597
-0.0014844199
8.6135935E-4
0.0023985666
0.0019283738
0.0015871902
0.0017767238
0.0017587842
0.0020990325
0.0012092803
4.1429975E-4
7.001223E-4
-9.924623E-4
-4.9652864E-4
0.0021244888
-2.498358E-4
-0.0022140339
4.0034425E-7
6.795553E-4
-9.241709E-5
-0.0018574017
-0.004094836
-0.0021554837
0.0011153942
-0.0017684902
-0.0058714305
-0.002442197
0.001089646
-2.0787613E-5
0.0015863924
0.0015677221
-0.0016967545
-0.0010340406
-6.7266176E-4
-4.225252E-4
0.0019660606
0.0030458448
0.0068850475
0.0089432085
0.004591799
0.0021787747
8.4510347E-4
-1.604823E-4
2.7237518E-6
-0.0026601285
-0.0021525854
5.8540306E-4
2.7658598E-4
5.797188E-4
-0.0024233048
-0.0052275853
-0.0015507434
1.6089084E-4
3.9011647E-4
4.4407177E-4
-0.002158916
-0.0019536503
-0.0017938532
-0.0025154527
-0.0014790142
-0.00222234
-8.669921E-4
-2.7200568E-4
-0.0041000643
-0.0036809503
-0.0015823984
-0.001081602
8.1399205E-4
0.0012395995
0.0012120496
0.0015291407
0.0014937258
0.0031091743
0.0050207525
0.0048990087
0.0021732587
7.2686566E-4
0.0014569163
4.314293E-4
2.487478E-4
0.0017614752
0.0035927675
0.005522766
0.0045167482
0.0028716892
0.0024077473
0.002147635
0.0021436068
-0.0011554627
-0.005840413
-0.006447123
-0.0030366173
-4.0871633E-4
-0.00197831
-0.0023852724
-0.0012858986
-0.0031880992
-0.005377483
-0.006324539
-0.0046198783
-0.0021149646
-0.0022751915
-0.0017584772
-0.0015158135
-0.0015536791
-7.9449307E-4
-0.001660458
5.866474E-4
0.0038136065
0.0030037526
0.0034137056
0.0037824314
0.0025188727
0.0028295866
0.001983001
4.9472073E-5
4.608467E-4
0.0015899215
0.002437793
0.0048830896
0.005567949
0.0031907472
0.0043821936
0.00692931
0.005448701
0.0026000005
-0.0012432509
-0.0034310888
-0.0026405638
-0.003931839
-0.0053173373
-0.0042292513
-0.0030294152
-0.0028580506
-0.0028593447
-0.0015528403
-0.0017823608
-0.0026510449
-0.0020010965
-0.004168858
-0.0050072055
-0.0019515721
-0.0012625948
-0.0020673925
-0.0031390283
-0.0030496633
-8.140512E-4
-5.8547925E-4
2.3276676E-5
0.0018765726
0.002994132
0.005230199
0.005656207
0.0052018114
0.0058273915
0.0048946836
0.0053777024
0.00608874
0.0043555796
0.0024094947
-4.7933526E-4
-0.0013512991
5.8688683E-4
7.799781E-4
-1.317375E-4
-2.6058615E-4
0.0025716044
0.0055769607
0.0021398778
-0.003284948
-0.0054185544
-0.005686582
-0.0043100105
-0.002427822
-0.0013897184
-0.0018434362
-0.0036978251
-0.004701216
-0.0040049395
-0.002482922
-0.003729347
-0.007904401
-0.006570753
-0.0010527746
-4.5243677E-4
-0.0013543658
-9.0815935E-5
5.211861E-4
0.0016394444
0.003164312
0.003938691
0.0040395167
0.0024058383
0.0017080032
0.0029793973
0.0027366816
0.0011862869
0.0015104401
0.0041283765
0.0053228145
0.0049924175
0.005894978
0.005654507
0.004031831
0.0035110184
0.0041353176
0.0040095677
3.5429632E-4
-0.0025550073
-0.0020159972
-0.003434856
-0.0059004715
-0.006456458
-0.005733084
-0.003931205
-0.0025793833
-0.0017139829
-0.0012944698
-0.0022769049
-0.003923686
-0.0053597693
-0.0054673553
-0.0033080513
6.6230877E-4
0.0024588183
2.541461E-5
-0.0024283475
-0.002267628
0.0011164205
0.0034783871
0.0011136148
7.329247E-4
0.0020678472
0.0014197686
0.0025615436
0.0034970487
0.0026969193
0.0013658096
-7.913569E-5
2.2381834E-4
-0.0010020181
-0.0010567458
0.0039715776
0.0049172766
6.267172E-4
-0.0014129726
-0.0015547837
-0.0019640897
-0.002567585
-0.0018233738
7.458984E-4
0.0017002727
4.8598895E-6
-2.143731E-4
0.0026524954
0.005767152
0.006690412
0.0035767218
-0.0016555183
-0.004261646
-0.0030376965
0.0014835913
0.0044807903
0.0018636128
-0.0014481598
-0.002079573
-7.797045E-4
-5.0159416E-4
-0.0040193386
-0.0055494416
-0.0029140674
-0.001538786
-8.0883596E-4
5.8196735E-4
3.403269E-4
-0.0011296949
-0.001550454
-0.0011887734
-0.0026875257
-0.0040754196
-9.0948073E-4
0.0020723247
-2.6023816E-4
-0.0012567041
7.309594E-4
-1.5226463E-4
-3.025145E-4
0.0012063483
-1.2294076E-4
-2.5147776E-4
0.001025225
-2.2472694E-5
-1.1492323E-4
0.0016204523
0.0022829792
0.0024524245
0.0034815297
0.00299303
5.666169E-4
3.3768485E-4
0.0012482707
4.22662E-4
2.480413E-4
0.0016842138
0.0026197028
0.001553259
2.33881E-4
0.0013083838
0.0035921077
0.0045760786
0.0029416133
-9.224728E-4
-0.0045585157
-0.004569163
-0.0015762789
-3.2481583E-4
-4.218836E-4
-0.0013598832
-0.00405044
-0.004423786
-0.003955581
-0.003564749
-1.2346396E-4
7.117713E-4
-3.3858154E-4
0.0019070313
8.639992E-4
-0.0031181339
-0.0026070145
-0.0011810021
-0.001789849
-9.417118E-4
-3.6332672E-4
-6.3288736E-4
6.2254746E-4
1.6754278E-4
-3.9767133E-4
0.0013752583
8.8870846E-4
3.3373528E-4
0.0010065682
3.0192023E-4
0.001276327
0.0025580204
0.002435943
0.0025235498
0.0015553756
0.0010330962
0.001637953
0.0022068229
0.002557541
0.001514043
0.0010660575
0.0015914292
2.061294E-4
-9.6555677E-4
6.488598E-4
0.0017550967
1.905106E-4
-0.0014597834
-0.002018606
-0.0011546217
2.0817277E-5
-6.5324776E-4
-3.2190527E-4
-2.4156469E-4
-0.002779538
-0.0031987792
-0.002570313
-0.002675109
-0.001676399
-8.548647E-4
6.726971E-4
8.997836E-4
-0.001511275
-0.0021778506
-0.0019841362
-0.0018171028
-3.7043114E-4
6.236871E-4
3.1942493E-4
-4.7760768E-4
-5.7780946E-4
-6.485413E-4
-4.758248E-4
3.8197663E-4
-6.116166E-5
-4.294244E-4
-2.779184E-4
-3.946764E-4
2.8520188E-5
8.2133093E-4
0.0038828296
0.005865726
0.003508041
0.0018037021
0.0011898862
0.0019788593
0.0045050895
0.005017037
0.0044323206
0.0019605926
-6.870281E-4
3.109909E-4
-0.0012462393
-0.0045998367
-0.0038306783
-0.0034879725
-0.0035616504
-0.0017593123
-0.0014928933
1.5923807E-4
0.0016028516