-2.6922775E-4
-0.001671569
-0.0023216289
-2.4781673E-4
0.002615967
7.093427E-5
-3.2909555E-4
0.002318346
7.688828E-4
0.0017121301
0.0035194436
8.910641E-4
4.4608346E-4
4.660457E-4
-0.0010820132
-3.9896442E-4
6.794438E-4
9.5425127E-4
-8.802141E-4
-0.0029819696
-3.6303923E-4
0.0019360823
-2.0430025E-4
-0.0021503698
-0.0015626773
-3.443197E-5
-2.9198307E-4
-0.0017934295
-9.756965E-4
0.001514105
0.0011520495
-0.0027940883
-0.0036080747
8.2785205E-5
5.795678E-4
-7.2882464E-4
-1.2969059E-5
-0.0012259466
-8.296088E-4
0.003182607
0.0029974265
4.1263856E-4
0.0018891934
0.0047758273
0.0038736102
2.562001E-4
-2.6733684E-4
0.0018376269
0.0030564105
0.0011308935
-0.0049164384
-0.0064882096
-0.002562885
-0.0025475505
-0.0035888406
-0.002520706
-0.0012332493
3.6064733E-4
5.9735123E-4
0.0019747082
0.0041739894
0.0033058375
0.0015594142
-9.217813E-4
-0.0041460274
-0.0053666104
-0.003443807
4.9904716E-4
0.0016762859
9.234013E-4
0.0023815148
0.0033255462
0.0037926517
0.0053912094
0.004519333
0.0020238215
0.0016433185
0.0010240951
-0.0017195683
-0.0039664996
-0.004059916
-0.0026709156
-0.0019693065
-0.0017523585
-6.878971E-4
-7.08826E-4
-7.827954E-4
2.714234E-4
5.1657704E-4
0.0012247054
0.0023983256
0.0024473567
1.6589288E-4
-0.0041883276
-0.0043621566
-7.945008E-4
4.42277E-4
9.806715E-4
8.0229965E-4
-0.0010004592
-0.0012870196
-6.246793E-5
0.0013137035
0.0020800899
0.0020183793
6.317736E-4
-0.0021076167
-0.0020195092
5.293667E-4
7.5351144E-4
-3.9941253E-4
-5.0192734E-4
9.667528E-4
0.0014413683
-5.487864E-4
5.4376877E-5
0.0022648482
0.0016151484
7.47939E-4
5.3442514E-4
9.3503506E-4
0.0020636918
0.001237293
-1.1176004E-4
4.6100793E-4
0.0019359837
8.205701E-4
-0.0031597018
-0.004384089
-0.0035040502
-0.002505976
-7.731017E-4
-0.0016660708
-0.0012559561
0.0013355619
3.4295992E-4
2.1851886E-4
8.0633064E-4
-7.386018E-4
-6.3720404E-4
4.3117531E-4
0.0024574152
0.002279099
-0.0018564288
-0.0019614468
4.8734513E-4
3.698325E-4
-4.8009335E-4
-4.2255255E-4
0.0021875622
0.004254144
0.0035525816
0.0021378552
-2.754788E-5
-0.001077942
-0.0012655614
-0.0023118756
-0.0021277799
1.5500617E-4
0.0020455387
-7.104924E-5
-0.0022193044
1.0789987E-4
0.0010733933
-3.1711208E-4
4.174918E-5
8.9524445E-5
-0.001880386
-0.002508239
-4.245916E-4
8.7103725E-4
0.0015951236
0.0019844961
5.459403E-4
5.399827E-4
9.664449E-4
4.7619783E-4
-1.2817277E-4
-0.0016789519
-9.542747E-5
0.0010400817
-0.0010038904
5.6344556E-4
-2.3735927E-4
-0.0038200268
-0.0017639833
7.1247574E-4
0.0014479238
0.0017609022
5.9821934E-4
5.6625548E-5
-5.0697377E-4
3.127706E-4
0.0013219494
-8.6500484E-5
9.061457E-4
0.0018991902
6.109946E-4
0.0017871202
0.002004979
5.9451343E-4
9.415514E-4
-1.3726397E-4
-0.001365518
-5.614542E-4
1.7783759E-4
0.0014149757
1.2617254E-4
-0.0044603404
-0.005513695
-0.0035125685
-0.0029820234
-0.0037482805
-0.0036354274
-0.0010815761
4.7638454E-4
-7.3676114E-4
-0.0022692357
-0.002045714
0.0013307346
0.002639055
0.0016242656
0.0036661092
0.004450237
0.0035982432
0.0035176415
0.0044025956
0.0073784837
0.006055924
0.004311076
0.005442099
-1.2560505E-4
-0.003867991
-0.0017719675
-0.0018069985
4.965341E-4
8.217034E-4
-0.0021332344
-0.0013273159
-0.0027106323
-0.0055758846
-0.0059489217
-0.0062959534
-0.0054290807
-0.0053291256
-0.0062690256
-0.005548909
-0.002253298
0.0033348056
0.0049743215
0.0032262227
0.0039517153
0.0039946493
0.0018394922
-7.061297E-5
3.3846026E-4
0.0027430838
0.0024450342
7.493565E-4
0.0010657083
0.0017336231
0.0025386475
0.0027942786
0.0018737428
0.0013427429
6.9256144E-4
-6.474254E-4
-9.277726E-4
6.4469746E-4
0.0014992199
-3.8261455E-4
-0.0018987855
-4.4025687E-4
8.9716713E-4
-3.8415525E-4
-0.002638458
-0.0043978817
-0.0037340748
-5.819082E-4
0.001418926
0.0014156455
-7.3890784E-4
-0.0027247127
-9.6354773E-4
-5.298205E-5
-0.0011407494
-0.0012791199
-0.0016439662
-4.0665883E-4
1.8057477E-4
-0.0016118395
-4.8205853E-4
0.0010526116
1.2247972E-4
1.0841528E-5
0.0013216
0.0025470373
0.002109968
0.0019605902
0.0030522847
0.0029857447
0.003116652
0.0036047904
0.0023979635
8.2447694E-4
3.0401035E-4
-5.1316066E-4
-0.0024171907
-0.0035437725
-0.0035217106
-0.003352382
-0.0030487315
-0.0017165142
5.041178E-4
9.206999E-4
5.9275E-5
-0.0018182938
-0.0036523747
-3.6968407E-4
0.0025852267
0.0019947602
0.0031596997
0.0021272148
-9.960404E-4
-0.002791578
-0.0041879867
-0.002738478
-8.8474486E-4
5.4577674E-4
0.002588426
0.0012616632
-2.8305437E-4
6.903602E-4
0.0017202864
0.0018246239
6.757872E-4
3.3382798E-4
4.8421283E-4
6.135513E-4
8.826861E-4
-0.0010930513
-0.0017413504
5.668631E-4
0.0013297115
0.0014315415
0.0022064855
0.0024960183
0.002611491
0.0020640076
3.7680217E-4
-9.972121E-4
-0.0016035502
-0.0026924866
-0.0032332102
-0.0018838822
-1.792118E-4
-4.8394362E-4
-0.0022803163
-0.0024735618
-0.0026797266
-0.0035643382
-0.0010271758
0.0015403945
9.546833E-4
5.673576E-4
-3.43098E-4
-0.0014066588
-4.2696457E-4
-4.7911567E-4
-0.0014339086
-2.5095143E-5
0.0014277163
0.0015597534
0.002454258
0.0032859563
0.0032408535
0.00211144
9.3886536E-4
0.002225958
0.0021121213
-8.0044754E-4
-0.0012035785
-5.001933E-4
-9.798441E-4
-7.340634E-4
-4.995355E-4
-0.001112142
-8.845121E-4
0.0011393616
0.0023353903
0.0013724056
-1.2829121E-5
-0.0015670864
-0.001723026
-7.4742467E-4
-0.0012568042
-0.0010796555
-2.871315E-4
-0.0017381123
-0.0023020196
-4.907428E-4
1.9038719E-4
8.5164525E-4
0.002168715
0.001353112
9.5395226E-4
0.0018612233
0.001757553
0.0014698463
-1.4372462E-4
-0.0013481665
-1.5705345E-4
-5.170607E-4
-0.0019958527
-0.0025895385
-0.0024860464
-0.002393447
-0.0033651188
-0.002713858
-0.0012348503
-3.3399768E-4
0.0012225929
2.3682659E-4
-0.0010719051
5.0565228E-5
5.205213E-4
0.0012309771
0.0022346345
0.003271485
0.004768493
0.004779925
0.0033615534
0.0017469762
0.0015683655
0.0013104002
2.0402679E-4
0.0010183835
0.0014313401
9.936343E-4
7.2123786E-4
2.5232075E-4
4.2464497E-4
-0.0025939678
-0.0051140185
-0.0029880835
-0.0021237389
-0.0019283498
-0.003161071
-0.005034159
-0.0025383418
-0.0012500976
-0.0020606187
-0.0025296428
-0.0029531738
-9.807716E-4
5.428437E-4
0.0031987457
0.0059450977
0.0029972708
0.0022494767
0.00462847
0.0029843878
-2.765131E-4
-0.0017436559
6.6847366E-4
0.0023332115
-7.701901E-4
-0.002543337
-0.0024603507
-0.0019527305
1.1558078E-4
2.5741538E-5
-8.5707975E-4
0.001409964
0.002494959
0.0010444201
0.0010752869
5.607407E-4
-0.0010965702
-0.001640155
-0.002516296
-0.0010946848
0.0015220239
0.0011536446
0.0014033073
6.0175336E-4
-0.0014081849
2.3452296E-4
0.0010683133
-1.784899E-4
-0.0013182873
-0.002282411
-0.0012350654
-0.0018803604
-0.0034325507
-0.001350765
6.6981337E-4
0.0022218404
0.0040093544
0.004168966
0.003391624
9.610656E-4
-8.6504355E-4
-8.838578E-4
-0.0014735713
-6.528649E-4
-1.5689792E-4
-3.589207E-4
0.00205726
0.0016754888
-9.5265044E-4
-0.0013318214
-0.0024275878
-0.0010780233
0.001247915
-0.0010466989
-0.0025145619
-0.002577919
-0.0028812818
-0.0014072829
-1.745852E-4
8.739253E-4
2.4471768E-5
-0.001994853
-3.2266273E-4
0.0011092568
0.001102972
0.002673723
0.0039643906
0.0046390584
0.0045961607
0.0028331236
-2.2138712E-4
-0.0015255957
-0.0016933053
-0.004525035
-0.003446528
7.8577717E-4
-1.4886857E-4
-6.955021E-4
-0.0013882085
-0.004487725
-0.0031713883
-0.0010160762
-0.0011390737
-3.7710412E-4
0.0012775629
0.0023642369
0.0010279568
2.4564695E-4
4.5864878E-4
4.4307378E-4
0.0030654997
0.0041032713
0.0038743424
0.005653927
0.0042555924
0.0026499513
0.0024989776
-1.4380881E-4
-0.002490687
-0.0055551776
-0.0067923632
-0.0025011674
-8.315118E-4
-0.0019034172
-0.0010943403
-5.606059E-4
7.2928995E-4
0.0010923615
-6.568881E-4
-7.9124136E-4
-0.0012789724
-0.0013420298
8.6402235E-4
4.3050156E-4
2.3695091E-5
0.0021811423
0.0013426923
2.4333481E-4
0.0018913326
0.0017222455
-2.5753962E-4
-0.0023048518
-0.003408283
-0.002110827
-8.162762E-4
-1.22068115E-4
6.074649E-4
-5.9980934E-4
-0.0019761038
-0.002308251
-0.0033693663
-0.0037178982
-0.0029241655
-0.0013319878
0.00150219
0.0027921996
0.0035251053
0.0063683623
0.0074917916
0.005695619
0.0034236524
0.0017010393
0.0015228114
0.0017534469
0.0028650295
0.004167833
0.0026518113
0.0021788117
0.0010771622
-0.003925686
-0.00523499
-0.0048222095
-0.005545364
-0.0039108563
-0.006027217
-0.008293511
-0.0042957817
-0.0017302734
-0.0010273047
-9.149605E-5
-7.9251523E-4
-8.314228E-4
8.0868363E-4
0.002475056
0.0013026115
-2.204618E-4
3.5575853E-4
4.3526696E-5
7.6395395E-4
5.937195E-4
-0.0012633704
4.2111077E-4
0.0018482242
0.0029456795
0.0054584816
0.0050645648
0.0035699895
0.0025007513
0.0017155232
-0.0015646553
-0.0069357846
-0.0049405657
-2.6519323E-4
9.875548E-4
0.0029549196
0.001041594
-0.0020413506
7.458647E-4
0.0038458875
0.0029246006
-6.3143834E-4
-0.0018448543
2.4558496E-4
1.9501832E-4
-0.0016029642
-0.0018140771
-2.5855217E-4
1.5308963E-4
-0.0013285738
-0.0010632449
-6.8827055E-4
-0.0017834866
-0.0019466003
-0.0018308709
-9.5389044E-4
9.6718526E-5
-4.7810088E-4
2.6864908E-4
0.0013320126
-2.3412154E-5
4.440257E-4
0.003272405
0.005089825
0.0054623773
0.0026034873
-4.8245904E-5
0.0023185625
0.0041083796
0.0024459062
-2.1676657E-4
-0.0022526162
-0.0015219859
-0.0032337701
-0.007505325
-0.006242549
-0.005002258
-0.0066398038
-0.004284005
-0.0024227255
-0.0027166978
-5.728738E-4
9.026899E-4
0.0022572586
0.0042964667
0.004024551
0.004936209
0.007338477
0.008723833
0.009204848
0.0073151835
0.0057910513
0.004816887
0.0048117377
0.008737098
0.007151782
0.0012280862
-0.002779329
-0.016082179
-0.028795606
-0.024619492
-0.016799945
-0.0139875915
-0.012076981
-0.0083861705
-8.467011E-4
0.005274563
0.0046486245
0.0024761343
0.004231977
0.0039425646
-0.0017648679
-0.0042963345
-0.0027482433
-1.5589078E-5
0.009433102
0.022895934
0.029602794
0.03084464
0.0360925
0.038422983
0.025061298
0.007802057
-0.0034467976
-0.017504256
-0.027622186
-0.026381608
-0.024518084
-0.0212839
-0.014074725
-0.011351837
-0.011688026
-0.011029917
-0.0092335995
-0.005431601
-0.0036883226
-0.004768515
-0.00533563
-0.004884345
-0.0039574835
-0.0041593774
-0.0021473942
0.0036726627
0.0058943485
0.0047322847
0.006798172
0.010560418
0.011913789
0.012976511
0.014168491
0.011024298
0.008108842
0.008655023
0.005575038
0.00141915
-0.0013470821
-0.0053891204
-0.0051416107
-0.0037544258
-0.004522727
-0.0012980922
2.218059E-4
-0.0016102736
-3.7749956E-4
0.0023961477
0.005897805
0.0044227303
-0.0013743191
-6.530309E-4
-6.7001594E-5
-0.0026730546
-0.0031392304
-0.0076571857
-0.010364928
-0.0055998513
-0.003535866
-0.0061006052
-0.009035475
-0.007429883
-0.0027919742
-0.0024214739
-0.0015268018
0.0012122502
8.6669496E-4
5.524357E-4
0.0015602288
0.003802953
0.0062046386
0.0068846145
0.00722875
0.0063416534
0.0074307607
0.010975673
0.007461354
-0.0015890811
-0.0074042254
-0.0082975
-0.0055524562
-0.0013661298
0.0037600037
0.0057578566
0.002934818
0.0044396054
0.0067407982
0.0021214134
4.6303755E-4
6.520399E-4
-0.0055692163
-0.009937314
-0.011603636
-0.014669977
-0.010564218
-7.390351E-4
0.0041898554
0.0058950293
0.005657091
6.960293E-4
-0.0018009961
2.0046429E-4
0.0011241267
0.004056674
0.0053528347
0.0018839183
0.004175359
0.005915708
-2.7418786E-4
-0.0013160211
0.0013448528
-8.951626E-4
-0.004340506
-0.00784901
-0.008538575
-0.00452212
-0.0018510901
-0.0024406374
-0.0051779877
-0.005519268
0.0013704798
0.005328893
0.0014387805
5.1072E-4
-0.0013432028
-0.009367105
-0.010753779
-0.0037042715
0.0012223432
-1.9044359E-5
-0.004145635
-0.0044201906
-0.0014319072
0.0016930148
0.0065126973
0.013417164
0.021586888
0.02466712
0.018481147
0.009064094
0.0018543259
-9.5110585E-4
-0.0032074507
-0.007138026
-0.0057250634
-4.1312588E-4
2.8201274E-4
-0.0039773807
-0.007965212
-0.008850244
-0.00430108
0.005252927
0.0077793393
0.0045120344
0.008531441
0.012071879
0.010761471
0.008012574
0.0012477313
-0.003823552
-0.008779383
-0.017099809
-0.024020206
-0.03004267
-0.031902358
-0.029628647
-0.02669393
-0.023473686
-0.019695284
-0.009455871
-0.0024415236
-0.006062607
-0.006967531
-0.005346163
-0.004467552
-0.0018888006
0.0010894515
0.0051698526
0.012416485
0.028809138
0.04702858
0.05834581
0.06605496
0.067561865
0.06558166
0.051794842
0.01974537
-0.007252946
-0.02221927
-0.03463627
-0.039709914
-0.016944323
0.037487842
0.085992135
0.093661144
0.06464065
0.037073553
0.015171088
-0.029236559
-0.07300888
-0.103646666
-0.11973257
-0.097036436
-0.07457809
-0.08530551
-0.089520045
-0.051261324
0.0012666163
0.00634115
-0.010479417
-0.006486517
-0.015178088
-0.03365341
-0.03774777
-0.038774833
-0.033352744
-0.0022458916
0.043955013
0.070181675
0.076525174
0.077123985
0.05744473
-7.128597E-4
-0.059040062
-0.04497199
0.033254836
0.1400936
0.2206374
0.19694206
0.13976166
0.1299385
0.13432272
0.099274665
-0.01811717
-0.12788962
-0.1795545
-0.22671218
-0.20286785
-0.14096962
-0.12098474
-0.088021405
-0.04808117
0.035493657
0.17919482
0.24733952
0.20155214
0.11912352
0.07083061
0.004767363
-0.18626879
-0.3934406
-0.4371383
-0.33661774
-0.2112137
-0.05054888
0.1574551
0.23156457
0.19215034
0.25399697
0.28190392
0.09561416
-0.0975136
-0.11660494
-0.10792929
-0.16557923
-0.1318258
3.8460194E-6
0.047315605
0.04872451
0.16055048
0.3222043
0.3734834
0.29984027
0.16918121
0.03757143
-0.04974023
-0.12348454
-0.17179988
-0.13315013
-0.06502932
0.02297648
0.10031795
0.0059480453
-0.18243453
-0.27847242
-0.29904664
-0.26196212
-0.18448478
-0.14372201
-0.10809603
0.007429173
0.14653479
0.1576304
0.040182836
-0.055719282
-0.049001016
0.025551192
0.09200508
0.14043456
0.17414235
0.13394357
0.08719308
0.13943651
0.24664173
0.32335496
0.23979431
0.03354298
-0.044010654
-0.042355943
-0.12785213
-0.18194535
-0.15150325
-0.122623965
-0.08375486
-0.016763454
0.030666105
0.025549429
-0.049788937
-0.21294135
-0.34002128
-0.27182865
-0.11084311
-0.024741357
-0.008850696
-0.0034326527
-9.6125744E-4
-0.026725836
-0.008760256
0.08871886
0.14614967
0.1575711
0.17085059
0.12794508
0.052392066
0.04401782
0.064278185
0.01774412
0.017693033
0.1251177
0.16959715
0.14444806
0.08882781
-0.033387665
-0.10974373
-0.108037874
-0.080817
-0.0320167
0.007861134
0.04515317
0.020496894
-0.08321619
-0.118626095
-0.05942206
-0.008168126
-0.05424655
-0.14830339
-0.13070194
-0.03521478
0.02328335
0.049605493
0.05127327
0.038559806
0.04204525
0.038017463
-0.014031791
-0.048150696
-0.014978248
0.0035328022
0.010743519
0.04203855
0.043333687
0.03138481
0.0241881
0.0018123502
-0.006763677
-6.923926E-4
0.001455395
-0.0017191932
-0.009713485
-0.018925168
-0.030081412
-0.027040502
-0.010163808
0.004282627
0.018541284
0.0158505
-0.0010306118
-0.0083325105
-0.018577997
-0.022818945
-0.0012808209
0.01564144
0.01105775
0.0019105038
-0.011722952
-0.029772742
-0.033951234
-0.012420556
0.030654563
0.09363487
0.16715032
0.1846556
0.08594347
-0.051318027
-0.096802674
-0.05740356
-0.012443593
0.015453154
0.0036631152
-0.044753034
-0.06756842
-0.053391196
-0.023551444
0.009593501
0.034870524
0.057979193
0.040874097
-0.03354498
-0.09631938
-0.106145605
-0.075776935
-0.057703186
-0.06726347
-0.043294564
-8.4476767E-4
0.020173531
0.040131576
0.041906647
0.024847783
0.02615287
0.039082494
0.047163397
0.04668216
0.032775793
0.015776219
0.0114921
0.008945895
-0.0042741136
-0.011110325
-0.005494814
9.6777343E-4
0.0050639543
0.0098732505
0.018017897
0.025680918
0.032397024
0.034749135
0.03415121
0.03730288
0.020360446
-0.015966555
-0.0342646
-0.036292445
-0.03663319
-0.034816917
-0.025802918
-0.009129096
4.2530306E-4
0.003971665
-2.0887916E-5
-0.018116323
-0.025199497
-0.018857349
-0.018491706
-0.016680969
-0.010030585
-0.0043668896
-4.9103185E-4
-0.0013977983
-0.0059089037
-0.00820141
-0.0043487
0.00240234
0.00371705
0.0028166492
0.009631832
0.022455165
0.04547136
0.08110036
0.096049756
0.066887416
0.013982306
-0.03355922
-0.0592757
-0.07072663
-0.069225535
-0.041736294
-0.0056626326
0.02218992
0.035346992
0.019065639
-0.011614692
-0.033955414
-0.040671695
-0.0312595
-0.020896293
-0.013900389
-0.008230576
-0.0044555743
0.0024739592
0.0033932407
0.0022087237
0.010875656
0.016890677
0.017046167
0.017074209
0.017268317
0.017351495
0.015132598
0.015348309
0.014148713
0.008790511
0.009360836
0.008374297
0.0010235958
-0.0023231208
-0.0031644064
-0.005264509
-0.006818577
-0.008568763
-0.011119852
-0.011580636
-0.010715195
-0.009985677
-0.0033698576
0.003708999
0.0017211292
-0.002623239
-0.004841654
-0.0049706036
-0.0044704797
-0.0069397986
-0.008334937
-0.008344225
-0.008810515
-0.008195056
-0.00905096
-0.0086481385
-0.0055897995
-0.0038768114
-0.0016897804
0.0010809491
0.0041054757
0.007877004
0.0074580126
0.0039715916
0.003867711
0.005587374
0.0052320203
0.004535011
0.0037559085
0.002787178
0.006005258
0.010860004
0.011506539
0.009685837
0.005696566
6.002944E-4
-2.4627184E-4
0.0024154675
0.0052344003
0.008091062
0.009091195
0.0067155347
0.004510709
0.0033373474
6.9280713E-6
-0.0029473093
-0.0033740508
-0.0048187994
-0.007988453
-0.010582576
-0.01096425
-0.010809997
-0.013304513
-0.01760137
-0.022223646
-0.025023447
-0.023687635
-0.019907827
-0.014270001
-0.0073331003
-0.0038907775
-0.006476567
-0.0075394427
1.8663298E-4
0.007845441
0.009776191
0.013275054
0.016216613
0.016587613
0.020311939
0.024329336
0.02494736
0.024956092
0.024440017
0.021263193
0.019166397
0.021214817
0.01794595
0.007880904
9.831962E-4
-0.0036997881
-0.0076654246
-0.010306076
-0.01280854
-0.012671428
-0.012882298
-0.014532632
-0.015537883
-0.017122846
-0.016428078
-0.014739135
-0.012705703
-0.008696547
-0.008460806
-0.0092940545
-0.0068881074
-0.0044837086
-9.984615E-4
0.0024522003
0.0035985853
0.0028040428
0.0012885047
0.0018602241
0.0028504063
0.0035288662
0.0043441835
0.0027883926
-4.032834E-4
-0.0034413538
-0.004495858
-0.0033327716
-0.0013892496
0.0012401795
0.0024250054
0.0038928923
0.007443406
0.010496341
0.012945021
0.010933998
0.0053672683
0.0033869082
0.0029609345
0.0048103705
0.010430267
0.01235621
0.009704599
0.0058407197
0.0010727262
-0.0017232706
-0.0012574742
-0.0012299346
-0.005796741
-0.012763455
-0.01440459
-0.011054
-0.00958727
-0.009734703
-0.0091798
-0.007877166
-0.0060670623
-0.006344291
-0.0058758613
-0.002307216
-8.798991E-4
-2.466979E-4
0.0016844962
0.0020976511
0.0022451044
0.002622514
0.0029323956
0.0021085963
-4.1759518E-4
4.5972003E-4
0.004655028
0.007962062
0.009838955
0.00846779
0.004121082
0.0012899752
9.2850556E-4
-0.0011297138
-0.002969033
-5.9575506E-4
-0.0013195192
-0.005284983
-0.0048108986
-0.004260399
-0.0048764925
-0.0026413877
-0.0019296018
-0.0035054088
-5.00134E-4
0.0056299972
0.005347351
-2.7748788E-4
-0.0041235634
-0.0059184283
-0.0051873517
-0.0038596645
-0.005123317
-0.0049738707
-0.0023094737
-0.001357962
-0.0015951693
6.2413444E-4
0.0027046592
0.0025795342
0.004111218
0.0042993426
0.0017596142
0.0016246605
0.0027899132
0.0046160948
0.0047137635
0.0018961043
0.0036673623
0.0053403853
-7.910694E-5
-0.003449825
-0.0020659305
-0.0026266635
-0.0040018065
-0.0024782685
-5.749561E-4
-1.6063057E-4
-4.4027637E-4
-0.002731348
-0.005404319
-0.0051026433
-0.0023123138
-5.222438E-4
-0.0014095862
0.0010646265
0.005484482
0.0029825084
-8.858744E-4
-0.0011781653
-5.592513E-4
0.001252819
7.484752E-5
-0.0012429431
0.0027512321
0.005101416
0.005660894
0.0051861675
0.0022174248
0.005640673
0.008677273
-5.8549095E-4
-0.009494854
-0.0081501305
-0.0036750997
-0.0028130107
-0.0029822248
1.6239818E-4
0.002444148
9.940439E-4
-0.002456174
-0.0040445076
-8.610046E-5
0.002708533
0.001820737
0.0016375791
6.95221E-4
9.192127E-4
0.0011076068
-6.633709E-4
-9.817289E-5
-4.7642735E-4
-5.8494316E-4
0.001915326
1.7159153E-4
-0.0014939152
0.0014830927
0.0030472775
0.0015681905
-1.5690012E-4
3.127502E-4
6.214345E-5
-0.0025438392
-0.0012708654
0.0021498867
9.914255E-4
-9.029715E-4
5.8807305E-4
0.0014031191
1.4239132E-4
-1.3031255E-4
1.590538E-4
-7.8332727E-4
-0.0020901412
-0.001986949
-0.0012135555
-6.785281E-4
9.1309607E-4
9.379715E-4
-6.6042476E-4
1.3393935E-4
1.6718802E-4
-4.9540645E-4
7.234786E-4
3.0222232E-4
1.709725E-4
0.0020995715
0.002187687
-1.7226195E-4
-0.002119639
-0.0013946218
-0.0010952916
-0.0016328562
8.8584103E-4
0.0032271682
0.00404887
0.005250784
0.0047675376
0.003061629
6.67401E-4
-0.0016098967
-0.0014921282
-0.0011138873
-0.0017777812
-0.0018850553
-0.001128279
-0.0011723663
-0.002096084
-6.1607943E-4
8.343347E-4
-8.587781E-6
0.001472495
0.0022983567
9.6875076E-5
-9.279588E-4
-0.0030489506
-0.00468152
-0.0029942982
-0.0030118648
-0.0030437403
-0.0017373599
-0.0017465464
6.943393E-4
0.0034297225
0.0027345223
0.00261725
0.0023101377
7.623961E-4
3.4735075E-4
-3.6302637E-4
-0.0018222459
-0.0023780656
-0.001554954
-3.9189588E-4
2.9874855E-4
0.0010547678
0.0020109336
0.0047961734
0.0071869376
0.005161501
0.0036254174
0.0031855553
3.837137E-4
-2.9220906E-4
2.3579525E-4
-0.0017610939
-0.0030916457
-0.0027688772
-0.0030832672
-0.003582748
-0.001285653
0.0014106507
0.0011167431
0.0012421822
5.5008155E-4
-0.0015630155
-0.0012517009
-0.0014812398
-0.0016884714
-8.828987E-4
-0.002100749
-0.0021708056
-0.001301618
-2.0602134E-4
0.0012446895
-1.7995633E-4
5.010124E-4
0.0021176678
9.527951E-4
0.0037367418
0.0038407808
-0.0019059255
-0.0014260387
0.0020396854
0.0023751406
0.002188531
5.395708E-4
-0.0017685301
-0.0029368554
-0.0023396732
-1.0821755E-4
8.2503236E-4
2.1497929E-4
-4.2162687E-4
2.3464419E-4
0.0025282744
0.0019173169
-0.0013400308
-6.9402443E-4
0.0010619547
-6.80376E-4
-8.258895E-4
4.3881097E-4
-0.0010654379
-6.742351E-4
0.0020091943
0.0016863777
6.561718E-5
-7.541304E-4
-5.1880203E-4
0.0012873269
0.0011129755
-0.0010993824
-1.6270531E-4
0.0026751123
0.0018220355
-0.001581264
-0.0022980531
-3.3031413E-4
0.0015780849
0.0021912002
0.0010309777
-4.5753543E-5
-0.001025851
-0.002597625
-0.001127024
0.0013491041
5.450559E-4
-3.69676E-5
3.3871632E-4
-4.5614397E-5
-5.3569116E-4
-0.002423352
-0.00310126
-5.3898036E-4
7.492179E-4
8.237623E-5
-5.377526E-4
-3.9068685E-4
0.0016217898
0.0033391975
0.0026957376
6.6186785E-4
-0.0012697853
-3.8005714E-4
0.002278038
9.686334E-4
-0.0030146104
-0.001442276
0.0038109056
0.0026109507
-0.0016216383
-3.3494472E-4
0.0018850472
0.0015941579
2.0201644E-4
-0.00211233
-0.0015269945
-2.286676E-4
-0.002614554
-0.0038532983
-0.0020197667
2.7445197E-4
0.0010248546
7.705653E-4
0.0027381245
0.003516918
0.0012989856
2.0871211E-4
-7.2131574E-4
-0.0017832741
-0.0020527183
-0.0018298385
-3.1364718E-4
7.0438406E-4
8.114834E-4
2.3340539E-5
-5.395945E-4
0.0016320635
0.0020025836
6.868696E-4
0.0013682017
-1.2258583E-4
-0.0025817286
-0.0025243957
-0.0015305268
-3.1665593E-4
6.9030887E-4
0.0027960204
0.0034062245
5.442577E-4
4.535945E-6
2.637367E-4
-6.4147875E-4
0.001514405
0.0022956629
-2.6185886E-4
-5.4555904E-4
-5.846142E-4
-0.0019252949
-4.350785E-4
8.682066E-4
-0.0012909338
-0.002062088
-6.9052394E-4
-0.0014039136
-0.0031716994
-0.0011416549
0.0025310055
7.9883065E-4
-0.0023102667
-0.0011984629
-3.0358363E-4
-9.932749E-4
-0.0015384299
-3.0733654E-4
0.0027941356
0.0034040152
0.002078208
5.935474E-4
-7.0811965E-4
3.7486508E-4
0.001027528
5.9821666E-4
6.022299E-4
-0.001482684
-0.002903338
-0.0012657115
-4.4750824E-4
-4.915966E-4
8.071907E-4
0.0016087322
7.075264E-4
-3.470001E-4
-2.784692E-4
7.891075E-4
4.9392576E-4
-1.6444804E-4
0.0016567468
0.0033974084
0.004072629
0.0025866881
-5.4774195E-4
-6.550127E-4
-0.0016528115
-0.0024134761
0.0014357411
0.0028435264
0.0029417647
0.002730502
-3.737035E-4
-1.772658E-4
-6.822481E-4
-0.00425011
-0.0035727678
-0.0016689269
-0.0018916479
-0.0026848593
-0.0026291092
-0.0013042812
-7.873497E-4
-6.5490324E-4
-5.477158E-4
-0.0010143917
-0.001289425
-0.0011307865
-7.899747E-4
-8.5297314E-4
-1.9307388E-4
5.745274E-4
8.8618055E-4
0.0021491514
0.0025057641
0.0023625463
0.0019733037
0.0010732944
0.0015613228
7.5445435E-4
-6.042388E-4
-9.5892063E-4
-6.0000794E-4
0.0016652044
0.0010208336
8.7762263E-4
0.0039480887
0.0028542997
0.0018176109
0.0016027876
5.342198E-4
0.0019927332
5.6377816E-4
-8.957886E-4
-2.0603095E-5
-0.0014910509
-0.0011512653
5.859836E-4
0.001871677
0.0011498375
-0.0023523008
-0.0018271876
-9.291299E-4
-0.0020799355
-0.0014096453
-0.00264134
-0.0033951506
-0.0035454847
-0.005015357
-0.003517266
-0.0019769778
-8.6428184E-4
2.2587435E-4
-9.2093146E-4
-3.8439603E-4
1.7966895E-4
-5.7927828E-5
7.327322E-4
-7.129916E-4
-8.208036E-4
0.0016838262
0.002344089
0.0022467275
0.0020142123
0.0030027532
0.0057973186
0.0057636304
0.0025694594
0.0014928024
0.0041657863
0.005234036
0.0026188293
1.1594752E-4
-0.002151556
-0.0031298322
-0.0015866659
-0.0016196581
-0.002708497
-0.0013463537
2.5857883E-4
-0.0012853934
-0.0032298837
-7.9431775E-4
0.0011326462
-0.0012928601
-0.0019208995
-0.0015280079
-0.0030754907
-0.0030207373
-0.0021685194
-0.0020830294
-9.773998E-4
0.001515292
0.0022762173
-9.281598E-5
1.1437282E-4
0.0018795112
4.335685E-4
5.2776956E-4
0.001005988
-7.064882E-4
3.7683587E-4
0.0015374876
2.9510568E-4
1.6840134E-4
5.4086186E-4
7.808786E-4
6.7455746E-4
1.657667E-4
0.0015696895
0.0019315563
-0.0015442756
-0.0020941934
0.0012241115
0.0012218935
4.589409E-4
8.817628E-4
-9.78145E-4
-4.7214126E-4
0.0014894805
-9.926322E-4
-0.0034752395
-0.0023691622
8.6633005E-4
0.0026885348
8.513061E-4
-1.3508988E-4
-1.2188252E-4
-0.0015694879
-9.394521E-4
6.824089E-4
2.6367395E-4
6.0320194E-6
-5.745881E-4
-0.0013598931
5.187617E-4
0.0012329634
-4.516288E-4
3.9661425E-4
0.0010342681
-3.2609256E-4
-1.989898E-4
6.870245E-4
0.0017922361
0.0016749384
3.7154407E-4
8.149039E-4
3.5801463E-4
-0.0010733806
-0.0013066407
-0.0017411662
-0.0020619615
-0.0020001298
-4.3717283E-4
4.1405443E-4
-0.0024202506
-0.0032144045
-0.0011320242
-1.2070028E-4
4.1139353E-4
4.539741E-4
3.4228197E-4
-8.4020506E-4
-0.0016227515
6.5794756E-4
9.063588E-4
-0.0012958649
-0.0010624466
2.3640439E-4
9.264101E-4
0.0021075977
0.0030650843
0.0026581394
0.003225197
0.00413293
0.0038545183
0.0059414417
0.0058988165
6.8008965E-5
-0.0040551457
-0.005282946
-0.006194557
-0.0052920245
-0.0014960935
0.001657145
-7.147194E-4
-0.0022508411
6.388272E-4
3.269608E-4
-0.0015970952
-0.0010707557
-7.0607883E-4
-9.7530254E-4
-0.0019221855
-0.002756672
-0.0012653013
0.0012787759
0.0019659116
0.0016964086
0.0025403788
0.002053036
-4.3968981E-4
-9.5212064E-4
7.363936E-4
0.0013314874