0.0018801574
0.0032010432
0.0018997703
0.0020457106
0.0017490489
-0.0016339439
-0.0032436003
-0.001746316
3.9060658E-4
-2.7685607E-4
-0.0012505197
-1.1126636E-5
-0.0012377215
-0.001274678
0.0011862108
0.0017950967
0.0021726436
5.511218E-5
-0.0018689589
3.6773177E-5
2.0272516E-4
-4.873021E-4
-6.964622E-4
-0.0014845949
-9.541147E-4
-3.807987E-4
-9.1100356E-4
-0.0019307556
-8.358393E-4
0.001461586
0.00114728
0.0014950993
0.0018259829
-5.793981E-4
-0.0017506641
-0.0011232758
-1.3441367E-4
2.0900923E-4
6.138922E-4
0.0022034694
0.0013328141
-1.6477155E-4
0.001181387
0.002243967
0.0021167735
9.87793E-4
-2.0678372E-4
4.9962394E-4
6.5334275E-4
-9.995496E-4
-0.0021834685
-0.0011914968
6.5506157E-4
-0.0011309411
-0.004371909
-0.0030861676
-8.3510927E-4
-6.3529104E-4
2.718726E-4
9.4023766E-4
9.991744E-4
3.881793E-4
-9.22132E-4
4.7325266E-5
3.6233745E-4
-0.0013853718
-8.769619E-4
0.0014067453
0.0039242683
0.0028859717
-0.0014655623
-3.673386E-4
0.0031070958
0.0023920415
0.0018761584
0.0016471063
2.8294398E-4
0.0014396517
0.002206452
-0.0020806908
-0.00623277
-0.0057685273
-0.003920253
-0.0020301533
1.4293091E-5
8.6887524E-4
8.817877E-4
6.191276E-4
4.4422995E-4
-6.136228E-4
-0.0022103484
-9.901648E-4
5.737005E-4
-5.098382E-4
2.34519E-4
0.0024975706
0.0017622989
7.202791E-4
0.00130353
7.947741E-4
4.0468015E-4
0.0018276355
0.0025067504
4.5338974E-4
-0.0014358668
-1.8548478E-4
5.8693107E-4
-2.2996111E-4
5.3753123E-5
-8.8656927E-4
-0.0020477863
-3.227823E-4
0.0012553649
3.613251E-4
-0.0012588283
-0.0010153344
-1.377725E-4
-3.1599084E-5
6.0664833E-4
3.361234E-4
3.158185E-4
7.4936275E-4
-7.0361287E-4
7.009773E-4
0.0027609288
1.895877E-4
-2.74138E-4
7.393427E-4
-0.00172511
-0.001977974
-5.047279E-4
-0.001506309
-0.0016419117
-0.001407439
-0.0017543472
-6.4307253E-4
-1.3986132E-4
6.456371E-4
0.0017686493
7.506074E-4
0.0010087307
0.0014668978
2.942734E-5
-2.9174468E-4
-4.2009662E-4
1.3525528E-4
0.0010315608
-1.3888991E-4
-8.4451464E-4
-5.120714E-4
-1.4216956E-4
1.08918306E-4
5.888651E-4
0.0018795443
0.0011279404
-5.5237516E-4
-2.8334785E-4
1.894055E-4
3.239855E-4
5.3700106E-4
0.0010844719
-0.0010455424
-0.0054796645
-0.0040086093
7.2036614E-4
0.0014782859
5.92422E-4
7.6560595E-4
0.0020072705
0.001965897
0.0019401283
0.0034694432
0.0015429709
-1.5962997E-4
0.0019122364
0.0011350585
-0.0016761197
-0.0028825232
-0.0025873228
-6.737863E-4
6.494843E-4
6.2229735E-4
-2.9901425E-5
-6.741986E-4
-8.324572E-4
-0.0011885642
-8.009846E-4
-7.895115E-4
-0.002010486
-0.0013715061
1.996524E-4
-3.0682384E-4
-0.0018131948
-9.64266E-4
0.0010007183
-2.014432E-5
-4.5430748E-4
6.770854E-4
-8.011926E-5
6.318221E-4
0.0019066561
0.0018096969
0.0022612542
0.001178915
4.269789E-4
7.500314E-4
1.7027964E-4
-4.4050485E-5
-0.0017609849
-0.0016870673
0.001662288
0.0012774253
-6.532913E-4
-7.726658E-4
-6.929425E-4
6.4456035E-5
3.6045763E-4
1.0054959E-4
2.604784E-4
4.7332782E-4
1.2775378E-4
3.09193E-4
0.0010986174
-9.454948E-4
-0.0017443283
-1.566183E-4
-0.0014854893
2.486053E-4
0.0030605374
3.283275E-4
-7.208748E-4
2.45797E-6
4.341342E-4
0.0019849653
7.2855374E-4
-0.0013871698
-0.0019109825
-0.0010185414
0.0014805264
0.0013759271
-2.215249E-4
-3.4885318E-4
-0.0013279462
-0.0021148007
-0.0014166016
-9.030214E-4
-9.474587E-4
-8.70323E-4
-4.229005E-4
-9.894306E-5
6.126314E-4
0.0018887548
0.0016572045
-3.0237372E-4
-0.0016887875
-0.0011423635
8.099798E-4
0.0015258756
4.940869E-4
5.671898E-4
0.0016130822
0.0019976338
0.0012940123
3.9426686E-4
0.0016306038
0.0014771802
-0.0019622403
-0.0024906895
-4.9674266E-4
-1.4034467E-4
-9.4756274E-4
-5.082848E-4
0.0020097173
0.0021463037
1.9945535E-4
-0.0010687369
-0.003021189
-0.0017953039
9.717239E-4
3.6644386E-4
-7.888747E-4
-0.00291627
-0.0022663763
0.0020482563
7.693063E-4
-0.0010145502
0.0018587598
0.003207987
0.00355943
0.0019922997
-0.0015035343
-0.002288298
-0.0026577096
-0.0033902095
-0.0025604526
-7.9994637E-4
0.0012071977
0.00142143
0.0013990683
0.002576725
0.0021116508
0.0013418299
0.0015100525
3.0522424E-4
-0.0016376595
-0.0016582324
-6.969882E-4
-0.0013882662
-0.0011335565
9.863119E-4
0.0015797174
0.0012268776
-3.163016E-4
-0.0018660793
-1.4227055E-4
5.2652205E-4
-0.0013873646
-0.0017155842
-9.0096024E-4
3.008981E-4
0.0020499048
0.0023661866
7.9272664E-5
-0.0025053418
-0.0029459414
-0.0017973024
5.109698E-4
0.001587233
5.248904E-4
0.0012137751
0.0021587391
6.631709E-4
-9.69453E-4
1.8496448E-4
0.0036677124
0.002060306
-0.002780069
-0.001506742
-1.937629E-5
-0.0012971393
0.0010510907
0.00354566
0.0030961316
0.0017541861
1.6270597E-4
-8.078006E-4
-0.0013057567
-0.0015696683
-0.003287486
-0.005185263
-0.002104654
0.0010736199
-2.8975026E-4
-4.5266666E-4
0.0011235287
0.001588236
0.0013460672
4.657265E-4
2.620617E-4
6.4124746E-5
-0.0011018184
-0.0014519647
-0.0020270916
-0.002210804
-6.240476E-4
-5.5656972E-5
3.6494652E-4
0.0016301856
0.0015312986
0.0012224927
9.366951E-4
6.187588E-4
0.0020468358
0.0033515731
0.0030559225
0.0023879423
0.0011741534
-0.0010966201
-0.0026127978
-0.001716691
1.352069E-4
6.977186E-4
-0.0016899232
-0.0034481492
-7.0000446E-4
-1.3122287E-5
-0.001045906
0.0014214297
9.268458E-4
-8.747624E-4
-2.5249444E-4
-0.0020228925
-0.0026185827
-0.0020943037
-0.002944121
-9.642072E-4
5.137725E-4
-5.8990503E-5
4.0065037E-4
9.083534E-4
0.0016294854
0.0022927404
0.0027894122
0.002387923
0.0011143415
0.001109935
2.9595954E-5
1.9313139E-4
0.0035612402
0.004242475
0.0034400227
0.0010815689
-0.0034442446
-0.0031716102
-0.0012080285
-0.0018781238
-0.002411003
-0.00383798
-0.0039288583
-0.0011605008
5.274402E-4
8.7419647E-4
7.6695654E-4
-2.4036202E-5
-0.0013947665
-0.0017324778
-1.2279954E-4
6.4558844E-4
8.247563E-4
3.751517E-4
-0.0014856897
-2.0460061E-4
0.0018199296
0.0010549839
0.0020717145
0.0027381137
5.7385094E-4
-1.6444469E-4
0.0014616972
0.0038970276
0.0047967965
0.003724306
0.0015095432
-0.0019801958
-0.0032452857
-0.0018484544
-0.0019588703
-0.0041043865
-0.0047607515
-0.001912182
-7.7427423E-4
-0.002064401
-7.2178146E-4
1.6514922E-4
-1.7723563E-4
2.1793516E-4
-4.6998207E-4
-8.6050667E-4
-9.48497E-4
1.8097274E-4
0.002252688
3.982065E-4
-0.0022686964
-0.0019227611
2.3782243E-4
0.002251252
0.0015242879
0.0012815058
0.0022900442
0.0024258012
0.003025296
0.0013337907
3.5514595E-4
0.0035418645
0.003543157
4.819401E-4
-8.5210305E-4
-6.975806E-4
0.0012570614
0.0019968585
-0.0015942624
-0.0048360433
-0.0036325648
-0.0025561145
-0.0017952605
0.0018545939
7.518758E-4
-0.0023550377
0.0011734497
7.779868E-4
-0.00410477
-0.0024206594
9.974798E-4
0.0020227595
0.0016843409
-0.0014336114
-0.0031859558
-0.0023991026
-0.002445541
-0.0015637425
4.116901E-4
0.0019720301
0.004154536
0.0051834616
0.0044654342
0.0040708925
0.0031416274
0.0014965597
-6.5950415E-4
-0.0037333004
-0.0056175278
-0.0043112966
-9.82596E-4
-7.544038E-4
-0.0028649238
-0.0013122723
-2.7971732E-4
-0.001702023
-3.3734075E-4
0.0012498465
0.0010769974
5.6258537E-4
-1.8508776E-4
4.1309666E-4
0.0015392025
0.0031071256
0.004316683
0.0011229905
-0.0020004928
-1.9602853E-4
6.385751E-4
-5.550104E-4
7.085095E-4
0.0013283924
0.0013299222
0.004092969
0.004468095
0.0035194992
0.0041113943
-1.7796815E-4
-0.0049023423
-0.0051065744
-0.006239267
-0.0057292185
-0.0024233586
-0.0011433671
-0.0018705571
-0.0037106825
-0.0043921657
-0.002994445
-0.0016049291
-1.210091E-4
5.419E-4
0.0014364412
0.0044833743
0.00554409
0.004027245
0.0036105516
0.0029387425
0.0010224396
-0.0011174196
-0.0023938187
-0.0018575246
-0.0018059515
-6.264382E-4
0.0019923968
6.657012E-4
7.704081E-5
0.0018124945
8.2926854E-4
0.002180755
0.0036900504
0.0019967575
0.0026418588
0.0012084685
-0.0034788304
-0.005659298
-0.005764852
-0.00403695
-0.0025315527
-0.0025439055
-0.0011810885
0.0017325863
0.0033711554
0.002492239
0.002366997
0.002108228
2.4540062E-4
5.274339E-4
-2.5869912E-4
-0.0021511938
-2.054305E-4
0.0014415982
2.4400993E-4
-0.0017772776
-0.002903406
-0.002258267
-8.7651354E-4
9.290571E-4
0.0015768113
0.0026492395
0.0036800508
1.06781416E-4
-0.0021477125
-0.0012151386
-8.993852E-4
0.0014808174
0.0014067668
-0.002508286
-0.0037591008
-0.0027810899
-0.0013297279
-2.9002328E-4
8.8715606E-4
0.0014987087
0.0010428032
0.0049583865
0.009604149
0.009330633
0.007949336
0.0054762918
0.0014010393
-0.0035382002
-0.008303181
-0.008896003
-0.0061692907
-0.0031345733
-0.0017162588
-0.0027112353
-0.0036713148
-0.0026508705
-6.971608E-4
-0.0011708394
-0.002076793
-0.0026430395
-0.0064155874
-0.0058563994
-0.001769547
-0.0031608723
-0.001345048
0.0041187275
0.0046156086
0.0046787597
0.0027125685
-0.0032400757
-0.0020778496
0.0063952026
0.009825015
0.008418451
0.0099706035
0.011790275
0.011057584
0.009762913
0.00556524
-0.0016446919
-0.007498921
-0.009935675
-0.009263284
-0.0065914947
-0.0043854513
-0.0039600404
-0.0016452841
0.0023879178
0.0033916342
7.717007E-4
-0.0042580925
-0.0046122284
5.5927737E-4
-0.0017409065
-0.009579198
-0.01117637
-0.006843684
-0.003918962
-0.0056931893
-0.005300307
-0.0026976403
-0.0015483544
0.002536934
0.0060676937
0.008675187
0.011849423
0.00930379
0.004473353
0.0014816002
0.002834694
0.0056774938
0.0021059986
0.002561997
0.0058126934
0.00305024
0.004607908
0.0032574346
-0.004153077
-0.0037009895
-0.0020557947
-0.0031026506
-0.0022825347
-0.0021866313
-0.002021943
-9.640405E-4
6.057973E-4
4.5760075E-4
-0.0012377255
0.0012249401
0.0063653747
0.008904167
0.0063788034
2.0810352E-5
-0.0053308005
-0.007371449
-0.0072553456
-0.009093124
-0.011366357
-0.008788759
-0.0059667784
-0.005478389
-0.0043397816
-0.0052255862
-0.007962669
-0.008272089
-0.007508737
-0.0069947457
-0.0043539037
-0.0018469197
4.614694E-4
0.008166024
0.015621919
0.014705629
0.011006744
0.01022523
0.012486427
0.019218976
0.025605584
0.02316832
0.017105743
0.012814034
0.009814136
0.015045201
0.017791064
0.004173612
-0.012632481
-0.028336814
-0.03930299
-0.032514375
-0.018991439
-0.010107206
-0.0066438178
-0.011151445
-0.01610838
-0.017977074
-0.01997024
-0.019585913
-0.015701832
-0.0092985
-0.0016812767
0.00517185
0.009361822
0.011519893
0.014139974
0.015927643
0.016440166
0.019457543
0.027086537
0.030230137
0.018856535
0.004573712
-0.002078041
-0.0064318036
-0.006050351
-5.218231E-4
0.0024544797
0.0029867396
0.0017541489
-0.0012027744
-0.002713561
-0.0043932493
-0.007400624
-0.0073866984
-0.004176987
-0.002631594
-0.0031127355
-0.0038576075
-0.008567843
-0.017069528
-0.01943842
-0.011639083
-1.3306302E-4
0.009403798
0.014013982
0.013596102
0.011807273
0.010338569
0.0065326677
-8.5256464E-4
-0.0067386003
-0.007685604
-0.008220877
-0.011093223
-0.011490044
-0.0058689206
-2.5383107E-4
2.3033636E-4
8.3317305E-4
0.0029055902
0.0023307223
0.0012818727
0.0017944167
6.469602E-4
-0.004743622
-0.010937381
-0.010790309
-0.005191348
-0.0034059938
-0.005389917
-9.2559116E-4
0.009341076
0.017020015
0.021241149
0.022649238
0.02025719
0.015661089
0.014448787
0.016032603
0.008917392
-0.0035889274
-0.010616009
-0.018220453
-0.02472753
-0.022597266
-0.018689461
-0.013557389
-0.0056038275
-0.002560214
-0.0019316999
-2.2297307E-4
-0.0028712733
-0.0039660344
0.0032000155
0.008644476
0.008288118
0.013119251
0.022884082
0.026204081
0.0233252
0.015855443
0.0032102254
-0.008854228
-0.021301143
-0.03110972
-0.0331996
-0.03498464
-0.033774644
-0.027578989
-0.019211607
-0.005573261
-0.0015971919
-0.0035764945
0.007902007
0.010527942
-0.0037781473
-0.011856084
-0.014017029
-0.014606276
-0.010662988
-0.0060111987
-0.0027941263
0.005726018
0.027167553
0.05541028
0.075209685
0.076864734
0.07461646
0.08808997
0.09995548
0.09039116
0.05977928
0.007017048
-0.051564224
-0.090518266
-0.1072077
-0.11031388
-0.091475174
-0.047358684
-0.0070057497
0.012471022
0.0069465493
-0.016027715
-0.024078796
-0.027879197
-0.038255464
-0.03264379
-0.026065983
-0.009751045
0.040096898
0.09012521
0.10864242
0.09272584
0.064048626
0.031994693
-0.026121728
-0.09900478
-0.14490432
-0.14167541
-0.11274555
-0.074646674
-0.012349496
0.055796135
0.12529589
0.15351881
0.08023511
0.020669963
0.029619057
0.0066815135
-0.04830025
-0.12171686
-0.18417211
-0.16104315
-0.08912908
-0.010926437
0.070316695
0.14406477
0.2279804
0.29096028
0.27991584
0.23739262
0.23293686
0.17304565
-0.05990961
-0.3077259
-0.3673674
-0.29217756
-0.25715652
-0.27435216
-0.18320994
-0.0072536757
0.13271427
0.23088236
0.19381191
0.063755035
0.014874425
-0.041434564
-0.1407134
-0.15605442
-0.11485947
-0.038411457
0.095106706
0.1771178
0.19392493
0.24168701
0.22954495
0.16541672
0.19607922
0.09466599
-0.24228725
-0.39918268
-0.23383725
-0.045485493
-0.015390363
-0.04030817
-0.012467846
-0.009485999
-0.048247907
-0.1055661
-0.22123203
-0.28127676
-0.20621595
-0.10567623
-0.031213138
0.069007434
0.20397188
0.2809404
0.28436035
0.2788666
0.21805349
0.11918164
0.070590146
0.054760117
0.0792678
0.104402095
0.021669442
-0.09120135
-0.12484593
-0.12628661
-0.099055804
0.00912012
0.1284322
0.1768925
0.17095348
0.04295662
-0.22734018
-0.39504716
-0.36426887
-0.28100953
-0.1711522
-0.07514392
-0.031598363
0.04218487
0.1321623
0.25748533
0.39937493
0.3467099
0.13912284
-0.030561715
-0.13513662
-0.14142987
-0.123633765
-0.18580325
-0.18151754
-0.05103302
0.017139718
-0.020528546
-0.05323533
-0.077606834
-0.05656486
0.060965285
0.17029794
0.23785384
0.2518968
0.1557923
0.024734974
-0.13498533
-0.27307093
-0.2117381
-0.058524124
0.022378072
0.07181285
0.101864204
0.11103016
0.115110494
0.09826319
0.049831536
0.0460292
0.14507027
0.16414185
0.00883861
-0.15904157
-0.2808082
-0.32826918
-0.25058547
-0.09735488
0.08575717
0.20958924
0.22841455
0.21818578
0.13681841
-0.047430534
-0.16400443
-0.13414809
-0.09018776
-0.06986232
0.008210129
0.08197788
0.07295044
0.04217321
-0.004831884
-0.09750972
-0.16170973
-0.13032058
-0.027577508
0.05658037
0.041215092
-0.028851995
-0.04397616
-6.585572E-4
0.03730243
0.04857356
0.03530845
0.002611216
-0.019691879
0.014338984
0.08373393
0.13131966
0.19284178
0.23803918
0.11491478
-0.10463822
-0.17168607
-0.072182015
0.005359217
-0.014612765
-0.051904783
-0.048154604
-0.0255708
-0.01574177
-0.023345396
-0.032491386
-0.036485568
-0.036834788
-0.03169583
-0.033183206
-0.037691657
-0.03155252
-0.0255301
-0.018254722
-0.003352766
0.009021309
0.019039564
0.027572995
0.0305008
0.03152606
0.032446846
0.032765713
0.029892378
0.025919486
0.027307937
0.02359964
0.011528742
0.0046541295
-5.5667308E-5
-0.005218013
-0.0077973274
-0.0126082655
-0.017102648
-0.018887896
-0.015740275
-0.009505442
-0.012219022
-0.014210518
-0.005491078
-1.8508932E-4
8.529692E-5
0.0014735565
0.0025934067
0.005523702
0.007228863
0.0041973605
0.0012634542
-0.0015544383
-0.008750922
-0.01727362
-0.018811088
-0.014234647
-0.01090207
-0.005938638
0.0031466596
0.00989246
0.017464852
0.027715063
0.02610891
0.011315304
-0.0018679772
-0.006788183
-0.0036062778
-1.516371E-4
-0.0011185239
-0.0013742965
-0.0027561293
-0.0018871799
0.0033801598
-0.0010693028
-0.009579034
-0.006591308
-0.0014315312
-0.001383824
-0.0015944082
-0.0016308947
-0.0015099949
-8.616836E-4
-9.4231893E-4
-0.0014417567
-1.5003876E-4
0.003140936
0.004512285
0.0037696243
0.0043977452
0.0049746796
0.0028244702
-0.0015755492
-0.0055942535
-0.0062438385
-0.0041098334
-0.0013672324
-2.987757E-4
-0.0012124578
-3.96741E-4
0.001358366
0.0020041943
0.0034840468
0.0036751498
0.0022406748
0.002902076
0.0051104296
0.0069434196
0.0077414666
0.008186628
0.007854396
0.0059873685
0.00577698
0.0067151175
0.005363834
0.0029724492
5.7665614E-4
-0.0024619664
-0.00554238
-0.0065856483
-0.0059647947
-0.0069814827
-0.008931662
-0.010430514
-0.011003624
-0.009681874
-0.008983207
-0.008103124
-0.006692182
-0.00806483
-0.008129537
-0.005740237
-0.0035797816
3.780103E-4
0.0027430004
0.0029337963
0.005511569
0.007511755
0.0070172898
0.006210548
0.005816007
0.0052289884
0.0034777573
0.0013421214
6.851716E-4
0.0029192374
0.0034493136
-2.2656546E-4
-9.606642E-4
-1.4658166E-4
-4.7430777E-4
0.0020104612
0.0022287455
3.157445E-6
-4.1754865E-5
-0.0010463089
-0.0016060101
-9.775974E-4
-0.0010798371
-0.0010228889
-0.001632236
-6.3231925E-4
0.0027328376
0.0058879107
0.0075307777
0.005460331
0.00198916
-8.9656934E-4
-0.0025309785
-0.0010675619
-0.0015237525
-0.0040245918
-0.0044342424
-0.003981246
-0.0016941658
-9.70166E-4
-0.003681943
-0.0056581334
-0.007576032
-0.006917595
-0.00499353
-0.0045587914
-3.1234548E-4
0.002158392
9.782208E-4
0.0021108924
-5.8585254E-4
-0.004822128
-0.0036559056
1.1995566E-4
0.003299524
0.0029488115
0.0053789294
0.009179917
0.0028366677
-0.003038312
-0.0024450747
-0.0032306586
-0.0029134054
-0.0023955808
-3.95387E-4
0.0043008323
0.0036998158
6.313499E-4
5.3441717E-4
0.0016653369
5.859412E-4
-0.0032073562
-0.0032547114
-0.0010396177
-6.314457E-4
2.2258585E-6
-1.0300027E-4
4.0079476E-4
0.0013200147
0.0018614249
0.0026378543
9.542253E-4
0.0017952323
0.0061042863
0.0064177667
0.0025987767
-0.002632813
-0.0063231257
-0.009432626
-0.011491098
-0.00921866
-0.0072193346
-0.003740634
0.001268736
0.0017671813
0.0011589931
-0.0021443022
-0.004808069
-0.0016977598
-0.002776228
-0.0046995576
-0.0024705415
-0.0036232253
-0.005081343
-0.0029737786
7.438701E-4
0.0027091226
1.5665482E-5
-0.0029038957
-0.0020078837
0.0022409507
0.0051672244
0.0036988547
0.003057724
0.0028155937
1.10636094E-4
-9.666107E-4
-0.001838103
-0.0045364816
-0.0045080013
-0.0026325877
-0.0023119543
-0.0015164156
-3.151088E-4
-2.1075965E-4
4.4432704E-4
0.0013195716
0.0014567015
0.0013987586
0.0013254628
0.0011516787
4.6009503E-4
0.0010164966
0.0018111885
-1.3283429E-4
3.5919074E-4
0.0034940229
0.0023844258
5.509019E-4
9.342911E-4
7.1680214E-4
0.0017039141
0.0018823309
-7.1730366E-4
-0.0017319104
-0.0022436015
-0.0027827038
-0.0014388775
-0.0013124741
-0.001088001
-1.8070561E-4
-0.0011951291
-0.0018166227
-0.003022112
-0.0028335792
0.0011632093
0.0012337328
-8.311687E-4
-3.60406E-4
-0.0020718556
-0.0023126975
0.001393169
0.0030206484
0.0027017843
0.002129815
0.0015593237
0.0026497631
0.0032163796
0.0018706851
0.0019770653
0.0030747936
0.0023188656
8.127751E-4
-7.648518E-5
-9.82195E-4
-0.0032083786
-0.004118384
-0.0012151388
4.2376338E-4
8.936847E-4
0.0031306804
0.0031292334
0.0026851147
0.0024532315
-0.0016721899
-0.0044627637
-0.003542058
-0.0037277795
-0.0034952948
2.4011633E-5
0.0028165025
0.0017492905
7.537347E-4
0.0010164166
1.5960429E-4
-4.17727E-4
-7.684334E-4
-0.0017717088
-0.0017692776
-6.7267887E-4
5.422601E-4
0.0016088232
0.0014917703
-9.827489E-5
7.1072227E-6
0.0011259089
-4.6113678E-4
-8.7847497E-4
0.0014704145
0.002330798
0.0017493438
0.0011920888
0.0015550242
0.0011365648
-9.473235E-4
-1.2642349E-4
0.001959947
0.0015123558
9.018228E-4
3.2363384E-4
-5.3829126E-6
8.415207E-4
1.545558E-4
-0.0018246422
-0.0017642281
-4.6600788E-4
-3.7532815E-4
2.3734027E-4
0.002256885
0.0021363767
1.236212E-4
1.5563068E-4
1.490279E-4
-0.0019189072
-0.0016496406
-6.378725E-5
-2.3535991E-4
1.0935239E-4
2.5737679E-4
8.8930054E-4
0.0015715072
-5.032142E-4
2.6572015E-4
0.0023883423
6.9295993E-4
-3.288505E-5
-0.0012851418
-0.003221942
-0.0013690013
0.0010470276
0.0014554019
-5.183639E-4
-9.946493E-4
9.471115E-4
-6.684324E-4
-0.0014739495
-1.3637135E-4
-8.741031E-4
-7.210744E-5
8.45869E-4
9.292503E-4
0.001886881
0.0019720434
0.0016135502
7.668976E-5
4.961787E-4
0.0018807357
-0.0014809852
-0.0022541762
-1.9235449E-4
-0.0011013508
-7.4468495E-5
0.0015049925
4.477167E-4
-0.0016530055
-0.0022267015
0.0012040072
0.003279171
0.0029448003
0.0024038968
-0.0014055376
-0.003974381
-0.0028349254
-0.0016997217
-1.5057053E-4
-3.4945817E-6
-0.0013638635
-7.196824E-4
7.7594456E-4
0.0016504248
0.0027712404
0.0034086998
0.0038831914
0.005523357
0.0041877585
-6.5147504E-4
-0.001772456
-5.856837E-4
-0.001775995
-0.0030347726
-0.0033596554
-0.0033475033
-0.0024036858
7.022027E-5
0.001043314
-0.0024067033
-0.00404175
-0.0011601095
3.503343E-4
-3.858678E-4
-5.551582E-4
0.0013881784
0.002424782
-2.604839E-4
-0.0020772577
-0.0019159502
-3.37702E-4
0.0026305863
0.001467382
-2.0180519E-4
0.0018659648
0.0012377071
9.263201E-4
0.0041366955
0.0045044594
0.0029081763
0.0017482823
-6.9063425E-4
-0.0018400878
2.1093768E-4
0.0018156096
9.952988E-4
-3.1454614E-4
-0.0024503253
-0.004756116
-0.004157008
-0.0024834885
-0.0013068335
9.796345E-4
0.002608242
0.001761436
0.0016970298
0.004377062
0.004910718
0.0015802872
-0.0013607511
-0.0027718141
-0.0026614845
-0.0018619336
-7.1648776E-4
0.001049677
-4.3738805E-4
-0.002551772
-0.0016229433
-0.0016163661
-0.0015337975
-0.0011639049
-0.0016255447
-0.0012212163
-0.0023141096
-0.0025011157
-4.285569E-4
4.4460685E-4
0.0016120042
0.001880346
0.0018892068
0.0021203868
-1.4614574E-4
8.864113E-4
0.0031735466
0.0014945625
0.0021708687
0.0034944103
0.0031616676
0.0042711315
0.0035161807
9.1274676E-4
-0.001763584
-0.0030270503
-5.294703E-4
3.6549155E-4
-0.0014161288
-3.5715106E-4
0.0010176108
-2.80796E-4
-0.0010147644
-3.601168E-4
-0.0014150495
-0.0028619368
-0.0015268474
-1.7622928E-5
7.114004E-4
6.1242655E-4
-0.0018365078
-0.002123475
-4.8457374E-4
-0.001024064
-3.9924856E-4
4.1528206E-4
-9.405329E-4
-0.0016166113
-0.0012868766
7.6218706E-4
0.0017913432
-0.0012636782
-0.0022735267
6.079142E-4
0.0030482823
0.0036011874
0.0020076374
3.4502358E-4
4.4839305E-4
7.21854E-4
-7.679414E-4
-0.0030450348
-0.0031806978
-7.7143137E-4
0.0023062595
0.003028698
0.0018751016
0.0025272737
0.0021789542
1.6561367E-4
4.7949064E-4
5.1136303E-4
-0.0016249797
-0.0037725596
-0.0036344752
-0.0013137541
-2.717973E-4
4.3179232E-4
0.0010323813
4.964216E-4
0.0019262956
0.003697768
0.005806912
0.008099809
0.0043194653
-3.9411674E-4
-2.4703634E-4
-5.2069017E-4
-0.0017058875
-0.0025436191
-0.0035424363
-0.0044138585
-0.0060420427
-0.0058435756
-0.0026789322
2.3841814E-4
0.0016695204
0.0011538778
-6.685744E-4
-0.0011499281
-4.4389514E-4
-0.0014200882
-0.0031251495
-0.0023711517
-4.0678406E-4
5.051899E-4
-2.3113421E-4
-0.0011264967
9.6207845E-4
0.004152957
0.0049247183
0.003517349
0.0022135545
0.0035809635
0.004875134
0.003604958
0.001946743
9.074486E-5
-4.1635238E-4
-4.0883743E-4
-0.0027693121
-0.0032101509
-0.0017862573
-0.0013320417
6.403305E-4
0.0012274409
-0.0013974451
-0.0030475678
-0.0025167079
1.3807682E-5
0.0016087793
2.0166377E-4
1.0311096E-4
0.0013710832
8.510292E-4
1.5819518E-4
-3.118401E-4
-8.366928E-4
6.9031026E-5
5.167526E-4
1.14933646E-4
7.067495E-4
-1.3762483E-4
-0.0013798986
-4.8099158E-4
-6.577445E-4
-8.1523217E-4
-2.5210476E-5
-0.0010052085
-4.0739536E-4
0.0012317591
0.0013563896
0.0029172678
0.0019770942
-0.0021852672
-0.0010450924
0.0024468338
1.1276132E-4
-0.00268979
3.9389136E-4
0.0025977613
8.6906826E-4
9.719943E-4
4.8547596E-4
-0.0026140881
-0.0034802603
-0.0028624062
-0.00325684
-0.00332905
-0.0018362909
-4.2435445E-4
3.1423464E-4
0.0016181655
0.0012673587
7.6162425E-4
0.0018636283
0.0012210765
3.1056374E-4
-4.7024697E-4
-9.025962E-4
3.5653842E-4
2.8984252E-4
0.0017995714
0.0039709974
0.002739436
0.0035161548
0.005470047
0.0059318054
0.005381805
0.0024700442
-3.6631856E-4
-0.0035987957
-0.0050106524
-0.0029838863
-0.003463986
-0.003710085
-0.0021798897
-0.0016992628
-6.2416313E-4
-6.592298E-4
-0.002061683
-0.0043688966
-0.0050872434
-0.0010085066
0.0019818218
0.0025393004
0.0026697894
0.0011743578
-1.7691332E-4
-0.0011461355
-8.213982E-4
-7.845751E-5
-4.2782358E-5
0.0010974623
4.298106E-4
-2.6592414E-4
0.0015811215
0.002503207
0.0023541462
0.0012843566
0.0015239597
0.0022193932
4.819205E-4
4.7010096E-4
-0.0018157448
-0.007556829
-0.0071591716
-0.0019463333
0.0022443326
0.002091483
-3.7840905E-4
0.0017841511
0.0037435913
0.0010199937
-8.8450254E-4
-9.4435184E-4
-6.1784097E-4
-1.5275103E-4
6.163413E-4
0.001710183
0.0016575381
0.0026992583
0.0056346
0.0061570434
0.003528619
-4.492718E-4
-0.0028281356
-0.003176185
-0.005309128
-0.0051227543
-0.001611328
-0.0015227128
-8.433908E-4
0.0015605198
0.0017338817
0.0017824528
-6.0217193E-4
-0.0024003119
-2.3425842E-4
3.1448813E-5
-3.9575653E-4
-0.0018107796
-0.004900148
-0.003939468
-5.8280997E-4
0.0015054139
0.0015942784
0.001727031
0.0024908674
0.001035935
0.0014014
0.0019539555
-5.4621295E-4
1.2366746E-5
0.0011885755
9.886422E-4
0.002050393
0.0019544396
9.555626E-4
-7.0985826E-4
-0.001535693
-0.0013143306
-0.0025418557
-0.0021660053
-0.0015938019
-0.0017063792
2.2234955E-4
8.4695214E-4
0.0014378021
0.0026868049
0.0013235508
2.9586875E-4
2.4019489E-4
-1.5252488E-4
3.0803835E-4
9.807695E-4
0.0011757876
4.3019827E-4
-8.51742E-4
-3.4735978E-4
0.0012961017
8.202839E-4
-8.602499E-5
3.718318E-4
-9.0040703E-4
-0.0016955099
1.14994975E-4
7.0763525E-4
0.0011576505
0.0032812061
0.0028181297
-0.0027834377
-0.0069215875
-0.0046703997
-0.0023923065
-0.0018506143
-9.604596E-4
-8.08854E-4
7.251871E-4
0.0011422985
-7.758893E-5
7.7831466E-4
4.3723415E-4
3.8770356E-4
0.0017396952
8.9951244E-4
0.001853003
0.0038021703
0.0020473662
-7.192133E-5
-9.721814E-4
-0.002263374
-0.0022964291
-4.7143677E-4
5.050943E-4
0.0013004293
0.002500062
7.860207E-4
-8.6622045E-4
4.286016E-4
-5.7662633E-5
-0.0019194386
-0.0012268899
-4.7153288E-5
2.5417012E-5
0.0011904904
0.0012690542
-0.0015724263
-0.0018293313
3.657126E-4
1.7604232E-4
-2.5448587E-4
5.007807E-4
-6.266016E-5
-7.279201E-4
0.0014538213
0.0035963524
0.0027638534
0.0012729146
-8.967677E-4
-0.0022665872
-0.0012611991
-0.0022039851
-0.0035384945
-0.0016841857
7.3806103E-4
0.0013236095
5.434354E-4
0.0011431804
0.0020602637
0.0019575679
0.0018867955
-4.3628813E-4
-0.0017842418
-3.09897E-4
-8.3807105E-4
-6.153675E-4
0.0011451015
5.623547E-4
-2.0298825E-4
-2.9788067E-4
-5.882132E-4
-3.2338026E-4
-0.0013744836
-0.0037606223
-0.0030233369
-0.0010842402
-0.002193887
-0.0014152043
7.0833875E-4
-8.91921E-4
-0.0014840252
2.8589182E-4
0.0013245343
0.0011400081
-2.8151107E-5
0.0017790463
0.0048277196
0.0039799823
0.0021294302
9.607159E-4
-1.4823888E-4
7.6493487E-4
0.0031572897
0.0043307077
0.0043329406
0.0032828085
-8.882922E-5
-0.0029082096
-0.002959769
-0.0022615495
-0.0022237282
-0.0028918877
-0.0019687212
-0.0017200441
-0.004507551
-0.0031353503
6.9965847E-4
-3.4631664E-4
-0.0013074231
7.7167223E-4
0.0019360292
9.1092836E-4
-0.0011999337
-0.0023793
-0.0014054913
-2.3939749E-4
-0.0013399113
-0.0018897916
7.522057E-5
7.6841505E-4
3.4017496E-5
8.6517824E-4
0.003034904
0.0044414196
0.004201586