0.0010567303
-0.001246952
-7.515285E-4
0.0017243187
0.0023500582
0.0016691746
0.0026219864
0.0010287459
-0.0016105984
-7.6093456E-5
0.0012197727
0.0010049179
0.0014481486
4.761542E-4
-3.40832E-4
5.403539E-4
0.001156221
0.0017821038
0.0012598194
-9.7629527E-4
-4.743318E-4
0.0013389857
-9.346278E-6
3.684875E-4
0.0034284573
0.0028301529
7.8780187E-4
7.629198E-4
2.3319844E-4
-0.0016053885
-0.0028790266
-0.0011657233
5.5252964E-4
-0.0027693135
-0.005717901
-0.0035561412
-0.0021990107
-0.0031347314
-0.002169011
-4.3257122E-4
8.2322967E-4
0.0012863576
-4.2595438E-4
-7.7662343E-4
3.2990696E-4
-4.0737182E-4
2.0381043E-4
0.0021756727
0.004286202
0.0067994813
0.0067361137
0.008530925
0.01091435
0.005306645
1.0338699E-4
-2.8322436E-4
-0.002833978
-0.0050272117
-0.006221542
-0.007311084
-0.006279092
-0.005946776
-0.0056816763
-0.0040353453
-0.0027084874
-0.0016605996
-0.0017795677
-0.0030712087
-0.004825785
-0.0049938755
-0.0020396858
-9.2028955E-4
-0.0018814964
-8.314899E-5
0.0025414831
0.003456862
0.0043533556
0.0070616542
0.009763667
0.010052671
0.009589631
0.008505414
0.0058702873
0.0041245706
0.004734794
0.0042214273
2.381527E-4
-0.0022422166
-0.0032667983
-0.0061496124
-0.0058950144
-0.0038746945
-0.0045628143
-0.005093651
-0.0049351
-0.003257182
-8.4499654E-4
-9.02616E-4
-0.0027115922
-0.0055959593
-0.006255406
-0.0047109467
-0.0042427443
-0.0012781201
0.0018423389
0.0014946499
0.0021319354
0.0032489288
0.003526316
0.0041024196
0.003938607
0.0031710987
0.0016301969
1.7969617E-4
5.219537E-4
0.0015693752
0.0022334708
0.0017968225
0.0011671844
0.0016352085
5.649438E-4
-4.8001276E-4
0.001954697
0.002259096
1.0904504E-4
9.758479E-4
1.4704813E-5
-0.0038726435
-0.0050316337
-0.0034628254
-0.0014492285
-0.0027322068
-0.0041225823
-0.0010858697
-6.548938E-4
-0.0013833565
0.0015267459
0.0021173717
0.0010514784
9.618849E-4
6.091966E-4
0.0016242348
0.0022530535
8.532723E-5
-0.0025408864
-0.0023682336
-6.349002E-4
-3.5140986E-4
5.749278E-4
0.0022956275
0.0036617639
0.0060905735
0.0063193073
0.004860425
0.0057076067
0.0041503436
-0.0012640181
-0.0057310574
-0.008442525
-0.008259821
-0.0058910944
-0.004644081
-0.0026518442
-7.754423E-4
-0.00231342
-0.0029331069
-9.850431E-4
-2.0235097E-5
0.0018053905
0.004271535
0.0024093157
-3.820693E-4
3.6599583E-4
7.46052E-4
0.0013513962
0.0027592583
5.0485757E-4
-4.5249297E-4
0.0013839076
-1.9789896E-4
-8.525675E-4
7.4835744E-4
5.9596315E-4
0.0025289885
0.004624379
0.0027391277
0.002128873
0.0032372503
0.0015912154
-0.0013114505
-0.0028865458
-0.0026749773
-0.0030390085
-0.0057345866
-0.0051813126
-0.0017948123
-0.0015184807
1.0626994E-4
0.003881872
0.005002218
0.0048727454
0.0033488113
2.1508143E-4
-0.002540927
-0.003378523
-0.0027972127
-0.003307835
-0.0025097765
-0.0014346074
-0.0018249954
-3.7625345E-4
-3.5081175E-4
2.2987817E-5
0.001607548
-0.0011565479
-7.427907E-4
0.0022718718
5.8180245E-4
-1.18733245E-4
3.1553968E-4
4.3378968E-4
9.999427E-4
0.0010020232
0.0026011292
0.0028224876
0.0022275231
0.0037530642
0.003492202
0.002001066
-8.1267837E-4
-0.003964514
-0.0025201694
1.04688115E-4
2.6559603E-4
-7.7264284E-4
-0.0013612122
-3.832519E-4
-2.0977674E-4
-0.0015828571
-0.002596646
-0.002983613
-0.0015276305
0.0025414606
0.004826561
0.004073061
0.0050025326
0.0044561033
0.0013598999
0.0018514103
0.0016605847
-6.875559E-4
-4.353451E-4
-8.407885E-4
-0.0026854817
-0.00348183
-0.003488673
-0.005261467
-0.008921457
-0.009087563
-0.0073410636
-0.0063742376
-0.005021473
-0.005389336
-0.003912459
-1.2786816E-4
0.0013740914
0.003269529
0.005338317
0.0058835507
0.005968151
0.0060767834
0.007193192
0.006628779
0.005494678
0.008165483
0.010691649
0.008886573
0.0064330646
0.008261452
0.010656374
0.008365553
0.0035921186
-0.0030767813
-0.012278597
-0.02132647
-0.024561008
-0.018305281
-0.009775673
-0.0048182434
-0.0024000765
-0.0034245548
-0.0053943573
-0.0054776636
-0.004819214
-0.002646221
0.0019634007
0.006995823
0.010673567
0.013554189
0.013389389
0.010034343
0.0078399
0.00554785
0.004107495
0.0037306931
3.5401663E-5
-8.104494E-4
0.0020962355
0.0012481576
-0.0014121513
-0.005068936
-0.009219641
-0.009986789
-0.008259487
-0.00679498
-0.006954564
-0.006121493
-0.004054328
-0.003211719
-0.002214083
-0.002304754
-0.0017693934
0.0013002434
0.0034314783
0.0062453165
0.008002172
0.0069585308
0.007240113
0.007173131
0.00728539
0.007350532
0.0038349763
0.0010832202
6.4635655E-4
-5.229393E-5
-0.0013224002
-0.003466987
-0.0052541485
-0.005774072
-0.0042803693
-0.003203548
-0.004241845
-0.0031912543
-0.0019329786
-0.002186716
-7.7737874E-4
2.206546E-4
7.2878785E-4
0.0019227093
0.0028781642
0.0038339407
0.0035711841
0.0035836736
0.0037078501
0.0017018616
8.6903234E-4
9.5846714E-4
-0.0012208488
-0.004036959
-0.0048094816
-0.0036422592
-0.003098657
-0.0020893181
6.455889E-6
-6.111921E-4
-0.0023155457
-0.0025390896
-0.003208182
-0.0036820685
-0.0027176419
-0.0017511871
-9.875284E-4
4.0620068E-4
7.7967014E-4
7.4961944E-4
0.0028706347
0.0041677714
0.0039481977
0.004924028
0.0052489047
0.0045176893
0.003695161
0.0025978812
0.0029974603
0.0045519914
0.0035958118
-3.2043063E-5
-0.0010124322
-2.6435094E-4
-0.0024236052
-0.0037009027
-0.0038298895
-0.003980931
-0.001528315
-0.0012845745
-0.002202657
-6.870778E-4
-0.0013285086
-0.0010821366
5.9807894E-4
-6.590229E-4
-0.0010760404
-1.3555084E-4
-8.619927E-4
-0.0042883046
-0.0072437795
-0.005552812
-0.0036192562
-0.0012634102
0.0040912307
0.006228594
0.0056490987
0.005680409
0.003906345
0.0010838156
-2.5838742E-4
2.3670439E-4
7.970925E-4
2.8027408E-4
-2.7516234E-4
-3.0124217E-4
-3.8720507E-4
-3.8726974E-4
0.0012720852
0.0021992298
0.0014328662
0.0025053474
0.0026549725
5.4835936E-4
-9.3536417E-4
-0.0010126238
0.0010485087
0.001610155
4.9684494E-4
-9.510333E-4
-0.0046903566
-0.0045077666
-0.0019292942
-0.0023148116
-2.229654E-4
0.001249099
1.0057502E-4
5.1508454E-4
-1.2481088E-5
-0.0010860274
-0.0019677214
-0.002535801
-0.0024724388
-0.0036315385
-0.00260894
-6.2126666E-4
-0.0010900443
-0.0010047661
-8.8387175E-4
1.1655518E-4
0.0017320134
0.0013225534
0.002368665
0.0026368059
4.4853459E-4
0.0012039526
0.0023894482
0.002174254
0.0033072028
0.0035530208
0.0029470674
0.0041289167
0.004738335
0.0033834788
0.0036909266
0.0032118633
-0.0011977372
-0.0024228352
-0.002112878
-0.0053841844
-0.005774085
-0.005264007
-0.0055427034
-0.0019791692
-9.940715E-4
-0.0024937852
-0.0019318694
-0.0029374252
-0.0027023684
-7.352663E-4
-8.7877683E-4
-6.236338E-4
3.49791E-4
2.5397333E-4
-6.3597935E-4
-3.1275352E-4
0.0016155568
0.0024949997
0.0025870455
0.0022120257
0.0025140506
0.003795846
0.0022635618
0.0013944072
0.003003133
0.002442672
0.0018451246
0.0013246016
2.5821E-4
0.0019331294
0.0021547524
-7.2640425E-4
-0.0010609297
-4.2058545E-4
-0.0030043419
-0.0052024242
-0.0036223738
-0.0020054062
-0.0016918747
1.5041116E-5
0.0010549842
-2.982842E-4
-0.0011211149
-9.81643E-4
-0.0017013234
-0.0020942006
-8.3743455E-4
6.4745545E-4
0.0011582366
0.0012882244
0.0020516298
9.735357E-4
-0.003719205
-0.005324613
-0.0021735693
-0.0010457799
-8.795306E-5
0.002040221
0.0015544676
0.0025790953
0.0055696494
0.0052642194
0.0034148698
0.001882014
5.520288E-4
2.4659634E-5
-2.226736E-4
3.984302E-5
-6.0544774E-4
-0.0018661186
-0.0017421312
-0.0023897393
-0.0021109933
6.01268E-4
0.0019424064
0.0032711055
0.0036966165
4.2399167E-4
-7.4788934E-4
-1.6170565E-5
-0.002395811
-0.004278579
-0.0045457412
-0.0048160595
-0.002620861
-0.0011209712
-0.0031145436
-0.0024620444
0.0012162243
0.002182379
0.0015728758
0.001554528
9.893968E-4
0.0010965042
0.0025319438
0.0030049689
0.0018401355
9.6375943E-4
0.0018292641
0.0022956082
-7.745477E-5
-0.0022793545
-0.0025100005
-0.0024820687
-9.5840887E-4
0.0015138969
0.0027635836
0.0018705513
-0.0018076341
-0.0035252383
-0.0023116823
-0.0022989223
-0.0016876243
-0.0010920797
-2.7908327E-4
0.0022918084
0.00150366
5.1549554E-4
0.0029922908
0.0033730546
0.0018401165
9.790308E-6
-6.649283E-4
0.0016880921
0.0029623178
0.0022483421
0.0016566562
0.001435603
0.0013375912
-8.8344933E-4
-0.002781068
-0.0013352362
-0.0010375993
-0.0022596566
-0.0013045509
4.8930245E-4
0.0020447613
0.0020916786
-7.51531E-4
-0.0026119165
-0.0026326478
-0.0033065195
-0.00415309
-0.0050025075
-0.003713671
-0.0010014179
-7.979933E-4
-2.1050757E-4
0.001130982
6.3794624E-4
-1.7757186E-4
-0.0010461434
-3.791593E-4
0.0012203658
3.6280035E-4
-0.0021475547
-0.004987299
-0.0052119284
-0.0024647226
-0.0010400069
3.5952017E-4
0.0039360053
0.008021441
0.0100517785
0.0092285145
0.008192826
0.0066543333
0.0041466774
0.0020997336
2.8756444E-4
7.835914E-4
0.0024492585
0.0022812388
0.0020513816
0.0017020819
7.435794E-4
-0.0016763789
-0.0062242993
-0.008431596
-0.007947393
-0.006275975
-0.0018846518
0.0012464575
7.022727E-4
-3.544647E-4
-7.5120485E-4
-0.0015393803
-0.0047356426
-0.008585681
-0.008606252
-0.0058814106
-0.004085257
-0.0039249295
-0.0030003302
8.085114E-5
0.0015304623
7.187348E-4
0.001845039
0.003756208
0.0050926385
0.006328909
0.003961917
6.6660217E-4
0.0019013548
0.0035436354
0.00245835
0.0016293383
0.0028686484
0.0037155033
0.0015108055
8.697979E-4
0.0037971823
0.0051760767
0.0059365705
0.008198693
0.009045174
0.006853236
0.0027697755
-2.7052145E-5
-0.0024928409
-0.007370955
-0.010084597
-0.009514348
-0.009649424
-0.008022666
-0.005052121
-0.004689372
-0.004259489
-0.0033791843
-0.003282068
-0.004994716
-0.00995568
-0.0074216267
0.0025011734
0.004888097
0.0050606513
0.006317086
0.0048517776
0.007600714
0.0080400305
0.005127794
0.007983818
0.008322778
0.004961713
0.0015058387
-0.0031532547
-0.0040820646
-0.0057439473
-0.009472725
-0.009086243
-0.0059106112
0.0010505255
0.005546581
5.312532E-4
-0.0036816294
-0.0035344616
-0.005514578
-0.0050200834
9.88587E-4
0.00144002
-0.003847909
-0.0038552969
-5.4046063E-4
0.0056736087
0.0129354205
0.009943045
0.0037049009
0.0037237704
0.006564462
0.011964516
0.014390869
0.012616897
0.011422358
0.0038124213
-0.006868641
-0.011114225
-0.015860979
-0.020265557
-0.01692163
-0.013141338
-0.012244742
-0.008742022
-0.004287361
-0.0015400553
3.440779E-4
0.0010227287
0.0016065718
0.0035596532
0.0062663998
0.009290935
0.009463905
0.0029216965
-0.0054974314
-0.007540159
-0.0018892514
0.004914059
0.0051680664
0.0035177201
0.007175434
0.010135124
0.008915711
0.005731498
0.0018907002
7.114574E-4
5.259751E-4
9.571288E-4
0.0018617572
-3.2213633E-4
3.5210702E-4
0.0034142402
0.002592907
9.224E-4
-0.0035101257
-0.007802891
-0.006496814
-0.0048342557
-0.0025182993
-7.722386E-4
-8.19119E-4
-9.8905824E-5
-0.0059303325
-0.012642552
-0.009805388
-0.0059361774
-0.0035304977
-0.0022798309
-0.00496037
-0.0061299764
-0.0064070285
-0.006968252
-0.005273793
-0.0031466535
0.002025951
0.007605764
0.00872414
0.010083131
0.010784935
0.012459774
0.018518351
0.018980876
0.011708975
0.0056974883
0.0050900844
0.0032463907
-0.0063875183
-0.009813352
-0.0037146886
-0.001840604
6.5147685E-4
9.785187E-4
-0.006004271
-0.006154725
-0.0023159708
-0.001965864
-0.004513535
-0.01225196
-0.013909264
-0.007841885
-0.005068166
-0.002346086
-3.110491E-4
-0.0010839005
3.325107E-4
2.90683E-4
-0.003738232
-0.00515378
-0.00227919
-0.0015908479
-0.0039206375
-0.0038084108
-0.0011706835
0.002384948
0.007882094
0.012889161
0.0119946785
0.008826053
0.010267818
0.009223265
0.003117035
-0.0013898808
-0.006120081
-0.008467562
-0.006033873
-0.0040728753
-0.0024194974
-8.101137E-4
0.0033259515
0.008180786
0.0051868604
0.0031114935
0.008168409
0.007468488
-0.0022303432
-0.010507797
-0.012617884
-0.013985372
-0.016258894
-0.016632894
-0.018307596
-0.020944076
-0.0194199
-0.014681226
-0.007602495
0.003549292
0.013312073
0.019816315
0.026094452
0.023153793
0.013942631
0.01131911
0.010089902
0.009075452
0.009088089
0.007819688
0.008691847
0.0047418484
-0.005104817
-0.012384409
-0.01629726
-0.019694358
-0.024843689
-0.016757905
0.014575049
0.045251872
0.057723034
0.061233692
0.05905263
0.04748769
0.03204312
0.009569119
-0.010771383
-0.01265298
-0.022412393
-0.048167277
-0.06389991
-0.061276287
-0.036364198
-0.0044972654
0.024890618
0.052991595
0.055590242
0.035692092
0.015789663
-0.0014456282
-0.03867448
-0.09829955
-0.11747935
-0.10017986
-0.09490741
-0.08013178
-0.058361027
-0.037298806
-0.013070102
-0.007250423
-0.009764915
-0.010213011
0.012636417
0.076457895
0.14131176
0.17483392
0.14224914
0.046681687
-0.023741316
-0.034024857
-0.035289258
-0.06638269
-0.08406901
-0.0059433924
0.12704083
0.18758047
0.18807521
0.20868127
0.22172461
0.20264992
0.12119403
-0.061203063
-0.24921101
-0.35313827
-0.32491052
-0.1936364
-0.1329221
-0.13124187
-0.07351814
0.029905684
0.14726792
0.15455534
0.05254407
-0.010204149
-0.05733703
-0.11488317
-0.16212055
-0.14873186
-0.035270724
0.016743625
0.0139757525
0.12420021
0.20847312
0.12195469
0.05102693
0.17497739
0.32502714
0.27684548
0.050019726
-0.26444933
-0.47542164
-0.42440623
-0.25839394
-0.12519568
0.0053414395
0.1613866
0.24009527
0.12604749
-0.020230358
-0.015887858
0.032954723
0.021582684
-0.003861275
0.01785798
0.073082164
0.09007994
0.0745168
0.08139289
0.1376208
0.28824934
0.43428692
0.34220847
0.07061871
-0.16449133
-0.35879263
-0.4345317
-0.3010836
-0.13004254
-0.01760816
0.03488524
-0.006166225
-0.049909767
-0.07831331
-0.15959404
-0.21749134
-0.19377446
-0.1443179
-0.111078486
-0.083756715
-0.038382385
0.025035443
0.09105138
0.16539396
0.25154135
0.2617145
0.16924419
0.11644869
0.11951741
0.11234245
0.10230604
0.029376546
-0.028117314
0.06821683
0.1428354
0.03474862
-0.1375867
-0.22385561
-0.20000303
-0.10710836
0.003963385
0.036793817
0.05551163
0.18206698
0.19710964
0.027509348
-0.04487812
-0.02683641
-0.0686714
-0.12069162
-0.15432525
-0.16321799
-0.114435576
-0.051208865
-0.03144384
-0.031913795
0.0066634975
0.106619775
0.18551385
0.10415768
-0.08012861
-0.18034855
-0.14956023
-0.035600603
0.05042834
0.050966382
0.044631094
0.029931784
0.001959333
0.009336381
0.0211037
0.030383747
0.040600568
0.04939977
0.08100711
0.1052204
0.13441543
0.19851586
0.2235924
0.15275778
0.023946512
-0.10258181
-0.21343826
-0.26211748
-0.19073598
-0.09261642
-0.043294135
0.0042544985
0.038839344
0.026392382
7.365545E-5
-0.01293991
-0.038149923
-0.07366732
-0.0720021
-0.05304195
-0.04668473
-0.031923175
-0.022076672
-0.01654394
0.016323783
0.0579643
0.07130654
0.060318273
0.058514472
0.065968394
0.05168472
0.026667316
0.02135674
0.030252496
0.03602279
0.039997056
0.04243828
0.023896962
-0.009933814
-0.024942225
-0.028675817
-0.044632617
-0.059187185
-0.06344919
-0.05906364
-0.04296892
-0.026111744
-0.012409042
6.2968547E-4
0.0068260888
0.008938072
0.008931231
0.010726901
0.020985961
0.028354255
0.023594255
0.0114638815
0.0018040576
0.0040258085
0.009645265
0.0061651897
0.0073869056
0.031582944
0.06438179
0.06839298
0.023528922
-0.02914873
-0.035369284
-0.029257474
-0.051629245
-0.067642085
-0.06497189
-0.056736387
-0.036329523
-0.01145572
0.007862992
0.016931893
0.014339238
0.017599704
0.028912963
0.032814667
0.03741269
0.038421366
0.007406244
-0.031389818
-0.027180992
0.015925165
0.054429986
0.052476343
0.023680534
-0.0018341813
-0.024213208
-0.02537837
0.0029304319
0.017257001
-0.0038861644
-0.031399477
-0.030630013
-0.01303515
-0.015150719
-0.027280089
-0.028828567
-0.031405956
-0.037455484
-0.036954403
-0.023182785
0.006516348
0.026236307
0.02938969
0.055431575
0.08386199
0.08494931
0.095402114
0.08215334
0.0028996607
-0.06944271
-0.08532452
-0.06705653
-0.040953174
-0.022630539
-0.0061514876
0.010397968
0.016421102
0.011238626
0.010740624
0.022756567
0.020811463
0.0039039438
6.9194986E-4
-0.0047051716
-0.03112649
-0.05152437
-0.042658143
-0.017465945
0.0010130034
0.007115969
0.010177183
0.014848797
0.010478275
5.813695E-4
0.004119316
0.0138321025
0.014416046
0.0072782096
5.8629614E-4
5.2621315E-4
0.0010104618
-0.0037472947
-0.012252731
-0.014896351
-0.0061431215
1.7407746E-4
0.006822289
0.015377889
0.014361501
0.01812846
0.023174232
0.019879928
0.015362537
-0.0011675745
-0.012022005
-0.009432149
-0.01665985
-0.015725676
-0.011919852
-0.02067626
-0.020599294
-0.022073267
-0.025818577
-0.019069178
-0.014557365
-0.0028300444
0.017395642
0.03035836
0.03609898
0.032441083
0.02033217
0.0018487436
-0.010270505
-0.004203163
0.0036258737
0.009786252
0.013362258
0.0074175415
0.0050548883
-4.460726E-4
-0.012383651
-0.007865631
0.0066017443
0.010171813
5.5157143E-4
-0.015902491
-0.029725675
-0.033356354
-0.027231876
-0.018710956
-0.009281152
-4.561934E-4
0.0020570776
0.0019501856
0.0038144004
0.01128868
0.0187489
0.010521239
-0.002215927
-9.5345743E-4
0.0052403877
0.006288048
0.0074291886
0.013745144
0.016447999
0.0107893115
0.0074912906
0.004670122
-0.0017363222
-0.0034270643
-0.005717463
-0.011748493
-0.012431573
-0.011613818
-0.00983803
-0.0031612362
-0.0013807975
-0.0037991407
-0.0023962862
-0.0017138624
-0.0026816719
-0.002176465
-0.0010781889
-1.6300118E-4
0.0011345914
0.002839012
8.241732E-4
-0.002364023
-9.509219E-4
4.8394903E-4
0.0021665364
0.00576076
0.005160661
0.0012608257
-0.0016509142
-0.0031304206
-0.0039911577
-0.0041300613
-0.0027772353
-0.0031074514
-0.004316841
-0.0028231957
-0.001845227
-0.0019632648
-0.0012844978
-0.0014493734
-0.0021798213
-0.0013974039
8.77009E-4
0.0032142994
0.0040826956
0.0027596115
0.0033212616
0.0060680555
0.0053053307
0.0060779992
0.009320557
0.007183846
0.0049220575
0.0033242889
-3.7116633E-4
0.0010728942
0.0035987066
0.0021235792
8.1091106E-4
-0.0016563544
-0.0065697897
-0.010691949
-0.010122359
-0.007981312
-0.008733295
-0.0072986707
-0.004512454
-0.0045799636
-0.0042508286
-0.0041235774
-0.0058449204
-0.006720502
-0.004485784
-0.0011767085
4.816528E-4
0.0021728964
0.0021947317
7.286222E-4
0.0023012108
0.0044527594
0.0057511437
0.007254995
0.00808786
0.008721883
0.007383341
0.004679363
0.004877262
0.006593386
0.0053621614
0.0030824828
0.0024308993
3.1624467E-4
-0.0010881484
-5.412933E-4
-0.0017524555
-0.0015105327
-0.0011526064
-0.0021190052
-0.0011742378
-0.0021813344
-0.0029508434
-0.0026583604
-0.0049159764
-0.0032037557
0.0012946829
0.0024645205
2.3367639E-4
-0.0034616827
-0.0026515564
-3.4823886E-4
-6.121114E-4
-2.1127501E-4
-0.0021316924
-0.0040058903
-0.0020066171
-8.262902E-4
-1.5371988E-4
2.982625E-4
-6.9939124E-4
-5.1064015E-4
-7.249898E-4
-0.002663806
-0.0030418737
-0.0019461658
-8.2511874E-4
5.0562655E-4
6.085044E-4
5.23174E-4
0.0022225017
0.0043102023
0.0055545485
0.0031277365
-8.1266044E-4
-6.531819E-4
-2.36761E-4
-2.1359528E-4
0.0021462874
0.004035813
0.005024871
0.0039124778
0.0028655767
0.0033396175
-3.2111752E-4
-0.0037949048
-0.0038018688
-0.0035721327
-8.677155E-4
2.2856495E-4
-0.0010045199
0.0015587785
0.0023511928
-0.0018752832
-0.0037624072
-0.0019231312
-0.0020481602
-0.0035748496
-0.00247982
-0.0016212098
-0.0014367511
5.4613538E-5
8.0832787E-4
0.00192128
0.0012276056
-0.0036943217
-0.0054371664
-0.0021644572
2.4178445E-4
2.1447697E-4
-9.860063E-4
-0.0017210405
-0.001557827
-4.8328805E-4
0.001227188
8.467271E-4
-0.0010739722
-0.0015903472
-0.0016519019
-0.0013126908
9.675758E-4
0.0029864996
0.0028247095
0.0026101617
0.0041532326
0.0051912814
0.002613881
-0.0011144908
-0.0028321047
-0.0043371604
-0.0042952113
-0.0019010081
-0.0013703491
-7.060442E-4
0.0010512434
5.0163217E-4
9.392114E-4
0.0017553805
-1.6356356E-4
-0.0013758729
-0.002634162
-0.003854702
-0.0018533955
-5.1552046E-4
-0.0024024658
-0.0037618324
-0.0027788607
-0.002014169
-0.0014987201
3.134513E-4
3.7607164E-4
4.955335E-4
0.003182591
0.0032262828
0.0018956794
0.0020368462
1.9649154E-4
-0.0022773996
-0.0014129056
0.0019189143
0.0021047862
-8.209263E-4
-4.7013763E-4
9.378033E-4
0.0010227389
0.0026694138
0.0037896528
0.002492339
-1.9792112E-4
-0.0011332054
2.5012592E-4
-8.079913E-5
5.2898156E-4
0.0018372402
-0.0013869606
-0.004035843
-0.003240639
-0.0020811972
3.6685955E-4
0.0021477025
0.0012859844
6.5422145E-4
5.08521E-4
-7.962607E-4
-0.0019003692
-0.001274919
3.5771506E-4
9.787843E-4
-7.138132E-4
-0.0015528458
-6.2530955E-5
-3.3649715E-4
-0.0018704743
-0.0021373634
-0.001057776
0.0017029917
0.0027172118
9.42093E-4
3.820349E-4
0.0016843271
0.0034266622
0.003591591
0.0015698485
6.879519E-5
-1.7710422E-4
-6.5243297E-4
-0.0010947284
-3.680533E-4
8.790644E-4
0.0018554699
0.0019516887
0.001248405
0.0019343944
0.002596134
0.0013294476
-3.6287826E-4
-0.0022273483
-0.0028342695
-0.003020706
-0.0039979136
-0.0026723167
-8.1080425E-4
-7.105525E-4
-0.0020047403
-0.0035939303
-0.0018400648
3.7639763E-4
6.621158E-4
0.0012992444
8.7803486E-4
0.0017719889
0.004464321
0.005044594
0.00468258
0.0026768262
-1.177792E-4
0.0013328745
0.0047329823
0.0035318728
-0.0018895684
-0.0047035785
-0.0032978426
-1.5762782E-4
0.0024713103
2.8531972E-4
-0.0021336714
-5.212578E-4
-0.0011736901
-0.002333231
-0.0017923788
-0.0029247317
-0.0038341787
-0.005742413
-0.005842986
-7.3524815E-4
0.0012853724
0.0018180052
0.0037736055
0.0013623293
6.638932E-4
0.0032088803
0.003295413
0.0037447894
0.003962935
0.0044111023
0.0045241844
7.343008E-4
-1.4020259E-5
0.0015564217
-7.6178723E-4
-0.0026036785
-0.0024691632
-2.0692818E-4
0.0013825675
-0.0013463837
-0.0017548967
-7.5278006E-4
-0.0023304862
-0.0015318117
-7.2750024E-4
-0.0019424071
-9.513495E-4
-3.4510368E-4
-0.0019509261
-0.0021413793
-0.0010050054
-3.053694E-4
1.4406141E-4
1.12440925E-4
3.8273857E-4
0.0016615795
0.0029016314
0.0035207067
0.0030450823
0.0018649865
-2.9741175E-4
-0.0019634697
-2.343039E-4
-4.0711073E-4
-0.0034578238
-0.002921036
-0.001476127
-9.4409945E-4
-7.688942E-4
-0.002168006
-5.20226E-4
0.0030590617
0.003976924
0.0034822917
0.0020647473
0.0013729185
0.0016443568
7.756638E-4
-2.2715025E-4
-3.8986286E-4
-2.1101256E-4
9.844839E-5
0.0023722642
0.003971598
4.528715E-4
-0.0020272154
-9.679402E-4
-0.0012916545
-0.0018600575
-0.0018901387
-0.0018453319
-0.0014772017
-0.0017121041
-0.0021966377
-0.0031171225
-0.003247783
-0.002312841
-9.807881E-4
3.6571384E-4
-0.0019049225
-0.0023824398
0.0024386996
0.0029698398
0.0019059018
0.0042242086
0.00451711
0.003966176
0.004453494
0.005291056
0.0057035484
0.0038462358
0.0028097325
0.0034222053
0.0018555422
-0.0015579128
-0.0027960571
-0.0028260406
-0.0058309166
-0.007119896
-0.005063315
-0.0052676178
-0.0058357352
-0.005032539
-0.0034670895
-0.0024838615
-0.003432574
-0.0019305239
-4.9855147E-4
-0.001690793
-2.8562118E-4
0.0016512
0.0020546
0.0016626564
0.0011053673
0.0029207638
0.003782448
0.0034273353
0.005286014
0.006976644
0.0077060033
0.008093063
0.0077746515
0.0070514875
0.0064022243
0.004262298
-0.0011418995
-0.00469093
-0.0058851596
-0.008891669
-0.008758685
-0.00453555
-0.0017413609
-0.0022390543
-0.004130178
-0.002906328
5.719307E-4
0.0022680385
-4.4071217E-5
-0.004362524
-0.003190139
1.464348E-4
-9.334321E-4
-0.0019338334
-0.0019891635
-0.0016043932
2.928426E-4
7.7869184E-4
9.796028E-4
0.0021827756
0.0028644048
0.0027791758
0.0011438522
-2.285792E-4
-5.1087573E-5
6.410116E-4
0.00211513
0.0015525365
-0.001115409
-6.091513E-4
0.0015063393
0.0022774406
0.003570957
0.0028076274
-6.0175603E-6
0.001480391
0.0044197585
0.003296458
0.0019339622
0.0019284805
0.0012623491
-2.3237262E-4
-0.0027357058
-0.0035183688
-0.0029308484
-0.0036915806
-0.0031451983
-0.0032244616
-0.0050097876
-0.0032535733
-6.4575067E-4
-3.3729887E-4
-3.606375E-4
-9.0800907E-4
-0.0016654782
-0.0025333455
-0.002368797
-0.001255671
-0.0011261727
2.9507244E-4
0.0019403064
0.0025968894
0.0047063646
0.0066884276
0.007354393
0.004616491
6.9784705E-4
0.00131518
9.326935E-4
-9.5430546E-4
-4.0231236E-5
-7.880724E-4
-0.00168981
-0.0014387311
-0.0024351047
-0.0016315051
1.6839361E-4
0.0013618212
0.0016643397
-1.2491888E-4
-7.579583E-4
-4.4249173E-4
-0.0012412581
-0.0015721738
-0.0016007781
-8.512487E-4
-5.164847E-4
-0.001372191
-3.029925E-4
2.4199924E-4
-0.0012174863
-0.0013832995
-9.814128E-4
-4.304132E-4
-6.235728E-4
-0.0014338434
4.8946915E-4
0.001673971
4.0354786E-4
3.1396293E-4
1.2975102E-4
-2.2877185E-4
-7.4064295E-4
-0.0014327205
1.6611272E-4
8.21597E-4
8.854147E-5
5.8625755E-4
4.4283562E-4
0.0019190218
0.004065828
0.0030313996
0.003750509
0.005944342
0.0031252492
-0.0014166611
-0.0019101602
-4.844023E-4
-7.084899E-5
-5.406803E-4
-0.0011096515
-8.751407E-5
3.67094E-4
-0.001701846
-0.0026224153
-0.0028264758
-0.0020733275
0.0017113361
0.0021695544
-0.0017111825
-0.0034129356
-0.00332693
-0.0034383675
-0.0030489988
-0.0018668721
3.510857E-5
0.0012945165
0.0015987554
0.0023554903
0.0019612703
-6.5160444E-4
-0.0011336124
6.529039E-4
6.7944324E-4
5.343666E-4
0.0013625672
0.0022163307
0.0028342097
0.0019369719
0.0013450563
7.258284E-4
-0.0015977758
-0.0015296988
7.398438E-5
6.325755E-6
3.9876578E-4
4.6682532E-4
-2.6727692E-4
-1.1839563E-4
-5.8060273E-4
-5.025118E-4
0.0018610269
0.002158795
-6.1801384E-4
-0.0019205881
-0.0022743545
-0.002671562
-0.0013870414
-5.4503186E-4
-5.1797935E-5
0.0014855926
0.0015764468
0.001356085
0.0023462488
0.002475449
0.0015742398
8.5537374E-4
0.0011397236
7.781723E-4
-0.0020634213
-0.0037051626
-0.0017006466
-2.754343E-4
-0.001454595
-0.0018787461
-8.314986E-4
1.0181377E-4
8.0506294E-4
9.125793E-4
8.736548E-4
3.0289873E-4
-2.773899E-4
5.83926E-4
-8.275162E-4
-0.0026102115
-8.3998434E-4
-7.70049E-4
-7.5123773E-4
0.0010055202
-1.6629677E-4
6.194149E-4
0.003240335
0.0011578215
-6.312195E-4
8.398873E-4
0.0011109104
0.0012612207
0.0031324083
0.0021456012
-0.0013862563
-0.0021566001
-0.0023599504
-0.002721282
-0.0017194819
-0.0028329503
-0.0036411923
-8.1129285E-4
0.0021249983
0.0019976145
-7.975803E-4
-9.962086E-4
0.002759624
0.0046529286
0.002968007
0.0010775045
0.0013136251
0.0014497371
4.984338E-4
5.9007225E-4
3.8506978E-4
9.6460327E-4
0.0030367805
9.802374E-4
-0.003997796
-0.003807532
4.6101923E-4
7.55173E-4
-0.0013364132
-7.785226E-4
1.4301525E-4
0.0011565331
9.413126E-4
-0.0016536803
-0.0014952341
-8.6541456E-4
-0.0028063015
-0.0031963144
-0.002458909
-0.0024808852
-0.0027207115
-0.0020552017
-0.0012180363
-0.0016278771
-7.578199E-4
3.0872124E-4
-1.0617038E-4
6.9097086E-4
0.0021969243
0.003615353
0.0035467308
0.0017335176
0.0011181555
3.0458331E-4
-2.179494E-4
4.353925E-4
6.3139293E-4
0.0026011986
0.0035696023
0.0018812552
0.002004975
0.0026791138
0.003576475