0.0025356165
0.0019696834
0.0017720409
0.0021419139
0.0014095325
-0.0010830162
-0.002222638
-0.0018406118
-7.023021E-4
8.712274E-4
2.312589E-5
-4.099948E-4
-2.6548692E-4
-0.0028860706
-0.0034778505
-0.0019006797
-0.0019266993
-0.002240746
-0.0019791238
-7.085519E-4
6.749182E-5
-6.120279E-5
7.047366E-4
0.0012052327
9.645072E-4
7.198113E-4
0.0010163065
3.6201932E-4
-0.0015991745
-6.904054E-4
7.64371E-4
-4.9281365E-4
-4.8816355E-4
8.1025047E-4
9.7497465E-4
5.108159E-4
0.00101995
0.0013541024
-0.0012402507
-0.0021802266
5.945713E-4
7.141738E-4
-0.0015707581
-0.0017540351
-1.2573483E-4
0.0015464537
0.002650002
0.0027593323
0.0018789023
0.0015058662
0.0020047233
0.0022486877
0.0014091919
-1.5940818E-4
-1.00985235E-4
4.906899E-4
-0.0014095667
-0.0032659806
-0.0017419773
6.758152E-4
3.2432924E-4
3.513086E-4
0.0021203798
5.6749146E-4
-0.002432596
-0.0038472356
-0.0044708
-0.0025227752
-9.232963E-4
-0.0014520417
-2.3962256E-4
0.0014797691
9.784192E-4
-5.8882096E-4
-0.001019834
-9.2561444E-4
9.183793E-5
0.0027580303
0.0016004108
-0.0013535274
-0.001173833
-0.0011146907
9.100094E-4
0.0028136307
0.0012805132
0.0022905092
0.0021457179
-0.0014712139
-0.0026243443
-0.0015446611
8.5628685E-4
0.0013576698
-1.7546181E-5
0.0013726483
0.0022720303
0.0022637844
0.0031275752
0.0022191792
0.001151319
0.0014610277
0.0017042699
2.8220096E-4
-0.001806682
-0.0016881111
-0.0017977931
-0.0023601437
-0.0012867268
-0.0019652932
-0.0033962352
-0.00248074
-8.9532253E-4
4.7657808E-4
6.7145587E-4
-1.2762516E-4
-5.330852E-4
-0.001902077
-0.0034671207
-0.0028902641
-0.0015393442
-6.6455704E-4
5.220462E-4
0.0012481349
6.190339E-4
5.3746335E-4
0.0015908203
0.0017643473
0.0012641172
0.0014717466
0.0021878874
0.0020210936
0.0017099713
0.0032704251
0.0031220275
0.0013953605
0.0025596926
7.54158E-4
-0.0034916494
-0.0019095172
-1.9277513E-5
-1.796781E-4
0.0010564782
-0.0014469309
-0.0046853675
-0.001017977
0.0024314825
-5.870219E-4
-0.0020267204
4.1496413E-4
-1.4462284E-4
-0.0010777006
-6.0035945E-5
-0.001019023
-0.0016832569
-0.00130701
-0.0012632578
6.393494E-6
3.0123406E-6
-0.0015213238
-6.052534E-4
0.0012049587
6.174971E-4
-3.769789E-4
5.139982E-4
0.0019090843
0.002618397
0.0018515165
6.2953965E-5
-9.1416785E-4
-9.887175E-4
2.6125956E-4
0.0017872818
0.0012090635
3.1898325E-4
0.0010309282
9.378581E-4
-0.0011745787
-0.0012372768
3.1641359E-4
-1.7127757E-4
7.081225E-4
0.0010351951
-0.0012040962
7.0142274E-4
0.001838293
-0.0019620038
-0.0022889306
-3.8090284E-6
1.9037841E-4
-9.94074E-4
-0.0028278306
-0.0029190932
-6.637205E-4
0.0015754749
0.0012347491
-8.5177243E-4
-7.805761E-4
-6.029319E-4
-0.0013143418
5.3014274E-4
0.0015482082
9.666331E-4
0.0019252182
8.4160356E-4
-7.147671E-4
8.594745E-4
0.0011205414
5.2958436E-4
0.0013370645
0.0013701798
8.7692356E-4
-1.5261791E-4
1.711703E-4
0.0018051122
6.9011934E-5
-0.0016472738
-0.0010983057
-0.0011017191
3.9879445E-4
4.0952567E-4
-0.0020896106
-0.0010961418
-2.545077E-4
-0.0018896995
-6.2441546E-4
0.0011256539
-3.244151E-4
-0.0015047526
9.126147E-6
0.0014301343
-5.4907665E-5
-0.002428104
-0.0025409958
-8.809275E-4
3.347747E-4
9.4877835E-4
0.001967311
0.0021100608
0.0010714561
4.4768312E-4
-3.178079E-4
-2.3516935E-4
0.0010273927
5.3160684E-4
5.119752E-5
3.832239E-4
-1.8613516E-4
0.0012931278
0.0025002926
0.0011337954
0.001884616
0.001897688
-8.9029694E-4
-0.0015633284
-9.682699E-4
5.0405317E-5
0.001366123
2.0944534E-4
-0.0011243636
-0.0012171908
-0.0025109637
-0.0040872027
-0.0039379033
-0.0021146594
-8.674424E-5
0.0010577642
0.0011895086
3.6835793E-4
4.708199E-6
1.4814544E-4
-3.3940765E-4
-6.654928E-4
-9.5022796E-4
-8.88079E-4
7.7830045E-4
0.0020280639
0.0012534192
1.8569051E-4
7.2576286E-4
0.0022757477
0.0027998781
0.002423115
0.0020473977
0.0013933282
-2.6867283E-4
-0.002161468
-0.0012853438
4.0881013E-4
-8.352045E-4
-0.0011003318
7.0180703E-4
5.903644E-4
6.091868E-4
0.0020186065
0.0012275861
-0.0013549053
-0.0018329535
6.491465E-4
0.0020710046
-2.5684492E-5
-0.0022384955
-0.0028265414
-0.0025613129
-3.8201737E-4
0.001773997
0.0011348459
-6.4921065E-4
-0.0010613739
-6.4633896E-5
-8.386016E-4
-0.0028457495
-0.0019699126
-6.310784E-4
-0.0013487255
-0.002017851
-0.001355549
5.1384897E-5
7.67422E-5
4.3500567E-4
0.0013642454
-9.4949495E-4
-0.0020372563
1.2543834E-4
2.1819444E-4
1.834774E-4
0.0022385297
0.0033519657
0.0024847384
0.0018583256
0.0033113505
0.0047082393
0.004180191
0.0030267676
0.0028526988
0.0025113018
-2.6503438E-4
-0.0022379567
-0.0011608283
-4.0573534E-4
-8.035234E-4
-5.658544E-4
-7.411752E-5
-0.0021486536
-0.004272159
-0.0027687724
-0.0015868503
-2.4021136E-4
0.0010798274
-3.0032368E-4
0.0015326223
0.002811891
-0.0010819909
-0.002377506
-0.0031747727
-0.0052794092
-0.00411042
-0.002490397
-0.002011747
-0.0020504736
-0.0016187764
-7.265865E-4
-0.0014903821
-0.0013130279
-6.9044303E-4
-9.910883E-4
7.4567366E-4
0.0020127255
0.0016333093
0.0013609075
3.5308825E-4
3.3335702E-4
0.0019284227
0.003400415
0.003382676
0.0019229259
0.00262454
0.0054679457
0.0067619733
0.0077935643
0.009930667
0.009050499
0.0049545174
0.002513728
2.8144103E-4
-0.0035527893
-0.0054430277
-0.0051727872
-0.0060162926
-0.009496166
-0.010452041
-0.007094573
-0.0063951197
-0.0050413385
-0.0014707878
-0.0028199658
-0.0032591962
-6.689065E-4
-4.388582E-4
-2.3126355E-4
-0.0015900627
-0.003259368
-6.4961344E-4
0.0020855633
0.003736002
0.003970095
0.0012809231
0.0019486082
0.00611275
0.0064475397
0.0050305305
0.0046541546
0.0028109706
0.0017974478
0.0014329894
3.114587E-4
0.0012950116
0.0010438244
-7.001213E-4
-0.0016941837
-0.0044352696
-0.0042272937
-0.0020680516
-0.0022171908
-1.2274073E-4
2.1087464E-4
-0.0018509228
-2.7359467E-5
0.0017497267
0.0016504147
0.0012772103
0.0012329587
0.0018303972
-1.3505167E-4
-0.002165883
-8.579111E-4
-8.743583E-5
-0.0014992668
-0.002460347
-0.0016235197
-8.909896E-4
-0.0011978247
-8.000798E-4
2.3893973E-4
2.918153E-4
-8.270029E-5
1.16202595E-4
-7.279903E-4
-0.0010786386
2.4331185E-4
-5.110922E-4
-8.813296E-4
7.0604665E-4
8.827859E-4
0.0017643067
0.002876947
0.0036262637
0.00466556
0.0016561102
-0.0012508034
8.508609E-4
0.0020761786
5.617919E-4
-4.7745483E-4
-9.193364E-4
-0.0023136227
-0.0033602226
-0.0016634453
6.6571875E-4
4.739464E-4
-0.0013621458
-0.0021943783
-0.0030602203
-0.004131748
-0.0019480486
3.331377E-5
-7.9302734E-4
-3.6929752E-5
0.001247159
0.001544924
0.0019979335
0.0015622941
0.0014885737
0.0019670208
0.0016227942
0.0021025424
0.0030445487
0.002304722
0.0016129345
0.0017220492
2.0252641E-4
-9.135677E-4
1.3808107E-4
7.05679E-4
7.308088E-4
-3.8960256E-4
-0.002522421
-0.0028781965
-0.002911212
-0.002892845
-0.002541693
-0.0032210231
-0.0018471625
-4.735613E-4
-0.0021894027
-0.0015700032
2.1159882E-4
-6.423375E-4
-7.533069E-4
3.9991588E-4
0.001713445
0.0026487294
0.0023290103
0.0017520832
2.425542E-4
-1.4538622E-4
0.002211825
0.0025222718
0.0017639302
0.0028369292
0.0024750824
3.7592446E-4
-0.0012498451
-0.0014531729
-4.0057139E-4
6.078041E-4
5.5871345E-4
-9.056001E-4
-0.0015206763
-9.348504E-4
-0.0013620408
-0.0014418886
-1.9501087E-4
0.001455429
0.0015807649
-9.907939E-6
-8.660438E-4
-0.0028025552
-0.0036031508
7.026694E-4
0.0032120494
6.612282E-4
-0.0014675204
-3.3064542E-4
0.0010916139
2.3532232E-4
0.0010802959
0.001961518
-0.0015965797
-0.0034615644
-0.0014594172
-1.4027013E-4
0.0010931352
0.0022126737
7.158999E-4
1.2489274E-4
0.002220695
2.6623433E-4
-0.003414641
-0.0018170835
1.344292E-4
1.8027294E-4
3.850825E-4
-5.435272E-4
-0.001001147
-4.0369717E-4
6.776405E-4
0.001923931
0.0012082037
3.7364414E-4
7.2543905E-4
-3.3169545E-4
-0.0018246215
-0.0018308058
-0.0013466604
-0.0010124109
-4.1706575E-4
5.3676474E-4
8.9497044E-4
5.219576E-4
0.00105626
8.0699887E-4
-0.0012149343
-0.0013466768
-0.0011914704
-0.0011938545
0.0024766778
0.005321723
0.0055110846
0.0061908527
0.0044034817
4.4766074E-4
-0.001786846
-0.0026532004
-0.0029414569
-0.0010798828
4.2575342E-4
-0.0024199605
-0.004142295
-0.0024017047
-0.0010408037
4.9546314E-4
-3.1845723E-4
-0.0022259406
-0.0022409663
-0.0034775252
-0.003240806
-0.0019760993
-0.0016246246
-1.7787983E-4
-7.597102E-4
-7.699869E-4
4.1705367E-4
-3.7241634E-4
7.107049E-4
0.0018946844
0.0030009996
0.0048328103
0.0045620403
0.004611952
0.0022915984
7.175632E-4
0.0034328485
0.0017704589
1.3691348E-4
8.126754E-4
-4.937149E-4
0.0013424013
0.0018472131
-2.7084345E-4
-0.0012394396
-0.0043113385
-0.0046404614
-0.0022632573
-6.5786875E-4
0.0014520973
-4.3901982E-4
-0.0012491021
0.003041147
0.0037032529
0.0010077871
-8.505494E-4
-0.0011449322
-7.049425E-4
-0.0023225097
-0.0039251633
-0.0037773263
-0.0030604377
-0.0029592102
-0.0039026046
-0.0018317524
0.0021780292
0.0032897391
0.005190468
0.007225013
0.0024830268
-0.003429079
-0.0028437013
-0.0028069145
-0.005960895
-0.0042419033
2.5029693E-4
0.0027897381
0.0049978485
0.0052295323
0.0047943005
0.0058280025
0.0066901497
0.008069494
0.006044594
-7.75705E-4
-0.006626661
-0.012393087
-0.014510415
-0.007619178
-2.5462237E-4
0.003536552
0.005367568
0.0037984669
0.0021642786
-6.6242105E-4
-0.004335697
-0.0020323752
0.0013940261
0.002597237
0.0032937767
-8.264741E-4
-0.004910361
-0.0057423576
-0.0072429352
-0.0041437615
0.0025948912
0.0060281716
0.007302247
0.008575726
0.009615098
0.0055456385
-0.0016855525
-0.0018679923
-4.9553975E-4
-0.0050505893
-0.008331922
-0.0061108787
-0.0012576272
0.0011742843
7.2818727E-4
0.002165482
0.0037298508
0.0041163815
0.0052411524
0.00556434
0.0055682203
0.003262764
-0.003585402
-0.00819739
-0.0057044807
-0.0015249046
-0.0032455358
-0.008312012
-0.0083995685
-0.003918919
-0.0020476787
-0.005307549
-0.0069703227
-0.0042670676
-6.962769E-4
0.004592743
0.007469013
0.0077616833
0.010951358
0.010551288
0.00683382
0.004017076
-6.489387E-5
-0.0025326887
-0.0057383147
-0.006635486
-2.4328544E-4
0.004071287
0.005464433
0.0063484185
0.0062276144
0.0058474424
-1.4541497E-5
-0.005687373
-0.006298851
-0.006922564
-0.00490259
-0.002427873
-0.0025077127
-0.0023099857
-0.0033627143
-0.005154998
-0.0068980567
-0.0060538887
-3.484289E-5
0.004844865
0.006674307
0.006702345
0.0017216143
-7.822718E-4
0.006909153
0.012742455
0.009762784
0.0052661025
-0.0016555062
-0.009863873
-0.013242739
-0.012766183
-0.0105027445
-0.009499618
-0.007480383
-0.0016363763
0.004775855
0.011387829
0.012880912
0.010511987
0.009916076
0.0062971916
0.004768958
0.0025706247
-0.0073484094
-0.009233551
-0.002442936
0.0015225162
0.0041812365
0.0046416074
0.0020959256
-0.0040542018
-0.010593903
-0.006996322
0.0025552406
0.004783196
0.0020559563
2.0236695E-4
-0.0039738985
-0.0063485457
-0.006700245
-0.011281019
-0.011392165
-0.008564412
-0.008647346
-0.0031497602
0.0020365692
0.0035092698
0.006503037
0.0076775076
0.011312173
0.015082455
0.010121468
0.0053928597
0.00968339
0.014942188
0.014721168
0.012865426
0.0056933905
-0.003442513
-0.0032804355
-0.002885084
-0.0042402335
-0.005010079
-0.011017243
-0.009973326
-0.0025942
-5.8621017E-4
-9.3088084E-4
-0.006324213
-0.012532627
-0.013923829
-0.014581032
-0.012632046
-0.010243809
-0.008085359
-0.0051221973
-0.005144496
-0.0042408723
6.186147E-4
0.005913528
0.007988759
0.009252824
0.009725769
0.003984996
0.0026217902
0.0083767
0.009267631
0.007665222
0.0061606355
0.009933406
0.016161865
0.011186525
0.0057453867
3.658926E-4
-0.01093882
-0.010838734
-0.0054183253
-0.004773967
-0.0021968042
-0.0031061207
-0.003745659
0.0020648167
0.007600366
0.0075421603
-0.0030650832
-0.014388003
-0.013759539
-0.009629235
-0.008302737
-0.008528362
-0.01137659
-0.012829756
-0.008113105
0.001879416
0.012011517
0.017425664
0.01817527
0.01759101
0.021823639
0.027885193
0.020437231
0.006062677
0.0042018765
0.0053254967
-0.003085463
-0.013321676
-0.017863033
-0.020163376
-0.028663969
-0.032503992
-0.02299839
-0.01901085
-0.022148676
-0.019874386
-0.015010149
-0.0099928975
-0.0043084375
0.0013790727
0.0010437354
-0.0023286426
0.004956495
0.013755915
0.016582735
0.019001853
0.016026951
0.011938206
0.008804747
-0.0019992709
-0.014124222
-0.012030328
0.007864478
0.028362758
0.03937157
0.04521343
0.044902697
0.040782485
0.03037699
0.018578224
0.014296085
4.921467E-4
-0.019513449
-0.031320494
-0.04210405
-0.0425969
-0.030879509
-0.016677575
-0.002957215
-0.0024756268
-0.0064968946
-5.0322444E-4
0.009358742
0.020099811
0.017711239
0.0036436422
0.0069059795
0.022456646
0.033220768
0.038657364
0.021829372
-0.012251306
-0.026921015
-0.02461111
-0.026339604
-0.03264679
-0.0429824
-0.04943231
-0.043558143
-0.02652194
-0.008592144
0.0026853287
0.010530016
-0.0067783473
-0.041729916
-0.042501878
-0.01587329
0.0049350676
0.010376913
0.006822267
0.011927891
0.024550654
0.03888189
0.033361908
0.0014722971
-0.035646453
-0.06680186
-0.029218333
0.060237348
0.11529907
0.18084085
0.24171764
0.21061803
0.08888922
-0.052917264
-0.098804474
-0.10696957
-0.15694581
-0.1479758
-0.1052254
-0.058261115
0.004813126
0.0051889136
0.018567286
0.070564136
0.088482484
0.12801693
0.121668026
-0.0162145
-0.19478974
-0.28188482
-0.18728895
-0.005014526
0.13432394
0.17399378
0.047835797
-0.13862996
-0.23583612
-0.23237298
-0.14139713
-0.030204762
0.04223119
0.088078216
0.16000244
0.271514
0.28345132
0.17985928
0.073638625
-0.054288212
-0.11505618
-0.07832772
-0.10134916
-0.0650148
0.07007894
0.08835834
0.101033226
0.16597404
0.07735944
-0.04816739
-0.027126713
0.010184577
-0.089204326
-0.23295017
-0.20731613
-0.08299164
-0.05486492
-0.058064904
0.028438792
0.14902101
0.059900552
-0.20627843
-0.23800884
-0.049090628
0.11623251
0.24379767
0.24248174
0.16586019
0.12511432
0.045051858
-8.747624E-4
0.033452187
0.05546523
0.023729619
-0.049591713
-0.1086547
-0.18300372
-0.22235915
-0.12187975
0.03407281
0.18459243
0.19848287
-0.00295745
-0.18615898
-0.24151832
-0.17788848
-0.033865876
0.04476431
0.10519237
0.15744169
0.08971539
0.01118116
0.0018493185
0.012872459
0.053471938
0.102094084
0.10798998
0.055044517
-0.026048718
-0.03965538
0.010257865
-0.0063899774
-0.060025558
-0.051455695
-0.025766723
-0.0053522782
-0.014499597
-0.07168937
-0.09062104
-0.07870359
-0.062228322
-0.01193346
0.028620498
0.05526449
0.069341436
0.044139832
0.0052879
-0.024195801
-0.007624807
0.035615094
0.04805581
0.05289939
0.048558123
0.038402524
0.06325978
0.09534984
0.08309935
0.012743808
-0.059067525
-0.08116483
-0.07793484
-0.048720285
-0.014108687
-0.022631818
-0.032474715
-0.017788345
-0.011286104
-0.013265452
-0.022276513
-0.033684105
-0.025531208
-0.004767954
0.0054825908
4.993415E-4
-0.00640855
-0.0027842103
0.0068816715
0.011991827
0.012813759
0.016341042
0.020347336
0.019530833
0.017370464
0.015979689
0.013642229
0.00949012
0.004356981
0.001920577
1.0937126E-4
-0.0040288125
-0.005594165
-0.005914198
-0.0077383784
-0.00770301
-0.00718012
-0.006359468
-0.0049250764
-0.0044191633
-0.0016662014
8.542042E-4
2.8967828E-4
8.766406E-4
7.867621E-4
-7.4923347E-4
-0.0010879496
-0.0028830017
-0.003433724
-0.0020303214
-0.004913477
-0.008296025
-0.00856667
-0.009670162
-0.010727388
-0.010573947
-0.009942572
-0.0075177248
-0.0051692333
-0.0042016255
-0.0014599696
0.001301674
7.3363254E-4
1.988452E-4
3.9529218E-4
-3.592297E-4
-3.3814894E-4
-5.6343107E-4
-7.06615E-4
6.475401E-4
7.24504E-4
0.0010209082
0.0020291267
0.0015727563
0.0029176658
0.0034197795
-6.548568E-5
-8.625763E-4
0.0024309692
0.0045158933
0.0029705628
9.847326E-4
0.0038741943
0.010016156
0.01442916
0.013858226
0.0076110116
0.0038200887
0.0061994554
0.004674397
-7.47621E-4
-7.901846E-4
0.0013098872
0.0013067069
0.001451683
0.001686465
0.0012229163
-9.052664E-4
-0.003580979
-0.0059574484
-0.008515472
-0.008509012
-0.008416106
-0.009115813
-0.007433355
-0.0067910436
-0.0062307687
-0.008647445
-0.017523257
-0.020159865
-0.015775364
-0.010657975
-0.0015580811
0.005063029
0.006764808
0.009151906
0.010281423
0.0099521065
0.010451859
0.012459514
0.014244726
0.013544688
0.011110663
0.007262596
0.0061635356
0.0090414435
0.009989815
0.010264481
0.01088267
0.009432168
0.008430755
0.0067634857
0.0035530857
0.002773566
0.0022298447
-0.0013194245
-0.0043760235
-0.0058660186
-0.007441219
-0.0074458607
-0.006563841
-0.00615483
-0.0045764158
-0.003146521
-0.0030561988
-0.0029788844
-0.0034247977
-0.0047685527
-0.0053852308
-0.004082231
-0.0031452195
-0.0042243917
-0.0036471027
-0.0010075206
-2.9087128E-4
-6.439393E-4
-8.341855E-4
-0.0019122644
-0.0014125711
9.003721E-4
0.0012058798
-1.8158915E-5
-4.748296E-4
1.8842578E-4
0.0010446027
9.063968E-4
0.0016140807
0.002684543
0.0023088884
0.0034898515
0.004712946
0.003893555
0.004958682
0.005853126
0.003807371
0.0025308158
0.0021838376
8.488477E-4
1.5271449E-4
3.7521834E-4
-6.991131E-5
3.1264953E-4
0.001540225
4.6875793E-4
-0.0015748185
-0.0030254694
-0.0047953418
-0.0056025106
-0.00564823
-0.0059719896
-0.006625972
-0.0067229327
-0.0047376524
-0.004399105
-0.0066446345
-0.005891467
-0.003614288
-0.002608165
-8.9653896E-4
-5.056436E-4
-8.903049E-4
0.0023141508
0.0049447548
0.0034401615
0.0027327244
0.0036639369
0.004607291
0.0065271365
0.007224499
0.0065009217
0.0059318617
0.0032222415
-0.0010437903
-0.0038985796
-0.0039015056
-0.0011247194
2.1311153E-4
-0.0019900217
-0.0048996126
-0.0072371545
-0.008429649
-0.0077983
-0.00608022
-0.004030967
-0.003483535
-0.0051445435
-0.005338129
-0.003409659
-0.0034256412
-0.0046192985
-0.0048769517
-0.005067641
-0.003733307
-0.0017361934
-0.0016195624
-9.873385E-4
4.761736E-4
9.927454E-4
0.0014196088
0.0012313888
6.948901E-4
9.7094633E-4
0.0012951491
0.0020346234
0.0022232388
0.0011069855
0.0013912161
0.0022945912
0.0022756467
0.003066368
0.0036603385
0.003309392
0.0035461078
0.00402541
0.0035153986
0.0022373176
0.0018877258
0.002090662
0.0015095439
4.944252E-4
-7.1295584E-4
-0.0010978392
-0.0015161092
-0.0024085075
-0.0010953312
5.0061505E-4
1.21335026E-4
-0.001572527
-0.0031867155
-7.5445767E-4
0.002275514
4.877655E-4
-0.0014832465
-0.0011609783
-5.598783E-4
4.7048918E-5
-4.0678064E-5
-0.0015029642
-0.0026957856
-0.0014204176
-8.1112573E-4
-0.0030802367
-0.0046105348
-0.0038677384
-0.0019730811
-0.0024721127
-0.004820321
-0.0036619694
-0.0015271038
-3.8341453E-4
7.8770734E-4
-8.9167836E-5
-6.137986E-4
4.3678077E-4
0.0016205955
0.0032923473
0.0043373783
0.0042774985
0.0034704653
0.004330206
0.0058061546
0.0046628253
0.00551556
0.0061390633
0.0025433595
0.0012745697
9.5657137E-4
-0.0014013959
-0.0021647434
-0.0017877838
-0.0015688428
-0.0027166372
-0.0036364242
-0.0014733784
-1.928402E-4
-8.8446547E-4
1.4707526E-4
0.0012267618
-6.911846E-4
-0.0024848972
-0.0016686703
-0.002088322
-0.002573813
6.635411E-4
0.0028119066
0.0017335684
6.9698796E-4
-2.3879252E-4
-2.4084232E-4
5.011337E-4
-6.21953E-4
-0.0013841714
-6.7589356E-4
-7.565645E-4
2.8766392E-4
9.621914E-4
-0.0017012672
-0.0035824056
-0.004084183
-0.004070638
-9.408957E-4
0.0027277488
0.0038850978
0.003553881
0.0033281597
0.003506835
0.0029316538
0.0022041923
0.0018991726
0.0020483292
0.0017094638
-1.4703929E-4
2.3935012E-4
0.0017432515
7.0757966E-4
6.473261E-4
-7.180786E-5
-0.0021123476
-7.8636495E-4
-7.477554E-4
-0.002720615
-0.0011526068
-1.778308E-4
-0.0012452501
-8.0775283E-4
-0.0010320868
-0.0016368477
-0.0011189063
-0.0012932238
-4.7336874E-4
0.0018006777
0.0020243775
2.0910142E-4
2.1755828E-4
0.003227757
0.0041937954
0.0018707023
0.0015916902
0.00260593
0.0017988328
0.0010291666
0.0010959875
4.2611206E-4
-0.0014121182
-0.0034151063
-0.0041485894
-0.001985025
4.4662904E-4
-3.6060064E-5
3.4190968E-4
6.935689E-4
-8.680457E-4
3.2372694E-4
3.7313104E-4
-0.0024444878
-0.0026852328
-0.0021988682
-0.0012384288
1.7936324E-4
3.5533603E-4
9.1989775E-4
-3.1725538E-4
-0.0025941627
-0.0025820408
-0.0011459627
6.317446E-4
5.3704897E-4
-4.7614815E-4
-2.0406242E-4
8.252382E-4
0.0020395322
0.001579601
8.598517E-4
0.0010102412
3.128044E-4
2.8382387E-4
0.0013657422
0.0021207817
0.0020633638
0.0037652317
0.0064160656
0.00513036
0.0041823275
0.0028731711
-8.625508E-4
8.720385E-4
0.0019154986
-0.0011062848
-0.0010093165
-0.0016866048
-0.0025647643
-0.0025224101
-0.0038931987
-0.004986363
-0.0069225817
-0.0049738307
-0.0015505687
-0.0036494725
-0.0034806828
-0.0018536457
-0.0020803157
-6.447513E-4
-6.640735E-4
-6.3566025E-5
0.001194919
2.877379E-4
0.0014192512
0.0030757983
0.0045824074
0.0059796954
0.0036253748
0.002249781
0.0035025591
0.0028517416
0.0013786001
-1.3186365E-4
-8.379598E-4
4.4933532E-4
-2.5123678E-4
-0.001861138
-7.231092E-5
2.653925E-4
-0.0017267853
-0.0020983978
-0.0029070238
-0.002198802
-9.5625385E-4
-0.0026996897
-0.0016681121
7.591E-5
-3.7197088E-4
0.0011892864
0.0019985563
0.003092351
0.0044561075
0.002966982
0.003473711
0.003603659
0.0019016525
0.002060394
-6.278535E-4
-0.0039759474
-0.0026129961
7.612771E-4
0.0026258936
0.0010257455
-6.8493077E-4
-0.0025854984
-0.0044791666
-8.144043E-4
5.426268E-4
-0.0026137712
-9.4147935E-4
4.8328927E-4
-1.4002701E-4
5.1903434E-4
-0.0010635715
-0.0022338082
-0.0017682193
-0.001897763
-0.0021827489
-0.002106577
1.1432517E-4
7.174163E-4
-0.0013758566
-0.0016461575
-0.0015871314
-1.317653E-4
0.0014893092
-2.399121E-4
-8.898487E-4
-9.474697E-4
-9.7105274E-4
0.0010724006
0.0015523906
0.001607586
0.0031647198
0.003921016
0.0037500395
0.0040883445
0.004981286
0.0044599343
0.005418716
0.008142734
0.00743448
0.0052636554
0.0021466333
-3.4813854E-4
1.0166698E-4
-0.0035453325
-0.00816416
-0.008289268
-0.008069592
-0.005425205
-0.0025808318
-0.0025523105
-0.0012426133
-0.0014715123
-0.0029898323
-0.0031148843
-0.004423258
-0.004810233
-0.004153006
-0.003831315
-0.0010799873
0.001655834
0.002197258
0.0027091422
0.0022474378
0.001424373
0.0026124057
0.0030512745
0.0014642724
0.0011247348
0.0015781258
0.001325257
0.0025757165
0.0039095
0.0023040415
0.0012001535
0.002107148
7.8851753E-4
-0.0015038955
-0.0010216564
-1.7910672E-4
-4.1915747E-4
5.280026E-4
0.0025344107
0.0035258196
0.0028885296
0.0019218309
0.0014928693
9.5147104E-4
1.9431543E-4
-4.9058883E-4
-0.00140747
-0.0024425548
-0.0026200754
-0.00196493
-0.0016927494
-0.001512317
-8.123154E-4
-0.0010374625
-0.0020944672
-0.0014951972
-4.1233073E-4
-4.228438E-4
1.7416964E-5
-0.0013800694
-0.0041487603
-0.0030553818
-0.0014050123
-0.0018196838
-0.0010471457
-1.5830014E-4
5.6643615E-4
9.691088E-4
-3.1279484E-5
-5.472572E-4
-8.2916307E-4
-3.9139402E-4
7.1666815E-4
0.0015935241
0.003917685
0.0038095356
8.454587E-4
-2.0505229E-4
-2.741445E-4
0.0018743097
0.0033621215
0.0015401685
0.0033558512
0.0050477125
0.0028111946
0.0025829722
0.0023161804
9.565791E-4
-5.134213E-4
-0.002981417
-0.002773095
-0.00132018
-5.90675E-4
6.246278E-4
-0.0015331573
-0.0048291194
-0.0035316611
-0.0015275888
-0.0011749428
9.2483526E-5
-2.3573366E-5
-0.0011708962
-1.4765018E-4
-6.115391E-4
-0.002065633
-7.7194715E-4
2.2883213E-4
-4.432304E-4
-0.0019287369
-0.0014689474
7.5085147E-4
-5.920127E-4
-7.1462395E-4
0.0015885091
5.75917E-4
3.4132152E-4
5.757296E-5
-0.0014832524
-3.264358E-4
6.132399E-4
0.0013656877
0.0013915246
-7.060783E-4
-6.5355265E-4
0.001641413
0.0039906227
0.003846406
0.003452806
0.0057313778
0.0047416915
0.0027645943
0.0023480845
1.9702602E-4
8.6941133E-4
0.0019351162
-3.8060232E-4
-0.0029437677
-0.005747445
-0.0054186042
-0.0032351168
-0.0040113837
-0.0046824343
-0.0037804432
-0.0017726928
-2.8554007E-4
-7.350344E-4
-0.0011861006
-0.0018870934
-0.0013159387
3.1739287E-4
-8.5188664E-4
-9.6651766E-4
0.001815346
0.0022163158
0.002300005
0.0039704824
0.0029157633
0.0021968554
0.0035751446
0.0026222833
0.0020074802
0.002444243
0.0014271777
-4.5189165E-4
-0.0020673538
5.034117E-4
0.0017335726
-0.0026951896
-0.0039364835
-0.0036969983
-0.0036746548
-0.0011681655
-0.0013446548
-0.0012333854
5.769368E-4
6.5486145E-4
0.0014746141
0.0018839977
0.0024498727
0.0029125542
3.1850886E-4
-0.0014830404
-0.0010643868
-2.3350392E-4
1.5828999E-4
2.4876007E-4
9.4422576E-4
-3.3527397E-4
-0.002002407
-6.193389E-4
7.119717E-4
7.439941E-5
-0.001477444
-0.002010244
-2.1087812E-4
0.0013111603
5.382883E-4
-3.0320455E-4
8.661008E-5
6.3784485E-4
0.0011332956
3.5898673E-4
2.8589644E-4
0.0028635662
0.0023373845
9.524052E-5
7.891637E-4
6.3375226E-4
-9.835633E-6
1.1310204E-4
-1.7919106E-4
1.9422769E-4
7.6515134E-4
0.0010911261
-2.7192684E-4
-0.0023000692
-0.0025117309
-0.0020184033
-0.0014350476
-0.0049972963
-0.008856985
-0.0040483596
4.1786552E-4
2.6125868E-4
9.061908E-4
6.460924E-4
0.002023063
0.004488068
0.0040615876
0.0032261072
0.002531571
0.0026098646
0.0025722946
0.0017342848
0.0027057729
0.0022011625
3.7229445E-4
8.495111E-4
0.0012621622
5.322992E-4
-0.0019788777
-0.003633988
-0.0018427479
-0.0021181707
-0.0029924705
-0.0017757649
-0.0028759553
-0.0034908606
-0.0027117503
-0.0029330857
-0.0012301848
-4.4159306E-4
-0.0018680287
-4.3481437E-4
0.0018793988
0.001967911
0.0017022466
0.0015695535
0.0012830615
0.0026728734
0.0051818658
0.005141252
0.0038378942
0.0023052066
-0.001332739
-0.0015873145
0.0017658558
5.722154E-4
-0.0021170639
-0.0021006546
-0.002972732
-0.0033843021
-0.0018512912
-6.457675E-4
6.454572E-4
9.848351E-4
-1.6340856E-4
-2.0922444E-4
-6.902659E-4
-0.0022012119
-0.0014081447
-8.608835E-5
-4.2938575E-4
3.1527194E-5
8.7921077E-4
-1.1599882E-4
-3.3973032E-4
0.0017565273
0.0017384762
-5.728693E-4
-0.0012070079
-0.0016585821
-0.0019263
5.08657E-4
0.0021829482
0.0012577125
6.32523E-4
-8.443674E-5
-7.1648316E-4
5.191474E-4
3.682337E-4
-0.0012411224
8.8144516E-5
0.0011464305
-4.473847E-4
-0.0012637186
-0.0010886828
9.941699E-4
0.0037105489
0.001920152
-5.253682E-4
6.1343773E-4
7.958447E-4
-2.3305425E-5
7.8476843E-4
0.0010338987
3.659811E-4
-0.0010816513
-0.0029983285
-0.0023987954
-0.0012650222
-9.095924E-4
7.9288596E-4
-2.6174737E-4
-0.001474968
0.0030673968
0.004512352
4.199245E-4
-0.0013525251
-0.0021624411
-0.0022063314
-4.1676656E-4
-5.013905E-4
-2.960924E-4
9.3550823E-4
2.8948518E-4
4.6933656E-5
5.804781E-4
3.385178E-4
8.705178E-5
2.9442937E-4
-2.0700638E-4
-0.0023986748
-0.0018692154
0.0017054415
0.0017632103
4.3842083E-4
5.861534E-4
-9.4432407E-4
-0.0023270624
-0.0018378547
-0.001440208
-8.821454E-4
4.0844685E-4
4.380848E-4
-0.0010702888
-0.0010011594
-4.996287E-4
-0.001382925
-3.2092698E-4
0.0021006295
0.0029760578
0.0026198104
0.0015280092
0.0013770278
0.0018720198
0.0014472313
0.002763943
0.0036172606
-3.080485E-4
-0.0018408606
4.8668197E-4
-2.2665547E-4
0.001232698
0.0034742097
-5.916538E-4
-0.0021443658
-3.2458972E-4
-0.0013545312
-0.0025666675