0.0013371091
0.0012961233
0.001830566
9.073538E-4
9.838141E-4
0.0017333003
0.0017571691
0.0014902258
0.0010050603
-8.0907965E-5
-0.0011259515
3.943774E-4
0.002697155
0.0019329251
9.097101E-4
0.0017318965
0.0020760056
0.0015412609
-4.592067E-4
-0.002260155
-5.771467E-4
0.0012569929
7.188498E-4
-7.208258E-4
-0.0020471246
-0.0010713595
6.8216666E-4
8.9345136E-5
-0.0017523075
-0.00227605
-6.181429E-4
-3.2423006E-4
-9.3143084E-4
0.0010433561
0.0016237503
-9.282206E-5
-8.384076E-4
-0.001467053
-0.0018460329
-9.695851E-4
1.0070099E-4
5.5576704E-4
0.001374356
0.0016069533
2.1280424E-4
2.0730153E-4
2.3076095E-4
-0.0011803639
-9.498764E-4
-7.967584E-4
-7.393395E-4
4.44955E-6
-8.703627E-4
-9.8679855E-5
0.0019473331
0.0010632904
8.2152156E-4
0.0018933892
2.1899546E-5
-0.0014607956
8.06843E-4
0.0025166816
0.0025878719
0.0025630775
0.0014192854
2.953419E-4
-7.645594E-4
-0.002616631
-0.003506176
-0.0022172327
1.2460648E-4
6.091061E-4
4.6002382E-4
8.53994E-4
-3.8952506E-4
-0.0013167144
-0.0026566915
-0.0042104027
-0.0021699793
-2.6695538E-4
6.295231E-4
0.002062584
0.0016129715
6.7402696E-4
2.8923515E-4
0.0010381439
0.0020783646
0.0018088442
0.002003089
0.001531057
0.0021930546
0.0036277075
9.927205E-4
-5.497447E-4
-2.9527405E-4
-0.0013379205
-4.508118E-4
-6.0162146E-4
-0.0024196287
-0.002600613
-0.0018984847
-8.057813E-4
-0.0013760927
-0.002025451
-0.0011498599
-0.0015707727
-0.0012380711
-4.232299E-4
-8.621818E-4
3.707739E-4
0.0015610288
3.3097653E-4
-7.190089E-4
3.944811E-4
0.0011940274
-2.7801513E-4
5.768559E-4
0.003347911
0.002451045
0.0012163265
0.0019427686
0.0014935898
0.0010386432
7.8118854E-4
1.4519948E-4
0.0011608073
0.0014039035
-7.143743E-4
-0.0013285916
-9.4920694E-4
-0.0025426368
-0.0035082896
-0.0015146325
0.0011368601
0.001808148
-1.2703963E-4
-0.001694652
-6.7888765E-4
-7.750974E-4
-0.0014761359
3.8111384E-4
4.8127185E-4
-5.472452E-4
8.448933E-4
4.8206135E-4
-9.954139E-4
-8.801052E-4
-0.0010119064
-5.128853E-5
0.001725775
0.0016916648
2.9222274E-4
-0.0010527087
-0.0013033292
-4.5638814E-4
0.0012113163
0.002132058
0.0018284012
0.0019778777
6.6123804E-4
-0.0010395197
-3.663386E-5
5.548247E-5
-0.0012042848
-0.0011142037
-0.0013171545
-0.0013000242
6.776975E-4
0.0010811172
-0.0014923331
-0.002071976
-5.0145155E-4
6.2627194E-4
0.0025395115
0.00264633
2.645661E-4
-6.9918094E-4
-6.982538E-4
-4.3082022E-4
-5.7007892E-5
-5.5202057E-5
4.1444913E-5
-8.3015935E-4
-0.001535236
-3.6779887E-4
0.0015833912
0.0024031068
0.0016807108
0.0012089576
-9.5882773E-4
-0.003657465
-0.0010753055
0.0017088454
9.771781E-4
0.0012113343
-3.0419568E-4
-0.0028177565
-4.8579418E-4
5.7146343E-4
-0.0032695157
-0.0030725854
0.0012488848
0.0023015135
0.0019569094
0.0025314859
0.0025226532
0.0025708142
0.0011233999
-0.0022287462
-0.0034458325
-0.0018065163
-4.1053214E-4
-6.027406E-4
-0.0013640311
-0.0014678064
-3.0032324E-4
8.099569E-4
-5.016516E-5
-0.0015097221
-0.0010819312
5.499698E-4
9.4452186E-4
8.686668E-4
0.0016309882
0.0017183013
0.0018508655
8.6729944E-4
-0.002488518
-0.0026553413
-7.470688E-5
2.8982168E-4
-2.543133E-4
4.7341664E-4
0.0029676629
0.003950189
0.001794992
3.019399E-4
-7.6278066E-4
-0.0017002616
-0.001145594
-6.459098E-4
-7.210441E-4
-0.0015821366
-0.0021437341
-0.0017928815
-0.0017895201
-5.761399E-5
0.0018086458
2.3984384E-4
6.296136E-5
0.0019688476
2.3740859E-4
-0.001135568
8.3711295E-4
5.0598907E-4
-5.8527605E-4
-7.3088886E-4
-0.0018473897
-0.0014912565
-0.0014841796
-6.6272594E-4
0.0023852899
0.001137528
2.849668E-4
0.0024074356
6.0465955E-4
-0.001273087
-0.0014467472
-0.0017222093
-2.63074E-4
1.9331116E-4
-3.032679E-4
-2.8616287E-5
2.843308E-5
0.0011086401
0.0029405137
0.0036860437
0.0030351107
0.0017888586
5.739107E-4
-4.5159276E-4
-0.0010144925
-0.0011946633
-0.0015497591
-0.0030441333
-0.0025940682
8.529669E-4
0.001036361
-1.9206697E-4
4.7743478E-4
-9.79065E-4
-0.0020251265
-0.0012608967
-0.0013589425
-0.0015944891
-0.0022153982
-0.0011327219
7.9703383E-4
-2.6848086E-4
-6.5603724E-4
2.2782352E-4
1.8714933E-4
0.0018392205
0.003640423
0.0032799884
0.0022612552
0.001196276
6.6049915E-4
-2.1284285E-4
-0.0014996501
-7.972677E-4
6.68717E-4
0.0015677813
0.0011520942
-0.0011196943
-2.450726E-4
0.0014699202
-0.0019840838
-0.0034877884
-0.0012104709
-0.0010889616
-6.679851E-4
7.207171E-4
7.024728E-4
6.362334E-4
8.497622E-4
2.725754E-4
-9.061096E-4
-0.0012191756
-8.0844614E-4
-1.7434642E-4
1.8632198E-4
-0.001012121
-0.0010190711
0.0011583767
0.0023111317
0.0023536184
0.0015940039
3.5294646E-4
2.7973516E-4
0.0013887441
0.0014667019
-9.3267945E-4
-0.0022617078
-0.0011456801
-0.0013912881
-0.0022680804
-5.8175734E-4
9.5320126E-4
-6.900332E-4
-6.5194926E-4
0.0018831097
0.0015039638
0.001325501
0.0021389076
-4.7729118E-5
-0.0016954261
-9.827733E-4
2.923856E-4
3.5185984E-4
-0.001376494
-0.0017547344
-0.0015386788
-0.0020691408
-0.0017148554
-0.0012151911
-5.960445E-4
3.6297904E-4
8.01817E-4
4.1168273E-6
-5.616284E-4
0.0013315455
0.0020176736
3.0532805E-4
3.1539035E-5
5.575758E-4
3.804897E-4
-5.076223E-4
-5.6291226E-4
0.0016367255
0.003056443
0.0025704727
0.0030391873
0.0047611557
0.003912383
1.07185195E-4
-0.001454585
-5.831272E-4
-2.2132091E-4
-7.7431276E-4
-0.0017866488
-0.001146781
-9.141416E-4
-0.0032935494
-0.0040787696
-0.0028149437
-0.002335078
-0.0015175524
7.927807E-4
9.7447954E-4
-0.001676766
-0.0017898733
-8.306802E-4
-7.501104E-4
7.08764E-4
4.1625832E-4
-1.5822536E-4
-2.4586057E-5
-0.0031168077
-0.0037486034
-3.650108E-4
7.4863527E-4
4.2661393E-4
0.0018814418
0.004744934
0.0045966194
0.0011615654
4.342143E-5
7.905389E-4
7.766341E-4
2.8530994E-4
5.5840844E-4
0.0027104926
0.003987549
0.002088386
-6.0000515E-4
-5.7456456E-4
8.031911E-4
1.5274067E-5
-5.5435946E-4
6.248877E-5
-9.649606E-6
3.547009E-4
-3.0587558E-4
-0.002222596
-0.0029495878
-0.0034515383
-0.0038379184
-0.0031753131
-0.0020150256
-0.0010023051
9.1732116E-5
0.0016213043
0.0011981769
-5.5915E-4
4.1554053E-4
0.0014249617
-2.9828196E-4
-8.641991E-4
-6.243394E-4
-0.0017417506
-7.165782E-4
0.0020255833
0.002239772
7.10248E-4
2.2356526E-4
0.0012579205
0.0020542033
0.002029601
6.8201596E-4
-0.002932162
-0.0031879512
7.443146E-4
0.0014030562
4.9651676E-4
4.7137414E-4
-6.9395965E-4
-4.0675982E-4
3.4193092E-4
-3.0297792E-4
5.722166E-4
0.0012584699
-3.0215573E-4
9.071734E-5
0.002512545
0.0015617112
-0.0011325284
-0.0013843104
-9.367315E-4
-8.599955E-4
-0.001038266
-5.934367E-4
7.832299E-4
-3.069409E-4
-0.0014787932
2.2307389E-4
0.0010523066
9.7090105E-4
5.048215E-4
-5.8491973E-5
0.0011784122
8.297961E-4
-0.0014532874
-0.0014866199
1.7514706E-4
5.231584E-4
-0.0010944589
-0.0015188538
-4.18667E-4
-3.683209E-4
5.380996E-4
0.00216355
8.4930635E-4
-0.0019928769
-0.0016226958
0.0012583531
0.0014526348
-2.3301701E-4
-1.2593177E-4
8.599169E-4
0.0012889304
7.960714E-4
9.335801E-5
-6.8123534E-4
-0.0018520883
-8.8269584E-4
0.0014121747
0.0016684603
6.334254E-4
-8.5611787E-4
-0.0025209407
-0.0026454155
-0.0010085978
-2.5487004E-4
-2.890549E-4
0.0014052407
9.918904E-4
-0.0018202954
-8.0476835E-4
7.945998E-4
-5.024511E-4
-9.038737E-4
-6.579036E-4
1.0465727E-4
0.0024210003
0.0022785517
-3.4238593E-4
3.023738E-4
0.002778902
0.0028478985
0.0034851732
0.0044703363
0.0016782994
-0.0017778322
-0.002336915
-0.0015968311
-9.071112E-4
-8.336797E-4
-0.002487654
-0.004209967
-0.0020385783
0.0010671507
6.9732737E-4
1.9656806E-4
6.7321205E-5
-2.6473415E-4
0.0011226056
-1.3597871E-4
-0.0032915324
-0.0022910852
-3.7701838E-4
7.6833874E-4
0.0020737336
3.0171493E-4
-0.0014137154
-3.6602822E-4
4.7599807E-4
0.001654549
0.0019958585
9.1467E-4
8.786717E-4
-6.3861534E-4
-0.0030148055
-0.00286792
-0.0012951576
0.0016761322
0.0026328103
-3.442012E-4
-9.157985E-4
-1.98553E-4
-0.0016915685
-3.081342E-4
0.0027788647
0.0021459742
7.483682E-5
-6.6058955E-4
4.2162213E-4
0.0029470087
0.0032082184
1.7815878E-4
-0.0022322482
-0.0017500835
4.2046973E-4
9.982199E-4
-2.2917122E-4
4.8251325E-4
0.0023254815
0.0022436688
6.091484E-4
-0.0015955223
-0.0023087384
-0.0016667302
-0.0023068464
-0.0021577715
4.0077005E-4
0.0017441951
-6.062164E-4
-0.002814814
-5.225085E-4
2.968794E-4
-0.0035062316
-0.0034187378
-6.564514E-4
-6.1060506E-4
2.686713E-4
0.0012438179
0.002317106
0.0037453629
4.8991916E-4
-0.0019555888
3.683362E-6
-1.154744E-4
-6.2875537E-4
1.6677807E-4
5.3891324E-4
0.0020002602
0.002578992
0.0016986362
0.0013801169
0.001071063
0.0011726203
7.142728E-4
-0.0010394341
-0.0012266111
-8.184082E-4
-0.0013673963
-7.755513E-5
0.0012873464
3.0805092E-4
7.894735E-4
0.0025556437
0.0016117836
-5.6058454E-4
1.6320412E-4
0.001946031
-3.1542942E-5
-0.0014899152
-8.335407E-5
-0.0017099614
-0.003264137
-0.0026951893
-0.0035831186
-0.0024831565
-4.5134866E-4
-7.9754816E-4
-0.0010714394
-6.351375E-4
-2.0866345E-4
-0.0015634781
-0.00249152
-1.7526608E-4
3.2612114E-4
-6.538387E-4
7.677538E-4
0.0019821636
0.0019016244
0.0017681564
0.0027757974
0.0042683403
0.0035090812
0.0027263013
0.0040620803
0.004078446
0.002791085
0.0019197621
-0.0010152145
-0.0037409223
-0.0034146244
-0.004717176
-0.006389007
-0.004514141
-0.0021076798
4.0176502E-4
0.0016406586
-5.838087E-4
-0.0015224285
3.1433592E-4
0.0014180329
8.7996887E-4
-5.6098186E-4
-0.0027005307
-0.0047381576
-0.0028054558
0.0026638918
0.0050359163
0.0047550728
0.005481842
0.0047636237
0.0022422217
8.8358956E-4
0.001156737
9.523373E-4
-0.0022065036
-0.0043772357
-0.0015119691
6.4036885E-4
2.0893628E-4
6.6693734E-5
-0.001988007
-0.004617512
-0.0055206297
-0.004994383
-0.0024994288
-0.0013458164
-0.0011788191
0.0010783162
0.0025197638
0.0025157318
0.0028505567
0.0036035164
0.0023545243
-0.0011524035
-4.5548186E-5
0.0027415883
3.190433E-4
-7.179364E-4
0.0011191794
0.0019749505
0.0031368977
0.0028447062
0.0013258408
-1.8372544E-4
-0.0028988312
-0.0037423552
-0.0027031666
-0.002648415
-0.0017325141
-3.7938022E-4
-5.876776E-4
-0.0010612822
-0.0011620364
-0.0012759134
-0.0014564944
-7.667264E-4
9.0519973E-4
0.002003804
0.0037195133
0.005086818
0.003913437
0.0031416463
0.0016886869
-0.0010900041
-5.373778E-4
0.0011314979
0.0017468185
0.0031059259
0.0032722207
0.0014973411
-2.3757295E-4
-3.7995007E-4
-0.0013649965
-0.005198721
-0.007717597
-0.007604594
-0.0057959612
-0.0034604205
-0.002295556
1.0248374E-4
0.0010545237
-0.0018339197
-0.0043451614
-0.006243591
-0.0047671413
4.0522573E-4
0.0029903196
0.00480595
0.0074218907
0.008180722
0.0067052147
0.003814527
0.004430759
0.005283366
-0.0018860364
-0.007225732
-0.0026398532
0.0021379641
0.003901925
0.003957239
-0.001553963
-0.0068114935
-0.0059366347
-0.0026039786
0.0029251534
0.007820756
0.007827213
0.00603732
0.003033206
2.728489E-4
-0.0012599847
-0.006436756
-0.010956118
-0.009764639
-0.007381349
-0.0035675042
0.0021554658
0.0070986687
0.011587648
0.011654169
0.006480775
0.0026192525
-0.0017943103
-0.0074805785
-0.0069069793
-0.0047383537
-0.008604248
-0.010839157
-0.0065876446
-0.0022343143
-0.0014744501
-0.0022583704
-0.0017662575
4.855785E-4
0.0031500792
0.006073355
0.009378363
0.011122176
0.01011226
0.008031357
0.005625426
0.0015839243
-0.0037222444
-0.0076803598
-0.009540203
-0.0094906865
-0.0055861394
-4.2125693E-4
0.0018827192
0.0040461957
0.005657171
0.0048960946
0.0056004357
0.005676614
0.0023912573
-0.0014826634
-0.008961918
-0.018026818
-0.01823082
-0.010901603
-0.0029799398
0.004581462
0.009696174
0.0106073
0.008906656
0.007096485
0.006232909
0.004461997
0.0041945544
0.007324309
0.0077841072
0.0051957513
0.0028749225
5.611448E-4
1.9980577E-4
-9.328101E-4
-0.004779734
-0.0050133336
-0.0034669454
-0.007918716
-0.012823132
-0.008283334
-0.0030791857
-0.007829048
-0.014951272
-0.01977833
-0.01746315
-0.0029835966
0.0079805
0.009632292
0.011508998
0.009751134
0.0028386933
-0.0037049209
-0.006957511
-0.004777574
9.3632657E-4
0.008186243
0.015233653
0.018593928
0.017286124
0.0148935625
0.014349439
0.01151089
0.0067320033
0.0028491963
-0.0065409825
-0.018718438
-0.021555148
-0.01632465
-0.011413262
-0.0072544958
-0.005756636
-0.011039293
-0.012852158
-0.0049926005
0.0039160466
0.012237827
0.014191951
0.0020447997
-0.011648924
-0.01594492
-0.015159314
-0.009643912
8.566307E-4
0.001989149
-0.0073766867
-0.006207431
0.0048102466
0.013088417
0.015621215
0.009251195
0.005639971
0.009944811
0.009044241
0.007997562
0.011215827
0.007975852
0.001455449
-2.5487423E-4
-0.0023113287
-0.0042006173
0.0017364798
0.0077843782
0.010642368
0.017310355
0.020903006
0.011579874
-0.015256703
-0.04380382
-0.05241347
-0.049126994
-0.036981836
-0.018650835
-0.0072079482
0.0016339585
0.0018401388
-2.6961192E-4
0.013926997
0.025489775
0.031600032
0.040641587
0.037680298
0.030980416
0.0319922
0.029752841
0.017712094
0.005073749
-0.0043386905
-0.019289954
-0.021831704
-0.0019139443
0.015088474
0.026097193
0.030208433
0.020607991
0.012725609
0.004081079
-0.018723084
-0.040624946
-0.03561884
-0.0084238
0.012439842
0.023267442
0.023152962
-0.0011163278
-0.031930294
-0.051664423
-0.06695174
-0.06908716
-0.058358684
-0.05624343
-0.047304153
-0.013129617
0.007104817
-0.0065423585
-0.015402339
-0.009043151
-0.011172389
-0.014640574
0.0050381524
0.044828445
0.07972583
0.0984567
0.092408836
0.04739263
0.004488437
0.0071992837
0.020247856
0.040889744
0.089386225
0.111119285
0.105244495
0.104125075
0.056945726
-0.008212427
-0.025388336
-0.054669198
-0.09615849
-0.098151326
-0.119982965
-0.16302204
-0.1563527
-0.12299265
-0.10509588
-0.06854537
0.007731223
0.049308535
0.035066538
0.03822204
0.061695978
0.08953915
0.092874356
0.051098596
0.039942417
0.023901222
-0.030841755
-0.022527965
0.016727893
0.036768578
0.023787763
-0.050272755
-0.059395004
0.009825866
0.009526472
-0.03194141
-0.029843315
-0.020510511
-0.016581405
0.056142982
0.10452871
-0.001130054
-0.09016686
-0.0754916
-0.04851617
-4.9406855E-5
0.02936652
0.02578292
0.032905977
0.035935864
0.05325195
0.0655293
0.0626977
0.06226755
0.047526747
0.061924633
0.06610252
0.0057692593
-0.033120483
-0.053386454
-0.11230214
-0.16886891
-0.16643783
-0.10999872
-0.053482886
-0.008985784
0.037159108
0.06944201
0.07250515
0.050971627
0.033787098
0.036645044
0.032238457
-0.014834633
-0.057387408
-0.032100417
0.0030370606
-1.492852E-4
-0.028786128
-0.039405122
0.0059710243
0.02102249
0.022539891
0.078553826
0.071663916
0.027673777
0.014503981
-0.03299071
-0.045069825
-0.014096193
-0.014799313
-0.008687686
-0.007724796
-0.016453657
-0.0042022783
8.1008225E-4
0.005054795
0.017273601
0.02013457
0.02297572
0.028960021
0.027565183
0.019132769
0.010984991
-0.0050222725
-0.027160097
-0.03622446
-0.03622685
-0.03126134
-0.021578465
-0.009461495
0.012530625
0.027279343
0.017073149
-7.257313E-4
-0.005582741
-0.0016936052
-0.003319706
-0.0072069545
-0.012209466
-0.012014013
0.007420492
0.026138166
0.031354427
0.027992224
0.013288275
0.002064904
-4.2611442E-5
-0.0013058488
-0.006871625
-0.016651073
-0.011845724
0.003590695
0.013927016
0.015791688
-0.003926914
-0.028904092
-0.03380441
-0.015384579
0.017070256
0.021378314
0.0012836561
1.378817E-4
-0.0012213679
-0.010930145
-0.0077779857
-0.004018501
-0.004412144
6.360531E-4
0.016620891
0.034678172
0.0284544
0.009840278
0.01048364
0.019228648
0.01285149
-0.0027073538
-0.009208411
-0.01294029
-0.020516107
-0.0126463985
2.3481737E-4
-0.003508994
-0.007282812
-0.010118032
-0.018769024
-0.016363127
-0.008932153
-0.00777296
-0.0058069825
-0.004537528
-0.004736266
-0.005721846
-0.008615288
-0.0077752965
-0.002792418
0.0037531818
0.009101078
0.008542514
0.005147216
0.004481987
0.006396653
0.007964231
0.008886393
0.009675067
0.008589503
0.006895448
0.00655548
0.006762826
0.004890152
0.0015356052
0.0014112319
6.196305E-4
-0.0024852408
-0.0020512044
-0.0024167078
-0.004576143
-0.0039366293
-0.0034161475
-0.0041793473
-0.0052531073
-0.00426883
-0.0015567904
-0.0013879342
-9.292005E-4
-6.861225E-4
-0.0030240156
-0.0033942938
-0.0025891315
-4.071366E-4
0.0033589853
0.002139815
-0.0014125297
-0.0021860027
-0.0030072653
-0.0032270201
-0.001412447
1.4262378E-5
5.634675E-4
4.2835117E-4
0.0011857197
0.0032951112
0.0015945047
-9.366065E-4
0.0015948316
9.176528E-4
-0.003750647
-0.0028665315
1.670638E-4
2.2478956E-5
-0.0014670779
-0.0012611462
0.0010689141
0.0021448554
0.0026683698
0.0012940834
-0.0019301841
6.95682E-4
0.0030812193
-6.793968E-5
4.9646775E-4
0.0011613467
-0.0030798682
-0.003435039
0.0032822257
0.010292324
0.009346393
0.002730515
-1.5462268E-4
-0.001520153
-0.0049767103
-0.0058357185
-0.0049665
-0.0047146133
-0.0040928265
-0.0042087296
-0.0021306819
0.0015838516
0.0011139229
1.0509045E-4
1.6073098E-4
-0.0011090646
-2.4266083E-4
8.9129485E-4
4.2398478E-4
3.8291325E-4
-0.0011750897
-0.0021292695
2.4455937E-4
0.002458214
0.0017741707
-4.5187137E-4
-6.657787E-4
0.001084315
0.0016201745
0.0015082677
0.0023978057
0.00158171
-2.3869991E-4
0.0019735098
0.0023865975
-0.0025434867
-0.0036605028
-0.0023500684
-0.0025433395
-0.0012838974
-3.7890003E-4
0.0012703821
0.0024171001
3.1633946E-4
4.0435285E-4
9.857981E-4
-0.0012126012
-0.0020875428
-7.5666804E-4
0.0012569163
0.0013110064
-3.0911015E-4
1.4228356E-5
9.318473E-4
-3.4895478E-4
-0.0025851366
-0.0015393724
0.001082977
-2.662734E-4
-0.001313293
1.4100461E-4
-4.7099736E-4
-6.141896E-4
0.0012202868
0.0026138898
0.0035821842
0.0015523324
-0.001890643
-0.0011530836
5.709485E-5
-7.3508837E-4
-7.265421E-5
-2.1661994E-4
-0.0012503242
-2.3428063E-4
5.372381E-4
2.157091E-4
2.1282464E-4
6.2433805E-4
3.2922364E-4
-4.652732E-5
7.469117E-4
-7.932597E-4
-0.0021654305
1.7809606E-4
4.2716728E-4
-9.2869124E-4
-0.0022388021
-0.0035845083
-7.2227453E-4
0.0015052031
1.2997302E-5
-0.0011861372
-0.0022381814
-0.001686047
-2.4409493E-4
6.454156E-4
0.0010204009
-0.0010442061
-0.0015349846
3.857552E-4
7.9326675E-4
8.919214E-4
0.0010168096
0.0014239519
0.0014765722
8.6662103E-4
0.0018649232
0.002292498
0.0011059599
-3.0204386E-4
-7.931938E-4
1.8712952E-4
-4.490014E-4
-0.0010588405
-9.776744E-5
8.647183E-5
0.0012131672
0.0019580761
0.0013898086
9.6427114E-4
-4.6174298E-4
-0.0013481015
-0.0025797833
-0.0040899944
-0.0024962686
-0.0011736812
-0.002215797
-0.002221254
-4.671742E-5
0.0013715508
6.070665E-4
1.7429938E-4
-3.5598417E-4
-5.609324E-4
4.3946938E-4
-6.857207E-6
-5.048912E-4
-5.201888E-4
-8.9771836E-4
-6.924305E-4
-0.0011001491
-0.0010882613
-7.4031943E-4
1.3947426E-6
0.0012055145
-8.6525123E-4
-7.7723153E-4
0.0029774169
0.0024016951
0.0011519413
0.0017843442
0.001682017
0.0018895861
3.8604654E-4
-4.2107256E-4
0.0012745713
8.6429983E-4
4.751982E-4
0.0011594851
4.5895987E-4
0.0013568153
0.00244554
7.6343224E-4
-2.5889595E-4
-7.141573E-4
-0.0016643227
-0.0013496389
-0.0013040362
-0.0016114207
-0.0018156354
-0.0023210484
-0.0013723348
-0.0013076782
-0.00163647
1.1108208E-4
-7.972045E-4
-0.0019699854
2.6541183E-4
6.561386E-4
4.8822834E-4
0.0014346474
-5.1390514E-4
-0.0016604351
0.0016998909
0.0024116456
-0.0017705865
-0.0025498427
1.5923573E-4
0.0014483888
0.0024592886
0.0025490746
0.0010436159
-8.594042E-4
-0.0015235977
-4.373325E-4
-0.0020123168
-0.0026080923
9.857779E-4
5.205007E-4
-0.001439711
-4.8940635E-4
-4.8779257E-4
8.822939E-4
0.002225209
9.39537E-4
9.0028596E-4
4.8825153E-4
-0.0010332222
-1.7669874E-4
0.0012436329
0.0012608505
5.5833405E-4
-2.8216318E-4
8.057094E-4
0.0015453018
-4.8171208E-4
5.3921354E-4
0.0027842072
7.6033716E-4
2.621402E-4
0.0011659061
2.2610127E-4
3.345279E-4
-6.3946034E-4
-0.0014990636
1.9256747E-4
2.0213543E-5
-0.0016356866
-0.0022829927
-0.0022990182
-0.0022902712
-0.0015382493
8.3714724E-4
0.001036571
-5.675317E-4
-6.858145E-4
-9.364846E-4
5.7653586E-5
1.2423228E-4
-0.0034026087
-0.0046750824
-0.0031248166
-0.0011134584
8.0922974E-4
8.5381506E-4
7.784294E-4
8.979854E-4
2.4484372E-4
-4.6213774E-4
-2.4692967E-4
0.002553794
0.0039883424
0.0023530927
0.0018978238
0.0017944246
0.0020740815
0.0027777904
0.0016494452
8.9790457E-4
7.161069E-4
1.545357E-4
4.055693E-4
8.988731E-4
0.0011073108
9.3357696E-4
9.336194E-4
2.0894413E-4
-0.0023244042
-0.003635245
-0.002785916
-0.0017422333
-0.0014191547
-0.0017107112
-0.0011741616
3.0960352E-6
-1.7581834E-4
-0.0014029021
-0.0011466768
-1.9069688E-4
-2.4678768E-4
1.5721835E-4
4.655045E-5
-1.995188E-4
4.547199E-4
-4.472289E-4
-8.352212E-4
-2.1181193E-4
-1.2675308E-4
5.173339E-4
-2.5304308E-4
-8.700119E-4
6.2488E-4
0.002628646
0.002833444
-0.0012807385
-0.0019845788
0.0013776936
1.4571736E-4
7.223913E-4
0.0031131129
8.7942823E-4
-1.9208956E-4
0.0011695395
0.0016953457
2.3356963E-4
-7.0176035E-4
9.887835E-4
2.916464E-4
-0.0012036932
-8.488556E-4
-6.571684E-4
3.340117E-4
-7.55094E-4
-0.0015810815
6.584655E-4
-5.9005808E-5
-8.381871E-4
-2.9576304E-5
-0.0013504203
-0.0010962327
-5.8293977E-4
-0.0015822116
1.8084662E-4
0.0025650123
0.002863209
0.0023028853
1.8956837E-4
-0.0019912517
-0.00158672
-2.7252443E-4
3.6885313E-4
9.2342513E-4
0.001695199
0.0011035153
-0.001726025
-0.001578869
0.0013029651
7.284497E-4
-7.807287E-5
-2.1476824E-4
-0.0010459062
8.5749256E-4
6.1546214E-4
-0.0018946398
-9.6135243E-4
-6.297413E-4
-6.629289E-4
5.851385E-4
-1.4712462E-4
-9.260084E-5
0.0020451504
0.0023347458
2.9320303E-5
-3.781847E-4
0.0020893614
0.0019465737
1.3327193E-4
-0.0010130657
-0.003064964
-0.0022856751
3.806955E-4
-4.911837E-4
-0.0016586303
-6.2181405E-4
-6.5732596E-4
-5.956482E-4
8.127644E-4
-9.0927235E-5
-3.457273E-4
0.0022642207
0.0020601784
0.0010432363
0.0016212555
0.0013195127
0.0014535396
8.18938E-4
-2.8917714E-4
-6.5100496E-5
-1.235501E-4
-6.603039E-5
-2.903964E-4
5.3016294E-4
0.0023212936
0.0019714283
0.0011272614
-0.0018110942
-0.0041448115
-0.001521402
-0.0023177345
-0.0046382104
-0.0015002679
0.0012415799
0.001310819
7.749731E-5
-5.1989953E-4
8.8931463E-4
6.7300623E-4
-4.3544365E-4
1.6372482E-4
0.0010802356
9.2747883E-4
0.0010229151
0.0021178066
0.0014387347
0.0012069466
0.0025311988
7.315781E-4
-6.086405E-4
1.4130939E-5
-0.0021063718
-0.003310921
-0.0016451129
-0.0013869628
-0.0020596657
-0.001070645
3.9697913E-4
5.992994E-4
6.028364E-4
6.094132E-4
3.201247E-5
-1.41529235E-5
4.685434E-5
-3.0691727E-4
-7.1333296E-4
-0.0014299654
-0.0010469443
6.8400323E-4
0.0024091776
0.004093061
0.0042961957
0.002761968
0.0014984593
7.10527E-4
-1.2598142E-4
-0.0015188586
-0.0021169605
-0.0011545769
-5.41964E-4
6.9736183E-4
3.4938104E-4
-0.0026539331
-0.0018181853
-5.620164E-4
-0.0015756091
3.7985502E-4
2.5718525E-4
-0.0011524279
2.9139404E-4
-0.0014012682
-0.0017581258
0.0013991178
2.9950414E-4
-7.819385E-4
0.0011633245
0.002010297
0.0018999254
6.814847E-4
6.892845E-6
0.0013702456
0.0017658273
-4.032303E-5
-0.0019610738
-0.0011786799
1.3081869E-4
-7.224513E-4
-1.7833605E-4
0.0011688203
0.0010380769
8.922667E-4
-1.2893707E-4
-0.0011247245
-0.0026817478
-0.004939016
-0.0024326276
0.0010341917
4.893867E-4
1.1415398E-4
6.9097703E-4
8.4109535E-4
3.6276935E-4
0.0016194815
0.0037829322
0.0016601373
2.1573428E-4
3.31468E-4
-0.0013496566
2.620829E-4
4.020549E-4
-0.0015953621
0.0015424723
0.0032488874
0.0014681597
-2.5377807E-4
-0.0029468203
-0.0038401128
-0.0020972427
7.73529E-5
8.845615E-4
0.0016686461
0.0033891916
0.0015185572
-0.0017064594
-0.002236382
-0.0013316862
3.8859935E-4
1.8082987E-4
-4.594941E-4
1.7245163E-4
-4.639798E-4
-6.6598004E-4
-3.7319786E-4
0.0011424969
0.00305307
0.0016109494
4.7403632E-4
-8.813706E-4
-0.0025980186
-9.210182E-4
-2.0123916E-4
3.3574912E-4
0.0010217391
-8.580369E-4
-0.0012866706
-0.0021784524
-0.0018706422
0.0018167456
0.0010713272
-8.0814486E-4
-1.9763614E-4
-0.0010020426
-6.8949634E-4
5.62793E-4
8.845316E-4
8.1751304E-4
-1.3196179E-5
-3.0363486E-5
0.0015367911
0.0024875381
7.235131E-4
1.6201651E-4
0.0022191096
0.0019293491
0.0014017512
6.1903615E-4
-0.0011246778
1.7508258E-4
-6.56291E-4
-0.0018384607
0.0012381196
8.988602E-4
-5.7322305E-4
2.1089627E-4
-2.660357E-4
9.674122E-5
-9.246999E-4
-0.0026462076
-7.3032785E-4
-6.207927E-4
-0.0018849972
1.4518657E-4
3.468311E-4
-0.0016534555
-9.477357E-4
-2.65684E-4
-0.001006554
-4.8759434E-4
1.4665685E-4
7.17976E-5
-3.0383343E-4
-2.8622578E-4
0.001137481
0.00116888
6.853283E-6
6.2220095E-4
8.476699E-4
1.062202E-4
5.9787434E-4
0.0017863199
0.0020601945
0.0010873715
-2.0651042E-4
-9.187345E-4
2.989458E-4
0.002147495
6.083766E-4
-0.0016725652
-4.288412E-4
8.1204897E-4
5.65651E-4
3.4821776E-4
-0.0010786379
-2.7416812E-4
0.0025252986
5.203823E-5
-0.0026923101
-4.1892414E-4
9.656323E-4
0.0011518634
6.603861E-4
-0.0013826347
-0.0022274472
-0.0024173174
-0.0010029136
0.0013182877
0.0014608544
0.0015030777
3.9036124E-4
-0.0011690593
3.6503965E-4
0.0018093891
0.0011177821
-9.852585E-4
-0.0015360431
3.2617562E-4
-3.645689E-4
-0.0012114999
-8.992015E-4
-0.003253708
-0.0037286843
-0.0021499714
-0.0022052962
-0.0012561952
1.3887518E-4
0.0017134331
0.003328993
0.0017723048
-6.36953E-5
-3.3334395E-4
-0.0010277325
-5.132826E-4
7.418369E-4
0.0012035192
0.0015937488
0.0015205897
0.001160036
0.0014767591
0.0026551273
0.0035509763
0.003799683
0.004874428
0.0052494477
0.0036726478
0.0023868333
3.924058E-4
-0.00427207
-0.00819084
-0.008205794
-0.006491418
-0.0047974344
-0.0017425807
0.0017453575
0.0019281788
-6.4840337E-4
-3.486754E-4
0.0022619388
0.0011488079
-0.0022824307
-0.003460557
-0.002172818
-2.4100172E-4
3.5749032E-4
-2.743673E-4
-5.464334E-4
8.8733993E-4
0.001817786
6.1512325E-4
0.0014620185
0.0021347788
1.0942391E-4
8.71413E-4
0.0020728402
0.0010506663
0.0014726612
0.0018462179
3.6551544E-4
-0.0018401624
-0.0024382975
-3.5141903E-4
6.2570255E-4
-5.5864203E-4
2.5414498E-4
0.002695139
0.0014875067
-0.0010825442
-7.872299E-4
-0.0012899105
-0.0016680405
-2.404765E-4
-1.2172545E-4
3.6326703E-4
9.1291254E-4
-2.7369594E-4
-0.0011524812
-3.4390303E-4
0.001509766
7.81749E-4
-6.069534E-4
2.5425374E-4
-6.7091506E-4
-4.3175922E-4
0.0017283419
8.852423E-4
0.0013512804
0.002676843
0.0014705288
0.0015561227
0.0011411897
-7.337068E-4
-5.079892E-4
-3.200706E-4
-0.001421679
-0.0023130632
-0.002802787
-0.0027610944
-0.002582512
-0.0016288506
-6.1228895E-4
-8.335815E-4
-0.0010458549
-0.0021846762
-0.0033597613
-0.0022702673
-5.5684353E-4
9.955004E-4
7.8328076E-4
-2.0232871E-4
-8.766947E-5
-0.002011025
-0.0012223548
0.0033806432
0.004351182
0.0059547313
0.0077983188
0.0048972503
0.0035587316
0.0041156523
0.0033375674
0.0016013243
-0.001992579
-0.004214033
-0.0042714397
-0.004705987
-0.0028679753
0.0010737125
0.0016875175
1.7644181E-4
0.0015761834
0.003759234
0.0033152127
-6.4143655E-4
-0.00657205
-0.008761296
-0.007170976
-0.0049682376
-0.0018218851