1.0375679E-4
-0.0010796026
8.675064E-5
-1.2169877E-4
-5.2708364E-4
5.3515204E-4
-3.8316444E-5
2.657781E-4
0.0017876176
6.0618925E-4
-7.963035E-4
4.795329E-4
0.0012214726
-3.2110338E-4
1.2623929E-4
0.0019307375
6.210645E-4
7.169305E-5
0.0011055738
1.3574497E-4
-3.563002E-4
-8.79224E-5
4.825742E-4
9.999274E-4
-7.6670264E-4
-0.001646992
-3.7095865E-4
8.559283E-4
5.7332916E-4
-0.0015941038
-0.0016222994
-0.0013003421
-0.0032959878
-0.0027171338
-5.9427635E-4
8.7441376E-4
0.0016764536
-8.203524E-5
-0.0011900559
-4.3839557E-4
-7.21791E-4
-8.9692924E-4
3.1809625E-4
0.0011736099
9.221014E-4
0.0012480658
0.0021163097
0.0029035807
0.0028330854
0.0011543338
0.0012970828
0.0027094143
0.0024295175
0.0015990947
3.1112102E-4
7.1052206E-4
5.1222433E-4
-0.0028046449
-0.003013778
-0.0018400305
-5.7428866E-4
0.0016002343
-6.607803E-4
-0.0010938331
0.0013584633
-9.950051E-4
-0.002555356
-0.001105984
-2.257776E-5
-5.803993E-4
-0.0024919312
-0.0012106942
-2.9787654E-4
-0.0018458324
-8.8627514E-4
-9.2951185E-4
-0.0025000025
-0.0018748759
-0.0011838345
-0.0016310395
-0.002192591
-0.0019344324
-9.553739E-4
8.1715285E-4
0.0021784448
0.0010481414
3.3205384E-4
2.6246064E-4
-4.7676655E-4
8.1572746E-4
0.002486016
0.003586851
0.004644582
0.004669263
0.005691078
0.005728959
0.0040114876
0.0037829683
0.0027571456
6.8186136E-4
-3.859816E-4
-5.058968E-4
3.8770595E-4
-8.0149E-5
-0.0020105047
-0.0026250524
-0.0017194726
-0.0031867013
-0.008212312
-0.008276781
-0.004032266
-0.0043083928
-0.0052586836
-0.004461337
-0.0025296272
0.0015853186
0.0022497128
0.0010907566
0.0016551125
6.671014E-4
-2.960065E-4
-0.0020427476
-0.0042187134
-0.0019113919
0.0024637755
0.006313182
0.0075386195
0.0050594322
0.003809328
0.003982762
0.0042343917
0.003216073
-0.0017377607
-0.0034341556
2.7978493E-4
0.001121965
4.7999911E-4
0.0013311281
3.9526596E-4
-8.806505E-4
2.0540401E-4
3.0473192E-4
-0.0014927731
-0.001139955
-0.0011821111
-0.0029825943
-0.0017893555
-0.0012523286
-0.0027637125
-0.0014463535
2.1998589E-4
5.7430053E-4
-6.2782865E-4
-0.0021640782
-3.1179257E-4
-4.3245216E-4
-0.0025573543
-0.001111273
-0.0010658172
-0.001407312
4.7013245E-4
-7.6501095E-4
-0.0017108708
0.0011374465
0.0027226303
0.0017182559
0.0010876772
0.0015697052
0.0024871952
0.0039505376
0.004239759
0.00424765
0.0049890955
8.6506107E-4
-0.00408802
-0.0028762033
-0.0021131372
-0.0025078587
-0.0014750193
-0.0025092051
-0.0019005459
0.0010747471
0.0015702144
0.001772423
0.0022997756
-3.9303178E-4
-0.0046454105
-0.004792878
-0.0015616405
-8.1611425E-4
-0.0015217727
-9.399777E-4
-8.5562805E-4
-8.9268386E-4
-1.0356492E-4
6.5902114E-4
0.0013514291
0.002615786
0.0037598594
0.002441535
7.6735707E-4
0.002356494
0.0043847356
0.0041757715
0.0021683413
-1.7566845E-4
-0.0010936697
-0.0022913658
-0.0029100543
-0.0012070867
-0.001289405
-0.0018526787
1.6165433E-4
6.258156E-4
-3.1760678E-4
1.4894394E-5
1.879096E-4
6.2560444E-5
-7.4578385E-4
-0.0028419255
-0.0033125172
-0.0014381455
-4.6093288E-4
-8.428246E-4
-7.2407053E-4
1.0475469E-4
2.4203215E-4
-5.357842E-4
2.8006505E-4
0.0011628247
-5.8280176E-4
-0.0011819976
2.2998161E-4
0.0019312226
0.0028127492
-1.29596765E-5
-0.0013114003
0.0020369715
0.0035981208
0.0032313233
0.0022977088
7.570532E-4
-3.5665417E-4
-0.0024209057
-0.0022620484
6.519461E-4
0.0018995242
0.0025249925
0.0027722283
0.0023836172
0.0025440976
0.001248807
-0.001482926
-0.0027098777
-0.0022523927
-0.0033137652
-0.0049369144
-0.0035242955
-0.0016529787
-0.0013878616
-0.0011305612
-5.235604E-5
8.427956E-4
-2.1406249E-4
-6.55619E-4
-2.6275715E-4
-8.1413815E-4
-4.1097397E-4
-0.0015968824
-0.00258037
1.8497475E-4
0.0013263845
0.0018880751
0.002922317
0.0012845183
7.921736E-4
0.001307035
0.0018054795
0.0029768504
0.0010549519
-4.604782E-4
0.0017304978
0.001969455
4.15183E-5
5.1738443E-5
8.36004E-4
8.210142E-4
0.0011553795
-4.2643634E-4
-0.0037189315
-0.0025800786
5.9419574E-4
4.9516227E-4
-6.2045373E-4
-0.0010211733
-5.7634836E-5
8.483233E-4
-3.2697016E-4
-0.0016256804
-0.0024916166
-0.0016517211
4.2005352E-4
1.6694138E-4
2.6349656E-4
2.9089578E-4
-0.0016120835
4.192836E-4
0.0034860573
0.0013793291
-4.324167E-4
7.890432E-4
0.001023789
-6.9766524E-5
6.625635E-5
3.4840326E-4
-4.0018465E-4
0.0014305828
0.0022868982
-0.0028070312
-0.0047240728
-1.633266E-5
0.0021052484
-8.7213237E-4
-0.0038799492
-0.0022422092
0.0012859841
0.0017832952
0.0010047106
-2.8514845E-4
-1.7937078E-4
0.0011214342
-0.0015901467
-0.002248806
0.0012570409
0.0010549779
0.0012307864
0.002973005
0.0014250227
3.2283147E-4
8.406581E-4
0.0015407293
0.0015617304
-1.03580714E-4
4.2215506E-5
8.593315E-4
-0.0011339571
-0.0023833825
-0.0012664587
2.7577768E-4
0.0013914116
0.0011449644
7.730625E-4
6.0845254E-4
-0.002154074
-0.0043689935
-0.0021924668
-2.8503215E-4
-4.116101E-4
-5.887248E-4
-0.0010561995
-2.1903763E-4
6.4594636E-4
-6.3936354E-4
-0.001527838
-8.0881297E-4
0.0013553277
0.0029876824
0.0016934086
-2.2920135E-4
-9.982313E-4
-1.2534852E-4
0.0025149905
0.003859999
0.0020447632
-1.5526562E-4
5.427818E-4
0.002100145
0.0021710263
0.0010380589
-0.0021995215
-0.0023605688
0.0014604854
4.399455E-4
-0.0013322546
5.812532E-4
-1.06066815E-4
-7.6399086E-4
4.2311457E-4
-8.790501E-4
-0.0029642133
-0.0033513587
-0.001713707
-1.7302973E-5
-5.373926E-4
-0.0012979704
-0.0015463653
-0.0011599754
7.0535374E-4
5.5681117E-4
-0.0015721133
-5.1453797E-4
8.3094573E-4
-4.204764E-4
9.880643E-4
0.0026027337
9.2453026E-4
7.668539E-4
9.926246E-4
0.00101935
0.0026560628
0.0015469798
3.8928807E-5
0.0016752072
0.0021356281
0.0010279409
2.9393175E-4
-5.2939204E-4
-0.0011479497
8.2601335E-5
0.0013892176
-6.09214E-4
-0.0016044767
-6.2201446E-4
-0.0015864416
-0.0010813263
1.496867E-4
-4.3720898E-4
-1.9339797E-4
-8.4038754E-4
-0.002170125
-0.0018862804
-0.0011828392
3.3698702E-6
7.5566844E-4
5.320416E-5
-5.044845E-4
5.261923E-4
0.0015049689
2.3517109E-4
-1.1226973E-6
0.0020609524
0.0019511319
-8.079399E-4
-0.0021119986
3.452746E-4
0.0021045187
3.7564416E-4
-1.1835588E-4
1.7669442E-4
-8.086653E-4
-4.898075E-4
1.2395815E-4
8.9041673E-4
0.00272077
0.002060202
-2.5173373E-4
3.5810484E-5
4.7091814E-4
-0.0015106434
-0.0027695275
-0.0020770847
-8.1423233E-4
4.936E-4
0.0011643389
0.0014262205
8.573645E-4
-0.0012429078
-0.0022313958
-7.3169294E-4
6.011091E-4
6.151623E-4
4.0349248E-4
1.8635383E-4
4.808912E-6
-3.9534774E-4
-7.402448E-4
-8.2508566E-5
1.745845E-4
-3.0969427E-4
-6.6853076E-4
-7.970727E-4
6.29874E-4
0.0010432898
9.056445E-4
0.0040139975
0.003586783
-9.010812E-5
9.224022E-4
5.729899E-4
-0.0023788267
-0.0012669523
8.323036E-6
-7.3486764E-4
-5.832716E-4
-6.7314843E-4
-9.511007E-4
-0.0015682183
-0.0034172283
-0.0017498247
0.0022009108
3.58619E-4
-0.0023535634
4.2685625E-4
0.0028159479
0.0022529673
5.9579493E-4
-0.0010263728
-0.0010351667
-6.0418353E-4
-2.5379268E-4
3.7143606E-4
9.645325E-4
0.0020189595
0.0027138002
0.0026685267
0.0016917409
3.7675194E-4
-3.6029407E-4
-0.0023857437
-0.0027039621
3.040382E-4
9.781217E-4
8.554646E-4
4.5736E-4
-0.002902762
-0.0021287731
2.2048519E-4
-0.0034986085
-0.004296086
2.5195492E-4
0.0020765602
0.0012211885
5.48879E-4
0.0015892123
0.0015586473
-4.5872346E-4
6.5338175E-4
0.0014910202
-4.5015596E-4
-2.2666025E-4
0.0015885812
0.0025029394
7.097368E-4
-0.0016525456
-9.0402475E-4
3.5664346E-4
0.0017964985
0.0017285369
-0.0016489853
-0.0027323302
-0.0010015797
6.8415626E-4
0.0012273873
0.0010993753
0.0013374946
-0.0011090554
-0.002276597
7.404008E-5
-9.002537E-4
-0.0025781519
-0.002519515
-0.0018492909
7.378618E-4
0.0011843588
8.641974E-4
0.0019983463
0.0014058611
0.0010906836
4.968396E-4
-1.6439002E-5
0.00101366
-2.9089733E-4
2.4786108E-4
0.0028901864
4.7949213E-4
-0.001619028
-9.6265564E-4
-0.0023952385
-0.0032147793
-0.0023705224
-0.0014643344
-4.9340946E-4
1.4322813E-4
0.0016424145
0.0013606494
-0.0011516912
-4.4662738E-4
0.0010346124
9.78568E-4
0.001714942
8.67387E-4
-4.886446E-4
-2.0226845E-4
-5.1220285E-4
-0.001152931
-0.0012454989
-4.618826E-5
0.001806812
0.0023588059
0.003262833
0.0038831143
0.0031223847
0.003662555
0.002970772
-7.877295E-4
-0.0024704058
-0.0017881548
-0.0015678675
-9.922652E-4
-9.4411976E-4
-0.0013668586
-3.1992112E-4
-4.952646E-4
-0.0034745804
-0.00534067
-0.004414321
-0.004175295
-0.0056564454
-0.005871603
-0.0043938793
-0.0011271769
0.0020948977
0.0023137697
0.0041938154
0.0061467583
0.0029851007
0.0012604104
0.0010019124
-3.2676134E-4
0.0020266073
0.00384079
0.002048684
0.0022775892
0.004849172
0.0056512016
0.004469497
0.0036548916
0.0023194873
0.0012802265
0.0011331838
-0.0011115808
-0.002558701
-0.0032009603
-0.0063046776
-0.008805729
-0.010609158
-0.010267029
-0.0056323344
-0.0026574535
-0.0034578042
-0.0031730037
1.727111E-4
0.002457275
0.0024132356
0.0034487485
0.0040595513
0.004616839
0.006209991
0.005544179
0.0056799897
0.008117855
0.008101903
0.0053129564
0.0022640852
0.0014806475
0.0019275482
0.0014917883
0.0032300027
0.005378144
0.0028409176
-5.627295E-4
-0.0024460535
-0.0068949806
-0.0109602865
-0.010499344
-0.0077208322
-0.0048887674
-0.0048268964
-0.005634476
-0.004915474
-0.0054304907
-0.0046626204
-0.004106008
-0.0049927733
-0.0020545218
-0.0015476036
-0.003742222
-0.0011090664
0.0011192214
0.0021625787
0.004994232
0.0056258403
0.0025545713
3.385914E-4
0.0023379244
0.004345929
0.0074344208
0.01051752
0.006444312
0.0037965681
0.004471226
0.0017290572
0.0013475092
0.0030421554
0.0049686055
0.0052947053
0.0014362301
0.0017450192
0.0030576396
5.837157E-4
7.077866E-4
5.49265E-4
-1.9964158E-4
6.650604E-6
-5.713661E-5
0.0041160043
0.0057332083
-0.0024345273
-0.011143716
-0.013780578
-0.01089094
-0.0061248844
-0.0057600467
-0.009018228
-0.0099117365
-0.006823333
-0.0018928488
0.0013315823
0.0015009403
0.0012292853
1.8827229E-4
-0.0031445343
-0.0059453766
-0.0048615485
0.0015973632
0.008697201
0.008781419
0.003931493
-3.2111042E-4
-0.0031338374
-0.0024253246
0.0013994459
0.003283531
0.0034242678
0.0042638336
0.005981054
0.009717752
0.010733678
0.0059167854
0.0031155157
0.003571626
0.0021139567
-2.1608522E-4
-6.2438747E-4
0.0013234739
0.0011149091
-0.0048100436
-0.013008629
-0.017774165
-0.014074784
-0.005242146
0.0015848726
0.0067477403
0.009548112
0.008030091
0.0056759515
0.0049723596
0.004546339
0.0018146548
-0.0046801907
-0.010263481
-0.00892392
-0.0045874207
-0.0023379517
-6.2032737E-4
-8.1450026E-4
-0.0028216888
-0.0019428788
0.0016101704
0.005014101
0.0071291127
0.00851873
0.009170857
0.007359333
0.0041946815
6.3948374E-4
-0.00435415
-0.009390648
-0.009842429
-0.003348288
0.0020986777
0.0014793818
0.0022986692
0.0052712797
0.005750691
0.006666983
0.007526847
0.0033324654
-0.0040799924
-0.009364317
-0.011971836
-0.014006548
-0.013662305
-0.01158515
-0.012311971
-0.0120048225
-0.00950848
-0.009758596
-0.008411929
-0.0045489157
-2.4889506E-4
0.005065862
0.006384993
0.009615403
0.017524926
0.019513011
0.020879136
0.024400001
0.021334624
0.012776626
0.00403604
8.0882735E-4
4.296665E-5
-0.0026905132
1.3405639E-4
0.0077540963
0.012789733
0.012523763
0.007603908
0.0019486634
-0.004050136
-0.01162865
-0.022904892
-0.03308749
-0.03229852
-0.02380808
-0.012598576
-0.003973503
-0.0018116594
2.4690488E-4
0.0022009339
0.004086833
0.0012217683
-0.010006022
-0.010545004
-0.0017953395
0.0015742793
0.0051604197
0.009221204
0.015678486
0.02025788
0.012265977
0.005282997
0.0047717737
0.0021872895
-0.0011103362
-0.0029471964
-0.002115818
-0.004908032
-0.01131494
-0.012760328
-0.014616407
-0.014386233
-0.00652825
-4.4926844E-4
0.0033016347
0.007538016
0.008965042
0.0077245063
0.004885964
0.0011340849
-0.0022966184
-0.0047893766
-0.007889085
-0.008910661
-0.0054289745
-0.0031338665
-0.0014668608
0.0018679032
0.0085870335
0.019125784
0.018781513
0.008376273
0.0035927321
0.00497123
0.010211212
0.010321948
0.0039822157
0.0018821618
-0.0018123715
-0.008601726
-0.01483026
-0.020752639
-0.0219692
-0.022693917
-0.02256099
-0.018926194
-0.013659846
-0.009504058
-0.012769055
-0.008230325
0.0039337464
0.0041971533
0.0053171
0.011978172
0.023759056
0.039084017
0.036935665
0.026920358
0.019978775
0.013068786
0.014522036
0.01520951
0.008685174
-6.757522E-4
-0.004926704
0.0045710173
0.016481092
0.032713313
0.05967644
0.07085296
0.050120868
0.019886773
0.00410572
1.4284316E-4
3.1352037E-4
-0.0035247053
-0.020824147
-0.029689677
-0.015382884
-0.014817585
-0.038588665
-0.05525415
-0.070475414
-0.080495074
-0.06365279
-0.069628276
-0.12545647
-0.1608346
-0.13246214
-0.07095818
-0.008518136
0.037278082
0.050128434
0.062448487
0.10197358
0.11579307
0.07536327
8.32588E-5
-0.07971622
-0.10943546
-0.051309835
0.07670788
0.14422171
0.09107965
0.06219969
0.10766146
0.16827121
0.18361022
0.09733149
0.010989912
-0.036544222
-0.10269634
-0.099707775
-0.028866509
0.038656536
0.10619577
0.0930862
-0.029469121
-0.114873834
-0.06404499
0.03445733
0.10418471
0.1688365
0.17371286
0.08857476
-0.01578753
-0.101035334
-0.1639144
-0.22495556
-0.24036387
-0.17615901
-0.12783971
-0.114170074
-0.09949925
-0.10377801
-0.09637465
-0.06527688
-0.06994884
-0.116344616
-0.1439716
-0.116315834
-0.043393794
0.0072350185
0.011944575
0.08392481
0.19958174
0.23838426
0.3011797
0.412413
0.384967
0.22401902
0.11752421
0.041050345
-0.13419898
-0.22522765
-0.115428776
-0.03450649
-0.0012720259
0.061757166
0.036839105
0.015667366
0.12508899
0.18050706
0.10840554
0.059261937
-2.2593538E-4
-0.18790315
-0.40877274
-0.46629927
-0.31947118
-0.15732256
-0.050995484
0.059461415
0.0592787
0.057467625
0.21868268
0.30137646
0.29971167
0.29440537
0.028178373
-0.3658731
-0.50386375
-0.3782938
-0.14969295
0.015044005
0.0838089
0.17559157
0.23915963
0.18170944
0.06535253
-0.073952526
-0.14812398
-0.029246034
0.13438965
0.16467461
0.12454737
0.037103515
-0.06324558
-0.047808453
0.012198467
-0.0041360483
-0.028408425
-0.021809388
-0.022933379
-0.013826183
0.0037804095
-0.010276117
-0.027575364
-0.011289485
0.008712653
0.015528817
0.024569917
0.03405786
0.030874077
0.014633153
-0.007679235
-0.028691476
-0.029071596
-0.011236598
-0.0010366362
0.0048029986
0.011799426
0.013764003
0.015970364
0.016829424
0.013880237
0.0124149425
0.008936668
-0.0020363696
-0.012034734
-0.014215515
-0.019670278
-0.02844408
-0.02815097
-0.02208226
-0.016410358
-0.0106123155
-0.0042007733
0.0025302086
0.008719134
0.014166585
0.017314052
0.017575638
0.014524927
0.007582789
0.0016698854
-0.0018061439
-0.004110225
-0.0060482235
-0.008039286
-0.006524692
-0.0034876834
-0.0027532561
-0.0033226626
-0.005795689
-0.0067532957
-0.0043136305
-0.002671976
-1.447132E-4
0.0017683132
3.2308284E-4
-0.0010763004
-0.0020753033
-0.0015555918
-0.0011728897
-0.0028974751
-0.0030123068
-0.0051606423
-0.008869708
-0.0077704075
-0.00521724
-0.0031899372
-0.0012208271
0.0010180149
0.004534313
0.005073613
0.0024513663
0.0017120504
0.004474892
0.007220316
0.0062805815
0.004098396
0.0011642242
-7.151516E-4
0.0038352867
0.008666523
0.006522544
0.0014362958
0.0013319044
0.005638288
0.003547522
-5.8620377E-4
0.004080122
0.007982088
0.0061426447
0.0067748507
0.009911157
0.011673404
0.013091235
0.014269392
0.008536146
-8.674508E-4
-5.040529E-4
-1.4465218E-4
-0.010800854
-0.01570848
-0.010633535
-0.008963854
-0.012134896
-0.015800271
-0.016994976
-0.01834679
-0.023317322
-0.026057575
-0.025441602
-0.025366131
-0.0242765
-0.021389302
-0.018325021
-0.015753917
-0.009644367
0.001772296
0.011338095
0.018167311
0.026421392
0.0326518
0.03324718
0.029504068
0.0243712
0.0197473
0.01769685
0.019543663
0.01979056
0.016258381
0.0156458
0.016014203
0.010659324
0.0045634587
9.963693E-4
-0.0030792144
-0.0054255147
-0.0090945605
-0.016343363
-0.01737563
-0.0139926905
-0.013864557
-0.012963724
-0.0130013665
-0.015266395
-0.01299087
-0.009754859
-0.009268565
-0.00688238
-0.004286649
-0.0026351947
8.561661E-4
0.0030754933
0.0030009653
0.003897772
0.004891071
0.004313155
0.003790933
0.004073798
0.00238313
-1.05074905E-4
-9.7961376E-5
-4.967047E-4
-6.368534E-4
9.6644805E-4
0.0010995314
0.0019097273
0.0032848136
0.003456977
0.004846708
0.0051749987
0.0043404284
0.004766932
0.0034788526
-7.3039863E-4
-0.0031490794
-6.8485155E-4
4.3174383E-4
-0.0018374576
-0.0010336997
0.0017668579
0.0032247815
0.002523898
0.0011842516
0.0019111913
8.7278336E-4
-1.3436467E-4
0.0024912166
0.0041487706
0.0046039647
0.0037991353
0.003451953
0.0049811094
0.0014735418
-0.0025530986
-0.0021258225
-0.0036133667
-0.0030646985
9.1594455E-5
-0.0013304044
-0.0034166726
-0.0048489026
-0.008083467
-0.009484503
-0.008936097
-0.007463311
-0.0054038824
-0.0054700826
-0.006219839
-0.00550188
-0.0044662543
-0.004323255
-0.0051194686
-0.004635306
-0.0030978525
-0.0017980991
9.33643E-4
0.0032316498
0.0033057549
0.0029060014
0.003107923
0.005691433
0.008976247
0.0092086475
0.008067191
0.0065226243
0.0031736281
0.0013479642
0.0022250926
2.8941614E-4
-0.0026501354
-0.0014467669
-9.0487424E-4
-0.0025117814
-0.0017539981
8.928465E-4
0.0020461602
-5.481606E-4
-0.0027492829
-0.0018260056
-0.001789366
-0.0015006126
-0.0022467873
-0.0061754547
-0.005683263
-0.0019156492
-0.0023875304
-0.004120347
-0.0033033944
-0.001863193
-0.0029538488
-0.0043153935
-0.0016527467
0.0013300811
0.0017146795
0.0012899922
2.665226E-4
0.0010813327
0.0028874648
4.6802094E-4
-0.0031703638
-0.0030238738
-0.0010864254
-1.0449707E-5
-9.6868476E-5
2.899039E-4
0.0017965658
0.0025861822
0.00380539
0.006212098
0.0065860036
0.0053899228
0.0056295227
0.005787139
0.003078509
-0.0017912062
-0.005694322
-0.005728018
-0.0026249737
-9.767076E-4
-0.0019754483
-0.0019059429
-8.737129E-4
-0.0017040573
-0.0021570974
-1.8256216E-4
0.0017220819
0.0028390049
0.0016784556
-0.0016446214
3.8757274E-4
0.0026719756
-0.004222801
-0.0069558085
-9.311206E-4
7.5319957E-4
1.3869784E-5
1.3849986E-4
-0.0015317891
-0.0016699523
-5.1674474E-4
8.915746E-4
0.0019230347
1.2243162E-4
-8.796607E-4
-4.6939484E-4
-0.0017350736
-0.0021626907
-0.0013985479
-0.0012996439
-0.0010250076
-5.2693306E-4
4.614986E-4
0.0019870643
0.0031879393
0.0046998737
0.0053585535
0.0047529913
0.0047834604
0.0026810088
2.0645984E-4
0.0014534453
-7.2069204E-4
-0.0054882676
-0.0045713503
-0.0027904666
-0.0033254712
-0.0033959993
-0.003568712
-0.0030942904
-0.0028648681
-0.0031072586
-0.0011040153
8.346666E-4
7.5406616E-4
3.821642E-4
-6.4345036E-4
-0.0011196038
9.0373855E-4
0.0028896504
0.0035373396
0.0031885616
0.0020992563
0.0033946347
0.004845786
0.0020114863
-6.0740353E-5
0.0013236607
8.162174E-4
-6.474892E-4
0.001274217
0.0014246331
-0.0017284763
-7.315061E-4
4.1030135E-4
-0.0020200568
-0.002213355
-0.002835527
-0.0038725287
-0.0024847712
-0.0011992598
0.0021320067
0.003981647
0.00196434
0.0010140139
-2.447483E-4
6.116821E-4
0.0034428409
0.0034523653
0.003974215
0.0031637587
-7.0698874E-4
-0.0028072917
-0.0027248894
-0.0020603037
-0.002651297
-0.0035198093
-0.0039988
-0.00429784
-0.0017926976
-5.964354E-4
-0.001884323
-7.321389E-4
-7.3181065E-5
-0.0013100326
-0.001521136
-3.6546183E-4
7.474763E-4
0.0012792739
0.0025350878
0.002312342
9.382943E-4
0.0014496496
0.0022049244
0.004546281
0.0077209435
0.0068507977
0.004103923
0.003614976
0.0043634647
0.0032543233
0.0017582396
9.727801E-4
-0.0019048423
-0.0047839275
-0.006331825
-0.0059515513
-0.0024580345
-0.0017076085
-0.0031829705
-0.002242063
-0.001426339
-8.348924E-4
-1.7205499E-4
7.542661E-5
-2.0740144E-5
-0.0017367805
-0.0023067116
-0.0019715086
-0.0030768479
-0.0024016222
-4.529373E-4
1.1332615E-4
1.3622323E-4
8.5259024E-5
4.4608105E-4
0.0016958264
0.0022105686
0.0010482615
8.893133E-4
0.0010613296
-2.1493535E-4
0.0013834188
0.0034325398
0.0015542374
9.214251E-4
0.0012587996
6.805054E-5
0.0012372269
0.0031413978
0.0021932435
0.001298503
0.0020238557
0.0021254965
0.0021018535
0.0020017044
3.2653438E-4
8.891869E-4
0.0029430168
-7.704839E-4
-0.0062507456
-0.005765733
-0.0029651178
-0.0028414938
-0.0034417186
-0.0018555688
-8.2294086E-5
-9.029878E-4
-0.001718986
-9.107962E-4
-8.8256807E-4
-7.483999E-4
6.460274E-5
1.6590975E-5
4.482728E-4
-1.3490593E-4
-0.0022029981
-0.0018921922
-0.0010181054
-8.1645424E-4
2.8529562E-4
0.0011798352
0.0017242939
0.0011287463
0.0015671286
0.0033205308
0.0015507832
0.0010056349
0.003328712
0.0025314644
0.0018166858
0.0021319862
6.66105E-4
-2.5712792E-4
2.8199435E-4
0.0024666456
0.0051558865
0.0048803296
9.6602144E-4
-0.0021621794
-4.821425E-4
0.0014225765
4.5771786E-4
-5.3084607E-4
-0.0025660372
-0.004257917
-0.0033379917
-0.0038736956
-0.005806724
-0.0038094975
2.408526E-4
-0.0011418853
-0.004563902
-0.0041028373
-0.005241082
-0.0045491713
0.001973076
0.0027007961
8.9132736E-5
0.00235376
0.0033927555
0.0036426638
0.00474614
0.0039612986
0.0030677987
0.0017267453
7.7608915E-4
6.3453737E-4
8.206827E-4
0.0031814366
0.0029786883
4.3373762E-4
2.1812467E-4
-5.602933E-4
6.241696E-5
0.0024245025
0.0022719314
0.001043164
-0.0012454799
-0.002856172
-0.0023437024
-0.0023197853
-0.0017227933
-0.0014361704
-0.0029084084
-0.004046935
-0.003355863
-0.0014584159
-0.0012857874
-8.8267867E-4
0.0014423061
0.0025865864
0.0026546873
7.858773E-4
-6.907661E-4
8.5869944E-4
-3.472502E-4
-0.0023523187
-3.1900045E-4
0.0010535436
6.219551E-4
5.955536E-4
7.935367E-5
2.685737E-4
0.0012798212
9.662625E-5
4.6001456E-4
0.0035666237
0.0024578292
8.4389525E-4
0.0016583399
2.7737315E-4
4.3944552E-4
0.0011300911
-8.172713E-4
-9.690128E-4
-3.1196207E-4
-3.5726003E-4
-4.2142E-5
-6.295749E-4
-0.0022115074
-0.0024039163
-9.123333E-5
8.729662E-4
2.2913628E-4
-2.1548585E-4
-0.0017926644
-0.0016787163
-2.1806221E-4
-1.110489E-4
-3.5169494E-4
-0.0010829438
-9.202404E-4
-9.040606E-4
-0.0022136883
-0.0023734414
-0.001182261
0.0013345813
0.0018110606
5.1642646E-4
0.0024482994
0.0027893563
3.2517596E-4
5.809142E-4
0.001681141
0.0012093437
0.001354298
0.0025589273
0.0016247851
1.2552095E-4
-2.6295465E-4
-0.0014045389
5.8629004E-5
0.0011203187
-9.886341E-4
-4.4856736E-4
1.07483174E-4
-2.6832902E-4
-4.2693192E-4
-0.0013341189
0.0010096757
0.0010759581
-0.0017616501
-7.70665E-5
9.6045906E-4
0.0010920034
5.6853157E-4
-0.0037875504
-0.0038346879
-4.1992002E-4
-5.126082E-4
-0.0012176043
-8.6975633E-4
4.3880398E-4
0.0011518928
-7.484748E-4
-0.0015943672
1.4890567E-4
0.0012169456
0.0012361411
4.572165E-4
-0.001630849
-8.626736E-4
0.0016119734
-3.6486666E-4
-0.0014797123
6.945141E-4
9.2768297E-4
0.0018326354
0.0026479305
6.012049E-4
-2.8231615E-4
2.639714E-4
5.988631E-4
4.1781084E-4
-2.0102778E-5
-3.7172304E-5
-0.0011370507
-6.5670715E-4
0.0023879209
0.0024330993
0.0010973685
0.0013403684
8.4359467E-4
3.483631E-4
-4.7077736E-4
-0.002056371
-0.0011494808
0.0010795665
0.0014289947
0.0013080857
0.0015942885
6.1985606E-4
-7.756596E-4
-0.0022399356
-0.0046045985
-0.0045277453
-0.0027016131
-0.0020929135
-5.7877158E-5
9.7551604E-4
-2.9759138E-5
8.839808E-4
-1.09198925E-4
-0.0024481234
-0.0017472082
-0.0014371392
-0.0016126479
-5.762814E-4
1.2474602E-4
8.05127E-4
0.0018946468
0.0022094646
0.001001191
0.0012528442
0.0031691743
0.002946776
0.001910471
0.0015146064
0.0023016976
0.0033567948
0.0015290005
7.905837E-7
-5.442543E-4
-3.0194144E-4
0.0026472392
0.0020184617
-7.6789065E-4
-0.0012435443
-0.0019696255
1.5285947E-4
-1.6083258E-4
-0.0053024613
-0.004044356
-0.0010452569
-0.0023286592
-0.0026639842
-0.0024447767
-0.0019892803
-0.0014156858
-9.146484E-4
5.4542726E-4
5.2589877E-4
-2.1442471E-4
1.03588274E-4
9.118735E-4
0.0015165393
0.0013101075
0.0028919128
0.0051388335
0.0037405665
0.001025514
8.851667E-5
-6.139207E-4
-0.0013856182
2.5549833E-5
6.6716725E-4
-0.0012883621
-9.47144E-4
-3.123562E-4
-0.001029314
-5.477665E-4
-0.0021262437
-0.0029341618
-9.881243E-4
-0.0016588089
-0.001645647
7.953085E-4
0.0012073477
5.8036397E-4
8.932826E-4
0.0016903974
0.0020980681
0.0024018066
0.002782839
0.002457019
0.0022957032
0.0021268236
0.0014078661
2.8706243E-4
-0.0017416539
-0.002063952
-1.7394767E-4
-4.592205E-4
-0.0028689955
-0.004254542
-0.0035963124
-0.0012726055
-1.0632139E-4
-0.0018065085
-0.0028865358
-9.5947814E-4
4.474048E-4
-8.7818364E-4
-0.0014957587
-0.0010652513
-0.0013924434
1.6674944E-4
0.0018800538
0.0011810043
0.0011773886
0.0015059591
0.0030144982
0.0052849697
0.0036950756
0.0019832852
0.0011886697
2.888278E-4
0.0024370078
8.180244E-4
-0.0035110372
-0.0021488667
-0.0014681539
-0.0031254406
-0.0022421877
3.715007E-4
0.0027927293
0.0020747255
0.0011729068
0.0018133499
-6.418073E-4
-0.0036721774
-0.0035448188
-0.001886224
-0.0019347265
-0.0031339966
-0.0012740517
7.342659E-4
6.108597E-4
7.8530796E-4
7.707935E-4
0.0018005118
0.0017723633
-0.0011410211
-0.00136267
6.553927E-4
5.72769E-4
-0.0011504596
-0.0015583404
4.238978E-4
0.0014120665
8.548801E-4
3.5320257E-4
2.7218375E-5
8.2018814E-4
0.0014924076
0.0020711478
0.0029598293
0.0020627165
1.748795E-4
-0.0013407402
-0.0014514016
-7.4767944E-4
-6.679634E-4
3.367954E-5
-4.7459055E-4
-0.0010097382
9.922887E-4
0.0011828874
2.809645E-4
-2.4497588E-4
-0.0013668961
-0.0014165007
-0.0016740876
-1.4540642E-4
9.574559E-4
-0.0021565428
-0.001560691
2.1388824E-4
-0.0012926942
-1.3625718E-4
7.529462E-4
5.107964E-4
2.2474371E-4
-0.0013369881
-8.189751E-4
-0.002102284
-0.0032147386
4.804112E-5
-2.3550805E-4
-0.0012481963
3.0475974E-4
0.0013630776
0.004192196
0.004990727
0.0044709365
0.0043451083
2.3476086E-5
-0.0022100243
-0.0013094319
-0.0017317525
-6.326311E-5
9.874542E-4
7.01869E-4
0.0022276037
0.0019196187
1.6573582E-4
7.1486365E-4
0.0018583196
8.480253E-5
-0.002647899
-0.0029327127
-0.0034221818
-0.0035864422
-9.287207E-4
-4.322136E-4
-0.0016584421
0.0010153939
0.001823603
-0.0024574997
-0.0026042392
9.929354E-4
0.0017712394
0.001380104
-9.324448E-5
-0.0016303005
-0.0018576741
-0.0030750646
-0.0014493633
0.0020010436
0.0014446523
3.1536838E-5
-4.8982055E-4
5.7022053E-6
0.0014483875
6.679794E-4
-2.3692186E-5
3.212496E-4
4.0717734E-4
0.0018120842
0.0014760355
-3.3123253E-4
5.526407E-4
0.0012264069
9.449952E-4
0.0026070005
0.0024108486
-0.0011054624
-6.879076E-4
0.0033547606
0.0037516635
0.002088213
9.690881E-4
-0.0015591957
-0.0041634175
-0.0042888266
-0.001493796
9.4161957E-4
3.3208704E-5
-0.0017510686
-0.003284272
-0.004230065
-0.0022013886
5.839337E-4
0.0010531417
0.0010936285
0.0020179155
0.0011174348
-0.0017542018
-0.0023638045
-0.0015957664
-0.0011187945
0.0015937948
0.002162892
-8.617231E-4
-9.188484E-4
-1.7951679E-4
-4.024206E-5
0.0011872947
-2.7782624E-4
-0.0012217393
-4.2203086E-4
-0.0014333447
-4.058055E-4
7.944281E-4