0.0017842252
9.713172E-4
-8.5740077E-4
0.0022235129
0.0024821144
-0.001273091
-0.0018228119
-0.0015021462
-0.0010387651
-0.0017954155
-0.002339936
5.150948E-4
7.1095093E-4
-0.0013012353
-0.0013675626
-5.917322E-4
0.001600724
0.002675064
9.900108E-4
-7.4020075E-4
-7.8486506E-4
-1.6231526E-6
-5.4373324E-4
3.0987116E-4
0.0014065246
-3.9119206E-4
6.848997E-5
9.766006E-4
2.6168543E-4
0.0010553042
-1.5778081E-4
-6.431018E-4
0.0016668824
0.0020133778
9.0436486E-4
-0.00224131
-0.0025780438
0.0010106285
-0.0011179096
-0.0031402472
-4.745898E-4
-3.1988358E-4
-4.999603E-4
-4.418756E-5
-7.6758413E-4
3.5937115E-5
0.0016143513
0.0012703263
3.794824E-4
7.4473774E-4
-0.0013277403
-0.0025792092
0.002022225
0.004061989
0.0034171892
0.004149174
0.0015506445
-0.0020071967
-0.004054053
-0.003794953
-8.69757E-4
1.5138625E-4
4.4358615E-4
4.0708188E-4
4.3622928E-4
0.002646302
0.0016760377
-0.0017169237
-0.0036132552
-0.0042213066
-0.002477707
-0.0011216792
-3.8538265E-4
8.949822E-4
0.0015166492
0.0013310453
-0.0017429605
-0.0027101038
6.1938126E-4
0.001189576
0.0014614124
0.0018859783
8.609593E-4
0.003963702
0.005326574
7.7886396E-4
-0.0011186375
-3.881424E-4
-1.2512188E-4
0.0012360063
0.0017949018
0.0011678817
8.212883E-4
7.439718E-4
0.0017004263
8.454976E-4
-0.0025698936
-0.0031760857
-0.0023100027
-0.002417426
-0.001222904
-0.001550747
-0.0031508005
-0.001858385
-1.4723215E-4
9.2704526E-5
-2.5770755E-4
-8.999076E-4
-0.0012993466
-0.001140469
0.001019163
0.002997626
0.001449138
-3.3517802E-4
-8.415393E-5
3.5896953E-4
1.7208232E-4
-1.09263136E-4
-3.0899108E-5
-6.2761543E-4
-6.6289265E-4
0.0018005548
0.0034464372
0.001924995
-2.8474117E-4
-5.2373606E-4
4.7815955E-4
-1.6281128E-4
-0.0010647848
-3.9053053E-4
3.6975907E-4
0.0016948867
0.0014641905
-9.478808E-4
-2.248392E-4
6.502957E-4
-0.0014403699
-0.0010354281
7.4851635E-4
9.818194E-4
5.2947685E-4
-7.437998E-4
4.070773E-4
0.003208463
0.0031003149
0.001180179
-0.0024208196
-0.005618104
-0.0044057514
-0.0017817036
8.399818E-5
7.9227926E-4
-4.2465594E-4
-0.0014851657
-0.0020918432
-0.0013091062
5.8011454E-5
-5.974765E-4
5.664484E-4
0.0011769095
-0.0017852149
-1.5094943E-4
0.0030370832
0.0016094865
0.0019264832
0.003010746
8.5132243E-4
-0.0010728001
-0.0010733914
1.2149035E-4
0.0012425889
0.0028832515
0.0039132414
8.25544E-6
-0.003550543
-0.001062302
9.3480624E-4
-2.971004E-4
-3.2760028E-4
-6.175296E-5
-0.0018388997
-0.0026712152
-9.438589E-4
5.793752E-4
4.9373385E-4
-7.223408E-4
-0.0011804589
2.4805166E-4
0.0015873804
0.0033126923
0.0057561877
0.0056655593
0.0040939166
0.0030426611
-5.247755E-4
-0.0048882025
-0.004937553
-0.0034882382
-0.0028655431
-0.0014361081
-0.0011112746
-0.002442802
-0.003629451
-0.0020743674
2.5405706E-4
-0.0033193675
-0.0054928926
-0.0012735582
-0.0010386857
-0.0021813575
2.2389485E-4
0.0013889319
0.002840802
0.0037524302
0.0024102312
0.0028414766
0.0050850613
0.0072201546
0.0076599647
0.0054889023
0.0023036366
-6.498051E-4
-0.0022392846
-1.5145849E-4
0.003822271
0.0018120676
-0.004353993
-0.006195735
-0.0062965397
-0.006226017
-0.004327999
-0.0021432207
1.6259917E-4
-7.203357E-4
-0.0020548939
7.99235E-4
0.0015534062
-5.400293E-4
-0.0018783442
-0.0015493404
7.8659714E-4
0.0016991853
0.0028606516
0.004786583
0.004082179
0.004030746
0.0041319453
0.0038067852
0.0053464314
0.0036261003
-4.907436E-4
-0.0017643856
-0.004145379
-0.008550586
-0.009495734
-0.0064731045
-0.003155436
-0.0013804835
-0.0012731403
-0.0015285062
-2.3958768E-4
6.61588E-4
-1.8333184E-4
5.449946E-6
0.0010036932
0.0014327322
0.0017106447
6.3700293E-4
-1.9778621E-4
0.0023266745
0.00484687
0.0035489337
0.0021841465
0.0038148565
0.003948131
5.064672E-4
-0.001962729
-0.0014684105
2.08077E-4
0.0018956953
0.0024403413
1.7841112E-4
-0.003065075
-0.0032838811
-0.0021724764
-0.0017045264
-7.313587E-4
-0.0014419309
-0.0014568196
0.0014544785
9.841579E-4
-0.0011427142
-4.5757325E-4
-8.47271E-4
-8.49279E-4
6.7152665E-4
-0.0011864506
-0.0032292665
-0.0018161057
-0.0010906244
-2.3195111E-4
0.0025581585
0.0024386654
3.282693E-4
3.2591258E-4
-7.528536E-4
-0.0022782744
-4.336305E-4
3.2194844E-4
-9.433681E-4
8.112581E-4
0.0032971476
0.0033441111
0.0018247816
0.0013083327
0.0053408938
0.0073308325
0.002933608
0.0010217256
1.9279824E-4
-0.0036596751
-0.0056699226
-0.0065511237
-0.006268044
-0.0046326728
-0.004046041
-0.0018567195
8.592393E-4
0.0017712648
0.001299581
-9.640094E-4
-0.0016483682
3.6961318E-4
0.0017663079
0.0012012223
2.3827063E-4
6.132101E-4
0.001016977
0.0016588521
0.00256714
0.0025744766
0.0033898307
0.0037051707
0.0036557254
0.00352117
-3.732433E-4
-0.002877553
-0.0010662252
-4.1892315E-4
-0.0011836396
-0.0033744313
-0.0052802274
-0.0044801906
-0.0038305735
-0.0020486559
9.138803E-4
0.0010323739
1.3521312E-4
2.1834628E-4
-2.587326E-4
-0.0013518048
-5.487358E-4
0.0019302042
0.0026196237
0.0032610854
0.0050590127
0.0048769545
0.0036543605
0.0015090216
-0.0016843565
-0.0014519682
7.020976E-4
5.013424E-4
1.9764254E-4
-4.315778E-4
-0.002719903
-0.003557657
-0.003459908
-0.0030573285
-0.0015411258
-0.0014628957
-0.0010159418
6.510313E-4
2.0959773E-4
3.261486E-4
0.0018393581
0.0012450117
-9.1908436E-4
-0.0015471339
-2.1377139E-4
-4.2850303E-4
-3.288249E-4
0.0016271137
9.141228E-4
6.763178E-4
0.0015125016
-2.8190354E-4
-5.3833285E-4
-3.1568864E-4
-0.0011034055
-1.2566717E-4
1.5460678E-4
5.5051607E-4
0.001160677
-5.8841484E-4
-0.0010459115
9.2387566E-4
0.001931484
8.4378524E-4
-4.3211965E-4
3.6197423E-4
0.0019691286
0.002347377
0.0020972718
0.0024761339
0.002257179
5.513289E-4
-5.2084675E-4
-1.9120335E-4
4.053448E-4
-6.6125643E-4
-0.002454891
-0.0030637146
-0.0051268204
-0.00552263
-0.0017739485
-2.2624005E-4
-8.533429E-4
-0.0018753418
-0.0028530767
-7.3229824E-4
0.0014107097
5.973883E-4
-3.7932198E-4
0.0016100407
0.0041065146
0.0037006526
0.004272861
0.0029344182
-0.0028030025
-0.003646132
-5.119149E-4
5.2836834E-4
0.0012404242
0.0035483032
0.0050555794
0.0027118186
0.0016294066
7.195224E-5
-0.005071094
-0.0033462576
-5.4436136E-4
-0.00264847
-0.0010983762
-0.0024267975
-0.0050114826
-0.0011139347
8.291595E-4
6.136015E-4
8.900865E-4
0.0014597318
0.0034236158
0.0017255513
-8.5106166E-4
2.9302275E-4
0.002155151
0.002318277
-7.614584E-4
-0.0029145067
-0.003679968
-0.004767025
-7.9311687E-4
0.0033435957
0.0022736376
8.281835E-4
6.7380525E-4
0.0023629672
0.0031890236
4.76026E-4
-0.0019603441
-0.0018810208
-2.3850582E-4
-8.818292E-5
-7.879132E-4
3.6418575E-4
0.0011245103
0.0014265401
0.0016149351
0.0012289927
0.0014745233
0.001322596
9.981258E-4
5.793267E-4
-9.77647E-4
-0.0036459172
-0.0057747895
-0.0039555226
-0.0020488994
-0.0030004424
-0.0017447775
0.0010733751
0.0022411507
5.979784E-4
-0.0019826097
-0.0011294275
4.8800596E-4
5.387943E-4
0.001094485
0.00255447
0.0031650637
5.6568603E-4
-3.4927035E-4
0.0028638043
0.0040278938
0.0027608878
0.00167547
0.0017934027
0.0018911166
-8.501999E-4
-0.0037263501
-0.004682662
-0.004603656
-0.003919822
-0.0021347716
0.001625558
0.003031574
0.0023538538
0.0034155254
0.0029406606
0.0019618645
2.3222601E-4
-0.0043423665
-0.004932579
-0.0017657436
5.7344165E-5
0.0011455922
0.0011334876
9.59836E-4
0.0012039588
9.940699E-4
0.0012298941
0.0011372534
5.6480174E-5
-0.0010724736
-0.0016144146
-0.0021694477
-0.0034936375
-0.004215824
-0.003379473
-0.0021089932
-0.0016146621
-8.0352904E-5
0.002927448
0.003071801
0.0016112124
0.001969342
0.0022822039
0.0016516813
0.001391694
0.005064183
0.008127611
0.0023956
-0.0021992268
-3.9166925E-4
-7.426334E-4
-9.590439E-4
3.0581784E-4
-4.7127804E-4
-0.0016090773
-0.0032100622
-0.00409307
-0.0029719046
-0.0010624151
5.5478205E-4
1.17650736E-4
3.7888688E-4
1.7738214E-4
-0.0042323694
-0.0051336153
-9.7429944E-4
3.186471E-4
-0.0011114203
-0.0018699553
7.014501E-5
0.0033077656
0.0026526435
1.6531184E-4
0.0013591631
0.0033461796
0.003112538
0.0030370143
0.0016308285
5.7794086E-6
0.002325453
0.0028022288
4.8370627E-4
5.129647E-4
-2.6659673E-4
-4.453378E-4
5.270316E-4
-0.0023329582
-0.003998884
-0.001935395
-5.650459E-4
1.5676836E-5
1.02694874E-4
6.4545515E-5
-4.5283063E-4
-0.0018457995
-0.0010796918
5.771674E-4
-7.2545826E-4
-0.0023559686
-0.0019893663
-0.0013788427
7.1484566E-4
0.0030099319
0.0015184839
1.9559835E-4
2.4348158E-4
-9.5355546E-4
-1.8278575E-5
6.5421984E-5
-0.0021844495
9.786974E-5
0.0032985385
0.0030807718
0.002451852
0.0014003902
0.0016870197
0.003751086
0.00428806
0.0022190623
-0.0031472808
-0.0077922395
-0.0068401303
-0.0045497157
-0.0045424895
-0.0042646513
-0.0019856894
0.0012011551
0.002901721
0.003170373
0.0038462596
0.004628418
0.0047343657
0.0025516164
-0.0021548432
-0.004914223
-0.0039705522
-0.0017453351
9.2224154E-4
0.0034059095
0.0040007257
0.0020844631
9.3724095E-4
0.002571999
0.002515453
-1.4293219E-6
-0.0010153793
-2.4660412E-4
0.0010166345
9.100375E-4
-0.001262853
-0.0040423004
-0.005858615
-0.004344872
-0.001397083
3.7736976E-5
0.0020425692
0.0028619135
-9.7524695E-4
-0.005404993
-0.0053296294
-0.0017363881
0.0011278283
0.0013867588
0.0011324302
0.0026405964
0.0046934593
0.004180641
0.0010658278
-0.0013480181
-0.0016212004
-8.5273513E-4
0.0010778694
0.0024672286
4.4545563E-4
-6.488004E-4
0.0025243242
0.004922942
0.003996922
0.0019114118
9.039192E-4
7.571885E-4
-0.0014150396
-0.0044841086
-0.0055300337
-0.0042654774
-1.9330904E-4
0.0035575966
0.0021652274
-0.0019318893
-0.0036727889
-0.0030702334
-0.0020037168
-0.0011625625
-0.0018434019
-0.0025616686
-6.1524654E-4
3.0528667E-4
-0.0010137873
3.9530714E-4
0.002673991
0.0016325566
-5.445281E-4
-0.0014121991
-2.3533676E-5
0.0026467824
0.003425615
0.0018874482
1.9305806E-4
-1.07908934E-4
1.6244584E-4
-2.3274831E-4
2.6426246E-6
0.0010421046
0.0016978491
0.0025423132
0.002733803
-1.6789869E-5
-0.004241247
-0.0056584524
-0.0029658666
7.5237866E-4
0.002316348
0.002751016
0.0032414622
0.0016726556
-7.7892815E-5
0.0010467399
0.0016883402
-2.7655408E-4
-0.002370454
-0.0024266627
-0.0013235253
-0.0018043369
-0.0035215307
-0.004636538
-0.0038966383
-0.0019516497
-6.8611396E-4
0.0020398647
0.0053245616
0.005863064
0.005639494
0.005941329
0.0069643217
0.0054586586
0.0021970433
0.004959187
0.004334025
-0.006528559
-0.013110208
-0.010912824
-0.0054081455
-0.002177398
-0.0032057136
-0.0024552762
-0.0025479223
-0.0035352553
-6.7275314E-4
-9.4596914E-4
-0.0025935734
-0.0013363964
-0.0024497013
-0.0025974947
-9.894797E-5
2.310626E-4
-0.0011703346
-0.0018198448
-2.4733425E-4
0.0016319422
0.0036295515
0.0075574666
0.010043827
0.010747941
0.010585753
0.008761229
0.0097737815
0.012100178
0.009698964
0.0041064788
-0.0023389081
-0.0062788823
-0.0065339566
-0.006860229
-0.0048771924
-0.0017893129
-0.004484872
-0.009565093
-0.010433859
-0.006408766
-0.0015874717
8.628738E-4
0.0023801788
9.454317E-4
-0.003420715
-0.006743956
-0.010340516
-0.0129374955
-0.011658503
-0.008876997
-0.0065278476
-0.0037726322
-3.9993705E-5
0.0022041835
0.0029105705
0.0042015533
0.0058794045
0.007661332
0.006672236
0.004464664
0.005107922
0.006641738
0.01112358
0.016080322
0.015684208
0.0129607525
0.0060484214
-0.0021653497
-0.001403197
0.002973093
0.0021805407
-3.5000712E-4
-0.0020307922
-0.0074471426
-0.013484974
-0.0122109335
-0.0088960035
-0.009525402
-0.010613544
-0.00853097
-0.0039279875
-0.001794127
-0.0030747869
-0.0050672577
-0.006616014
-0.005859516
-0.0026814078
0.0022150408
0.00758601
0.011332122
0.012199574
0.011572634
0.011260762
0.007482421
0.0034006091
0.0025483554
-0.003568327
-0.011596515
-0.015557081
-0.019150304
-0.020306248
-0.018620377
-0.013233107
-0.0040572924
0.0027215616
0.007373544
0.013048652
0.0212811
0.029973289
0.03729093
0.044474166
0.044891883
0.04113381
0.040181354
0.032075547
0.014207759
-0.00917483
-0.035196997
-0.047930844
-0.041132715
-0.03017165
-0.024886252
-0.024046276
-0.028067203
-0.029550051
-0.022173751
-0.022207825
-0.030187061
-0.025298083
-0.009495156
0.002324066
-0.004012741
-0.021430021
-0.021230645
-0.010290396
-0.006014539
0.0018830005
0.016231654
0.03669873
0.063358255
0.08319011
0.090783484
0.09232311
0.08751962
0.06633167
0.030749196
-0.007149752
-0.048537638
-0.09117858
-0.11619972
-0.10345977
-0.06991506
-0.056678157
-0.05107694
-0.030389331
-0.011645794
-5.568224E-4
0.008377208
0.033271696
0.06284124
0.052807637
0.028160239
0.017708927
0.015015243
0.012546592
-0.015371163
-0.020193927
0.021549517
0.03901689
0.045339793
0.05241795
0.04184843
0.04160145
0.032891933
0.015037375
0.009329502
0.0034637994
-0.0034404753
-0.02494367
-0.039174773
-0.04241527
-0.072219
-0.09074227
-0.102406174
-0.12551749
-0.101090625
-0.041490212
0.003856132
0.014906294
-0.0017054188
0.0061135557
0.039605148
0.062711455
0.08293024
0.09471613
0.068976305
0.030112889
0.02119044
0.024439078
0.012692951
-0.015588916
-0.038077947
-0.019534085
0.029389944
0.09490001
0.15711388
0.1582137
0.093996525
0.009377665
-0.05729004
-0.0971327
-0.105501495
-0.08335827
-0.08948026
-0.10261445
-0.07127834
-0.06644072
-0.08440068
-0.069344014
-0.05219735
-0.049957044
-0.050125156
-0.018953238
0.047218505
0.09777642
0.11494668
0.09724716
0.04051816
-0.042219523
-0.075155854
-0.018229557
0.003997036
-0.020388564
0.032259405
0.1301257
0.20221604
0.20597154
0.11533173
0.027973197
0.0033087437
-0.031190822
-0.077373415
-0.0443735
0.008584289
-0.024228765
-0.054469533
-0.08036233
-0.13506071
-0.07688765
0.010292765
-0.0065193856
-0.0070239184
0.014605896
0.0061305976
-0.03287934
-0.10768089
-0.1238342
-0.08771059
-0.053135
0.015931562
0.06573996
0.06623328
0.030122226
-0.00729759
0.028649451
0.04074631
-5.6836525E-5
0.018472005
0.044509828
0.053937964
0.06836987
0.0401618
-6.91571E-4
-0.024894271
-0.011886367
0.07115881
0.13708656
0.080810264
-0.027863698
-0.038082555
0.0051478944
-0.011303675
-0.030552505
-0.037385177
-0.05921405
-0.033280324
0.008735024
-0.014816392
-0.03878221
0.005147986
0.025413966
-0.012305435
-0.0030596654
0.0384846
0.045955576
0.019437455
-0.057765502
-0.12182985
-0.10143044
-0.045771115
-0.006471172
5.6668685E-4
-0.0019515906
0.011433178
0.027653556
0.03836359
0.026500272
0.009941452
0.015075258
0.010887251
0.003928364
-8.404975E-4
-0.021426613
-0.021642977
-0.0021240176
0.006393903
0.0129802115
0.022539683
0.037728272
0.0488449
0.03699252
0.0108693065
-0.007171829
-0.0027812624
0.0050581126
-0.0021806138
-0.00939244
-0.012994763
-0.013354671
-0.007110034
-0.0071189497
-0.013937868
-0.017189149
-0.013750022
-0.004514866
0.005364301
0.00995194
0.008663358
0.0093714595
0.008474377
0.0017222179
0.0029867676
0.0042821835
-0.0049672048
-0.009897328
-0.008965005
-0.007403735
-0.007837187
-0.009897161
-0.006935523
-0.0093299225
-0.017644906
-0.017660992
-0.013766672
-0.00863983
-0.0047221025
-0.0051835272
0.0015935875
0.014081365
0.01950949
0.016036976
0.010908979
0.008880503
0.005706114
0.008146874
0.016772779
0.014726645
0.011529305
0.022845635
0.032948054
0.026900547
0.019409027
0.02173279
0.013085038
-0.009330624
-0.026313493
-0.03548421
-0.027009685
-0.008905641
-0.009990129
-0.020825451
-0.02856429
-0.0310397
-0.018518822
-0.006708226
-0.006736858
-0.0022747843
0.0072230105
0.0071491273
-0.002026976
-0.0050816624
-0.0029112706
-0.010296969
-0.017106498
-0.007924298
0.0052916426
0.009756251
0.013097761
0.021573925
0.023458334
0.017713714
0.01917901
0.021505455
0.01685465
0.012526701
0.0068026334
0.002861881
0.0030560538
0.0011339108
-0.0013593481
-0.006032452
-0.0038239341
0.006537908
0.0033666205
-5.1792903E-4
0.0040573915
-0.002114283
-0.008176776
-0.0069761844
-0.0071514295
-0.008067389
-0.013045247
-0.016749205
-0.016338576
-0.014263843
-0.008718248
-0.007811789
-0.009364488
-0.00975654
-0.011253913
-0.0057509067
-1.6900386E-4
0.0023988006
0.009040349
0.010048228
0.008608156
0.010009066
0.0068762405
0.0041237404
0.0023595805
-5.825715E-4
-5.2399305E-4
2.0090742E-4
0.0010246127
8.2603766E-4
-3.160629E-4
0.0019267381
0.004088727
0.005867659
0.007578304
0.003975577
-0.0018857244
-0.0068197194
-0.009509413
-0.0071501215
-0.0039717853
-0.001131224
0.0050695622
0.009124053
0.0049391626
5.4313504E-4
0.0011221351
9.134553E-4
0.001982797
0.0031024397
-5.974579E-4
-0.002723477
-9.1027754E-4
0.005455043
0.008005427
-0.005172955
-0.015818387
-0.01316073
-0.010266437
-0.0089293765
-0.008390542
-0.008383376
-0.00756296
-0.0056069097
-0.0013505114
5.538267E-4
0.0017317694
0.002208435
-0.0010677974
-6.077438E-4
0.0015090771
0.0016699696
0.0028894711
0.0042490372
0.0075237574
0.00776614
0.004441522
0.005214198
0.0049643433
0.0029598817
0.0029377888
0.002755503
0.0055084606
0.009076015
0.0070147053
0.0022214295
-9.238551E-5
-3.6493762E-4
-0.0032365392
-0.008710551
-0.010298314
-0.0087666325
-0.009358202
-0.007233923
-0.0017897012
-1.05557556E-4
0.0013752792
0.003882292
0.003107452
3.0677585E-4
-0.0033549576
-0.0034500214
-5.3119834E-4
-6.0778245E-4
-0.0020094116
-0.0038766686
-0.0033174208
-5.4669107E-4
-0.0017080631
-0.0015352139
0.001106571
0.0016452533
0.002281333
0.0016915982
7.867434E-4
0.0014174388
0.0023460719
0.003297122
0.0020988327
0.0030359516
0.0053018564
0.0012578155
-5.553105E-4
0.00248481
9.125961E-4
6.43083E-4
0.0050893244
0.005086817
0.0018930847
7.755783E-4
-0.0014695353
-0.0041425023
-0.0038473636
-0.0037517396
-0.003394241
-0.0013710735
-0.0023116465
-0.0025079965
0.0015335343
0.0015163446
-0.0017961876
-0.0021509624
-0.00283004
-0.003279299
-9.55038E-4
-4.2053833E-4
-0.0016004365
-5.9519365E-4
-1.4178043E-4
-0.0022624242
-0.0025583862
-7.9131295E-4
-5.5172713E-4
-1.8512963E-5
8.381032E-4
7.6131383E-4
0.002661249
0.0029889557
-0.001121866
-0.0026462544
-0.0011806869
-0.001323023
1.0540063E-4
0.0020480945
-0.0010079521
-0.0030466125
4.922323E-4
0.002035237
0.0010786749
0.0024930495
0.0022955802
-7.9765404E-4
-0.0021444776
-0.002502085
-0.0023227895
-1.8883176E-4
5.186746E-4
5.4288906E-4
0.0019679673
0.001650294
0.0017349366
0.0020577286
-3.1904958E-4
6.686317E-5
0.0015668876
-4.480052E-4
-0.0011130818
-6.917753E-4
-0.0011289754
-5.334666E-4
-0.0012497999
-0.0027021286
-4.6990934E-4
0.0022061835
4.0251983E-4
-7.625124E-4
0.0012544253
5.9192185E-4
-0.0019904263
-0.0027598904
-0.0019487906
-0.0017032003
-0.0039521633
-0.0049995785
-0.004629326
-0.004990321
-0.0038227
-0.0031647263
-0.0012628918
0.0023204992
0.002073881
0.002934412
0.0034219224
-6.8983895E-4
1.4717982E-4
0.0030027085
0.001046243
-9.110046E-5
4.082431E-4
0.0023974415
0.005194646
0.004483756
0.0034389473
0.0045784586
0.0040487503
0.0029759647
0.00303237
6.337947E-4
-0.0021526492
-0.0024541763
-0.0027741794
-5.198352E-4
0.0022459927
-8.411494E-6
-0.0014347355
-6.643753E-4
-0.001987033
-0.0053912885
-0.009800269
-0.009859391
-0.0062605185
-0.004578965
-0.0030066853
-0.0014378887
1.0205682E-4
0.0018103337
0.0015863269
0.0026249045
0.003992573
0.002455921
0.0011316561
4.61571E-4
6.174453E-4
0.0023665125
0.0032344933
0.003215814
0.0025691024
5.975085E-4
-0.0016253439
-0.0029487605
-0.0011820757
0.002897999
0.0043270155
0.004094879
0.0058679236
0.005853007
0.0032778678
0.0038773555
0.0036901655
-0.0021352253
-0.0050918623
-0.002534922
-0.0014724367
-0.0018510995
-0.0025669832
-0.003945461
-0.0024552972
0.0011719981
0.0035970367
0.0053539225
0.0065145465
0.0040517584
-0.0025918838
-0.006900308
-0.0065564266
-0.007406097
-0.008985858
-0.0066119106
-0.0015965949
0.0017148622
0.0022867213
0.0016005917
2.2264261E-4
5.7226536E-4
0.002117615
0.0030265562
0.006339238
0.0055287583
-0.0012930278
-0.0012913625
0.0014850753
5.3620446E-5
-5.7241286E-4
-0.0021737788
-0.0018113421
0.002389886
0.002756147
0.0019279132
0.0026359903
0.0010719695
-3.9412553E-4
-2.039842E-4
-3.7631727E-4
1.500135E-5
0.0013876992
0.0019982453
0.0017318778
7.336988E-4
-5.2293367E-4
-4.6353668E-4
-4.283624E-5
-6.328034E-5
-1.1657435E-5
-5.5880594E-4
-0.0019048902
-0.0022159289
2.2765796E-4
0.0014287212
4.4615482E-4
0.0022628235
0.003851901
0.0022366878
-0.0030529597
-0.010463786
-0.00989528
-0.0047143465
-0.0027021116
0.0012534175
0.0031896126
0.0019589725
0.0038830473
0.0049751652
0.005283513
0.0053644544
-2.9207E-4
-0.005756868
-0.0034140407
-8.1537233E-4
-0.002519254
5.526165E-4
0.0050390363
3.488638E-4
-0.0041009397
-0.001772683
-8.324579E-4
-0.0013908604
1.8600404E-4
0.002162765
0.0027359242
8.518481E-4
-0.001474479
-7.666479E-4
0.0012196916
0.0025057828
0.0027653011
-1.1583757E-4
-0.0018261863
0.0013611314
0.0030069833
0.00150531
7.8802E-4
0.0018154368
0.0037648664
0.003944841
0.002249676
0.0014152132
0.0022353686
0.0013266194
-0.0030021048
-0.005410345
-0.0049365773
-0.0039591216
-0.00344122
-0.0051512397
-0.0038870568
-2.9196538E-4
-0.0010677093
-8.868923E-4
0.0018611581
0.0021988682
9.3694974E-4
2.2610265E-4
5.4797856E-4
7.047185E-4
0.0024827407
0.0037059525
4.8391163E-4
-4.0199098E-4
3.6636487E-4
-8.47193E-4
-4.2153607E-4
-0.0015181358
-0.0024605908
-0.0014922599
-0.0021563177
9.9207995E-5
0.0021472438
1.7163368E-4
-7.4530416E-4
-9.894142E-4
0.0012947005
0.0037215527
0.0018076194
0.0015978498
0.0017760696
4.1049995E-4
7.537101E-4
-6.654875E-5
-1.3486239E-4
5.7755335E-4
-5.227575E-4
0.0011994969
0.0028852718
0.0021561908
0.0033162918
0.0035508587
0.0023469552
0.0020347836
-3.034113E-4
-0.0050302423
-0.008314866
-0.007774462
-0.0062415027
-0.004933298
-0.0018671429
-5.8302685E-4
-0.0011980288
3.0300014E-5
0.0010659016
0.0016043131
0.0022884845
0.0030833783
0.0050409245
0.004803083
0.0024914008
0.0019263296
0.0020739918
0.0014610977
2.1589613E-4
0.0012615984
0.0026391284
-0.0016146031
-0.0030315581
0.0017462339
0.0015230536
-0.0011280321
-0.0017627968
-0.0031961708
-0.0022281723
-6.1328645E-4
-7.3669164E-4
-3.734946E-4
-9.7264413E-4
-0.001070255
-0.0012350645
-0.0035731466
-0.004150096
-0.0028872776
-0.0011559647
5.8188476E-4
6.853052E-4
0.0015647192
0.002799809
0.0029321578
0.0043645827
0.0044347104
9.715938E-4
-0.0015785396
-0.0016709557
-0.0016513618
-0.0010855929
1.455191E-4
3.0979537E-4
8.0795464E-4
0.0016035668
7.6737057E-4
4.8717106E-4
0.0013823367
0.0015979665
0.0025199407
0.003612098
6.0917577E-4
-0.0027244717
-1.3290197E-4
8.1948057E-4
-0.0023856803
-5.9537083E-4
0.0030748372
0.0032246904
0.0016466739
-6.1210134E-4
-6.1682204E-4
-0.0011342904
-0.0044470187
-0.004374837
-0.002271337
-0.0024319792
-0.0021418917
-0.001199484
-0.0021761535
-0.0017647378
0.001181426
-2.2847994E-4
-0.0025076342
8.2958734E-4
0.0019818174
-4.857633E-4
-0.0012252653
-0.0015526012
-0.001009603
0.0011651735
0.0035585302
0.0040162452
0.0023634168
0.0020250403
0.0014859217
9.533435E-4
0.0026966901
0.0025166236
0.0018653348
0.0018940395
-0.0014211247
-0.0030595702
-0.0012421947
-0.0015625982
-0.00174276
0.0010253339
0.0025914952
0.0017387411
0.001832369
0.0015493582
-5.8918423E-4
-0.0010169991
-0.001709386
-0.0034210354
-7.730273E-4
0.0012431388
-0.0012572117
-8.675608E-4
1.8800463E-4
-0.0022029858
-0.0027283274
-0.0021421507
-8.127719E-4
0.0026831976
0.002782928
0.0016064264
0.0018404712
-7.15589E-4
-0.0022265157
-8.569397E-4
-6.0560653E-4
-0.0012831062
-0.0013402121
1.168834E-5
6.0911756E-4
1.3694174E-4
-6.430799E-4
-0.0021767379
-6.76771E-4
8.4319845E-4
3.8620696E-4
0.0041038073
0.0061077476
0.0024495448
4.0447715E-4
-2.0338944E-4
-0.0023476821
-0.0039218827
-0.0030890424
-0.0026479205
-0.0021530425
0.0014339674
0.0034008883
0.002541055
5.241783E-4
-0.0018832069
-2.1284189E-4
0.0015669137
0.0012547309
0.001976051
4.7295156E-4
-8.897651E-4
-6.5732986E-4
-0.0010757934
-2.1344163E-4
-6.307935E-4
-0.0020486708
-0.0012906782
5.177661E-4
0.0018886882
6.8839884E-4
3.5667853E-4
0.0029837575
0.003496415
0.0020032905
-7.40485E-5
-0.0019166574
-0.0010682781
-1.9341745E-4
-0.0017794407
-0.0030784595
-0.0031061636
-0.003627227
-0.0031796126
-0.001584999
-9.4515894E-4
-4.2899952E-5
-4.35351E-4
-0.0011969028
0.0011078527
0.0017921197
0.0011999002
0.0016172128
8.1923744E-4
0.0020262944
0.0025848723
1.1743709E-4
-8.9557574E-4
-0.0021625091
-0.0014145704
0.0020423997
0.00394905
0.0064948527
0.005483762
0.0027092304
0.0047490145
0.001995219
-0.0020063743
3.782068E-4
-7.4212207E-4
-0.0022700166
-0.0011289394
-0.0023558494
-0.0011665253
-0.0014628756
-0.003998561
-0.0013592181
-0.0011637763
-0.003155801
-9.6728257E-4
-0.0014117003
-0.003405108
-0.0030961342
-0.0034668064
-0.0024018132
-7.434716E-4
-0.0017021777
-0.0022384757
-0.0012743254
-1.05318744E-4
0.0012400154
0.0019828393
0.0023881507
0.0029455682
0.0032469335
0.0037688443
0.003608224
0.0014221673
-6.7246605E-5
0.0024468964
0.0056729293
0.0050410763
0.0027339468
0.0012777748
0.0014337585
0.004001701
0.0061101
0.005972268
0.0016577753
-0.005717513
-0.00706711
-0.005474747
-0.0069465903
-0.0042405827
-0.0010455939
-0.0027497993
-0.0027698362
-0.0030771054
-0.004872254
-0.0023105135
5.992577E-4
-6.409148E-4
-0.0014939785
-5.3058483E-4
-6.372971E-4
-0.0012116393
-0.0012873819
-0.0014663404
-0.0015182927
-6.260461E-4
0.0014198739
0.00186315
0.0013987317
0.0030498747
0.0038050818
0.0033848297
0.0020700563
4.3242678E-4
0.003329785
0.003958209
2.553565E-4
0.0014362829
0.001791295
-1.98408E-4
0.0016680708
0.0012507676
-0.0016515823
-0.0015013611
1.4302738E-4
0.0010616176
8.6378003E-4
0.0010304945
3.8596825E-4
-0.001336555
-2.9732406E-4
0.001958178
0.0016175938
-0.0024768708
-0.0057872366
-0.0038749224
-0.003072827
-0.0028045538
1.6080824E-4
-0.0018094274
-0.0043267524
-0.0019952417
-0.0011367411
-1.4531819E-4
0.0014640151
7.1506726E-4
-3.3590457E-4
-0.0011367135
-2.7524878E-4
0.0012905118
5.287759E-4
-9.693957E-4
-7.219096E-4
0.0018558756
0.0023903039
-3.6986534E-5
2.0844025E-5
0.0013152515
0.0021562108
0.0032878262
0.0028111883
0.0025603652
0.0037333504
0.003759465
0.0023967389
0.0013842786
0.0010561496
2.1239242E-4
-8.0859446E-4
-0.0018581037
-0.002224224
-6.456115E-4
-8.732638E-5
-3.4879358E-4
-1.957959E-4
-0.0025696007
-0.003435006
-8.340726E-4
-0.0013892826
-0.004078664
-0.0045294254
-0.0037230826
-0.002218423
-0.0010689861
-0.0012040164
-2.5281133E-4
6.614586E-4
-0.0013160808
-0.0020210287
3.2089034E-4
8.945584E-4
2.7107936E-4
0.0016463909
0.0032699485
0.0030227483
0.0017161997
0.0012748289
0.0028022213
0.004076012
0.0026045016
0.0013789252
7.1199774E-4
-3.290765E-4
0.0033171645
0.005311658
-3.0529704E-5
-0.0012596094
0.0013683337
8.931851E-4
-9.2587015E-4
-0.0038232286
-0.0027338283
0.0010454216
-3.509519E-4
-0.0024205546
-0.0030169988
-0.0028286465
-8.8991795E-4
-0.0018129938
-0.0036356812
-0.0028594392
-0.0020236827
-0.001424119
-0.0012367676
-0.0012650673
-3.0791006E-4
5.5190094E-4