6.820279E-4
0.0012246533
0.0019131671
0.0028141718
0.004498005
0.0029614929
0.0021261843
0.0035330767
8.416201E-4
-0.0041542402
-0.0051748366
-0.0052008764
-0.0064166295
-0.0052315537
-0.0034399864
-0.002531741
-0.0019130862
-0.0021339478
-0.0012075567
-5.0153554E-4
-9.1867096E-4
-6.725619E-4
-4.4478616E-4
0.0010626389
0.002206873
4.4274333E-4
-6.0335477E-4
4.6941402E-4
0.0013867781
8.191696E-4
3.6966626E-4
0.001977249
0.0028687038
0.0011095561
3.4559343E-4
0.0019161657
0.002062218
5.8762496E-4
-1.5227031E-4
6.14934E-4
0.0016786171
5.0219736E-4
6.8654603E-4
8.9933124E-4
-0.002464178
-0.001890391
-0.0014010747
-0.0034994772
-0.0010825173
-0.0010936911
-6.853243E-4
0.0026125757
7.932584E-4
0.0014070026
0.0024223286
-7.0865295E-4
-5.245873E-4
8.1619824E-4
0.002528494
0.0020450798
-8.931815E-4
5.2419887E-4
8.147191E-4
-3.956771E-4
1.551105E-4
-9.7632286E-4
-0.0017512187
-0.0022588992
-0.0013576802
4.3236205E-4
-0.0015328309
-0.0025488697
-7.640678E-4
6.0806726E-4
0.001273179
0.0011429426
0.0016195736
0.0019795492
8.936849E-4
-0.0011504989
-0.0020557388
-6.863067E-4
3.551811E-5
4.026751E-4
-3.612884E-4
-0.0025122094
-0.001513941
-2.988646E-4
6.352487E-5
0.0019630648
0.0028266807
0.0034145105
0.0018016112
-0.0011951089
5.558815E-4
0.0013319552
-0.002169294
-0.0034964278
-0.0030308904
-0.0030986238
-0.002273983
-8.918425E-4
8.6485955E-4
0.0031324215
0.0038392125
0.0034673973
0.0030804705
0.002208152
0.0025406436
0.0026746632
0.0018055829
9.3946554E-4
-0.0019270483
-0.00372427
-0.003462306
-0.0033837704
-9.1234135E-4
8.775463E-4
9.475557E-4
0.0017463316
1.396188E-4
-5.196009E-4
0.0016638878
0.001449318
-3.9833048E-4
-0.0016417938
-0.0024164158
-0.0025914453
-0.0020909505
-0.0016300508
-0.0022848656
-0.0024349277
-0.001134757
3.9340067E-4
6.458188E-4
1.7870554E-4
0.0019037632
0.0019263575
-0.0013345217
-4.7188418E-4
0.0012065194
-0.0016527908
-0.0025379849
1.6331776E-4
0.0024850823
0.0037528574
0.0040788767
0.0035637598
0.0018705225
7.169487E-4
0.0016337266
0.0023337558
0.002258657
3.4194128E-4
-0.0031299929
-0.0025614586
-4.5885064E-4
-0.0017939562
-0.002157488
-8.585442E-4
-2.2998992E-4
6.306027E-4
4.7647982E-4
-5.0334225E-4
-0.0010117214
-0.0016635004
-0.0019075753
-0.0013698015
-8.0737E-4
-2.0353762E-4
7.048095E-4
6.515154E-4
-3.5253583E-4
-6.0661446E-4
-2.7042825E-4
3.4644568E-4
5.220249E-4
6.5905333E-4
0.0013053357
3.428374E-5
-2.883004E-4
0.002526117
0.0040309927
0.002166028
-0.003151573
-0.0056675514
-0.0017584733
0.0011184159
0.0017540656
3.455376E-4
-0.002623281
-0.0023544575
-0.0013568767
8.37863E-4
0.0030619062
8.7342033E-4
0.0019142929
0.0044919397
0.0018218372
1.8968919E-4
-4.4159073E-4
-0.002305324
-0.00204904
-0.0015394257
-0.0019697414
-0.0015124506
-8.4764406E-4
-7.7596284E-4
-2.5603487E-4
0.0016151908
0.0033029793
0.0030861779
0.002197368
0.0010868442
-4.6091696E-5
6.468901E-4
-2.5124376E-4
-0.0032329333
-0.0021642589
-4.9695716E-4
-0.0015331607
-0.0010346543
1.306446E-4
4.6361244E-4
-7.417039E-4
-0.0023257926
-8.651479E-4
5.90935E-4
6.2186574E-4
8.5085677E-4
-4.691923E-6
-0.0016807516
-0.0026317535
-0.0019325152
-0.001293507
8.4246465E-5
0.00383006
0.004539673
0.0028482906
0.0035577025
0.0044249166
0.0031519174
2.8854734E-4
-1.5994406E-4
0.0020620003
7.1050896E-4
-0.004041109
-0.0063143726
-0.0050919163
-0.0038744863
-0.0024509686
-0.001944431
-0.0028889512
0.00102171
0.002873323
-0.001991539
-0.0018490931
-7.9666014E-4
-0.0027905768
-7.601645E-5
0.0026697272
0.0018838092
9.831957E-4
0.0017546939
0.003979314
0.003978312
0.0022609632
0.001408698
0.0020514114
0.0037380322
0.0038825863
0.0029936126
0.0014970839
-0.0011998708
-0.0022980266
-0.0013497155
-0.0015055455
-0.0029888314
-0.0018963666
9.948043E-4
6.9858157E-4
-0.0029765943
-0.00610671
-0.0046001705
-0.0013482352
-0.0010808806
-0.0024117099
-0.004151821
-0.0028667017
5.835891E-4
-1.2086054E-4
-0.001744341
-2.3424304E-4
0.0030550081
0.004450592
0.0019879302
2.4038626E-4
-4.5226567E-4
-4.924416E-4
4.147366E-4
-6.740861E-4
-6.890784E-4
1.9777077E-4
0.0013770525
0.004480503
0.0043123965
0.0036759167
0.004531832
0.0038283407
0.005111131
0.003294514
-0.0026839473
-0.0042567034
-0.0029070207
-4.908319E-4
0.001161917
-8.626929E-4
-0.0026861958
-0.0021989201
-9.4965806E-5
0.0015056868
7.652365E-5
-0.0028302157
-0.0036834376
-0.0015233424
-0.0015706193
-0.0029619343
-1.3017285E-4
1.0745431E-4
-0.0033020428
-0.0028307931
-0.0021266344
-0.0021618977
2.2404428E-4
0.0012886387
9.854112E-4
0.0011863862
-3.7416653E-4
-0.0017412164
8.466407E-4
0.0033923108
0.0028249854
0.0031875072
0.003938184
0.002594673
0.0017484914
0.002030113
0.0017413778
-7.151261E-4
-0.0031376877
-0.0010178221
0.002217577
0.002811085
0.002835092
0.0035706195
0.0035777811
5.038605E-4
-0.0014172771
-0.0010163946
-0.0041141156
-0.006239901
-0.004685606
-0.0039454172
-0.0030230556
-0.0021261475
-0.001843664
-0.0014160686
-7.4591057E-4
-3.1108255E-4
-0.001333404
-5.79158E-5
0.0022359728
0.0014736737
2.8639293E-4
-9.744146E-4
4.7183892E-4
0.0026526516
3.0086824E-4
2.4872035E-4
0.0026104162
0.0036554888
0.0051219366
0.004707579
0.0034802249
0.0017940144
-2.666677E-4
-0.00153858
-0.0029387928
-4.8047703E-4
-2.250036E-4
-0.0046963394
-0.002064554
0.0010087155
-0.0013713742
-0.0015918104
-0.00292033
-0.0053716013
-0.003770854
-5.3594826E-4
7.312718E-4
-2.525041E-4
-9.2824084E-5
0.0015852267
0.001991276
0.0011926233
5.238782E-4
9.335011E-4
0.0017456084
0.0026869217
0.0031342153
0.0027112411
0.0038668916
0.0035391168
-0.0010527028
-0.0033710592
-0.0019990066
-0.0018691765
-0.001563066
4.192587E-4
0.0012331739
0.0012035329
1.3947448E-4
-0.0024175267
-0.0023959707
-7.007519E-4
-9.1939373E-4
-0.0023253518
-0.0036635047
-0.002884829
-0.0018458985
-0.002276469
-7.695509E-4
7.1442075E-4
0.0015096456
0.0037517985
0.0032674978
0.0018257187
0.003232506
0.0023267246
9.750387E-5
9.4765105E-4
2.0772245E-4
-0.0016465208
2.582412E-6
0.0016255581
0.0037929025
0.0059188204
0.0010210781
-0.0034143296
-0.0011646848
-0.0012401046
-0.0030359558
-8.793597E-4
0.0013612966
5.31451E-4
-0.0010111186
-9.0610585E-4
-0.0011145647
-0.0028641375
-0.003149465
-0.0013817443
1.2807287E-5
-3.589173E-4
-0.0014709325
-0.0019210742
-0.0019553287
-9.892486E-4
7.361976E-4
4.3575952E-4
-9.064251E-4
0.0011582593
0.004116476
0.0030336757
0.0018156454
0.0026939923
0.0013367493
-0.0013210758
-7.236422E-4
0.0015885221
2.88115E-4
-0.0011725314
0.0022482083
0.0031420824
-2.1042513E-4
-0.0010207124
-0.0014693432
-0.0023376106
-2.4246243E-4
0.0015024343
3.9721394E-4
-4.7919566E-5
5.835952E-4
-4.978907E-4
-0.0010023935
-2.4005734E-4
1.7650764E-4
0.001992887
0.0021267796
3.0557747E-4
1.8938088E-4
-0.001121282
-0.0025069648
-0.0030325647
-0.0035484184
-6.311522E-4
3.107448E-4
-0.002400594
-5.362138E-4
0.0025227633
3.339682E-4
-0.002168538
-8.232485E-4
-5.595641E-4
-0.0013133726
7.382514E-4
2.4165034E-4
-0.0015930843
6.866867E-5
8.6485746E-4
0.0012388283
0.0018510384
0.0013634055
0.002529597
0.005140114
0.0078933425
0.006246552
0.0010515195
6.7126E-4
9.539923E-4
-2.539763E-4
1.499228E-4
-0.002443259
-0.0040315446
-0.003548371
-0.005566133
-0.003531989
-0.00103616
-0.0031136011
-0.002278649
-0.001296608
-0.0013096941
0.0015161989
0.0014065133
-3.264686E-4
3.3876215E-4
8.157897E-5
-0.0010815153
-0.001538208
-6.1822415E-4
-4.4418933E-4
-0.0012461331
6.334708E-4
0.0015375277
0.0015731716
0.004337234
0.0040205745
0.0010266764
7.1966613E-4
0.0017254086
0.0013408766
-3.5973196E-4
-6.552242E-5
3.399354E-4
-0.0019023503
-0.0023293954
-0.0011968224
-0.0014046389
-0.0019903989
-0.0021853896
-8.16982E-4
0.0016162371
0.0025752224
0.0022396885
0.0033260717
0.0041235737
0.0021684417
0.0014458344
0.0013899038
-3.5081778E-4
-9.7452407E-4
-0.0023990185
-0.004634327
-0.0038445508
-0.0018892084
-0.0011302623
-4.7392154E-4
0.0011811506
0.0024691473
0.0027810636
0.001558952
-0.0014526427
-0.0021214054
-0.0017016862
-0.0021609224
-0.0012787881
-0.001983186
-0.0018204494
6.2229345E-4
1.7012328E-4
-2.4978386E-4
3.737823E-4
0.001023237
0.0026650468
0.0034175075
0.0040752
0.002347061
-1.2237686E-4
3.7719533E-4
-0.0020110721
-0.004640082
-0.0032636372
-8.619087E-4
0.0013685726
-1.3599537E-4
-0.0018060573
-6.593378E-4
-5.4947735E-4
0.0017066499
0.0039647846
0.003567522
0.0036729893
0.0030110816
0.0035088651
0.0031564198
-2.2780366E-4
-0.00154873
-0.0032740948
-0.004611863
-0.0016817746
4.2974134E-4
-2.9376012E-4
-0.0023696332
-0.0033501436
-0.002813152
-0.003986048
-0.00335394
7.945471E-4
0.0032246022
0.0026927425
0.0012095359
-5.9556635E-4
-0.0032180848
-0.00435619
-0.0029948717
-0.0016192336
2.1807141E-4
0.0017105992
0.0033738287
0.0064243274
0.005575466
0.0032479828
0.005666322
0.008083722
0.006203766
0.0016095806
-0.0018342603
-0.003690667
-0.006560145
-0.006626727
-0.0045821606
-0.0049865227
-0.0036735828
-0.0012292278
-8.3253393E-4
5.4247596E-4
0.0022579867
0.002540789
4.952093E-4
-0.0029077106
-0.0032874197
-0.0030193797
-0.0028823523
0.0015446597
0.004012048
8.2217116E-4
4.4442513E-5
0.0022117419
0.0025321285
0.002125041
0.0016344059
1.600818E-4
4.3719262E-4
0.0025108233
3.5636793E-4
-0.0034627828
-0.0016023796
2.793901E-4
-9.1784814E-4
-2.9483095E-5
1.01503014E-4
-0.0010820249
3.9170278E-5
9.2352513E-4
6.756619E-4
5.978275E-4
5.549997E-4
0.0012016279
0.0022070066
0.0012854188
-4.930885E-4
0.0011291972
0.0020520575
-4.999327E-4
-1.7968034E-4
2.3962572E-4
-0.0017913331
-0.0022534912
-0.0028384733
-0.0020867744
-7.1562576E-4
-0.0016650967
-3.494612E-4
0.0010055094
2.526472E-4
0.00120277
0.0014373406
4.81734E-4
-8.7200184E-5
-6.2600244E-4
2.1696679E-4
0.0014042727
0.0020375063
0.0019352135
-1.03637634E-4
-0.0014507214
-9.4525676E-5
8.300204E-4
-3.358794E-4
-0.0015040402
-0.002277923
-0.0024659138
-0.0022817724
-0.0040162
-0.0040980657
-0.0013268203
-0.0016337918
-0.0024054744
-8.047205E-4
-1.4043452E-4
0.0018650619
0.003919646
0.0013402322
-9.027648E-4
1.8071126E-4
0.0015915099
0.0041838996
0.0068979557
0.008527387
0.0096548395
0.0069261063
0.0035535556
0.0022328687
-6.112203E-4
-0.0017887914
-0.0022077207
-8.964729E-4
0.00458321
0.0021680915
-0.004168432
-0.0033051642
-0.0034491848
-0.0064183925
-0.009997085
-0.011958093
-0.00775542
-0.0037946552
-0.002155224
-0.0010903807
-0.002935712
-0.0044577997
-0.0036062468
-0.0011502319
4.0860797E-4
2.4105866E-4
0.0016632818
0.003319037
0.0037510737
0.0030905744
0.0032863775
0.005597749
0.0050978786
0.003658533
0.003365098
0.0034178148
0.00671161
0.008278914
0.009133835
0.010553816
0.0042541698
-0.0021945273
-0.00374379
-0.005599439
-0.0053795804
-0.006213084
-0.008438186
-0.00720478
-0.0042749695
-0.0010841341
-7.946107E-4
-0.0020401496
-0.0014539482
-0.003405605
-0.005384995
-0.0028599543
0.0012974112
0.003173025
-4.071921E-4
-0.003995513
-0.0015626464
0.0015933625
0.0030546507
0.005051389
0.0053755753
0.0043047415
0.0037378848
0.002365856
0.0020540757
0.0021606444
-0.0011349348
-0.0032546725
-0.0017447287
-8.05187E-4
-0.0015684775
-0.0028228823
-0.0013931893
4.15234E-4
-0.0012413261
-0.0016244625
-8.0133916E-4
-0.0011398748
-8.1776927E-4
-4.4522065E-4
4.6773494E-4
3.1737343E-4
-5.101586E-6
0.002488583
0.0028935657
0.0039589987
0.0077999616
0.0069889114
0.0062293108
0.005586338
-0.0010204361
-0.0040245685
-0.0029281972
-0.004973138
-0.0050712614
-0.0031276676
-0.003329786
-0.0048582633
-0.0057447976
-0.00232741
0.002306968
7.008339E-4
-0.0046879975
-0.006257887
-0.0025318519
0.0018115711
0.003470272
0.0015348074
-0.00320374
-0.0052983724
-0.0022234225
0.0020257835
0.003717176
0.0020297563
-9.0503175E-4
-0.0022300961
-3.4854998E-4
0.0035458303
0.007239229
0.009699169
0.008897725
0.0055460064
0.0014746352
-0.0023255192
-0.0030530596
-0.0036416005
-0.0052810353
-0.004074915
-0.0025942572
-0.0017565177
-5.4892903E-4
0.0014189862
0.0039980076
0.0026155065
9.500689E-4
-0.0017036749
-0.010432688
-0.012097424
-0.0052344305
-0.0012947744
-8.0484373E-4
-0.0046269298
-0.0073154606
-0.005875704
-0.006734744
-0.0069624656
-0.0047130613
-0.0015822004
0.0017813192
0.004263275
0.007021755
0.0064776004
0.0058470415
0.006823403
0.0012249593
-0.0026981242
-7.829745E-4
-8.168863E-4
0.0017914528
0.007432696
0.010180663
0.008773647
0.007883463
0.011443531
0.011359517
0.007806358
0.006094619
0.0011538628
-0.00481413
-0.009156734
-0.010505345
-0.006168354
-0.0033735482
-0.0011094443
0.0035894508
0.005261912
0.008249503
0.012270139
0.01103426
0.0076473705
0.0036194297
-0.0031137858
-0.012737692
-0.019072376
-0.01573018
-0.008831208
-0.004633299
-0.0027303898
-0.0010451969
0.0022602037
0.007206035
0.013194644
0.011053125
-0.0026799142
-0.014583023
-0.013796586
0.0023000878
0.01968037
0.029464148
0.03744496
0.028799897
0.0049050073
-0.016312106
-0.037629887
-0.053110894
-0.060672563
-0.058711484
-0.04114069
-0.02556805
-0.016693262
-0.001852355
0.02693102
0.0555143
0.052708603
0.03922967
0.049793266
0.07026617
0.08031205
0.05977471
-0.0027036918
-0.06868857
-0.08866176
-0.077133454
-0.05681329
-0.0061185253
0.043726858
0.063028246
0.08554872
0.080254704
0.03782226
0.040221572
0.053850144
-0.023447378
-0.13159962
-0.15804553
-0.1350292
-0.11593423
-0.07609388
-0.03066933
-0.021524105
-0.031059772
-0.018911235
0.021262528
0.049480062
0.04638905
0.07261542
0.15086283
0.17985575
0.12528354
0.08808825
0.09490893
0.07610537
-0.0011126983
-0.08888793
-0.12965216
-0.14290446
-0.12889126
-0.06286135
0.013596089
0.08443193
0.14399144
0.14910491
0.096320525
0.0064774095
-0.09208837
-0.16474107
-0.20010866
-0.1952714
-0.1536896
-0.10165696
-0.060821883
-0.025431693
0.002798205
0.027014548
0.06314472
0.10458574
0.13502185
0.12141461
0.07626516
0.04575973
0.023731789
0.029746499
0.02755865
-0.012059819
0.0021069418
0.030501395
0.08126033
0.17951939
0.105479844
-0.05427234
-0.07067798
-0.057512872
-0.020621913
0.04215005
0.023391321
0.018571876
0.031249242
-0.009992023
-0.03423595
-0.056706592
-0.10067549
-0.11994415
-0.12787853
-0.11568264
-0.061885994
-0.0118057495
-0.0015191074
-0.0028524736
0.010824187
0.008288249
-0.008362139
-0.0056282156
-0.014106144
-0.025768217
-0.013362099
-0.027053073
-0.041944254
0.0012624066
0.047088526
0.069266096
0.12275158
0.1678243
0.0986985
-0.011086129
-0.02441962
5.872773E-4
0.006513382
0.012489166
-0.00981582
-0.01971561
0.019533753
0.034965534
0.017364977
0.024513397
0.04280177
0.037551474
0.03546612
0.031425636
-0.019556344
-0.06356345
-0.029819697
0.021452716
-0.0067093647
-0.0826478
-0.094900526
-0.05013414
-0.031038746
-0.034761187
-0.020784559
0.008334596
0.024821322
0.01008201
-0.025518809
-0.035611335
-0.0053368495
0.00745487
-0.0077104615
-0.019156333
-0.026573908
-0.011123762
0.013825116
0.015563337
0.008503221
-6.240781E-4
0.0075352727
0.033458147
0.03558132
0.02396834
0.023536066
0.033951964
0.039748903
0.018228812
-0.005594349
-0.008230769
-0.00644866
-0.0050217668
-0.0046548494
-0.004214156
4.4968445E-4
0.0011654401
0.001080809
0.008371463
0.01345103
0.008765673
3.8911754E-4
-0.0047790017
-0.0032665962
9.7168656E-4
0.0031041717
0.005796263
0.0038785604
-0.007438274
-0.019614184
-0.02540501
-0.022596858
-0.01880834
-0.01821983
-0.014054195
-0.01236204
-0.01355396
-0.009244982
-0.0059534996
-0.00480225
-7.712019E-4
0.002958734
0.0041772155
0.0047819405
0.0041206614
-0.0012293523
-0.0046285777
-0.0026248968
-0.002771501
-0.0015145777
0.0023188398
0.004470711
0.0074884244
0.007213496
0.0040631406
0.004750757
0.0060153026
0.004725835
0.0021751404
3.6710268E-4
0.0028005508
0.0073624304
0.0057420875
9.711121E-4
0.003369853
0.008977919
0.012904905
0.015252912
0.01494966
0.015719442
0.0120824585
0.002356141
-0.0017376627
-0.0045338976
-0.009624423
-0.008979963
-0.0056230132
-0.0042281565
-0.003963626
-0.0030866703
-0.002509395
-0.0046428596
-0.006313669
-0.007169604
-0.007993948
-0.005495893
-4.72879E-4
0.0035560278
0.0042415466
0.0043797847
0.003903637
1.3587848E-4
0.002502332
0.008255849
0.004385638
-0.0017962607
-0.005640003
-0.008293877
-0.0070124995
-0.008265008
-0.008721694
-0.0040286127
-0.0041161138
-0.00692
-0.010626759
-0.016106054
-0.010242813
0.001573807
9.751813E-4
-0.0057700854
-0.004659528
0.0046355757
0.013208929
0.013338519
0.008423268
0.0069893934
0.010413027
0.015145287
0.019472636
0.021693215
0.021010978
0.018405426
0.013955437
0.009498253
0.0041012247
-0.0025507926
-0.0044557014
-0.004242287
-0.0068597673
-0.008992306
-0.011112964
-0.014022407
-0.015077361
-0.014610515
-0.014680141
-0.01473944
-0.012804293
-0.011967674
-0.01188339
-0.008292554
-0.0058080885
-0.005326312
-0.0030594633
-0.0013449736
-1.4006482E-5
0.0014214301
0.002239369
0.0041464563
0.005539627
0.0060989633
0.007951607
0.008553697
0.0068388055
0.0066498686
0.006202151
0.002834578
0.0023707584
0.0047653047
0.0046788617
0.003897937
0.003381391
0.0031169346
0.0030061016
9.7301067E-4
4.537611E-4
0.0027381391
0.0030663803
0.0013403741
2.4595505E-4
5.821487E-4
0.0018578375
0.0021774138
0.0010219611
4.857266E-4
2.625848E-4
-0.0017949942
-0.0053162575
-0.008138266
-0.008219977
-0.008075474
-0.0076224357
-0.0046700053
-0.005982145
-0.007511719
-0.0034856393
-0.004496173
-0.0066053295
-0.004401242
-0.0043546357
-0.0031520529
-0.0039795013
-0.0077606943
-0.0046556783
0.0013139421
0.0048907734
0.0069649178
0.0072209095
0.006642543
0.0049200472
0.0038658099
0.004030177
0.0030069354
0.0012646945
9.3411043E-4
0.0024457374
0.0020158493
2.058885E-4
-7.4705115E-4
-0.0032319468
-0.0040477957
-0.0021998556
-0.0014980945
-0.0030095016
-0.0065907673
-0.0070234123
-0.004852675
-0.0050720116
-0.0050129737
-0.004387079
-0.0023069053
0.0012750272
0.0023159597
0.0040580207
0.00696528
0.007302913
0.006166074
0.0045506083
0.0038722968
0.0035733986
0.0020896753
0.0012419436
0.0010023433
6.681739E-4
7.899611E-4
-2.683325E-4
-0.0026407086
-0.002331225
-8.6625357E-4
-0.0026088585
-0.0041368543
-0.0050916127
-0.0065392978
-0.0054521416
-0.0052200984
-0.0055644684
-0.0038993063
-0.0048025274
-0.00617843
-0.003359262
0.0015602813
0.0051011583
0.006107396
0.0051984587
0.004103185
0.00622758
0.0068806377
0.004128984
0.005512439
0.004730293
0.0010550332
0.0030714895
0.0038765033
0.0033298766
0.005002025
0.004952024
0.004262718
0.0017860382
-9.1999565E-4
-7.903849E-4
-7.662501E-5
-0.0022427202
-0.008544463
-0.008961602
-0.0036393183
-0.0017954975
7.9323445E-4
0.001191568
-0.0017977057
-0.0033840083
-0.0073228967
-0.009027517
-0.0081595285
-0.007931208
-0.0049550296
-0.004403898
-0.0030921178
0.0018750752
0.0026134748
0.0035767993
0.005583243
0.0039786333
0.0037437046
0.004407093
0.0031380553
0.0038020576
0.004925142
0.0011792694
-0.0010664621
0.004404839
0.010044956
0.010698858
0.006192204
3.3588705E-4
7.4450823E-4
0.0024724149
-5.577074E-4
-0.00344559
-0.00368632
-0.0026509957
-0.0022405637
-0.001746036
1.2056802E-4
-3.1909288E-4
-0.0014348588
3.1842067E-4
-7.7097776E-4
-0.0039301976
-0.0038349524
-0.004448273
-0.0032546872
0.0011867745
1.9538376E-5
-0.0030939844
-0.0021970132
4.7985266E-4
0.0025522043
2.2288448E-4
-0.001478804
-2.6067835E-4
-9.2404283E-4
-8.5811253E-4
-0.0011755828
-1.10794535E-4
0.0024255814
6.832348E-4
0.0032627194
0.0069937184
0.0022588014
-3.9519437E-4
-2.58637E-4
-0.0018941084
8.597959E-4
0.0076085674
0.009782233
0.0039066793
-8.897493E-4
-2.0914621E-4
4.195978E-4
7.521871E-5
-0.0018554805
-0.0052769557
-0.0068237027
-0.004378122
-5.7212176E-4
-5.7295314E-4
-0.0014679298
-7.7072537E-4
-8.9633E-4
-7.3632086E-4
-5.8218365E-4
-1.4337077E-4
4.6579496E-4
-2.1289468E-4
9.246079E-4
0.00255093
0.001528364
0.0012480883
0.0018708884
-6.416782E-4
-0.0028862131
-4.4712462E-4
2.7489981E-5
-0.002974992
-0.0031515944
-0.0026515834
-0.0018362164
0.0010777017
0.0010837629
-0.00231105
-0.0034866906
-0.002038602
-0.003138538
-0.004824481
-0.0034571853
-0.0016069267
0.0021927622
0.0039070393
0.0011159315
0.002621306
0.004546954
0.0058719055
0.010977129
0.009599194
0.004851636
0.0025133064
-0.0043879836
-0.0069437246
-0.00191335
-8.070915E-4
-0.001227581
-1.7162763E-4
5.2129944E-5
0.0013414404
0.0016125081
-4.0713776E-4
-0.0016312493
-0.0011689981
1.2988586E-4
-6.8809435E-4
-0.0040946654
-0.0060241506
-0.0056222696
-0.0046348954
-0.0029635443
-4.3390624E-4
6.1743584E-4
-3.1714083E-4
6.577823E-4
0.002742405
0.0019525941
2.7816187E-4
9.843718E-4
0.0029954966
0.003223713
0.0018757815
0.0010585184
0.0010535477
0.002304415
0.0034690897
0.0033914747
0.0023090455
3.611756E-4
0.0017625277
0.005040423
0.003996598
0.0016414191
4.1515724E-4
-5.969453E-4
-3.9011423E-4
2.946836E-4
2.0267992E-4
-0.002575979
-0.004861667
-0.0018831519
0.0014563295
0.0013143141
-9.7459316E-4
-0.0030523478
-0.002480454
-0.002384787
-0.003953391
-0.004121635
-0.003197529
-0.003062794
-0.0038884697
-0.002293474
-6.815371E-5
-0.0015008856
-5.720994E-4
0.0029494462
0.0021543708
1.991301E-4
5.377358E-4
0.0015545725
0.0026633383
0.0026634005
0.0014672526
0.0013097345
0.0024215109
0.0028259926
0.0031216352
0.0038045454
0.0034366548
0.0043724207
0.0071466886
0.007265359
0.0037761978
-1.7665853E-4
-0.0016792152
-0.0021853652
-0.004784617
-0.0066033234
-0.005783177
-0.0047352593
-0.0031676202
-0.002105947
-0.0027999205
-0.0026339395
-0.0014917769
3.6369624E-5
8.6292933E-4
-0.0011485689
-0.0015272432
4.4397087E-4
-4.687117E-4
-0.0018945966
-0.0023261125
-0.0026561206
-0.0016157153
-9.043029E-4
1.7824055E-4
-1.1069013E-4
-0.0029863445
-0.0013294694
0.0024799241
0.003086846
0.001307113
-0.003062467
-0.0031218252
0.0011486231
0.0035215495
0.0059084557
0.0026542412
-0.0029086294
-3.075146E-4
0.0015608043
0.0028347636
0.008164969
0.008443549
0.0063509834
0.0065434687
0.00616626
0.00469449
0.0011197026
-0.0014106629
-0.0034152428
-0.005858618
-0.00392653
-0.0031791322
-0.006129094
-0.006199254
-0.0036852672
-0.0012978505
-0.0016488344
-0.0031240988
-0.002274743
-0.0019432205
-0.0020665189
-0.0011332319
-5.6207296E-4
-9.161327E-4
-0.0011528826
1.3964734E-4
-7.011143E-5
-0.0013433943
-3.2233415E-4
7.3997997E-4
0.001421435
5.321558E-4
-0.0011301838
-0.0010671412
-0.002793289
-0.0022745735
0.0011163412
-9.609695E-5
-0.0012907633
-6.842302E-4
-0.0019057953
-0.0018738809
2.6397107E-4
0.0025901587
0.0043071792
0.0062981215
0.0052290377
5.664415E-4
0.0031853518
0.010601966
0.0110801505
0.0076262755
0.0053754915
0.0030948683
-2.1970834E-4
-0.0017249931
-0.001321361
-0.0018866884
-7.764839E-4
-3.82047E-4
-0.0035231833
-0.0052381717
-0.0058220522
-0.0067111827
-0.008144395
-0.008887008
-0.00536309
-0.0026054364
-0.0035255542
-0.0036141973
-0.00232265
-0.0011383983
-3.852856E-4
0.0011868792
0.0012251525
-0.0012667398
-0.0011450709
2.1682656E-4
0.0012674573
0.002553902
0.0026172288
0.004881782
0.0062966743
0.003995956
0.0036734787
0.0029295064
0.0011303575
0.0013416811
9.6383377E-4
0.0017284458
0.002129045
-9.047727E-5
5.773444E-4
0.0018045576
6.6893344E-4
0.0011586942
0.0015519477
3.12029E-4
-2.2716731E-4
8.7030145E-5
-2.744153E-4
-0.0021287962
-0.0022278796
1.4609064E-4
4.595202E-4
-0.0012630597
-0.0020555833
-0.001895768
-0.002728402
-0.0039938074
-0.0031707606
-0.0016646815
3.2937128E-4
0.0018959605
-4.3575506E-4
-0.0013181914
0.0015040701
0.0023980632
0.0012805309
-6.131337E-4
-4.8224587E-4
0.0020745154
0.0025560658
0.0019256683
5.234697E-4
-2.560822E-4
0.001014406
-0.0010692222
-0.0033784143
-0.0021975664
-0.0025561394
-0.0026513347
-1.7113061E-4
0.0015837735
0.0016331926
0.0014135606
0.0015214785
3.0645783E-4
-0.002467418
-0.0033736993
4.4714555E-4
0.0031360495
4.8091178E-4
0.0013328245
0.004007928
0.0016464004
0.0013436138
0.0026253478
0.0022688261
0.0031636192
0.0033958796
0.0033822276
0.0010618985
-0.003945379
-0.004840395
-0.0035081797
-0.0024832773
-0.0016367288
-0.0016795119
-5.189674E-4
-0.0021309534
-0.004796022
-0.0027433764
-0.0017321279
-0.0016564523
5.331349E-5
2.9681853E-4
6.7042164E-4
2.8046162E-4
-6.5742707E-4
0.0010282262
0.0027558762
0.0029321155
0.0011622474
-7.416897E-4
5.7515776E-4
0.0019039463
0.0016779059
7.4645085E-4
-6.929247E-5
0.003051814
0.005568733
0.003326021
0.0023668576
0.0013965138
-0.001144387
-6.5674837E-4
-1.7004367E-4
-0.0012918095
-0.0022603585
-0.0033358769
-0.0011151544
9.489325E-4
-6.0445856E-4
0.001129084
0.002055759
-0.0020760794
-0.0026698583
-0.0016401118
-0.0016926123
1.6224594E-4
-0.0030307053
-0.0077783833
-0.0039966204
1.1530658E-5
-4.376897E-5
0.0011825697
0.0016476986
0.0017072358
0.0024046607
0.0015629063
0.0022046093
0.0032943832
0.0023756619
0.002815901
0.002400089
3.5378698E-4
3.5149616E-4
-5.2153046E-4
-0.0013464338
0.001191685
0.0019544314
-5.8868733E-5
-8.7717775E-4
-0.0012763776
-0.0013674847
-1.6120693E-4
-3.1295116E-4
-0.001933719
-0.0020441138
-0.002311068
-0.003268303
-0.002302804
-0.0011139963
7.3211954E-4
0.0036017862
0.0026311653
4.5833123E-4
0.0013858499
0.0014164419
4.1926853E-4
9.811014E-4
0.0011659118
0.002388638
0.005452167
0.003971589
-0.0011480579
-0.0025313639
-0.0022197496
-0.0030097812
-0.0030481096
-0.0017324975
0.0012112249
0.0013671168
-0.0017900494
-9.66826E-4
7.8859896E-4
-0.0013637231
-0.0019943959
-3.358265E-4
-4.314305E-4
-0.0012348486
-0.0010172747
-3.187036E-4
0.0012054505
0.0021769684
6.3170306E-4
-2.4548953E-4
1.7630174E-4
-9.4313244E-4
-0.0010141467
3.3978908E-4
1.5670946E-4
1.5809061E-4
4.9538317E-4
-9.157145E-4
-0.0019462277
-0.0011049205
-4.8023628E-4
-2.3782018E-4
0.0012628981
0.0033744797
0.0042307954
0.003416232
0.0021535605
7.503259E-4
-0.0011236324
-0.00111278
6.758394E-4
0.0016505532
0.002668836
0.0020973226
6.76813E-4
0.0022416646
6.5829506E-4
-0.0036733863
-0.002492596
-0.0012969507
-0.0025452282
-0.0015800343
-8.2052074E-4
-7.715852E-4
-0.0019332394
-0.0038332304
-0.0032914255
-0.003235468
-0.0026276333
-0.0010778445
-0.002659336
-0.001704739
0.0024337485
0.0048533054
0.005976052
0.0025237582
-8.248806E-4
0.0019474693
0.003112349
0.0013116985
-5.289327E-4
-0.0026567874
-0.0021255086
-0.0015468333
-0.0018353758
3.604205E-4
9.176407E-4
-3.599276E-4
7.4469094E-4
0.0021066882
0.0010614791
-0.0018462694
-0.0030817746
-0.0018296092
-0.0015304185
-9.16363E-4
6.6837313E-4
0.0015828199
0.0021095301
5.4879463E-4
-1.4895236E-4
0.0026802446
0.004693942
0.005539193
0.0047237207
0.0015256782
-0.0012663207
-0.0036698175
-0.002967684
3.9782526E-4
0.0018775878
0.0037593928
0.004165884
0.0013708168
-3.9155944E-4
-0.0032511314
-0.0058123637
-0.004372968
-0.00422674
-0.0046880036
-0.00224413
-0.0027515716
-0.0047288733
-0.0019253377
6.95855E-4
0.0010416495
0.0016879294
9.957477E-4
3.396392E-4
-2.1112697E-4