-0.0010364195
-0.0014688262
-0.001205178
-6.5491186E-4
6.1147753E-4
-1.9352643E-4
-0.0026209385
-0.0024003647
9.6850774E-5
0.0019824395
0.0021875487
0.0014283359
0.0014378498
0.0022968722
0.0027810854
0.0026415861
0.0016856662
1.5753583E-4
1.979504E-4
0.0012617775
0.0012757028
0.002596294
0.0036207314
0.0010100888
-7.823261E-4
-0.0010376871
-0.0018887875
-0.001487275
-0.00142153
-0.0020532685
-0.0010114062
2.8525738E-4
-5.6614116E-4
-0.003338316
-0.004153573
-0.002710075
-0.002875447
-0.002001393
6.7298795E-4
-3.902525E-5
-0.0017238705
-0.0013338102
-0.0015052579
-7.4353156E-4
0.0011151953
0.0014275882
0.0017358573
0.0018963678
0.0025298388
0.0041775946
0.0028174464
8.6480606E-4
9.786636E-4
1.4996224E-4
8.03715E-4
0.0035783548
0.0034420285
4.2124858E-4
-8.54247E-4
1.4218768E-5
-1.2108341E-4
6.390955E-4
0.0022525282
0.0013385827
8.472669E-4
1.360005E-4
-0.002947675
-0.004169636
-0.004242866
-0.0051730974
-0.0047359066
-0.0026767454
-3.8972558E-4
3.077263E-4
-3.327536E-4
-6.838499E-4
-0.0011017723
-0.001196575
-7.5853494E-4
-7.995447E-4
-4.075717E-4
6.60498E-4
0.001079874
0.0013435122
0.0012172541
0.0011709013
0.0033870605
0.0039253384
9.88977E-4
9.651133E-4
0.0032236364
0.0031122512
0.0023126383
0.0023715105
0.0028003221
0.0029506334
0.0016409047
-6.5077393E-4
-0.0016258733
-0.0015235404
-0.002360291
-0.0025070424
-0.0013199522
-0.0010272941
-0.00250811
-0.00515179
-0.005448164
-0.0027507122
-7.5114914E-4
-2.6360241E-4
-7.152176E-4
-4.3087348E-4
1.431848E-4
-0.0014869695
-0.0017392283
9.91755E-4
0.0024865663
0.0016263709
-4.6857246E-4
-0.0016189832
1.505924E-4
0.0017828885
9.675244E-4
0.0015755014
0.004217525
0.0051801605
0.004184979
0.0011109055
-0.0016191687
-4.4640445E-4
1.4368453E-4
-9.5985626E-4
-1.2547821E-4
-2.0774199E-4
-1.587417E-4
0.0021173395
1.6811666E-4
-0.0031319815
-0.0017971952
-0.001795062
-8.0080546E-4
0.0016719622
-0.0012885288
-8.4876234E-4
7.445891E-4
-0.0030413482
-0.0010989092
0.0013774382
0.0010590655
0.0023439357
-5.209811E-4
-8.234466E-5
0.0011399105
-8.381139E-4
0.0027851039
-0.0018399635
-0.009760809
-0.0046687615
-0.001027521
9.4438496E-4
0.0035435462
0.0016021688
0.0033308452
0.0037328943
9.963233E-4
0.0013112393
1.1159064E-4
-3.1350975E-4
-1.0685314E-4
-0.0013991344
2.876391E-4
9.2127273E-4
-5.0873344E-4
0.0010490982
0.0028559275
0.0017828087
1.7219929E-4
-7.9172006E-4
-0.001972485
-0.0024093431
-0.0032910614
-0.004465308
-0.0024903638
3.522221E-4
0.0019403719
0.0018135763
-6.522065E-4
-0.0019624988
-0.0017138695
-0.0010104855
-1.9172546E-4
6.217638E-4
0.0028125292
0.0030576184
0.0023111969
0.0031308273
0.0027568159
0.0033182432
0.0025439097
-1.2808004E-4
0.0011187813
0.0020590601
2.0795915E-4
-0.0025589743
-0.0033476953
-9.839616E-4
-0.0020072847
-0.0019228867
-8.855775E-5
-6.841811E-4
0.0035290401
-0.0010384154
-0.013327992
-0.007049292
0.0026860726
0.0019076169
0.0030716516
0.0018687644
-0.0014173051
-0.0011243407
-0.0017140249
-0.0020982611
-2.5978105E-4
0.002368045
0.0041520335
0.0041912533
0.002698635
-6.201836E-5
-0.0018137494
-0.0014791723
6.156156E-4
0.0021750862
0.0015682139
0.0016938362
0.0010747274
-6.9101044E-4
-2.926648E-4
7.0117915E-4
0.0011863135
-1.12238406E-4
-0.0015816969
3.6211043E-6
2.8052682E-4
2.5028072E-4
0.0031571558
0.0031579502
-3.562337E-4
-0.0012175763
5.2644126E-4
-5.761257E-4
-0.003966976
-0.0045347703
-0.0035305815
-0.0030458465
-0.0011368595
0.0013506877
0.0019754737
0.001742074
4.7570528E-4
-0.0030561888
-0.003973612
-0.0020852322
-0.0018138434
5.119982E-4
0.0023043237
-2.5907072E-4
-8.432626E-5
0.0014861956
7.7708095E-4
0.0012239711
0.0010522723
-4.0200648E-5
0.00137737
0.003706543
0.0042479625
0.003339531
0.001962216
0.0011907015
0.001054027
-0.0015857194
-0.0050912914
-0.003663444
-2.986696E-4
0.0012342691
0.0023890918
0.0021572467
0.0017012014
0.0024426114
0.0017501452
-7.1668875E-4
-0.0036860993
-0.005946843
-0.005422921
-0.0022200225
-1.8589922E-4
-2.2174904E-4
4.73128E-4
-2.7878748E-4
-0.0017879934
-2.623083E-4
9.342308E-4
0.0012654612
8.989973E-4
-0.0014936933
-0.001351121
2.5696424E-4
6.0851994E-4
0.0014640861
0.0011936302
4.384139E-4
8.4425876E-4
0.0019574512
0.0028439304
0.0022269771
0.002430773
0.0013328606
-0.002218239
-0.0012860064
0.0012927348
0.0011553532
0.0011279855
-0.0011596864
-0.0034004345
-0.0023099852
-0.0028534895
-0.0029333327
-9.7499194E-4
-5.693347E-4
0.0011742194
0.0026817527
0.001276151
2.1921229E-4
-0.0010281868
-7.7012635E-4
0.0013376729
0.0013664188
0.0011079094
9.916858E-4
8.2483626E-4
0.0010585802
1.4996657E-4
4.562213E-4
2.2502655E-4
-0.0027437229
-0.0037610524
-0.0013763669
8.5240375E-4
-2.0359909E-4
1.2237775E-4
0.0020349135
-0.0012008839
-0.0024102905
-7.5975564E-5
-0.0016782633
-0.0019723359
-2.6073318E-5
-2.701699E-4
-6.4875645E-4
0.0011240093
0.0020030895
0.0014304972
0.005934444
0.0045797275
-0.006461291
-0.0047676545
0.0032750296
0.0037652678
0.003915028
9.019846E-4
-6.981231E-4
0.0030732234
0.0024812005
8.401808E-5
-0.0017507132
-0.003236729
-0.0016190425
9.481866E-5
5.5421257E-5
-0.002892989
-0.004846492
-0.0027375177
-0.002624583
-0.0025215594
2.2322228E-4
0.0011860466
0.0010074866
9.003427E-4
5.272317E-4
-1.0977421E-4
-8.1820774E-4
3.9763167E-4
0.0018761915
4.1600742E-4
-0.0010552085
3.7375794E-4
0.001191863
3.015121E-4
0.0011120072
0.0021731965
0.0015210987
9.413229E-4
0.001225952
0.0020820792
0.0019027715
2.938286E-4
-8.922987E-4
-0.0017968478
-0.0023449732
-0.001397609
-5.635757E-4
-5.879436E-4
6.3843734E-4
0.0012159123
-9.794894E-4
-0.0018734903
3.4037468E-5
0.0017263262
9.669155E-4
-0.0015703437
-0.0022089626
-0.0014581464
-0.0013873959
-5.9854554E-4
7.994855E-4
0.002667972
0.004116383
0.0033899646
0.0010514193
-0.001599851
-0.002701995
-0.0032699592
-0.0033442094
-0.0012347633
-8.1326615E-4
-4.3823384E-4
0.0021736454
0.0012891742
-1.0324263E-4
0.0010149402
9.5903914E-4
0.0015417053
0.0023721883
0.001918776
9.443023E-4
-0.0018069379
-0.0028492212
-7.295548E-4
9.870962E-5
-2.1833752E-4
-5.885328E-4
-0.001140758
-2.714149E-4
0.0014617279
0.0013317809
-0.0015304277
-0.00373448
-0.0025811999
-5.150746E-4
3.9140522E-4
3.2413728E-4
3.7398463E-4
0.0010922053
0.0011401091
9.52339E-4
4.0709495E-4
-5.844881E-4
4.7382593E-4
0.0011299838
7.0730987E-4
0.0026724632
0.0043813726
0.0042598224
0.0028476787
4.0792793E-4
-4.5293564E-4
-2.0040941E-4
4.583019E-4
-7.8802253E-4
-0.004230358
-0.0033254686
-0.0014376432
-0.0027334285
-0.0026131312
-0.002088006
-0.001701704
-6.254904E-4
6.751483E-5
8.12669E-4
-9.651361E-5
-0.0015905438
-0.0017727059
-6.9072715E-4
0.0014849366
0.0018539403
0.0015606048
0.0010532638
-6.561723E-4
-7.2789415E-5
2.7259288E-4
-4.908249E-4
6.280623E-4
0.0012150524
0.0013456503
7.805375E-4
-1.1135367E-4
8.162819E-4
6.9723185E-4
4.5046225E-4
9.87547E-4
-6.0763664E-4
-0.0016195355
-1.9859974E-4
9.3638443E-4
1.9853945E-4
-0.0011351848
-0.0010265984
9.1113546E-4
0.0029718627
0.0022153677
0.0011182912
0.0022022438
0.0012405112
-0.0010602234
-0.0015372566
-0.0017109475
-0.0020341075
-0.0019972448
-8.071055E-4
5.383829E-4
-3.1836965E-4
-0.0010365547
1.1564718E-4
8.990563E-4
5.986643E-4
-8.027536E-4
-0.0018662643
-0.001178814
-0.002506923
-0.0038018588
-8.891974E-4
-4.4731543E-4
-0.0017035105
2.8760222E-5
0.0010509515
0.003168169
0.00489736
0.0041149557
0.0042600106
0.001183386
-0.0025176944
-0.0025415898
-0.002704759
-0.0016342035
4.4987156E-4
0.0028052507
0.0038788146
0.003345016
0.0036766054
-0.001479557
-0.005126105
-0.002125396
-0.0033727563
-0.0012577039
0.0019531744
9.730779E-4
0.0040170164
-0.0042056413
-0.01393888
-0.003131926
0.0041322927
0.0011424432
0.002056027
0.0021695872
8.895432E-4
0.0019305872
0.005203972
0.0051332065
-5.616985E-4
-0.00253352
1.4661475E-5
0.0012012296
0.001002885
0.0015065228
0.001972351
1.8305065E-4
-4.1426567E-4
-0.0011418599
-0.0043600644
-0.002981644
-4.579332E-4
-0.0019580896
-0.001050682
6.370828E-5
-0.0022783855
-0.001945037
5.176094E-4
-2.5676133E-4
-0.0014720056
-0.0010072321
-0.0013552739
-0.0010642043
7.328108E-4
0.0021873636
0.0033893022
0.00434806
0.0031292608
-4.7991538E-4
-0.0015494082
4.9149594E-4
0.0015763039
0.0018526079
0.0014147819
0.002810124
0.003251695
-0.0011382827
5.3456886E-5
-6.1956694E-4
-0.011281218
-0.008917636
0.0034939412
0.005408564
0.0042450894
0.0029561203
-7.9364213E-4
1.656513E-4
0.001892429
-0.0021327673
-0.0052193715
-0.0030666837
-0.0020576753
-0.0028937242
-0.0010229942
0.0018284227
0.0031761997
0.0015742021
-5.579156E-4
0.001294988
0.0027775844
0.0011118783
4.723238E-4
0.0023566592
0.0045228987
0.0022082024
-0.0028380926
-0.0037365754
-0.0028656048
-0.0042631975
-0.0046217255
-0.0021536832
-5.63672E-4
-0.0021496192
-0.00323575
-9.636155E-4
0.0013775482
0.0024110023
0.004725607
0.004864189
-1.8518225E-4
-0.0039565004
-0.0040477775
-0.0036599017
-0.0019530533
0.001905598
0.0064222505
0.0076792818
0.0053673047
0.004600239
0.0035995124
0.0018351765
0.0046508005
0.007468263
0.005582972
0.004255069
0.0036059215
-0.0017937238
-0.009418676
-0.012724865
-0.011512926
-0.0086166505
-0.006275
-0.0042799516
-9.408898E-4
4.728734E-5
-0.001392528
-7.4002135E-4
-0.001870759
-0.0047245347
-0.0043595345
-0.0026849164
3.9895295E-4
0.0022943253
2.796405E-4
8.818098E-4
0.0027273586
0.0024998174
0.0041933325
0.0054418193
0.0051593236
0.005149805
0.0043781316
0.0055445875
0.006987053
0.004595964
0.0025318726
0.0028586825
0.0023072923
3.597251E-4
-0.0020258366
-0.004323291
-0.005612875
-0.0070844474
-0.009538872
-0.010581256
-0.0100387735
-0.0075105564
-0.0023041358
6.2526175E-4
-4.356503E-6
-9.7406283E-4
-2.979045E-4
0.00398316
0.006077759
0.0031576245
0.0027494556
0.004061944
0.004696296
0.006615406
0.0066367327
0.005348438
0.0051978375
0.0048157875
0.0045225825
0.0025171847
-0.0014879396
-0.003234979
-0.0038231788
-0.005234018
-0.004433096
-0.0039922716
-0.00744895
-0.0074130017
-0.0028447409
-0.0026382841
-0.0027572622
0.0019061123
0.0034212684
0.0015333972
0.002746852
0.0058521777
0.009172432
0.010408984
0.005482854
-3.5419813E-4
-7.170619E-4
-0.0012054823
-0.007954266
-0.016477128
-0.020046111
-0.02013399
-0.02026635
-0.018562669
-0.012963547
-0.0033866642
0.003956383
0.003977107
0.007821204
0.0145167
0.0125025455
0.014115246
0.018135734
0.010228962
0.00497725
0.008373562
0.008233477
0.003610902
8.2036015E-4
0.0050553507
0.012076818
0.025023995
0.04315632
0.03841184
0.009422244
-0.014173133
-0.02078769
-0.017355166
-0.014921314
-0.011484669
-0.009036384
-0.016837148
-0.026134882
-0.034310803
-0.03539032
-0.022720313
-0.016962621
-0.017759413
-0.01141199
-0.0033120408
0.002588868
0.0024567673
0.008979223
0.027858984
0.035512917
0.03157793
0.024894891
0.015346263
0.00752818
-0.0072310977
-0.022469914
-0.021908859
-0.016702326
-0.011495758
-0.0028248234
0.0067459233
0.018645804
0.022968452
0.015128744
0.004538064
-0.007914625
-0.01651544
-0.01415642
-7.613188E-4
0.019206017
0.022225406
7.907572E-5
-0.02239362
-0.02733043
-0.01012981
0.016708067
0.025237504
0.010374489
4.6268475E-4
0.015145576
0.043933604
0.07720414
0.0879102
0.040288165
-0.028067127
-0.067799
-0.0831912
-0.078348875
-0.07038772
-0.067822
-0.045390155
-0.015976539
-0.0069718165
-0.0063727903
0.009547206
0.040652934
0.061374713
0.06448348
0.056311477
0.03661978
0.015935255
-0.008119883
-0.03195799
-0.037861288
-0.04977171
-0.07801074
-0.07539066
-0.026501752
0.0209714
0.03502543
0.038519736
0.05747781
0.08717793
0.10277417
0.09037199
0.06607778
0.026024118
-0.031270545
-0.05819783
-0.054945767
-0.06997221
-0.09499012
-0.09571616
-0.07425732
-0.031769328
0.055475175
0.12541404
0.08365474
0.023148408
0.0380378
0.042848185
0.01497922
-0.011399282
-0.061661743
-0.097116284
-0.077292494
-0.060215518
-0.089682855
-0.12104283
-0.086465195
-0.0028357897
0.06485575
0.11688726
0.17488615
0.22599633
0.25005335
0.20936403
0.113337554
0.05831896
0.039859626
-0.042103373
-0.16048905
-0.24350622
-0.28805307
-0.27705455
-0.20858255
-0.117908224
-0.029506007
0.044781897
0.11114126
0.15290919
0.15182889
0.13692366
0.0968043
0.006754124
-0.10473509
-0.1897057
-0.16400997
-0.039734975
0.048972555
0.09038359
0.1441278
0.19316071
0.19110025
0.13746607
0.10166778
0.07049471
-0.0039730803
-0.069003746
-0.10847805
-0.11740809
-0.11540509
-0.16117764
-0.19893077
-0.19264823
-0.15407465
-0.10107619
-0.07743825
-0.031078614
-0.004442987
-0.046143916
0.008671706
0.13807033
0.15501232
0.06935622
0.031589136
0.08869826
0.084152944
0.0073769656
0.025257032
0.11010632
0.14799136
0.11196883
0.05263828
0.013722223
-0.045558877
-0.110375196
-0.15280052
-0.18311338
-0.14706223
-0.06104992
0.006426917
0.07918896
0.100683674
-0.0049594757
-0.062191818
0.027876241
0.078033835
0.05952557
0.08003192
0.11714519
0.13788828
0.09401496
-0.025134241
-0.10033086
-0.07384293
-0.047312774
-0.0908566
-0.10578069
-0.054455277
0.0019187339
0.07711469
0.10691601
0.052483868
0.004152335
-0.052172896
-0.13003045
-0.18490759
-0.21072236
-0.19313161
-0.14632161
-0.0958351
-0.068119586
-0.0457181
0.050576217
0.1756637
0.2489676
0.26823533
0.22101533
0.15831202
0.107195735
0.0037321618
-0.09260318
-0.08413447
-0.028831849
0.0027248687
0.014557227
0.016464286
0.030545533
0.048451956
0.035066083
0.019844452
0.022004172
0.01632713
0.0053163506
-0.00704688
-0.020995775
-0.033136267
-0.044165052
-0.048294384
-0.049810488
-0.05239647
-0.055470333
-0.054069426
-0.033803303
-0.007604438
0.008139134
0.018526593
0.021970728
0.02293791
0.024204293
0.01706227
0.008268135
0.0029985267
-0.0071326075
-0.019011246
-0.025959942
-0.031329397
-0.032131437
-0.026459854
-0.021538138
-0.015717333
-0.0076915617
-0.0018565244
0.0038758034
0.010004047
0.015244132
0.021014383
0.026061552
0.026940396
0.025744023
0.030971805
0.035828132
0.027633753
0.015676936
0.00726659
0.002413118
0.0072247
0.012961486
0.010261635
0.010100629
0.016679214
0.021440325
0.022737755
0.019698367
0.00809616
-0.0014601619
-5.768796E-4
-0.004528251
-0.01839307
-0.02898677
-0.030054279
-0.02528186
-0.023508761
-0.020806609
-0.009966081
-0.0019575187
0.0026109559
0.0119293695
0.02185116
0.03187936
0.037220623
0.030473165
0.019057536
0.00309218
-0.021166353
-0.043724462
-0.058115605
-0.06136773
-0.05253852
-0.038989935
-0.024127198
-0.01309418
-0.009182655
9.565693E-4
0.019190885
0.027384652
0.021297293
0.013260115
0.010143937
0.012756302
0.02128647
0.02752615
0.028900106
0.039275534
0.057856753
0.0719394
0.08038087
0.07593233
0.051962897
0.025574973
0.009857071
-0.0024971769
-0.011887558
-0.018034777
-0.030023327
-0.038889408
-0.03407599
-0.02734139
-0.030104313
-0.041218404
-0.04962668
-0.05293683
-0.057215318
-0.05370133
-0.041253272
-0.0319276
-0.027480256
-0.025364315
-0.023877332
-0.026605757
-0.038730044
-0.054573793
-0.06477692
-0.067437485
-0.067943834
-0.06826069
-0.06474901
-0.051223855
-0.028741842
-0.00968163
0.007960277
0.028266277
0.04240778
0.054881055
0.07535735
0.10007672
0.11550333
0.12653846
0.14769635
0.1660318
0.17697391
0.17704746
0.15347487
0.1182053
0.08186869
0.067063406
0.06866947
0.06178306
0.08135649
0.0706331
-0.026730089
-0.09000881
-0.10964558
-0.17141235
-0.2255128
-0.23107003
-0.21332885
-0.20214033
-0.20414077
-0.19004115
-0.16411437
-0.13658671
-0.09953127
-0.06818458
-0.047427535
-0.024340274
0.003929265
0.02236067
0.03461606
0.06351788
0.09099768
0.10405212
0.11481728
0.11804092
0.11886413
0.11661223
0.10492363
0.09825536
0.09396671
0.0841255
0.07390356
0.06264462
0.049841527
0.035527088
0.020590106
0.008211577
-0.0023093217
-0.013654767
-0.022453662
-0.022292642
-0.019332139
-0.019787902
-0.02032593
-0.022105265
-0.023990624
-0.021679431
-0.017680172
-0.017024796
-0.018755632
-0.020018743
-0.024580788
-0.030829351
-0.03726761
-0.04672375
-0.048987847
-0.0436497
-0.0407522
-0.036315966
-0.029827595
-0.02370319
-0.018950805
-0.016825408
-0.0093755955
4.5248496E-4
0.004823407
0.00927346
0.012291483
0.013552908
0.018827975
0.021481846
0.019194113
0.019263322
0.020707203
0.019770706
0.018308403
0.01989715
0.025122572
0.028521482
0.024605844
0.018103
0.014957577
0.010000724
0.0018206772
0.0012735904
0.009379202
0.012340786
0.0072692623
0.0048565315
0.006423894
0.007307637
0.00874063
0.0093186125
0.0070372163
0.004274361
0.0016257608
-5.2525627E-4
-0.0016580233
-0.0026820835
-0.0022245618
7.560705E-5
0.0012909755
0.0015895996
0.00325162
0.0034845218
2.5148518E-4
-0.0024400763
-0.0026011085
-0.0014289059
-2.4297346E-5
0.0015097546
0.0031832713
0.0025003778
0.0025516015
0.00624579
0.006487562
0.005045925
0.006589517
0.0051348708
0.0028332926
0.002767545
9.855024E-4
-4.1633868E-4
-8.250893E-4
-0.0018133394
-0.0024938846
-0.0025954652
-5.3620216E-4
0.0022171715
0.00397685
0.0058211037
0.0061923796
0.0021533396
-0.006840869
-0.012054689
-0.009604393
-0.008922006
-0.008688283
-0.006230628
-0.005413982
-0.0019694804
3.44925E-4
-0.0019622375
-0.0012203308
1.3334793E-4
-4.3987905E-4
-7.004353E-4
-0.0010698836
0.0012577159
0.0037391987
0.004019634
0.0035422053
4.2924544E-4
-7.0849294E-4
1.5948397E-4
-0.0017083116
-6.227426E-4
0.0016798911
6.51173E-5
-1.2589777E-4
0.0011703382
7.434221E-4
-1.5314757E-4
-6.689256E-4
-0.0010613793
-0.0019177971
-0.0010753593
4.723969E-4
-0.002684279
-0.006421202
-0.0056971163
-0.003472895
6.5845E-5
0.002048704
4.877034E-4
0.0015069714
0.0022252605
-5.211556E-5
2.4373284E-4
9.766509E-4
0.0014724788
0.001982393
-4.8191112E-5
-4.9970555E-4
-4.481967E-4
-0.0012885013
-1.7093153E-4
-7.687761E-4
-0.0016127601
-6.3356786E-4
-0.0013219486
-0.0018828637
-0.0012525748
-0.0012301635
-0.0028897664
-0.004814596
-0.003793989
-0.0011662188
4.1713734E-4
4.8925466E-4
3.2012377E-4
-3.412544E-4
-0.0011280392
0.0011058543
0.0024255777
0.0024244932
0.0047510173
0.0035439122
-2.4079515E-4
-0.0016412985
-0.0016795782
-0.0010553136
-0.0017014608
-0.0015251731
-7.6365896E-4
-9.936619E-4
1.13452355E-4
-0.0015310603
-0.0029747912
-0.0016384039
-0.0033274961
-0.0031272557
2.9004857E-4
0.0032015883
0.0032980624
1.5603812E-4
5.591293E-4
-0.004390104
-0.014114352
-0.0079803625
0.0019238872
0.0026422087
0.0051962896
0.0061630327
0.0037557986
0.0036990626
0.0019067819
-8.372387E-4
-9.178666E-4
-0.0012813873
-0.0018462967
-3.7226366E-4
9.2078984E-4
5.5637956E-4
5.287235E-4
0.0013107952
-9.635211E-6
-0.0019174225
7.006348E-4
0.0031355463
0.002955308
0.004693813
0.0032616777
-7.978506E-4
-0.0028618868
-0.0065763853
-0.007794647
-0.0056001376
-0.0049075074
-0.0031991547
-0.0016454885
-0.0013702731
-0.0013534717
-0.0025150634
-0.0029002046
-0.0034516745
-0.0041980315
-0.0025761148
-2.1458996E-4
0.0020677363
0.00519473
0.007933137
0.0075533264
0.0051543703
0.0035266285
0.002274831
0.0019519052
0.0019997745
0.0022291357
0.0017304539
-0.0019783245
-0.0021559503
0.0027104823
0.004422183
0.003234896
0.0012917089
-5.255496E-4
-0.003078681
-0.007649013
-0.007378706
-0.003924733
-0.005528277
-0.008446395
-0.0075480915
-0.0040225824
-0.0020567416
-0.0019845306
4.7313486E-5
0.0019131348
0.002509533
0.0035912406
0.0035218084
0.004093016
0.0055829617
0.0039030213
3.575085E-4
-0.0010046444
-1.2808326E-5
0.0013874534
0.0021646705
5.1672675E-4
-0.002884586
-0.0034393624
-0.0021757141
-0.0014206046
0.001777091
0.0054379907
0.003655516
-0.0018095841
-0.003935895
-0.002765513
-0.0018935341
4.402393E-4
0.001537133
-0.0012509447
-0.002200942
-0.0012191512
-2.8215538E-4
0.0017680611
0.0025239745
0.0021822099
0.0015609076
3.980788E-4
1.1771408E-4
-6.454352E-4
-8.279464E-4
5.456242E-4
5.9157034E-4
1.4613075E-4
-0.0010363986
-0.0030002224
-0.0024332604
-0.0011301307
-0.0011113792
-0.0012853867
-9.4394037E-4
4.8129447E-4
2.3310767E-4
-0.0019525251
-8.8690454E-4
0.0024148922
0.0023297314
4.5802008E-5
-3.226662E-4
5.175881E-4
0.0012751789
0.0022538076
0.0025157863
0.0015521152
2.2906231E-4
-1.1581151E-4
7.5199794E-5
-5.2001193E-4
-6.889707E-4
-2.6558083E-4
-5.225449E-4
-0.0018235123
-0.0034237795
-0.0029196376
-0.0012324112
-0.0012470641
-0.0015867056
1.8760048E-4
0.0023124148
8.2228344E-4
-0.0013806189
-1.4572387E-4
3.520206E-4
-4.2922123E-4
-4.10769E-4
-0.0015810237
-0.0016347272
0.0010605595
0.003995145
0.004629489
0.0027944595
0.0028778703
0.0037591588
0.0017363614
-0.0013852216
-0.0046817455
-0.0045553627
1.4421671E-4
0.0025146608
0.0012481036
-1.5249307E-6
-5.250289E-4
-0.0014336134
-0.0025954265
-0.0032301245
-0.0042957133
-0.0032800366
3.5730995E-5
-4.936144E-5
-9.576471E-4
0.0013053543
0.0032028314
0.00432912
0.0058294944
0.0054141567
0.002047966
-0.0016531391
-0.0020333997
-8.471907E-5
-8.095104E-4
-0.0028555
-9.974769E-4
3.6786817E-4
-5.647303E-4
6.681307E-4
-0.0012711711
-0.004371354
-0.0023167122
-4.725512E-4
0.0018321873
0.0010456439
-0.002113169
0.003616389
0.0016134724
-0.01013693
-0.005881175
0.0029180269
0.0026339167
0.0035372742
0.003504565
0.0020596795
0.0026061125
7.970671E-4
-0.0020248536
-0.0010159757
0.0017513345
0.0015929334
3.458981E-4
-2.6574979E-5
-6.442967E-4
-0.001323926
-0.0034324082
-0.0034460395
-1.3404763E-4
-1.8716129E-4
-6.038124E-4
0.0018143477
0.001990818
4.1203934E-4
1.07212036E-4
6.7134417E-4
5.3369306E-4
3.7034033E-4
8.3218835E-4
5.6338497E-4
2.6282124E-4
-7.7288604E-4
-0.002208376
-0.0019748774
-0.0014078284
6.151191E-4
0.0017018567
-0.001504172
-0.0025786022
-7.0682616E-4
1.7458353E-4
0.0012107281
0.001041512
-4.5218098E-4
-0.0011389856
-5.3905573E-4
0.0018713821
0.0032581203
0.0015305647
4.7429127E-4
0.001413485
-3.4936902E-4
-0.0035301948
-0.0020245705
5.1899906E-4
8.367934E-4
0.0012257578
3.5347804E-4
0.0013655344
0.0037116874
5.1105255E-4
-0.0026170874
-0.0023722951
-0.0027194882
-5.8501447E-4
3.169409E-4
-0.0028654519
-0.0029536013
-0.0014957752
-1.3565137E-4
0.0025334405
0.0015960023
-0.0010422025
-0.002335151
-0.002235792
0.00259378
0.0049460526
6.5477414E-4
-0.0010282686
-4.9547607E-4
-4.37426E-4
0.0013146835
0.0015071703
-1.189452E-4
-9.053842E-4
-0.0014199003
-0.0020918222
-0.0014428499
0.0015372077
0.0030053223
0.0016690133
0.0014473763
0.0022576288
0.0030251597
0.0041027823
0.004108241
0.001786727
-0.001042622
-0.0025782823
-0.003892496
-0.0032727334
-0.0022540228
-0.0036972056
-0.0024335862
-0.0011574273
-0.0021811046
1.6628846E-4
5.3480275E-5
-0.0029461908
-0.0024170873
-0.0017937947
-0.0010307326
-9.252443E-4
-0.002728895
-0.0021612619
-0.001064785
-3.958724E-4
7.565058E-4
7.612365E-4
0.0014015172
0.0029577264
0.005320425
0.008323278
0.008326044
0.0053248983
0.0022650661
9.4402087E-4
0.0020933514
0.0026139386
-7.6224614E-4
-0.0036647813
-0.0017801154
2.1046295E-4
-1.692359E-4
-5.630954E-4
-0.002273266
-0.004657207
-0.0036924551
-5.450913E-4
-1.9200376E-4
-0.0013026963
-1.6436925E-4
3.597714E-4
-3.6914975E-4
-6.6889555E-4
-0.0011800557
-8.689002E-4
-0.0015191657
-0.0035351287
-0.0040023928
-0.0039568166
-0.0036199137
-0.0025668568
-0.001093126
0.0010854796
0.0012686179
-9.06624E-4
-0.0013927076
2.9367115E-4
9.3077385E-4
9.4422454E-4
0.0020016658
0.0027973512
0.0033940875
0.0031931843
0.0021265233
8.193506E-4
-6.673365E-4
0.0023272927
0.00582388
0.0051073097
0.0078038746
0.009233973
0.00460434
0.0011785192
-9.714594E-4
1.8033026E-4
0.003133097
0.0013985351
-0.0018921193
-0.0073081446
-0.012429833
-0.01043062
-0.006872653
-0.004742371
-0.002483006
-0.0023741596
-0.002279024
2.3620807E-4
0.0024793947
0.0027322096
0.002602269
9.6513284E-4
-0.0027893542
-0.0035692418
-0.001151673
0.0013264683
0.0025443058
0.001607523
0.0031696092
0.0045188363
3.0172977E-4
0.0016329146
0.0060710683
-0.0013849927
-0.008598426
-0.0035110211
0.0015634297
5.9542153E-4
-0.0015191006
-0.002792
-0.0027257036
-0.0024103234
-0.0016278262
0.0012352993
0.0033060806
0.0020908203
3.9909888E-4
8.4753986E-4
0.0016898252
0.0011312268
0.0016553893
0.0029944766
0.002073904
0.0032285003
0.0072589274
0.0061775134
0.0018650511
-1.5851544E-4
-0.0016359938
-0.0015222505
-4.3811736E-4
-0.001410901
-0.0022761219
-0.0019599476
-5.7669025E-4
-6.348758E-4
-0.0051372712
-0.0066589913
-0.002665068
-0.0018928624
-0.0023330413
0.0010419083
0.0025039907
6.4536044E-4
-5.984495E-4
-0.0014227643
-0.0013560769
-9.178238E-4
-0.0028219558
-0.003541215
-4.176569E-6
0.0031180193
0.0028337871
0.0019488038
0.003373107
0.004037514
8.2041376E-4
-2.0980537E-4
0.0022045476
0.0015045356
-4.935589E-4
-0.0014078547
-0.002159682
-0.0014313366
-0.0019694876
-0.0033590733
-0.0022830043
-0.001219113
-6.084588E-4
-0.0012965623
-0.0034150474
-0.0021745698
5.0832314E-4
0.0018694176
0.0023339738
7.96819E-4
4.3789804E-4
0.0011271224
0.0019711712
0.005820167
0.0067568664
0.002969909
8.012533E-4
1.7093349E-4
8.738383E-4
0.0023695624
0.0037680424
0.006239852
0.005200804
0.0010494527
-4.2751356E-4
-0.0024351957
-0.0066176024
-0.008045256
-0.0058987713
-0.0031443185
-0.0019762034
-0.0021383024
-0.0017471444
-0.0016585196
-0.0031691284
-0.002848898
-8.824795E-4
-0.0015196784
-0.001834926
-2.2107094E-4
-3.1063004E-4
-6.074393E-4
2.8267308E-5
3.127862E-4
0.0010708909
0.0012462417
0.0010815382
0.002965466
0.004618558
0.0031351347
0.0010335078
8.5830997E-4
0.0014401895
0.0020420768
0.0022789035
0.0012914968
3.8031358E-4
0.0010421127
0.0015357322
3.0466312E-4
-3.7612155E-4
-8.910407E-4
-0.0028095203
-0.0025441763
-0.0017103077
-0.0023750826
8.235464E-5
0.0018890701
-4.910518E-4
-0.0020328977
-0.0021022453
-0.0021258215
-0.0026740392
-0.0029673907
-0.0020398917
-9.801388E-4
0.0012435702
0.001521461
-8.166701E-4
-2.654144E-4
8.86305E-4
0.0021207263
0.00413615
0.004162776
0.0059356145
0.006817019
0.0031580627
0.0019368215
0.0034727561
0.0035664935
9.13913E-4
-0.004418532
-0.007002469
-0.0052639055
-0.0040366487
-0.0026606575
5.833287E-4
0.0013604412
-7.956525E-4
-0.0017799811
-0.0027644052
-0.0047744573
-0.004742444
-0.0020621729
-3.1597773E-4
-0.001646386
-0.0022414022
-0.0011717379
-7.6336245E-4
8.992638E-4
0.0015121981
2.8739782E-4
0.002441628
0.0044841156
0.0036759838
0.004130507
0.0046651443
0.0042145783
0.00326909
0.0011675532
-8.368713E-6
-2.8549496E-4
-1.5071435E-4
8.154729E-4
5.3263957E-5
-0.0023005237
-0.004389756
-0.0041217413
-0.001062489
-0.001024535
-0.0031215635
-0.0018286383
6.305018E-4
0.0018645771
0.0012066411
3.300844E-4
0.0010767771
0.0020966793
0.0022416105
-0.0019474127
-0.0038811134