-7.9914095E-4
0.0011057355
0.0012377098
-4.687543E-4
-0.0012126975
-8.675979E-4
0.0032326663
0.0068067466
0.007490598
0.009058378
0.0075164973
0.003180633
-3.588575E-4
-0.0038812337
-0.0054553067
-0.0052190213
-0.0047903685
-0.0041052178
-0.0032637673
-0.0010962959
0.0019791669
0.0013451802
-0.0028103176
-9.457254E-4
0.004277636
0.0016560261
-0.0023780684
-0.004093698
-0.0091311885
-0.010458608
-0.004202418
0.0020373596
0.0053961603
0.0063418495
0.0047836592
0.0048327697
0.0077422583
0.0074137156
0.004773978
0.0041568712
0.0030732143
0.0023369978
0.0023849984
-3.30595E-5
-0.0029558486
-0.005454135
-0.008892409
-0.010615307
-0.00885727
-0.006344157
-0.005330368
-0.003601489
-2.891918E-4
2.9155883E-4
-0.0019791373
-0.0010250934
0.0031235714
0.004366558
0.0028747008
0.0025539927
0.0018204807
-8.94782E-4
-0.002313336
-2.6187881E-5
0.005583159
0.009903889
0.008800553
0.007947096
0.008669156
0.00682727
0.008504821
0.008711488
-0.002104828
-0.008889745
-0.0042982674
-0.002494122
-0.0076441076
-0.011450613
-0.009339166
-0.0062393937
-0.0055874484
-0.0049821753
-0.0042875214
-0.0039394326
-0.0040226555
-0.002865796
-4.1936248E-4
1.9959347E-4
0.0016717796
0.0034563474
0.0022311306
0.0019500904
0.0027699466
0.0026057234
0.0030512863
0.0039039587
0.0043160436
0.0045746807
0.004936094
0.004251042
0.0034564205
0.0034811907
0.0022803447
0.0012084929
-7.9968426E-4
-0.0042617614
-0.0036545845
-0.0015620826
-0.0020471136
-0.0022973893
-0.0019068716
-0.0013846547
-7.9721195E-4
-5.535055E-4
-0.0012770639
-0.0028179036
-0.0023299102
-4.541756E-4
5.564247E-4
7.0301036E-4
-0.001583963
-0.0041993167
-0.0026567974
-6.488114E-5
-5.3101892E-5
0.0010605789
0.003831402
0.0034194612
9.248587E-4
0.0016617063
0.0054081073
0.0052662236
-6.670406E-4
-0.0047076074
-0.004863695
-0.0040067295
-0.0014865164
3.585417E-4
8.315806E-4
0.0024459339
0.0038686225
0.0046094917
0.004880666
0.002907002
3.4503906E-4
-5.628378E-4
-0.0027985296
-0.0070079695
-0.00818029
-0.0051584714
-0.0011819382
0.0011480974
0.0016560757
0.003059545
0.005307057
0.006077056
0.0040567373
-6.4149546E-4
-0.003005581
-0.0019559239
-0.0018130172
-0.0017562531
-0.002300878
-0.0034827662
-0.0021285973
-0.0014220603
-0.0015729818
-7.835868E-4
-0.0011531975
9.307058E-4
0.0034001747
0.0020775362
0.002007672
5.785063E-4
-0.0026515713
-0.001594426
-1.9028378E-4
-4.1215873E-5
4.206665E-4
7.489765E-4
0.0027038406
0.004262473
0.005404406
0.0063907425
0.005404021
0.0039626164
-7.087969E-4
-0.005359209
-0.0034573406
-0.0017572921
-0.002097907
-0.002100213
-0.003835129
-0.0029672445
1.198552E-4
3.1307363E-4
-3.4422064E-5
-2.778831E-4
-0.0016962995
-0.001536066
-1.6766413E-4
-9.1253285E-4
-0.0016852982
-0.0010155764
-0.0010447953
9.798994E-4
0.0032284274
-3.1802157E-4
-0.0030105878
-6.8762485E-5
0.0018580481
0.0019746604
0.0020932741
0.0011088667
0.0011759581
0.0010569114
-5.7502656E-4
-2.7185207E-4
-5.6443515E-4
-0.003341997
-0.0041646375
-0.0011928999
0.0027975373
0.0020651293
-2.4670808E-4
0.0015156948
9.376282E-4
-0.0011139181
-6.660053E-4
-4.2791653E-5
0.0031459052
0.0030734022
-0.0015897782
-0.0010702366
8.7666675E-4
6.848241E-4
-7.2392693E-4
-0.0023767136
-4.2573296E-4
-6.181159E-4
-0.0016737188
9.755788E-4
-3.5476664E-4
-0.0019800926
9.3970346E-5
4.4184452E-4
9.1435836E-4
0.0011156935
7.77317E-4
0.0032806036
0.0047084694
0.0031774833
0.0023388818
0.0012277267
-2.2208985E-4
0.0011641969
0.0010233006
-0.00204291
-0.0017997286
-5.3645606E-4
-6.6716317E-4
-0.0013720499
-0.0033861878
-0.002428211
-2.0254412E-4
-9.764905E-4
-0.0017716856
-0.0015877817
-8.7223906E-4
-8.278413E-4
-1.6988206E-4
9.757608E-4
-8.8520325E-4
-8.4268826E-4
-1.6546181E-4
-0.0010394367
4.4475758E-4
-0.0039880197
-0.00838211
-0.0022762774
0.0016014305
0.0021667625
0.0030198228
8.76043E-4
7.294101E-4
-2.5159185E-4
-0.0028932365
-9.6230087E-4
0.003050415
0.007303812
0.0072763395
-2.1813874E-4
-0.0050581126
-0.0029119067
-0.0016818924
-0.0032156208
-0.0015724252
0.002915583
0.0065813144
0.01005197
0.01308008
0.014023809
0.010503491
0.002850241
-0.0047918246
-0.009483012
-0.0077353423
-0.00411953
-0.0060040494
-0.0059069553
-0.0010599951
-0.0011948803
-0.00531434
-0.0068526166
-0.0073607825
-0.0047904765
0.0027591982
0.0045339996
1.6848596E-4
-0.0010414525
-0.0026279062
-0.003094925
-2.1053116E-5
-0.0017655325
-0.0061467797
-0.0064024585
-0.003271854
-4.717795E-4
0.0016025073
0.0049673966
0.0043268246
0.0030658208
0.007490819
0.009217471
0.007884177
0.00481438
-3.5499563E-4
-4.904912E-4
-0.001299855
-0.0035464158
8.2103215E-4
0.0031897002
-5.4474054E-5
-0.0014810868
2.5268132E-4
0.0030199217
0.0043318295
0.004111275
0.003862893
0.003153097
-3.5323575E-4
-0.004067535
-0.0038403152
-0.004926272
-0.0067811036
-0.003731836
-7.374409E-4
-3.7157428E-4
-0.001092945
-0.002983901
-0.005090069
-0.0064148977
-0.004024657
1.6223323E-4
0.0011655116
1.8568186E-4
-6.1976275E-4
-0.0012381312
-0.0017380638
-3.862229E-4
0.0012286919
8.876967E-4
0.002233845
0.0037924738
0.0045511387
0.005550186
0.0031334655
0.0028306057
0.005666915
0.004651623
0.004045852
0.0027493313
-0.002967516
-0.005379306
-0.0026220179
-3.7416298E-4
-1.411756E-4
-4.03868E-4
-0.0016094169
-0.0023175697
3.5542733E-4
0.0011400305
-0.0025335606
-0.0040703984
-0.0031897295
-0.0031656923
-0.0020977852
-2.5680228E-4
-2.3953672E-4
-8.0844195E-4
-0.0012581495
-7.62408E-4
0.0023399496
0.0032648728
0.0014238693
0.0022426532
0.00369529
0.0038018124
0.00296811
3.5971307E-4
-0.0027148502
-0.0046643266
-0.0034325777
-0.0019649642
-0.0024862154
3.067786E-4
0.0023576915
-0.0010302436
-0.0026457126
-9.699543E-4
7.832225E-4
0.0020108556
0.0014863351
7.5936405E-4
0.0010135816
9.194949E-4
0.0018088536
0.0037284677
0.004168276
0.003882472
0.002325151
-0.0014613121
-0.0011451797
0.003982328
0.006532257
0.0052206605
0.0011227037
-0.002939929
-0.0039541973
-0.0052498155
-0.006355332
-0.0057780747
-0.0062254323
-0.0052952934
-0.0022355765
-4.055314E-4
4.1980456E-4
8.769662E-5
-0.0013292688
-0.0022255657
-0.0034498682
-0.003991406
-0.0018089478
1.391187E-4
9.853306E-4
0.001704018
5.1612314E-4
0.0021523554
0.0070597394
0.0058245184
0.0019119098
0.0023859963
0.0036666922
0.0037214337
0.003302274
0.002691488
4.092108E-4
-0.0012132315
6.7514443E-4
-3.4362136E-5
-0.0012653607
2.2654777E-4
-7.567164E-4
-0.00107876
-0.001433908
-0.0025858039
-0.0010794967
-9.381021E-4
2.1112284E-4
-1.252491E-4
-0.0022804039
0.0011539988
-0.002713641
-0.008507192
-8.842797E-4
0.0025473272
1.9317659E-4
0.0015652475
-1.5974583E-4
-0.0019941286
-0.0012151204
-6.277254E-4
-1.4712923E-4
2.300647E-4
0.0011188256
5.630837E-4
6.674705E-4
0.0020978416
0.0015747012
0.0017953019
0.0021076244
0.0011035325
-8.099126E-5
-0.0010850058
-1.9446317E-4
-9.264628E-5
-1.0019797E-4
4.6928527E-4
-0.0019602024
-0.0020161315
-2.5214127E-5
-8.727528E-4
-3.583908E-4
5.7082577E-4
5.2939606E-4
0.0017384948
0.0014586952
-1.5036494E-4
-5.0419744E-4
-6.336344E-4
-0.0017894205
-0.0025369292
-7.923792E-4
0.0016073243
0.0016629937
1.574045E-4
-4.197633E-5
0.0017428269
0.003077662
0.0032090396
0.0032808844
0.0021664381
-1.852365E-4
-0.0014635071
-0.001706999
-0.0022248384
-0.0026469312
-0.0021001105
-0.0012530505
-0.0010809355
-7.696937E-4
-0.0011347029
-0.0021203947
-0.0012486238
-7.1635365E-4
-5.000229E-4
9.789495E-4
-2.977618E-4
-0.0015561614
0.0013470006
0.0046702735
0.005656375
0.0042450866
0.0020089813
-0.0022877674
-0.0067836996
-0.005103257
-0.0017328757
2.4273158E-4
0.0022336745
6.972995E-4
-6.762724E-4
7.211622E-4
0.001373578
1.6944376E-5
-0.0024069743
-4.3748712E-4
0.0024034923
-1.083385E-4
-0.0017656753
-0.0015015707
-0.0010793979
9.515607E-4
0.0026240663
0.0036126315
0.0031839455
0.002737633
0.0034010585
0.002432131
0.0023622813
0.0023189215
-8.759288E-5
-0.0012923307
-0.0021435728
-0.0029797256
-0.0034282182
-0.004710478
-0.0033538593
2.3048091E-5
0.0015267966
1.3782493E-4
-0.0031508014
-0.0036205486
-0.0024155553
-0.0038217893
-0.0036933264
-9.88955E-4
5.4883736E-4
0.002308211
0.0045496183
0.005045362
0.0036770266
0.0014331671
0.0012327431
0.0017519647
-4.1412513E-4
-2.64239E-4
0.0026395882
0.0020595647
1.623199E-4
1.5824256E-4
-2.1806023E-5
-0.0014796954
-0.0021423444
-7.375889E-4
-4.39803E-4
-0.002216735
-0.0027196724
-8.003674E-4
0.0011041852
0.002412781
0.0046401606
0.0046067233
0.0025451726
0.0019172974
7.3494026E-5
-0.0017857436
-0.0030544084
-0.005536249
-0.0054311748
-0.0041948636
-0.0026212533
9.634485E-4
0.0021418964
0.0018453543
0.003448308
0.0036146808
-1.3668157E-4
-0.0025415288
-0.0017535668
-0.003995006
-0.0047499305
-4.065879E-4
0.0029959972
0.0054887044
0.002874991
-0.0029031427
-0.002340329
-0.0010789878
-6.773902E-4
0.0020186
0.0041627735
0.0055974773
0.0044208094
0.0040776865
0.005133034
5.204128E-4
-0.0051674694
-0.0075435014
-0.0061390996
-5.066106E-4
0.0019255793
-6.9627176E-6
-0.0020104912
-0.0037038613
-0.0030613302
-0.0013940225
-9.10914E-4
6.547633E-4
0.0012125414
-1.5626673E-4
0.0023437312
0.0048367097
0.0018676601
0.0011079452
0.0019479897
-3.6362046E-4
0.0015621105
0.004557731
-6.851673E-4
-0.005476014
-0.0029065881
1.7626825E-4
0.0011220097
1.4819168E-4
-3.3775982E-4
0.0034404416
7.4427965E-4
-0.008139287
-0.005698994
5.1614223E-4
6.2888133E-4
0.0021298565
5.2959396E-4
-0.005532977
-0.006505111
-0.0028260716
-3.8660184E-4
3.5591412E-4
0.0029369632
0.0050583747
0.003976519
0.002688059
9.028636E-4
3.180626E-5
0.0017226286
0.0022702857
0.0015915653
3.6000332E-4
-0.0016438435
-0.0017902809
-6.1200606E-4
-0.0010094936
-0.00270352
-0.003644934
-0.0028420053
-6.1428174E-4
0.002093988
0.0037486344
0.0035458796
0.0026043425
0.0015964287
5.218329E-4
0.00132009
0.0035216648
0.0031882413
7.697016E-4
6.928474E-4
0.0042609256
0.0073664137
0.0057454198
7.18905E-4
-0.0020975147
3.7345588E-5
0.001462254
-0.0017290255
-0.0053992704
-0.005254319
4.699348E-4
0.0043407553
-0.0035153104
-0.016381823
-0.020801531
-0.015334304
-0.010256689
-0.009527125
-0.0069631175
-0.0046662735
-0.005481605
-0.004767276
-0.002004348
3.4181072E-4
0.0022443593
0.007961093
0.01536864
0.017931936
0.019664297
0.018999102
0.011221906
0.004023942
9.3463145E-4
7.676993E-5
0.0013466976
0.0029840479
0.005352059
0.008974403
0.01065118
0.008849673
0.004457274
-0.0021959182
-0.005591621
-0.005040203
-0.009850617
-0.015957495
-0.016792987
-0.016553992
-0.01455994
-0.010533016
-0.0053551896
-0.0029868016
-0.006862977
-0.005252592
0.0030868743
0.0060041784
0.0075411494
0.015247396
0.022088272
0.022185301
0.019117853
0.011513265
-8.123528E-5
-0.009330985
-0.011694813
2.8462656E-4
0.011558193
0.0028758508
-0.011972887
-0.023469537
-0.02834135
-0.022179011
-0.014366747
-0.01009146
-0.009617264
-0.006452174
-3.5530626E-5
-8.221552E-4
-0.0048933346
-0.011118115
-0.011299562
0.0035354218
0.014320611
0.01971696
0.027146943
0.027315555
0.018710855
0.0027719436
-0.0105975475
-0.013687806
-0.007845371
0.012492581
0.03335847
0.030840201
0.012938568
0.0012088803
-0.0055210884
-0.014010164
-0.02361292
-0.03896874
-0.040428765
-0.014559516
0.013883474
0.034753803
0.039995976
0.033098355
0.034313787
0.03715092
0.04602078
0.052388202
0.03763968
0.02508028
0.011090636
-0.01549602
-0.038037214
-0.057753082
-0.07305004
-0.07483252
-0.056592345
-0.033221826
-0.0284766
-0.030643782
-0.030926827
-0.02605909
-0.019141052
-0.018947262
-0.019983782
-0.048153024
-0.07980777
-0.055742294
-0.017976914
-0.006286292
-0.013425274
-0.012918698
0.036200177
0.088530034
0.09874201
0.10005709
0.104246326
0.1035194
0.09396749
0.09439087
0.13166423
0.14825633
0.08399047
0.0042710085
-0.037207395
-0.07328815
-0.074932836
-0.026173128
-0.005163023
-0.018081486
-0.02066095
-0.00936189
4.1264357E-4
-0.0058067874
-0.01712249
-0.047198366
-0.098816186
-0.12696254
-0.11796046
-0.09120086
-0.102224134
-0.14957722
-0.14451824
-0.07184024
0.014570953
0.04260546
0.022725528
0.03288836
0.0256804
-0.009609769
-0.005525529
0.025918465
0.09542395
0.18640009
0.23428074
0.22345787
0.16113937
0.09241211
0.009240774
-0.11994074
-0.21090601
-0.21135283
-0.15389086
-0.06581639
0.023891108
0.107650064
0.18614359
0.23355077
0.23295969
0.16101773
0.0011378647
-0.14991605
-0.18972534
-0.15826222
-0.10715788
-0.042358905
0.021132074
0.058540445
0.048426077
-0.0062429816
-0.10958485
-0.20049725
-0.19780202
-0.14085928
-0.045846507
0.042470846
0.05101197
0.045880716
1.744091E-4
-0.12117723
-0.19145688
-0.19390428
-0.18008192
-0.15297976
-0.100126676
-0.013820703
0.058214188
0.11498898
0.16641456
0.19695549
0.22687723
0.21960671
0.18608232
0.17148204
0.13271096
0.10125597
0.08636693
0.028631829
0.015322543
0.077469245
0.08302665
0.038777504
0.018269716
-0.010388955
-0.0011690381
0.068503454
0.07624015
0.024952168
0.011015251
0.05435401
0.074250154
-0.04884068
-0.22172117
-0.30964768
-0.34507108
-0.30748338
-0.19546728
-0.07096012
-0.013371232
-0.10029478
-0.1651627
-0.108505376
-0.121383235
-0.20181058
-0.2122787
-0.16172673
-0.07515597
0.047582764
0.15899518
0.18263493
0.17393601
0.20799504
0.18468034
0.105224945
0.080652714
0.106399454
0.17106195
0.23976122
0.26668227
0.28169662
0.2688977
0.22211426
0.17075768
0.06417284
-0.08227805
-0.15153661
-0.1298144
-0.09205733
-0.07017675
-0.05534974
-0.04496608
-0.058816366
-0.10890881
-0.16481328
-0.1773264
-0.12606257
-0.050380904
-0.011764977
-0.03821017
-0.111810476
-0.15204215
-0.123811856
-0.09188854
-0.058074728
-0.013879817
-0.0013957182
0.02196434
0.06972994
0.08165826
0.057069782
0.016702522
0.0067292466
0.04322582
0.052996155
0.041372944
0.050501976
0.03886161
4.902912E-4
-0.015869826
0.0057082307
0.037427012
0.052032817
0.061027966
0.07400802
0.07600224
0.060246505
0.03587739
0.013914397
-0.004850272
-0.015836187
-0.016663352
-0.021005148
-0.028158745
-0.028080571
-0.021650268
-0.013620527
-0.009933718
-0.00758808
-0.0031181336
0.0012741577
0.006253679
0.0076888935
0.007210307
0.009812379
0.008788237
-0.0016301485
-0.016844125
-0.023661057
-0.023435209
-0.02690679
-0.025625382
-0.017676665
-0.010754592
-0.004839078
-0.0017566707
0.0034095035
0.012206679
0.015618364
0.011136388
0.0011854811
-0.00679485
-0.011394042
-0.016139561
-0.016534863
-0.0167086
-0.019836536
-0.02035401
-0.018455127
-0.013337621
-0.008352028
-0.0073050316
-0.010157213
-0.016646305
-0.01426348
-0.005060117
-0.0032052582
-8.1946066E-4
0.003779161
0.007890527
0.019832604
0.030649068
0.027823383
0.015850628
0.007980973
0.0122587625
0.015247068
0.0069977446
2.6303198E-4
3.167243E-4
0.002571509
0.010669318
0.019709403
0.019814022
0.022304995
0.02855915
0.018101394
-0.0012108141
-0.01126193
-0.016122023
-0.0119625
-1.9596709E-4
0.005291184
0.011254789
0.022950869
0.033233196
0.043114893
0.0527493
0.05479199
0.037323415
0.009281618
-0.0016103336
-5.7636993E-4
-0.0041269823
-0.01346719
-0.035622217
-0.058705196
-0.06905243
-0.07849371
-0.08067003
-0.067070656
-0.057415456
-0.05785355
-0.054100987
-0.046387203
-0.043255705
-0.043129824
-0.041866355
-0.03058819
-0.0021030772
0.033946507
0.0649725
0.081846505
0.0817143
0.066261105
0.043226592
0.03659811
0.044271007
0.047608793
0.051793065
0.051974867
0.051002614
0.058025043
0.0684108
0.08264569
0.058853526
-0.010264084
-0.049579926
-0.0559012
-0.057835184
-0.044332553
-0.03295322
-0.03286308
-0.038590956
-0.042677373
-0.021352934
0.009695086
0.022492604
0.023566753
0.021927182
0.021932162
0.021382105
0.013829981
0.0036996212
-0.007488234
-0.027328018
-0.03935643
-0.02526212
-0.01992751
-0.040952932
-0.053044885
-0.044707425
-0.02615409
-0.01930951
-0.03995703
-0.057568662
-0.05503536
-0.04547033
-0.033935115
-0.019759024
0.004521508
0.025198631
0.025852375
0.02629461
0.03572364
0.046194777
0.05564315
0.05962652
0.05986253
0.05851912
0.05453089
0.05138447
0.046799455
0.036416654
0.026063625
0.020056913
0.012481223
0.004939686
0.0016836462
-0.0034585237
-0.0076701273
-0.010335428
-0.021671098
-0.032875907
-0.030754544
-0.023384137
-0.021720512
-0.022293134
-0.019609906
-0.015968006
-0.008416414
0.0015100363
0.003294552
0.0011764993
2.6819232E-4
-0.0022893162
-0.005675186
-0.012186976
-0.016415711
-0.01302031
-0.010494902
-0.009119762
-0.008411337
-0.011596494
-0.012212392
-0.010355162
-0.008903707
-0.005826701
-0.005027689
-0.005172389
-0.002048067
0.0024861568
0.008974455
0.012337401
0.010099815
0.013501295
0.02055701
0.020929853
0.019287396
0.018401787
0.015671225
0.014286918
0.014291228
0.014107758
0.015130946
0.014322797
0.010393453
0.00810555
0.006952808
0.004773257
0.0047791456
0.0074117603
0.009663287
0.008391483
0.0030683805
1.04690125E-5
0.0014586351
0.0021487488
0.0024911512
0.00445818
0.0044358815
0.0023944343
0.0017953141
0.001341751
-1.04944884E-4
-6.39186E-4
-4.474021E-4
-6.1397564E-6
-3.9317916E-4
-0.0012207023
4.0466315E-4
5.329649E-4
-0.001581351
4.009624E-4
0.0024817083
2.3357043E-4
-0.0013208099
-2.4914983E-4
0.0011251163
0.002217247
0.0021656828
-8.1238E-4
-0.0011418333
0.0013393878
-0.0028511835
-0.0053709364
-0.0014508317
-0.0021491305
-0.0022423489
-3.230123E-4
-0.0021191267
-0.0010724502
9.097473E-4
-2.6610255E-4
-0.0014735826
-7.1134453E-4
0.0018754186
-3.0095715E-4
-0.0042533884
-0.002221753
-1.6401388E-4
-6.8067595E-5
1.9548296E-4
-7.865724E-4
-0.0015417668
-0.0015521824
-0.0015407525
-0.0016821701
2.7797619E-4
0.0027427608
-4.1362535E-5
-0.0021450836
-9.532655E-4
-0.0025846981
-0.001656513
0.0021871827
0.0011271468
-1.454841E-4
0.0017071422
0.0018407443
0.001449771
0.0016688547
-3.2651782E-4
-0.0015214754
-2.3767978E-4
-7.5956003E-4
-0.0021498958
-0.001796837
-0.0011089747
-0.0012696354
-0.002878373
-0.004128459
-0.004303765
-0.0059023025
-0.006230133
-0.0041800663
-0.005301546
-0.0065258876
-0.0015584397
0.003569085
0.003193231
3.0264127E-4
-0.0027624683
-0.0038369813
-5.886215E-4
0.002206587
-0.0010946359
-0.0050142403
-0.0034363894
-2.7681568E-5
0.0022008102
0.0039700237
0.00760323
0.01224059
0.011087291
0.008282803
0.00939621
0.005080322
-0.004002433
-0.008134468
-0.008747681
-0.007204715
-0.0024019915
0.0023292876
0.0042210426
0.0016927862
-0.0044012503
-0.0064903083
-0.0026735119
-0.0022040876
-0.0050323387
-0.005762767
-0.0071898834
-0.007987898
-0.0063636363
-0.004155928
-8.5552374E-4
-1.7278754E-4
-0.0026956608
-0.003449001
-0.0018527384
5.908515E-4
0.0011797304
6.8047177E-4
0.0019911972
0.002269214
0.0023891244
0.0048564626
0.00472888
0.002159214
0.002733468
0.0034420607
0.0013186213
7.165677E-4
0.001780399
0.0018585513
5.524746E-4
-0.0011154624
-3.260749E-4
0.0011750766
0.002037976
0.003321934
0.0013966709
-0.0014969956
-0.0014320153
-0.0027173995
-0.0055632396
-0.0060843644
-0.0049910196
-0.005002063
-0.004097866
-8.035366E-4
-2.92223E-5
-0.0011988139
-0.0017868524
-0.0028183644
-0.002302397
-0.0018436549
-0.0011742146
0.0011090138
7.814598E-4
5.1092997E-4
8.229838E-4
-5.411183E-4
0.0013081512
0.0033990075
0.0034200414
0.0045645996
0.002921551
2.136557E-4
2.2392468E-4
-5.601748E-4
-0.0011966242
-0.0013237471
-0.0031778133
-0.0026042615
6.176331E-4
0.0015705199
0.0011531272
0.001020443
6.548851E-4
-2.7892497E-4
-0.002455024
-0.004169544
-0.0036617978
-0.0015566623
-1.11191905E-4
-0.0012306727
-0.0019832905
-4.5484575E-4
7.25579E-4
6.6295813E-4
4.8862584E-4
8.2268845E-4
7.528356E-4
-3.5703808E-4
-0.002509389
-0.003402364
7.854469E-5
0.002330052
4.4712707E-4
0.0013161268
0.0041867574
0.0033654808
-6.957273E-4
-0.0032348472
-0.0031013752
-0.003913998
-0.0026588533
0.0014621436
0.0020710884
0.0014201473
0.003396364
0.0050086975
0.0032437912
-4.6822146E-4
-0.0018742452
-0.002121172
-0.0028624113
-0.0022771333
-0.0029169263
-0.0039496752
-0.0010064048
7.62915E-4
-8.205152E-4
2.6635005E-4
7.539914E-4
0.0019498781
0.0077590523
0.0030435873
-0.007665737
-0.0038226433
0.0030718953
0.0010595422
-0.003015431
-0.003909801
-7.886838E-4
-5.9073855E-4
-0.0013533183
0.0022089444
0.0015417795
-0.0011983383
7.044133E-5
5.9552724E-4
6.044047E-4
2.6933683E-4
-0.0017390953
-0.0017556361
-1.5470403E-4
-3.638256E-4
-6.576382E-4
-5.135491E-4
-0.0026860642
-0.0036594947
-0.0015763729
9.242378E-5
0.0026483405
0.004079635
0.0017512764
6.893358E-4
0.0010510967
0.0011689105
0.002524402
0.0023868617
0.0016726382
0.0028801584
0.0015122863
-0.001145712
-0.0017113504
-0.0037789675
-0.0039970744
-7.8215473E-4
-4.4679624E-4
1.5796888E-4
0.0022863084
0.0017075402
0.0011996327
6.25079E-4
-0.0012200088
-0.0020860257
-0.0017193699
-0.0016711843
-0.005140313
-0.0068549174
-0.0020431618
1.19581615E-4
-9.4620587E-4
7.9787154E-5
-4.084357E-4
-4.1304025E-4
0.0013995647
5.6257367E-4
7.9901126E-4
0.0034520973
0.0025868714
9.69676E-4
0.0027990951
0.003839012
0.002473996
6.072104E-4
-5.788567E-4
2.275632E-4
0.0010571918
6.808272E-4
9.2239876E-5
-8.92662E-4
-0.0010883639
-0.0010085176
-3.0388174E-4
0.0019796363
0.0015342825
1.2519654E-4
5.20464E-4
-0.0024069834
-0.006374556
-0.0064783823
-0.004237386
-0.0014433723
-4.397404E-4
-9.367905E-4
-0.0016184369
-0.0019435157
-1.3329148E-4
0.0014259403
0.0017047037
0.002359374
0.0024093732
0.0016650934
-4.272069E-6
4.195378E-4
0.0034720888
0.0036182413
0.0031178666
0.0029779763
-1.3556016E-4
-0.001786682
-6.1250705E-4
-5.3407402E-5
-0.001213782
-0.0023496053
-2.2939865E-4
0.0023095165
0.0024694428
0.0014374708
1.08267224E-4
5.0721393E-4
-8.879046E-4
-0.004732755
-0.004613151
-0.0030783336
-0.0027561719
-0.001377344
3.0919353E-5
0.0012247866
4.7532123E-4
-0.0017744636
-0.002188366
-0.0028862257
-0.001989907
0.003013202
0.0043961788
4.879802E-4
-0.0011728365
-3.4940973E-4
-5.4185727E-4
-3.1524306E-4
0.0012450777
0.0026729594
0.0033322712
0.0022045646
-3.9719403E-4
-0.0014175844
-5.130647E-4
-4.4078377E-4
-4.7539696E-4
0.0017242365
0.004008149
0.0046197046
0.0044439863
0.001777628
-0.0021434375
-0.0026876163
-0.002339246
-0.004008805
-0.0034698371
-0.002122021
-0.002956859
-7.322475E-4
0.0013801294
-0.0011358098
-5.669101E-4
0.0012893572
-0.0012444232
-0.0030392318
-0.0019518599
6.73719E-4
0.0017919828
6.640992E-4
0.0018291782
0.0027780144
0.0019083912
0.0022205827
0.0018551042
4.536903E-4
-0.0016333825
-0.0033557734
-0.003264988
-0.0042302543
-0.004222989
-0.0011830679
7.685466E-4
0.0021163777
0.004102962
0.0035495705
0.0011157745
2.657682E-4
2.1009133E-4
4.189618E-4
8.312737E-4
-0.0010039406
-0.0013058655
0.002390152
0.003914419
0.0017202313
1.9841426E-4
6.728602E-4
-6.169645E-4
-0.0015920048
7.8425475E-4
8.7107596E-4
0.0013599619
4.426692E-4
-0.0044175982
0.0012944156
0.00277816
-0.013338923
-0.015003761
-0.0010677472
0.0025494215
4.9652E-4
2.2674503E-4
6.300423E-4
0.0030494805
0.004663416
0.0034831094
0.002038139
8.870877E-4
2.357511E-4
0.0025249196
0.0042482507
0.003223328
0.002350172
-2.558767E-4
-0.0016088022
1.6398416E-4
-1.8583664E-4
-9.800035E-4
-0.0013962872
-0.0018530197
-0.0012315854
-0.002167778
-0.0023282117
-0.0012589849
-0.0019465656
-7.556356E-4
0.0014442805
-1.1836352E-5
-0.0024624653
-0.0025485656
-0.0015346445
-6.782235E-4
1.9492263E-4
0.001379775
0.0016351233
-3.363732E-4
-1.03702434E-4
0.0029040354
0.0028189984
0.0017482828
0.0016514305
0.0011353778
0.001358638
-1.6722905E-5
-0.0016943165
4.0439645E-5
0.0027798316
0.002002307
-0.002581202
-0.0033593632
-8.712122E-4
-0.0013327403
4.1669223E-4
0.0038784866
0.0031822463
0.0012026911
4.948919E-4
-2.780301E-4
-0.0025272681
-0.0039617373
-0.0028504266
-0.0019630394
-0.0021313778
-0.0020875717
-8.863635E-4
-7.143203E-5
-0.0011842138
-0.0019619113
-0.0015760483
-6.4032426E-4
2.750632E-4
9.614909E-4
0.0015288113
0.0016426183
0.0031041594
0.004147387
0.0027682793
0.0011831109
-0.0012847936
-0.001944995
0.0012771705
0.0030469527
0.0021212203
0.0022422448
0.004530143
0.0043742443
0.0013114734
-9.439632E-4
-0.0039744293
-0.0052355835
-0.0037101766
-0.0018799421
-7.672111E-5
-0.0029753165
-0.00498938
-0.0015506092
-4.1999342E-4
8.9284615E-4
0.0016608746
-0.0011166293
-0.0013535395
-6.691469E-4
-3.509398E-4
-4.9400212E-5
-7.905518E-4
-1.16067444E-4
-4.2580088E-4
-5.408631E-4
0.0013456896
0.0013085952
0.0014516504
0.002222386
0.0022296594
0.0029537312
0.0024240436
0.0010689076
1.2874971E-4
-0.0010770995
-8.53888E-4
-4.6116585E-4
-0.0013243005
-9.063708E-4
1.9527673E-4
4.4921538E-4
0.0013284247
0.0027242354
0.0030655009
0.0010197808
-0.0011578836
7.609428E-4
0.003036635
0.0023491858
3.9969466E-4
-0.0035518685
-0.0056425454
-0.004440866
-0.004133117
-0.0028686114
-0.0017176465
-0.0015614192
9.22951E-4
0.0017637252
9.0659014E-5
4.2820474E-4
0.0016010143
4.7978075E-4
-0.0018344905
-0.0012720008
1.4157192E-4
-1.5634355E-4
3.766431E-4
-2.3994726E-4
-0.0010095752
5.128894E-4
0.0015422261
0.0030516253
0.004077515
0.003926269
0.0045878794
0.0027041193
1.18980985E-4
3.3549732E-4
8.1882277E-4
9.726312E-4
3.5791472E-4
-4.5596214E-4
-0.0011617489
-0.0022758623
-0.0019467117
-0.003473105
-0.007605035
-0.007920587
-0.0043642614
-5.9638073E-4
0.001045277
-3.5264203E-4
-0.0014577479
-1.6266019E-4
0.0013594348
0.0018933057
0.0020563982
0.001471396
7.9313474E-4
0.0017453139
0.003310887
0.0031096577
0.0011984903
3.321314E-4
7.749231E-4
0.0019177834
0.003835792
0.0027939244
6.67424E-4
0.0021185072
0.004745857
0.005408292
0.0019990692
-0.0018515885
-0.004465713
-0.0060330075
-0.002463683
-0.0025464217
-0.0020512221
0.0025142934
-0.011299405
-0.020822318
-0.004593785
0.0033677355
0.0024152922
0.005331326
0.0037408352
0.003847404
0.0048482986
0.0029266882
9.6628726E-5
-0.0038081664
-0.0039111567
-0.0021737283
3.343658E-4
0.0034868994
0.003581466
0.004188244
0.00347038
0.0014710991
0.0025948563
0.0027067496
0.0010482537
1.1092337E-4
0.0012267914
0.0013726755
-0.00268593
-0.004454504
-0.003311105
-0.002299669
-8.59905E-4
-0.0018416889
-0.0024488836
-9.986848E-4
-0.0014944966
-0.0025900467
-0.0018753232
0.0010629526
0.0028387231
0.0011835557
9.293573E-4
0.0015946601
8.349279E-4
9.0897817E-4
-1.7980045E-4
-4.1924164E-4
0.0020696342
6.6113385E-4
-4.9862236E-4
0.0019626303
0.0020736475
0.0033195473
0.0015809595
-0.004178956
-1.843666E-4
0.0044179615
6.1721215E-4
-0.0019669114
-0.004281054
-0.0047442303
-9.635061E-4
9.3524606E-4
0.0010486409
-1.4638373E-4
-0.0015634466
-0.001084015
-2.7720194E-5
4.5890387E-4
-0.0015336593
-0.003124696
-0.0017922343
-8.3002594E-4
4.9625593E-4
0.001980554
7.055164E-4
-4.1189624E-4
0.0022355835
0.00406956