0.001190936
-0.0011108096
1.9120197E-4
8.844376E-4
5.021898E-4
0.002111206
9.290252E-4
3.434103E-4
0.0027096716
0.0018290244
-0.001117679
-0.0017354196
-0.0011645287
-0.0025804942
-0.003445457
-0.0020056872
-0.002630144
-0.001565463
0.0022467854
0.0013520438
6.5301015E-4
0.0024677804
7.2393357E-4
-5.679557E-4
-3.575549E-4
-0.0010526455
-8.8600453E-4
-0.002049402
-0.0013075627
0.0024546199
0.0014274602
-5.3926284E-4
7.1891275E-4
5.449103E-4
-8.6925994E-4
-0.0032149493
-0.003783409
-3.557934E-4
9.307301E-4
8.807673E-5
0.0010765966
0.0023086309
0.0022012298
3.854347E-4
-5.3520617E-4
7.8149856E-4
0.0011478043
0.00157441
0.0035744188
0.0032479684
7.004524E-4
-1.15226154E-4
-4.9079244E-4
-0.0011226019
-2.753694E-4
-4.161742E-4
-7.5544755E-4
6.796587E-4
6.1681853E-6
-0.0018006376
-0.0013840314
-9.05792E-4
-0.0017043998
-0.0026641954
-0.0025325317
-0.0016369364
-0.001153546
-0.0010174699
-5.565321E-5
0.0020301926
0.0012727191
-0.0012563667
2.3758839E-4
8.7194756E-4
-6.5243384E-4
0.0016756018
0.002638127
0.0010342473
0.0015960606
3.8742754E-4
-3.9340154E-4
0.0022257997
0.0020712025
1.351238E-4
-1.1769707E-4
-2.1434973E-4
-5.885655E-4
-0.0013485154
-0.0010214522
-2.3159513E-4
-7.9211424E-4
3.8844114E-4
0.0013964926
-0.0012803873
-0.002201615
-4.129745E-6
5.105213E-4
2.8543398E-4
0.0010345969
7.30231E-4
-2.6781252E-4
-3.9270998E-4
-5.312326E-4
-0.0012426254
-8.0641103E-4
0.0015858415
0.0024969482
5.373139E-4
-9.846423E-4
-0.0019057508
-0.0016045843
9.1561687E-4
0.0017946046
0.0016293586
0.0010921936
-0.0017653292
-0.0015050694
0.0014641224
5.353885E-4
-0.001277375
-0.0010975067
-8.530496E-4
5.3977703E-5
6.400064E-4
-7.726653E-4
-0.0011846519
-7.787637E-4
-0.0027965282
-0.002605901
3.6735993E-4
-8.5369666E-4
-0.0016151284
0.0026045945
0.003678291
4.5595702E-4
-3.0496757E-4
5.4993434E-4
7.86746E-4
0.002628163
0.0032559866
8.981417E-4
-1.7494339E-6
6.20242E-4
0.0017121171
0.0019363113
0.0011595838
0.0026069928
0.0012489003
-0.0018544449
-9.571685E-4
-0.0024810294
-0.003505306
-0.0010736686
-6.818198E-4
0.0010268224
0.0012212748
3.487248E-4
1.2524886E-4
-0.008703774
-0.011414405
-7.4301567E-4
0.0022665889
0.0011983723
0.00268717
4.618188E-4
8.070899E-4
0.0032272644
0.003160222
0.0029483228
0.002015886
7.912911E-4
1.6843214E-5
6.592199E-5
-6.7123934E-4
-0.002612766
-0.0013049187
4.4880382E-4
-2.6658375E-4
-0.0011819854
-0.0018196624
-4.9894076E-4
1.8161286E-4
-5.6637E-4
4.7608654E-4
4.292664E-4
-5.314454E-5
7.883671E-4
7.570668E-4
-7.748855E-5
-7.8819453E-4
3.7168994E-4
0.001054088
1.1341157E-4
0.0015430811
0.002847814
0.0018584817
0.0011843167
0.0021380365
0.0026908095
-6.937603E-5
-0.0016146725
-3.1381633E-4
-3.2856615E-4
-8.362267E-4
-7.776175E-4
1.408261E-5
-4.811228E-4
-9.6542767E-4
-8.0358615E-4
-0.008267521
-0.012763674
-0.0034539208
0.0024039007
0.0011135634
0.0020348423
0.0024259265
0.0014216293
7.549618E-4
9.6215284E-4
0.001825352
0.0018447833
0.0012827403
6.8024744E-4
8.9280005E-4
0.0012221109
0.0012895543
0.0015418505
0.0011102145
0.0014868755
0.0012460899
9.7565375E-5
0.0013984495
9.004342E-4
-0.0016993555
-0.0018830776
-0.0018298978
-0.0018120607
-0.0022135153
-0.00324013
-0.0025656428
-0.002603492
-0.0016429542
0.0014542979
8.916952E-4
-3.8011782E-4
5.204118E-4
7.68929E-4
0.001950318
0.0028730633
0.0034731154
0.0035900096
-4.0862095E-4
-0.0026174746
-7.3296926E-4
4.5954663E-4
7.4470066E-4
-6.3597754E-4
-1.3802602E-4
0.0019149482
0.0017795375
0.0024782587
-4.0206002E-4
-0.0035790869
-6.117433E-5
3.0091012E-4
-0.0017549327
-0.0016925621
-0.0023576727
-0.0016570812
-0.0028494287
-0.0032389062
1.3789567E-4
7.257593E-4
8.450803E-4
-2.1865678E-6
-7.570849E-4
0.0029553839
0.0034850107
0.00242501
0.0028365694
1.7360481E-4
-5.459078E-4
1.9121144E-4
-9.421785E-5
0.0012474149
7.120858E-5
-0.0012526121
5.1158987E-4
-5.7062723E-5
-0.0012336705
-0.0011732266
-0.0014905231
-9.062244E-4
-0.0018134817
-0.002105516
8.3076657E-4
0.0010516867
8.7771274E-4
0.0018474433
-0.0015095767
-0.003639471
-0.002196507
-7.4756274E-4
0.0016452356
0.0018503735
0.0018706243
0.0029817335
6.2940933E-4
0.001082253
0.0035660265
0.0012876912
-7.431696E-5
6.978566E-4
5.0274545E-4
-1.0349439E-4
-6.836969E-4
-3.4793982E-5
6.770896E-4
6.360471E-4
6.936023E-5
-2.0307902E-4
3.668526E-4
-0.0012420067
-0.002206395
-9.7031845E-4
-0.001957633
-0.0022239028
-0.0017811664
-0.0037703502
-0.004515635
-0.0022312696
0.0013664474
0.002811837
0.0013816433
3.8508868E-5
-2.031634E-4
0.0015924381
0.0029366973
0.0023629651
0.0020106647
2.4154542E-4
-4.99406E-4
0.0010071262
8.3585083E-4
0.00145891
0.0024926246
0.0019743831
0.002132876
7.456539E-5
-0.0029584812
-0.0027151227
-0.002143622
-0.001407454
-8.6071336E-4
-0.0029346
-0.0036387022
-0.001996644
9.902064E-4
0.0050844876
0.0037939602
0.00113793
0.0014619977
-0.005751299
-0.0115912575
-0.0036749684
0.002805452
0.0028883447
0.0046557146
0.004908552
0.003836124
0.004876841
0.005467252
0.004186933
0.0019671489
-1.3274566E-4
-0.0027759129
-0.0056740106
-0.0053832
-0.0035921675
-0.0038292513
-0.0036318416
-0.0021090799
-0.0011532395
-0.0015493695
-0.0015756512
0.0018430054
0.003529335
2.9351222E-4
-5.9540936E-4
2.492169E-4
-9.5116236E-4
-0.0013199932
-5.176374E-4
1.3963095E-4
7.82515E-4
0.002040567
0.002567117
0.0022347867
0.0027023219
0.0018406201
0.0012616337
0.0014203499
0.001700442
0.0053454596
0.0047323606
-2.2900665E-4
-0.0012690312
-0.0021445698
-0.0015635226
-5.7054247E-4
3.659777E-4
0.0026679817
-0.0068132887
-0.014281253
-0.0034322497
0.0017964907
-0.0015051588
4.3525329E-4
0.0015194755
7.716943E-4
6.975832E-4
8.1101136E-4
8.754585E-4
-4.4027163E-4
-2.885889E-4
6.6912186E-4
-0.001264093
-0.003329761
-0.0028993941
-0.002262902
-3.0460936E-4
0.0033613115
0.0029032596
5.12436E-4
4.149811E-6
-6.390647E-4
0.0013264045
0.0037268682
0.0035762035
0.003093968
-5.671915E-4
-0.0038414116
-0.0019191509
0.0014002831
0.004540058
0.0051961225
0.0038262128
0.0026955176
-8.2329195E-4
-0.0025216443
4.6655769E-4
0.0012987583
-1.2583785E-4
0.0018277917
0.005277932
0.003293713
-0.0033797037
-0.007868309
-0.0093960585
-0.0085531445
-0.004640845
-0.001989072
-0.0020445879
-0.0020406384
-0.0014410225
0.0011046842
0.0034457517
0.0019689952
4.67806E-4
-6.15317E-4
-0.0028267785
-0.0017473062
3.5524418E-4
8.938774E-4
0.0037917811
0.006052456
0.0048581916
0.0039122705
0.0046503227
0.004725174
0.0021482315
-7.099688E-4
-0.002310886
-0.0025661676
-4.327415E-4
7.298695E-4
4.925907E-4
1.6900114E-4
-0.0013124681
-9.5161516E-4
-0.0013707532
-0.004110154
-0.004957142
-0.0059354203
-0.004172044
-4.3586447E-4
-2.7971444E-4
6.6800276E-4
3.3173266E-5
-0.0022873029
-9.722631E-4
6.544671E-4
0.0023943763
0.0031405136
0.005616575
0.00899259
0.0051134317
0.0054465155
0.005097337
-0.0061541926
-0.005689012
-1.4530019E-4
-0.004467355
-0.0028414365
0.0010530067
0.0010445699
0.0032534138
0.004651745
0.0037122045
7.461875E-4
-5.152092E-4
4.174888E-4
-0.001956713
-0.0047812588
-0.0067107445
-0.0071050744
-0.0043697758
-0.0031384241
-0.0021994598
3.7052893E-4
0.0024340693
0.003944778
0.0025995525
5.603959E-4
0.0018252471
0.0035028069
0.004486574
0.0038865595
-5.5180356E-4
-0.0055105467
-0.008025288
-0.0078239245
-0.0046688193
-5.40086E-4
0.0023861157
0.0018659877
4.8508792E-4
0.0029327094
0.0040810206
0.0037567795
0.0047812117
0.0013965741
-8.49502E-4
5.8474997E-4
-9.364305E-4
9.231186E-4
0.004509082
0.0041473596
0.0041676364
0.0024600544
0.0013145917
0.0020411133
-0.0011827622
-0.002763448
2.804685E-5
0.0015378062
0.0011576819
-2.3925137E-4
-0.0032193381
-0.0066394783
-0.0067690937
-0.005378119
-0.005135041
-0.0028693506
-4.912804E-4
-3.953604E-5
-7.940253E-5
-6.275719E-4
-1.1061121E-4
0.0012300825
0.0026726201
0.0013170255
-0.0026598112
-9.913476E-4
0.0026461175
0.002887928
0.003126424
0.0010756255
-2.7239305E-4
0.0012029073
0.001731351
0.0035634292
0.0022687863
-0.003619818
-0.0055380138
-0.003363835
-7.389461E-4
5.541941E-4
5.3894473E-4
6.70207E-4
0.0016658878
0.0031149657
0.0010492144
-7.051693E-4
0.0015836529
9.356406E-4
-6.227853E-4
-9.527708E-4
-0.0021238062
0.0010237786
0.0041319462
0.0026267383
0.0018665754
0.0015495896
0.001381197
0.0010250007
-0.0019913428
-0.003575309
-0.0025656996
-0.003261529
-0.0041729473
-0.0024645624
-2.4135968E-5
0.0016857606
0.0020451967
5.363392E-4
-0.0010949763
-9.043008E-4
0.0013769004
0.0016758285
-0.0011204492
-0.0014961191
-0.0017132758
-0.0033417246
-0.001752137
-6.328835E-4
-9.94775E-4
-1.395847E-4
4.5754856E-5
0.0018946105
0.004674627
0.004195218
0.0034336871
0.0047510387
0.004125392
-5.8156427E-4
-0.0026275078
3.006675E-4
-1.2919091E-4
-0.002964434
-0.0017619844
-5.252113E-4
-0.0014284301
-0.0013164912
-0.0014228198
-8.469997E-4
0.0012566192
0.0014424187
0.0017517369
0.0017760076
-0.0010518053
-0.0026719337
-0.004059522
-0.0043584085
-0.001338837
-9.502992E-4
-9.964396E-4
0.0017737435
0.0041402914
0.004171786
4.4968902E-4
-2.886894E-4
0.0018799336
9.962641E-5
4.5787334E-4
0.0015094184
3.8181848E-4
0.0031902269
0.0047377693
0.0036647595
0.0036710454
9.2061266E-4
-0.001874549
-0.0026929777
-0.0039159767
-0.0030984138
-0.0024182566
-0.004125179
-0.0035105026
-8.014547E-4
7.385296E-4
6.313188E-4
-0.0011802315
-0.0016950726
-0.0015766866
-0.003774836
-0.003226162
-5.2556663E-4
-5.0076004E-4
6.565161E-4
0.0024127983
0.0019391153
0.0017363868
9.0000656E-4
-2.6295523E-4
0.0013543562
0.004369053
0.0062767286
0.00561941
0.0028836303
0.002491402
0.0043298416
0.0028266346
1.6345193E-4
-1.8960895E-4
-0.00110416
-9.1749855E-4
-1.8887171E-4
-0.003611279
-0.007570155
-0.008210282
-0.006025257
-0.0028304106
-0.00120858
4.8020118E-4
0.0025365786
0.0022341462
-5.4026145E-4
-0.003095284
-0.001382153
0.0011849685
1.4996095E-4
-7.44084E-4
-0.0015600392
-0.0019036678
0.0010403428
0.0025739917
0.001959258
0.0025491233
0.002875437
0.0025983553
0.0026975228
0.0036984466
0.0037245725
8.417707E-4
-0.0013192452
-0.0022500253
-0.0036395313
-0.0023413643
3.139184E-4
1.490136E-4
2.2896855E-4
0.0027494882
0.0036842255
0.0042224904
0.005912386
0.0023842978
-0.0032421134
-0.0037433878
-0.003590346
-0.003952739
-0.002779272
-0.0010714831
0.0011967182
8.700414E-6
-0.0036475826
-0.0033549631
-0.0022304207
-0.0042380667
-0.0065553784
-0.0067626145
-0.0045314063
-9.909322E-4
6.8428024E-4
5.9998385E-4
0.0025892814
0.004862322
0.00562836
0.007234153
0.0076868488
0.0060506416
0.0034762537
3.3995154E-4
-0.0017199764
-0.0025292698
-6.64855E-4
3.534183E-4
-0.0021941734
-7.398871E-5
0.0036824695
0.0027017258
0.0019269217
1.842777E-5
-0.0022669258
-0.0022866789
-0.0039872047
-0.003814776
-7.1444403E-4
-9.095729E-5
-4.3714978E-4
9.985674E-6
9.2363363E-4
0.0015423456
0.0010248426
0.001363952
0.0012368128
8.4640906E-4
0.0032601561
0.003148286
4.6483346E-4
0.0014803931
-4.0441144E-5
-0.0051066554
-0.0054950165
-0.0038869912
-0.002809464
-0.0032631317
-0.006695851
-0.005791415
-0.002025387
-7.553218E-4
0.0020712188
0.0031625999
0.0015888391
0.0025135626
0.0028586464
0.0035560853
0.005622122
0.004720494
0.0041149557
0.0041572917
9.464653E-4
-0.0015028769
-0.001634529
-0.003956734
-0.0074893623
-0.0067170565
-0.0023221164
-5.7108735E-4
-0.002631479
-0.005362606
-0.007738431
-0.007049456
-0.0012169492
0.0046100495
0.008242444
0.011706638
0.011572615
0.0084453495
0.007831935
0.009798381
0.009579866
0.0031608043
-0.002182967
-0.0025129921
-0.006583231
-0.009758087
-0.007849787
-0.008875239
-0.0075755883
-6.677497E-4
0.002371397
-0.0025048389
-0.011219516
-0.015104467
-0.0130251385
-0.008879808
-0.0022662757
0.0023544708
0.0032523696
0.003456491
0.0014481263
8.141614E-4
0.004148203
0.004985126
0.006062917
0.012922093
0.017200932
0.016387703
0.015182857
0.011674492
0.010171597
0.010618713
0.004684229
-0.0034250258
-0.012084223
-0.022309473
-0.026512174
-0.024354799
-0.019146139
-0.014800314
-0.013094323
-0.008976666
-0.0058651855
-0.0070981192
-0.007861622
-0.006542112
-0.0036291725
4.0886382E-4
0.0061694123
0.010447926
0.012088353
0.016695498
0.022801213
0.033081483
0.044154096
0.036678113
0.019013837
0.009939466
0.005305489
0.0064206417
0.013327077
0.013151885
0.0060747103
-0.0013215765
-0.015755663
-0.035280168
-0.042121176
-0.042201553
-0.053155337
-0.0667594
-0.06801465
-0.04544204
-0.005848191
0.02525738
0.048041962
0.061595213
0.053727884
0.04202106
0.03697431
0.036167905
0.036450736
0.017458579
-0.012276212
-0.02446685
-0.020068113
-0.011128638
-0.008945676
-0.015305724
-0.021252
-0.018612396
-0.0050371354
0.00875593
0.019314446
0.027758883
0.020198302
-0.01529845
-0.07056408
-0.11558151
-0.1320028
-0.1110504
-0.044460203
0.02431783
0.05680322
0.07584332
0.09686768
0.11687253
0.14136629
0.16899091
0.15100266
0.05289515
-0.040502027
-0.056267843
-0.031483285
-0.018364495
-0.04744762
-0.1000008
-0.14532632
-0.17137937
-0.13179727
-0.035177212
0.05588
0.12793623
0.15993895
0.1383739
0.10004019
0.0641946
0.013369345
-0.072367296
-0.15058053
-0.14813255
-0.08893416
-0.04879838
-0.04235374
-0.036132198
-6.740554E-4
0.046940524
0.06982767
0.057189822
0.004994229
-0.042403642
-0.042670254
-0.06005209
-0.098956436
-0.089733094
-0.052305095
0.011402475
0.11846433
0.22091368
0.26102158
0.18911488
0.07899248
0.03928024
0.020107444
0.007518933
0.0225857
-0.007887356
-0.05475399
-0.02077046
0.041800726
0.02800907
-0.027437722
-0.06368229
-0.13974161
-0.22331959
-0.20871335
-0.15232079
-0.10437052
-0.062031843
-0.058136303
-0.037724454
0.01820494
0.04440359
0.061963838
0.075083524
0.05509614
0.040873628
0.049356963
0.07770459
0.13567339
0.19628854
0.23715416
0.25087428
0.20350838
0.07508919
-0.09731111
-0.23710197
-0.29081348
-0.2696353
-0.18678382
-0.066929445
-0.0025119188
0.008882182
0.058356583
0.099502236
0.07846432
0.052996505
0.054061007
0.086993866
0.10909167
0.030064171
-0.12224005
-0.20165065
-0.1464273
-0.08003266
-0.10370068
-0.14286803
-0.13032399
-0.080409974
0.02160409
0.16385855
0.2343456
0.22288252
0.22311826
0.14301494
-0.038842935
-0.1269324
-0.1324954
-0.12641497
-0.06936136
-0.022333825
0.00863936
0.05976485
0.09998272
0.13618138
0.16702458
0.19976178
0.22636104
0.21903194
0.17029291
-0.006963043
-0.25287887
-0.36136052
-0.343458
-0.27216744
-0.17781402
-0.12669866
-0.09086095
-0.052882325
-0.05754939
-0.055354476
0.0021184662
0.062483694
0.095781855
0.1307189
0.14662449
0.101572394
0.040444568
0.031459197
0.046945542
0.02371894
-0.0055775857
0.0064871274
0.03694542
0.07550406
0.10255937
0.088476956
0.068291344
0.08225581
0.094146155
0.017467458
-0.10586307
-0.13212708
-0.09945854
-0.10818447
-0.11400377
-0.089477345
-0.06413861
-0.0460872
-0.0319749
-0.01711371
-0.0086419275
0.0022580114
0.019141342
0.02535963
0.042346295
0.059258737
0.035423413
0.014532702
0.026967695
0.024963042
0.006268586
0.011201437
0.035757974
0.05306592
0.044646483
0.013338079
-0.007955571
-0.009239267
9.779797E-4
0.029099112
0.046330996
0.019820938
-0.027700992
-0.05896428
-0.061878648
-0.057939433
-0.06348139
-0.0650313
-0.054973707
-0.035962
-0.013408576
0.008813774
0.026580378
0.035612747
0.044912297
0.0465601
0.036167655
0.03495615
0.035780683
0.02952414
0.01929632
0.008491224
0.014521972
0.023826236
0.025168665
0.020265717
-0.0010431047
-0.007786892
-0.01172621
-0.042809635
-0.044640273
-0.027985016
-0.045882378
-0.06325531
-0.061137073
-0.05345346
-0.040295716
-0.023374906
-0.00603088
0.0049100933
0.015775817
0.01984694
0.0089585455
0.017295217
0.040974956
0.052994657
0.0715461
0.08602228
0.0785581
0.0694799
0.054609984
0.026380131
-0.011334112
-0.060388304
-0.087664925
-0.0727874
-0.04600669
-0.025664926
-0.017723475
-0.018263279
-0.003960287
0.016388888
0.01218341
-6.363778E-4
0.012187274
0.026469735
0.014778437
0.007846737
0.010075939
-0.0020281533
-0.011526603
-0.0064431224
-0.0025627688
-0.0011090875
0.0095982915
0.014836397
-5.194754E-4
-0.009562089
-0.009631976
-0.024623165
-0.04208154
-0.053660322
-0.063775316
-0.06738054
-0.06246471
-0.043932177
-0.019982405
-0.0050925845
0.006636612
0.021969903
0.03700836
0.04433717
0.042857006
0.038831368
0.038457647
0.045966562
0.059172183
0.06501061
0.046511237
0.013859085
-0.0041649505
-0.007958538
-0.009525989
-0.010298532
-0.012099144
-0.011871403
-0.011142364
-0.01407446
-0.015393476
-0.015166341
-0.01978369
-0.02350482
-0.0090915775
0.016055696
0.021728637
0.008398729
-0.002233196
-0.0050223116
-0.0026578417
0.0013783849
0.0024606108
6.498274E-5
-0.004180126
-0.009047037
-0.011634191
-0.010234493
-0.01144259
-0.020716157
-0.031230992
-0.03380631
-0.028872076
-0.023163157
-0.020261753
-0.020057045
-0.019383565
-0.014745155
-0.006909572
0.0042092665
0.015158231
0.020699555
0.024409216
0.02815054
0.029762423
0.030045563
0.028695917
0.025224842
0.023302546
0.02460685
0.022457859
0.016583528
0.013229104
0.009076952
0.0038639707
-4.6009285E-4
-0.005574878
-0.006690019
-0.0060250727
-0.007983391
-0.0091685895
-0.011219617
-0.012037142
-0.009506268
-0.0096562505
-0.011028414
-0.011436803
-0.012916632
-0.0124619715
-0.009560104
-0.007369828
-0.005356701
-0.0011833755
0.004249903
0.006562332
0.0053438433
0.0049241846
0.0055991565
0.0040336065
0.0010282773
9.621539E-4
0.0036152727
0.0033756946
-6.862744E-4
-0.0041556368
-0.005883
-0.0060703973
-0.0041467263
-0.0025402613
-0.0026886635
-0.0019552545
6.2798505E-4
0.0031032178
0.0041360264
0.0024085557
1.2414616E-4
0.0017263107
0.0033560488
0.002397895
0.0023521956
0.0013564628
2.9770448E-4
7.43678E-4
0.0010364285
0.0039491937
0.004556468
5.598564E-4
2.8746193E-5
0.0014768005
0.0022754834
0.0015133402
-0.0010034057
-0.0010919843
-0.003353244
-0.0063008633
-0.004692138
-0.0053926352
-0.005980458
-0.0040469593
-0.0043075304
-0.00303104
-0.0016773221
-0.004067405
-0.005091684
-0.0024231635
-5.522129E-4
-6.3775526E-4
9.337949E-5
-9.0264395E-4
-0.001088365
0.0026627255
0.002891785
0.0024739006
0.0039707865
0.00182949
-4.896595E-4
-0.0035166426
-0.005079657
-0.0012654578
4.9387343E-4
6.5151235E-4
-0.0011697316
-0.0032633317
0.0019168089
0.0017869687
-0.0039919857
-0.0012908202
0.001453765
7.3899113E-4
-3.2475387E-4
-0.0049341046
-0.007448065
-0.007035722
-0.0061125592
-0.003303104
-0.002451388
-0.0020377901
-5.0503924E-4
-8.02387E-4
-1.7098602E-4
5.4561836E-4
2.0622756E-4
0.0026243287
0.0055698166
0.005421711
0.003395391
0.0012821438
-0.0012327543
-0.002772009
-0.0010753933
2.3246663E-4
0.0010482031
0.0031768163
0.0017858
-5.6034094E-4
-5.3931354E-4
-0.0018095998
-0.002953287
-0.0036232425
-0.0033977502
-0.0011428415
-0.0015666708
-0.0032808639
-0.0028213116
-0.0012108281
2.3713101E-4
-0.0016832844
-0.0022335795
0.0011575102
5.126967E-4
-7.4999646E-4
0.0023502323
0.0052246596
0.005977855
0.0041706352
0.0024294425
0.002054409
0.002880855
0.0076603247
0.008101163
0.0016331046
-1.3909588E-4
0.0010345251
5.578457E-4
-0.0014387134
-0.0068904767
-0.008169439
-0.0033514574
-6.326328E-4
2.9260584E-4
-5.8855227E-4
-0.004374563
-0.005341373
-0.0027465527
-0.0019625318
-0.0016824951
0.0014394126
0.0033132713
0.002774211
0.0020373687
3.448066E-4
0.0012440833
0.0043642214
0.003593614
0.0012946991
0.001671279
0.0029541322
0.002647282
0.0024313908
0.0031655245
0.0011960042
-0.0014934465
-0.0016417031
-0.0018676871
-0.0025546358
-0.0022246225
-8.678864E-4
-3.0058544E-4
-6.863809E-4
-4.6743976E-4
-8.4813253E-4
-7.8658137E-4
-0.0010565564
-0.0017331549
0.0017400347
0.004644089
0.0044502234
0.004940595
0.003758328
0.0018964314
5.326092E-4
1.380925E-4
0.002204222
0.0017482897
-3.867022E-5
1.8839816E-4
3.3014192E-4
0.0010844583
8.7926484E-4
4.4352302E-4
-7.5671275E-4
-0.006346584
-0.007602691
-0.002364998
-4.099554E-4
-6.6727167E-4
1.5593834E-5
-2.2848092E-4
-6.496689E-4
-6.942919E-4
-0.0017018613
-0.00257623
-1.5011949E-5
0.0036480473
0.0043502296
0.0046861377
0.005331559
0.00366726
0.00231612
0.0028258765
0.0011325859
-0.0018259962
-0.0013449786
5.380427E-5
9.209184E-5
0.0018438399
0.0023345104
-8.457647E-4
-9.785969E-4
0.0015611397
5.811065E-4
-0.0014529474
-0.0013535039
4.902032E-4
0.0010917819
-0.0013514998
-6.9173664E-4
6.8572065E-4
-0.0026875017
-0.0031215374
-0.0016692213
-0.0019970085
8.3975017E-4
0.0035391783
0.0040118494
0.0033637434
0.001690735
0.002176679
0.0012988469
-0.0013770784
-9.1163465E-4
-1.0217188E-5
-6.8533304E-4
-0.001622175
-0.0018723977
-0.0024385774
-0.0036049862
-0.002906227
-0.001890931
-5.549552E-6
0.0024300013
0.0022544218
0.0032867684
0.004051037
0.0024674702
0.00153173
-5.502731E-4
-5.676791E-4
0.0010883891
4.3405892E-4
0.0022315322
0.0043987306
0.004491673
0.0045917924
0.0018833026
-5.959081E-4
2.2461396E-4
6.237277E-4
-5.5823283E-4
-0.0017232107
-0.0025031453
-0.0047799004
-0.0060027186
-0.0027784028
4.762917E-4
4.8305257E-5
-0.0029466131
-0.004877254
-0.0034675184
-0.0011530297
0.0010895083
0.0029456797
0.002633769
1.2172136E-4
-0.0025306495
-0.0010763054
0.0024028472
0.0018658655
0.0011472373
0.002794782
0.0022618957
0.0017955184
0.003819126
0.0038945084
0.0013967088
-2.9511342E-4
1.0488888E-5
0.001966486
0.003325502
0.0010000807
-0.0023863688
-0.0018854861
-2.49639E-4
-6.644874E-4
-0.0016630598
-0.0024864536
-6.540249E-4
7.7147037E-4
-0.0021673061
-0.0011312447
0.0032489984
0.0023298773
-0.0010786777
-0.0033143142
-0.0022691593
-3.8827636E-4
-0.0026485466
-0.0032960922
-4.884905E-4
0.0020818538
0.0047995257
0.004124815
-7.226389E-5
-0.002380615
-0.0013218145
0.0012449851
0.0018826991
-4.4274657E-5
-0.001594567
-8.1671803E-4
0.001308586
0.0029349604
0.0038359754
0.0035835018
0.0024696626
7.5670937E-4
-0.0010434107
-0.0019717566
-0.0044979486
-0.0056465147
-0.002245221
-6.7674345E-4
-4.0114002E-4
0.0010237155
7.209591E-5
-2.53459E-4
8.391085E-4
4.231302E-4
8.937453E-4
0.0012190217
-6.221198E-4
-0.0010329151
1.4038682E-4
5.8282167E-4
0.002340348
0.0039182208
0.0016358339
-3.6122324E-4
7.216332E-4
0.0016189717
0.0015185461
9.211697E-4
-1.3209032E-4
-7.156514E-4
-1.2019258E-4
9.1356447E-4
5.33424E-4
-8.8140665E-4
-0.0016189199
-0.0013468446
-7.736514E-4
-0.0013178688
-0.0024072528
-0.002227554
-0.0020592706
-0.0028221295
-0.001768597
7.527916E-4
0.0012908312
9.494437E-4
9.650213E-4
8.481245E-4
0.001609993
0.001238588
-2.6278375E-4
2.3199066E-4
5.632017E-4
5.302076E-4
0.0017349402
0.0011084124
-1.1624313E-4
0.001223127
0.0031174012
0.0030797403
8.311439E-4
-1.428138E-4
4.6114626E-4
-0.001544509
-0.0019886442
4.9463066E-4
-8.972554E-4
-0.0024250166
-8.5797627E-4
-6.212668E-4
-3.54497E-4
-1.6832103E-4
-8.399591E-4
-4.3721587E-4
-4.8440308E-4
6.0155336E-4
0.0016188377
-9.2963345E-4
-0.0018713219
-5.394141E-4
3.710599E-5
0.0010865177
0.0016543802
0.0023206223
0.0026918636
0.0017124717
0.0019653225
0.0017961126
6.56873E-4
-4.9294124E-4
-0.0029441705
-0.0022004712
3.0521507E-4
-0.0014437697
-0.0012795447
0.0015061103
-5.74955E-4
-0.0031639563
-0.0021218215
-0.0014706077
-0.0012943988
-0.0014040432
-0.0031959293
-0.0030798863
7.4538705E-4
0.0035556182
0.0036365264
0.0039450917
0.0032792029
6.147963E-4
-3.9455082E-4
1.8154054E-4
0.0010260794
0.0013323309
-9.656661E-4
-0.0017561452
5.292762E-4
0.0015783017
0.0028948921
0.0036822965
0.0011684984
-0.0010845737
-0.001511827
-0.0017568801
-0.0028204492
-0.0017886928
0.002366242
0.0014595796
-0.0025626777
-0.0016945385
-0.002065157
-0.0034902904
-3.650229E-4
0.0013716345
9.374697E-4
0.0019155021
0.002888098
0.0035593645
0.0028496836
0.0010598174
4.1367832E-4
-4.0592684E-4
-0.002556774
-0.0035204545
-0.002266779
-0.001986362
-0.0024642963
-0.0037756644
-0.0071415533
-0.0048173647
0.0014279211
0.001383815
2.2546649E-4
6.65129E-4
-2.4200666E-4
9.0636965E-4
0.0017629088
4.95072E-4
6.662232E-5
6.1434094E-4
0.0014433867
5.3343293E-4
5.203657E-4
0.004421457
0.0062728524
0.0047175433
0.0042635864
0.0037516397
0.0024919522
0.0028472035
0.0030784844
0.0022890812
0.0016326321
-4.915032E-4
-0.0012509692
-2.934705E-4
-0.0012604248
5.2984957E-5
7.907099E-4
-0.002461187
-0.003580444
-0.0064449045
-0.008333993
-0.0029680824
-0.0012141163
-0.002517008
-0.001383257
-0.0027245192
-0.0036321147
-0.0028616409
-0.0025401232
-0.0020004439
-0.0022998224
-0.0012854878
-7.606438E-4
-0.0024524068
-0.0022899772
-0.00277406
-0.0033763426
0.0014537983
0.008244954
0.0103738215
0.0073512215
0.0051679
0.0061541824
0.0058120782
0.0033731642
0.0012656632
0.0010600089
0.0012929826
-1.9957192E-4
-7.6689E-5
0.0012062123
4.600327E-4
0.0011019632
0.0014398666
-0.0010812478
-8.9182163E-4
3.8665714E-4
-0.0012008332
-0.0018408077
-0.002160959
-0.0036684957
-0.0032357804
-0.0018686395
-0.0011385396
-0.0010185268
-0.0020654455
-0.002669539
-0.002134912
-4.0465654E-4
8.1998203E-4
-5.6195544E-4
-0.0010763331
-0.0013131185
-0.0015891641
0.0021338088
0.0027984811
-8.8707247E-4
-0.0012333374
-0.0016769102
-0.0015288085
7.87519E-4
1.461821E-4
-4.7799642E-4
-5.1536754E-4
-0.0012908772
-7.460222E-4
-3.1084844E-4
0.0022343998
0.0042725787
0.0017172605
0.0011846744
0.0029211463
0.0032035552
0.0020921167
-1.9410849E-5
5.87498E-4
0.0016895813
3.291161E-4
1.6935885E-5
-4.0509607E-4
-5.677314E-4
8.081299E-4
-2.8994093E-5
-0.0012076299
-4.5324123E-4
2.9446022E-4
8.3127234E-4
-1.4471349E-4
-0.0010154531
1.5998562E-4
-3.9795844E-4
-0.001243461
-5.6285696E-4
-0.0016100574
-0.002787162
-0.003906694
-0.004354572
-0.0013483765
1.2820528E-4
1.23732925E-5
0.0013060778
0.0015588246
0.0030637854
0.0036060114
0.0014474777
0.0025711544
0.0027949535
1.272013E-4
-5.823722E-4
-0.0017677406
-0.0021547524
-5.9179415E-4
-1.5544453E-4
7.6805457E-4
9.544468E-4
-7.448889E-4
-0.0014456474
-0.0014353031
-0.0012172586
-6.987284E-4
-7.012182E-4
-0.0015710739
-0.002495968
-0.0022272482
-0.0020458626
-0.002164653
-0.0013680729
-2.198498E-4
0.0011554343
0.0020982109
0.0013076137
-0.0014066069
-0.0021684046
0.002019646
0.005086527
0.00508803
0.0046519227
0.002159018
8.0935203E-4
7.616351E-4
5.470463E-4
0.003482724
0.0037975325
5.2743984E-5
-0.0012291365
-9.937123E-4
-6.7141233E-4
-0.001446376
-0.0012584755
0.0010608718
-5.417771E-4
-0.0029212069
-0.0025230828
-0.0016315097
2.7018294E-4
-5.9795775E-4
-0.0028238716
-0.0027736435
-0.0030465184
-0.0025585245
-0.0021611706
-0.0019127587
-2.6209606E-4
7.6799205E-4
0.0018997994
0.00154299
6.9399975E-4
9.949325E-4
-0.0010030807
-8.92517E-4
4.794615E-4
-0.0012061024
-6.295301E-4
7.0779136E-4
0.0013687639