0.0012671488
-7.3200406E-4
0.0031954292
0.0044913087
0.0017321527
0.001635437
0.0015727521
7.458368E-4
-3.01621E-4
-2.0284102E-4
0.0024519833
0.0024890925
0.002325227
0.0030680036
-4.379449E-4
-0.0019768982
-0.0013174408
-0.0034144903
-0.0025401164
-9.53149E-5
-4.897502E-4
-3.6869574E-4
5.804673E-4
6.746979E-4
6.436661E-4
0.002510544
0.0039895345
0.0015288665
-2.7937314E-4
-0.0012160991
-0.0036741362
-0.0022774877
-2.6992348E-4
-0.0017482048
-9.3217543E-4
-4.7060923E-5
-0.0029230034
-0.0048310645
-0.0020664793
0.0018349733
0.0018354332
0.0021745698
0.001928245
-0.0036209044
-0.002785606
0.0043632477
0.004164188
3.9250698E-4
-0.0015141239
-0.0016077787
-4.7880085E-4
-2.6174792E-4
0.0027006133
0.0041111293
3.6074885E-4
0.0010469764
0.003318718
0.0014707377
3.6176352E-4
-7.0415984E-4
-0.0021479873
-0.002020441
-0.0013065953
-8.6647394E-4
-0.0025855778
-0.0038701408
-0.0013705814
4.0381425E-4
-5.715189E-4
-0.0010811375
-2.5642396E-6
7.971972E-4
-8.864413E-4
-0.0012734202
0.0018953399
0.0015795788
-0.0012228426
7.7358144E-4
0.0034784172
0.0028919904
0.0019168154
0.0011754571
-1.1635946E-4
-0.0010643266
-7.8553116E-5
7.86723E-4
2.3334754E-4
0.0012157507
0.0015735874
6.8452023E-4
0.0012122385
-5.243395E-4
-0.003244109
-0.0020432412
-2.7712253E-5
2.4039224E-4
9.805887E-4
0.001873598
-9.0389047E-4
-0.0042321924
-0.0034043908
-0.0030295374
-0.0027740644
-6.746684E-4
-7.665046E-4
-2.1734678E-4
0.0016841913
0.0014186929
1.3930441E-4
-0.0011120805
6.76681E-4
0.002461732
3.131132E-4
8.712538E-4
0.0016667257
1.4657488E-4
0.0010914521
-6.037833E-4
-0.0026860456
-3.8178792E-4
2.1144576E-4
0.0017335097
0.004494254
0.0023018427
-5.3780386E-4
-5.9033703E-4
6.480778E-4
0.0012954897
9.583223E-5
2.2533182E-4
6.222645E-4
-3.349876E-4
2.3361859E-4
-6.221707E-4
-0.0025599995
-0.0013985037
-6.528875E-4
-3.41077E-4
8.6700777E-4
-7.904433E-5
-1.4471188E-4
0.0011112757
4.1957197E-4
6.575533E-4
0.0011260497
-2.793144E-4
-0.0015114731
-0.0026591038
-0.0022635516
-9.2531723E-4
-0.0015312135
-2.4578403E-4
0.0024532834
9.2113507E-4
-0.0022316386
-0.002379543
-5.8719056E-4
2.456839E-4
3.2356588E-4
6.261626E-4
4.1180322E-4
2.8778272E-4
-4.3463246E-5
-6.1688945E-4
-5.0819834E-4
-0.00125416
-0.0010110203
0.0014972629
0.002508407
0.0020023736
0.0023030743
0.0033008095
0.002461087
-3.0629264E-4
-9.3687006E-4
-7.260272E-4
-0.0017788348
-6.1407767E-4
0.0025776415
0.00334495
0.0015157989
0.0010728259
6.803267E-4
-7.081194E-4
0.0010391087
0.0011629497
-0.0026893832
-0.0031661806
-0.0020377932
-0.0023335805
-0.002147677
-0.0023483902
-0.0018711659
-7.8751484E-4
-5.5241043E-4
-4.037412E-4
-0.0010787724
-0.0013389713
8.686972E-4
0.002231482
4.0280775E-4
-5.4105045E-4
8.495682E-4
6.32425E-4
-5.726231E-4
1.0269258E-4
0.0011819046
8.371732E-4
2.685985E-4
0.0010633868
8.957613E-4
-6.2655186E-4
-6.6053367E-4
-0.0012903989
-0.0022586547
-3.797374E-4
0.0012223528
8.9841435E-4
7.523601E-5
-0.0014883401
-0.0018264515
-7.085747E-4
-0.0010181711
-0.0010883524
0.0013871666
0.004567495
0.006141784
0.004137816
0.0015870017
0.0020988404
0.002170053
0.0015970581
0.0010992405
-3.7448798E-4
-4.3710513E-4
-7.452458E-4
1.554896E-4
0.002496655
-9.728807E-5
-0.0030403843
-0.003874068
-0.0046809404
-0.0041302396
-0.005719691
-0.0042381943
2.0434524E-4
4.5906636E-4
0.001298358
-0.0021922903
-0.007320018
-0.0041105677
-0.0019343589
-3.5089275E-4
4.9284827E-5
-0.0030535532
0.0022668054
0.0064780773
0.0037752728
0.005165624
0.0053047636
0.003251181
0.0022923364
7.0653093E-4
3.16613E-4
-5.015501E-4
1.57701E-4
0.0031436898
0.0043911235
0.002788422
-4.836796E-4
8.7562134E-4
0.0033400056
-5.0898514E-5
-0.00198561
-0.0013987194
-0.0016783569
-0.0014896964
-0.0010656986
3.1400032E-4
-3.6939062E-4
-0.0030763848
-0.0040745917
-0.004191738
-0.0023077815
-6.9110334E-4
-0.0015616522
-0.0017021998
-0.0018583965
-0.0021545447
-0.0014985135
-5.7953283E-5
0.0011516383
2.7300668E-4
8.817192E-5
3.189631E-4
-7.587612E-4
-2.3497982E-4
7.343838E-4
0.0020399522
0.0033798704
0.0020530517
6.5138185E-4
1.1526649E-4
0.0011078644
0.0038410376
0.0038709752
0.0015914988
-1.1449468E-5
5.4197427E-4
0.0013951088
-9.556761E-5
6.7336217E-4
0.0021463346
-1.6064706E-4
-0.002228352
-0.004863374
-0.005845566
-0.0011558553
0.0019229505
0.0019860086
0.0019109795
4.6404786E-4
-0.0011346143
-0.003192169
-0.0031292562
2.1464123E-4
0.0010654365
4.362083E-4
1.3559243E-4
-6.81122E-4
7.299468E-5
4.0774612E-4
4.8826906E-4
7.0693163E-4
-8.314044E-4
9.823211E-4
0.002542399
-0.001942211
-0.002504088
0.0012573808
1.8251284E-4
-0.002294098
-0.0015398747
7.028145E-5
9.807685E-4
0.0018848778
0.0012713078
-0.0015827584
-0.0014425264
0.001808662
0.0023685736
0.0011330075
-2.3073316E-4
-0.0015182863
-3.3753505E-4
9.623025E-4
7.19757E-4
0.0011827043
0.0010271921
3.765806E-4
-5.4531865E-5
-0.0021689632
-0.002749922
-1.3534774E-4
0.0010184695
3.4410492E-4
5.8195915E-4
0.0016442462
0.0013532761
-0.0010029309
-0.001877478
-6.770119E-4
-7.792993E-4
-0.0012703078
-0.0010233341
-0.0012511786
-1.5052902E-5
0.0023892222
0.0016796258
7.444487E-4
0.0030649686
0.0027433368
6.0287173E-5
-3.205629E-4
-0.001990452
-0.004065029
-0.0039993655
-0.004133266
-0.0024916267
3.3012527E-4
0.0023381072
0.0050863475
0.005411239
0.0025962167
6.7713653E-4
-0.0011537508
-0.0036940274
-0.0035268432
-3.5904135E-4
0.0016506684
0.0014686042
5.862494E-4
0.0016876137
0.005052193
0.0032320924
-0.0019660485
-0.0014778986
-3.765406E-4
-0.0023210954
-0.0019612943
-0.0014549202
-0.002790764
-0.0012038184
9.936865E-4
-0.0012108157
-0.0025888165
-0.0022470027
-0.0037403253
-0.0017807441
7.495226E-4
-0.0015248602
-0.0021466948
-5.473628E-4
3.7682455E-4
0.0014053636
0.0016049215
0.0023828177
0.0047899294
0.0052640373
0.0028949094
0.0033339155
0.0053188945
0.0035534315
0.0031855365
0.0031228866
2.9999863E-5
-0.0010969314
-0.0024606194
-0.0029076582
-7.546833E-4
-4.958781E-4
0.0012920565
0.0021906341
-9.372812E-4
-0.0027609584
-0.0046678176
-0.0063261623
-0.005869935
-0.0051379297
-0.0033808085
-5.765104E-4
0.0015961847
-0.0010342159
-0.0050711785
-0.00312778
-6.3328433E-4
8.5598556E-4
0.0038773
0.0032090824
0.0012592411
0.002241977
0.001256583
-0.0013492291
-1.9513265E-5
0.0022497806
0.0026425507
0.0044419803
0.0045648804
0.0018377422
0.0017053026
0.0036494834
0.0035026986
-2.9774307E-4
-0.003568324
-0.0038624846
-0.0040092124
-0.0026299434
-2.578826E-4
9.4419497E-4
0.0010215869
6.190519E-4
0.0033576323
0.005286225
0.0036569047
0.0021877578
-0.0018591754
-0.004244263
-0.0022506372
-0.0021286253
-0.0011143117
-3.4353923E-4
-0.0023094479
-0.0014690289
2.7392918E-4
1.3109416E-4
-7.842875E-4
-0.0028234413
-0.0034000264
-0.0024596306
-0.003092643
-0.002767562
-5.8983394E-4
1.6307247E-4
0.0023359084
0.0039928495
-0.0013884011
-0.005501653
-0.0027595495
-1.7617144E-4
8.9847005E-4
0.0011300272
8.4772403E-4
0.0022883883
0.0042679207
0.0046165604
0.0024949948
0.0013415631
0.0039307224
0.00674188
0.008803879
0.0091312565
0.0033468497
-0.0047827796
-0.0075778416
-0.006253946
-0.003877203
1.0775818E-4
0.0016915199
-9.135704E-4
-0.0023026376
-0.002350618
-0.0031906732
-0.0036990808
-0.0031365165
-9.615395E-4
-3.6428345E-4
-0.0020480426
-0.001882376
-0.0023720565
-0.003458123
-3.2262594E-4
0.0027157513
0.0026905208
0.0018985678
-2.3143167E-4
-2.3571705E-4
0.0017625624
7.9711806E-4
0.0012911917
0.0033511743
0.0026162814
0.0033161137
0.0046015517
0.0037910477
0.0030683123
0.0014749392
-0.0020215875
-0.006843812
-0.0076680747
-0.0038967005
-0.0028519654
-6.7920884E-4
0.0023107838
5.351277E-4
4.2761996E-4
6.692702E-4
-2.869128E-4
0.001333442
7.0840784E-4
5.4356838E-6
0.0011981386
6.253382E-4
2.9848007E-4
-0.0012344572
-0.0032208106
-0.0022083302
-8.290695E-4
-1.4282079E-4
1.5152458E-4
4.4819544E-4
0.0015044102
0.0031153297
0.0042806515
0.0031265412
0.0011015385
-0.0010259732
-0.0021862008
1.0427745E-5
0.0016758819
0.0026741207
0.0041797133
0.0027857174
0.0014572033
-3.3969418E-4
-0.0040460946
-0.004194595
-0.0026944543
-0.0011788299
9.2414627E-4
-3.3636641E-4
-0.0013074599
-3.009799E-4
-0.003335971
-0.0070884936
-0.0068108053
-0.0053318073
-0.003522764
-0.0014750081
3.9302456E-4
0.002716395
0.0038667407
0.0036875335
0.0032718803
0.0030448453
0.0027779108
9.145304E-4
0.0016905346
0.0063751745
0.007598217
0.005784956
0.0030636783
-0.0013757212
-0.004405309
-0.0063090357
-0.0052182944
0.0015580751
0.006811503
0.005833225
0.0022465223
-0.0024928136
-0.0090617705
-0.01093334
-0.005333282
-0.0021645066
-0.0031507353
-0.0033314233
-0.0020328818
0.0016633829
0.0030469291
0.0023235553
0.004868731
0.006626683
0.007890997
0.008712656
0.00337459
-0.002680538
-0.0037345919
-0.0028958125
-0.0020236103
-0.0010567001
-6.3107617E-4
-7.520528E-4
1.00501355E-4
-5.5990808E-5
-0.0032623375
-0.004316121
-0.0016259211
-0.0019741
-0.0060488163
-0.005498654
-2.3368179E-4
0.0013652507
-1.7335437E-7
4.441048E-4
0.00201405
0.002653317
0.0017381218
0.0012597305
9.900744E-4
4.3999078E-4
0.0014892059
0.0023938192
0.004503206
0.0077143903
0.0064797183
0.004395801
0.0027673226
-0.0030657742
-0.007127445
-0.0048208334
-0.0019605898
-0.002493717
-0.0032737239
-0.0017728179
-6.383244E-4
-2.6023714E-4
-3.579196E-5
-4.7771062E-4
1.7174467E-4
5.771635E-4
6.991393E-4
0.0028499227
0.0033964752
0.0013457576
0.0011162211
0.0014959031
-0.0018031701
-0.0045792228
-0.0029168723
-0.0028764654
-0.0039846525
-0.0020472545
-3.81924E-4
9.772289E-4
0.00238048
0.0034997032
0.0027224275
-0.003114285
-0.005196945
-0.0011412636
0.0010025579
0.0031597374
0.0036911147
7.89063E-4
-0.0015201992
-0.0044736257
-0.0055304933
-0.0024689068
0.0020360448
0.0059529627
0.0066735945
0.0053147245
0.003419305
0.0032088216
0.0037102243
3.0411035E-4
-0.0018396899
-0.0033373816
-0.0055927276
-0.0014732784
0.0013009807
0.0012261075
0.0043355017
0.0032681664
5.410768E-4
-0.0012921259
-0.004954754
-0.0036703607
-2.6860385E-4
-9.4271346E-4
-0.0034011982
-0.0041164965
-0.0010529032
4.0555015E-4
-0.0016443721
-0.0028052244
-0.0031197604
-0.0034772048
-0.004019405
-0.0032134864
-0.001653944
-6.778889E-4
0.0023437056
0.0041745934
0.0030612403
0.0038594387
0.0068516424
0.008444447
0.0047985064
-4.3179322E-4
-3.1945048E-4
0.002106395
0.0012705293
-0.0024146328
-0.0024851952
0.003193524
0.007093573
0.0049941004
-6.396458E-4
-0.003452105
-0.0013316114
-2.9926965E-4
-0.0023218843
-0.005424409
-0.005744879
-0.001985936
6.224861E-4
3.5772426E-4
-0.0029815645
-0.0045482507
-3.605985E-4
-9.449018E-4
-0.0055400687
-0.004754345
-0.0031775038
-0.0018623351
1.7632522E-4
-0.0010316253
-0.002545045
-2.153466E-4
0.005170068
0.008581566
0.0062935734
0.002974385
0.0014071898
-3.9885312E-4
6.3678535E-4
0.0039824066
0.002601093
-2.6984618E-4
8.859414E-6
-0.00228782
-0.0062111374
-0.005868701
-0.0020922348
0.0015906658
0.0027308096
0.0053802948
0.0074526225
9.334733E-4
-0.0042382223
-0.0032377688
-0.0047338246
-0.0038697093
0.0010932978
0.0061794263
0.011536904
0.010870094
0.006784893
0.0046797106
-5.0953944E-4
-0.0047047264
-0.0028950556
-0.0036200036
-0.014324756
-0.024475716
-0.020683894
-0.011865787
-0.0068456787
-0.0023663586
0.0025928272
0.0102203665
0.015187551
0.014265018
0.013995248
0.009832008
0.0028897647
0.0020199649
-6.004702E-4
-0.013145633
-0.024645593
-0.020526107
-0.011800935
-0.015008643
-0.017359281
-0.005896554
0.008339813
0.012476797
0.012161589
0.013420236
0.009375101
0.0043263184
0.002430381
0.0039392766
0.016403953
0.027072273
0.031749472
0.047779012
0.057827085
0.0383925
0.008272555
-0.008303602
-0.013668362
-0.012799253
-7.783907E-4
0.012101956
0.009152799
-0.008783262
-0.02983821
-0.045326643
-0.06368259
-0.086671785
-0.097120404
-0.09501731
-0.08172711
-0.05042019
-0.020424867
-0.0067233383
0.008278587
0.03787665
0.069024116
0.08450127
0.09063724
0.095536545
0.088045225
0.07154429
0.06126902
0.057294026
0.0539107
0.039909802
0.009108141
-0.021830816
-0.03790222
-0.04948997
-0.07187539
-0.09260237
-0.09128327
-0.07306063
-0.048010387
-0.016150886
0.018739555
0.046634044
0.05911997
0.059889145
0.061937116
0.05494234
0.015442797
-0.03434666
-0.06599007
-0.07031676
-0.03220655
-0.0031186396
-0.01533206
-0.016277548
-0.015951546
-0.0065771574
0.036019787
0.049279377
0.047777977
0.048527315
-0.0034569106
-0.07120791
-0.1056258
-0.109322935
-0.09611599
-0.073424354
-0.021711078
0.036179632
0.06636171
0.06932425
0.073203154
0.10773181
0.123094484
0.11545701
0.14721942
0.20795749
0.24828254
0.18171962
0.0077560176
-0.1484161
-0.2354892
-0.27256328
-0.30291995
-0.30835515
-0.22830498
-0.11086789
0.013280899
0.11670302
0.17842005
0.24130352
0.23218903
0.17252849
0.13456401
-0.0025294146
-0.16852847
-0.22131084
-0.21348625
-0.1429643
-0.044796284
0.020756619
0.08357288
0.12676212
0.13906667
0.11874025
0.06885649
0.02162005
-0.05309153
-0.1394376
-0.16110447
-0.13259205
-0.093543984
-0.027771393
0.056708097
0.075213864
-8.037555E-4
-0.10535552
-0.20582762
-0.24674225
-0.16265891
-0.027564747
0.07604171
0.17153962
0.26225844
0.3179969
0.31144118
0.22907871
0.13861015
0.06165539
-0.036403272
-0.09129556
-0.14557467
-0.2580811
-0.26995775
-0.16278741
-0.042265475
0.08830277
0.17295106
0.21126695
0.2763598
0.34446028
0.34158212
0.20755394
-0.0028749139
-0.19224925
-0.34119087
-0.41134486
-0.38538638
-0.3037522
-0.20368558
-0.10538233
-0.012088448
0.061452586
0.13732763
0.17923748
0.076793075
-0.051354807
-0.061248273
-0.084594324
-0.15777093
-0.16009918
-0.116185166
-0.041684102
0.102091864
0.19130737
0.13256066
0.04843161
0.05940374
0.106521875
0.09421803
0.111440614
0.18834299
0.15137282
0.044632163
0.029595105
0.060228948
0.06865994
0.008480137
-0.09043113
-0.11244325
-0.08534106
-0.04333641
0.0020910886
-0.038998812
-0.0931073
-0.05875252
-0.021050567
-0.0069926293
0.011879774
0.00393728
0.008200423
0.07398303
0.13559416
0.13253759
0.09711623
0.06421344
0.02279987
-0.031969823
-0.101963036
-0.1775137
-0.19884904
-0.14037594
-0.040141903
0.038917966
0.025172431
-0.03368504
-0.038978778
-0.025537899
-0.028653888
-0.02732276
-0.043049715
-0.06820251
-0.055075124
-0.014984329
0.008388183
0.018098138
0.030632634
0.0439716
0.061839793
0.06733748
0.06243282
0.08306482
0.10443772
0.08959812
0.061607964
0.055354
0.06858996
0.05858244
0.018693816
-0.013932649
-0.032817505
-0.04372413
-0.044466767
-0.03942476
-0.029020978
-0.013228109
-0.0055466383
-0.010333375
-0.00756938
-3.014033E-5
-0.008665838
-0.020115722
-0.014975175
-0.003257339
-0.002071224
-0.005172294
-5.852522E-4
0.003203713
8.8720175E-4
-0.00872534
-0.023955343
-0.03145518
-0.034354072
-0.037074625
-0.031744294
-0.023630144
-0.01709234
-0.007003585
0.0055624186
0.012513559
0.01078453
0.0035647382
-0.005022293
-0.00284683
0.008219949
0.012824742
0.01843784
0.025596278
0.022615088
0.017605223
0.014771229
0.010013198
0.0032395169
-0.0027366546
-0.0032600926
-0.004775051
-0.0064095156
-0.0015422913
-0.0017244478
-0.005769552
-0.004732285
-0.00494943
-0.0066161673
-0.010598423
-0.01811142
-0.021993702
-0.018868068
-0.0064319065
0.0060052867
0.010645875
0.014875825
0.01229886
0.0038537066
7.8290247E-4
-0.006701175
-0.01644243
-0.015147661
-0.009747876
-0.00348111
0.008780777
0.017594555
0.016165411
0.0146379545
0.011097624
0.0023266752
0.0048562
0.01078827
-1.10802175E-4
-0.01239126
-0.009115208
0.0027809173
0.013468497
0.023552071
0.032406416
0.027998485
0.016740775
0.011708046
0.002096804
-0.009707455
-0.012806431
-0.014887454
-0.018251752
-0.019478122
-0.014383552
-0.0017474486
0.007223924
0.007816774
-5.6111085E-4
-0.0132504245
-0.014450882
-0.010953907
-0.017975066
-0.028295184
-0.034449473
-0.03714134
-0.03741494
-0.03654611
-0.034066282
-0.025174238
-0.009304257
0.0034874105
0.01134534
0.019122412
0.02973446
0.044809084
0.05539606
0.062181327
0.06670661
0.056323774
0.040363643
0.03155206
0.028310059
0.03172771
0.036939092
0.040389273
0.040754702
0.045135625
0.055640277
0.055961985
0.05314357
0.037389975
-0.014436695
-0.066526175
-0.0945165
-0.11035776
-0.1242045
-0.14432624
-0.14978375
-0.13855143
-0.13630578
-0.13279897
-0.119526155
-0.10405771
-0.08127257
-0.048109543
-0.009942147
0.024520645
0.051361393
0.07200275
0.08556449
0.09367939
0.10392573
0.11907188
0.13752337
0.15936242
0.17633352
0.18274342
0.16905199
0.12458375
0.07931792
0.059281487
0.057067823
0.059930667
0.05322966
0.04653083
0.036196496
0.0038947973
-0.049801476
-0.14510997
-0.24219272
-0.27205917
-0.25451052
-0.20239606
-0.13673374
-0.10406154
-0.089929774
-0.080317244
-0.06423221
-0.029443994
-0.0022664329
0.010557132
0.020570504
0.028734462
0.024285013
0.011697126
0.027375199
0.058821492
0.07369562
0.085411474
0.09528599
0.09719841
0.09701192
0.09229184
0.08152262
0.066441804
0.05124607
0.037901234
0.026621087
0.017712057
0.0077608
-0.0029452133
-0.012894138
-0.019528326
-0.023011858
-0.025702478
-0.024829576
-0.026141807
-0.029092401
-0.024691489
-0.020165559
-0.018451978
-0.015433653
-0.01298579
-0.011220719
-0.013779546
-0.021338372
-0.02545493
-0.023194157
-0.020435944
-0.018943423
-0.016811587
-0.01784525
-0.01965668
-0.016372684
-0.010210048
-0.0024843742
0.0040299585
0.008502424
0.012864033
0.015795592
0.02064839
0.024405085
0.021663439
0.018163696
0.014595765
0.009603628
0.0064784316
0.0066226986
0.008317568
0.008448409
0.008371291
0.0068771373
0.004302494
0.0057127927
0.005954431
0.004385537
0.004611824
0.0023896764
7.573509E-4
2.695044E-4
-0.002803843
-0.003936981
-0.0026967775
-0.0012014399
1.577549E-4
4.971545E-4
6.8933144E-4
3.5420322E-4
5.6172337E-4
0.0011470219
0.0013915122
0.0030109778
0.0024437213
2.5472287E-4
-2.651835E-4
-0.0018369404
-0.0015281547
-2.121909E-4
-0.0036311937
-0.006441183
-0.005528489
-0.004058706
-0.002405857
-0.0023240277
-0.0027728858
-3.5629544E-4
8.9211995E-4
-0.0019597788
-0.0030399016
-2.3791962E-4
6.659816E-4
-0.0021956125
-0.004451712
-0.0045967996
-0.0053351866
-0.006171411
-0.005483508
-0.0049268883
-0.004669213
-0.0042308928
-0.0039121336
-0.002504137
-7.9233415E-4
3.2844953E-4
0.0023479236
0.004326242
0.0037079882
1.4738504E-4
-0.0032214706
-0.0028881468
-6.1358226E-4
2.3375728E-4
5.699632E-4
0.002197324
0.0043260567
0.0061152377
0.0072458657
0.0073840353
0.008459723
0.010448298
0.0080288835
6.7153753E-4
-0.004099038
-0.00345202
-0.0025398284
-0.003525425
-0.0041530128
-0.0035846457
-0.0017835331
-4.067284E-4
-0.0016126893
-0.0022078056
5.4250174E-4
0.0019446444
-1.9768311E-4
-0.0022389917
-0.0043946877
-0.00642156
-0.005882496
-0.004998723
-0.004078608
-0.002485255
-0.0011094963
0.0017618388
0.0034021097
0.0026195392
0.0026284466
0.0014801855
1.7092568E-4
6.1155186E-4
4.8687708E-4
0.0013417914
0.0028833519
0.002173947
0.0016124762
0.0030000368
0.0026224162
6.237319E-4
9.7484037E-4
2.634482E-4
-0.0025807014
-0.0034140435
-0.0042426805
-0.003907905
-7.0990477E-4
3.62018E-4
-0.001130054
-0.0022952647
-0.0014416293
-2.828548E-4
1.951193E-4
0.0041797827
0.0062956247
0.0020877847
3.265918E-4
1.7507469E-4
-0.003348791
-0.004546268
-0.0019138101
0.001216156
0.0052301255
0.008030919
0.0066992524
0.0052989856
0.0056703766
0.0033872356
-6.7265204E-4
-0.0022370908
-0.0019434039
-5.813806E-4
0.002403556
-6.606145E-4
-0.011702233
-0.014084528
-0.0073472657
-0.0037058212
5.126454E-4
-1.8374372E-4
-0.00764347
-0.006808036
-0.0010349215
0.0028947506
0.004530771
0.0011760836
-2.0642292E-4
5.04729E-4
5.215713E-5
0.0014457565
0.00129785
5.2229303E-4
3.1279307E-4
-5.1290863E-5
0.00308884
0.0072184885
0.011319009
0.0116064055
0.005340902
0.0042155357
0.0052080806
-0.0016857
-0.007841884
-0.007326846
-0.0040892246
-0.0028140605
-0.0029957327
-0.0024169863
-0.0028664847
-0.0012273736
0.0022056454
0.0021565605
6.668238E-4
-2.2921576E-4
2.0212927E-4
9.17283E-4
4.1874353E-4
0.0012390681
0.0013091837
-6.4430037E-4
-0.0030023383
-0.0046693077
-0.0023356774
-4.7794165E-4
-5.698178E-4
0.0025488157
0.0036163887
0.0019382153
8.52052E-4
-0.0026054455
-0.003951672
-0.0020027782
-0.0030310994
-0.004209574
-0.0015952074
0.0015504699
0.002096219
8.1269257E-4
2.232172E-4
0.0011546669
0.0014510968
4.8682504E-4
0.0016626352
0.0033357202
0.0010916252
-4.026031E-4
0.002252248
0.0031043382
0.0014162202
0.0017689045
0.0018999194
0.0016901448
0.003187903
0.0016556844
-4.5945594E-4
-5.0548733E-5
-0.0015526374
-0.0018136486
-9.464619E-4
-0.0021330577
-0.0024602246
-0.0033916682
-0.0027872
3.228714E-4
0.0010665252
0.0015303493
0.0018594522
0.0026695426
0.004499511
0.0018788575
-0.0013717955
-0.0022082566
-0.0031230622
-0.0016848582
-1.7057313E-4
-6.585045E-4
-9.056795E-4
-5.4840645E-4
4.141551E-4
-1.5592105E-4
-0.0014923535
-3.458018E-4
6.350825E-4
-0.0011493957
-0.0019098877
1.3440396E-4
-3.577854E-4
-0.0024865612
-0.0017230441
-0.0010998978
-4.957215E-4
3.3158954E-4
-7.1875803E-4
-3.5082185E-4
5.5671256E-4
-5.7147816E-4
-4.1390443E-4
0.0021418238
0.0026829357
1.604811E-5
-7.991606E-4
3.8173728E-4
0.0030118187
0.007560806
0.008194935
0.006690171
0.005440171
9.991613E-4
-0.0017415319
-0.0022393242
-0.0033537347
-0.003188962
-0.0029025371
-8.121365E-4
0.0017043133
0.0010788448
7.438148E-4
0.0015982692
0.0030047563
0.0023635041
-0.0013581327
-0.0028309352
-0.0036798608
-0.0047851535
-0.0036675136
-0.003580442
-0.0032032705
-0.0017263138
-9.814688E-4
1.9419877E-4
-7.453889E-4
-0.0027369093
-0.0027523802
-0.0026930096
-0.0016420238
-5.720959E-4
-2.0650824E-4
0.0017862746
0.0017909821
-6.740958E-4
-0.0018586884
-0.0012636335
0.0015679642
0.002876844
0.002463671
0.0046334583
0.0046127248
0.0018970309
0.0011820873
0.0018554528
0.0043029403
0.00507843
0.0045400374
0.00673288
0.005294767
0.0023878266
0.0023353195
-0.0023889157
-0.007597693
-0.0068355184
-0.0043873442
-0.0017058338
1.4094781E-4
9.61435E-5
-5.8085256E-4
-7.473968E-4
-4.234405E-4
-8.901628E-4
-2.1836588E-4
-5.586257E-4
-0.0033501256
-0.0019820142
-0.0014143747
-0.0043701422
-0.0011058998
0.0015506948
-0.0017269471
-0.0023062686
-0.003500759
-0.005965684
-0.0033954254
2.3096889E-4
0.0021980016
0.0030223536
0.0041261297
0.0054420438
-2.0026873E-4
-0.006427068
-0.0028608937
0.0013400874
0.0026513864
0.00430663
0.002705853
0.0017312429
0.0037668583
0.0047653243
0.0056423247
0.005652796
0.0038043654
0.0042112223
0.007217489
0.0056542675
-9.026838E-4
-0.0031058781
-0.0032860853
-0.0067028604
-0.006999665
-0.00536386
-0.005218834
-0.0035799523
-0.0025128445
-0.002258671
-0.0021412435
-0.0034914932
-0.002622283
-9.996219E-4
-0.0019991621
-8.6770114E-4
0.0018376405
0.0016275644
0.001802889
0.0028509279
0.0011672893
8.174018E-5
6.867168E-5
-0.0020591612
-0.0021783167
7.552031E-5
0.0016407077
0.0037506176
0.0042695985
0.0035546618
0.004201675
0.0036039583
0.0018844188
-1.2832298E-4
-0.0024004087
-0.003026745
-0.0033584305
-0.0023874142
5.1785994E-4
2.244482E-4
-9.6301973E-4
5.686641E-4
5.273961E-4
6.260762E-4
0.0030865676
0.0025522138
5.389613E-4
7.9796393E-4
5.383401E-4
4.0384382E-4
0.0011293915
-1.462663E-4
-0.0025451793
-0.0035593277
-0.002779922
-0.0031423476
-0.005257706
-0.0040656836
-7.4820535E-4
-7.244425E-5
-3.2310997E-4
8.068679E-4
0.0017939588
6.523697E-4
-1.8797857E-5
8.517886E-4
2.4749676E-4
7.660587E-4
0.0021030346
1.2704017E-4
-8.385505E-4
8.2640105E-4
7.6256134E-4
3.3398464E-4
0.002581353
0.0048337625
0.003402791
4.4353216E-4
-6.990557E-4
-6.70052E-4
-9.789181E-5
0.001893968
0.0037263792
0.0026438555
0.0012131368
5.956907E-4
-0.002274387
-0.0044894675
-0.004433735
-0.0032963743
-5.7894463E-4
-0.0012017023
-0.0027674644
2.1067674E-4
7.8996044E-4
-5.797812E-4
1.7063573E-4
-0.0010219236
-0.0015855536
-1.3093521E-4
3.2159674E-4
7.2599074E-4
-6.357463E-4
-0.002571895
-9.4501034E-4
7.812807E-4
-3.4379217E-4
-0.0012449506
-4.4811008E-4
-2.692792E-4
-7.291564E-4
1.9892986E-4
0.0012427229
0.0021025161
0.0024975562
8.512568E-4
7.4197544E-4
0.0021263305
0.0017445848
0.0023455427
0.0025591787
8.084534E-4
5.785899E-4
4.6416107E-4
4.624451E-4
0.0022454003
0.0041184574
0.0060728085
0.0052722334
-4.454258E-4
-0.0056054858
-0.0064847064
-0.0051562195
-0.003056423
1.0922213E-4
6.0869404E-4
-0.0022434446
-0.0027718053
-0.0032918928
-0.0053623756
-0.004221531
-0.002270438
-8.230267E-4
5.764083E-4
6.834272E-4
0.0017885831
0.0019417467
6.802762E-4
4.3025208E-4
-2.1909838E-5
0.0016079881
0.002811485
8.1617857E-4
0.0014250905
0.0024995946
9.401628E-4
-1.813836E-5
-3.0970713E-4
8.288203E-5
-3.9818167E-4
-0.001926302
-0.0011320027
6.248178E-4
0.001247404
3.9984757E-4
-5.451689E-4
4.0289247E-4
4.593735E-4
-5.0975586E-4
-8.302419E-5
1.9712851E-4
0.0010087218
0.0028506103
0.0035249337
0.0034738632
0.0028828068
0.0021525114
0.0023704425
6.3287583E-4
-0.0023160847
-0.0018556942
-8.612689E-4
-0.0016817073
-0.002137994
-0.0032222443
-0.0032335715
-7.1601995E-4
3.466248E-4
-6.225244E-4
-0.001976932
-0.0029223312
-0.002565281
-0.0023898948
-0.0030940725
-0.0028462019
-7.033714E-4
8.405481E-4
-2.8319372E-4
-0.0013204594
-0.001287897
-9.295771E-4
9.722025E-4
0.001691757
5.9025424E-5
7.409553E-4
0.0029916815
0.0026612438
0.0010614727
4.3092106E-4
0.0020266336
0.0049363403
0.0044285045
0.002070046
0.0020991513
0.0027005104
0.003785039
0.0037562728
1.633672E-5
-0.0021174788
-1.0819061E-4
0.0025993139
0.00365865
9.859707E-4
-0.0040521054
-0.0060071936
-0.0031238599
-9.066751E-4
-0.002559079
-0.003842519
-0.0029723253
-0.0019115739
-0.00120292
-0.0014029535
-0.002964473
-0.003102619
-5.985265E-4
-9.4225776E-4
-0.003429215
-0.002045199
4.8170892E-5
5.359977E-4
9.935197E-4
8.5272896E-4
6.7110255E-4
3.6522382E-4
0.0015677179
0.0033107845
0.0027628152
0.0030044385
0.0019997926
-2.699268E-4
0.0013704797
0.0016585703
-3.1472184E-5
6.310383E-4
-8.7394525E-5
-5.862737E-4
0.0022210698
0.00507864
0.0061945706
0.005501009
0.0034403133
-2.759281E-4
-0.0037782383
-0.003562282
-0.0023382436
-0.0018644157
-0.0014801566
-0.003116662
-0.0035768852
-0.0022800933
-0.0032638516
-0.002754731
-9.2862954E-4
-0.0019911402
-0.001958387
-6.3409534E-4
-7.261939E-4
-7.208256E-4
-0.001927783
-0.0030788837
-9.4524503E-4
0.0011435718
0.0012077906
0.0017128037
0.0025791733
0.0024564152
0.0026977689
0.0042449143
0.005221555
0.004486666
0.0030811885
0.0022364303
0.0012140279
-3.9084427E-4
-5.9212645E-4
-8.0800086E-4
-0.0026146863
-0.002543057
-6.4706843E-4
-2.3608858E-5