0.0019630352
-1.310301E-4
0.0013079297
0.0030349796
-0.0011773432
-0.0021499747
-4.1214237E-4
-0.0048158583
-0.00712643
-2.1465858E-4
0.004148516
0.0017085265
6.022759E-5
-0.0016641404
-0.003136155
-0.0014465039
-4.19013E-4
-8.6561753E-4
-0.0014908669
-0.0021674254
-0.0017118333
-0.0010783134
5.24547E-6
0.0021106927
0.0029371858
0.001368991
-0.001187007
-0.0017413032
-9.646434E-5
0.0016425103
0.003187244
0.0024139166
-0.0010480172
-0.0016233717
0.0020673713
0.0048092124
0.0039181965
0.0016262834
0.0012407317
0.002204362
0.001861159
0.0019143599
0.002737732
0.0010151741
-0.0020428465
-0.003783265
-0.004066858
-0.0040113213
-0.0043185363
-0.0029017348
-7.140844E-4
3.695151E-4
0.00135273
6.728992E-4
-9.3298394E-4
-0.00208086
-0.0024719746
-3.8213344E-4
-1.06427375E-4
-0.0010788708
6.6054356E-4
3.4827006E-4
-0.0014107842
-0.0021462697
-9.215681E-4
0.0031522985
0.002657586
1.4072507E-4
0.0016570095
8.990421E-4
-3.1728853E-4
0.0013924766
0.0020075724
0.0011882777
-3.089402E-4
-6.953272E-4
-1.4603499E-4
-2.547788E-4
4.8627122E-4
7.468616E-4
-5.857267E-4
-0.001358271
1.3484042E-4
0.0018861219
4.191712E-4
-0.0011506416
-4.6964956E-4
3.4866136E-4
0.0016812562
0.0034536263
0.004430402
0.0022631572
-0.0020220457
-0.0033872433
-0.0030654941
-0.0033140478
-0.0034408611
-0.0023329342
7.180438E-4
9.5335033E-4
-0.001369648
-3.973147E-4
0.0016928487
0.001904882
7.73948E-4
-0.0013213626
-0.0024418852
1.1049497E-4
0.0034327048
0.0013714142
-0.0011531194
-0.0013558039
-0.0045999703
-0.0038348108
7.55199E-4
4.5989608E-4
0.0026803112
0.006636056
0.0048619304
0.0032929252
0.0021902425
-9.6876523E-4
-0.0021753241
-0.0013112277
-0.0011684586
-0.0027511271
-0.0026003958
2.5709183E-4
0.0011067236
9.1124745E-4
0.0010288036
-8.223309E-4
-0.0031790654
-0.0038779497
-0.0024376719
-0.0013728259
-0.0016083422
2.6746432E-4
0.002202149
0.00118179
-5.741517E-4
-9.7403344E-4
1.9468607E-4
8.665116E-4
7.855077E-4
8.5401424E-4
1.9142643E-4
2.2503534E-4
0.001362536
0.0020632895
0.0020693925
0.0026975998
0.00463783
0.0047507347
0.0032519966
0.0015819372
-0.0012993724
-0.0027331903
-0.003520112
-0.0033829354
-7.211439E-4
-9.786776E-4
-0.0019931241
-0.00181364
-0.0026100124
2.7136254E-4
0.0022558155
-9.859015E-4
-0.0040018694
-0.00481359
-0.0027961
-0.0018067217
-9.901171E-4
0.0025258819
0.0012840669
-9.588078E-4
6.280658E-4
0.0012241735
0.002153972
0.0018513402
8.929274E-4
0.0015311113
-1.8118368E-5
-7.0333603E-4
3.231981E-4
6.6672295E-4
0.0011096636
0.0010913952
0.0032900905
0.004261514
0.0017218066
0.0012333296
-7.331169E-4
-0.0031792757
-0.0021218301
-0.001782659
-3.7668465E-4
0.001127103
6.6152116E-4
0.0016948647
6.650502E-4
-0.002370234
-0.0019978862
2.0455611E-4
4.1256793E-4
-0.0016935262
-0.002304856
-0.0014170037
-0.0024184438
-0.0026591392
-7.920494E-4
2.4565536E-4
1.6699107E-4
-1.3100152E-4
-5.432238E-4
-4.1212063E-4
0.001290606
0.0029913888
0.0028609028
0.0021781772
6.7437685E-4
-0.0015393207
-0.0014851034
1.3548174E-4
9.78681E-4
0.0014986391
0.0015993502
0.0011664177
0.0011269395
0.0010841913
7.2399096E-4
9.880681E-4
0.0016657448
8.8763406E-4
-0.0012419205
-0.0022116282
-0.0017008969
-9.204515E-4
-3.817367E-4
-6.0382934E-4
-6.6280283E-4
-1.5775932E-4
-5.079012E-4
-8.009159E-4
-1.07763015E-4
-6.221018E-4
-0.0015550366
2.5822042E-4
9.2619983E-4
-0.0023538065
-0.0031298583
-6.9451996E-4
-2.6843329E-5
-4.8113082E-4
-9.060717E-4
-5.732733E-4
2.1454932E-4
-1.6150346E-4
-1.7434022E-4
-7.286625E-4
-0.0015750867
5.0099764E-4
0.0028913778
0.0035202906
0.0031362795
0.0027557807
0.0033122157
0.001364495
-0.0014943569
-4.8435296E-4
0.0014594592
0.0032662794
0.0045753606
0.0023726115
-5.241788E-4
-0.0013694837
-0.0019705477
-0.0029090762
-0.0019639034
0.0012033379
0.0015067138
-0.0013807644
-0.002190013
-0.0021973765
-0.0028797686
-0.00219782
-0.0020155278
-0.003008632
-0.002253945
-5.714503E-4
-7.215212E-4
-5.8995775E-4
2.0538537E-4
-0.0012473316
-0.0015063658
-6.2988413E-4
-0.002046114
-0.0012363996
2.3973829E-4
-2.5394323E-4
0.0024737269
0.0055325413
0.004448158
0.0020097648
9.0652605E-4
3.1463295E-4
-2.862472E-4
0.0012572157
0.0013620008
8.3230654E-5
8.9218956E-4
-8.7992224E-4
6.315491E-4
0.005996204
0.0042205257
0.0025451705
0.0017223267
-0.0025202737
-9.901288E-4
0.0012475988
-0.0013042596
-0.0027454316
-0.0028793707
-0.002643539
-0.003172989
-0.002268305
3.8383965E-4
-6.891526E-4
-0.0017546968
-2.6587964E-4
-4.5464383E-4
-6.802208E-4
0.0011432347
0.00255563
0.0011075992
-0.0011781467
-0.0017204649
-0.0021584323
-0.0028871787
-0.0026975544
-0.001363111
5.351755E-5
-2.5545526E-4
-5.119539E-4
5.0140213E-4
-2.585037E-4
-0.0019504472
-0.001287303
2.8807124E-5
9.0935815E-4
0.0015152084
6.867123E-4
0.0019432927
0.004843554
0.0031583908
-1.3395544E-4
-5.5616524E-4
-4.726759E-5
0.0018456595
0.0053791404
0.0058920253
0.0043029333
0.0064444947
0.00615704
1.8306966E-4
-0.0026066063
-0.0033809077
-0.0024223179
8.3462946E-4
-0.0013087563
-0.0035156712
-0.0035718118
-0.006839048
-0.008224511
-0.0078795785
-0.0060535586
-0.002963175
-0.002901274
-0.0017992784
-0.00146009
-0.0020038693
0.0010118476
0.002605369
0.005074565
0.006842893
0.002762908
5.410439E-4
-5.5997586E-4
-0.0017787047
-3.0784425E-4
-4.611891E-4
-1.691789E-5
0.0025020335
0.005762948
0.009534732
0.009366671
0.0064373794
0.0025196786
-8.0550155E-5
0.0012296442
-8.1015244E-4
-0.0049686125
-0.0057090945
-0.0059840325
-0.0047409385
-0.002926511
-0.0025156192
-0.0015187988
1.5511217E-4
0.0030298515
0.0036969457
4.940349E-4
-0.001946796
-0.0024371955
-0.0014510658
-0.0014882701
-0.0033282721
-0.0028190645
-8.8770146E-4
-2.1553479E-4
-3.180891E-4
-1.4239039E-4
9.055799E-5
-0.0011553415
-0.0017288985
9.472508E-5
0.0022996133
0.0034708045
0.0027051386
0.001296182
0.0014915972
0.0029736597
0.0036949965
0.0023204482
-2.5408694E-6
-0.0017904474
-0.001983402
-0.0018440747
-0.0026698129
-9.359919E-4
0.0025287145
0.0034353107
0.0032557482
0.002905441
0.0022974317
0.0021299787
-1.06655796E-4
-0.0038268727
-0.0041179606
-0.0027395526
-0.003705582
-0.0033840637
-0.0011197318
-1.2880899E-5
0.0014458058
0.0012121195
-0.0011143294
-3.548166E-5
0.0022188632
0.0012297052
-3.9765993E-4
-2.1182914E-4
1.8205399E-4
-5.0548406E-4
-7.069158E-4
-5.0829205E-4
-0.0012462644
-0.0016030828
-0.001280037
-9.169509E-4
1.7719773E-4
0.0011809856
0.0014729128
0.0017867084
9.1584126E-4
4.68372E-4
0.002566269
0.0019248134
-4.4340323E-4
0.0012679484
0.0020190473
6.2659296E-5
-7.9308794E-4
-0.0020978733
-0.003026975
-0.0017215252
-3.7442194E-4
-0.0010270785
-0.0019072657
-0.0012799378
-0.0012003763
-3.359598E-4
0.001025509
5.4545485E-4
0.0013385382
0.0012616625
-5.6382455E-4
-1.4533185E-4
5.8320793E-4
0.0013943905
0.0011492724
-5.896303E-4
6.200939E-4
0.0030744316
0.004526442
0.0044742473
0.0030090301
0.001901207
9.902704E-4
0.0024485663
0.002238578
-0.0022156523
-0.0022728432
-0.0016280256
-0.005259001
-0.005920329
-0.004180394
-0.0052165603
-0.0062422324
-0.002491264
6.111462E-5
-7.4568833E-4
0.0017812683
-5.5378396E-4
-0.006724516
-0.0038423946
5.5844657E-6
9.889794E-4
0.0032523912
0.0033355255
0.0033026617
0.0032468594
0.0020577835
0.001861264
0.0010338143
2.028877E-5
1.4934415E-5
0.001146644
0.0023190894
0.0022395977
0.0027882834
0.0034615726
0.004274294
0.0045058127
0.0022528116
6.3541037E-4
-0.0015931879
-0.004300103
-0.002930735
-7.7267014E-4
-2.5102324E-4
-0.0011745255
-0.002833638
-0.0021564313
-6.045603E-4
0.0011876946
0.0024737183
3.7456197E-5
-0.003763685
-0.0055627325
-0.0043341196
-0.002597661
-0.0022218432
6.3313586E-5
0.0013762314
-2.0942342E-4
-1.5466585E-4
-1.6790515E-4
-8.826547E-4
-8.2381757E-4
-9.7240944E-4
0.0014764235
0.004118212
0.0034451343
0.0032410226
0.001052998
-0.002989207
-0.0017864223
3.9751502E-4
3.888777E-4
0.00313895
0.004397337
5.218599E-4
-0.0021589198
-0.001069613
6.656146E-4
0.0014360268
2.2994926E-4
-0.0029921043
-0.0036301857
-0.001199131
-1.716774E-4
0.0018873502
0.0047309604
0.0038458928
0.0023186365
0.0018969123
0.0012885153
-4.201196E-4
-0.004310646
-0.0051462236
-0.0014577147
3.4232423E-4
-5.3498366E-5
3.0009338E-4
-1.5214008E-4
-0.0021645501
-0.0022078666
-1.1382468E-4
8.376931E-4
9.014631E-4
-3.150985E-4
-0.0024377918
-0.0024066013
-4.6887717E-4
0.0014981801
0.0014631673
-2.453497E-4
-5.616031E-4
0.0010088974
0.0026643823
0.0016680674
-3.4126785E-4
1.7698386E-4
3.7428148E-5
-9.398226E-4
0.0012363177
0.0026978294
-2.0784688E-4
-0.0021934945
-0.0026289902
-0.0049352846
-0.0032211742
0.0014945379
0.0019123171
0.0017482844
0.0018992515
0.0025114883
0.0038857283
7.3520833E-4
-0.0010678028
0.0011660703
9.161024E-4
-1.5898971E-4
-1.2188993E-4
0.0011523693
4.3339972E-4
-0.0024311077
-0.0010276992
0.0010209822
0.0016432642
0.0017828833
-5.4530904E-4
-0.0011118567
-0.0015874717
-0.0029316775
-0.0021688312
-0.0021546807
-0.0010937202
7.840755E-5
-4.9517874E-4
-1.2831092E-4
-7.0583913E-4
-0.0013338656
-0.0014312258
-6.3230837E-4
0.0017368305
0.0014696646
0.0020997603
0.0038458267
0.0021973778
0.0024069294
0.0027843073
6.4813887E-4
0.0011696727
0.0018307733
-6.618585E-4
-0.0027744176
-0.0022034866
-9.768959E-4
-6.501289E-4
-8.5035345E-4
-0.002211002
-0.002882846
-0.0011368084
1.20524855E-4
-0.0010150796
-0.0028922441
-0.0040959925
-0.004237805
-0.0019394209
-4.5712903E-5
-0.0013349676
-8.598214E-4
0.0013764522
0.0021618847
0.0027627042
0.0025326267
0.0026986287
0.0035565258
0.0029137025
0.001962536
5.9079955E-4
1.5491061E-4
0.0027339002
0.0059323916
0.0076445364
0.0067499117
0.004199233
0.0016538305
-9.930815E-4
-0.002728733
-0.003980446
-0.0059008617
-0.007063355
-0.0062818155
-0.004478581
-0.002781809
-9.702073E-4
3.4540318E-4
4.9635535E-4
-1.0214669E-4
-7.875067E-4
-5.866712E-4
-0.0015868411
-0.0041349586
-0.0032562998
0.0012174528
0.0023432253
-0.0026234665
-0.004394113
7.588548E-4
0.0025837668
0.0018494962
0.003310479
0.002102256
0.0010311516
0.0012691012
-8.862262E-4
-0.0010060202
7.2826544E-4
0.0018413254
0.0031905125
0.0024948355
9.781442E-4
6.50228E-5
-4.526151E-4
5.8494613E-4
0.0010011374
0.0011199551
0.0013563869
7.521383E-4
0.0030307248
0.005899039
0.0045258296
0.0013376308
-0.0015577124
-0.003512374
-0.0040581385
-0.0038024348
-0.0038584876
-0.0040896474
-0.0029929536
-0.0022808223
-0.0029403993
-0.003736205
-0.0035019934
-8.988781E-4
0.001098464
0.0021638423
0.0032329764
8.3218684E-4
-0.0013322635
-8.4063865E-4
-1.0873282E-4
0.0031524259
0.0063496013
0.0049936343
6.131173E-4
-0.0021038787
-0.0020015624
-0.0031598269
-0.0027630616
8.2129805E-4
0.003227757
0.0046122647
0.0032214075
-6.450663E-4
-0.0036917944
-0.004234461
-8.995319E-4
-4.556457E-4
-0.0037592433
-0.0036486867
-0.0018315946
-4.28267E-4
-6.881513E-5
6.6860183E-4
0.0023472775
0.0011774525
-1.7147533E-4
-0.0017046684
-0.0015716716
0.0025938423
8.62643E-4
-0.001714515
0.0015934668
0.00193879
0.0016383344
0.0015197278
-7.447438E-5
7.448486E-4
-4.046184E-4
-0.002322283
-8.1856584E-4
8.435133E-4
3.5313342E-4
-0.0021354423
-0.0015008778
0.001746373
0.0025990887
0.004032389
0.006973418
0.0076382775
8.0081285E-4
-0.010104573
-0.0127180945
-0.010004112
-0.008028997
-0.0031379347
7.1919686E-4
0.0011036417
0.0025148063
0.0048213787
0.0063463347
0.006846402
0.0072539886
0.0074375304
0.0055853156
0.0038149203
0.0042135217
0.0026403868
-0.0052301604
-0.014817266
-0.017403549
-0.016370641
-0.020016609
-0.022201208
-0.01717155
-0.012312435
-0.010667882
-0.00807248
-0.001970945
0.008585809
0.019313743
0.02356318
0.0230551
0.023192268
0.021259233
0.018021155
0.020113917
0.020396288
0.015581307
0.013441396
0.008476548
0.002348578
0.0030166002
-6.4921257E-4
-0.0072219805
-0.004664158
-3.7615898E-4
0.0012951605
-3.28976E-4
-0.010086232
-0.018012956
-0.016577257
-0.012181809
-0.012474599
-0.024457144
-0.03511205
-0.030349333
-0.027352996
-0.026416129
-0.014345597
-0.010606151
-0.018836144
-0.017182238
-0.0034986243
0.019264184
0.048873637
0.06707722
0.06034081
0.04717437
0.043841977
0.0387717
0.030753415
0.01428783
-0.021313207
-0.054333627
-0.06765155
-0.059821595
-0.04388635
-0.032789577
-0.0067875157
0.019904822
0.03083658
0.048823126
0.045842804
0.008505385
-0.02349244
-0.033366088
-0.015241561
0.00307083
-0.004409623
-0.014408804
-0.01990067
-0.0073489663
0.0343984
0.062260937
0.055138387
0.037395976
0.025782542
0.023983462
0.021334624
-0.0117186215
-0.07791259
-0.11315213
-0.069963455
0.0056561227
0.044989508
0.023075003
-0.023660066
-0.027617136
-0.010611489
-0.034679275
-0.05856734
-0.04190196
-0.0031183928
0.03512782
0.03532783
0.028821861
0.054747257
0.063405074
0.053451765
0.043782044
0.025485918
0.01606809
0.006824736
7.130462E-4
0.017425748
0.050338715
0.086263455
0.07669004
0.012142227
-0.05837728
-0.11075448
-0.11742241
-0.07889839
-0.043509908
-0.043510873
-0.06772755
-0.06428873
-0.024563877
-0.0055900374
-0.04030039
-0.09248315
-0.08482752
-0.013722698
0.04529671
0.082658716
0.12768449
0.16820319
0.19466113
0.15153746
-0.0089752395
-0.15380517
-0.173758
-0.14376366
-0.10862772
-0.059628494
-0.0043271394
0.06940709
0.16407852
0.2358295
0.2305734
0.19334348
0.17627014
0.1237199
0.0027949195
-0.17636074
-0.31518823
-0.28962228
-0.188916
-0.13056733
-0.08397335
-0.002978932
0.08185339
0.13109377
0.22104777
0.2903495
0.17814264
0.02251034
-0.05845949
-0.13973525
-0.2058097
-0.22620559
-0.1966313
-0.13454404
-0.092342995
-0.067570694
-0.0577087
-0.049129415
-0.0066757156
0.0456585
0.0817158
0.12245532
0.19417846
0.24642211
0.21344872
0.1634706
0.15466745
0.115722954
0.008039989
-0.12905726
-0.23700029
-0.23912568
-0.12778905
-0.0048741074
0.04219333
0.016900364
-0.010667765
0.011651988
0.06272029
0.10078788
0.09720849
0.044721797
-0.050544575
-0.15904722
-0.20588998
-0.18326382
-0.15133816
-0.11114041
-0.03346265
0.07019564
0.15560429
0.21790397
0.24473871
0.19910905
0.14752072
0.12106337
0.07353966
0.016479751
-0.033450276
-0.012868454
0.03890819
-0.042242408
-0.18774581
-0.2602346
-0.2414344
-0.1421886
-0.06301077
-0.04126898
-0.026482275
-0.01262511
0.01514588
0.03692733
0.045666464
0.07602758
0.08309989
0.018223183
-0.07384266
-0.10645645
-0.060035318
0.008531713
0.06285646
0.10471887
0.13653868
0.12147141
0.060705293
0.02121539
0.0041241595
-0.0019206146
-7.0059084E-4
-0.024987167
-0.039006997
-0.025168194
-0.016841646
-0.0086180605
0.0023413827
0.024784481
0.04582003
0.029077142
-0.004836424
-0.029526945
-0.033469707
-0.008728116
0.018642701
0.024706492
0.011688411
-0.0031295728
-0.008133505
-0.012182356
-0.022887291
-0.032432362
-0.033606358
-0.03329408
-0.031588625
-0.028869487
-0.034398753
-0.036238723
-0.026884206
-0.014738376
-0.0013788153
0.010692116
0.021856073
0.029001232
0.03214053
0.03137874
0.0189168
0.011485157
0.014051193
0.012784665
0.013019198
0.008260215
0.0018819219
0.0034251022
-0.002691484
-0.011054013
-0.009989942
-0.0026972305
0.0026479368
-0.002230779
-0.0049763094
-0.0061039533
-0.010224769
-0.010041338
-0.016589
-0.01878204
-0.007191118
-1.0944408E-4
0.008102027
0.013943103
0.008578273
0.0046354476
-0.0018296859
-0.009089185
-0.0076068714
-0.003706049
6.1202707E-4
0.0011569096
-0.0027466947
-5.299701E-4
0.007794842
0.016495628
0.021733303
0.020478252
0.016743919
0.016099133
0.018333819
0.021420047
0.025347253
0.03039489
0.032318335
0.021622952
9.7622024E-4
-0.012492063
-0.015046058
-0.017732458
-0.026693214
-0.034888785
-0.033849385
-0.029273156
-0.0246676
-0.01854946
-0.015176237
-0.014904113
-0.02001915
-0.03220777
-0.042941965
-0.04287439
-0.033269353
-0.025959292
-0.017347945
6.065038E-5
0.013534897
0.019274913
0.022003995
0.023467338
0.023018703
0.015782418
0.012874016
0.016113274
0.015988769
0.022985555
0.031398434
0.03059714
0.025501726
0.011797139
0.0010353699
0.0059023863
0.012958081
0.016140418
0.022128828
0.031605396
0.031839747
0.02211079
0.019480476
0.017625859
0.009428924
0.008088506
0.012946713
0.013466268
0.0025460627
-0.016734231
-0.032264058
-0.04389085
-0.053925518
-0.05493722
-0.045758847
-0.038507327
-0.039344057
-0.037535094
-0.02884384
-0.01901646
-0.012873988
-0.01708359
-0.025536824
-0.027877362
-0.029003073
-0.028015696
-0.018610766
-0.006906676
0.0077826544
0.030189771
0.04537768
0.04881725
0.052103203
0.048475597
0.040780887
0.04004674
0.03247255
0.01922911
0.015143016
0.016197931
0.018946799
0.020485105
0.017724197
0.01606688
0.014818658
0.006756346
-0.006368922
-0.0132759055
-0.012821321
-0.013681915
-0.018026799
-0.021431724
-0.017970737
-0.014979687
-0.019573487
-0.023223223
-0.025523653
-0.025896234
-0.022060923
-0.019692257
-0.01669078
-0.014367874
-0.011917251
-0.004561766
0.001703226
0.0052286466
1.1490776E-4
-0.010158624
-0.007931507
-0.0023854405
3.348617E-4
0.008916841
0.018279728
0.025002489
0.02641002
0.023684172
0.020049691
0.01148808
0.006341492
0.006184135
0.0019682404
-0.0013483383
-0.0019127062
-0.0022472967
-0.003072211
-0.0074254232
-0.011186287
-0.011136174
-0.009539579
-0.007400168
-0.006722232
-0.0074579716
-0.007203772
-0.0063665924
-0.006457377
-0.0060955533
-0.0042723785
-0.0035237966
-0.004622008
-0.0058492636
-0.005719263
-0.0038814722
-0.0014995856
0.0026432804
0.0076998943
0.010121489
0.011338046
0.010919181
0.007733682
0.0039831363
-0.0014109969
-0.0041486523
5.604213E-4
0.0050986484
0.004043766
0.0016922379
0.0025209242
0.0037458995
0.0034294513
0.006474026
0.007807112
0.0013691005
-0.0068181083
-0.011554655
-0.008510426
-0.005918737
-0.012343064
-0.01316054
-0.006865446
-0.0036637075
-0.001714145
-0.0029505133
-0.006121327
-0.008117746
-0.007202472
-0.0026887844
-0.005126326
-0.009777322
-0.007448732
-0.006055942
-0.0010988107
0.008610419
0.011386925
0.010139968
0.00948606
0.006674017
0.0036960116
0.004029671
0.0052249366
0.0063255676
0.008437623
0.007184789
0.004708993
0.004634996
0.0022105677
-0.001062411
-0.0014287082
-0.0027533683
-0.00922755
-0.01388437
-0.009842008
-0.0053009614
-0.0027301982
-1.454688E-4
3.9110786E-5
5.787628E-4
-0.0013300992
-0.003210527
-4.941839E-4
-0.0014051594
-0.0027555602
5.198247E-4
0.0052672247
0.00917258
0.006915179
0.0053637787
0.00905663
0.0073490245
6.6253584E-4
-0.003588846
-0.004392142
-0.004351791
-0.0021302158
0.0025066098
0.0030219567
0.002814156
0.0037348042
8.4587355E-4
-0.0023520908
-0.006681752
-0.009541747
-0.005390138
-6.987716E-4
8.166303E-4
-0.0016927444
-0.0034569406
0.001960787
0.0062103495
0.0058945166
0.0054457416
0.005095686
0.0052845837
0.0032273002
-0.0012285535
-0.0036137202
-0.002817289
-9.563866E-4
-0.00204482
-0.0037889136
-9.706019E-4
0.00364852
0.004347837
-5.3609456E-5
-0.0031454484
-0.0022721828
-0.0022934887
-0.0022568707
-0.0021735635
-0.0031932092
-0.0012084049
0.001551933
0.0031394465
0.005165622
0.0043125427
0.001522345
-1.0678492E-4
-4.028775E-4
0.0018478975
0.0039552306
0.0035463818
0.0021621645
1.1097578E-4
-0.0010943791
-4.507295E-4
0.0010612771
0.0018749153
-4.91117E-4
-0.0032737285
-0.0023444407
-2.9395005E-5
2.8695242E-4
-9.603209E-4
-5.7782215E-4
3.3060627E-4
-0.0010038303
-0.0010021607
6.461917E-4
6.0436706E-4
-3.5973953E-4
-7.6690153E-4
0.0013704405
0.0036774932
0.0025741062
0.0012761031
-7.558774E-4
-0.0034679137
-0.0015270166
7.289355E-4
-0.0014697867
-0.0019756712
0.0020992209
0.005136661
0.004158945
0.0018021952
-0.0016892535
-0.0046907538
-0.004078211
-0.003997391
-0.0041010766
-8.4110245E-4
5.2515935E-4
1.6289332E-4
0.0023929917
0.0041194214
0.0035082689
0.0033203682
0.005090127
0.0046930863
7.8438263E-4
-4.478603E-4
-2.6796357E-4
-0.0020762228
-0.00259081
-0.0024246136
-0.0016148129
0.0010245665
0.0032976747
0.006784708
0.009505825
0.006002778
5.4363004E-4
-0.0023446286
-0.0040934826
-0.0056466716
-0.007366746
-0.005926854
-0.0016149877
-6.746858E-4
-0.0010351536
-0.0014975964
-0.0028637492
2.596287E-4
0.0032113022
0.0042041596
0.008896421
0.0084201535
0.0024734538
-1.6783978E-4
-0.0039987233
-0.00760096
-0.006398962
-0.004039945
-0.0018879239
1.09315195E-4
0.0026301239
0.0042578783
0.0029013723
0.0023711908
0.0035135506
0.0023791927
-6.06664E-4
-7.52975E-4
5.5857823E-4
-0.0012568729
-0.0020116884
-7.022224E-4
-4.7684225E-4
0.0015860065
0.0030725738
0.0019343615
0.002959934
0.003496211
5.849787E-4
1.6128377E-4
0.0012633706
-0.0023029007
-0.004608606
-0.0025798017
-0.0016417415
8.791902E-4
0.0033944182
0.0021936295
0.001388163
2.012879E-4
-6.40696E-4
-0.002214343
-0.0067020454
-0.005776091
-0.0013060768
2.3208164E-4
0.0019282963
0.0029907266
0.003160104
0.003900528
0.005463277
0.007005212
0.0051779365
0.001119308
-0.004299618
-0.0076113846
-0.0053774077
-0.0037585478
-0.0014599182
0.001863502
6.294962E-5
-0.0010608046
4.7889323E-4
9.0598466E-4
0.0013867851
0.001036287
7.966334E-4
3.9928328E-4
-4.251131E-4
0.0013934099
0.0017387036
-4.6990492E-4
9.388398E-4
0.003342068
0.0021192927
8.1785966E-4
6.531175E-4
2.4478018E-4
0.0010100241
2.655446E-4
-0.0021228925
-0.0025662228
-0.0037529967
-0.004083554
-0.002303941
-0.002464277
-0.0014297919
0.0010412148
0.0019378016
0.0013904963
3.9774517E-4
0.0027197131
0.0020596778
-0.0027560196
5.572227E-4
0.004532996
0.0011680664
-5.7098677E-4
5.684473E-4
0.003723649
0.0064160856
0.0030987503
-4.637526E-4
4.345713E-4
7.223562E-4
-0.0012845192
-0.001788707
-8.5001526E-4
-0.001581924
-0.0037811338
-0.0052330126
-0.0031417871
-2.978496E-4
-0.0015130616
-0.0021883938
-1.046693E-4
5.475813E-4
3.4381036E-4
0.0016437971
0.0024343934
0.001188399
0.0021681667
0.0029548309
2.9885696E-4
0.0023164905
0.006035951
0.0056056282
0.0044623967
-6.0150377E-4
-0.005980045
-0.007188129
-0.0078097763
-0.005228981
-0.0020867947
-1.04552615E-4
0.0025492413
0.0011304214
-6.844207E-4
-4.2018227E-4
-5.8123947E-4
4.537065E-4
8.3167665E-4
0.0014150016
4.5359257E-4
-0.0026168234
-9.749878E-4
0.0012873176
0.002691385
0.0046861954
0.0024025629
0.0022218223
0.004973663
0.0045409524
0.0042135715
0.003080607
3.1271618E-4
-0.002840777
-0.0053492542
-0.003216737
-0.001680499
-0.003378962
-0.0033584004
-0.0030732062
-0.00233389
-8.6180225E-4
2.8311543E-4
0.0017132335
1.8333897E-4
-0.001858658
-8.010783E-4
9.672568E-5
0.0011855969
0.00226893
0.0020027799
0.001829039
0.0015651223
0.0030257797
0.005498332
0.003976148
-5.689222E-4
-0.0040143435
-0.00444348
-0.002698074
-0.0019922256
-0.0024682055
-0.0013100681
8.6086686E-4
0.0014704452
0.0010558927
-1.4994251E-4
-0.0013040539
4.691724E-4
0.0017708141
-2.097091E-4
-0.0013098295
-0.0011719703
-0.0013424965
-7.6418795E-4
-3.8966263E-4
-3.530494E-4
6.1699934E-4
0.0010301298
0.0013267236
0.003244414
0.003074988
0.001640027
0.002484616
1.1304078E-4
-0.003552767
-0.002129209
-6.1034126E-4
1.27401E-4
9.326029E-4
-1.1423102E-5
0.0025755302
0.0055094752
0.0023161129
-4.89567E-4
-0.0010359288
-0.001360183
1.2304004E-4
-9.736393E-4
-0.0024901312
4.206718E-4
-2.874145E-4
-0.0023089582
0.0010344181
8.6325826E-4
-0.0027996611
-0.003614485
-0.0033472294
-0.0020223747
-0.00144667
-6.968613E-4
0.0027713762
0.003657985
0.0015372394
4.4258285E-4
5.690741E-4
-5.3075317E-4
-0.002193283
-4.3178312E-4
-0.0020868455
-0.006759526
-0.0011395639
0.006795411
0.006019645
0.003690086
0.0034784628
0.001960308
-0.0032220064
-0.0064883274
-0.0037541622
-0.0018228967
-0.0011976587
3.494269E-4
2.7853635E-4
9.7433507E-4
0.0029607147
0.0027987438
8.920553E-4
0.0012484379
0.0037791226
0.0034458875
0.0029235377
0.004675168
0.0024469527
-0.0024086866
-0.004466549
-0.0041396497
-0.0024477968
-0.0014603053
-0.0010567559
8.579058E-4
0.002314366
0.0021461733
0.001192086
-1.1929096E-4
-6.929033E-4
-0.001172439
-0.0021271885
-0.0011978428
0.0021252406
0.0032813402
-1.7248021E-4
-0.0023767345
-9.938418E-4
-0.0013525496
-0.0030322433
-0.0040536337
-0.004857229
-0.0032743246
-0.0015775715
-0.0014744357
-0.0011040111
-0.0024328264
-0.00282942
-6.5041234E-4
-3.0068113E-4
4.0699114E-4
0.001126683
-9.153449E-4
-0.0010088646
4.294752E-4
0.0015450779
0.003862047
0.0044551534
0.005466071
0.009514259
0.010570362
0.009334953
0.010755899
0.009645289
0.0022154772
-0.003149368
-0.0014955025
9.242496E-4
6.65909E-4
-0.0020692998
-0.006440211
-0.008583628
-0.008945913
-0.008026168
-0.0043995837
-0.0023127017
-0.002922338
-0.003862802
-0.004430998
-0.003380793
-0.0029888041
-0.0040837275
-0.0044705006
-0.0037972084
-0.0011591454
5.1619316E-4
9.582104E-5
0.0018377586
0.0033156986
0.002908936
0.004487168
0.0054659853
0.002317585
-3.3263883E-4
0.0012637269
0.0036990514
0.00527066
0.006532932
0.0060312045
0.0037029777
-7.0646394E-4
-0.0034086704
-0.0018143645
-0.002732231
-0.0028324449
0.002234816
0.003688095
0.0030676979
0.0041000103
0.0023124854
7.2860304E-4
0.002430863
0.0021543459
-0.0030750935
-0.006583029
-0.0053548226
-0.0043733027
-0.0031018925
-0.0020319538
-0.0018553181
-0.0013242225
-0.0027492063
-0.0011594784
0.0021783083
2.8087787E-5
-0.0021117774
-0.0033472106
-0.003896702
-5.563991E-4
0.0011325083
1.6769135E-4
-5.7790254E-4
-6.332759E-4
6.152634E-5
3.480426E-4
0.0020268448
0.0030538563
0.0019358691
0.0029090988
0.0037120068
0.0015324894
-3.062109E-4
8.0256467E-4
0.0021680307
0.0015431925
0.0014896704
5.666014E-4
-6.717939E-4
6.3742005E-4
0.0014943149
0.0031281544
0.005074183
0.0040597604
9.860926E-4
-0.004069078
-0.005992893
-0.0034707466
-0.0013898164
2.000095E-4
-3.157412E-4
-0.0010931898
-3.692274E-4
-6.617964E-4
-4.559071E-4
-0.0018923482
-0.0044999686
-0.0059895837
-0.007355474
-0.0043131383
-6.1514485E-4
3.7767043E-4
0.0020148912
3.1998183E-4
-8.020385E-4
9.398176E-4
1.6535501E-4
9.604475E-4
0.0026145051
0.0025664626
0.0023088823
0.0010169623
0.0022730525
0.0038862254
0.002627602
0.0038196822
0.0072286255
0.009917547
0.009753054
0.004705466
-0.0021272912
-0.0070279706
-0.007734817
-0.004881305
-0.002826178
-0.0027967582
-0.0016145309
-6.067667E-4
-0.0015086249
0.0012213751
0.0026420993
-0.0013801628
-4.3941292E-4
-0.0027260964
-0.0114012435
-0.008070841
-0.0018663009
-0.0035886997
-0.002779377
-0.0016965211
-0.0010626463
0.0029495144
0.004515809
0.003090125
0.0017769905
0.0019821352
0.003332244
0.0029600651
0.0021662812
0.0016859039
6.1669206E-4
5.957886E-4
0.0011623868
0.0023712476
0.0038942548
0.002878776
0.0018457902
0.0035055531
0.0038778528
0.0020565682
0.0018448854
0.0029356515
0.0018941179
-0.0011849775
-0.0037780153
-0.0054250048
-0.0059707607
-0.005570881
-0.005457052
-0.0052626734
-0.0049396288
-0.003589591
-0.0010582325
-0.001192324