0.0015506842
0.0028785844
0.002679921
0.002649435
0.0025930933
0.0027012096
0.0018590209
3.1863048E-4
5.79987E-4
-9.220652E-5
-0.0024726277
-9.104779E-4
0.0022674839
0.0029977544
0.0042341035
0.003963507
5.10722E-4
-7.283421E-4
0.0011732526
0.0011255069
-0.0024346428
-0.0048832768
-0.004296031
-0.003901905
-0.0053421813
-0.006390281
-0.0028223859
0.0024969834
0.002528909
7.697627E-4
0.00214799
0.002307292
-0.0013251179
-0.0039354456
-0.0028473018
-5.6240027E-4
0.0020239553
0.0031018557
0.0019406944
0.0029921462
0.0053622685
0.005576309
0.0038766514
9.97114E-4
-4.7284164E-4
-0.001613218
-0.003385222
-0.0024635224
-0.0023394246
-0.004242897
-0.0024532166
0.0010806595
0.001330453
-7.8343245E-4
-0.0013991147
3.0093177E-4
1.8875931E-4
-0.0020207858
-0.0021492408
-0.0014079832
-0.0013484526
5.9555843E-4
0.001963349
3.6171227E-4
4.4055513E-4
0.0027034646
0.0030679589
0.0014208049
3.738968E-4
0.0014373851
0.0024206985
9.3763135E-4
-0.0017580105
-0.0028124168
-0.0012393488
5.1842345E-4
0.0010857442
-1.2020147E-4
-0.0018864088
-1.5328302E-4
0.0022121088
0.002046721
8.193077E-4
-0.0017175707
-0.0020615654
-4.339664E-4
3.6614577E-4
0.0025884
0.0016176625
-0.0021825896
-0.0016703632
2.0756178E-4
0.0017871174
0.002536862
7.181977E-4
-0.0015493422
-0.0047693965
-0.00485804
-6.847763E-4
-5.589454E-4
-0.0024756182
-0.0013348523
7.129592E-5
-1.1534947E-4
-0.0011691117
-0.001058699
-5.9453428E-6
4.6467842E-4
8.367157E-4
7.078611E-4
5.072792E-4
0.0015303944
0.001837303
-3.4460897E-4
-4.0279262E-4
0.0036320179
0.0041314317
0.0013464254
0.002051407
0.002809929
5.2350503E-4
-0.0011271281
-6.306319E-5
0.0019745834
0.0017406833
-4.1503048E-5
-5.446837E-4
-4.6865307E-4
-3.8467455E-4
0.0012052065
0.002705485
0.0010872111
-0.0014697312
-0.0019901725
-0.0017200588
-0.0017425593
-0.0014610498
-0.0013055104
-0.0021046957
-0.0025995253
-0.0024764969
-0.002866049
-0.0024327917
-0.0019423151
-0.0030381326
-0.0037520796
-0.0031575544
-0.0011933642
1.8552245E-4
-2.9238212E-4
4.0802042E-4
0.0014932737
0.0017482415
0.00215293
0.0019409156
0.0024207903
0.0028268113
0.001963699
0.002007786
0.0026506593
0.003451533
0.0035881705
0.0030940499
0.005419823
0.007985137
0.005746865
9.002433E-4
-0.002427884
-0.0033245415
-0.003502376
-0.004409422
-0.004217232
-0.0034098672
-0.005527531
-0.006036105
-0.0018074894
-3.903417E-4
-0.0017171653
-7.6610333E-4
3.683237E-4
9.8203345E-5
-8.0729264E-4
-1.2028652E-4
0.0013611915
9.70391E-4
0.0011175727
0.0010581783
-7.9306687E-4
-0.0018273032
-8.2356355E-4
0.0011884096
0.0013820104
8.351858E-4
1.4630504E-4
-7.0253864E-4
0.0017234826
0.0026159969
0.002237249
0.0033269124
-0.0021257994
-0.0063959234
-0.0031492629
-0.0024237407
-0.0014942533
0.0016058399
0.0025207873
0.0030509783
0.0029537217
0.0032097052
0.0036694203
0.0016816702
-6.0967804E-4
-0.001046859
-2.6950505E-4
2.657574E-4
9.628281E-4
6.7027647E-4
-0.0017572076
-0.0024472806
-0.002821683
-0.003656212
-0.0010648357
3.3185445E-4
-0.0011131322
-0.0011567944
-5.112284E-4
9.6287124E-4
0.0024903973
0.0011592046
-0.0017175269
-0.0022406862
-6.991591E-5
3.3358962E-4
-1.5246E-4
0.001676673
0.0021926337
0.0014972232
0.0019187782
0.0010036848
-8.141487E-4
-0.0021310975
-0.002716253
-0.0019932063
-0.0017081709
-0.001782153
-9.6095476E-4
-5.112443E-4
-2.798967E-4
6.873618E-4
0.0013899166
0.0012830843
0.0012758769
9.945737E-4
2.5133067E-4
8.8592246E-4
0.0027933707
0.0037275583
0.0023710614
0.001206464
0.0021500555
0.0012827708
-1.3216729E-4
6.317902E-4
-3.7797086E-4
-9.941118E-4
-6.8585615E-4
-0.0023211942
-0.0023270529
-0.0037919937
-0.006349719
-0.0038088756
-0.0013803367
-3.4379202E-4
-3.5499726E-4
-0.00425678
-0.0040772143
6.701159E-4
0.0011208451
-5.2303873E-4
8.538939E-4
0.0037486535
0.004097047
0.0012943592
3.3717544E-4
0.004390962
0.008073793
0.0065439967
0.0034899283
6.912159E-4
-0.0010731197
4.3738677E-4
4.4265104E-4
-0.0014477938
-9.661032E-4
-0.0019839252
-0.0052879043
-0.004496237
-7.735176E-4
-0.0022986203
-0.004802348
-0.0010887651
1.5491429E-4
-0.0016255333
-5.3276506E-4
-0.0011926463
-0.0011342781
8.919522E-5
-0.0013266371
-5.686397E-4
9.759854E-4
0.00122427
0.0014686517
7.897375E-4
0.001796517
0.002723795
0.003925163
0.006774601
0.0044416892
9.941795E-4
5.2423857E-4
-0.002533479
-0.0038225446
-0.0015786962
-0.001416177
-0.0020689971
-0.0015178195
-6.407927E-4
1.824141E-5
5.7047565E-4
7.2474213E-4
-4.8144555E-4
-0.0020335852
-0.0018195261
-4.2985505E-4
-6.4040045E-4
-0.0013275507
-6.3397817E-4
-4.173797E-4
9.835545E-4
0.0028355354
0.0015839842
7.730259E-4
3.9939836E-4
-0.0010857175
-1.7770272E-4
0.001611936
0.0024878373
0.0027803092
0.0015993082
3.9579338E-4
-2.5609293E-4
-2.6208712E-4
-5.1220314E-4
-0.0024932967
-0.0029382731
-0.0017275629
-0.001195951
8.555886E-4
0.0017434031
-0.001697755
-0.003832388
-0.0024508059
-9.7137433E-4
-3.3659252E-4
-2.7269227E-4
7.123066E-4
0.0016754232
0.0010379144
0.0018628596
0.0023833711
0.0012199249
0.0016314767
0.0010661059
-2.6045172E-4
-9.879827E-4
-0.0026891688
-0.0019049906
5.0162605E-4
0.0024040872
0.00426436
0.0037752222
0.0028113162
7.6123525E-4
-0.003098727
-0.003953823
-0.0034349489
-0.0034382548
-0.0020213749
3.5027575E-4
4.7622103E-4
-0.0012546855
9.885614E-4
0.0021009287
-0.0014435808
-8.5333147E-4
0.0018149989
0.001690266
-1.5815075E-4
-0.0018910874
-8.705134E-4
6.1125425E-4
0.0031404146
0.003967667
0.0017502062
0.0038040855
1.907667E-4
-0.008672425
-0.006328214
-0.0014330958
-3.4167818E-4
2.3521672E-4
-7.3099136E-4
0.0011429493
0.0021848765
0.0011258787
0.001576541
2.2529412E-4
4.5917009E-4
0.002086612
4.2046717E-4
-0.0026673453
-0.004205741
-0.0011086189
0.0019477508
0.0017012958
0.00198673
0.0011453627
2.851004E-4
8.9843356E-4
7.715831E-4
2.7470232E-4
-6.7094166E-4
-6.49257E-4
-0.0014796453
-0.004393143
-0.0028489018
0.0019906438
0.0022767396
-5.2297313E-4
2.730406E-4
0.0010968813
-0.002172846
-0.0012425837
0.002295686
0.0015889242
0.0018642602
0.0022649537
2.7503277E-4
1.6277616E-5
0.001150512
0.0016316131
0.0010743527
2.4283897E-4
-7.366049E-4
2.9004828E-4
0.0028401667
-0.0024283114
-0.009636528
-0.0047573806
0.0024236918
0.0012078381
-9.038126E-4
5.4513477E-4
0.0011852095
1.771031E-4
-5.5842707E-4
-0.0014736572
-7.56104E-4
4.2093633E-4
-3.2273235E-4
4.70947E-4
-2.1115883E-4
-0.0028856595
-8.1341E-4
0.0016952644
6.114188E-4
-0.0015633794
-0.001956286
0.0021340435
0.0043276884
0.002400272
0.0012567065
1.8238374E-4
0.0018858728
0.00374748
5.1753806E-5
-0.0032875238
-0.005305276
-0.0057381415
-0.0017028268
0.0012211929
0.0035225612
0.0055038854
0.0037114632
0.004093519
0.005507755
0.0019137663
-0.0033224283
-0.005981288
-0.0043504955
-0.0014462988
-4.168493E-4
4.6276295E-4
8.6898124E-4
2.915998E-4
-6.354879E-4
-0.0014080943
-0.001649347
-0.002393637
-0.0021132755
1.7977535E-4
0.0014972569
9.515784E-4
0.001264979
0.001889947
-1.8961908E-5
-9.0704154E-4
-8.52828E-4
-0.0034180623
-0.0026781952
8.3312707E-4
9.898938E-4
2.8917938E-4
2.84937E-4
0.0010251682
0.0018328124
0.0012514873
2.2611718E-4
1.5564E-4
0.002506376
0.0024293296
-0.0010349582
-0.0011993933
3.0429615E-4
0.001241762
-5.8127163E-5
-0.0030397088
-0.0021403423
-0.0011978335
-7.250531E-4
0.0013530421
0.001349227
0.002171145
0.0018064159
-3.2390826E-4
3.355317E-4
-2.1270811E-4
9.130905E-6
0.0010793413
-9.3163183E-4
7.5978787E-6
0.0019226414
-5.3897867E-4
-0.0023496402
-0.0020252157
-0.0031351284
-0.0026969025
0.0016608153
0.0028506399
4.3389926E-4
1.5940925E-4
4.472209E-4
-2.2522018E-4
-0.0015305481
-0.0012308027
0.0012350302
0.0020231328
0.0022805056
0.0016971336
-1.2706766E-4
-2.9947283E-4
-0.0018283976
-0.003611028
-0.0026442239
-0.0018779053
-9.0138667E-4
-4.254984E-4
-0.0012256323
7.2007714E-4
0.003059846
0.0021506094
0.0018928238
0.0019859099
-3.5469042E-4
-0.0017826281
-0.0016969349
-0.0018845157
-0.0024097129
-0.0015396907
0.0029993795
0.0056169075
0.0045458055
0.004053128
0.0021290667
3.6264013E-4
-9.790318E-4
-0.0020954777
4.3434763E-4
-9.246277E-5
-0.002497615
-0.0011974409
-0.0019533325
-0.0014570741
9.210774E-4
-0.0018507565
-0.002952462
0.0025811256
0.0046358104
6.629637E-4
2.7923319E-5
-0.0025088286
-0.009750175
-0.008002934
-0.002101483
2.3515921E-4
0.0032309908
0.0035214487
0.0028878106
0.0037279155
0.0039607217
0.0038987698
0.0010898596
-8.1692106E-4
-0.0015897049
-0.0038984425
-0.0021398724
-8.9462544E-4
-0.0030454877
-0.0012975251
0.0012343545
4.2928502E-4
3.8966173E-4
0.0029077788
0.004347072
0.0033157098
0.0023838656
0.0014649413
4.235923E-4
7.355149E-4
0.0011075148
-0.0010080958
-0.0036539808
-0.0030858559
-9.634107E-4
6.3593173E-4
3.2500684E-4
-0.0015245965
-0.0012532561
-6.1694655E-4
7.07072E-4
0.0032112137
0.0013597722
-0.0019044451
-0.002808119
-0.002200984
-0.0018098755
-0.0032152692
-3.818887E-5
9.762562E-4
-0.0073284106
-0.006404642
0.002309842
0.003209699
0.0042448104
0.00679942
0.0054535475
0.004538853
0.0034807199
0.0011343261
-0.0019837373
-0.0054786573
-0.004818123
-0.0019151603
-8.15417E-4
2.1971953E-4
5.4520737E-5
-2.9557146E-4
0.0010769011
0.0014682739
0.002253983
0.0029391788
0.0011923697
-1.3635807E-5
-0.0014036525
-0.0035224075
-0.0035610138
-0.0014822043
0.0012359218
0.0016435232
8.517415E-4
5.08885E-4
-0.0014793664
-0.0019004924
1.5182643E-4
0.0017265121
0.0029087143
0.002399231
0.0018433647
0.0012803191
-0.0016443884
-0.002351881
-6.404226E-4
-5.1344547E-4
-0.001250899
-0.0022972394
-0.0034443205
-0.0037537077
-0.001740835
0.0016082749
0.0030767068
0.0027588494
0.0020556212
0.0022912556
0.0016419333
-2.3389368E-4
0.0012368938
0.0020389096
-1.4400158E-4
-8.0674846E-4
-0.002017685
-0.0024425606
-0.0016037705
-0.0023614669
-0.0015883432
-4.264076E-4
0.0014451805
0.004166582
0.0036392668
0.004513915
0.005004072
7.4164814E-4
-0.002507459
-0.0051155956
-0.0063298857
-0.0043537538
-0.0035996828
-0.00364586
-0.0038476165
-0.0023007556
0.0020187716
0.0036305746
0.0038509974
0.004592628
0.0032014109
0.0014997486
-1.3914387E-4
-0.0017849108
-0.0012999113
-7.672759E-4
-0.002022594
-9.798022E-4
0.0032142566
0.0042088414
0.001875705
0.001658374
0.00273841
0.0026021104
0.0015063239
1.2788356E-4
-3.8115552E-4
0.0012853391
0.0018662947
-0.0026200279
-0.0052613695
-0.0026892296
-0.002747234
-0.004165637
-0.0023661728
-6.832378E-5
3.66358E-4
-7.55176E-4
-9.815098E-4
-0.0010354908
-0.0017181537
-0.0012332371
-8.4663945E-4
4.9685745E-4
0.0021050372
0.0011167375
-5.3112843E-4
-0.002348475
-0.0024315626
-6.365201E-4
4.4128194E-4
0.0028052772
0.0036300046
0.002836664
0.0044767885
0.004677587
0.003119186
0.0013357128
-4.4366022E-4
-8.174204E-4
-0.0018942977
-0.0016124448
2.0411982E-4
5.9148634E-4
0.0013547393
0.0013864889
0.0010697306
-9.521926E-5
-0.0019293142
-1.457413E-4
-9.718164E-4
-0.0024334183
0.0014027137
-1.5595056E-4
-0.0039858273
-0.001982001
-7.000281E-4
-0.0022864905
-0.004820861
-0.0029864053
0.0023384776
0.0030340815
0.0014591928
-0.0025758857
-0.006377109
-0.0015159766
0.0025633734
-8.96634E-4
-0.0045396495
-0.0048895343
-0.001034575
0.0038676357
0.00625905
0.006851303
0.00527278
0.004684264
0.0063472292
0.0049569425
7.00129E-4
-0.0029557296
-0.0056489105
-0.0063945926
-0.004995357
-0.0036186248
-0.002609675
1.1676011E-4
0.0038340099
0.005271058
0.0046649887
0.0035890732
4.22536E-4
-0.0050616856
-0.007553175
-0.00372606
7.2767143E-4
4.9139437E-4
-9.798513E-4
4.3596645E-4
0.0021807859
0.002243534
0.004045034
0.006570508
0.0053423485
0.0017742681
-0.0030389163
-0.0072285156
-0.006800016
-0.0044174963
-0.0017638163
-6.320463E-4
-0.004201976
-0.0060347673
-0.007900285
-0.015114003
-0.013874777
-0.0025794567
0.0016796935
6.404319E-5
0.0023953184
0.0051714564
0.0062435535
0.009738198
0.012544566
0.012486872
0.012294802
0.010341803
0.009171401
0.009192244
0.005337699
0.0027542594
0.0014563194
-0.00233348
-0.0011270748
0.002054776
2.1644385E-4
-0.0021071848
-0.004800368
-0.007979019
-0.010000968
-0.013479775
-0.014667338
-0.01123461
-0.009661353
-0.01072695
-0.008500616
-0.004313335
-0.0035494382
-0.0027580138
0.0022676268
0.0091591
0.013836646
0.012783532
0.008371775
0.005035927
4.5456956E-4
-0.0077513168
-0.012242058
-0.010309502
-0.012664166
-0.01429945
-0.0045856666
0.0027602362
0.0022753994
0.0052891937
0.014621075
0.02592972
0.03140215
0.026090277
0.007305356
-0.012132141
-0.009798767
-0.0014018726
-0.0022453517
0.003452547
0.01522978
0.028018383
0.037167188
0.03297684
0.015130621
-0.02388109
-0.061906014
-0.057066895
-0.03639072
-0.043146312
-0.05178892
-0.032449152
-0.0061389394
0.014255641
0.03584203
0.04133008
0.032421686
0.03273685
0.028067352
0.00925618
-0.0037097814
-0.004443921
8.2500614E-5
-0.0010488002
-0.004795217
0.004235409
0.010094287
0.008111527
0.033861645
0.058615822
0.026579333
-0.029181603
-0.06786424
-0.08824361
-0.09647053
-0.09592805
-0.06582708
-0.032748595
-0.02132314
0.026624259
0.101534575
0.1531767
0.17530517
0.15411735
0.11720556
0.070476376
0.007923336
-0.016867237
-0.049904272
-0.12263753
-0.14169814
-0.11213144
-0.061100855
0.038951717
0.10355258
0.067405075
0.0059654587
-0.043857355
-0.09908111
-0.13536361
-0.14815412
-0.14789596
-0.1229019
-0.060754046
0.04068523
0.094225414
0.02955383
-0.055487156
-0.05667546
0.042694487
0.18980289
0.3048722
0.35945132
0.32199767
0.2215902
0.12149149
-0.017190708
-0.16150637
-0.23643073
-0.25380084
-0.19020526
-0.0637702
0.04658607
0.121233076
0.14165743
0.10571319
0.044811577
-0.065888226
-0.23151152
-0.35779786
-0.38146663
-0.31169623
-0.17075166
-0.0023673559
0.16706698
0.2814896
0.28580818
0.24286717
0.15348119
-0.0105004795
-0.14939986
-0.18510483
-0.088502474
0.0494734
0.0876118
0.08317386
0.092467114
0.10066513
0.1364046
0.16615705
0.1573488
0.10878655
0.0019562661
-0.11729792
-0.14143214
-0.038053706
0.057511475
0.017604025
-0.12427466
-0.2194989
-0.12714753
0.03914293
0.05402725
-0.050924577
-0.11424963
-0.095476456
-0.074337
-0.075277984
-0.04272969
-0.008103773
-0.0131786745
-0.029144406
-0.0067533925
0.051495194
0.03404445
-0.042792056
-0.048912007
-0.010041399
0.032541994
0.060488205
0.028604066
-0.009051362
-0.0042268685
0.036581818
0.099477634
0.12801239
0.11722268
0.11299318
0.13878499
0.17926517
0.13706902
-0.034555487
-0.22071992
-0.28117886
-0.2047753
-0.11600913
-0.07330466
-0.0043196985
0.09690732
0.16492724
0.19362444
0.22509369
0.22807713
0.105943315
-0.09233471
-0.22962873
-0.27361172
-0.23082139
-0.1427468
-0.06741196
0.0022385905
0.04770137
0.033035118
-0.012739292
-0.035607822
-0.027281934
-0.030422358
-0.033940192
-0.0055474867
0.01960092
0.027096387
0.027564924
0.023270885
0.02070692
0.0017697951
-0.018563068
-0.0022194772
0.029014273
0.048207685
0.05786613
0.066322334
0.07665855
0.07713482
0.06996352
0.06135596
0.04171352
0.016383326
-0.0062811375
-0.024384692
-0.031489465
-0.034793768
-0.04046995
-0.04380387
-0.04206848
-0.033750396
-0.02999693
-0.031318646
-0.019440267
-0.0012015646
0.011517072
0.021757394
0.027360102
0.030191151
0.02874548
0.018008031
0.0043239337
-0.0064098584
-0.011582596
-0.014887235
-0.018808097
-0.016407529
-0.010125243
-0.008513557
-0.012180541
-0.014244977
-0.013189563
-0.011681056
-0.0028202438
0.005821942
0.0051173237
0.007575791
0.010120227
0.0084703
0.0063447272
-0.0014138042
-0.0019267724
0.0053399354
0.0029300707
-6.3802354E-4
0.0026731964
0.012528436
0.026070314
0.030820867
0.026087465
0.01777553
0.012635661
0.010516663
-8.8817516E-4
-0.017366778
-0.027766686
-0.02941777
-0.022274973
-0.010773661
5.1608065E-4
7.550985E-4
-0.008445167
-0.010537068
-0.010352735
-0.008627138
0.0025570104
0.008653969
0.010161706
0.02592994
0.04921066
0.06570378
0.071170166
0.057574082
0.0356702
0.01958728
-0.0072624325
-0.031656887
-0.02513341
-0.010662633
0.0014191043
0.01704055
0.018975256
0.010170374
-0.0049643703
-0.026320012
-0.036900222
-0.044879362
-0.05934891
-0.06440587
-0.06032759
-0.05380346
-0.047099117
-0.045977987
-0.043714605
-0.036645897
-0.03377823
-0.035552036
-0.036307573
-0.03014149
-0.01791392
-0.0068840636
0.004384813
0.015016554
0.023546949
0.029240714
0.023515772
0.018642135
0.027968243
0.037005953
0.038409866
0.036836877
0.04049277
0.045249358
0.036462326
0.03892285
0.07018064
0.09619077
0.099319234
0.08572538
0.062155765
0.039415307
0.010427087
-0.029976038
-0.058776576
-0.0592081
-0.04659796
-0.047949456
-0.061310943
-0.061432295
-0.053063802
-0.05747204
-0.06727967
-0.072438926
-0.07458115
-0.07100212
-0.06370151
-0.053396843
-0.041301955
-0.036246937
-0.033376954
-0.022017732
-0.0033479293
0.01403086
0.023156134
0.030909281
0.04199703
0.047088813
0.04792274
0.053751104
0.05922501
0.058575228
0.053823557
0.046139393
0.04129153
0.03709985
0.027277976
0.020986687
0.014846303
0.00643008
0.011163869
0.018259408
0.014744524
0.007249113
-0.0027929812
-0.009763378
-0.013908568
-0.01624244
-0.011854109
-0.012000962
-0.01739451
-0.01837302
-0.01717198
-0.014127246
-0.014383396
-0.019723853
-0.022285333
-0.023748707
-0.023968374
-0.019709785
-0.01574212
-0.012914807
-0.008947158
-0.005585943
-0.0018729838
0.0030353605
0.0048037916
0.003923884
0.0037465843
0.0033321495
0.0032100829
0.0028737015
0.0034191017
0.0058230036
0.003605228
2.3706329E-4
0.001598705
0.0020632667
0.003767595
0.0072669433
0.0065853125
0.0072822236
0.0102130165
0.008889606
0.006723062
0.005327662
0.00237142
0.0016909558
0.0044687353
0.0063499343
0.0067483606
0.007877554
0.008532882
0.007997988
0.007227734
0.004229932
0.0021396282
0.004485889
0.0039232746
1.3082608E-4
-5.705006E-4
-7.0584426E-4
-0.0015677258
-0.0025019422
-0.0038074811
-0.0032362712
-0.0018733181
-0.0024247842
-0.0042936304
-0.004852754
-0.0042865793
-0.0049971463
-0.00396691
-9.99236E-4
-0.0016472389
-0.003945199
-0.0036261813
-0.0027362083
-0.002639146
-0.0012118809
8.576495E-4
2.9149957E-4
4.7111142E-4
0.0042972085
0.0039790273
-1.0289937E-4
3.970965E-4
-4.1268233E-4
-0.0047130506
-0.004200728
-0.0025543014
-0.0029076363
-0.003175277
-0.004591278
-0.0034695624
-0.0021993292
-0.003322244
-8.48946E-4
-2.9478924E-5
-0.0031259784
-0.0025369285
2.7317414E-4
0.0018193373
7.439669E-4
-0.0010034657
-5.607411E-4
-6.161259E-5
0.0014728111
0.0019473535
2.8911073E-4
0.0026299907
0.0053067724
0.005660862
0.008149199
0.008568464
0.0038481937
-0.0010851315
-0.0034747
-0.006557496
-0.010215084
-0.009012863
-0.0060302266
-0.00361445
9.308397E-4
0.0016085443
-0.0012820419
-0.002222768
-0.0032041708
-0.0011126386
0.001462106
-0.0016750386
-0.0024362195
-2.6144923E-4
-1.8507666E-4
0.0018058264
0.004548215
0.0051143775
0.004231722
0.0038144987
0.004512063
0.0035085147
0.0023539627
0.0014423799
0.0011666423
0.001339536
-0.0029245554
-0.0023985766
8.3082705E-5
-0.008597867
-0.008153301
0.002535551
0.0017207151
0.0012739935
0.004751359
0.0011579639
-0.0019722495
-0.0019338891
-0.001599976
-8.1583037E-4
-0.0011537825
-4.1635285E-4
0.0017533713
0.00270939
0.0029595334
0.0019710532
7.562313E-5
8.950073E-4
0.0021595198
9.1382675E-4
8.1436156E-4
9.736357E-4
-6.182712E-4
-0.0015176777
-0.0018233303
-0.001816673
-0.0018364164
-0.0024156359
-0.0032699853
-0.0044962787
-0.0032978328
7.638552E-4
0.0037654391
0.0031341177
0.0011851434
0.002038163
0.0026829087
0.0020318008
0.0031016173
0.004070783
0.0042884904
0.0022544642
-5.2919035E-4
-2.051107E-5
6.684441E-4
0.002062039
0.0033102236
0.0011476722
-4.2894538E-4
-7.237668E-4
4.6274147E-4
0.0010513684
-0.0011328505
-0.0011206189
-0.0030786332
-0.0062000756
-0.0038271735
-0.002986703
-0.002741344
-4.0705592E-4
-4.8838E-4
1.1723331E-4
2.0008239E-4
-1.1924341E-4
0.0019077752
0.0011543648
2.5883314E-4
0.0011990175
1.3628323E-4
0.0015746466
0.005034326
0.005561377
0.0053010094
0.0042161266
0.0013691292
-8.214971E-4
-0.002157742
-0.0033229715
-0.0036633788
-0.003147181
-0.0027267442
-0.00243592
-0.0018774655
-0.002024855
-0.0012093033
0.001004569
3.6678702E-4
-7.1763573E-4
8.941171E-4
0.0014106262
0.0010288707
0.0015390838
0.0023913602
0.0021778718
3.0484033E-4
9.495989E-4
0.0027300855
0.0031308774
0.0055594
0.006443065
0.0058685946
0.0070130727
0.0034948175
-0.0030497345
-0.005832032
-0.0055250474
-0.0037846146
-0.0020935156
-6.8024744E-4
-0.0014957852
-0.004724161
-0.0040547103
-3.4127824E-4
4.4949335E-4
-0.0022687232
-0.004252724
-0.0025608072
-0.0023836812
-0.002996848
1.8253068E-4
0.001406291
8.813603E-4
0.001021964
-3.381446E-4
7.8692834E-4
0.0025209396
0.0022761214
0.0029617934
0.0016176807
9.1675465E-4
0.003368315
0.0026027854
1.8033283E-4
7.4856577E-4
0.0026257802
0.0027910408
0.0020287235
0.001963763
-4.327904E-4
-0.001221097
0.0029608014
0.0032233582
5.703134E-4
0.0011946552
9.956827E-4
-8.7004807E-4
-0.0021661979
-0.00272153
-0.0012526286
8.641324E-4
7.209076E-4
-5.031204E-4
-2.7799184E-4
1.3021998E-5
-0.0010494057
-0.002455425
-0.0036025436
-0.004093805
-0.004570084
-0.004849816
-0.004594229
-0.0044833366
-0.002248267
5.772338E-4
1.5997862E-4
-1.6135177E-4
0.001372347
0.0018383716
7.101801E-4
4.7460158E-4
0.0017991052
0.0010888958
4.585345E-4
0.0046897857
0.008013207
0.0065968414
0.005073065
0.0037747973
0.002887078
0.0046549044
0.0053414186
0.0044386387
0.0049387435
0.0037994904
2.2754102E-4
-0.0037898573
-0.005514938
-0.0031621289
-0.0032172434
-0.0051609445
-0.0036698673
-0.003386055
-0.0031532983
9.2628215E-5
8.658579E-4
-0.0028505884
-0.005370553
-0.0020401694
6.9128454E-4
-2.3652344E-4
-0.0014687779
-0.0054878513
-0.0057947673
-0.001220062
-0.0017009099
-0.0024736817
-0.0015182436
-0.0012570397
4.7356254E-4
7.299751E-4
0.0026035646
0.004143546
3.7097852E-4
-0.001268737
-0.00105271
3.0021011E-4
0.004572679
0.005242812
0.0039958768
0.0034136334
0.0027711857
0.005229414
0.0071018417
0.005607629
0.00376674
0.0024462708
0.0027765362
0.0048096552
0.0049590315
0.0014157372
-0.0015697986
-0.0025851938
-0.0037847473
-0.0030043654
-0.002331393
-0.0039739097
-0.004649115
-0.00439084
-0.003145317
-0.0032277904
-0.005622614
-0.0045377314
-0.0029468492
-0.004351607
-0.0022173643
0.0034648173
0.0050324155
0.0010566006
-0.0020345
-8.639924E-4
0.0031893214
0.0065596737
0.0048503317
0.0010325938
-0.0059925513
-0.015371043
-0.010143779
0.0036154038
0.0053367577
0.001906658
-1.9457808E-4
-0.0021649152
7.084022E-4
0.0034932757
0.0015540952
-1.5822737E-4
6.7906827E-4
0.001253138
6.700249E-4
0.0017745886
0.0028089893
0.002564817
0.0034330664
0.0034728853
0.0027947521
0.0034407093
0.0046196957
0.004507337
0.0034827266
0.005548207
0.005986195
7.576295E-4
-0.0026173512
-0.0042654173
-0.0045563453
-0.0017671942
-0.0028870315
-0.004708672
-0.0031407247
-0.003874172
-0.0035369382
-0.0013828005
-0.0029889937
-0.004292317
-0.0029145004
-0.0021394878
-0.0010528691
4.1184208E-4
0.0010852352
0.0023076984
0.0024741527
5.464967E-4
-0.0010714252
-0.0017017398
-5.068731E-4
8.6988317E-4
-5.7706726E-5
1.7552101E-4
0.0017847128
0.0012952846
9.0446614E-4
0.0018033077
0.0010585282
2.155783E-4
0.0010601325
3.2545807E-4
-8.4924645E-4
-8.447857E-4
-0.0019967065
-0.0019469626
-5.2985136E-4
5.9556233E-4
0.0021517032
0.0016485123
6.508195E-4
-3.6272037E-4
-0.0027933083
-0.0019187642
3.4942797E-5
1.0798997E-4
6.839089E-4
0.0011657259
0.0033607304
0.0052644806
0.004693358
0.0050089573
0.0039115767
0.0024939124
0.0032185595
0.0015554279
-7.8191835E-4
-5.445174E-4
-0.0011142269
-0.004531354
-0.008550376
-0.008528844
-0.0022678892
0.004780933
0.006113966
0.0045743017
0.002729411
-0.0029686727
-0.007509954
-0.005981926
-0.004923132
-0.0055367365
-0.0041129524
-0.0026973384
-0.0024487225
-0.0016350473
8.5927104E-4
0.003680576
0.0030596566
9.681353E-4
0.0011247611
5.8974116E-4
-1.9860172E-4
7.888369E-4
0.001451778
0.0024532825
0.002647644
9.4887195E-4
-3.3852453E-7
1.7791295E-4
0.0013368885
0.0010112443
-1.1684002E-4
0.002465319
0.0047919992
0.0035984789
0.0012022576
1.4984573E-4
0.0015492133
0.0020264208
0.002665796
0.0027569144
-0.0024129555
-0.0051220655
-0.0028553666
-0.0034341936
-0.0025071674
0.0027676232
0.003688693
2.5415357E-4
-0.0019441193
-0.00435608
-0.005379624
-0.0030416248
-0.0011605383
-9.4228206E-5
-8.374198E-5
3.9236102E-4
0.0027455073
0.0014293425
-0.0011750604
-0.0013027688
-0.001866461
-0.0026781603
-0.0031578182
3.023209E-4
0.0044017825
0.0040698354
0.005829187
0.0032665788
-0.0037249124
-0.0015619391
3.7361862E-4
-0.0013675948
7.0236274E-5
-0.0019351777
-0.002875287
8.437024E-4
7.757029E-4
-3.118512E-4
0.001227966
0.0011143545
-6.2773627E-4
1.6515779E-4
0.0030380436
0.003758823
0.00148378
-6.1075273E-4
7.441322E-4
0.0027391978
0.0012846412
-0.0010946344
-0.002221287
-0.0022418676
-0.0023776484
-0.002520224
3.5791667E-4
0.0028726505
0.0022592354
0.0022081991
0.0011906752
-0.0025124764
-0.005544018
-0.0062041194
-0.0049839616
-0.002684937
-4.0304373E-4
9.1940234E-4
0.0022785133
0.0027179054
9.147189E-4
0.0015140389
0.0035370009
0.002373215
0.0016670957
0.0014051315
-4.4129698E-5
9.819829E-4
0.0024812843
0.0024907126
0.0029961467
0.0017109399
-9.1457664E-4
-0.0014750542
-0.0012861176
-0.0012235502
-0.0016602785
-0.0031593759
-0.0029690156
-0.0016465619
-0.001236657
-6.138323E-4
-8.708537E-4
-0.0022246342
-0.002201047
2.3204462E-4
0.0015896552
-0.0022486523
-0.0044612503
-1.6020527E-4
0.0016358027
-6.2507234E-4
2.9541826E-4
0.0027438574
0.0023766276
0.0018814384
0.00299389
0.0018592663
6.2366664E-5
0.0013187735
0.0014920387
7.3541894E-5
4.4626615E-4
5.0568994E-4
-1.135211E-4
2.7564575E-4
5.6079606E-4
6.262896E-4
0.0014807557
0.0025888344
0.0029478173
0.0021925718
-3.7780238E-4
-0.0037314594
-0.0038402989
-5.4560846E-4
6.9565367E-4
-0.0019794684
-0.0035198503
-0.0012893528
-4.6608166E-4
-0.002558847
-0.0017645283
4.1340833E-4
-6.905032E-4
-0.0012205642
2.169492E-5
-3.823022E-4
-0.0015695608
-0.002325224
-0.002302689
-0.0010351896
0.0011677548
0.0028734475
0.0015074798
-4.445792E-4
-1.3054059E-4
7.881176E-4
0.0029222674
0.004055006
0.0024091396
0.0020696966
0.0017309978
9.711953E-5
-2.4775657E-4
-4.441359E-4
-3.4816228E-4
-2.8869725E-4
-0.0016681186
-2.6609708E-4
0.0035597268
0.0031593682
0.001288581
0.0017641474
-5.585502E-4
-0.003171867
-0.0024832645
-0.003096693
-0.0016819149
0.001805228
0.0012808387
-6.5285224E-4
-0.0033029737
-0.0034829269
0.001123266
0.001303589
-0.0013303001
-8.8909303E-4
-9.7477646E-4
-9.918361E-4
-0.0011703103
-0.001980711
-1.6941171E-4
0.0014001457
0.0014672574
0.002581702
0.0025223624