-9.079114E-5
-0.00514418
-0.006631311
-0.0031223292
4.6762498E-4
8.724423E-4
5.0421926E-4
-4.4161643E-4
-0.0028308914
-0.00357056
-0.0031532235
-0.0017355117
0.0017375078
0.0028130296
0.0023707813
0.003919725
0.0045344797
0.0024460373
-4.4592613E-4
4.303936E-4
0.0023111964
-5.865398E-4
-5.9042725E-4
0.0023801008
6.40495E-4
-0.0012662592
-0.0013882085
3.3657625E-4
0.0024463276
0.0013266933
0.0014510478
-0.0025037646
-0.0069964477
-1.4434772E-4
-0.0016987845
-0.011142059
-0.0049946625
0.0024627724
9.098381E-4
3.8772606E-4
0.0012315218
0.002165751
0.001032266
3.3040968E-4
0.0026159824
0.002888832
0.0021575405
0.0019059418
0.0016796553
0.0015467445
8.663658E-4
0.0011817507
-2.0027973E-4
-0.0022616328
-0.0023480412
-0.004048294
-0.0030735657
0.0011171129
0.001882167
0.0021787952
0.0031108304
0.0017735558
-2.6361988E-4
-0.0018803427
-0.0023510954
-3.222654E-4
0.0017090953
4.2470483E-4
-1.5475182E-4
0.0019075345
0.0022749368
0.0023326874
0.0022253296
-5.349333E-4
-0.0027990798
-0.0031261626
-0.0021184268
-9.6845004E-4
-7.9331576E-4
-1.5543454E-4
-3.8661668E-4
-0.0012620918
-0.0011279033
-0.0020064972
-0.001342527
0.0022226453
0.0025503524
-6.867518E-4
-0.0020597957
-8.708433E-4
8.771243E-5
-9.598515E-4
-0.002302503
-0.0017226102
-0.0011390565
-0.0016324504
-0.0014219248
-0.0011037199
-0.0017243166
-6.656638E-4
0.0024469078
0.0024010728
6.8082334E-4
0.0018463981
0.0020185313
0.0017261556
0.0022595848
8.021203E-5
4.4793363E-5
0.0027430675
0.0033950338
0.0046268823
0.005192317
0.0038107084
0.0031033044
0.0029087188
0.0046161506
0.0061529623
0.003632977
-7.371812E-4
-0.004794272
-0.008286298
-0.010347467
-0.00939915
-0.0063971174
-0.0036353345
-0.0016485528
-0.0018386777
-0.0020092914
-0.0018976599
-0.0038783744
-0.002082257
7.677001E-4
-0.0016329567
-0.0021516082
-0.0013638316
-0.0019278085
0.0015016791
0.0048493296
0.004797951
0.00514153
0.004614839
0.0020473995
0.0010170884
0.0019686872
0.001500671
0.0015968801
0.0035224159
0.003417471
0.003084825
0.0021022896
-0.0010369925
-0.0010928673
-9.902978E-4
-0.0039663264
-0.0043923464
-0.00207367
5.7276622E-5
0.0011103372
0.0011465979
0.0010559531
-2.733104E-5
-0.0015781717
-8.634572E-4
0.00155625
5.976871E-4
-0.0027804938
-0.0023197294
-6.3800334E-4
-6.093029E-4
-0.0012415879
-0.0027309104
-0.0017479126
-1.60964E-4
-4.885583E-4
1.584777E-5
-3.2420948E-4
4.4992837E-4
0.0023269774
7.271746E-4
2.8195416E-4
0.0013795601
4.9301574E-4
6.703479E-4
8.8833814E-4
-8.8637974E-4
-0.0018307213
6.187759E-4
0.00396296
0.0033188516
1.5057027E-4
-0.0014040223
-1.4595923E-4
0.0010437318
-3.8963748E-4
-5.410294E-4
2.5110767E-4
-0.0011700373
-0.0012683909
4.6103477E-4
9.0099784E-4
-2.249344E-4
-6.0521753E-4
4.274323E-4
-6.5848086E-4
-0.0023306392
-4.71691E-4
0.0018453547
0.0013836173
-6.591903E-4
-0.0025411483
-0.0026953216
-3.7017744E-4
5.6025205E-4
-0.0015029086
-0.0010085033
0.0012398496
0.0016264332
0.0015401187
2.2612805E-4
-6.748563E-4
-1.092521E-4
-5.6106027E-4
4.670957E-4
0.0030271807
0.0030986527
9.94077E-4
1.01981284E-4
0.0012054861
8.033361E-4
-2.4796274E-4
0.0012206336
0.001657812
-9.531025E-4
-0.0019398484
1.5501978E-4
5.1013025E-4
-0.0010930802
-0.0018226913
-7.693396E-4
0.00271092
-5.6950294E-4
-0.010680778
-0.009219353
3.937223E-4
0.0036449265
0.0033453996
0.0018951972
2.0828328E-4
-5.2139934E-5
-6.614361E-4
-0.0012483988
-0.0022734264
-0.0017944882
0.0022351728
0.0038421599
0.0016350613
0.0017879107
0.0031166272
0.0021491381
0.0025509042
0.0028942162
5.306551E-5
-0.0015360761
-0.0017529943
-8.6988934E-4
0.0016174114
0.0010480473
-5.5025925E-4
-0.0011456162
-0.0027816128
-0.0021193742
-4.1915305E-4
-8.557723E-4
-8.1675546E-4
-6.427309E-4
-0.0014557994
-0.0015170625
-6.664914E-4
4.4884885E-4
0.001428964
0.0012115472
-1.3195255E-5
-0.0013457974
-0.0021285315
-0.0013102179
2.0939416E-4
0.0015943144
0.0016869887
3.6567484E-4
0.0017350336
0.002488094
3.6712296E-4
0.0012506617
7.834764E-4
-0.0021627569
-0.0022220626
-0.002336281
-6.3354743E-4
0.0021381427
3.5788954E-4
-0.0012781253
-4.3864254E-4
7.432876E-5
-7.52829E-5
-3.689945E-4
-6.917967E-5
0.0011320175
0.0027098043
0.002016842
0.0011117841
0.0016222674
-2.5818366E-4
-0.0010885841
-5.888948E-4
-0.0010043441
2.0258412E-4
-0.0010860804
-0.001960006
5.4514024E-4
4.6405388E-4
4.135179E-4
-9.887909E-4
-0.0037512996
-0.0026297336
-0.0021211028
-1.2331447E-5
0.0028459427
5.631327E-4
-2.1170384E-4
3.911937E-4
1.27788335E-5
1.4437592E-4
-0.0013094184
-2.591211E-4
0.0024839889
0.00162001
-0.0015040409
-0.002939456
7.8733324E-4
0.0034855928
0.0027827614
0.0042901887
0.0047610532
0.004387106
0.002297565
-0.00461246
-0.005917804
-0.0013691335
-0.0012706615
-0.0019762167
-4.8615164E-4
-0.0016811512
-0.0027420763
-1.13637725E-4
8.17949E-4
1.4120838E-4
0.0012138266
4.6542284E-4
-5.577137E-4
2.0451641E-4
-6.9793896E-4
-0.0015138305
-8.521373E-5
0.0016843159
0.0021467765
0.0013984588
-5.215497E-4
-0.0031698912
-0.0028743776
-9.016292E-4
-8.5806573E-4
-7.68072E-4
2.0130974E-4
0.0018105408
0.0019607237
0.0012863235
0.0033523235
0.0014631635
-0.003936049
-0.0033043365
-8.3659135E-4
-4.5026364E-4
1.9676259E-4
4.8012444E-4
0.0010386184
0.002537813
0.0047846744
0.005351605
0.0035380318
0.002684001
8.7655033E-4
-0.0011316489
5.634122E-5
-5.107387E-4
-0.0038738202
-0.0049118497
-0.0032785255
-0.0019019446
-0.0011495162
2.2087774E-4
1.1765999E-4
-5.8132986E-4
3.883409E-4
-9.542763E-4
-0.0032724044
-0.0033236286
-0.0037773447
-0.0023435191
9.420847E-4
5.891747E-4
-3.4680555E-4
0.00102416
3.3455982E-4
-7.9655054E-4
6.863424E-4
0.0013346671
0.0021738275
0.0031283482
6.121785E-4
4.1304107E-4
0.0032017578
0.0028089883
0.0016327746
0.0014983204
0.0023624056
0.0026171482
1.1211838E-4
-9.769956E-4
-0.0015641083
-0.002289948
-5.468192E-4
-8.921416E-4
-0.0012667933
0.0013011291
8.446995E-4
-0.0018118189
-0.0011006375
0.0012990041
0.001391107
0.0017038625
-6.1910374E-5
-0.0042552883
4.9873404E-5
8.4362563E-4
-0.009677956
-0.007736706
0.0021299936
0.0027728295
0.002712034
0.003334255
0.001405801
3.0837517E-4
-1.005287E-4
-0.0010421001
-0.0017357845
-8.267033E-4
-0.0010676323
-0.002444025
-0.0017706268
7.9064856E-5
0.0024957063
0.0030224929
0.0023174847
0.0020215993
-9.087983E-4
-0.0021461265
-2.625781E-4
0.0010393149
0.0032360463
0.0035603947
0.0017594334
7.867743E-4
-5.154542E-4
-7.574064E-4
-0.0011021924
-0.0028762151
-0.0023967735
-2.4132569E-6
0.0018906335
0.0032611822
0.0029663793
9.26591E-5
-0.0029420634
-0.0039213104
-0.0027349025
-0.0014225595
-0.0015378315
2.5302102E-4
0.0017697413
3.10403E-5
0.0010090448
0.0014389667
-0.0013694463
-3.673102E-4
0.0013183627
9.875526E-4
-2.827661E-4
-0.0032785533
-0.0022892226
8.490693E-4
2.0503992E-4
-7.825563E-4
-5.428931E-4
7.730202E-4
0.0016903261
7.431783E-5
-8.499047E-4
-0.0010742927
-6.6162896E-4
0.0024702311
0.0027821243
4.6476282E-4
9.896066E-4
-5.715485E-4
-0.0037280344
-0.001976334
8.1218896E-4
0.0021005631
0.002991198
0.0022856055
0.0031321852
0.0043144072
5.9960864E-4
-0.003108913
-0.0030391414
-0.0026128832
-0.0014664498
-1.5984282E-4
-5.6862645E-4
-2.844104E-4
3.8632398E-4
8.864156E-4
0.0015879774
4.054222E-4
-4.3754966E-4
-7.811219E-4
-0.0017929289
-2.9830413E-4
-3.8880072E-4
-0.002881322
-0.0022820677
-7.869179E-4
7.280361E-4
0.0013112149
-1.3107221E-4
4.3203708E-4
0.001006676
1.3593004E-4
-1.278951E-4
-2.9935068E-4
5.62423E-4
0.0010179798
4.4892315E-4
-3.3509388E-4
-0.0019564652
-0.0020661624
-0.0012710906
-1.8402858E-4
0.0015386696
0.0017420844
0.0027599111
0.0031816722
0.001218639
9.018802E-4
8.339518E-6
-0.0016587724
-8.115814E-4
7.1586145E-4
0.001166847
-0.0015015986
-0.004825814
-0.0047669136
-0.002931752
0.0015555769
0.005467156
0.004140823
0.002917981
0.0021809144
-7.8452297E-4
-0.0021845747
-0.0016838455
-0.0010196379
-6.604271E-4
1.410226E-4
0.0016791942
8.573627E-4
2.8548093E-4
0.0012766715
1.7764656E-5
1.9730779E-4
8.487481E-4
-8.9781306E-4
-0.0010583486
-0.003109294
-0.006286208
-0.005114231
-0.0036114398
-0.0019859748
4.8921793E-5
5.239563E-4
0.0012134381
2.9108947E-4
5.215004E-5
0.0024274983
0.0016799151
5.594518E-4
0.0036278479
0.005528115
0.0037498546
0.002920937
0.002841448
0.0010378462
0.0014062114
0.0024546392
1.4301615E-4
-0.0019405244
-0.0013394902
0.0017159352
0.002960146
0.0010095055
-5.913149E-4
-0.004229661
-0.006276219
-0.0053658495
-0.006714544
-0.004451131
-0.0014894815
-0.0028268911
-0.0013347346
-4.3886722E-4
-0.002383057
-0.0018895391
-9.500031E-4
-0.0013473857
1.8573525E-4
0.004054537
0.0042602248
0.002814823
0.0047659827
0.005475131
0.0047472054
0.0037375982
0.003873169
0.0059022964
0.004765263
0.0027000944
-0.0021205645
-0.0046183937
0.0025228623
-0.001829144
-0.011170822
-0.0029903734
0.002947298
-4.1575768E-4
-0.0022709973
-0.0037607418
-0.0023818794
-5.794517E-4
-8.1098545E-4
-0.0011748774
-0.0021357134
-0.003037159
-0.0045614336
-0.004159835
-0.002366939
-9.3584484E-4
9.882823E-4
-1.3756349E-4
-3.5418994E-5
0.0019990483
0.0028519626
0.0072362917
0.008303514
0.0054403227
0.005555993
0.0023996602
-0.0022739293
-0.0046636327
-0.0056873076
-0.00199704
0.0030725468
0.005304289
0.0038276166
3.7994486E-4
5.2117E-4
0.0029087844
0.0034212398
0.0020754985
3.285876E-4
-0.0013341474
-0.004227454
-0.006699174
-0.006248968
-0.004836812
-0.00581893
-0.007480357
-0.006282199
-0.0040516583
-0.0018719697
5.509656E-5
4.171347E-4
3.0644808E-4
4.0858673E-4
0.0014932166
0.0019064718
0.0021441553
0.004554486
0.00395259
0.0024381904
0.0033909983
0.0033127812
0.005400644
0.006341207
0.0050434805
0.0067513892
0.0049707857
0.0012810973
7.338139E-5
-0.0026103968
-0.004016466
-0.0046974793
-0.0063800495
-0.00817651
-0.010056408
-0.0073596193
-0.004360676
-0.0068282676
-0.008604908
-0.0061781667
-0.0035600981
-0.003949241
-0.001882499
0.0026200572
0.0026161822
0.0043076207
0.008488213
0.008511291
0.007669321
0.006942215
0.0069117034
0.0075334916
0.005624094
0.0045578894
0.0052230028
0.0046142465
0.0011685997
-0.00426143
-0.006467628
-0.005351381
-0.0064240946
-0.011373575
-0.013035039
-0.0072722714
-0.0030038902
-0.0019267957
-0.0010345315
-0.0018049389
0.0019065657
0.008850089
0.012196579
0.014463724
0.014035166
0.0093594855
0.0041858763
0.0023114716
0.004882675
0.0033148048
-0.0060307565
-0.015589978
-0.021837514
-0.024549084
-0.024063842
-0.02011812
-0.0126255015
-0.0030938564
0.007977108
0.018041067
0.029239686
0.03993078
0.038823288
0.031889662
0.025461564
0.011044882
-0.0030241946
-0.0076857503
-0.011643545
-0.015224257
-0.013307864
-0.012682278
-0.018653268
-0.028003901
-0.0407335
-0.046836063
-0.030951545
-0.002528444
0.022929782
0.03201818
0.015744252
-0.0030883728
-0.008829531
-0.009064028
-5.6252896E-4
0.0057810843
-0.003875723
-0.009861007
-0.0020778412
0.00939957
0.02520604
0.03405927
0.026867993
0.02690282
0.032257736
0.02702352
0.02746713
0.022000123
-0.0033444166
-0.026255446
-0.04577323
-0.050831165
-0.032884695
-0.02506362
-0.026259266
-0.022165583
-0.023154408
-0.016508147
0.008762486
0.03143356
0.032281253
0.019148909
0.004855414
-0.003136032
0.0074946405
0.028355535
0.040374335
0.037688088
0.021627897
0.0056479475
-0.01384557
-0.043136995
-0.057198364
-0.04580964
-0.01490803
0.017146226
0.02255361
0.014229374
-0.0011590682
-0.021938732
-0.012236602
0.002450619
-0.0018332255
0.022809274
0.047171827
0.03519164
0.023981158
-1.0033136E-4
-0.020821415
-0.0045242957
-0.004922342
-0.019490443
-0.027244437
-0.057604287
-0.08756951
-0.09574687
-0.07349161
-0.018642325
0.034065932
0.07342833
0.09026589
0.09812696
0.109759435
0.07858739
0.022505937
-0.019333325
-0.05317125
-0.06405321
-0.049368847
-0.018220544
-0.002365382
-2.1515215E-4
0.049322408
0.112707965
0.12161536
0.06518386
-0.019198876
-0.07053421
-0.106307015
-0.12421257
-0.10338225
-0.0805004
-0.030618276
0.045280457
0.11109001
0.14090332
0.06992785
-0.047836557
-0.12754732
-0.15523063
-0.11080119
-0.058602817
-0.003937423
0.104175866
0.17914489
0.19432515
0.18800926
0.14175871
0.07216187
-0.013329472
-0.11271085
-0.18939964
-0.23090273
-0.216238
-0.13435638
-0.04005103
0.031098433
0.087981425
0.10594249
0.07023584
0.026026055
0.020909943
0.052440964
0.07995413
0.112693354
0.12725447
0.03642356
-0.07182555
-0.0919365
-0.07851249
-0.04725627
-0.03514851
-0.041875802
0.023493161
0.08430521
0.07466402
0.05176636
0.01217262
-0.037880357
-0.09216922
-0.12575762
-0.10556916
-0.07901971
-0.009041593
0.08421726
0.062654644
-0.005183086
-0.038490806
-0.0770688
-0.06771575
0.01178069
0.08864902
0.122446105
0.15548201
0.21613216
0.19452138
0.06593271
-0.038712505
-0.09401477
-0.1254048
-0.13389829
-0.13951626
-0.11764578
-0.076269075
-0.043291073
0.0050556664
0.045485254
0.06674737
0.07307081
0.021045908
-0.04006053
-0.046127684
-0.04344223
-0.061146345
-0.078502916
-0.062258333
-0.019443363
0.0043979045
0.042723186
0.10032773
0.079110034
-0.0075444104
-0.05854293
-0.060827285
-0.034708835
-0.0062578744
-0.01915114
-0.044999115
-0.03547476
-0.019947847
-0.020716382
-0.009531204
0.025651027
0.06437866
0.09437532
0.11040927
0.076730855
-0.0052601313
-0.051224105
0.0066849766
0.14263257
0.24492119
0.24255238
0.16592583
0.03574477
-0.10035598
-0.15878698
-0.16026191
-0.15109852
-0.11903501
-0.08707507
-0.078278854
-0.05662929
-0.034534644
-0.047154218
-0.04262593
-0.023376772
-0.055411823
-0.1058611
-0.14240892
-0.15960595
-0.12807217
-0.06943848
0.010241091
0.09168664
0.11050255
0.11671386
0.15558994
0.1552337
0.118159056
0.10836323
0.10287408
0.07437581
0.06218897
0.056064077
0.024433164
0.024998633
0.054921333
0.023208877
-0.036129206
-0.053233597
-0.0670088
-0.06795332
-0.016613835
0.011676468
-0.02988802
-0.07156437
-0.067511365
-0.04440534
-0.033506416
-0.03291718
-0.0373117
-0.04860407
-0.055239055
-0.050966192
-0.03220111
-0.0034155906
0.018328559
0.03764054
0.051535442
0.05373972
0.054990612
0.043009944
0.025039323
0.024801148
0.024970371
0.018445283
0.015245043
0.011776428
0.007752781
0.0041139736
0.005157654
0.010364225
0.010443658
0.0058803535
-0.0039592856
-0.015808951
-0.018571747
-0.018652752
-0.024590775
-0.027361877
-0.020363893
-0.00951735
-0.0017307498
0.0022495957
0.0019525965
-5.263499E-5
0.0028451183
0.008096572
0.0057928637
-0.0023189557
-9.693856E-4
0.008066356
0.0098328255
0.0077375947
0.0038986588
-0.0046186703
-0.0066861967
0.0049586957
0.022360614
0.02542906
0.011705487
0.0035229234
3.3004588E-4
-0.0062356717
-0.008189959
-0.010157962
-0.0154908495
-0.015492974
-0.012580741
-0.013279264
-0.013108933
-3.7366262E-4
0.019813286
0.025935674
0.02518342
0.02892957
0.020817604
0.009518431
0.0015336473
-0.016909733
-0.02401129
-0.018731685
-0.016989077
-6.176795E-4
0.0131288385
0.0023065598
-0.011355169
-0.015321266
-0.014915693
-0.023067039
-0.029122476
-0.013681698
0.006920065
0.024309019
0.034144692
0.027058596
0.0187176
0.018156592
0.029206594
0.055270486
0.07464552
0.06760191
0.04651928
0.039921157
0.04230588
0.028469648
0.012539795
0.008078544
-0.0012990523
-0.018428303
-0.033174407
-0.04169196
-0.043034226
-0.03763901
-0.030713303
-0.027365055
-0.027310824
-0.03547227
-0.051972937
-0.061348844
-0.059201706
-0.054610536
-0.04953108
-0.043428846
-0.041661475
-0.046296
-0.050430052
-0.053807475
-0.059586693
-0.060795356
-0.055824142
-0.050799195
-0.049912654
-0.04833683
-0.035111856
-0.014958225
0.0060982243
0.0277603
0.045780707
0.065473385
0.08561158
0.104240336
0.12237389
0.13403232
0.15221502
0.17097746
0.17722474
0.182364
0.17077743
0.15139763
0.14429519
0.12754387
0.09728803
0.053848445
0.03239671
0.032620978
-0.047845017
-0.16263922
-0.19628216
-0.19539924
-0.20596598
-0.21945776
-0.21915549
-0.1978599
-0.19526656
-0.20765755
-0.20606981
-0.18658522
-0.14305264
-0.09556183
-0.05222377
-0.012391414
0.01394987
0.044804055
0.07566455
0.09125031
0.10350512
0.115530595
0.13073328
0.14758639
0.15224147
0.1429991
0.13035043
0.12306068
0.11399279
0.09411147
0.0681667
0.04750282
0.035615683
0.021437433
0.004531265
-0.006883414
-0.015018576
-0.022028182
-0.026825367
-0.025186263
-0.020150548
-0.020806063
-0.023773473
-0.024896303
-0.024267856
-0.02338285
-0.023812324
-0.02265814
-0.024933653
-0.031023135
-0.032069277
-0.030721778
-0.030343788
-0.03231364
-0.03687572
-0.037599154
-0.036383245
-0.03620172
-0.032486524
-0.02549858
-0.017894346
-0.011842707
-0.009694605
-0.0068270694
0.0021335578
0.009295171
0.009641836
0.012282034
0.018396383
0.025300376
0.030442715
0.024947213
0.020828828
0.026669819
0.025728365
0.019527925
0.010416282
-4.6373348E-4
0.0065240115
0.01983778
0.020293865
0.016963849
0.0117425155
0.0068730204
0.006839126
0.008498439
0.012013687
0.014899478
0.01505075
0.009243649
-1.2043507E-4
-0.0015679451
6.0605165E-4
0.002735336
0.008090015
0.007872123
0.0025032386
0.0011942047
0.0038738758
0.0045630285
7.770359E-4
-2.9271167E-5
0.0019038304
8.75581E-4
0.0016557081
0.0025483891
-6.656836E-4
-0.0015801088
0.0014854341
0.0030002445
0.0037311413
0.0072780186
0.008415928
0.0034395873
-0.0017800479
-0.0022836488
9.6407195E-4
0.0013371976
-0.0011518283
-0.0013454966
-0.0042609316
-0.007894068
-0.006100021
-0.0058255973
-0.00576939
-3.3482554E-4
0.0030685714
5.21859E-4
-0.0019971095
-7.6151337E-4
-3.3045642E-4
-0.003400259
-0.0045611453
-0.0022750744
-1.1080511E-4
0.0013746299
0.0039081047
0.005307633
0.003093575
0.0021960796
0.0014657137
-0.002268099
-6.6148816E-4
0.0024665578
-0.0024501106
-0.0062019117
-0.0038982786
-0.0016220483
-3.0466943E-5
2.6510647E-4
-0.0013441107
-0.0020916485
-0.003023808
-0.004944209
-0.003566571
-6.3562E-4
-5.750603E-4
2.7997452E-5
0.0012602747
4.903951E-4
7.8512414E-4
0.0017236166
0.0015026551
0.002837336
0.004523886
0.0024942616
-5.8765226E-4
-9.7276684E-4
-6.327247E-4
4.4100118E-4
0.0011555245
-0.0011780929
-0.0019137821
-0.0015416482
-0.0032258888
-0.0028668172
-0.0020278015
-0.0017047393
-6.75214E-4
-0.0018355841
-0.0023078003
-0.001745047
-0.0016612075
-2.7312894E-4
-0.001628329
-0.004028288
-0.0028013368
-0.0012219733
-6.523127E-4
-1.0686776E-4
0.0019104114
0.0030102732
9.879627E-4
4.6836268E-4
-5.3053856E-4
-0.0015553641
4.841461E-4
3.009572E-4
0.0018497373
0.0035330148
-8.2760316E-4
-4.4498153E-4
0.0022714725
-9.055974E-5
-9.454224E-4
-0.0015710063
-0.0015587435
3.1255948E-4
-6.799889E-4
-0.0017209871
-0.0015456788
-0.0011384896
-2.8974135E-4
-0.0015403775
-0.0028973196
-0.0011838692
0.0017334927
0.0017202545
2.5367845E-4
1.3625751E-4
-0.002642385
-0.004193939
-0.0013830207
-0.0018621885
-0.0024802983
1.7871967E-4
0.0014191966
0.0019745189
0.0014991636
5.850782E-4
0.0012245969
0.001011304
3.905349E-4
-5.347735E-4
-0.0024355908
-0.0023599444
-5.069669E-4
0.0013934086
0.0028447288
0.0011924858
-0.0018847206
-0.0014575612
-0.0010861708
-0.0029173787
-0.002562093
-0.0014892792
-3.532354E-5
0.0015855267
-2.9402133E-4
-0.0016454947
-0.0014574993
-8.7172876E-4
0.002003535
0.0025715644
0.0012204108
2.7663942E-4
-4.218668E-4
6.9322507E-4
-3.5290912E-4
-2.4169582E-4
0.0016923536
-6.398364E-4
2.2654029E-4
0.00152793
-0.0010337975
7.7713287E-4
8.6864753E-4
-0.00191223
-7.9300604E-4
6.7190133E-4
9.1507554E-4
-9.0414507E-4
-0.003934201
-0.005405429
-0.0023016292
0.0028256685
-0.00302177
-0.010098147
-0.0034502165
0.0023483895
0.0014240517
2.0768079E-4
-4.806265E-4
9.0300303E-4
9.2033617E-4
5.108705E-4
0.002150119
0.0022649402
0.0031394614
0.0045471787
0.004426085
0.005328063
0.004849511
0.0017488496
-9.6189947E-4
-0.002902797
-0.003929054
-0.0027442419
-2.3361789E-4
-7.183414E-4
-0.00429901
-0.004190345
-1.07021086E-4
0.0017586785
0.0014113615
4.406533E-4
-0.0017852248
-0.0027938539
-0.0023599109
-0.003276385
-0.003967743
-0.002361173
-7.8129896E-4
-4.1510368E-4
2.968763E-4
1.4440941E-4
-6.1416917E-4
4.7251632E-4
0.002098042
0.0041835876
0.0048489934
0.0016631704
-8.3979784E-4
-0.0013549674
-8.667544E-4
-4.1237206E-4
-0.001706966
-0.0018897133
-0.0033856877
-0.0047071828
-6.0625543E-4
0.001475642
0.001543267
0.0028871503
0.002281117
0.0029691358
0.0034541248
0.0035228531
0.0053303745
0.0037216437
0.0012764179
-7.651234E-4
-0.0044637118
-0.0047699753
-0.0024125688
-0.0010659125
3.1104666E-4
0.0022216553
9.1881247E-4
-0.0034148844
-0.003177589
-6.678248E-4
-0.0014260979
-0.0030400683
-0.004365138
-0.0032531135
-7.999783E-4
1.722094E-4
0.0018136568
0.0025245906
9.422645E-4
-0.0015548193
-0.0026821117
-8.5417065E-4
-8.79656E-4
-9.847205E-4
0.0029980459
0.0039739977
0.0014331839
0.0013655068
0.0015645174
-8.464244E-5
-6.7038933E-4
3.0255908E-4
5.24091E-4
6.5809337E-4
2.1905651E-4
-0.0012559183
5.406621E-4
0.0016353489
-0.002058951
-0.0016442889
0.0022184516
0.002528793
0.002790383
0.0016786538
-0.0018103485
-0.0010005755
0.0016389615
0.0014064336
-4.6564764E-4
-0.0021227659
-2.3012652E-4
0.0020484957
-7.432538E-4
-0.00379747
-0.002995633
-0.0015381436
-0.001999745
-0.0033689013
-0.003464295
-0.0015990746
4.4526276E-4
6.0723984E-4
7.1936066E-4
0.001718666
0.0013390913
8.372449E-4
0.0014144916
0.001877657
0.0016502909
0.0016886253
0.002946373
0.0021944172
1.1031473E-4
-1.2819425E-4
-0.0011808921
-0.0018949488
-0.0013369818
-9.7100163E-4
6.164174E-4
7.222024E-4
3.996271E-5
3.6521337E-4
-0.0018700358
-0.0033902198
-0.0019775624
-7.7651686E-4
-3.4103706E-4
-0.001617196
-0.0012591714
0.0016311447
9.199707E-4
-5.458338E-4
6.183526E-4
1.5766124E-4
6.436176E-4
0.003984129
0.0037533117
4.4193718E-4
3.785592E-4
0.0028496333
0.0028376563
-1.9761927E-4
-0.0023703186
-0.0026418199
-0.002425654
-0.0022374631
-0.003228729
-0.003948832
-0.0025119188
-0.0011597422
-8.846543E-4
7.613837E-4
0.0034473296
0.0025921287
1.1569901E-4
8.238113E-4
0.0013846748
0.00147206
0.0014100516
-0.0011619715
-6.4668164E-4
0.0029742888
0.004391648
0.004319518
0.0023238633
-3.7032973E-5
-0.0012717114
-0.0017009738
-2.765949E-4
-5.31633E-4
-0.0025071094
-0.003667619
-0.0044109523
-0.002423433
-6.1390206E-4
-0.0011173245
-4.139654E-4
-0.0018725643
-0.004000213
-2.8284584E-4
0.0010996049
-0.00499216
-0.0055040666
0.0015791132
0.0043711127
0.004405194
0.0045252456
0.0014372682
4.6513267E-4
0.0026424008
0.0035513309
0.0027403322
-5.9338764E-4
-4.4143916E-4
0.0051300935
0.005975927
0.0010879777
-0.0037817177
-0.0055297464
-0.0032286674
-0.0017539306
-0.0016372601
-7.204756E-5
-4.5213965E-4
-0.0022685917
-0.0015722704
1.312468E-5
1.8258508E-4
8.9372724E-4
0.0028014684
0.0015744991
-0.0013240371
-0.001538713
-0.002388083
-0.0030626024
-7.957882E-4
6.6588254E-4
5.41994E-4
2.2673022E-4
9.3253166E-4
0.0017423964
0.0011636019
0.0026291516
0.0028502364
-1.388331E-4
8.327185E-4
0.0024273691
6.4857205E-4
-3.6030868E-4
-8.158498E-4
-0.0011277565
-0.0013791238
-0.0024666504
-0.0032070228
-0.002483058
3.2070422E-4
0.0021908379
0.0012618812
1.5103912E-4
-3.6237753E-4
7.593981E-5
5.191584E-4
-0.0010645556
-0.003039811
-0.0030652378
-0.0011531493
9.327868E-4
0.0015522834
2.928867E-4
-8.025621E-4
6.977891E-4
0.0018388598
0.0014189373
0.0027145122
0.0035843954
0.0023871246
0.0020040886
0.0015685259
8.1317686E-4
9.816987E-4
-0.0010704575
-0.0032028577
-1.8320505E-4
0.0017289656
-0.0014084247
-0.0024134582
-1.6969419E-4
-6.24701E-5
-0.0031000385
-0.004496437
-0.0017903992
4.861586E-4
9.4962306E-4
6.314381E-4
-5.609673E-4
1.00294805E-4
0.0011909759
4.0356387E-4
-5.837902E-4
-0.0015281765
-0.0013209416
-9.5942523E-4
-0.002454303
-0.002449547
0.0016368844
0.006398062
0.0062468536
0.0035077438
0.0040219342
0.0047302395
0.002094553
-0.0026704601
-0.0069362903
-0.0074451747
-0.0046431427
-0.0011400197
3.6533567E-4
1.3783001E-4
0.0013690424
0.0021206825
0.0012889492
0.0018805646
0.0018729358
-0.0014369056
-0.0030742928
-1.7733444E-4
-6.391926E-4
-0.0034403263
-3.8574013E-4
6.240874E-4
-0.0016224744
0.0010608506
0.002187831
0.0012198807
0.0025372421
0.0029350794
0.0037952932
0.0027987382
5.1471597E-4
0.0011333383
-0.0016565424
-0.0037281495
-3.24658E-4
-1.8037464E-4
-0.0015142398
-0.0012764835
-0.0010607514
4.1874964E-4
-2.4968808E-4
-0.0019300217
-0.0018673074
-0.001667142
-8.604436E-4
-4.1189842E-4
7.73877E-4
0.0021184424
7.7627064E-4
-4.0308334E-4
-0.0010025678
-0.0011046845
-2.3483769E-4
-4.3780523E-4
-5.701538E-4
-3.5636706E-4
3.7419482E-4
0.0014035079
0.0014610292
0.0019900377
0.0011913845
-1.874485E-4
2.9544835E-4
1.005973E-4
1.2163804E-4
5.208746E-4
8.661219E-5
-6.397294E-4
-0.002008643
-0.0014451662
6.5906346E-4
0.0016016193
0.00104067
-0.0013527545
-0.0013763258
8.3292957E-4
-2.1149663E-4
-0.0010526675
8.498307E-4
0.0012753177
7.178645E-4
5.4372486E-4
7.0279423E-4
0.0026408175
0.0015866581
-0.002058359
-6.0404243E-4
8.207666E-4
-1.5500624E-4
6.388517E-4
7.9765345E-4
6.100833E-4
-4.3305074E-4
4.9489475E-4
0.0010748691
-0.0037024552
-0.0015876302
-0.0024485034
-0.011577271
-0.0044520427
0.0036790948
6.0312677E-4
0.0030477545
0.003733222
0.0019629842
6.750282E-4
-0.00328396
-0.0022854232
-1.1971112E-4
3.472083E-4
0.0010552749
0.0015810647
0.003184486
0.0011327461
1.0738344E-4
0.0021828518
0.0017996893
0.0018459386
5.759079E-4
8.1175624E-4
0.0023271416
-9.3695614E-4
-0.0016018496
-0.0011783551
-0.0020726947
-4.0317498E-4
-7.82807E-4
-1.5928825E-4
0.0016004526
-2.3055171E-4
-0.0014803829
-0.0011045022
-2.2227621E-5
2.1809734E-5
-0.0010314714
4.7366077E-5
0.0013393747
0.0017100609
0.0011427334
4.7161474E-4
6.83756E-4
-0.0016846249
-0.003915247
-0.0019018663
1.8556243E-4
-1.3035725E-4
-6.746268E-4
2.4213357E-4
0.0018991092
9.790068E-4
-0.0033738131
-0.0035423462
9.0250577E-4
2.780305E-6
-0.0016780345
5.3402408E-5
-9.817814E-4
-1.8355492E-4
0.0021782357
0.0011594704
0.002467175
0.005317961
0.004577348
0.0018193993
9.812977E-5
-6.124975E-4
-0.0024149867
-0.0024561551
-7.0835464E-4
-0.0016582712
-0.0019378403
6.699197E-4
0.0022385102
0.0011343576
-3.2227553E-4
4.1929714E-4
1.5597875E-4
-0.0012933278
7.2964525E-4
0.001928444
-2.7167329E-4
-8.8112627E-4
-0.0013979941
-0.0032211463
-0.0027360502
-9.587976E-4
-2.715476E-4
7.4076076E-4
0.0020732789
0.0010228205
-0.0012206929
-0.0016053271
-0.0016475836
-0.0015574577
-2.4478612E-4
-1.7167543E-4
-2.2956083E-4
0.0014752161
0.0014549494
-3.171295E-4
-5.353427E-4
2.8949062E-4
0.0010853063
0.0018867826
0.0022049272
0.0021560183
0.0017835367
0.0011252956
0.0019384333
0.004178851
0.0037089651
2.1810005E-4
-8.8329415E-4
-2.1238142E-4
-0.0018228153