-0.0023060015
-0.0044119353
-0.0036946556
-0.0017840004
-0.0015666735
-0.0015897418
-0.0037818814
-0.005683609
-0.0032137895
4.989795E-4
0.0019668553
0.0016599498
0.0013981765
0.0014859381
0.0022928284
0.0026687754
0.0017744795
0.0019374477
5.2234856E-4
-0.0018962544
-7.9282676E-4
-4.2259754E-4
-2.2415532E-4
0.0029482595
0.0046565346
0.0049861413
0.005166913
0.0041104592
0.0021241999
-3.277653E-4
-0.001561148
-0.0019388731
-0.001877739
-0.0012273644
-9.869515E-4
-9.293905E-4
-0.0012379691
-4.076398E-4
-0.0012427539
-0.005157505
-0.0037174835
-7.169393E-4
-0.0022768301
-0.003084208
-0.0030230011
-0.0014532265
-7.258972E-4
-0.0014811979
0.0011422627
-0.002096675
-0.0061717005
0.00174418
0.0066785235
0.0037891564
0.0021594798
0.0011182139
0.0018418009
0.0017870913
-6.2831E-5
0.0013157864
0.0037169699
0.0048181047
0.004325948
0.0038609295
0.0058730077
0.004278093
-0.0018970405
-0.005338017
-0.006758964
-0.0065456177
-0.002928998
-0.0013386003
-0.0014775269
5.956032E-5
-9.436289E-4
-0.0025259934
-6.9807144E-4
5.1178114E-4
-3.6966288E-4
-0.0016574678
-0.0014633406
3.7280185E-4
0.0010677765
0.0012590401
0.0012478842
1.8083683E-4
-4.227719E-4
-9.912815E-4
-8.5529505E-4
6.6907855E-4
0.0012535374
0.0015213275
0.0024601175
0.0021560297
7.724514E-4
1.5720693E-4
-3.787141E-5
1.4949816E-4
-2.0830965E-4
-0.0033239366
-0.0034159857
0.0010053798
7.1863545E-4
-8.2499016E-4
0.0018121824
0.0021702177
4.7464392E-4
2.673466E-4
0.0012667893
0.002268434
1.06633815E-4
-0.0024282788
-0.0020657436
-0.0015791211
-6.512686E-4
4.9507763E-4
-1.6593667E-4
-6.0962787E-4
4.0083166E-4
0.002189163
0.002334112
-0.0010513517
-0.003870918
-0.0040919567
-0.0027456002
0.001065569
0.0028656381
1.853006E-4
-6.6829484E-4
6.578051E-4
3.1704447E-4
8.2515005E-4
0.0029200958
0.0026819773
0.0011461088
0.0011617059
3.5974436E-4
-7.1476854E-4
5.215964E-5
-3.1117626E-4
-7.121682E-4
1.8584133E-4
-5.1925983E-4
-8.5123215E-4
-6.3543033E-4
-0.0014270413
-0.0012104157
-0.001124023
-9.149042E-4
3.3119085E-4
8.6256885E-4
7.079401E-4
-9.182438E-4
-0.0017696671
-2.804303E-4
4.2710794E-4
6.5474136E-4
-3.259722E-4
-0.0014317525
-2.6705526E-4
9.0401125E-4
0.002872195
0.0028789542
3.4289397E-4
0.0010133439
0.0013828352
0.0010473542
0.0023536198
0.002502958
0.0024082526
4.7137027E-4
-0.0021298057
-0.002961692
-0.0033687819
-0.001260719
-6.419565E-4
-0.0019965577
-0.0019413439
-0.003494634
-0.0031600555
-0.0027321072
-0.003910246
-7.688589E-4
0.0014225574
0.0020047089
0.004065496
0.0042568184
0.0024333254
-0.0012321648
-0.0013003177
2.2623854E-4
-0.0024338043
-9.664898E-4
0.00187045
0.0025788313
0.0059916144
0.0058110445
0.0029772276
0.0025999206
0.0025740424
1.8090534E-5
-0.005665749
-0.00497135
-2.0570173E-4
-9.986967E-4
-2.4530297E-4
9.22184E-4
-0.001689792
-0.0013742549
0.0013903248
0.0027943698
9.5959584E-4
-0.0021451626
-0.0025255852
-0.002630947
-0.0035271272
-0.0030524563
-0.0015014677
-0.0013218977
-0.0012479676
0.0019183982
0.0018231266
-0.0024731932
-0.0022353104
7.4473646E-5
3.1754706E-4
1.4122119E-4
-6.391405E-4
-2.94687E-4
0.0012639561
7.316553E-4
-8.3495333E-4
-2.0347186E-4
0.0012383622
0.0018626294
0.0035432493
0.005803965
0.0064490433
0.005432728
0.0049437215
0.003960364
-7.129404E-4
-0.002945474
-0.0012345654
-0.002584126
-0.0026873203
-4.2658392E-4
-0.0011392749
-0.0024873784
-0.0027696798
-7.0251746E-4
0.0010657791
-2.3408115E-4
-3.4160836E-4
-0.0040901233
-0.010324129
-0.00760745
-0.0016809566
1.9303315E-4
8.9948263E-4
0.0014791337
0.0020686581
0.0014725088
0.0010873013
0.0025364347
0.0025267885
6.6162494E-4
-0.0011388055
-0.0012989123
4.6636804E-4
0.0019179025
0.0031025668
0.0040217587
0.0028059953
0.0012656373
0.0028061029
0.0048239334
0.0028864618
2.4537244E-4
-6.50284E-4
-0.0030627467
-0.0052995738
-0.0047057616
-0.0033177861
-0.0013798722
0.0012055314
0.0021526406
0.0016345875
0.0014796647
3.5441172E-4
-0.001688115
-0.002392159
-0.0032766508
-0.0042252694
-0.0030774516
-0.0019717056
-0.0015443725
-8.686762E-5
0.0016007905
0.002429445
0.0020886257
3.4999102E-4
-7.283262E-4
0.0013686724
0.002657821
2.8349776E-4
-2.1036797E-4
0.0011596581
9.63594E-4
0.0019413795
0.0037021094
0.004348411
0.0040329383
0.002277868
0.0011362017
-5.515069E-4
-0.0034016678
-0.002409105
-9.838108E-4
-0.0030113899
-0.0026176737
-2.960004E-4
-1.3242755E-4
-6.962875E-4
-0.0019101268
-0.0027634485
-0.0015283487
-9.830564E-4
-0.002238593
-0.002928103
-0.0025079243
-0.001500621
3.3039857E-6
3.355635E-4
-3.4284146E-4
0.0012819541
0.0034379796
0.003005493
0.0016217559
-4.8087764E-4
-8.8932604E-4
0.0026734543
0.004978015
0.0042932266
0.0030561842
0.0023633507
0.003025202
0.0019774376
-8.88389E-4
-0.0024322018
-0.0032993164
-0.0023350194
-1.6476968E-4
-3.6183296E-4
-0.0016605642
-0.0015334792
-8.443208E-4
-0.0015525796
-0.0022870435
-0.0018042146
-0.0019977256
-0.002516184
-0.0021975914
-3.572209E-4
0.0019316095
0.0021447972
0.0013993982
-1.757828E-4
-0.001712865
-4.07956E-4
0.0011965545
8.444529E-4
-7.556742E-5
8.5621147E-4
0.0022142138
3.4499957E-4
2.5533784E-5
0.0025441183
0.0029646251
0.0032336563
0.002447263
-0.0013373484
-0.003606649
-0.0032456073
-0.002971821
-0.0029822
-7.2760874E-4
0.0022260733
0.0023294631
0.0012463579
5.7377917E-4
0.0012672509
0.0025187698
0.002248235
0.0017723703
-4.1818985E-5
-0.0013535735
8.08609E-4
0.001267137
-2.1132738E-4
-6.5829075E-4
-0.001603445
-0.0024041303
-0.0022251746
-0.002144847
-0.0032018323
-0.0030956347
-0.0014217832
-0.001723365
-6.5551844E-4
0.001201657
-8.8934135E-4
-0.0019538067
-4.321635E-4
0.0011932425
0.0015412224
-2.609932E-4
-2.7812945E-4
3.216351E-4
8.789267E-4
0.0033011101
0.0023045545
7.874751E-4
0.00302195
0.003212913
0.0016071391
0.0028186226
0.0057243165
0.0038018862
-0.0027258587
-0.005287774
-0.0026362136
0.0013899854
0.0010152728
-0.0035499036
-0.0038156244
-0.0031008965
-0.0043742503
-0.0033547718
-0.0020304008
2.382568E-4
0.003417739
0.006202418
0.0076195593
0.003919777
6.504952E-4
-5.3264666E-4
-0.0037186707
-0.004666033
-0.003518563
-8.160965E-4
0.002340874
0.0010626166
-0.001042794
-0.0011753619
5.221492E-4
0.0014555571
-0.0017561871
-0.0016975302
5.618137E-4
-0.0034441834
-0.006378817
-0.0026444078
-2.8168664E-5
-0.0011218023
-1.4993714E-4
0.0017303614
0.002061188
0.0032421655
0.0023782658
4.9674074E-4
6.974852E-4
0.0016962576
0.0037353088
0.002347385
9.0578175E-4
0.003680547
0.0027512372
0.0018286485
0.0015961063
-0.00246015
-0.0022819673
-0.0012389481
-0.002827166
-0.0015637275
-6.3308195E-4
-1.10024754E-4
-9.250405E-5
-0.001492309
-1.749886E-4
5.764937E-4
-0.0014704828
-0.0018783652
-3.21039E-4
7.175078E-4
0.0011430864
0.001251091
3.0266696E-5
-7.845838E-4
-0.0012884805
-0.0022755782
-0.0011592379
-2.833757E-4
6.087616E-5
0.001045322
4.060806E-4
9.12881E-4
0.0015331256
9.685817E-4
0.0014644717
4.7651833E-4
-1.6266572E-4
-0.0013674877
-0.004222311
-0.002575796
-9.921133E-4
-0.0017270346
3.5740592E-4
0.001533722
4.6009288E-4
-4.0162122E-4
-2.9174963E-4
5.411048E-4
-4.349243E-4
-0.0015293506
1.3508866E-4
0.0033232686
0.0041976417
0.0012967214
3.2224684E-4
0.00193341
9.59706E-4
-1.18537784E-4
6.8019156E-4
3.2991523E-4
1.0581836E-4
0.0012704519
0.0019321871
0.0020947824
8.508832E-4
-9.604229E-4
-9.1399753E-4
-0.0015925393
-0.0014341116
3.9214263E-4
-0.0014270312
-0.0028109767
-0.0016976171
-0.0029784648
-0.0034099193
-0.0016902997
-3.6708752E-4
8.758311E-4
0.0019052391
0.0025995655
0.0012525023
-0.0015451085
-0.0027739615
-0.0014947992
0.002091512
0.0031976197
4.5079578E-4
-0.0011986599
-0.0016202667
-0.0011457903
-5.970964E-4
-0.001757497
-7.381829E-4
0.002432481
0.0032514073
0.0020683387
9.5045153E-4
8.9851435E-4
5.988571E-4
-9.2642236E-4
-0.0013802474
-4.0453573E-4
9.133686E-4
0.0024137958
0.003409458
0.002420585
-0.0011076701
-0.002861988
-0.0010413787
4.4269252E-4
0.0014038602
8.1806036E-4
-0.0017585186
-0.0020714693
-0.0012709185
-7.5111596E-4
-3.086565E-4
-0.001681063
-0.0018491314
-5.3569576E-4
-8.7318453E-4
-0.0018146132
-0.0017668772
0.0013267711
0.004519958
0.0028041059
2.7906557E-4
6.0593775E-5
-1.8369172E-4
-8.0805947E-4
-4.9799733E-4
0.0010758648
0.0010743847
-5.5964914E-4
4.9125764E-4
0.0020096751
-1.8085941E-4
-0.0013994542
3.5461877E-4
-3.257774E-4
-0.0015608554
-3.8544578E-4
-4.5718334E-4
-1.7699368E-4
0.0018269053
0.0020611829
0.0016530814
0.0025801987
0.0029837936
0.0014982094
4.7736533E-4
-4.0296625E-5
-0.0020276802
-0.0028436282
-0.0033372287
-0.00416506
-0.0030605886
-0.0030406404
-0.0030118187
-0.0024300872
-0.0024720668
2.9643578E-4
0.0013680243
3.9921104E-4
0.0010787194
-8.604172E-4
-0.0014739308
-8.546794E-6
-1.995959E-4
0.0027499478
0.005229418
0.0038463157
0.0022112236
0.0014238837
0.0032283254
0.0034740975
0.001086108
0.0017763302
0.003976043
0.0055343006
0.005450623
0.0037088513
0.0012093335
-0.004493791
-0.00895343
-0.007947627
-0.0058437376
-0.0042490456
-0.0016783646
-2.3296078E-4
-0.0039969985
-0.006188485
-7.493464E-4
0.0028384216
0.003947623
0.004620168
1.9046589E-4
-0.0015323926
-3.390272E-4
-0.0026059083
-0.0012276473
0.0019488978
-5.305276E-4
-0.003256675
-0.0015204522
5.358738E-4
-6.645564E-5
-2.9472587E-5
0.0014956383
0.001953388
0.0021375974
0.0032086559
0.0029288735
2.750449E-4
-5.31867E-4
-2.5026596E-4
-0.0015186942
8.789702E-4
0.0032459311
0.0012400616
0.0017125164
0.0024839796
9.922535E-4
6.139499E-4
-2.522242E-4
-6.1261165E-4
3.2438158E-5
-8.3861174E-5
-7.58487E-4
-0.0018589372
-0.0016080326
-0.0013248434
-0.0015067717
-0.0018505593
-0.004325991
-0.0022441216
0.0019443537
-8.1018324E-4
-0.001197852
8.3282014E-4
-7.246973E-4
0.002079011
0.003400703
-8.0158934E-4
-7.6797354E-4
-9.5793285E-4
-0.0025695714
2.8244572E-4
0.0016821829
2.0014627E-4
-8.8769575E-6
2.1022264E-4
3.7790887E-4
0.0013511998
0.002351436
4.2412351E-4
-0.0025953413
-0.0026000703
-0.0018756241
-0.001671704
-0.0017029641
-0.0017749486
2.8943043E-4
0.0016549429
0.0016126556
0.0042993478
0.006927103
0.005746726
0.002762177
7.563945E-4
-2.6503476E-4
-0.0022224602
-0.004758198
-0.005388842
-0.002975705
3.1553813E-5
5.6951586E-4
-8.1504555E-4
-0.0018769342
-0.0011432685
-7.900106E-4
-0.001372803
-1.3635278E-4
4.7005492E-4
0.0010025974
0.003099777
0.0024933156
0.0013279293
3.4186084E-4
-0.0021431916
-0.0014558156
3.8145452E-5
7.852176E-5
0.0020440759
0.0029511643
0.0015478815
6.245669E-4
5.60173E-4
1.6086132E-4
-8.417262E-4
3.5383587E-4
0.0021211598
5.804575E-4
-0.0011967049
-0.0010759154
-5.974577E-4
-0.0013759079
-0.0046862904
-0.006041722
-0.0030428483
-0.0022264803
-0.0030964115
2.0399973E-4
0.0030987775
0.0020635445
0.001762174
0.0029885543
0.004337323
0.0046717254
0.0011407806
-0.003288581
-0.0042321156
-0.003673782
-0.0026893208
-8.2001166E-4
0.0019432658
0.0051015
0.004606808
0.0020517944
5.270734E-4
-0.002588712
-0.0019979004
0.0015338316
-4.5441982E-4
-7.721646E-4
0.0027332983
0.0044113593
0.005591362
0.0016749207
-0.004459651
-0.0045666066
-0.0035369543
-0.0026401284
2.6713265E-4
0.0015456099
4.295112E-4
7.6276716E-4
0.0024733297
7.157555E-4
-8.7028515E-4
3.4900525E-4
-5.103754E-4
-4.0171234E-4
7.309035E-4
-5.244091E-4
-0.002323094
-0.00613361
-0.009233112
-0.0089569185
-0.0079822345
-0.0055682925
-0.003644771
-0.0017672016
0.002785159
0.006709539
0.008922984
0.0090755215
0.0062925434
0.0012954274
-0.0033424923
-0.0024071056
4.0358855E-4
-1.1937832E-4
-6.7433156E-4
-0.0012562729
-0.0021274283
-0.002228454
-0.0018510433
3.9244528E-4
0.0027613677
0.004380458
0.0027722223
-0.0057444335
-0.012818774
-0.012401738
-0.007917263
-9.195246E-4
0.005357061
0.008272218
0.0078062015
0.0075883796
0.012094078
0.0152079705
0.015142208
0.01472798
0.0068529765
-0.0052118865
-0.010856269
-0.011473996
-0.010817006
-0.008811049
-0.0045703356
-0.001900933
-0.004180395
-0.008016259
-0.00934426
-0.0046148514
0.0015745469
0.004510494
0.009912266
0.014386204
0.015199608
0.016970016
0.013447319
0.0065258318
0.004010612
6.902736E-4
8.0426276E-4
0.011184152
0.018669575
0.015030545
9.824402E-4
-0.024268938
-0.040979285
-0.037558258
-0.033473745
-0.029516503
-0.02230326
-0.026895937
-0.032440763
-0.026721718
-0.027518556
-0.035753123
-0.029393138
-0.008728204
0.0031066965
0.0060776686
0.024400124
0.05013052
0.06232435
0.07777779
0.08854062
0.069805846
0.059320934
0.06429436
0.047991104
0.033031743
0.02471805
-0.008207368
-0.05575829
-0.098659515
-0.114429
-0.08609117
-0.034229014
0.014165431
0.039305057
0.036182925
0.0266471
0.027115287
0.029549293
0.02943736
0.018354584
-0.02275444
-0.06276479
-0.06907695
-0.066277385
-0.055863682
-0.030064944
-0.0019773354
0.02130168
0.030324737
0.05114475
0.08625553
0.07791536
0.032358296
-0.007230018
-0.01884984
-0.005008777
-0.021587152
-0.06541197
-0.09515767
-0.12568633
-0.114162974
-0.054086372
-0.034498792
-0.030185798
7.3049264E-4
0.031885214
0.09001038
0.15221018
0.16464412
0.16118366
0.16544133
0.1607162
0.1209265
0.023308568
-0.1019461
-0.1860988
-0.20073363
-0.17861924
-0.13443875
-0.06533691
0.008863627
0.056589883
0.061763003
0.086901076
0.11214335
0.029073084
-0.07268274
-0.0880297
-0.047465436
0.015616601
0.043492842
0.051048327
0.02164864
-0.11829546
-0.2157911
-0.15385248
-0.03999234
0.054371674
0.11665269
0.1578686
0.223092
0.3383035
0.39977172
0.2571992
0.022882354
-0.11094629
-0.17910299
-0.21715084
-0.19609119
-0.19238131
-0.21095155
-0.14320052
-0.0346983
0.021966897
0.0070674033
-0.083055705
-0.11711122
-0.053130228
-0.02128228
-0.0030528498
0.06101108
0.15227772
0.18141764
0.066127084
-0.07698421
-0.16911651
-0.21459731
-0.14979379
-0.022767683
0.0754939
0.13011034
0.17361997
0.23821181
0.2878692
0.2893691
0.19508633
0.064048424
0.040319845
0.0014862719
-0.17473452
-0.3433527
-0.36834434
-0.23451613
-0.04881079
0.05334153
0.048042327
0.0031809984
-0.019923711
-0.026073128
-0.0123401545
-0.015482587
-0.068042286
-0.06804682
-0.014770913
-0.010968569
-0.027424457
0.0044978727
0.07199765
0.09617148
0.060816802
0.05051095
0.094650954
0.1305428
0.09940505
0.05378336
0.06498854
0.06537563
0.021465186
0.018282894
0.04458998
0.002787028
-0.07121515
-0.08289478
-0.07575989
-0.083172336
-0.045427196
0.022718627
0.047747944
0.0026064145
-0.06505434
-0.09813121
-0.10835046
-0.11799645
-0.13121995
-0.13655986
-0.11273062
-0.07143322
-0.010809269
0.072181776
0.13297239
0.1411307
0.11244147
0.08521093
0.06321858
0.02772746
0.0029686387
-0.0027610008
-0.006448501
1.8585274E-4
0.011577079
0.016852485
0.032159917
0.06294408
0.072079495
0.037509486
0.0074323905
0.008020476
0.011536316
0.011375723
-0.0017064111
-0.02338127
-0.019597765
-0.005367183
-0.005706009
-0.014281313
-0.033371918
-0.04605109
-0.03444178
-0.017388117
-0.0013311806
0.018633682
0.03141374
0.03361234
0.029743642
0.013410643
-0.014140101
-0.029360075
-0.026952084
-0.02635937
-0.026040306
-0.022893123
-0.030135132
-0.034404088
-0.018776864
-0.007573378
-0.01581901
-0.020035416
-0.010019703
0.0047664517
0.019012624
0.02976906
0.038685504
0.040642504
0.0328169
0.024625406
0.013971176
0.0064523323
0.009634562
0.007977363
0.0016318788
0.0011355137
0.00924446
0.024059564
0.025758792
0.018289011
0.018246742
0.0126070045
0.003992967
-0.0014981673
-0.009050616
-0.010182552
-0.011179076
-0.015460978
-0.01746838
-0.02453429
-0.026476543
-0.025691094
-0.042873256
-0.057896636
-0.05110068
-0.041269924
-0.036134657
-0.025998581
-0.015285121
-0.009117687
1.4754236E-4
0.015183673
0.030078618
0.037611455
0.041070007
0.046840854
0.048499636
0.04944438
0.054764405
0.059957072
0.06502244
0.05676221
0.038447298
0.032259278
0.032039076
0.03048561
0.019235123
-0.0058916933
-0.027568987
-0.05222289
-0.07196932
-0.06826386
-0.068877526
-0.07333283
-0.07182326
-0.09037159
-0.10914273
-0.108573385
-0.10484578
-0.0766423
-0.020679934
0.024801817
0.048382528
0.05203777
0.052814927
0.06779321
0.068833955
0.04971905
0.038844228
0.034135263
0.031875536
0.037359267
0.03850648
0.027040852
0.013211738
0.012221985
0.020062491
0.021790724
0.0143972775
2.022457E-5
-0.013850232
-0.020198533
-0.023842804
-0.032589246
-0.04193243
-0.039120886
-0.03287953
-0.031492986
-0.025903374
-0.026849285
-0.033370387
-0.02688257
-0.016815156
-0.0076602995
0.009712215
0.02925826
0.038978234
0.036111508
0.032409627
0.029800037
0.021026991
0.009104645
-0.005459759
-0.011868326
-0.0036391164
8.5125765E-4
-8.3984545E-5
0.0019779757
0.005781088
0.013213058
0.021024097
0.026954008
0.025942395
0.013145888
0.0050075147
0.0071476856
0.00935521
0.008364631
-0.0061385324
-0.029554194
-0.036156468
-0.026873117
-0.021348272
-0.018531661
-0.012532181
-0.013169815
-0.019297123
-0.018131843
-0.011448005
-9.076204E-4
0.009159445
0.008274721
0.007311956
0.008404483
-0.0028718798
-0.010705493
-6.765042E-5
0.010361451
0.00890589
0.0049669542
0.005499708
0.011554285
0.018476367
0.013461088
-1.01096135E-4
-0.005178439
-0.002595089
0.0023551024
0.007986552
0.0078055356
0.004288914
0.0030086949
0.003780251
0.0042199325
0.0022814446
5.959491E-4
-1.2894298E-4
8.9077814E-4
0.0015748792
-0.0021834248
-3.021803E-4
0.00616263
0.006032005
0.0077209407
0.013612429
0.016736764
0.015690144
0.008559997
0.0030238214
0.0045598526
0.0055526737
-1.08419765E-4
-0.012013832
-0.019630363
-0.016006878
-0.00928221
-0.006103085
-0.0064875293
-0.00796365
-0.006665857
-0.0029163773
-0.002244058
-0.007002558
-0.012272502
-0.013064051
-0.007709634
-0.001983222
-0.0023931377
-0.0017683331
0.0018522544
3.722565E-4
-0.00410812
-0.0074856537
-0.007878725
-0.005757306
-0.005901245
-0.003941796
0.0017686412
0.004290924
0.005682285
0.005656578
2.8480447E-4
-0.0035705138
-0.0028144417
-0.0012540122
0.0019319475
0.0050905305
0.0051785014
0.0050566033
0.0053069396
0.004765801
0.006009006
0.0066245426
0.0026304966
-8.091222E-4
0.0011779391
0.006510364
0.012164277
0.014734342
0.011124982
0.0052621984
0.0047029075
0.003655481
-0.008100021
-0.018482316
-0.0146681005
-0.008218129
-0.0067427503
-0.005500352
-0.0062804245
-0.00734659
-0.0023774018
0.0018876193
-0.0011771776
-0.0031573283
-4.5960752E-4
-4.564758E-4
-0.0036965355
-0.005478697
-0.0049436763
-0.004770207
-0.0064079305
-0.005019547
4.6068974E-4
0.003245471
0.0028177414
0.004574663
0.008333815
0.009648104
0.0088772345
0.007836537
0.004151144
-0.0013137029
-0.004408979
-0.0019875565
0.0042556925
0.0064892503
0.005041253
0.005150741
0.0048760623
0.003268594
0.0021576898
0.002221516
0.0014586569
-4.146218E-4
9.908078E-4
0.002698527
5.9241406E-4
-0.0017204673
-0.003531863
-0.0054108314
-0.0052574263
-0.0017515693
0.0015333211
4.651886E-4
-0.001765532
-0.0033724622
-0.00463703
-0.005286982
-0.0073473803
-0.0077450606
-0.0048322747
-0.0017059328
7.1196974E-4
0.0016853912
0.0017703105
2.8481695E-4
3.182693E-4
0.0050990637
0.0065604374
0.004753435
0.004509421
0.0023236335
7.1099005E-4
0.0016982344
0.0026154497
0.002214482
0.0014315743
0.0036617077
0.004043604
7.08219E-4
-2.2220906E-4
-2.9833306E-4
3.6179138E-4
-3.2982265E-4
-0.005074592
-0.005456768
-0.003162585
-0.0048567383
-0.006885127
-0.007670306
-0.0055225794
-0.0015854229
-5.6087674E-4
-4.6489257E-4
-6.492467E-4
2.5483995E-4
0.0047293506
0.0080311755
0.0082344
0.00501941
-2.9034632E-5
4.829164E-4
0.0033812453
0.0039023976
0.0046452316
0.0032510243
0.002408034
0.0052234465
0.0065179514
0.0051899073
0.0011244288
-0.0025304155
-0.0030462286
-0.0056345216
-0.0069377525
-0.0050170226
-0.0064560077
-0.007909976
-0.0045879893
8.402484E-4
0.0030854477
0.0020762766
0.0012091431
-0.003038727
-0.006325328
-0.002469632
-3.3594074E-4
-0.0015362557
-5.197411E-4
0.0013855445
0.0022501524
0.0018044105
0.0021962977
0.0025222395
0.0010739085
0.0010038896
0.0012936535
-6.41858E-5
-0.0013838119
-5.0376164E-4
0.0018087685
0.0012052646
5.8686256E-4
0.0016077907
-5.2535447E-4
-0.0010270292
0.0017471313
0.0020902462
0.001839288
9.119176E-4
-4.908566E-4
0.0024213514
0.0062810513
0.008075912
0.009411155
0.0073267585
4.4630587E-4
-0.007688959
-0.010763979
-0.0071297837
-0.0030301695
4.2199707E-4
0.002342377
6.9463067E-4
-8.056345E-5
-9.4553357E-4
-9.5196586E-4
-1.9783177E-4
-0.0047526346
-0.0046158587
4.9719977E-4
-2.978914E-4
0.0016365583
0.0038831881
-8.445136E-4
-0.0050370125
-0.0077589597
-0.006002017
6.567007E-4
0.004556684
0.005187496
0.0036907645
0.0041063633
0.005937899
0.0029098985
-3.1272453E-4
-1.818055E-4
4.9394625E-4
-4.8653779E-4
-0.0032454734
-0.0032875235
-0.0015277996
-9.3951356E-4
1.6205772E-4
0.0010694783
0.0013182133
7.406187E-4
2.3460276E-4
0.0018354512
0.0027401948
0.0028752254
0.0041720974
0.0032601967
2.7226783E-5
-0.0026918652
-0.004814786
-0.004998788
-0.0030190719
-3.512858E-4
0.0030574244
0.0049181674
0.0038971882
0.0013795824
-0.0024715562
-0.0044494397
-0.0024753292
2.0645104E-5
8.360041E-4
2.7887555E-4
1.9467648E-4
9.352106E-4
0.0013049956
0.0014249329
0.0019504841
0.004785586
0.00591487
8.0397836E-4
-0.0036108447
-0.003570581
-0.0021047073
-7.637764E-4
-3.0861664E-4
0.0013488822
0.0029908854
0.00293707
0.00220494
-0.0026783356
-0.0068650497
-0.004119824
-0.001994767
-0.0015451305
-3.3839495E-4
-0.0023545984
-0.0033307406
-0.0019338251
-0.0022347232
-6.9478276E-4
0.0011623823
9.184862E-4
0.0010310179
2.6174012E-4
0.0016716915
0.0040123593
0.0016453763
2.302893E-4
0.0020335852
0.0043399795
0.0071417717
0.00719881
0.003874277
6.1268924E-4
8.5641386E-4
0.0012915395
-0.0031528324
-0.0050961734
-0.0015457184
0.0014103198
0.0026604533
0.0016578933
-2.590039E-4
-6.6053466E-4
8.479134E-4
0.0022546318
-0.0010008175
-0.0061209593
-0.008741055
-0.008314487
-0.0047172145
-0.002522844
-0.002260415
-4.5957492E-4
0.0021366945
0.0036436536
0.0026904498
0.0015494408
-4.3904618E-4
-0.0041287234
-0.003324221
-1.9958711E-4
0.0011866582
0.004698204
0.008143142
0.007964468
0.007089251
0.0061982875
0.0022474928
-0.0021472615
-0.003216288
-0.0038527015
-0.0027836743
2.4677074E-4
-5.430797E-4
-0.0018030071
-0.0018447846
-0.0035493486
-8.484366E-4
0.0031300096
1.8778497E-4
-0.0017275517
-9.498498E-5
-0.0014876196
-0.0019545173
-2.139848E-4
-3.5738532E-4
3.3679657E-4
0.0016049637
4.8461832E-5
-0.0021360684
-0.0025875648
-0.0016770583
8.305095E-5
0.0017552844
0.002845779
0.0042259423
0.0038466642
0.0010380349
5.537232E-4
4.0724128E-4
-0.0021378566
-0.002442389
-0.002156676
-0.0033711758
-0.002120315
0.0013482091
0.003005251
0.0010733727
-3.0685333E-4
0.001717827
0.004667474
0.0057389033
0.0018948142
-0.0019935775
-0.0014183429
-0.001412541
2.5849673E-5
0.0024157572
3.5312815E-4
-4.2246786E-4
8.2373334E-4
-4.6286958E-5
-0.0015340681
-0.004062043
-0.004912739
-0.0026495738
-0.0010747833
1.3765969E-4
4.5345793E-4
-4.806181E-4
-4.9674424E-4
-0.001100777
-0.0024039273
-0.002694905
-0.0018804687
-7.483439E-4
-0.0023528
-0.0044231517
-0.0010712229
0.003202262
0.002889714
0.0023610909
0.0035577076
0.0045758355
0.0070426874
0.0087200785
0.0057466314
6.516144E-4
-0.0035072782
-0.0042688753
-0.0018686586
-6.1933155E-4
3.3833424E-4
0.0024728074
0.004230556
0.0060679675
0.005379815
5.985093E-4
-0.0036948137
-0.0047224257
-0.0049394006
-0.006291414
-0.0054916223
-0.0028462305
-0.0022153314
-0.0016497668
-0.0013366955
-0.0028826655
-0.00393322
-0.0027804873
0.0011007589
0.0027754526
3.5221793E-4
3.9989772E-4
0.002354454
0.0026541238
0.0020691224
0.0020616504
0.003521163
0.0016842847
-0.003005264
-0.0026722283
1.6444296E-4
1.7890263E-4
4.5714212E-5
0.0016766087
0.0023500707
5.572139E-4
-5.4352294E-4
2.9508295E-5
3.7864942E-4
0.0014444115
0.0027665664
0.0027246007
0.0024486175
0.0012322473
-0.0021979404
-0.0041615563
-0.0019934042
6.296668E-4
0.0024610609
0.0050822073
0.0026601274
-0.0051736734
-0.006162114
-7.7887764E-4
6.854613E-4
2.4465987E-4
0.0010294387
8.47262E-4
2.739481E-4
4.3201144E-4
0.0010820891
3.806947E-4
-0.0011843701
-0.0011842188
-0.0016656057
-0.0025308717
-0.0022096036
-0.0027640124
-0.0021879403
4.8024085E-4
0.001009789
-6.037341E-4
-0.0020591759
-0.0023473052
-6.527221E-4
0.001402178
0.0021801416
0.0016697027
6.930621E-4
0.0011065793
0.0014688643
3.1007265E-4
-2.4027216E-4
-0.0011319654
-0.0015364714
7.926755E-4
0.001785543
0.0017601779
0.0029555468
0.002488946
0.0016449079
0.0019764083
0.0030468465
0.004906767
0.0044824146
0.0011100331
-0.0015203754
-8.952365E-4
-4.498721E-4
-0.0036464666
-0.005485792
-0.0038581884
-0.0034512419
-0.005714187
-0.006100505
-0.0010709728
0.0021464946
0.0011367514
0.002780149
0.0032185048
0.002073441
0.0035209442
2.998953E-4
-0.004687232
-0.0026898307
2.726638E-4
-1.2597871E-4
-0.0018776145
-0.0035124174
-0.0024335834
1.8482315E-4
0.001889325
0.0021771058
8.792247E-4
0.0014885857
0.004715435
0.0052224337
0.0023789718
0.0014071476
0.0035838992
0.002324297
-0.0032381732
-0.0046650968
-0.003366684
-0.0038872634
-0.0027870575
-0.0013121713
-4.8148347E-4
0.0032133195
0.0066512767
0.0041236747
-5.3924986E-4
-9.026982E-5
0.0014283771
6.2058354E-4
5.137733E-4
-0.0025264013
-0.0068477895
-0.005998225
-0.0022668673
7.765099E-4
0.0021453304
0.0027326185
-4.4370326E-4
-0.00646675
-0.003583704
0.0050723385
0.008016417
0.006149231
0.0022171736
-0.0019689682
-0.004968633
-0.0037221548
-3.0098276E-4
-0.0016791067
-0.0011442974
0.0013534508
-7.415436E-4
6.378937E-4
0.0026358166
4.0517887E-4
0.0014545395
0.0031591214
0.0035571177
0.0043445635
5.8796216E-4
-0.005135495
-0.004872325
-0.0013111746
-0.00206264
-0.0037402362
-0.001527835
-1.5807636E-4
-9.76939E-4
-0.0017539713
-0.0015454037
2.2214596E-4
8.51112E-4
3.932867E-4
9.6849696E-4
0.0012710205
3.561955E-4
4.6856508E-6
7.7095896E-4
-5.9916798E-5
2.7831478E-4
0.0034332708
0.0037905886
0.003641238
0.0035823204
6.805471E-4
8.766709E-5
2.3239957E-4
6.614332E-4
0.0030287371
-4.6233926E-4
-0.0034626187
5.207365E-4
-1.1771882E-4
-0.004249106
-0.003910263
-0.0024528473
-0.0019588787
-8.0962694E-4
0.0016560538
0.0030895132
0.0014684653
-0.0012271696
-0.003357483
-0.0034714218
-0.0027438728
-0.003536133
-0.0023179662
0.0013548929
0.0028644588
0.0025045434
0.001792111
0.0013128526
0.0022487908
0.0023388695
6.571494E-4
-5.9345237E-4
-0.001475982
-0.0017389745
-0.0017695222
-0.0024840015
-0.0014095261
0.0010751187
0.0017098503
5.220178E-4
-3.850332E-4
2.978909E-4
0.0012181606
0.0019916834
0.004012715
0.005033808
0.002538906
-4.586401E-4
1.8595048E-4
0.0024502138
0.0022161193
-4.0789894E-4
-0.0038966774
-0.0055422247
-0.0036447002
-0.0011203195
7.0430135E-4