0.0013449492
-3.3859262E-4
-0.004105852
-0.0039429287
-0.0026283225
-9.850531E-4
0.0018592956
4.2881054E-4
-0.0015664167
-3.9862737E-4
-1.2953645E-4
4.8619148E-4
6.086654E-4
-1.42408535E-5
5.5113825E-4
-5.045738E-4
-2.0533096E-4
0.0010961593
6.9531915E-4
0.002194103
8.874086E-4
-0.0015142072
0.0014802982
0.0026936757
7.8254304E-4
-0.0010030381
-0.0016666573
3.0121245E-4
7.742919E-4
0.0010763375
0.0030321241
0.0026053728
5.3615094E-4
-0.0016769011
-0.0023560808
-0.0017845544
-0.0012819225
-1.9074255E-4
-0.0013350868
-0.0017241727
5.9696974E-4
5.789465E-4
4.5307048E-4
9.383841E-4
1.3430943E-4
-6.3459214E-4
-0.0011301966
-1.0206739E-4
9.371211E-4
0.0011139427
3.9292095E-4
-0.0015207835
-9.937027E-4
1.2176197E-5
0.0019454564
0.0024346432
-0.0073821303
-0.010327225
0.0015148403
0.0062368456
0.005094104
0.0045118616
8.8310736E-4
2.6481808E-4
-0.0011036136
-0.0029566898
7.5300236E-4
5.936589E-4
-0.0026642422
-0.00258681
-0.003000035
-0.002192362
0.0012412955
0.0031305759
0.0019567714
0.0011600534
0.0015652592
-5.764449E-4
-6.7197566E-4
0.0022156257
0.0020623293
0.0023057668
0.0021308174
-9.618023E-4
-0.0014749183
-3.5712557E-4
-8.856558E-4
-0.0019043345
-2.470239E-4
0.0031449192
0.0030191466
0.0022088606
0.0017323279
-0.0015467573
-0.0035134186
-0.0034193879
-0.0028522136
-0.0016163806
-0.0020962392
-0.0026317898
-3.3239057E-4
0.0015353889
6.0998753E-4
-1.6176293E-4
-0.0015040407
-0.0014982696
0.0025762934
-0.0012838555
-0.0074505075
-1.3613018E-5
0.0048325565
0.0015658208
0.0021941967
0.0027178838
0.0028181856
0.0023235278
0.0012664129
0.0030018312
3.697891E-4
-0.0034945079
-0.0031477627
-0.0021775991
0.0010530031
0.0027648339
0.0024588874
0.0022917427
-0.0015349403
-0.0035905144
-0.002405016
-0.0015355132
7.139454E-4
0.0023843728
0.0030074269
0.00199797
-2.2222244E-4
-8.277977E-5
-2.5180244E-4
-0.0013230136
-0.0022066247
-0.004206427
-0.0047305683
-0.0023108642
0.0011430925
0.0018343213
9.99425E-4
0.0019295808
1.686564E-4
-0.0018453932
-1.2017534E-4
-1.2463996E-4
-0.0010132598
-5.8769865E-4
2.958742E-4
0.0020088744
0.0025110848
0.0021241498
3.7435116E-4
-7.0346793E-4
0.0023859213
0.0020304227
-0.0012390377
8.540225E-4
0.0026527895
0.0010864151
5.6978484E-4
-4.278612E-4
-0.0026033567
-0.0020551246
8.41461E-4
0.0014394793
8.4819825E-5
-7.3548703E-4
-0.0010112497
-0.0010138223
-0.0023502696
-0.0027569088
-9.028766E-4
-8.048434E-4
-0.0014525879
-0.0016577651
-0.0013079
0.001155762
0.002504564
0.001937847
0.0015021255
0.0014603811
0.0018735467
4.8714038E-4
-0.0021165726
-0.0026539685
-0.0015703684
-0.0015533991
-0.002153325
7.7451696E-4
0.003246358
0.0011232775
6.8522984E-4
0.0016364933
0.0025257622
0.0042540412
0.002190548
0.0012683491
0.0031873037
6.923899E-4
-6.5385737E-4
4.2044625E-4
-0.0017763342
-0.0032265051
-0.0030425582
-0.0032432203
-0.0021537778
-1.80435E-5
7.5788016E-4
-9.3897193E-4
-5.829528E-4
0.0018139929
0.0010816294
-3.9303108E-4
-0.0017836125
-0.0038132844
-0.0038857006
-0.0028980712
-0.0018870451
-0.0016970533
-8.3578384E-4
9.229793E-4
3.160108E-4
0.0019639512
0.0044219755
0.003202903
0.00343053
0.003229554
0.0032619578
0.0036821922
-2.7469182E-4
-6.400947E-4
4.384665E-4
-0.001977034
-0.0010342939
-6.575916E-4
-7.931715E-4
-2.6745422E-4
-0.0024560478
-0.001047059
7.144876E-4
-3.9676728E-4
6.950103E-4
0.001163662
8.7334047E-4
8.715183E-5
-0.0016277905
-5.586696E-4
0.0019032477
0.0014142296
-7.504786E-4
0.0013903464
0.0020974095
-0.0024691247
-0.0021459155
2.6802986E-4
0.0019043408
0.0019443913
-0.001575027
0.002870799
0.0021414328
-0.0098293945
-0.006418543
0.0015662038
6.4033475E-6
1.2979262E-4
-0.0020247644
-0.0041490644
-0.0028692463
-0.0028077702
-9.613184E-4
6.256742E-4
0.0019874324
0.0033612524
0.0018132614
0.0027064113
0.0045951228
0.0032862988
0.002783087
0.0030093933
0.0012794764
-4.2212039E-4
3.246882E-4
0.0013093019
9.6281775E-4
5.5961945E-4
-7.3835686E-6
-2.2359652E-4
-4.5981753E-4
-8.0251467E-4
-4.5396746E-4
-8.6245144E-4
-0.0014860554
-0.002461289
-0.0035804494
-0.0021266
-3.5051836E-4
-1.7369738E-4
-0.0010721104
-0.0020556233
1.0941289E-4
0.002051975
2.0554505E-4
-0.0012398215
-0.0015980026
-0.001556822
4.6248324E-4
0.0026879485
0.0029201328
0.0015824968
0.0013056593
0.0035961948
0.0045839096
0.0017390746
-0.001498457
-0.0039737164
-0.006481842
-0.006347199
-0.0034460449
-2.9855018E-4
0.0017580225
0.0014950075
0.0012211616
0.002094717
0.0018442647
0.0014827002
8.2118803E-4
-2.860434E-4
-3.946163E-4
-0.0010085509
-1.6754372E-4
0.0013093656
1.1691084E-4
5.166428E-4
0.0012618414
-2.245314E-4
5.02009E-4
0.0024468978
0.0027361717
0.0018277689
0.0022853573
0.003146412
-4.545406E-4
-0.0032891533
-0.0017420991
-1.6414227E-4
0.0012144818
-7.1717857E-4
-0.004254312
-0.0035624402
-0.002177255
-9.0314914E-4
-6.703889E-4
-0.0024243484
-4.7554637E-4
0.0013937218
-5.491555E-4
-0.0011658518
-0.0014921983
-0.0021396417
-0.0014913103
-0.0016470442
-5.170275E-4
0.0020326264
0.0015481034
0.0016487268
0.0048034
0.00482603
9.4515E-4
-0.0031938457
-0.0047375937
-0.0015839114
0.0024073038
0.0042863647
0.0053841155
0.0055476152
0.0043561766
0.0026105857
0.0035129634
0.0050199023
8.1392005E-4
-0.0055247964
-0.008479764
-0.007719192
-0.0044377423
-0.0021193507
-0.001051855
-6.375022E-4
-6.936253E-4
1.2378907E-4
-8.2143967E-4
-0.0019710043
-0.0011728605
-0.0024418542
-0.0022881022
0.0011045983
0.0012802563
1.3056805E-4
6.7808595E-4
1.304163E-4
-2.407748E-4
5.3286285E-4
8.132255E-4
0.0018235373
0.002833105
0.0022297087
0.002375674
0.0032767898
0.0027410313
7.379823E-4
-0.001345472
-0.0017026227
-4.4001552E-4
8.4057695E-4
-7.529527E-5
-0.0018538125
-0.0011654557
-0.0012850693
-0.00170154
3.75064E-4
6.0127804E-4
8.356552E-4
0.0023378513
0.0020286753
0.0011604739
-0.0020928518
-0.0038170828
-0.001480079
-0.0011529708
7.405272E-4
0.0020556783
-0.0013534114
-0.0017450362
-0.0021018286
-0.003421853
-5.4115197E-4
5.5220874E-4
3.134726E-4
0.0017125207
0.0019016028
0.0021420252
9.507824E-4
-0.0013777355
-0.0014123378
-6.3458696E-4
0.001446516
0.0038148777
0.0035307717
0.0028343755
0.0028620905
0.00253242
4.231502E-4
-0.0019342295
-8.2584727E-4
-2.712928E-4
5.1514977E-5
0.003095884
-5.575064E-5
-0.003016888
0.0019627134
-0.003865972
-0.015359195
-0.01082522
-0.0016385253
8.464544E-4
4.056885E-4
-3.9802617E-4
0.0026749654
0.0046885163
0.0018233218
6.213128E-4
4.918851E-4
5.868984E-5
1.1553367E-4
-9.0773636E-4
-1.3814343E-4
0.0014602622
6.8268075E-4
0.0017030261
0.0047700293
0.0061524063
0.007011077
0.0065544676
0.0030971055
-6.2896324E-5
-0.0024643634
-0.0061982176
-0.0074674236
-0.003326344
3.1204603E-4
-8.444638E-4
-0.0022063411
-0.0016124042
-0.0010856881
6.153891E-4
0.002021154
3.1166727E-4
-0.0012006317
-6.785543E-4
-4.968851E-4
-0.0012938732
-0.002363852
-0.0025106685
2.2060516E-4
0.004330567
0.0047897086
0.00234095
0.0014091135
9.268335E-4
-3.159244E-4
-4.487087E-4
2.574245E-4
-0.0012320331
-0.0041720276
-0.002728799
0.0010554885
0.0016984281
9.4952335E-4
-0.0017888028
-0.0040482474
-0.001328694
1.5690665E-4
-2.8238693E-4
0.0016131479
0.0016004698
-5.995796E-5
-1.4063298E-4
-6.944463E-4
-5.4356636E-4
0.0015828367
0.0025661895
0.0021312141
0.0017841163
3.9854983E-4
-0.0012241655
-0.0011245077
-1.7828861E-4
0.0011456932
0.0021467595
0.002097353
0.0011047604
-0.0013375786
-0.0024829793
-0.0021083832
-0.0029851322
-0.0024167325
-4.4279214E-4
-8.505037E-5
-0.0011805273
-0.0016147596
0.0010470891
0.002775539
0.0022344405
0.002906559
0.002136419
0.0011236321
3.360973E-4
-0.0019941325
-8.430894E-4
5.556626E-4
-0.0015521097
-0.002040353
-3.0088404E-4
0.0017795977
0.0023431312
0.0022179852
0.00127076
-0.0016754678
-2.3453993E-4
0.0017235142
-0.0017994732
-0.0028551368
-0.0022526716
-0.0030135193
-0.0019755885
-4.8316477E-4
7.313565E-4
-2.6207214E-4
-0.0017920836
-6.8835514E-5
7.925285E-4
-5.5335153E-5
-8.3086896E-4
-8.6046156E-4
-8.2754275E-5
-0.0014272466
-0.0016065222
0.001034318
0.0025629392
0.0039715846
0.0045517087
0.0033153389
0.002486107
0.0020412172
0.0010638256
-8.3578925E-5
-3.0705263E-4
-0.0012945072
-0.0015436936
0.0014652738
0.0019311811
-8.67117E-5
-0.0011335174
-0.0029151086
-0.0026841166
-0.0015172261
-0.0027318397
-0.0025176157
-9.191654E-5
4.083565E-4
-0.0020684826
-0.0027514137
-9.046552E-4
-0.0010594823
-0.00203405
-0.0013719846
8.6044875E-4
0.0024981878
0.002069695
0.0027077617
0.003426414
0.0026066955
0.0027071615
0.002310388
3.5641048E-4
2.530098E-4
0.0022291073
0.0010033692
-0.0020511704
-0.002308502
-0.0027804181
-0.0024715178
-9.746583E-4
-6.61532E-4
0.0016235595
0.002246781
-1.084332E-4
-6.81242E-4
-5.81322E-4
-2.2711781E-4
-0.0017413717
-0.0032680908
-0.001449526
-0.0010969721
3.1184545E-4
0.0040432615
0.0047339825
0.002959314
-5.4301843E-5
-0.0011515266
2.462309E-4
7.433351E-4
7.6058565E-4
-7.0752174E-4
-0.002477229
-0.0020881898
-0.0022335956
-0.003401292
-0.002243449
4.8109205E-4
0.0016472524
0.0025432752
-6.639969E-5
-0.0045707044
-0.0010511804
-4.7881622E-4
-0.007546783
-0.0058779633
4.6216583E-4
0.0034223348
0.0066853557
0.008003872
0.005270778
7.574088E-4
-0.0010433252
-4.3360534E-4
-4.9063883E-4
1.3995731E-4
4.8501813E-4
0.0011471563
0.0029608696
0.0041372166
0.0052660466
0.005534588
0.005587252
0.0035775756
-0.002441118
-0.0056105475
-0.0057854676
-0.007045839
-0.0063905115
-0.0041752765
-0.003490739
-0.0023939512
4.385338E-4
0.0010877586
6.2964275E-4
0.0028380468
0.003541329
7.484059E-4
-0.0027435026
-0.0040364843
-0.0028723206
-0.0029998173
-0.002155175
0.0012887454
0.0035770133
0.004874602
0.005418873
0.0060381363
0.006159681
0.0033620163
-1.2097721E-4
-0.0037976122
-0.006586754
-0.0059107994
-0.003476235
-0.0026462267
-0.0065099397
-0.008862728
-0.004089108
-5.712066E-4
-5.99312E-4
8.098254E-4
0.0029990491
0.0039882343
0.002808535
0.0014697653
0.0021161297
0.004495971
0.007968753
0.010014114
0.009536637
0.007746496
0.006002178
0.0042983624
0.0015347358
8.771822E-4
0.001943124
-8.9101325E-4
-0.0034562368
-0.0022511652
-0.0054341084
-0.012842408
-0.014812429
-0.0124487905
-0.010301238
-0.005532094
-0.001102718
-0.0024801453
-0.0037640114
-8.6900283E-4
-1.0211028E-4
-0.0021277026
-7.704522E-4
0.0021586227
0.0024868657
0.003657733
0.0069254115
0.009375588
0.011787955
0.013993416
0.012019593
0.0070596053
0.0034482763
-0.0013339941
-0.0075795194
-0.010258299
-0.010008935
-0.0073504928
-0.0036010607
-0.0022458714
-4.1131323E-4
-3.975944E-4
-0.0038769736
-0.002945968
-8.0388255E-4
-0.0027774363
-0.0023432868
0.002347289
0.0049824533
0.0024900157
-7.312538E-4
-0.0016501725
-2.3222307E-4
0.0037641341
0.005464218
0.004267351
0.003258533
2.3512327E-4
-0.0019150219
-0.0016511871
-0.0025791766
-0.0021886346
1.772388E-5
6.97548E-4
2.509159E-4
6.4421E-4
0.0020902029
0.002771561
0.0025762105
0.0019548521
0.0013421758
0.0021721472
0.0021000071
-5.30271E-4
-0.0030881034
-0.0049309987
-0.007114234
-0.007937678
-0.0062893806
-0.0055797924
-0.0064760423
-0.0055716247
-0.0027972593
5.5394863E-4
0.004485327
0.008501522
0.010838246
0.011787195
0.013389778
0.014786397
0.014889514
0.011859314
0.0046285084
-0.0017652686
-0.0029753675
-0.0021363297
-0.0053820596
-0.011654759
-0.017662572
-0.02061916
-0.015282253
-0.012147153
-0.016086241
-0.01203098
-0.007718226
-0.0124986665
-0.013811491
-0.010281797
-0.0057678754
-0.0023347253
-0.0024134496
-5.557007E-4
0.005960714
0.012323867
0.013374392
0.0136135975
0.018012846
0.023245981
0.029098434
0.030518858
0.025435235
0.019405711
0.015164503
0.023584936
0.037368916
0.034236535
0.017990768
-0.0022961835
-0.018009342
-0.023310976
-0.030964587
-0.04115162
-0.043066468
-0.041632164
-0.045316402
-0.050888777
-0.051606875
-0.045403447
-0.027262881
-0.006634418
0.005524768
0.018206542
0.021899905
0.02174232
0.03764536
0.044507127
0.03971797
0.041266438
0.032579586
0.01755682
0.010704134
0.0088022575
0.0023292731
-0.016997976
-0.025060039
-0.0090327645
0.004644187
0.005676792
0.0026539087
0.0048405644
0.01300328
0.028635304
0.048687994
0.039448258
0.0068355766
-0.0034242528
0.008508362
0.028549833
0.03165791
-0.012107133
-0.06784299
-0.0914079
-0.08333937
-0.061000906
-0.04206343
-0.028523354
-0.028068306
-0.04365317
-0.051237162
-0.054730903
-0.065480076
-0.06485864
-0.057850927
-0.04848868
-0.014210129
0.03234036
0.063939705
0.08029289
0.08914454
0.097373426
0.10033187
0.10588652
0.122596085
0.12245415
0.12530942
0.1597306
0.17586291
0.16976838
0.15401216
0.09027364
0.0056519136
-0.07516963
-0.17588367
-0.2707211
-0.32096633
-0.2900943
-0.19868125
-0.1439087
-0.11068311
-0.043252803
0.009799696
0.03294456
0.031719472
-0.0015966443
-0.021193981
-0.02903892
-0.05578269
-0.07184936
-0.05635863
-0.010016003
0.046993963
0.088985
0.112605415
0.10545594
0.088887066
0.09664313
0.11241089
0.12298809
0.11102577
0.07665775
0.06798742
0.07962107
0.063194335
0.023053253
3.6487973E-4
0.008269034
0.03275356
0.06400155
0.07561621
0.05785177
0.017428555
-0.07271596
-0.17262402
-0.20794125
-0.1998783
-0.1623627
-0.104370646
-0.09439999
-0.10881778
-0.0710819
-0.023928143
-0.014306803
-0.017425556
-0.052125297
-0.11938746
-0.14199859
-0.10009043
-0.02001076
0.10883897
0.24158148
0.28945035
0.28125608
0.3019605
0.30690455
0.22928235
0.146603
0.11073719
0.047911014
-0.06313372
-0.1650168
-0.2348563
-0.2844908
-0.27809393
-0.17779285
-0.088074565
-0.078704715
-0.06779568
-0.07561652
-0.11719889
-0.08854676
-0.01748989
0.02099525
0.013323903
-0.023005879
-0.0038621603
0.052574914
0.09365919
0.14673753
0.17354643
0.17340675
0.15614206
0.11508965
0.13454162
0.13796474
0.047489423
0.005506368
0.0059865145
-0.029112658
-0.06748791
-0.11298136
-0.14467883
-0.14048648
-0.10844935
-0.055147737
-0.04190822
-0.06361157
-0.068705074
-0.066496916
-0.028440895
0.033954214
0.030344535
-0.02563557
-0.054371525
-0.03542337
0.028116742
0.100118615
0.1042038
0.04406907
-0.0067371326
-0.03896583
-0.086883806
-0.13936135
-0.1528797
-0.11654117
-0.053067114
0.008639898
0.049641613
0.09299501
0.124917984
0.10338276
0.08161565
0.07944373
0.06387325
0.05039723
0.011120103
-0.021188363
0.02617703
0.057651557
0.041203585
0.08037192
0.14136834
0.15065064
0.13401277
0.07741365
-0.050355084
-0.17809673
-0.22831932
-0.19706956
-0.12986721
-0.07590557
-0.009781342
0.051076006
0.020780506
-0.047453854
-0.07099964
-0.07050926
-0.07078076
-0.08312702
-0.08837982
-0.08027133
-0.064680204
-0.013382148
0.026920773
0.037720412
0.0760612
0.08987322
0.054486573
0.032772064
0.015840929
0.006471576
0.031002022
0.044855062
0.029228138
0.025373373
0.038576037
0.053065218
0.06829392
0.069663
0.056352727
0.04527559
0.039586402
0.038832225
0.026861325
0.003285105
-0.010969739
-0.02726953
-0.04390232
-0.046529356
-0.047126785
-0.045964357
-0.04295132
-0.04243949
-0.042502694
-0.048425518
-0.049767565
-0.042182267
-0.040751353
-0.0365785
-0.021448014
-0.008028026
0.0045774924
0.014856887
0.01089363
0.012642355
0.035802655
0.051131982
0.05063617
0.05412775
0.05713515
0.045583047
0.021674633
0.007110588
0.010916401
0.014038133
0.0065413998
-0.0073699807
-0.018262498
-0.02061024
-0.020311905
-0.018681694
-0.019204516
-0.024647214
-0.029745739
-0.029545583
-0.020603359
-0.00817056
0.009698536
0.026021834
0.023400698
0.021680944
0.024587777
0.011772257
-0.0074170856
-0.026169721
-0.033477932
-0.024555122
-0.016588824
-0.0121180825
-0.011335497
0.004849729
0.037408695
0.042824358
0.033323623
0.029250063
0.012622763
-0.005095586
-0.013422541
-0.008894632
0.010254227
0.027637262
0.03620021
0.03278563
0.033099614
0.04864844
0.050562195
0.039507832
0.034400348
0.02700995
0.019195614
0.013092511
0.0030397486
-0.004068822
-0.0049621398
-0.0040113432
-0.002554113
-0.005016483
-0.0123191485
-0.01476744
-0.018759558
-0.034065705
-0.04499708
-0.046903007
-0.049463082
-0.05115125
-0.04804503
-0.037000112
-0.026103482
-0.025285563
-0.029284982
-0.033534978
-0.03459141
-0.031825144
-0.027825149
-0.019469416
-0.009547335
-0.0050481698
-0.008328211
-0.015494584
-0.01986557
-0.0220982
-0.022768762
-0.02151588
-0.020085977
-0.011911271
0.0047357758
0.01796463
0.02730401
0.040889032
0.054579657
0.06853936
0.083803736
0.09856335
0.11535956
0.107943475
0.0727902
0.04959408
0.03439185
0.023074495
0.024410816
0.024090191
0.032819644
0.051347338
0.0814903
0.10063747
0.029698433
-0.069785476
-0.086378954
-0.06878176
-0.074901536
-0.109897666
-0.1507669
-0.15738319
-0.14212652
-0.11460715
-0.0899654
-0.098360874
-0.10531452
-0.08694551
-0.062386144
-0.035641722
-0.01160788
0.0016903912
0.0086572515
0.023319215
0.04415401
0.057115607
0.06443283
0.06729191
0.06662767
0.07082567
0.080015324
0.08701454
0.082241334
0.06881008
0.055610698
0.043456856
0.037170116
0.03629271
0.031267628
0.020447645
0.012904659
0.009598902
2.0642744E-4
-0.010680806
-0.015445645
-0.018096866
-0.019672709
-0.024873588
-0.033409998
-0.030175967
-0.01528552
-0.008884418
-0.012267181
-0.01308151
-0.013350454
-0.009381364
-0.0081303995
-0.022647306
-0.028588166
-0.025624195
-0.033668317
-0.035398275
-0.030904444
-0.027898353
-0.019894293
-0.01445613
-0.007499973
2.157845E-4
-6.440912E-4
8.225258E-4
0.0056801946
0.006970096
0.007281922
0.00819016
0.01096866
0.0145252915
0.016212618
0.015850412
0.016270831
0.01901923
0.02098833
0.021191731
0.019332765
0.016709816
0.01533266
0.010836888
0.0036793454
0.0012110659
0.0022084548
-3.4963142E-4
-0.0030330813
-7.3695823E-4
9.822492E-4
0.003053355
0.007455685
0.0088831065
0.009756255
0.00976038
0.007567282
0.00687617
0.0049479855
0.0034154064
0.0034423596
0.002464069
0.005179033
0.008387953
0.006403985
0.0040534437
0.0047149346
0.007324346
0.0097857565
0.009967993
0.0060828663
0.0015778698
5.980633E-4
-0.0014397069
-0.0036812664
-0.0029380238
-0.0043489346
-0.0068401606
-0.007048511
-0.0070051984
-0.0073304754
-0.0065772138
-0.0039493195
-0.0030172458
-0.002325526
0.0035505695
0.007294583
0.0037686815
-6.5988075E-4
-0.0028471095
-0.0017599212
5.836562E-4
5.0898845E-5
-4.6073648E-4
6.9000316E-4
0.0017446638
0.003594463
0.004779296
0.005103549
0.005510456
0.003413017
0.0023657929
0.0046028434
0.0044664023
0.0038191935
0.0041451356
-8.2013785E-4
-0.0074933753
-0.0069401083
-0.0032228734
-0.0033729214
-0.002600584
8.6424657E-4
0.0013716057
7.6527055E-4
7.0720806E-4
-0.0012572336
-0.004068155
-0.0063385298
-0.007329296
-0.0072085774
-0.00709428
-0.0077468976
-0.006339456
-0.0015364711
-0.0011270696
-0.0027741785
7.4571243E-4
0.0030716637
0.0049742446
0.008082025
0.005772195
0.0011956105
-8.8338176E-4
4.540276E-4
0.0026397111
0.0011349069
5.7067386E-6
0.0016601345
0.0020389317
1.811849E-4
-0.0012086377
-9.38242E-4
-4.0083908E-4
9.380934E-4
0.0013212861
2.9824867E-5
-0.0010354592
-0.0033252323
-0.0032994102
-0.001645642
-0.0029583408
-0.0030155631
-0.0031021687
-0.0034922422
-0.0012884228
2.8475071E-5
0.0023056024
0.0041094166
0.0031405739
0.0029657604
0.0019388358
0.0021108163
0.0017379093
-0.0021677895
-0.001739837
-1.04941595E-4
-0.0013170106
-0.001052689
-7.9424947E-4
-5.053539E-4
-3.3900875E-4
0.001330678
0.0033071884
-4.4508258E-4
-0.00215847
-0.0029300402
-0.009266925
-0.009473459
-0.0045444774
-6.887921E-4
0.004085578
0.005018361
0.00328383
4.1852627E-4
-0.002295628
-6.405926E-4
-0.0010433048
-0.0033573136
-0.002300485
-4.3505427E-4
3.690667E-4
-6.500987E-4
-8.23431E-4
-2.2089665E-4
0.0013935257
0.0046583866
0.003925902
0.0049505904
0.0039411993
-0.003499242
0.0019353199
0.009768418
0.0063337595
0.001915729
-0.009883915
-0.014535789
-0.0018845747
7.2237424E-4
-0.0026078406
0.0017402715
0.0041331104
0.003889044
0.001900315
-0.0020103524
-0.004007466
-0.0040621934
-0.0049068476
-0.008318004
-0.009131592
-0.0045565306
-9.287034E-4
9.0373534E-5
0.0022924955
0.003556699
0.002208837
0.002845071
0.0033336289
0.0018238125
0.0021900085
8.7911356E-4
-1.1068716E-4
0.0026681947
0.0018593485
-4.0722714E-4
0.0013072182
0.0035638805
0.0036272937
2.0085182E-4
-0.0032097038
-0.0014674996
0.0010498479
-0.0011230488
-0.0029365371
-0.0022443247
-0.004729315
-0.005220317
3.6898116E-4
0.0033142352
0.0020582248
2.0747693E-5
-0.001377047
-0.0016622251
-0.0028810555
-0.0019885032
8.9750305E-4
0.0010703554
0.0012345858
0.0023815471
0.002860028
0.0025590283
1.6650725E-4
-0.0020404467
-0.0028890658
-0.0020073988
0.0023684544
0.003463947
-2.0991129E-4
-4.6401395E-4
-0.0010420498
-0.003760027
-0.0015398809
0.0011729631
0.0011649935
0.0013463591
-4.272119E-4
-0.0020229074
-0.0013608987
-9.5477724E-4
-7.385058E-4
-4.8579054E-4
4.8361366E-4
5.596774E-4
-0.0018423104
-0.0024025268
-1.5574775E-4
0.0010375823
-3.0098774E-5
-1.9013429E-4
0.0017889506
0.0017920806
8.447124E-4
4.6041227E-4
-0.0016380815
-0.0022725316
-0.0013303168
-9.161463E-4
7.2267365E-5
-1.6336553E-4
6.23977E-4
0.0044767824
0.0065867794
0.004883277
8.383988E-4
-0.0017344593
-0.0017500527
-0.002112938
-0.0011234359
5.0004263E-4
-5.817629E-4
-0.0010450091
5.934205E-4
4.7957652E-5
-0.0016132294
3.5495567E-4
5.39825E-4
-0.0036702787
-0.002174983
0.0019637572
-8.184946E-4
-0.004040186
-0.0031260217
-0.0018885544
-0.002142056
-0.003169515
-0.001575468
0.0014456272
0.0014938816
0.0013346679
0.0037295015
0.0050167297
0.0023851153
-7.9796516E-4
4.8048E-4
0.0028617054
-2.8351834E-4
-0.0038125778
-0.0011460759
0.0015736333
5.465268E-4
-6.653228E-5
1.3081337E-4
-1.3195565E-4
-2.1357904E-4
1.4203243E-4
5.097201E-4
4.071549E-4
-2.15895E-4
-8.984346E-4
1.844407E-4
0.0014276914
-3.2566334E-4
-0.0015234108
-2.6651763E-4
5.2004505E-4
9.6073456E-4
0.0022924375
0.0037545154
0.0030722886
9.053305E-4
3.674173E-4
3.245233E-4
-1.2504468E-4
-2.6346478E-4
-0.0017416571
-0.0036810464
-0.0033261557
-0.0021980498
-0.0038388069
-0.005755511
-0.0029002032
4.1077335E-4
-0.0011910999
-0.0030249965
-0.001835388
-7.477903E-4
-9.502756E-4
-9.295871E-4
2.667693E-4
0.0014154662
0.0017859031
0.0026967481
0.0029569708
0.002501619
0.0031927922
0.0030633349
0.0029497978
0.003231931
0.0010124957
8.742124E-4
0.0036740133
0.0038788381
0.0037363581
0.0048550894
0.0057905633
0.0054245424
2.3186966E-4
-0.0059592733
-0.007634658
-0.007868745
-0.006816767
-0.0041867285
-0.0039807246
-0.0027301512
-4.4656434E-4
-0.002995487
-0.0014504411
0.0028501085
-0.00552195
-0.011068965
-0.0015776446
0.0023519378
-3.284502E-4
0.0010770379
5.4236443E-4
1.5418402E-4
0.0028932146
0.0027320709
0.0023884408
0.0030000736
8.6399243E-4
9.52104E-4
0.004623185
0.0064764605
0.006857827
0.0063413875
0.0037593048
1.7970878E-4
-0.0025016442
-9.457305E-4
0.0018178523
-9.599888E-4
-0.004975407
-0.003895708
-7.67652E-4
-1.8184472E-4
-0.0018656027
-0.0028659387
-0.0028905729
-0.002501798
-2.7178766E-4
0.001221396
-7.2742306E-4
-0.0018321304
-4.0852552E-4
-3.303496E-6
-0.0016109566
-0.0033778101
-0.0017459136
0.0010916772
1.2391541E-4
-3.744789E-4
0.0010708234
0.0011867208
0.0014998993
0.0015466848
0.001725865
0.0029148767
0.00346292
0.0025953643
-0.0012659809
-0.00285271
2.167303E-4
2.8686813E-4
-9.599384E-4
-0.0010363344
-0.0021588895
-0.0015787568
-2.7451204E-4
4.6692078E-4
0.0010509789
3.0809917E-4
3.4448202E-4
3.8500447E-4
-7.485054E-4
-1.3964238E-4
0.0012430943
0.0012660566
0.0011672439
6.745373E-4
-0.0015537789
-0.002921738
-0.0019704795
-0.0010753857
4.324384E-4
0.002743366
0.003852812
0.004262264
0.0037855208
0.0031052453
0.0026760995
-8.094266E-4
-0.004289373
-0.0027342152
-0.0017051836
-0.0034229746
-0.0035389948
-0.0032927257
-0.00240647
-8.0725655E-4
-9.594769E-4
2.814147E-4
8.972299E-4
-0.0014062772
-9.0893096E-4
5.810178E-4
-4.0813358E-4
-0.0020559272
-0.0025209526
-4.921853E-4
2.910536E-4
-5.749804E-4
8.1529835E-4
0.0033790257
0.005261422
0.0046204855
0.0037188171
0.005258188
0.004687043
0.0013372676
-0.0017754589
-0.0028954106
-0.0017038767
-3.7410072E-4
0.0011196823
0.001952396
0.0024920336
0.003026308
-1.5954631E-4
-0.003604774
-0.004453237
-0.0050853426
-0.003873233
-0.002293406
-0.002451476
-0.0023902024
-8.273153E-4
2.3859926E-4
-0.0015002897
-0.0015779166
-5.907178E-4
-0.0016600471
2.2047768E-4
0.001057954
-2.529696E-4
0.002637098
0.003580679
0.0034355137
0.0054284604
0.002270329
-6.5133645E-4
0.0010244758
6.2654505E-4
-5.90764E-4
-4.06643E-4
1.8532942E-4
2.2979881E-4
-7.168105E-4
6.839681E-4
0.0016975568
-0.0014533176
-0.0025199547
-1.7870437E-4
8.8103575E-4
-2.3025504E-4
-0.002086977
-0.0014489848
-3.6288507E-4
-0.00189115
-0.0021265454
-0.0013490035
-0.0014100142
-2.739078E-4
0.0018636651
0.0034755578
0.003179228
0.002744439
0.0025472674
9.469937E-5
-0.0016205152
-0.0026955805
-0.00380373
-0.0019457411
-0.0012839533
-0.0015697473
-2.8668955E-4
-0.0014890005
-0.001647912
6.6749885E-4
0.0012830831
0.0028710878
0.004456605
0.0023750467
1.21094845E-5
3.7344277E-4
7.780535E-4
-9.2756294E-4
-0.0016524701
4.5303972E-5
0.0018726247
0.0026845036
0.0016670763
1.6210167E-4
4.7415216E-4
-7.796708E-6
-0.0022631122
-0.0014345464
0.0011565713
0.0013655458
6.89491E-4
-0.0023882515
-0.0028559784
0.0025908523
-0.0015750744
-0.009685029
-0.00453354
5.917979E-4
3.0538725E-4
0.0020066707
0.0015211924
0.0011257034
9.3622383E-4
-0.0013636757
2.5147672E-5
0.0021608805
0.0017795386
0.0017491338
0.0011546824
6.799747E-4
7.024526E-4
-1.1398236E-4
-5.3068844E-4
-5.5908406E-4
-8.924295E-4
4.0547815E-4
0.0028779933
0.0021391278
-2.8546352E-4
-5.39053E-4
-0.0011582895
-0.0020952614
-0.0013221899
-4.9768225E-4
2.3975754E-4
8.5022027E-4
2.9529055E-4
-6.5750745E-4
-5.8141415E-4
-7.972014E-4
-0.0025938135
-0.001433723
0.0022405814
0.0028638968
0.0022274232
4.7417163E-4
-0.0018482759
-1.19686556E-4
0.0014723305
6.355707E-4
0.0010195962
2.8544263E-4
-0.0021829065
-0.004265038
-0.005273884
-0.0021353776
0.0030359225
0.003697404
0.002251359
0.0031764642
0.0027913924
-4.890614E-5
-0.0015428156
-0.0027500952
-0.0041450798
-0.0030406024
-0.0011086592
-1.0437737E-4
0.0011960048
0.0024328302
0.0026918708
0.0019785492
0.0010773382
6.583041E-4
5.713453E-4
9.542725E-4
7.144187E-4
-0.0013168207
-0.0027574452
-0.0020082004
-0.0012836222
-6.808001E-4
6.460303E-4
-1.20900906E-4
-0.0017258548
-3.9668882E-4
4.929238E-4
2.7264762E-4
0.0017190102
0.0013294892
-4.194556E-5
5.219956E-4
4.149126E-4
3.663866E-4
-4.622327E-5
-6.2318204E-4
0.0010255346
4.9201853E-4
-5.2762515E-4
4.245724E-4
-0.0011545656
-5.5688206E-4
0.0013995795