0.0019655984
-3.0780552E-4
-9.4089494E-4
-0.0023953272
-0.0029439558
-0.0010308867
-0.001688571
-0.0041295355
-0.0030115508
-3.3807298E-4
0.0013710523
0.003175194
0.0036434913
7.5659406E-4
-3.6622433E-4
0.0016246354
-7.013828E-4
-0.0035036718
-0.0019948017
-5.961069E-4
0.0022199969
0.0038864994
0.0014441642
4.4048618E-4
-0.0011195787
-0.004582344
-0.0050795893
-0.0032282681
-0.0018423198
-0.0012009317
1.2817654E-4
7.76672E-4
3.965764E-4
0.0020392071
0.0027932778
0.0015174272
0.0016662336
0.0019632066
0.0020544773
0.002325814
9.829906E-4
-0.0010144485
-9.5893943E-4
0.0015144987
0.00353796
0.004760583
0.005495559
0.0027252596
-0.0015927894
-0.00342599
-0.0029364876
-0.0019070406
-0.0021396326
-0.002996381
-0.0041415314
-0.0041083475
-0.0010073247
-5.271794E-5
-0.0027236808
-0.0033051628
-0.0019682324
-0.0021531922
-0.0018980594
7.5279176E-4
0.0012620029
3.4796546E-4
0.002199036
0.0024978856
0.0019471322
0.0020506822
-6.1969826E-4
-0.0012848377
-1.5341726E-4
-5.331473E-4
0.001318616
0.002927396
0.0026601327
0.003351381
0.003139501
3.460011E-4
-0.0020944541
-7.7949866E-4
0.0014061665
0.0017308942
0.0013963088
3.0362865E-4
-3.0103465E-5
9.948361E-4
0.002426372
0.0014797816
-0.0024904655
-0.0015156893
0.0023201953
0.0015286107
5.15363E-4
2.3966862E-4
-0.0011721388
-0.0020704016
-0.0028238404
-0.0037247967
-0.0051018684
-0.006830639
-0.0067811855
-0.0027766826
-0.001512129
-0.006518841
-0.004511964
0.002705785
0.004498284
0.005966134
0.0053978246
0.0028541011
0.003496015
0.003006309
0.0025135176
0.002401538
3.650467E-4
-0.0015154151
-0.0029966002
-0.0011709892
0.002586647
0.0044282544
0.0059415386
0.0054971613
0.002926399
-1.7209188E-4
-0.0031464063
-0.0041980497
-0.004720969
-0.0039083874
-0.001824601
-0.0033659635
-0.0056670825
-0.0033827068
-0.0015243322
-0.002513461
2.8921588E-4
0.0042170472
0.0032164252
0.0032290928
0.007866047
0.011833296
0.00911239
0.0015046042
-0.0029933748
-0.004576612
-0.0057700933
-0.0054714344
-0.004381296
-0.0021093055
-2.7673793E-4
-3.2636864E-4
-0.0010742171
-0.0017717268
-6.9598504E-4
-4.0249262E-4
-0.0024832922
-0.0038479608
-0.003905353
-0.0023839578
-0.0011586671
-6.197307E-4
8.6957123E-4
0.0011749194
0.002699722
0.0050665163
0.0037003146
0.002619193
0.0021649858
-6.968047E-4
-0.001558984
9.828345E-4
0.003975139
0.0053641913
0.0042775264
0.003979738
0.0050993073
0.0018312718
-0.0047713574
-0.0077649243
-0.007095782
-0.0052802027
-0.0034421615
-0.0021171966
-3.2729268E-4
-2.0030639E-4
-0.001580403
-3.5450666E-4
0.0013811239
0.0016700267
0.0032347664
0.003929985
8.8868046E-4
-0.0010792125
2.5797062E-4
4.0855058E-4
4.4037605E-4
0.0019948243
0.0013744571
-8.9316105E-5
4.3968228E-4
7.486499E-4
-5.860359E-4
-7.2106655E-4
0.0012028601
9.6462434E-4
-4.0318328E-4
-0.0013551681
-0.004153856
-0.0035388975
1.2700808E-4
-1.3617887E-4
-0.0010605444
-8.174168E-4
-9.4230066E-4
-3.9710008E-4
-5.6049105E-4
1.8748811E-4
0.002565645
0.0027147993
9.902102E-4
-3.0255876E-5
-6.058483E-4
-0.0013174167
-3.6369753E-4
8.473627E-4
-1.3475506E-4
3.6934685E-4
0.0017328555
0.0013488681
2.6229536E-4
-0.0032094365
-0.004197296
-6.0041284E-4
-2.7656494E-4
-9.4222947E-4
3.0778427E-4
8.296354E-4
0.0019765073
0.0018829806
9.913452E-4
0.0017555816
0.0016420415
9.407167E-4
0.0011721986
0.002038328
0.0018502556
0.0014277168
0.004500888
0.006070867
0.0026042329
-2.6495286E-4
-0.0023528733
-0.0053043063
-0.006856792
-0.0067373957
-0.0062395413
-0.004511805
-0.0013513684
-3.0139636E-4
-7.664047E-4
4.717446E-4
0.0015592821
9.895845E-4
-5.320293E-4
-0.0011929921
-0.0010439572
-0.0016508044
-0.001227955
-2.1060223E-4
0.0015690484
0.004176183
0.0036710894
0.0031927438
0.0041798735
0.0036338246
0.0030174425
-1.4643515E-4
-0.002952093
-3.0601516E-4
9.863622E-4
-2.3015607E-4
-1.710063E-5
2.3001964E-4
3.2699513E-4
-2.7700842E-4
-0.002218098
-0.0029213096
-8.7426323E-4
2.3765114E-4
-4.8667565E-4
0.0012999395
0.0026175343
7.2258234E-4
-7.466582E-4
-6.8433036E-4
0.0010355125
0.0011198502
-1.2321668E-4
7.9634914E-4
-0.001287334
-0.0028177316
9.20896E-4
9.337214E-4
-0.0024340502
-0.003695379
-0.003814396
-0.003790627
-0.003568884
-8.0428546E-4
6.2474393E-4
3.1032128E-4
0.0039244173
0.0017453681
-0.0051836595
-0.0023714262
0.0027075878
0.0033981428
0.004058383
0.0039338325
0.0045042797
0.0036416694
4.5725037E-4
0.0011295452
0.0022798514
6.217355E-4
4.6154813E-4
5.457528E-4
-7.7664416E-5
0.0015072576
0.0026889462
-9.888663E-5
-0.0040433244
-0.0054252697
-0.0044619674
-0.0039659375
-0.003969558
-0.0013803911
5.5291667E-4
-8.280043E-4
-9.66467E-4
-6.534205E-4
-0.0010185187
-1.6289136E-4
-6.091262E-6
5.132936E-4
0.001048634
1.9179318E-4
8.545786E-4
0.00147296
0.0017216422
0.0024562427
0.0021668696
0.0033916875
0.0025606586
-0.0022920505
-0.002662897
6.880035E-4
0.0017419168
9.2122314E-4
-4.8623772E-4
-0.001656319
-0.002452837
-0.0021082368
1.3386537E-4
0.0021141393
0.0010194641
-0.0020758226
-0.0021589852
8.34785E-5
4.4768644E-4
3.6893843E-4
3.3627634E-4
-2.2311966E-4
2.235152E-4
0.0012167915
0.0021545922
0.0022655907
0.0011963474
1.4798745E-4
-0.0013465855
-0.0023715757
-0.0014070065
-1.8256911E-5
-2.419082E-4
-0.0019547225
-0.001953542
2.0012152E-4
0.0013524395
0.0012744763
-4.6803823E-5
-0.0020330027
-0.0021058952
-0.0012010928
-3.740262E-4
0.0012875282
0.0021108938
0.0011601448
6.9824123E-4
0.0010663553
0.0017149732
0.0043384414
0.005782394
9.7534014E-4
-0.0044657416
-0.0041171922
-0.0022618568
-0.002388738
-0.0017902601
1.2575251E-4
0.0014626612
0.0019416795
3.121483E-4
-0.0029246744
-0.0027875574
-1.1832843E-4
-7.272852E-5
-0.0017897105
-0.0023338874
-8.6286536E-4
6.103956E-4
2.0425958E-5
1.8363404E-4
0.0019827967
0.0022891941
0.0016564146
0.0021585613
0.0027582159
0.0026379987
0.0030861592
0.0032564448
0.001796238
-9.279803E-5
-0.0018833316
-0.0018034927
-6.675414E-4
-0.0024794966
-0.003458007
-0.0017062944
-0.0015464828
-0.0014850454
-6.621695E-4
1.6990537E-4
0.0017067106
7.6203805E-4
-0.0012815249
-4.54493E-4
-3.9447923E-4
-0.0025541366
-0.0024272338
5.2125397E-4
0.0022851124
0.0020406148
0.0013773497
-2.9691268E-4
-0.0010590174
-1.4052542E-4
-0.0014958344
-0.0019417921
0.0015887143
0.003879441
0.004405463
0.0038837856
0.0010710079
-0.0014007656
-0.0021988472
-0.0016346566
-0.0023374937
-0.0040084007
-0.0019779208
-7.813005E-4
-0.0019455494
-8.2304934E-4
-1.4660587E-4
0.0013920709
0.00398309
0.0034660888
0.0023796451
5.4871564E-4
-0.0012343497
-2.8677427E-4
-1.4695787E-4
-8.729705E-4
-2.687415E-4
0.0010096245
7.475849E-4
-0.0012180858
-6.466154E-4
3.972735E-4
-5.130574E-4
8.091415E-4
0.0028749544
0.0018800215
-0.0012727835
-0.002779074
-0.0013837188
-0.0013288613
-0.0021354454
-7.66848E-4
4.5207428E-4
5.0081307E-4
2.079106E-4
-8.8237645E-4
-0.0015184071
-1.6782738E-4
4.194337E-4
-6.008663E-4
5.872539E-4
0.0020103252
0.0011717844
6.049051E-4
-3.062063E-4
-0.0011256773
4.4123293E-4
0.0027244578
0.0035270457
0.0034571388
0.0039810385
0.0013766555
-0.005580207
-0.0075994274
-0.0025753924
6.8365014E-4
1.2837976E-4
-5.813559E-4
-0.0012603108
-0.0014660512
-1.270548E-4
7.662683E-4
0.0016699104
0.0025469079
7.4971456E-4
-7.4139127E-4
-0.001223491
-0.0029370151
-0.0026223382
2.8819744E-5
0.0019256129
0.0016480172
-2.5003937E-5
-6.1014254E-4
-2.6849095E-5
0.0016910316
0.00308521
0.0030239508
0.004304255
0.0042480803
6.6488737E-4
-0.0021882525
-0.0025147877
-0.0017578009
-0.0028699378
-0.0038158253
-0.0028750012
-0.003904327
-0.0022553876
0.0027579698
0.0032520702
0.002473378
0.0018478209
-0.0026126427
-0.00465272
-0.0011916377
5.862317E-4
-8.191061E-5
3.7603895E-4
2.3934583E-4
8.7766047E-4
0.0029079146
0.0029279036
0.0030377316
0.0020465837
-6.805235E-4
-0.0010387795
-0.0020741238
-0.0020053373
3.318467E-4
-0.0014910494
-0.002160365
0.0012168922
0.0027784042
0.0028512876
0.0011071942
-0.0012681506
-0.0014685385
-0.0014747343
-0.0013463678
-0.0012663109
-0.002287237
-0.0018840199
9.1476255E-4
0.0020430777
-2.1840473E-4
-3.7672426E-4
0.0015246215
-2.9038338E-5
-0.0017007809
-0.0014610277
-0.0018107024
-1.4924201E-5
0.0033155743
0.004595593
0.0033783943
5.4913075E-5
-0.0020298595
-0.0026488588
-0.0030935204
4.135235E-4
0.0037300792
0.0017620175
-1.3872447E-4
-6.389529E-4
-5.667597E-4
0.0017606379
0.004368668
0.004933361
0.0023089238
-0.0010860019
-0.003076694
-0.005303766
-0.0055666566
-0.0034315
-0.0015919247
-3.557053E-5
2.2785517E-4
-0.0011343809
-0.002580008
-0.0014496438
9.1863377E-4
7.8863275E-5
3.7901936E-4
0.0029711318
0.001976079
3.6694907E-4
1.4796009E-4
-0.0015139827
-0.0015610738
0.0012658816
0.0020367408
7.4490684E-4
7.50088E-4
0.0010444124
0.0019904536
0.0024327412
5.024787E-4
5.5471895E-4
0.0014008058
8.893382E-4
0.0013813141
0.0013031428
0.0018416978
0.0017296489
-8.517724E-4
-0.0013888481
-0.0011481813
-9.4389333E-4
-7.0813997E-4
-0.0021159113
-0.0020934436
-0.0020477523
-0.001983917
-1.9999282E-4
1.7658054E-4
9.308942E-5
-0.0017885533
-0.005347982
-0.0062132557
-0.004822345
-0.0013370941
6.43454E-4
2.8441977E-4
9.842952E-4
-2.888885E-4
-4.5033148E-4
0.0013363478
2.148013E-5
2.716657E-4
0.002220808
0.0025722801
0.0037714166
0.005676508
0.0076227523
0.008840167
0.009658532
0.008121644
0.00163805
-0.0018700523
-0.002026721
-0.0058861817
-0.0077942195
-0.005756274
-0.0044258297
-0.0035724936
-0.0038908157
-0.003428982
-2.3136057E-4
0.0011923992
2.4143088E-4
0.0011341204
0.003182308
0.0023919009
-0.0014846845
-0.006051458
-0.0080772685
-0.004613438
6.2087626E-4
0.0024969575
0.0025733071
0.0027429732
0.0030843192
0.0035280082
0.002955602
0.0021370016
0.0018141738
7.7131874E-4
6.870807E-4
0.001952852
9.99377E-5
-0.001978969
-2.7555396E-4
-0.0036766243
-0.011286841
-0.009570366
-0.0012651581
0.0032131453
0.0032815072
0.0029341935
0.00364209
0.0027281786
0.0016862729
0.0022137694
0.0014520071
0.0015398442
0.0026315646
0.00159848
1.838799E-4
-0.0013196217
-0.002601159
-0.0020972244
-0.0013075131
-2.6864017E-4
0.001731804
0.0028643797
0.0020072698
1.5121589E-4
-0.0015702046
-0.0018731866
-8.328075E-4
-4.0436938E-4
2.8741992E-5
1.2513125E-4
-0.0011914371
-0.0014457041
-0.0019348253
-0.00303322
-0.0012006606
8.494054E-4
3.191363E-5
-8.062764E-4
0.0014383238
0.0037307232
0.0019253234
9.07792E-4
0.0029483065
0.0029446692
0.0020123117
0.0027594804
0.0016439885
-0.00245595
-0.0048018033
-0.0043863175
-0.003508445
-0.0021548227
-0.002441839
-0.0023979621
2.575281E-4
-6.4330606E-4
-0.0024790855
-1.8420404E-4
0.0015321169
0.0018326421
-1.13754606E-4
-0.0031561006
-0.0016036505
-2.1055655E-5
-0.00160347
-0.0025548246
-0.002591798
2.1039165E-4
0.0037934321
0.004360389
0.0056002345
0.0054796017
0.0029125034
0.00330527
0.0035067722
0.0027358606
0.003779324
0.0028205325
0.0012053349
8.100067E-4
-2.6467702E-4
-9.4431464E-4
-0.0030797205
-0.0057997652
-0.004346657
-4.1313207E-4
0.0023951998
0.0026988608
9.131123E-4
-0.0012953068
-0.002117031
-0.0021305731
-0.006215265
-0.010581383
-0.00695351
-0.0025161107
-0.003607388
-0.004028401
-0.0021656654
-6.4447295E-4
7.0093194E-4
0.002952899
0.0049526934
0.0035775981
0.0019333217
0.003033538
0.002443679
9.5620746E-4
0.001885009
0.0023521627
0.0017113194
0.0017293679
0.0018250515
0.0011609128
5.2546285E-4
0.0014901762
0.0024715606
8.103238E-4
-9.687193E-4
1.3550447E-4
-3.7032092E-4
-0.0042248196
-0.0039470415
-0.0023703524
-0.0055388254
-0.0047630677
-1.3534692E-5
3.361659E-4
-0.0013431082
-0.0017214115
2.6427495E-4
0.0018312288
8.493699E-4
7.24623E-4
-6.7598E-4
-0.0020432484
-0.0016762892
-0.0046293414
-0.005146434
-0.0015925468
-0.0018228615
-0.0022088129
6.770267E-4
0.0024817497
6.5839576E-4
-0.0017382716
-8.4848807E-4
7.0229766E-4
0.0012848427
0.0016811759
0.0030633362
0.006684633
0.0082969405
0.008641535
0.009706366
0.009653124
0.011547646
0.009484137
5.4575066E-4
-0.0038640748
-0.0038256664
-0.0024679177
0.0025800008
0.007140528
0.009083328
0.008108343
0.0015456425
-0.006832478
-0.015071583
-0.026505036
-0.030407228
-0.022237627
-0.019643584
-0.024997922
-0.02718851
-0.021474691
-0.008423463
0.0077454993
0.03266906
0.056804266
0.061377484
0.05951761
0.053622786
0.036530614
0.02553061
0.02207335
0.012423071
-0.0073632095
-0.033731375
-0.058755618
-0.07781401
-0.09050753
-0.101640284
-0.10217911
-0.07801933
-0.047468934
-0.028590947
-0.020459386
-0.0166935
0.007018466
0.05922086
0.105262995
0.11739886
0.10556739
0.08530107
0.076133706
0.086397246
0.068708345
0.0100817755
-0.028386164
-0.021870403
0.019492092
0.07142193
0.09837705
0.11353186
0.12061478
0.07164892
-0.030909901
-0.10682696
-0.11252331
-0.11571145
-0.16848165
-0.21283941
-0.20588139
-0.1693835
-0.120206796
-0.07261521
-0.04083941
-0.015434
0.010245861
0.019822355
0.01938861
0.035004552
0.054089196
0.06550769
0.082506575
0.08905459
0.096431874
0.13554032
0.1499146
0.11316401
0.07764143
0.014427968
-0.07882053
-0.10639622
-0.065832645
-4.663918E-5
0.078737095
0.13590236
0.16755767
0.16140431
0.1161509
0.08534967
0.029674744
-0.09123583
-0.22173889
-0.332669
-0.36006275
-0.25524154
-0.09837898
0.027670458
0.088579975
0.112216786
0.14527029
0.15388635
0.11116838
0.031408746
-0.065734334
-0.14542818
-0.178249
-0.14316997
-0.07644044
-0.022442395
0.04951834
0.12746376
0.1525164
0.14647506
0.19299527
0.2582897
0.18488388
-0.0036966277
-0.1594943
-0.2566355
-0.271941
-0.20330599
-0.1123039
-0.008718857
0.076691024
0.10275371
0.110963024
0.15220802
0.16960838
0.09149794
0.016364913
0.005353824
-0.03684389
-0.12030113
-0.17943491
-0.15773858
-0.03844577
0.09319088
0.13564621
0.09652662
0.11394073
0.1944091
0.15270267
-0.0073123034
-0.12855463
-0.1401089
-0.07371812
-0.04411724
-0.072363555
-0.091092095
-0.09674539
-0.11911322
-0.15670063
-0.12378419
-0.017654805
0.05040216
0.089731805
0.12056131
0.12535805
0.119853236
0.061962638
-0.018438604
-0.036447812
-0.029381892
-0.030379957
-0.022329044
-0.016764386
0.008998026
0.07750397
0.10456955
0.060025495
0.04876541
0.07299533
0.08111124
0.09251232
0.04240954
-0.08687249
-0.15684848
-0.14210379
-0.12068093
-0.09018832
-0.04546449
0.0060076388
0.07323661
0.09862559
0.06505582
0.019195952
-0.05401626
-0.09513122
-0.040093243
0.013845709
0.012607179
-0.004232962
0.0075535355
0.043387506
0.027801415
-0.016034337
-0.023454193
-0.022169216
-0.0116754165
0.022749174
0.039699033
0.008971929
-0.016944202
0.00552434
0.012590008
-0.0030081107
0.017069953
0.042671237
0.025128705
-0.02115154
-0.03611308
-0.0151239075
-0.007176265
0.003949164
0.017502377
0.0185902
0.032606468
0.02845328
-7.5964874E-4
-0.017267516
-0.028928494
-0.027388541
-0.0077468124
-7.9205545E-4
-0.01640382
-0.036580883
-0.035809726
-0.01630242
-4.1018624E-4
0.0062994626
0.008200416
0.0045950515
-0.0067075263
-0.009249759
0.0049249926
0.014879718
0.016361114
0.017855683
0.018465322
0.017804138
0.015909364
0.014344041
0.008693326
-0.002079787
-0.006421879
-0.0041692774
-0.002328092
-0.0030160497
-0.0057256934
-0.006684218
-0.008290577
-0.0081841145
-0.004120898
-0.0042819264
-0.0053753373
-0.0052165254
-0.007031012
-0.004870334
-7.716354E-4
9.76853E-4
0.002474289
0.0016791971
-0.0027696458
-0.009064264
-0.012298078
-0.011291997
-0.009366439
-0.0066383933
-0.0055308696
-0.0045207744
-1.4900654E-5
0.005387701
0.011775532
0.014134862
0.010135604
0.009083195
0.008405877
0.004504476
0.0037751298
0.005990691
0.009954232
0.015812514
0.021350961
0.023795847
0.020079834
0.011474211
0.0010387417
-0.007763657
-0.0132328775
-0.01885737
-0.024486737
-0.025755769
-0.021632604
-0.01627259
-0.01248656
-0.008739932
-0.0063362946
-0.0040728967
-4.964489E-4
0.0014806711
0.0043430408
0.0034003733
-0.0044207503
-0.005434254
-0.0028432636
-0.006714713
-0.008562869
-0.0070456727
-0.003313353
0.0037364042
0.0066506085
0.01055071
0.01813354
0.015326074
0.0060945093
0.0046652434
0.009965864
0.015359906
0.013562727
-0.0015886321
-0.022938063
-0.0337639
-0.0295173
-0.016542282
-0.0013688162
0.0048360014
0.0013962288
-6.549101E-4
-2.282436E-4
0.0032610586
0.012730637
0.022745542
0.031918198
0.046789292
0.058628052
0.046327762
0.022132212
0.010211864
-0.0032784382
-0.022230703
-0.027093336
-0.020481378
-0.012378236
-0.006382276
-3.0383551E-5
0.009237154
0.0065156943
-0.010973497
-0.025283743
-0.033259843
-0.04221783
-0.04876841
-0.044215508
-0.034393
-0.033542164
-0.04082701
-0.04344348
-0.03321303
-0.019269908
-0.011864942
-0.0020013636
0.0123692285
0.022729045
0.033297867
0.045503285
0.051942173
0.052844115
0.05313666
0.052695442
0.046737965
0.036388706
0.028803144
0.022178797
0.012540861
0.0053825793
0.003644363
0.0053809667
0.007729591
0.0074432
0.0058171097
-8.206617E-4
-0.01292875
-0.01853207
-0.021038279
-0.027307216
-0.028443877
-0.028290676
-0.03441395
-0.038605306
-0.03617209
-0.029628085
-0.020789929
-0.013026867
-0.0089363
-0.005534933
-4.1753892E-4
0.004113547
0.0077991076
0.008425537
0.0031010709
-0.0022091027
-0.0024057627
0.0010310832
0.0047785393
0.0052109165
0.0022998205
-2.7637408E-4
0.0011653989
0.0051778313
0.007161237
0.007051123
0.0061380863
0.0049850773
0.0047637653
0.005592808
0.008330849
0.012022791
0.012893424
0.011288967
0.010104166
0.009181884
0.008304524
0.0071312594
0.002909069
-0.0024241016
-0.0050494876
-0.006455913
-0.005374256
-0.0020336092
-0.0042792466
-0.011174764
-0.0122595355
-0.007449345
-0.005930383
-0.008385098
-0.010126792
-0.011774745
-0.011841858
-0.009664733
-0.008552569
-0.0060643917
-0.0038540664
-0.0049029826
-0.0022065968
0.003114195
0.004783745
0.0043372
0.0023203387
6.773359E-4
0.0013316942
0.0024372828
0.003290105
0.0023908524
0.0012606095
0.0013658286
0.0013920153
0.0049146437
0.009747942
0.009597991
0.0057493323
-1.8898783E-4
-0.005330007
-0.0078007714
-0.008698856
-0.0066026384
-0.004466662
-0.0032371245
-6.9089216E-4
-3.6995523E-4
-0.0010577192
-0.0012727161
-0.0022584363
-7.505309E-4
2.634639E-4
-0.001613679
-0.001648321
-9.947331E-4
-0.0020937193
-0.002672085
-0.0013649857
-2.5044978E-5
-5.4831576E-4
-0.0015085416
-0.0010632322
-1.14841074E-4
-7.2339294E-4
-3.3819972E-4
0.0029084778
0.0035506457
0.0027802032
0.00407544
0.0031913293
0.0027544873
0.004772279
0.0037662468
0.0015500896
0.0010100148
2.08932E-4
-8.551199E-4
-0.0015256047
-0.001320548
-8.757634E-4
-0.001779393
-0.0030296193
-0.003582637
-0.0039044505
-0.0034955766
-0.002430909
-0.0018190119
-0.0012462062
1.5714417E-4
9.982552E-4
3.8916233E-4
4.6633402E-4
-2.1357725E-4
-0.003674981
-0.00411828
-9.881047E-4
4.433194E-5
0.002932986
0.009936627
0.01568685
0.018958831
0.017270077
0.009824174
0.0016926186
-0.007020412
-0.012058983
-0.008629821
-0.0056179124
-0.00482787
-0.0029273103
-0.004184372
-0.005535959
-0.005378522
-0.0041516228
4.3272012E-4
7.652533E-4
-0.0010542884
5.514848E-4
-9.149911E-4
-9.346775E-4
0.0015961775
0.0013593419
0.002755923
0.003147099
0.0013877794
0.0014808108
0.0027000092
0.004556381
0.0034862454
0.0022726746
0.0038251784
0.004253985
0.0070103635
0.008638336
0.0030682366
-0.0042499104
-0.0076434794
-0.0061649284
-0.008073028
-0.011082812
-0.004821243
-4.8073256E-4
-0.0014613044
0.0011749556
0.0019623803
6.637835E-4
0.0023376686
0.0034851003
0.0030146681
0.0038389738
0.0040609743
9.597036E-4
-1.924485E-4
0.0012925526
5.3220766E-4
8.641866E-4
0.0021340905
9.154455E-4
-9.783685E-5
-6.3811085E-4
-0.0010014384
-7.6471834E-4
-8.117511E-4
7.553036E-4
0.0025188525
0.0011513967
-2.1796151E-4
-3.2094982E-4
-0.0020328108
-0.00315988
-0.0018983375
-4.0085262E-4
0.0014254205
0.002666142
0.001604467
-2.9758704E-4
-7.7187474E-4
-3.5581787E-4
-0.0011256104
3.435394E-4
0.0035375713
0.002506014
0.0018461063
0.0026978229
0.0018114735
0.0029070955
9.334317E-4
-0.0039985236
-0.002438067
4.8243368E-4
4.5026207E-4
7.066717E-4
0.0010949804
9.46041E-4
-0.001109077
-0.002942641
-0.0037403684
-0.004216118
-9.292704E-4
0.001551528
0.0011031019
0.0022102597
0.0012832785
-9.785322E-4
-0.0014398894
-0.0013408642
1.1525459E-4
2.7601953E-4
-4.2141735E-4
-2.667719E-4
-6.820501E-4
0.0013944345
0.0030403922
0.0022453924
0.0042223376
0.0063676615
0.005835081
0.004535302
0.0046267956
0.006306146
0.0055049225
0.0018208588
-0.0028258634
-0.0064198915
-0.0074183815
-0.0063113575
-0.001423472
0.0010414101
-0.0027573337
-0.004101635
-0.003404789
-0.0024802238
2.4336332E-4
0.0015430026
0.0021584318
-3.5462316E-4
-0.0032633236
-0.0014289513
-0.004071635
-0.0062585743
5.627687E-4
0.003702758
0.0012275678
0.0018130792
0.0041719214
0.004940009
0.00482988
0.0053575994
0.0040090303
0.0018221141
0.0016698216
9.105238E-5
-0.0015469758
-0.0015226253
-0.001940354
-0.0010780058
-1.6698535E-4
4.972859E-4
0.0017658173
5.5523415E-4
-1.7328985E-5
0.001221713
-4.6827947E-4
-0.0020831048
-7.1093737E-4
4.1454757E-4
3.4808065E-4
-3.2731026E-4
-0.0011272975
-7.9034414E-4
-3.7935027E-4
-0.0012369106
-0.0012041703
-1.8315879E-4
-9.549207E-5
8.182416E-6
-3.201204E-4
-6.9851725E-4
4.4137466E-4
7.157936E-4
8.296773E-4
0.0012702133
-1.9173739E-4
3.9959562E-4
0.002844703
0.0031060139
0.002680733
-1.4265484E-4
-0.0033162497
-0.0017951885
-3.4664443E-4
1.19851895E-4
0.0025647797
0.0040888186
0.003721818
0.0012561589
-0.0013950226
-0.0019854328
-0.0039214385
-0.0047465255
-0.0021973648
-6.760339E-4
5.288379E-4
4.9422384E-4
-9.871849E-4
2.3640253E-4
9.078712E-4
3.3958987E-4
7.637574E-4
1.3162516E-4
0.0010432416
0.001980331
-0.001445197
-0.0034866019
-9.244579E-4
0.0014201753
0.001502297
0.0015213459
0.0012465252
-5.49913E-4
-3.4889314E-4
0.002381573
0.003301207
0.0013219637
-5.1766756E-4
0.0011932218
0.0023845185
3.1361173E-4
5.667721E-4
7.775289E-4
-0.0013635147
-4.9721356E-4
0.002195718
0.0035021736
0.001454076
-0.002666951
-0.0033455985
-0.003288545
-0.004203137
-0.002234491
8.205702E-5
2.9405797E-4
-7.529567E-4
-0.0011160395
-5.118857E-4
-0.0020618665
-0.0036405618
-0.0026488658
-6.3124095E-4
0.0011853132
9.783398E-4
0.0010740429
0.0034716174
0.005157782
0.0064588967
0.007439789
0.0058052386
0.0019589642
-0.0014187087
-0.001081452
0.0013101463
0.0019490365
0.0015590652
4.2996666E-4
-0.0019447918
-0.0037030808
-0.004841801
-0.0061113853
-0.006163261
-0.005549428
-0.0049493182
-0.0035110523
-0.0020337612
-5.757895E-4
-1.3156631E-4
-0.0015253426
-0.0012463658
1.6504076E-4
5.493532E-4
0.0018796168
0.0035484536
0.0051630237
0.006426091
0.005317198
0.0042602317
0.004446015
0.00337803
0.0021857927
0.002965264
0.004867222
0.006510475
0.005265852
-3.0621252E-4
-0.0046472894
-0.0055037173
-0.007164557
-0.0077837454
-0.005003138
-0.0017265372
-6.5962377E-4
-9.483695E-4
0.0014896486
0.0037284845
0.0017368236
-7.782312E-4
-0.0024294488
-0.002595443
-0.0018637081
-0.0026395626
-0.0026052322
-0.0011878303
-2.454297E-4
-9.97122E-4
-0.001783497
-2.8875348E-4
-7.2591193E-4
-0.002127799
-6.2483427E-4
-3.4406892E-4
-0.0013160008
-2.1090759E-4
0.0021371106
0.0030748292
0.001537986
-6.1195367E-4
-9.7073783E-4
0.0020161415
0.003994471
0.0026673554
0.0026284303
0.004345623
0.008813092
0.011961261
0.008807863
0.007063146
0.00632628
0.0016737004
-0.0051727314
-0.009691018
-0.0054206406
-0.0027325973
-0.0059229503
-0.0046216906
-0.0064598457
-0.0095908595
-0.0049917586
-0.0018926508
-0.0013278434
-4.1197188E-4
5.02167E-4
0.002572809
0.001750394
1.2707953E-4
-4.4301158E-4
-0.0026752432
-0.0031886143
-0.0017308529
-9.587878E-4
7.212184E-5
0.0016615376
0.002089523
0.0013874025
0.0017575151
0.002416171
0.0018807485
5.55533E-4
-5.6502747E-4
-9.773168E-4
-0.0017044218
-0.0011464617
1.4798223E-5
-5.254726E-4
3.098241E-4
2.700736E-5
-0.0024653648
5.09925E-4
0.0056192493
0.005562266
0.005580258
0.00892924
0.01036206
0.009014463
0.00695489
0.0031325903
-0.0012047556
-0.0038008087
-0.004079473
-0.0035001435
-0.00507866
-0.0067501343
-0.00728622
-0.008133627
-0.0066573224
-0.004230818
-0.0033273376
-0.0015090995
1.9090482E-4
-7.5245474E-4
-0.0024402982
-0.0018569918
-4.8736186E-4
-6.629536E-4
-4.1448063E-4
7.286936E-4
0.002164771
0.004127249
0.0045485417
0.0030812798
0.0017158145
0.0012895213
8.214606E-4
3.2508612E-4
6.7862624E-4
-5.55958E-4
-0.0019655053
-3.2512643E-4
-7.6437887E-4
-0.0027480528
-3.4643765E-4
0.0012833286
-3.6203448E-4
1.3670884E-4
6.5630855E-4
-1.12446694E-4
0.001231463
0.0016602286
5.221356E-4
0.001594959
0.0031245074
0.0028063387
0.0013881391
0.0012004115
0.003192816
0.004079766
0.0035105483
0.004481108
0.0048549543
0.0019686979
-6.677165E-4
-0.0029832076
-0.007861392
-0.008510726
-0.003981279
-0.0039772647
-0.0056711426
-0.00383301
-0.002024006
-1.6763248E-4
0.0012923717
2.3626044E-4
-9.772513E-4
-2.4207462E-4
8.5404696E-4
6.029387E-6
-9.709569E-4
-5.2797474E-4
-4.505835E-4
3.7651588E-4
0.0020080644
0.001966426
0.0021642935
0.003406436
0.0033996475
0.003105131
0.00157857
-0.0018411975
-0.0014141314
0.0011087619
-2.0127262E-4
-8.541373E-4
1.0619922E-4
-0.0011974963
-0.0017069298
-0.0020751192
-0.004803408
-0.004823554
-0.0019861343
-0.0012975743
-0.0011794348
1.7014849E-4
0.0019075426
0.004287379
0.00498939
0.0034077372
0.0013941661
-3.0261994E-4
9.818805E-4
0.0022553036
-0.0010238385
-0.002502461
6.438296E-4
0.00347018
0.0066689732
0.009960794
0.008630227
0.0043871775
5.743565E-5
-0.005271637
-0.0072524813
-0.0038510873
-0.0013531287
-0.0017271003
-0.0027155085
-0.0038790063
-0.0049735974
-0.005324142
-0.005071439
-0.0044902763
-0.0020172112
5.427283E-4
3.92308E-4
-1.3276143E-4
-7.166045E-4
-0.001740596
-0.001911251
-0.0012499316
1.4888904E-4
0.0010195757
0.0024464596
0.0033261415
0.0013741016
0.0016492823
0.002740496
0.0018956729
0.002907088
0.002498812
0.0015147154
0.0038343214
0.004026248
0.0014319312
2.0157652E-4
-5.568052E-4
-0.0026843036
-0.002860297
-8.818368E-4
-0.0033638692
-0.005574913
-0.0022597236
1.6944513E-6
0.0017935286
0.003145898
0.0014693367
0.0015005057
0.0026017083
0.0027983827
0.0020389226
-5.1773022E-6
6.870299E-4
0.0017712587
5.9459376E-4
4.7456298E-4
-6.755676E-4
-0.002569901
-0.0024803241
-0.0018594683
-5.7192243E-5
0.0014207067
2.3620114E-5
-0.0017983125
-0.0027743774
-0.002868345
-0.0014959757
-6.6475826E-4
-0.0011887396
-9.610167E-4
-1.7340259E-4
-6.299357E-4
-0.001989542
-0.0018077687
6.1942596E-4
7.718725E-4
-0.0011835373
4.872801E-4
0.0021599447
7.912524E-4
3.6002306E-4
-8.046432E-6
7.460843E-4
0.0034048578
0.0039783474
0.0029261308
1.9778826E-4
-0.0022999423
-0.0017711049
-0.0025892206
-0.0027691948
0.0010335707
0.0026396248
0.0011213659
8.8859635E-4
0.0014949931
9.999751E-4
8.505955E-4