0.0012507457
0.0010259713
0.0023591458
0.0015048034
0.0010107365
0.0021484836
0.0015656139
0.0025399115
0.003264892
0.001756505
0.0011696666
-5.22763E-4
-0.001977138
-7.506583E-4
2.3538736E-4
3.22684E-4
-9.6157414E-4
-0.0015278227
6.585848E-4
9.197069E-4
-1.563949E-4
3.2986718E-4
6.0845745E-5
-1.3803359E-4
-4.960739E-4
-0.0027334879
-0.0044457032
-0.0041228123
-0.0018874055
7.2116745E-5
-2.7444056E-4
-7.328622E-4
-1.2085812E-4
-5.1303523E-5
-0.001818652
-0.0027397072
-7.8781486E-5
0.0026892659
0.0030327921
0.00143072
2.0542016E-4
0.0013938107
0.001808788
0.0021431241
0.003448751
0.0024006458
0.0020129897
0.0019065728
-3.3939147E-4
-6.7518384E-4
-0.0013657331
-0.002834129
-5.5721274E-4
0.0026669786
0.004596742
0.0046419404
0.0028120521
9.637683E-4
-0.0015018005
-0.0028798843
-0.0043446566
-0.007354728
-0.0065421145
-0.0043424405
-0.0031659678
-2.4579949E-4
-1.7053806E-4
-0.001297938
9.4749834E-5
2.8834253E-4
3.3562578E-4
1.7308032E-4
6.174761E-4
0.003618089
0.004127141
0.0037586938
0.004451062
0.0034380802
0.0027152686
-4.6693065E-4
-0.004104233
-0.002131412
-0.0012063232
-0.0015569109
0.002057264
0.0033190183
2.227E-5
-0.002163719
-0.0017825282
-0.001152163
-9.55229E-4
-8.5492655E-5
-3.3789864E-4
-0.0014924982
4.7068876E-5
-6.0805425E-5
-0.0035988558
-0.0021547202
0.0011787928
-7.64728E-4
-0.0012880985
0.001752445
0.0031455061
0.0025754077
0.0017827576
0.0026028825
0.0033013262
0.0015524783
-7.4805523E-4
-0.0012993797
3.145562E-4
1.8815951E-4
-0.0010720594
8.1026315E-5
-8.216611E-4
-0.0022621904
-5.985735E-4
-3.762493E-4
-0.0011199057
-0.001441619
-7.922921E-4
0.0021169698
0.0022322014
3.7018667E-4
9.806844E-4
5.752713E-4
-0.001256507
-0.0013311456
-0.0010508447
-0.0017489196
-0.0016625486
-0.0012161959
-0.0017610207
-0.0016259167
-9.528497E-4
-1.8852449E-4
0.0018161053
0.0028311238
0.0019197541
0.0016706603
0.0011707527
-0.0017091685
-0.0026472858
1.5504664E-4
-5.196979E-4
-0.00311613
-8.218681E-4
0.0019022153
0.0025739486
0.0022061036
-2.331584E-4
-5.0140993E-4
5.7977124E-4
-3.275156E-4
7.925486E-4
0.0027723014
0.0034704905
0.0040529342
0.0021876122
-2.9316446E-4
-0.0022542323
-0.004207618
-0.0017953388
0.001203265
0.0011210392
0.0021922125
0.0031729995
0.0035390153
0.0015125201
-0.00346337
-0.0021264516
5.0962355E-4
-0.0027257507
-0.0026898575
-0.0026329374
-0.004655806
-7.2405365E-4
-0.0015801716
-0.00968329
-0.008987813
-0.0029938694
-4.5302234E-4
0.0017945074
0.0019492845
6.9558003E-4
0.0031147797
0.004691704
0.0028335631
0.0022248675
0.0020629056
8.716345E-4
9.3176507E-4
0.0014527518
0.0029746103
0.005842206
0.0058076745
0.0050761555
0.006126657
0.003554428
-2.494788E-4
6.308948E-5
3.327267E-4
-0.0020761136
-0.004578483
-0.005891498
-0.0065569514
-0.00565726
-0.0028944935
-0.0012313344
-2.9861409E-5
7.697047E-4
-0.0019382166
-0.004034131
-0.0034854885
-0.0031333661
-8.853537E-4
9.738325E-4
-2.4424563E-4
3.3491442E-4
0.002282135
0.0025370277
0.0025756608
0.0020380225
8.155132E-4
0.0011219158
0.0025707262
0.002431074
7.177109E-4
4.6084152E-4
1.9277178E-4
-0.0014765997
-4.3937628E-4
0.0010446326
4.1768406E-4
0.0014333634
0.001306945
-2.3616455E-4
9.2914497E-4
0.0011714362
-2.6556506E-4
-9.185734E-4
-7.889594E-4
-2.2938532E-4
-0.0018003947
-0.0021541696
0.0010347565
0.0010145345
-9.1108624E-5
0.0017983051
0.0013748321
-0.0013199762
-0.0035135895
-0.0048052357
-0.002731601
1.3225299E-4
-3.3781782E-4
-0.0017452161
-0.0010474765
0.0017234238
0.0028313936
7.698108E-4
8.626436E-5
3.1274708E-4
-7.632642E-4
-4.3622294E-4
9.580887E-5
2.8144667E-4
0.0015129785
7.248825E-4
-4.700086E-4
0.0014707872
0.0030024243
0.0027340176
0.0032762673
0.0023505029
-9.4021345E-4
-0.0015839409
-8.7879976E-4
-0.0017929103
-0.0012842966
-6.2025525E-4
-8.4381213E-4
-4.8447846E-6
1.7796947E-4
-6.46789E-4
-0.0024049827
-0.0031450444
-4.5100763E-4
0.0010678266
2.1597346E-4
-1.2394573E-4
-3.1095804E-4
-3.5023073E-5
2.0954818E-4
1.833673E-4
-7.053142E-5
-6.9579406E-4
3.780181E-4
6.648092E-4
-0.0015133204
-0.0011686593
9.560352E-4
2.3872811E-4
-9.854556E-4
4.066613E-4
0.0014483487
9.120354E-4
0.0011032625
0.0015921926
0.0023534345
0.0020603447
-6.619118E-4
-0.0016986149
-0.0013903587
-0.0015507136
1.3730229E-5
8.9633476E-4
3.3506518E-4
2.8320125E-4
9.6266405E-5
8.809166E-4
0.002082215
0.0019019191
9.974395E-4
-3.233751E-4
-5.606106E-4
-2.9841673E-5
-0.001491355
-0.0020618897
2.2781313E-4
3.2407182E-4
-0.0020447383
-0.002465793
-0.002045985
-0.0021246735
-0.0014865259
-6.257461E-4
9.255239E-4
0.0016100087
1.5132748E-4
5.0164585E-4
0.0010973227
3.0645684E-4
0.0015779125
7.8255136E-4
-0.0022718685
-0.0011371882
0.0010510518
6.050493E-4
-2.688006E-5
4.3672128E-4
3.6704235E-4
-3.9303352E-4
7.015356E-4
0.001634233
6.71841E-4
1.3370875E-4
-4.719325E-5
-2.2886178E-4
-0.0010975618
-0.00133338
4.9587945E-4
0.0011697139
0.0012822803
0.0013251269
4.4641492E-4
5.3190807E-4
-3.5704958E-4
-8.46348E-4
7.8069925E-4
7.568383E-4
4.7920228E-4
9.578888E-4
-6.969674E-6
-7.911235E-4
0.0011803287
0.00282585
0.0016467969
0.0017891454
-7.908408E-4
-0.003999064
0.0013347303
-9.62233E-4
-0.011678481
-0.0088658
-0.0019855853
-0.0026057207
-0.003107836
-7.7029347E-4
0.0027314594
0.0027799127
0.0014434261
0.0024239686
0.0011466364
2.1499416E-4
0.0020935973
0.002101389
6.374969E-4
3.994807E-4
9.324663E-4
0.0010474236
7.613377E-4
5.543578E-4
0.0016915175
0.003440481
0.0031030911
0.0026651116
0.0035602283
0.0039773798
0.0018423429
-0.0033215927
-0.0049407654
-0.0013770194
9.040765E-6
-0.0021623531
-0.004644537
-0.0045595244
-0.001982943
5.892266E-5
8.5308816E-4
5.988155E-4
4.5118725E-4
0.0014910484
0.0024110563
0.0013397246
-0.0015625963
-0.0032004316
-0.0022128797
4.6646925E-5
-2.1124113E-4
-0.0025950512
-7.611583E-4
0.0019495907
0.0022800541
0.0015278256
-0.002766093
-0.0022876665
0.002484132
-3.8799449E-4
-0.0034341158
-0.0016167307
2.9950467E-4
0.0027476524
0.0033129184
0.0017184454
7.021733E-4
0.0013443468
0.002138317
5.466886E-4
-8.256078E-4
-0.0010004139
-2.1732182E-4
0.0011105156
6.8771216E-4
0.0011909257
0.0012890246
-7.377654E-4
-7.40089E-4
-5.312558E-4
-4.8594375E-4
1.4781918E-4
-9.316027E-4
-0.0012741574
-0.0015213896
-0.0029669201
-0.0027321808
-0.0019607805
-0.0015622085
-4.9320277E-4
9.1026456E-4
0.001784513
0.0011081273
4.4574525E-4
0.0010779911
0.0019954157
0.0033148734
0.0035749176
0.0014705819
7.6685287E-4
0.0021473232
7.027727E-4
-0.0019667696
-0.0014090047
-1.2526703E-4
1.0153366E-4
-4.967893E-4
-0.0029413782
-0.0042426847
-0.0019116183
8.517929E-4
0.0021044468
0.0026466446
0.0017997561
-4.2716484E-4
-0.0029241825
-0.0045041237
-0.004077318
-0.003331653
-0.0019282044
0.0011723968
0.0027477397
0.002838542
0.0019581057
2.3738918E-4
7.5235806E-4
0.0016499917
0.0011860928
-2.1341222E-4
-0.0018511895
-4.035804E-4
4.8551653E-4
-8.5855386E-4
-9.758239E-5
2.2600984E-4
6.2616693E-4
0.002253388
0.0012417856
-2.518189E-4
4.8039592E-4
0.0020455215
0.0024267433
0.0020381974
0.0015615107
-8.7523035E-4
-0.0017239758
-5.395346E-4
-0.0015924342
-0.0017906202
-0.0010676113
-2.217747E-4
0.0022087977
0.0016946509
-5.807717E-4
-1.4465385E-4
5.3455716E-4
-4.0298418E-4
-0.0014917334
-0.0021186608
-0.0022312107
1.6583056E-4
0.0030981037
0.0025730964
4.4217278E-4
-0.0016920209
-0.0018126003
0.0010156512
0.0017483005
-2.0717166E-4
-8.3894486E-4
-1.5117711E-4
-0.001015042
-0.0025770538
-0.002517183
-0.002802458
-0.003230571
-0.0035169632
-0.0038830214
-0.0021438268
-0.0015357834
-0.002313287
-0.0014009706
-1.2543026E-4
0.0018848883
0.0029248262
0.0028537405
0.0035007952
0.0033958317
0.0040176837
0.0043134596
0.0031841055
0.0027838673
0.0035287126
0.005358588
0.005001429
0.00443313
0.004470178
9.2615996E-4
-1.3657096E-4
-2.3458972E-4
-0.0037195974
-0.0043668253
-0.0040242146
-0.0038019645
-0.0015723399
-0.0010239277
-0.0041201226
-0.004670696
-5.5053304E-5
-0.005319557
-0.012900901
-0.0042294655
0.0010345861
-0.0013802231
3.9306996E-4
-0.0010335549
-1.7968475E-4
0.0037115621
0.004143463
0.0052340073
0.0036216066
7.532575E-4
-3.7212772E-4
-9.200493E-4
0.0011963982
0.0012935826
5.821723E-4
0.0018943099
0.00160085
0.0028670863
0.005102575
0.00501227
0.0033068038
-2.6846508E-4
-0.0028379052
-0.002399718
-5.3774513E-4
-4.2688815E-4
-0.0026617781
-0.0032230122
-0.0025546795
-0.0013535211
4.2018262E-4
-5.329691E-4
-0.0018195488
-0.0026246507
-0.00443549
-0.0022174248
7.699083E-4
-6.942194E-4
-2.6324127E-4
0.001363844
-7.494937E-4
-0.002827414
-0.0024961035
-0.0010965323
-0.00148357
-0.0024964572
2.8502332E-5
0.003358787
0.0071476544
0.0089539075
0.0054768156
0.007150878
0.011098738
0.0071629467
0.0031642942
3.325541E-4
-0.0018348425
2.3071983E-4
-8.544332E-4
-0.0038600194
-0.0033923488
-0.0046630623
-0.006875771
-0.0062082824
-0.004913784
-0.0026575802
-1.3133661E-4
-0.0016786145
-0.004018396
-0.0043369387
-0.0056899018
-0.004595574
-9.305669E-4
1.0100461E-4
-3.3814867E-4
-0.001824963
-0.002916616
-0.0011778062
0.0014960738
0.0051797503
0.008253894
0.0076726195
0.006007648
0.0059720012
0.005472823
0.0037028983
0.0043071928
0.0044814474
-3.0598577E-4
-0.004366726
-0.0047410894
-0.006089609
-0.009756857
-0.011628668
-0.009260315
-0.004819518
-2.4309717E-4
0.0026366306
0.0051919986
0.008274062
0.008115597
0.007828371
0.0074206977
0.0031605856
4.8301998E-4
8.563498E-4
0.004524793
0.008033926
0.003553872
-8.7282533E-4
-0.0025895506
-0.0051827235
-0.002087542
9.410219E-4
-8.4165053E-4
-0.00251053
-0.0047232425
-0.004133142
-0.002592734
-0.004837392
-0.006719153
-0.009218439
-0.011217607
-0.008670246
-0.0053380076
-0.0027398444
-3.9536497E-4
5.578155E-4
6.79496E-4
0.002599027
0.0064169117
0.0054179714
3.8858352E-4
6.9456546E-5
0.0027880822
0.002814953
0.0012643954
0.0015026596
0.0042590876
0.0066451733
0.00508367
0.00102603
-8.4375223E-4
-0.002447483
-0.0046441285
-0.0021681245
0.0019593341
0.004510359
0.0069441977
0.008185721
0.010318089
0.010067741
0.0061614504
0.00475769
-1.1978239E-4
-0.0078087305
-0.010358137
-0.012858216
-0.012615388
-0.0067387563
-0.0030169426
-0.0027382548
-0.004006586
-0.0019329481
0.0025931676
0.0022167065
0.0021836767
0.005089649
0.006926168
0.008758367
0.009587234
0.008266746
0.0027590953
-0.004237546
-0.0066206134
-0.008640592
-0.010467363
-0.01000428
-0.011038711
-0.0114832185
-0.011450798
-0.011417974
-0.008828466
-0.0061277454
-0.003681613
-8.020969E-4
0.0011503404
1.816295E-5
-0.0018649579
6.5750483E-4
0.0014888177
0.002266417
0.00968262
0.014268329
0.01707277
0.021634825
0.024222802
0.028581833
0.025756655
0.015927427
0.011808432
0.0049509616
-0.001584752
-0.0020010353
-0.0108296545
-0.016205296
-0.0036772043
0.0014690927
-0.008424115
-0.010708432
-0.0088478
-0.013418179
-0.016815128
-0.01660533
-0.011417907
-0.008813684
-0.0152331805
-0.01856902
-0.021279115
-0.01788778
-9.435887E-4
6.218861E-4
-0.01104651
-0.009558067
-0.004352033
-3.596352E-4
0.010476132
0.022361353
0.024869295
0.014776871
0.0026638294
0.009208709
0.031532068
0.038608517
0.034259483
0.036488067
0.025859619
3.9305785E-4
-0.022358548
-0.029991549
-0.009711397
0.018115085
0.02611201
0.010605962
-0.020324685
-0.04220439
-0.035221055
-0.0012947096
0.025702681
0.015122353
-0.007638233
-0.018594759
-0.023031851
-0.027577892
-0.04059175
-0.052132342
-0.047876574
-0.026750434
-0.0054831235
-0.00593773
-0.0034093056
0.016411623
0.034526512
0.068017535
0.09922216
0.078577586
0.03196919
0.0015295878
-0.016439054
-0.034132946
-0.05524744
-0.076655544
-0.08580013
-0.06452535
-0.02446766
0.0041808775
0.033887364
0.07855759
0.11209602
0.108374305
0.06166576
0.018279769
0.015900189
4.7408993E-4
-0.05257119
-0.090940975
-0.08619683
-0.04886977
-0.009421492
0.011263851
2.2052492E-4
-0.027607238
-0.004256061
0.054033697
0.07855848
0.08869948
0.10090468
0.114530236
0.1075212
0.018012095
-0.10413463
-0.17227189
-0.20232867
-0.19732341
-0.131584
-0.0499244
-0.017432394
-0.0082904445
0.022800582
0.06353276
0.104895234
0.11154877
0.08820406
0.11562582
0.14359295
0.0948229
0.01904432
-0.05758899
-0.12037832
-0.13106671
-0.08488801
-0.027237825
-0.021001766
-0.0074689416
0.068880595
0.12104811
0.10444552
0.051326036
0.036781434
0.06852329
0.016897604
-0.09924453
-0.1634691
-0.17217997
-0.1495437
-0.1387633
-0.1206024
-0.05874605
0.0026401042
0.05866999
0.091468446
0.11230645
0.145672
0.14950012
0.18305206
0.21327528
0.15129285
0.10119677
0.043613326
-0.05684964
-0.11249015
-0.17531495
-0.20265362
-0.105269246
-0.021239154
-0.0011114711
0.032152444
0.040786695
0.014362657
-0.006603026
-0.06682592
-0.11011586
-0.058250867
-0.027532348
-0.033786554
-0.03632179
-0.08265666
-0.083776735
-0.04426935
-0.041211616
0.0035034914
0.025031324
-0.0027227541
0.05257363
0.09873545
0.07106284
0.10683664
0.18341325
0.17124635
0.08344751
0.005730077
-0.020064013
-0.022546489
-0.08090597
-0.15334977
-0.09767695
0.0028395306
-0.027015248
-0.10143724
-0.096636854
-0.050730493
0.011887801
0.07538484
0.08149729
0.03010768
-0.022668911
-0.033074386
-0.030299513
-0.06378972
-0.09599924
-0.10300499
-0.096390195
-0.054986354
-0.0037821066
0.035938174
0.090426974
0.16752991
0.24400036
0.25308362
0.19863164
0.13658619
0.04369554
-0.04044099
-0.052341804
-0.05770316
-0.108628824
-0.1486944
-0.1003743
0.006689383
0.08747115
0.12468533
0.118115135
0.092622586
0.05071141
-0.060724016
-0.18772317
-0.24767415
-0.24645469
-0.20495641
-0.15373196
-0.09739828
-0.031108592
0.0035793104
-0.01387903
-0.047016006
-0.040186103
0.006966169
0.05401387
0.07281375
0.03641774
-0.018478522
-0.04236587
-0.043532327
-0.009928298
0.053262938
0.121569395
0.17411025
0.17650692
0.16080065
0.15930498
0.16275558
0.17336686
0.14520721
0.067456946
0.011264859
-0.0052061873
-0.031651627
-0.0937465
-0.1265728
-0.06451255
0.039238546
0.08158838
0.040662114
-0.03578144
-0.13149278
-0.19002941
-0.15804577
-0.12987338
-0.13016541
-0.09736541
-0.06239459
-0.027092088
0.012512009
0.022956446
0.021999964
0.023338184
0.018793603
-0.0022008696
-0.02430579
-0.012155716
0.020779142
0.048671022
0.047864556
0.025129175
0.020220878
0.021225445
0.025138136
0.032338142
0.018718263
0.01248392
0.017887503
0.009429794
-0.0041362103
-0.01754398
-0.02106357
-0.01949782
-0.021187194
-0.012886405
0.0017137536
0.022240052
0.040047824
0.04677177
0.059715733
0.06456136
0.05233603
0.041186146
0.023455326
-0.0025510509
-0.02041819
-0.022978825
-0.016167399
-0.0074068895
0.0028012225
0.005399168
-6.403585E-4
-0.003855619
-0.008081645
-0.019468205
-0.032891683
-0.03644053
-0.029808572
-0.029895233
-0.037528027
-0.04008347
-0.032070182
-0.020834915
-0.016355453
-0.0103673
-0.004803544
-0.006141507
-6.024262E-4
0.005606391
0.004787486
0.012972916
0.029469615
0.03642643
0.028825333
0.01937523
0.006430037
-0.01373128
-0.01675062
-0.010158702
-0.02120611
-0.03330043
-0.029768279
-0.018794412
-0.013242876
-0.0119940145
-0.0012035107
0.00789137
0.005729932
0.008644626
0.016169472
0.012264405
-0.0043221153
-0.013463342
-0.0037774274
0.0074409465
0.013084537
0.028771015
0.055639546
0.06772373
0.05520941
0.040684372
0.027942007
0.011959809
0.0065645278
0.011560547
0.018626707
0.026689125
0.03284185
0.032826345
0.02404657
0.013538393
0.0039938553
-0.010312794
-0.02312652
-0.02259272
-0.010304442
-0.0023401354
-0.0018978507
-0.0030184144
-0.011419846
-0.018810982
-0.019053383
-0.024783747
-0.034935508
-0.046377216
-0.05760437
-0.0608183
-0.060458716
-0.061674856
-0.0611772
-0.057060186
-0.04957101
-0.039434563
-0.027908202
-0.017352622
-0.0073590856
0.0020891076
0.008133698
0.00893546
0.004718668
-0.003214193
-0.013044621
-0.01236147
0.0037006033
0.018372089
0.026714068
0.035509598
0.05112905
0.07515703
0.09904502
0.12253984
0.13906345
0.14745045
0.15203124
0.11567159
0.045314502
0.009418529
0.012557904
0.024354985
0.030300539
0.013282688
-0.004084501
0.01496576
0.032693
-0.0031379985
-0.054524
-0.07665983
-0.08416468
-0.082609236
-0.090469316
-0.13315736
-0.174585
-0.1813187
-0.17325255
-0.17227158
-0.16201842
-0.124769956
-0.08426922
-0.052935664
-0.022288281
0.0036255585
0.029560434
0.053124975
0.066735424
0.07655557
0.081700094
0.08805595
0.09854012
0.10034987
0.09727311
0.09801479
0.099903524
0.09794739
0.08774984
0.074782945
0.067575574
0.06267774
0.051696274
0.03623827
0.022236768
0.0087357545
-0.004041117
-0.01652763
-0.028803423
-0.036279008
-0.04386872
-0.0517082
-0.05060982
-0.04479391
-0.040011227
-0.036688015
-0.033831567
-0.02818484
-0.023808416
-0.021774393
-0.01910113
-0.017944911
-0.017129822
-0.017761987
-0.018460106
-0.014572832
-0.015228354
-0.02366831
-0.0293141
-0.027650105
-0.022043638
-0.01795438
-0.012682703
-0.0032397176
0.004723698
0.010237917
0.014330236
0.016943658
0.018664425
0.019136515
0.021003077
0.024454052
0.026660662
0.026675936
0.025190933
0.023170296
0.01968388
0.01680135
0.016148727
0.01602245
0.015380602
0.012578401
0.01127187
0.011679522
0.0091737555
0.0077560255
0.006466708
0.003523851
0.0031664215
0.003087927
0.0022628556
4.3801664E-4
-0.0013318623
-1.7372913E-4
4.0057104E-4
0.0011216906
0.0011653817
-0.0013082922
-5.7600986E-4
7.449657E-4
3.2219052E-4
3.639307E-4
4.4881992E-4
0.0033237594
0.0044993768
0.0015281867
9.2925207E-4
0.0013404961
7.370052E-4
2.1987945E-4
4.5555856E-4
0.0011571175
-3.4269894E-4
-0.0018930554
-0.0023500572
-0.0013165072
0.0022656145
0.0018241741
-0.001074805
2.1456832E-4
0.0024904443
0.00385478
0.0035573614
0.0022465992
8.1608596E-4
-0.0037996382
-0.0069839093
-0.0063438364
-0.0052707815
-0.0023270722
-0.0018237428
-0.0037436953
-0.002075966
-0.0014283236
-0.0022090287
-0.0014060219
-7.1460026E-4
8.893746E-4
0.0012398678
1.5863306E-4
-0.0011985089
-0.003623411
-0.002064308
-6.786258E-4
-0.0026832337
-2.0345864E-4
0.0016625463
3.0598498E-4
6.893056E-4
-5.264723E-4
-0.0010902378
-6.223821E-4
-0.002932091
-0.0030950042
1.84896E-4
0.0016387559
-5.828677E-4
-0.0026909
-0.0025699723
-0.0011257803
5.260102E-4
-0.0015139213
-0.00346711
-0.002186838
-0.002971263
-0.002018992
0.0017882871
0.005116744
0.008781509
0.0088656545
0.0073110047
0.0053984025
2.7133065E-4
-0.004995
-0.009210313
-0.0067509864
-8.56201E-5
1.2738625E-5
-0.0014959024
-0.0019531301
-0.0011632734
8.2775234E-4
-0.0023661936
-0.003537401
-5.3426524E-4
-1.11414076E-4
-0.0013793916
-0.004561531
-0.0026797247
0.0016878045
-7.2611374E-4
-0.0022320095
-0.005952063
-0.010162541
-0.0031465236
0.0018861946
0.0015007759
0.0052988166
0.0067654615
0.0049585816
0.0043629054
0.003641446
0.0012995307
-0.00182512
-0.0015087448
-4.0184357E-5
-0.0015504622
-0.0014422998
0.0010706536
1.1488337E-4
-0.0032778757
-0.002268421
3.4537126E-4
-7.560255E-4
-4.2121593E-4
0.0010692982
-9.026779E-7
3.2066915E-4
9.727294E-4
-6.6792185E-5
-6.538E-4
-0.0015817166
-0.0015864238
3.5524752E-4
0.001079976
-3.1960465E-4
-0.0011324587
-7.978463E-4
-0.0018879016
-0.0015609774
0.0016780553
0.0017154298
8.097637E-5
2.9417628E-4
-8.799914E-6
6.631181E-4
9.03628E-4
-9.798914E-4
-0.0014383104
-0.0025144261
-0.003767886
-0.0021625168
-0.0014378391
-0.0014674279
-0.0014551666
-0.0020011093
-9.757983E-5
0.0014931974
0.0013369214
0.0015312396
7.0286053E-4
0.0019721484
0.0038710209
0.0019236942
0.0010690122
0.001190979
1.7027355E-4
4.8511507E-4
-6.949144E-4
-0.002856859
-0.0019509731
1.537321E-5
8.108038E-4
5.843776E-4
-1.881236E-4
-7.141461E-4
-0.0012538583
-0.0025758063
-0.0021070973
7.9282414E-4
0.0012316039
0.001185354
0.0020550766
-7.409249E-4
-0.0024093988
-0.0013450278
-0.0013627523
-5.2896555E-4
-6.689583E-4
-4.753847E-4
0.0016522972
0.0011600193
7.118804E-4
0.0018308936
0.0015305873
6.1959913E-4
0.0012031217
0.0023684825
-5.02704E-4
-0.0036226478
-0.0038174684
-0.006095035
-0.004853917
7.865211E-4
0.002411219
0.0026771098
0.0028153334
0.0011995352
0.0010755156
0.0010502241
-5.7831366E-4
-0.0011098904
-7.905936E-4
-0.0010101269
-3.2781114E-4
3.421268E-4
4.3912916E-4
5.512386E-4
-6.5807876E-4
8.2186953E-4
0.0036283098
6.8209955E-4
-0.002561908
-0.0026083759
-0.0018588259
4.2526284E-4
0.0017853384
0.0021533396
0.0016879019
3.491851E-4
4.9356243E-4
-0.0014226187
-0.0036329513
-0.001919031
-5.274747E-4
3.349455E-5
9.462863E-4
0.0010722409
4.0815788E-4
9.412361E-5
0.0016469528
0.0013360821
-0.001529406
-0.0018006858
-1.9673277E-4
5.496526E-4
8.731106E-4
0.0014495355
5.402166E-4
-0.001550757
-0.0011791444
-9.439618E-4
-0.0021499128
-0.0011220804
3.5090106E-5
4.369893E-4
7.0965156E-4
-2.7166383E-4
-1.8497446E-4
-9.886928E-5
-0.0014686848
-0.0012249096
3.1587674E-4
9.6063956E-4
2.6445402E-4
1.5964333E-4
0.0013788367
6.765634E-4
-8.002534E-4
-6.145565E-4
-8.430684E-4
-3.5135754E-4
0.0015369075
0.0012160183
1.6045487E-4
6.3419354E-4
4.3565518E-4
7.941478E-4
9.229875E-4
-9.930442E-4
9.379695E-5
0.0016623806
3.4008568E-4
5.778175E-4
-4.914109E-4
-0.001292883
6.8075897E-4
-5.597959E-4
-7.3768565E-4
0.0010993466
9.2057337E-4
0.002031366
0.0016784077
-1.0614239E-5
-0.0016464933
-0.004182244
-0.0024616693
-9.602373E-4
-0.0018794142
-2.832415E-4
0.0010505285
0.001858522
-5.460327E-4
-0.002213972
0.0017591887
-0.0027835958
-0.00923657
-0.0031807865
0.0016809253
0.001834308
0.0035328115
0.002883655
0.001358502
0.0021521961
0.002460011
0.0010088228
-2.2903208E-4
-0.0014254724
-8.53375E-4
0.0019943882
0.0025904456
0.0031639903
0.0017191571
-0.003987052
-0.003167981
0.001129611
8.2904304E-4
7.66682E-4
9.2165614E-4
3.7527093E-4
6.198076E-4
0.0011267517
4.815668E-4
-0.0021013801
-0.0018209012
1.4495288E-4
-8.1381353E-4
-0.0015739871
-0.0012970364
-1.19853685E-4
2.476228E-4
-0.0022513473
-0.0012191843
0.0023897632
0.00149249
4.4344648E-4
0.0014836412
3.3745117E-4
-0.001027397
-0.0021239864
-0.0033165694
-0.001431605
-7.3114043E-4
-0.0020984036
-0.0014011085
-6.6195155E-4
0.0013697868
8.0713676E-4
-0.0036797968
-0.0011759135
0.002951005
0.0021656086
0.0023976783
0.0013952717
-1.8217912E-4
3.5299367E-4
0.0010041862
0.0019181349
0.0020384963
0.0022945215
0.0022406855
0.0015130307
0.0022024247
0.0020499842
0.0012847411
-9.099037E-4
-0.004103684
-0.0025466713
-5.055626E-4
-0.001361774
-0.001193003
-6.597355E-4
-5.2749354E-4
-0.0013831208
-0.002220038
-9.7248313E-4
-7.314831E-4
-0.00179877
-0.001160217
1.3751202E-5
3.5023544E-4
7.360674E-4
7.696996E-4
8.814467E-4
0.0013135562
1.2436221E-4
-2.1467549E-4
8.5021637E-4
6.3159555E-4
6.7013013E-4
1.9439272E-4
2.896155E-4
9.0496725E-4
-9.3945523E-4
-8.216006E-4
-9.4773964E-4
-0.0024011838
-2.2383245E-4
-3.2127314E-4
-6.010743E-4
0.0010581268
-0.0017320774
-0.0015745546
0.002192769
0.0021801738
8.711024E-4
-1.807181E-4
7.9632207E-4
0.0023651153
0.0017209798
0.0020523502
0.0020791935
0.0016611376
0.002312329
1.7017846E-5
-0.0029641949
-0.001967303
-8.2407275E-4
-0.0012896965
-3.7288255E-4
-5.2362785E-4
-0.00210869
-6.6369254E-4
4.0523388E-4
-0.0012450563
-0.0014151598
-0.0011546152
-0.0018924462
-0.0011250017
1.2987957E-5
-0.0013230696
-0.0015030453
0.0019175155
0.0030399528
0.0017500435
0.0022489387
0.0027033852
0.0016150188
-5.6646694E-4
-0.0021960249
-0.0022972662
-8.403006E-5
0.003769434
0.0027753937
5.294607E-5
6.8072067E-4
-0.0013298288
-0.0024551395
-2.4134487E-4
-0.0010232314
-0.0020146219
-0.0015610517
-5.210366E-4
0.0013320025
5.330418E-4
-9.5412956E-4
-8.83795E-4
-9.4357197E-4
-2.5301182E-4
5.132204E-4
4.6204505E-4
3.5627428E-4
4.2374834E-4
0.0010569331
9.988773E-4
-6.7351386E-4
-0.0018321887
-0.0013921832
-7.5308897E-4
6.2564266E-4
0.0025142697
0.0017025473
6.195983E-4
0.0012778129
-1.9392566E-4
-0.0015519571
-7.3583826E-4
-6.1823975E-4
2.7327458E-4
0.0014140593
0.0013495716
0.0023029314
0.0020830736
-1.4512484E-4
-9.045632E-4
-8.1606733E-4
-0.0012154297
-0.0011472972
-4.0522162E-4
-3.9924445E-4
-0.0014180846
-0.0012619344
2.1631205E-4
0.0017579988
0.0015728228
1.6935542E-4
8.092541E-4
-7.6381705E-4
-0.0023702285
0.0020675974
-0.0010906928
-0.0097892145
-0.004808359
0.0037258957
0.0035814259
0.001596046
0.0011616832
0.00197677
0.0012627183
-4.1889586E-4
4.6242742E-4
0.001274112
0.0022221932
0.0020922779
-0.0013305397
-0.0016361615
6.752764E-4
4.0711835E-5
-0.0013395913
-0.0012351131
8.094041E-5
4.0158693E-4
-0.0014259137
-0.0019254987
-3.68962E-4
8.1090414E-4
5.959201E-4
7.365809E-5
8.678121E-6
-0.0010903884
-8.852298E-4
2.493177E-4
-0.0024581458
-0.003448232
-3.5123443E-4
0.0013901611
0.003409398
0.0034516638
0.0011574742
0.0023628867
0.0024592406
8.743559E-4
0.0018957088
8.179122E-4
-0.0020870522
-0.0021301776
-2.4179585E-4
5.6705857E-4
-4.61895E-5
-3.943595E-4
-9.733151E-4
-0.0012452296
-0.0013849956
-0.0012847951
6.3307723E-4
-9.533129E-4
-0.0037986937
-0.0012760856
1.7589993E-4
2.416629E-4
0.0012168573
-5.190642E-4
-0.0010183222
-3.7557425E-4
-8.992057E-4
7.8445574E-4
0.0021233968
9.912092E-4
-0.0011160127
-0.00295095
-9.754568E-4
0.001975488
0.0014378715
0.0015153136
0.002450946
0.0016034527
0.0015546744
9.769928E-4
-8.181729E-4
3.673938E-5
0.001572965
9.5908425E-4
-3.7523915E-4
-5.3301605E-4
2.8044893E-4
-4.7743806E-4
-7.685618E-4
9.132741E-4
7.515379E-4
-5.178237E-4
-1.3786796E-4
0.0015433923
0.0019610263
1.3365204E-4
-6.385845E-4
-0.0014649006
-0.0030790477
-0.002017968
-0.0014515795
-0.0023531518
-0.0011319575
-2.0658933E-4
-9.1108127E-4
-5.1392143E-4
6.0196937E-4
1.5429701E-4
1.9153257E-4
0.0019640925
0.0010415002
-0.001656656
-0.0021934432
-0.0024179162
-0.001957766
6.51007E-4
0.0022969763
0.0012237753
-8.900955E-5
7.4154884E-4
0.0023760113
0.002808592
0.0022287725
0.0017101248
0.0021609021
0.0023203145
0.0016364822
9.307252E-4
-7.957087E-4
-0.0010242887
0.0013296257
2.4451164E-4
-0.0032365012
-0.0032070805
-9.795387E-4
8.812182E-4
7.774453E-4
-6.223931E-4
1.415621E-4
4.5301733E-4
-0.0017531934
-0.0020027827
-6.7385973E-4
-8.8425324E-4
-0.001964832
-0.0024325165
-0.001598888
-0.0012291155
-0.0012265232
1.3198965E-4
-1.8859812E-4
-0.0011648671
7.8060635E-4
0.0012996001
-5.3845575E-5
9.003153E-4
0.0014954017
0.0013540483
0.002625391
0.0020477795
3.643249E-4
2.884554E-4
6.434286E-4
0.0022096876
0.002147718
-8.5289124E-4
-8.745551E-4
2.6913584E-4
5.673303E-4
0.002766981
0.0025472692
-1.1573658E-5
-2.2508015E-4
1.552856E-4
-6.4897095E-4
-0.0027884135
-0.004423626
-0.0032988766
-0.0022536423
-0.0023211169
-0.0010861281
2.9104913E-4
8.0264645E-4