0.0042168186
0.005321052
0.0057297684
0.0036636547
0.0033042233
0.002377412
-0.002111513
-0.004146859
-0.003105591
-0.0020301193
-7.607855E-4
6.316393E-4
0.002001925
8.4477954E-4
-0.001544637
-0.0019088488
-0.0023422933
-0.0017014378
-6.45858E-4
-0.0020495658
-0.0021591047
-0.0012063783
-0.00173104
-0.001949177
-0.0014925199
-7.985956E-4
-1.00297686E-4
8.985841E-4
0.0016381387
0.0014316245
0.0013280855
6.928908E-4
2.3794376E-4
9.208633E-4
0.0025894064
0.004518776
0.0028931526
0.0017638468
0.0037048052
9.841691E-4
-0.0019292077
-8.829934E-4
-0.0022743905
-0.003442962
-0.0032513146
-0.003248318
-2.834835E-4
0.0013432342
3.1984624E-4
0.0011704367
4.058627E-4
-0.0017421899
2.5124324E-4
0.0020017012
-4.5784736E-6
-0.0010712686
-0.0012488976
-0.0010450898
4.4847486E-4
-4.8175003E-4
-9.0367004E-4
0.0012090561
1.6957903E-4
-8.023833E-4
8.5780496E-4
0.0011815196
0.001571039
0.002431995
0.0033481445
0.003930637
7.006152E-4
-0.0039257687
-0.0047541074
-0.0022199817
-0.0010487834
-0.0021869107
-0.001215585
-4.7669066E-5
-7.584921E-4
2.378582E-4
0.0015701327
0.0013378386
6.132244E-4
3.0689777E-4
7.4116344E-4
7.4980676E-4
7.07189E-4
-1.749366E-4
-0.0013325264
-3.1069212E-5
0.0016812565
0.0023674592
-5.8228197E-4
-0.0046070227
-0.0011304223
0.0016980718
-6.1022038E-5
0.0012293475
-7.6927664E-4
-0.0041495035
-0.001784204
-8.86388E-5
0.0010733027
0.0023069037
0.0017790619
0.0022183321
0.0017449296
0.0020152007
0.00327103
8.749778E-4
-9.3570707E-4
1.2061857E-4
0.0012313838
4.3578545E-4
-0.003200604
-0.0036058277
7.612238E-4
0.003449973
0.0031538145
7.077752E-4
-0.0026389742
-0.004467319
-0.0046260473
-0.0036123034
-0.0017704109
-2.1545212E-4
-0.001256878
-0.0027065803
-5.533808E-4
8.300093E-4
2.820671E-4
0.0021496532
0.003349409
0.0019133484
3.7179497E-4
-2.52055E-4
6.648136E-4
7.774456E-4
-4.7687633E-4
-1.9299527E-4
6.849937E-4
0.001110644
0.0017602565
0.0017190784
7.6808146E-4
5.770736E-4
0.0025673497
0.0039367927
0.0016744992
-4.0307458E-4
-0.001187457
-0.004078314
-0.0054768887
-0.003238553
-0.0013857757
1.452286E-4
0.0019302026
0.0026686746
0.0025303934
0.0010484688
-7.6269126E-4
-7.3505816E-4
-0.0013093766
-0.0046540718
-0.00513383
-0.0013200379
-1.6173972E-4
-4.3984948E-4
9.3157566E-4
0.0013429984
0.001479879
0.0012790738
0.0011739533
0.0015357928
3.3442913E-5
-9.803881E-4
-8.4805815E-4
0.0010187386
0.0047418033
0.004616622
0.003012925
0.0021983248
3.029662E-4
-2.781593E-4
-0.001221432
-6.9109345E-4
0.0021750678
0.0027249984
4.8074833E-4
-0.0047857156
-0.004090714
7.3446444E-4
-0.005052848
-0.00831908
-0.0022793077
-9.5341355E-5
-2.0075116E-4
-1.9288965E-4
0.0018893671
0.0035268585
-6.9547177E-4
-9.440977E-4
0.0017038645
3.2212998E-4
-7.063492E-4
-0.0020911878
-0.0018796264
0.001440383
0.0019177939
-0.001125434
-0.0018689318
0.0020807448
0.0028222795
2.5587936E-4
6.4906455E-4
3.277657E-4
9.3363214E-4
0.0030813864
0.0023387969
0.001058888
-7.875246E-4
-0.0013503418
-3.0243178E-4
-0.0011595509
-2.0815282E-4
0.0022699686
0.004196715
0.0040735076
4.322415E-4
0.0010031145
0.0031637715
5.5304414E-4
7.307856E-5
-8.82306E-4
-0.004812446
-0.004362418
-0.0034011228
-0.004833569
-0.0031047359
-0.0014117875
-0.002713526
-0.0026633758
-0.002410929
-0.0026020205
-8.358832E-4
1.724504E-4
5.3245685E-4
4.179211E-4
-9.6598425E-4
0.0011119599
0.004451466
0.0037421633
0.0015275502
0.0022567166
0.0064600212
0.006545965
0.0010004633
-0.0011935106
-5.555721E-4
-0.0014745833
-0.0016178624
4.1926134E-4
0.0018987198
5.047911E-4
-8.433645E-4
-7.03105E-4
-7.5721584E-4
-0.0010149069
-0.0021810476
-0.001881156
5.608248E-4
4.051336E-4
-9.974288E-4
-6.251581E-4
-5.662883E-4
-0.0010051512
-1.2286051E-5
1.5514843E-4
-0.0016457833
-1.8034287E-4
0.0021277047
7.4998956E-5
-5.5240025E-4
0.0012462728
0.0013245533
9.170154E-4
4.221025E-5
-0.001349207
-0.002191482
-0.0019898352
-9.0305944E-4
-7.130589E-4
-1.908362E-4
0.0012125688
0.0010002181
3.773251E-4
0.0010876466
0.0013792241
1.17561525E-4
-4.354234E-4
3.8919167E-4
0.0010641651
0.0020737944
0.002519427
0.0029382568
0.0032686577
-8.585238E-4
-0.0045052627
-0.0031921433
-0.0031068595
-0.0028006788
2.065937E-4
0.0018429847
0.0024417709
0.0020570147
6.898297E-4
-3.2868085E-4
-0.0024836098
-0.0038736241
-0.002612777
-5.2711053E-4
0.0012561496
4.8657297E-4
-0.0010259673
7.564988E-4
0.0014150471
-8.4584276E-4
-2.4704894E-4
0.0019823373
0.0025083884
0.0028262418
0.0010295745
-0.0019102556
-0.0015967406
-0.001588221
-0.0032622158
-0.0023454088
3.1688114E-4
0.0021946803
0.0026038783
0.0028099776
0.004113226
0.0037087882
0.0010862877
-9.1083354E-4
-0.0022286775
-0.0026232523
-0.0014317359
-4.4338277E-4
7.404642E-4
0.0025912796
9.99503E-4
-0.0017928433
-3.091433E-4
9.2377246E-4
-5.353282E-4
-0.0018170858
-0.002440325
-0.0012824442
-8.5097685E-4
-0.0022011818
-0.0017770998
-0.0011929354
-6.4619805E-4
0.0011631541
0.0011082609
-4.9629435E-4
-3.899817E-5
0.0020728214
0.0015117046
-1.1529002E-4
0.0015315021
0.0031830787
0.002269768
-0.0013195548
-0.004382196
-0.0026729703
-7.512818E-4
0.0013298348
0.004166707
0.0020637317
-1.1183096E-4
6.1886973E-4
8.5841655E-4
0.00207536
0.0024800738
5.1282643E-4
-0.0018346644
-0.001472961
8.2345074E-4
-0.0014866847
-0.004662199
-0.0030602359
-3.8908605E-4
0.0015473489
0.0014442601
1.9054509E-4
-9.741451E-5
1.4246997E-4
0.0014267166
2.810018E-4
-0.0027183203
-0.0022967032
-9.2183455E-4
-4.6348374E-4
7.574242E-4
0.0020744733
9.2162786E-4
-0.0018843645
-8.034634E-4
0.0030716266
0.004461697
0.00265933
4.9289542E-6
-5.7117385E-4
-0.0011237387
-0.0027885553
-0.0028826476
-0.0019461873
-5.117438E-4
1.599951E-4
3.272644E-4
9.1020326E-4
-5.1610766E-4
-0.0013005179
-0.0011482929
-0.0016867203
7.856057E-4
0.0016997962
-0.0011387296
-0.0017192811
-0.0010544069
7.9525827E-4
0.0039007668
0.004117465
0.0034690383
0.005310252
0.0074996534
0.005465088
-6.9171845E-5
-0.0023192016
-0.0017002485
-0.002760256
-0.002942486
-0.0015979816
-0.002855522
-0.0048469068
-0.00346605
-7.9435424E-4
-4.2143383E-4
-0.0020339787
-0.0026051947
-0.0012984484
-6.393253E-4
-0.0011395882
-0.00195637
-0.002400737
-0.0013982543
-2.7696945E-4
8.4719394E-4
0.0013481196
-2.1362602E-4
8.3868305E-4
0.0041107167
0.0040780394
0.0031055426
0.0031130987
0.003315823
0.0039167455
0.0026860475
-7.79954E-5
-6.262202E-4
0.0011932435
5.723559E-4
-0.0022733465
-0.0019090394
-0.0012247191
-0.0023705938
-0.0012662791
-3.807043E-5
-6.272226E-5
2.3473869E-4
-3.1701717E-4
-8.007258E-4
-7.30448E-4
-0.0012782009
-0.0024736468
-0.0025319718
-2.175778E-4
5.9027114E-4
-2.5652745E-4
4.852718E-4
4.7976198E-4
-2.719843E-5
8.5414056E-4
0.0011848155
-9.398133E-4
-0.0028659676
6.020863E-4
0.003379517
0.002063363
0.004108712
0.0024236278
-0.0043363087
-0.0032656873
2.670463E-4
2.1938374E-4
8.9981535E-4
0.0013474728
0.0019822058
0.0016158182
-2.8216912E-4
7.4306E-5
1.4091343E-4
-4.2833152E-4
3.108172E-4
-0.0010376929
-0.0018844752
3.3647704E-4
2.1348362E-5
-0.002262842
-0.0021711558
-0.0010243009
-1.4320557E-4
-9.3857216E-4
-0.0027707845
-0.0015841441
0.0011674439
0.0022697842
0.0016097861
5.6600216E-4
4.272712E-4
-7.851423E-4
-6.9732347E-4
0.0013359718
-6.914719E-4
-0.0015379607
0.0017001445
0.001987617
0.001899334
0.0021282511
6.316139E-4
0.0013960522
0.0027664346
0.0031658807
0.0032793419
0.002337396
0.0013370255
-0.002122378
-0.004770712
-0.0017376195
-4.4121526E-4
-0.0010683815
-2.3614416E-4
-0.0020766028
-0.0026847776
-0.0023419946
-0.0042022257
-0.0021941878
-6.194348E-4
-0.0023239788
-6.8573E-4
3.578415E-4
-8.759305E-4
-3.5888253E-4
2.653531E-4
6.148383E-4
8.066172E-4
-1.307575E-4
-7.722153E-4
3.0790264E-4
0.0011467994
9.4464706E-4
0.0017204758
0.0021055846
0.0022981828
0.0021167642
3.4306E-4
0.0019762258
0.004721827
0.003825459
0.002427488
5.2636024E-4
-0.0016233198
-0.0029901522
-0.0026996443
-0.0011437339
-0.0010055548
6.7504216E-4
0.0019306737
0.0021200166
0.003814464
4.889306E-4
-0.001899934
2.3580308E-4
-0.0013861108
-0.0028470256
-0.0027245574
-0.0013535764
-0.0013798316
-0.003565881
0.0011775263
1.3179134E-4
-0.0074112257
-0.002939168
0.0013679957
-1.9401318E-4
-0.0011901967
-0.0028797984
1.4841958E-4
0.0028529922
0.0017371239
7.6610956E-4
-8.4325665E-4
-2.793868E-5
8.564217E-5
5.050723E-4
0.003699118
0.0015848147
-0.0012237999
-1.0303689E-4
0.0011279379
0.0024985555
0.0016807425
0.0011661355
0.003434127
0.004489227
0.0038770614
0.0026277464
9.2818454E-4
-0.0015326482
-0.0029266453
-0.002284723
-0.0020069994
-6.731412E-4
4.395526E-4
-6.49435E-4
-4.318647E-4
4.087531E-5
-1.2297597E-4
0.0010129885
0.0013198104
7.0992764E-4
3.8154067E-5
-0.0023271258
-0.004049253
-0.003343222
-0.0025180655
-0.0018108308
-0.0018941611
-0.0018240812
4.9126975E-4
7.3860236E-4
-6.9279055E-4
-8.1775093E-4
-0.0019965777
-0.0014919946
1.13867136E-4
-2.2258374E-4
3.4409156E-4
-2.3730274E-4
-8.6076424E-4
0.0017766458
0.0027420367
0.0012489057
5.3573196E-4
6.059751E-4
7.022568E-4
0.0015194449
0.003084991
0.0028652928
0.0016540958
0.0022877224
0.004603405
0.0047190418
5.66194E-4
-0.0019706993
-0.0018931854
-9.738929E-4
0.0022918824
0.002784324
0.0024151427
0.0038548266
1.6468075E-4
-0.0053009847
-0.007815735
-0.0068728365
-0.0029222204
-0.0016239199
-0.0014830157
-0.0016331783
-0.0029651327
-0.0021363068
-0.0022513156
-7.5780204E-4
0.0027804216
6.541239E-4
-0.0016431492
-0.0011534477
-0.0024899242
-0.0029859317
3.5089054E-4
0.0056430073
0.006735907
0.0053722356
0.0057926523
0.0019704977
-0.0031386276
-0.0026264726
9.0328493E-4
0.004716871
0.005547676
0.0036242497
0.0016149229
-4.6791803E-4
-0.002266041
-0.004469094
-0.0044586095
-0.0031904161
-0.004013739
-0.0015581513
0.0013147877
-2.1451131E-4
-0.0013961609
-0.001911718
2.8947652E-5
0.002087607
-0.0011616827
-0.0022183924
-9.3358045E-4
-0.0019320669
-4.9519987E-4
0.0013864461
0.0012366595
0.0013035557
8.7615306E-4
1.2084464E-4
-6.517448E-4
2.8715198E-4
0.002516422
0.002381199
0.0023004534
0.0019170197
-0.0014144325
-0.0016748438
0.0016914114
0.0017494793
8.8069E-4
0.0032351231
0.0029047248
-0.0014299535
-0.0030900657
-0.0024246522
-0.0014683495
4.4888578E-4
0.0013077012
6.569595E-4
-9.7472215E-4
-0.0017374097
-8.080173E-4
-0.0012387645
-0.0018990879
-0.002308332
-0.0019177339
9.415468E-4
8.750626E-4
5.592168E-4
0.0030454302
0.0021317773
0.0018881989
0.0013788547
-0.0028622088
-0.0030778276
-0.003615187
-0.0057884483
-0.0016261027
0.0026382043
0.0031448829
0.0034385214
0.0035843411
0.0032221456
0.0013144318
-0.0015583106
-0.004239454
-0.004127746
-6.6380406E-4
8.6709775E-4
0.0018006316
0.0034802868
0.0013395776
-0.0016311407
-0.001202605
6.0182984E-4
9.0952136E-4
5.039718E-4
0.0028192382
0.0050341175
0.0028154931
-7.103783E-5
-9.858711E-4
-0.0022493082
-0.0028834322
-0.0014536821
3.894579E-4
2.6531168E-4
-0.0020657864
-7.7339035E-4
9.170819E-4
-0.0052410793
-0.0070525114
-0.0013840896
-8.672869E-4
-1.4648194E-4
0.002042749
0.0016809428
0.0034693864
0.0023307784
-3.4810978E-4
2.0710265E-4
-0.0016608473
-0.0024626637
-0.0020827174
-0.004451054
-0.0032949876
0.0015292132
0.0049389796
0.0048179063
0.002249625
3.873712E-4
-9.114703E-4
-2.0639089E-4
0.0024663622
0.00313308
0.0022091344
6.5359526E-4
-0.002571622
-0.0057638697
-0.0055169994
-0.0026810253
-8.621443E-4
-0.0014280914
-0.0042820517
-0.0040061036
-3.7172862E-4
-0.0014914349
-0.002501097
-9.6200156E-4
-0.0031631722
-0.0025988633
0.0014242574
0.003025318
0.0044995206
0.0038767972
0.002539241
0.0027594408
3.510325E-4
-2.622652E-4
0.002884428
0.0042716744
0.0020401136
-0.0037810698
-0.0071058185
-0.0053161075
-0.00329492
-0.002522233
-0.007047397
-0.0143682975
-0.015198486
-0.01289335
-0.0101629365
-0.0036010442
0.0039354633
0.00926183
0.012798852
0.018048268
0.026967142
0.03384153
0.034225438
0.03138303
0.027684776
0.01973837
0.0076133604
-0.0059305234
-0.021545144
-0.03306525
-0.03541388
-0.036762122
-0.03928636
-0.036520246
-0.029126888
-0.019089863
-0.0038632515
0.015167124
0.03126525
0.03855801
0.038663536
0.03992995
0.040913645
0.035022892
0.025347743
0.015544299
0.012103676
0.010398817
-0.0073811803
-0.028456148
-0.04077967
-0.056928102
-0.066569604
-0.061968252
-0.056424316
-0.055800427
-0.05389561
-0.030381765
0.0012407907
0.009910893
0.017643452
0.03272796
0.034203604
0.0331842
0.028757006
-0.0019148698
-0.047508817
-0.06691443
-0.042303536
0.009123247
0.07485194
0.13719867
0.17276551
0.18665902
0.18009175
0.14257798
0.081782475
0.011107568
-0.061075196
-0.12113673
-0.14749445
-0.14542648
-0.1420817
-0.12741396
-0.08361782
-0.0352167
0.007132998
0.056942582
0.06990411
0.020754995
-0.016266394
-0.034791697
-0.085063465
-0.10606504
-0.052153394
0.01419161
0.05098247
0.08272117
0.11047499
0.06460869
-0.048285913
-0.10679974
-0.07022859
0.005670457
0.07354317
0.09334946
0.05241971
-0.0037207094
-0.036616504
-0.05535218
-0.056703
-0.035965085
0.008961596
0.097623564
0.16543542
0.115635
-0.028678883
-0.15230258
-0.17130505
-0.112480976
-0.0031897991
0.13058604
0.17470518
0.1261986
0.08087105
0.017264826
-0.08580154
-0.13048276
-0.05960219
0.04194879
0.13082837
0.19677743
0.15279824
0.05863844
-0.011899716
-0.1265333
-0.21558312
-0.22014487
-0.21299888
-0.2064997
-0.18120463
-0.10422704
0.023418069
0.17451166
0.2931161
0.25155133
0.111416474
0.0077762157
-0.085407615
-0.12457692
-0.07923144
-0.01832996
0.039426643
0.07139817
0.0934173
0.1311287
0.12493352
0.06628594
0.014265301
0.0013382926
0.039764214
0.09866864
0.07522889
-0.04451795
-0.1382161
-0.21046248
-0.30435795
-0.30194396
-0.1726573
-0.01747173
0.06990504
0.031408947
-0.040154766
-0.04290019
-0.020521143
0.0041435943
0.04660898
0.10170943
0.14051579
0.11356466
0.080018036
0.10927312
0.13479272
0.17239016
0.240403
0.16412948
-0.033685952
-0.109025985
-0.0701919
-0.043022517
-0.053076435
-0.10877976
-0.08209859
0.075868785
0.11580118
0.019572273
0.04338309
0.10452746
-0.023450697
-0.19779587
-0.21015853
-0.14171553
-0.092796534
-0.054952282
-0.039389726
-0.0016431217
0.046552245
-0.012551479
-0.1071082
-0.094329305
-0.020138254
0.0070336587
-0.028539624
-0.03702317
-0.0120434165
-0.030786429
-0.03935125
-0.011104863
-0.007499844
2.998928E-4
0.043757737
0.087929286
0.08709885
0.04470925
0.023836397
0.051000323
0.11545924
0.1722382
0.17872646
0.169492
0.1073565
-0.02664866
-0.04611809
0.074514724
0.09559663
-0.034418207
-0.14086936
-0.13961244
-0.104235254
-0.09278256
-0.05971149
0.005538261
0.044582732
0.03618126
0.0048229075
-0.007814616
-0.0072218357
-0.022683524
-0.033960037
-0.045699134
-0.062212758
-0.06967919
-0.08735865
-0.071902335
-0.0051418417
0.03699556
0.03729654
-4.0025817E-4
-0.048144072
-0.041676097
-0.016186511
-0.017381422
-0.032017797
-0.059412878
-0.070586085
-0.032063507
0.025674691
0.058891132
0.073527396
0.08881151
0.09219543
0.07689797
0.054638267
0.043887556
0.05312366
0.05870638
0.054784972
0.055963404
0.053913604
0.04391305
0.030000184
0.0120456815
-0.0071931276
-0.028958775
-0.050296027
-0.0601157
-0.05935877
-0.06176357
-0.066290006
-0.059115063
-0.044818554
-0.035992835
-0.029681107
-0.019054146
-0.0074444693
0.0011061588
0.0098842215
0.018308574
0.024048893
0.023377994
0.014953624
0.012045093
0.013408909
0.006232396
-0.004673432
-0.01359538
-0.016627528
-0.015101679
-0.015186424
-0.015257009
-0.02041128
-0.027567279
-0.027629457
-0.028355962
-0.027269779
-0.0155695975
0.0012869316
0.014945867
0.02066981
0.024401518
0.030976482
0.033342812
0.030815972
0.028132414
0.026941169
0.034658045
0.05023335
0.055086486
0.049436126
0.046446808
0.038339935
0.02115934
0.0043671425
-0.0016260401
0.0044110427
0.002768627
-0.0020096796
0.008209359
0.010350556
-0.005631869
-0.024901299
-0.04885153
-0.06370517
-0.055684082
-0.045732696
-0.04602988
-0.044369906
-0.03881432
-0.036322184
-0.03506676
-0.031147191
-0.024243506
-0.019776642
-0.016677067
-0.006661013
-0.0018277939
-0.006040401
-0.003478851
-0.0014898307
-0.00339113
0.006572987
0.02716169
0.04375629
0.050399806
0.05717214
0.06582573
0.06583207
0.05658321
0.039184034
0.02274825
0.014802393
0.0070519303
0.0028200033
0.0030912133
-0.0010906913
-0.0057031913
-0.0070684175
-0.0068305843
-0.007690176
-0.01045011
-0.011709706
-0.01392402
-0.018098677
-0.021164926
-0.023518289
-0.03103391
-0.045287617
-0.047616072
-0.03430433
-0.025481336
-0.015465069
0.0021955194
0.010103921
0.008725849
0.00813281
0.006111312
5.0656847E-4
-0.010618779
-0.02379835
-0.026268737
-0.013738216
1.557216E-5
0.0013965424
-0.0030919139
-0.0032604802
-5.972798E-5
0.00500024
0.010227763
0.015183873
0.018272834
0.016960615
0.017652325
0.018764347
0.017291727
0.020277565
0.020810332
0.016505921
0.015177117
0.0117601855
0.005431049
-5.3574034E-4
-0.0023216307
0.004033662
0.0076693124
0.005446277
0.0044669155
0.0012946025
-0.0049863406
-0.011586898
-0.017473765
-0.017127633
-0.0096607525
-0.0061766454
-0.0106127765
-0.013841586
-0.014211702
-0.011748774
-0.0047821407
4.8920175E-4
0.0054158536
0.012173679
0.011197997
-6.5729744E-4
-0.012532468
-0.0144508155
-0.012670935
-0.012100467
-0.0068787592
-0.0033210707
-0.0062914984
-0.0066268602
-0.0032599636
-0.0013512553
-1.585704E-4
0.0017039928
0.0037675165
0.0068397056
0.008679893
0.0076665673
0.007914459
0.006502837
0.0011102797
-3.7430332E-4
0.0034122234
0.007246819
0.007736183
0.005610399
0.0023523148
-0.0034668546
-0.0061396495
-0.0028445756
-8.4844977E-4
-0.002260045
-0.0056923535
-0.0072160214
-0.003518128
1.8535522E-4
-0.0016324555
-0.0071046744
-0.008255163
-0.005933299
-0.006557105
-0.005815901
-0.002921608
6.947586E-4
0.008128899
0.013337325
0.011526082
0.005907525
-5.621699E-4
-0.005992703
-0.0090769
-0.006441073
-7.1257504E-4
0.001561693
0.0027921426
0.005969989
0.008193623
0.0056268536
0.0017655091
0.0022515869
0.0023324923
0.0013912516
0.0017295252
-0.0011892841
-0.0020698593
0.0040885587
0.009779558
0.010439578
0.0077428604
0.0027586536
-0.004765248
-0.008135927
-0.0040944475
-0.0017810331
-0.0016994842
-0.0030152856
-0.008194737
-0.009512474
-0.006971128
-0.003348834
0.002116104
0.0020686113
-0.0010272067
-0.0013930378
-0.003205217
-0.0051411046
-0.004211042
-0.002773915
-0.0021464038
2.8764276E-4
0.004497734
0.0058635008
0.005807817
0.007078184
0.007320635
0.0054651154
0.0034528023
0.003773086
0.004425926
0.003140264
0.0016567144
0.0010967645
6.297323E-4
-0.0016741403
-0.002259981
0.0010621025
0.0020798505
3.779906E-4
-4.9978436E-4
-4.2373218E-4
-0.0012349301
-0.0029065465
-0.0013672223
4.023804E-4
3.4809439E-4
0.0017574681
0.0014096738
-9.05755E-5
-0.0012313953
-0.0032404186
-0.0029659802
-0.0020150933
-0.0020129406
-0.0011982641
-0.0011199833
-0.0028073576
-0.0014311785
0.0060504056
0.007432158
1.6659855E-4
-0.0029511405
-0.0036911187
-0.0029451512
-2.4603822E-5
-7.9555926E-4
-9.937229E-4
-5.8904952E-5
4.4913558E-4
0.0017890187
0.0014030437
0.0036171097
0.006312302
0.0044432343
0.0026135019
7.721965E-4
-4.3073168E-4
-2.3007195E-4
-5.183677E-4
-4.578687E-5
-8.671947E-4
-0.0024400002
-0.0024827928
-0.002558039
-0.0023541297
-0.0020761483
-0.0016518506
1.0566522E-4
0.0018467588
9.3736633E-4
-9.041689E-4
-3.4902012E-5
3.385709E-5
-0.0016236559
-0.0026862381
-0.0026241937
0.0025103246
0.006316737
0.0042314674
0.004745269
0.004679426
0.0014483706
3.6817393E-4
-5.9329E-4
-8.60045E-4
0.0013458548
0.0036492846
0.0037537667
8.5638935E-4
-0.0015247115
-0.002368296
-0.0047797626
-0.006791846
-0.0037622734
-3.169946E-4
-0.0018490999
-0.0020890122
-0.0018954381
-0.004243315
-0.0018525991
5.261856E-4
-0.0011396116
-4.6425813E-4
7.9716096E-4
0.002308365
0.004460466
0.005223526
0.0057154847
0.0037038806
8.717517E-4
2.444396E-5
-0.0013475253
-0.0019284544
-5.1340315E-4
0.0015424032
0.002267526
1.1173725E-4
-0.002652788
-0.003086111
-2.5751136E-4
0.0023754635
0.0024692754
0.0026128476
0.001971487
-4.1264758E-4
-0.0022306838
-0.0012544879
0.001908054
0.0019483255
-0.0018201859
-0.0050080353
-0.004828645
-5.623377E-4
0.0033313208
0.004372866
0.0042680427
0.0018967036
-6.1226025E-4
3.4865507E-4
0.0010883764
-0.0011253372
-0.0014469714
-3.3120884E-4
-0.0031897246
-0.0057678544
-0.0044524376
-0.0019195285
7.93175E-4
4.0359964E-4
-0.0019171049
-0.0015793268
-6.38423E-4
0.0010090412
0.0044559506
0.0071219117
0.007960651
0.0060487296
0.0014064284
-0.0037191322
-0.0058854725
-0.0029832486
0.0011622118
0.0028737695
0.003210982
0.0031621053
0.0028210531
0.0017590176
-4.697028E-4
-0.0018412502
-7.9801946E-4
-6.2773324E-4
-0.0027532796
-0.002987887
-0.0020560778
-0.0026440234
-0.0017205526
-7.1092887E-4
-0.0023419147
-0.0022271918
-5.216416E-4
-4.104219E-4
2.7327504E-4
0.0010142757
9.939664E-4
0.0023342238
0.0027594017
0.002457801
0.0040446958
0.0043893824
0.00238158
-6.5214955E-4
-0.0022237792
9.911426E-5
3.5258752E-4
-0.0015884187
1.4674352E-4
0.0013962673
0.0010699226
7.624857E-4
-8.694362E-4
-0.001535227
-0.002495484
-0.0030768637
-0.0023075347
-0.003596041
-0.0024921119
4.7586762E-4
7.1684975E-4
0.0013842235
0.0010866834
-2.3755507E-4
-1.6863269E-4
2.9823763E-4
3.7371917E-4
-0.0013719668
-2.9009045E-4
0.0029698843
0.0017221891
0.001591639
0.0035246727
0.0022781098
8.9643727E-4
0.0018269895
0.002842367
0.0014657766
1.2748034E-4
-0.0013396062
-0.0030645742
-2.5779815E-4
0.0012283447
2.0456423E-4
0.0010760322
-4.3892465E-4
-5.0090137E-4
5.088676E-4
-7.9363445E-4
0.0011162736
0.0015271354
-0.0017659651
-0.0034785427
-0.0037697237
-0.0042551323
-0.0036570644
0.0016184729
0.002347901
-0.0035777746
-0.0028115294
-2.0671282E-4
0.0013526203
0.0043006595
0.0025376808
9.896852E-4
0.0014321109
0.0022109787
0.0032198767
8.8247936E-4
8.018014E-4
-6.760924E-4
-0.005469064
-0.002033841
0.0021372873
0.0012674979
0.0011174388
-0.0011561437
-0.0032183435
-0.0017422236
-5.503035E-5
2.505355E-4
-1.2784085E-4
3.4473126E-4
0.0010869887
0.0023689633
0.0039063874
0.0030987947
0.0012092879
-1.0749631E-4
-9.156307E-4
-0.0016943489
-0.002435205
-9.33101E-4
0.0025985728
0.0061119213
0.007734508
0.005658326
0.0011828535
-0.0033378352
-0.0057927202
-0.0059792357
-0.006148592
-0.0049015875
-0.0015448112
-5.181469E-4
-0.001727595
-0.0017066284
-0.0014592034
-0.0016658263
-0.0018744393
-0.00229232
-0.001350715
5.2639487E-4
0.0019908228
0.0029388543
0.0033522064
0.00493496
0.007815947
0.009409813
0.003936317
-0.0069586337
-0.008025038
-8.613719E-4
5.809085E-4
-4.4853546E-4
2.8759937E-4
0.0015222939
0.0026534211
0.0017481262
0.0010158123
3.6211874E-4
-9.642486E-4
-0.0010947037
-7.990908E-4
1.949497E-4
-1.1601706E-4
-0.0011463158
-9.83843E-4
-0.0024146861
-0.0012971298
0.0020622034
0.0022773037
0.0019933726
2.0068808E-4
-0.0018373005
-9.524082E-4
-7.070343E-4
-9.5036166E-4
-0.0014584325
-0.0019126062
-0.0017538571
-0.0024609815
-7.6302147E-4
0.0010268489
-1.5758739E-4
-6.8806973E-4
-0.0020079652
-0.0013850546
0.0032640758
0.0035783304
4.130437E-4
7.468365E-4
0.0028392407
0.0034536447
0.0024011475
-4.3631812E-6
-0.0018103259
-0.0010748163
5.633787E-4
0.0017315325
0.0020484135
5.483994E-4
-4.1059862E-4
2.708214E-4
1.4623126E-4
-0.0012701006
-0.0031160798
-0.0023408597
0.0016231288
0.0023803653
-3.7233843E-4
-0.0011438061
-8.75616E-4
-1.695689E-4
0.0018868023
0.0021618134
4.007959E-4
-0.0019833946
-0.0033677353
-0.001332998
4.8534854E-4
6.0084247E-4
0.0010537242
5.600013E-4
0.0013759369
0.0018127844
-8.127603E-4
-9.026624E-4
-8.8309695E-4
-0.0029450315
-0.0023766172
-0.002308947
-0.0023490596
2.132578E-4
8.658593E-4
2.601009E-4
0.0011011171
0.0023082588
0.002626812
5.715519E-4
-0.0010176821
-7.4018186E-5
-4.3744694E-5
-8.215481E-4
-0.0011158485
-0.0015399827
-6.7002664E-4
-2.6025282E-5
-2.3658577E-4
0.002722488
0.0054281275
0.0032507195
0.001234609
0.001558206
0.0018178187
0.0016439332
4.999016E-4
0.001002175
0.0026716213
6.292334E-4
-9.4843184E-4
-1.14518705E-4
-0.00141625
-0.0034697521
-0.0052695624
-0.004646775
-0.0014427066
-0.0015774332
-0.001589017
-9.675955E-5
-0.002547416
-0.0039197295
-7.9738E-4
0.0018936865
0.0011689445
-0.001249626
-0.0016967603
-6.2210317E-4
3.3082618E-4
0.0010422373
0.002034697
0.0031263875
0.0024402707
0.0024384088
0.0038742642
0.003910017
0.0036058936
0.004157414
0.0069483807
0.0072308094
0.0015960883
-0.0018977481
-0.0063758064
-0.012325376
-0.008212714
-0.0027378078
-0.003159429
-0.001591804
-2.474079E-4
6.003379E-5
9.932612E-4
-0.0013954608
-0.0034204647
-0.0014515663
8.73983E-5
-6.164045E-4
-3.0499417E-4
0.0021508012
0.0027292732
0.0015002952
0.0023190542
0.0031930066
0.0026169857
0.0016394011
7.737424E-4
7.895471E-4
-3.4708908E-4
-3.6484652E-4
0.0019748998
8.632932E-4
-3.6625174E-4
0.0010326228
0.0010429661
3.3967677E-4
-0.0017141174
-0.0026340864
-0.0023442807
-0.0036348852
-5.191322E-4
0.0020314192
-1.3651662E-4
1.8288467E-4
-0.0010644686
-0.0023437303
2.3103268E-4
2.6234612E-4
7.065213E-4
0.004079764
0.006073207
0.004424844
-7.529081E-4
-0.0051598977
-0.0063473717
-0.0041837394
-0.0016416638
-0.0013277484
-8.9411205E-4
-0.0013045322
4.0861798E-4
0.0034106267
9.322809E-4
4.787831E-4
0.0024501882
7.3111104E-4
8.7815867E-4
0.0015495236
0.0011243586
0.0015905387
0.0012282695
9.414706E-4
-7.671189E-4
-0.0022948775
-0.002085506
-0.0023202093
5.39163E-6
8.319923E-4
-0.0011105902
2.871504E-4
0.0010827536
0.0016107471
0.002114837
-0.0022036578
-0.0045716604
-0.0026737878
-0.0011629136
1.18348464E-4
6.698891E-4
8.227909E-4
1.3239894E-4
-5.4317975E-4
6.513627E-4
0.0018737926
0.0036526786
0.003985084
0.0022707214
0.0020709606
5.81444E-4
-0.0010933804
-6.9625257E-4
-2.5626222E-4
0.0011802599
4.4561262E-4
-0.001451203
-0.0010061661
-0.0018256969
-0.0015194882
-6.943838E-4
-0.0025766557
-0.0020466638
-2.064793E-4
2.1962632E-4
3.4796848E-4
4.1261085E-4
0.0015696498
4.7160266E-4
-0.0019320201
-0.0011087976
-1.19967146E-4
6.578085E-4
3.9449884E-4
-0.0017107093
-4.873556E-4
6.8734615E-4
-8.583259E-4
-6.902883E-4
-0.0012290787
-0.0014324174
6.756109E-4
4.3166325E-5
-5.289004E-4
0.0012280572
9.500055E-4
5.1467116E-5
9.296248E-5
0.0011328085
0.0023106027
5.30258E-4
-7.9294347E-4
-2.7792196E-4
-1.5256298E-4
0.0021719725
0.003293428
0.0022154348
0.003112766
8.254168E-4
-0.0022755452
2.0952427E-4
0.0022730688
0.0020858436
5.359985E-4
-0.0019479007
-0.0010365465
-4.0935777E-4
-0.0025595992
-0.0030867206
-0.0017694337
-1.4167141E-4
3.702294E-5
-3.9284135E-4
-5.101584E-4
-0.0015237394
-9.265469E-4
3.1031406E-4
6.075029E-4
5.8283156E-4
-6.082245E-4
-3.6582624E-4
-0.0011348622