0.0030843257
0.0033240353
3.6162033E-4
-0.0016277642
-0.0015538462
-0.0011692086
-0.0011613464
-9.916605E-4
-0.0011996474
2.1351565E-5
7.516662E-4
5.834421E-5
0.0016282522
0.0016953667
-5.9646013E-4
-6.50101E-5
9.883583E-4
9.259585E-4
0.0019880845
0.0021435034
-4.300858E-4
-0.0020316695
-1.01210804E-4
0.0015958176
0.0013010021
0.0012849629
0.0014961618
0.0017967471
0.001018839
-0.0021693713
-0.003326975
-0.0016253042
-5.228051E-4
0.0013051236
0.0013493485
-0.0022441947
-0.0038746377
-0.0035142521
-0.0026538703
-6.4588105E-4
8.1882236E-4
0.0015072736
-7.2310586E-4
-0.0024399078
2.0552729E-4
-2.626906E-4
-6.2914466E-4
0.0027431543
0.001565596
2.69581E-6
0.0012712235
0.0015984161
0.0024267766
0.0012931734
2.3463056E-4
0.0014346653
-8.641328E-5
-0.001140953
4.0663427E-4
0.0013397398
0.0016725581
7.2145526E-4
-4.2945717E-4
-6.412918E-4
-7.8957534E-4
-4.1470837E-4
-5.7337305E-4
-0.0012407249
-0.001057016
-2.8939583E-4
5.595192E-4
1.1522926E-4
-4.7507405E-4
9.797538E-4
0.0017280893
9.0653234E-4
0.0014650445
0.0015989646
5.3071526E-5
1.19608616E-4
-6.595617E-5
-0.0025202283
-0.0033797228
-0.0025446366
-0.002047557
-0.0020164214
-0.0027141843
-0.0022416834
-7.6169956E-5
0.0017242694
0.002382349
0.001991351
9.879542E-4
2.8933893E-4
2.695814E-4
-5.6712655E-4
-0.0011967056
4.446981E-4
0.0012658179
7.498038E-4
0.001011064
0.0010777493
8.5797155E-4
4.3256162E-4
0.0011827687
0.0039010148
0.004849958
0.0032171942
0.001896172
0.0013889252
-2.1523939E-4
-0.0032030358
-0.005701938
-0.006411569
-0.0047930065
-0.003353639
-0.0025773377
-5.5946945E-4
-5.332132E-4
-0.0010098555
5.8714993E-4
3.5300874E-4
-9.7241325E-5
4.3326928E-4
3.0679043E-4
0.0010758066
0.0016529638
0.0015673509
0.001562427
0.0016701366
0.002363408
0.00235878
0.0021413688
0.001421077
-4.9560424E-4
-2.791553E-4
0.001053993
8.4734685E-4
0.001814411
0.0021382896
-0.0023196402
-0.004234196
-1.777802E-4
8.93169E-4
1.00649595E-4
0.0010600248
0.0010663177
2.7604756E-4
-0.0044493903
-0.0069443067
-0.001514396
-2.314151E-4
-0.0013023366
3.0170375E-4
-0.0015051855
-0.0013021398
8.966535E-4
4.8168146E-4
0.0013728818
0.0014329986
4.0345883E-4
3.3490805E-4
-0.001280429
-0.0024892178
-9.4455195E-4
0.0019401949
0.003243241
0.0019398571
6.876987E-4
-1.5671605E-5
-7.1766943E-4
-1.2913928E-4
0.0017186806
0.002326673
7.389167E-4
-9.911954E-5
9.4792085E-5
-5.292686E-4
-3.841926E-4
0.0018115067
0.0034363766
0.0012083317
-0.0022452408
-0.0026874577
-9.207322E-4
6.320155E-4
-1.9924979E-4
-3.303077E-4
0.0024094041
0.0029691393
0.0019602948
2.653476E-6
-0.002330599
-2.891207E-4
-5.1295944E-4
-0.003298559
-0.001240533
-0.0010567562
-0.0017369486
2.7353383E-4
-0.0017496328
-0.003706822
-0.002088055
-9.754162E-4
-9.897593E-4
-0.0024502112
-0.0031124859
-0.0024038446
-0.0021582772
-0.0012026894
1.312322E-4
0.0020507728
0.003821257
0.004135674
0.005017309
0.0053159688
0.0043418156
0.004770681
0.0059318487
0.004961458
0.001480999
-0.0011681436
-8.092847E-4
6.606525E-4
3.49361E-4
-0.001652974
-0.0018256768
-0.0013081727
-0.0035644032
-0.005153382
-0.003736514
-0.0029120238
-0.0033369937
-0.0023844668
-0.0010252276
-7.0807885E-4
-3.825984E-4
-8.3108863E-4
-0.002016882
-0.0026852584
-0.0023294815
5.8133504E-5
0.0016867175
8.126735E-4
5.930265E-4
0.0018634038
0.0037229662
0.0038227546
0.0032981657
0.005913993
0.005651462
0.0012167661
3.3072752E-4
1.7921279E-4
-0.0022014
-0.003272916
-0.0036463148
-0.00326308
-0.0018941244
-0.0011252553
-3.7539483E-4
-1.3423315E-4
-4.7623776E-6
0.0012725971
0.002453146
0.0028441201
0.0013374081
-1.3734869E-4
0.0011539848
8.5001066E-4
-7.966146E-4
-4.6094408E-4
-0.0015822555
-0.0028912239
-0.0022600282
-0.002333157
-0.0011105101
0.0011220361
3.1975337E-4
-0.00104188
8.48422E-5
7.9186755E-4
-1.8272173E-4
-2.2936916E-5
5.646435E-4
8.013606E-5
4.3002816E-5
-7.8987575E-4
-0.0012619715
0.0011915261
0.00220688
0.0013239969
0.0016837512
0.0011482767
6.877567E-4
0.0013589298
0.0012771316
0.0018655374
8.1119227E-4
-0.0022737596
-0.001887015
-9.57176E-4
-0.002091937
-0.0014926476
-4.6824818E-4
-9.919013E-4
-0.0016933405
-0.0015370179
-8.255151E-4
2.7211642E-4
0.0014646795
-5.661166E-4
-0.0029674228
-2.2326758E-4
0.0018868693
0.0014918287
0.0028787632
0.0026909057
0.0013944398
0.00256071
0.0021559927
-2.1620266E-4
4.8686273E-4
0.0026331889
0.0014918565
-0.0023705515
-0.006670916
-0.008031466
-0.003722941
1.977434E-4
-9.971546E-4
-0.0011911367
0.0020536263
0.004030253
0.0036345338
0.002438554
0.0016678607
9.766978E-4
-0.0029395844
-0.0069616656
-0.003661481
0.001659448
0.0027813818
0.0049327845
0.0063730665
0.002702988
4.4399177E-4
0.0013435795
8.1326645E-5
-0.0031240254
-0.0042236936
-0.0015486304
5.239893E-4
-6.138937E-4
-7.81494E-4
-3.4142486E-4
-0.0012605216
-9.806361E-4
-3.1302674E-4
-6.600451E-4
-6.3675933E-4
-5.941267E-4
-8.517835E-4
-5.4331723E-4
2.8760562E-4
0.0012538711
0.0025347203
0.002402137
2.5528294E-4
9.613355E-5
6.979892E-4
-0.0011952104
-0.0019983833
-0.0017275006
-0.0016100969
-9.820022E-5
5.157695E-5
6.69537E-4
0.003450184
0.0019226418
-0.0019749925
-0.0021386016
-0.001408482
-0.0013428964
3.187729E-4
0.0019157393
0.0010994375
8.0760464E-4
0.002971721
0.004075109
0.0030819569
0.0021598411
0.0015009565
0.0010159276
0.0013483646
9.1395155E-4
-0.002120535
-0.004709681
-0.0040630107
-0.0022850393
-0.001216519
-0.0018491854
-0.0032028412
-0.0018048227
6.4893294E-4
1.16910094E-4
-0.0014802641
-0.0015447647
-0.0014380261
-0.0011872392
-2.6203226E-4
-8.9427026E-4
-0.0016731742
-1.3870803E-4
0.0015378996
0.0026396308
0.0027168961
0.0021063446
0.0026672038
0.0015891797
5.6793124E-5
0.0013257376
0.0022036883
0.0028274436
0.0027079938
-3.172998E-4
-0.002204523
-0.002067437
-0.0017214693
-0.001444387
-0.0015661243
2.908203E-4
0.0026554838
0.0022291227
9.1885E-4
-5.9155497E-4
-0.002831404
-0.0037770073
-0.0020932858
-5.3211075E-4
-3.2377007E-4
0.0011826054
0.00245583
0.002976779
0.0039379075
0.0026839904
8.4656366E-4
-4.6642582E-4
-0.0023272282
-0.0020499013
-0.0011278176
-0.00245942
-0.0048858086
-0.0046013673
-7.8763923E-4
8.542649E-4
3.2865588E-4
4.4655458E-6
-2.8266528E-4
0.0017268066
0.0025188124
0.0014642414
0.0017657528
5.4853037E-4
-5.395725E-4
-0.0017919382
-0.003879668
-0.0014626344
0.0016002833
0.0027696071
0.0042050537
0.0034090963
0.0031617803
0.0034096881
1.8139163E-4
-0.0023263318
-0.0016916804
-7.9462974E-4
-7.3697267E-4
-0.0012050138
-0.0015267866
-4.4895124E-4
2.9338835E-5
-0.002716443
-0.004399479
-0.0032127346
-0.0012940933
0.0018183722
0.0027371184
0.0015656753
0.0015690989
8.6734176E-4
7.461785E-4
0.0012236506
3.4175368E-4
2.4511613E-4
7.411543E-4
5.523584E-4
-2.924377E-4
-0.0010378567
-0.0018074656
-0.0026054794
-9.0752245E-4
-1.1366732E-4
-0.0018924928
-0.0012947964
6.2562955E-5
0.0010907347
0.0023837914
0.0023563586
0.0035430929
0.0042954767
0.001837676
3.3827466E-5
-6.6714175E-4
-0.0028811218
-0.003873801
-7.104797E-4
0.0018515254
7.4931054E-4
-5.237357E-4
-8.392417E-4
-4.021548E-4
-5.5343466E-4
-0.0016054788
-0.001375588
-0.0019641574
-0.0019926152
3.7406273E-5
-4.2913138E-4
-9.810822E-4
-9.6669326E-5
1.7100254E-4
0.0019388986
0.001944373
-2.6436977E-4
3.193355E-4
0.0011044408
8.50814E-4
0.0019313768
0.0029399877
0.003546326
0.0050504566
0.004875671
0.0014791002
3.388662E-4
4.46218E-4
-0.0026605418
-0.0031394276
-0.0039801653
-0.0070034144
-0.0022889036
-5.804843E-4
-0.007312752
-0.005942725
-3.282823E-4
0.0011539875
0.0021552055
0.0016651709
0.0013741836
0.0017748267
0.001596152
0.0018548743
5.5569666E-4
-2.6562635E-4
-1.0948505E-5
1.6870181E-4
0.0015621987
4.2615522E-4
-0.0016798147
-7.992109E-4
9.92463E-4
0.002931624
0.0031832429
0.0025433728
0.0017741906
-3.0772024E-4
2.8299403E-4
7.841887E-4
-0.0019020028
-0.0030622233
-0.0018344253
5.050705E-4
-6.933685E-4
-0.0034991053
-0.0013211532
-2.5982398E-4
4.17295E-4
0.0041764593
0.0047345604
0.0030812293
0.0010271268
1.0582036E-4
1.8989E-4
-0.0025102799
-0.0030069922
-0.0024878932
-0.003465838
-0.001208621
9.6102967E-4
0.0015249678
6.18808E-5
-0.0011203329
0.0011914944
-0.002357194
-0.005975817
-8.582124E-4
0.0022880873
0.003320231
0.0029369309
-0.0012120004
-0.0017561018
-0.0017069987
-0.0039628316
-0.0028657687
-0.0013146694
-0.0025440452
-0.002333183
7.2345784E-4
0.0028299675
0.0038214722
0.004258369
0.002117499
7.5954525E-4
0.002198092
0.002705422
0.0014486612
3.8352178E-4
2.5108416E-4
9.158887E-4
0.0022717374
0.0013823347
-0.0011811547
-2.8649688E-4
0.002525541
0.005964414
0.008318672
0.004588124
2.3174862E-5
-0.0019578622
-0.006792941
-0.011821467
-0.0103484895
-0.0055218395
-0.0033783277
-9.239509E-4
0.0025143952
0.0025672636
0.0012650111
-3.0265615E-4
-0.0017169629
-0.0021789237
-0.0031217074
-0.0010423593
0.0030481652
0.004324516
0.003310023
9.768122E-4
4.3749934E-4
0.0014379675
0.0018907541
0.003271118
0.0026723954
1.9699548E-4
-0.0017612242
-0.0040079015
-0.0040888507
-0.0032817854
-0.0031181762
-8.8415237E-4
3.5852627E-4
-0.0014005234
-0.0024189164
-0.0013761687
0.0012997502
0.0045161024
0.0049977237
0.0032179682
0.0025269545
0.0022446965
0.0027687715
0.0041633253
0.0029047327
-1.943906E-4
-0.002012454
-2.7692423E-4
0.0029946193
0.0013498263
-0.0023353028
-0.002385954
-0.0018784113
-0.0026020105
-0.0024844303
-0.0016752101
-0.0020426419
-0.0033555822
-0.004695568
-0.0050680516
-0.0037181878
-0.0036523812
-0.004223203
-0.0024391236
8.5817225E-4
0.0058571277
0.0079154335
0.0058922605
0.006964519
0.008218781
0.0073777502
0.007382712
0.00442755
-2.3524134E-4
-0.0031248264
-0.006079087
-0.00858542
-0.009175836
-0.0063934955
-0.0012419039
0.0015946793
0.0013915818
3.1889195E-4
-7.399242E-4
-0.0012059733
-0.0011880207
-0.0013244861
-0.0015274063
-0.0016831451
-0.0032816166
-0.005279789
-0.0024892173
0.0025367546
0.0029651993
0.003521011
0.0067274254
0.0061439816
0.004008841
0.0042071645
0.004635284
0.0046197474
0.002818626
-5.3187757E-4
-0.003712466
-0.005922174
-0.005266186
-0.0028015575
-4.7596506E-4
-4.4503313E-4
-0.0030153112
-0.0022717067
0.0015786402
0.0026874794
0.0021110899
0.0039980477
0.0049165105
-6.302062E-4
-0.0045795576
-0.0021412428
1.3998778E-4
0.0016084227
-0.0019978108
-0.007775163
-0.0036596397
0.001712467
0.0015473964
0.0015186387
-1.7888694E-4
-0.001783507
-0.0018451554
-0.002667244
-0.0019234959
-0.001099034
-5.3003855E-4
9.306824E-4
-8.875617E-4
-0.0035940618
-0.002274587
7.7495184E-5
0.001335645
0.0023638452
0.003508318
0.004224942
0.0031449052
0.0023593742
0.003050368
0.0033504781
0.004678356
0.0051108585
0.002180094
3.705711E-4
-9.3619555E-4
-0.0046627885
-0.006240452
-0.0036081153
-6.752642E-4
0.0012827482
0.0031239376
0.0029458692
0.0018941009
0.0030824158
0.0036417143
0.0020820876
2.1457122E-4
-0.0022111677
-0.004071364
-0.0044433284
-0.0056171794
-0.007626754
-0.007526468
-0.0067011463
-0.0067507764
-0.0056742886
-0.004987229
-0.0037766558
-4.8246817E-4
0.0011687683
0.0026644901
0.0046763048
0.005501379
0.0060601197
0.003528983
2.69329E-4
-2.0812267E-4
-4.2518348E-4
7.4065325E-4
0.0019746232
0.0024263693
0.0025604817
-0.0015405794
-0.0027158575
0.0031503784
0.004413601
0.0028759786
0.006378267
0.009094759
0.008353867
0.0051925536
5.040624E-4
-9.519089E-4
-0.0019370599
-0.0037935292
-0.0030160886
-0.0066150655
-0.012738125
-0.010562209
-0.0035045093
0.001824621
3.9163991E-4
-0.006101735
-0.007070642
-0.0051966854
-0.005871626
-0.004397524
-0.0013173651
-3.009698E-4
-0.003032002
-0.0076452103
-0.007480414
-0.0022800493
0.0023492677
0.0062497146
0.01201447
0.015799992
0.013515972
0.008669114
0.0044003706
0.0023344797
0.0029726569
0.007033994
0.015891774
0.015031901
-0.004930615
-0.023630276
-0.027954804
-0.021216244
-0.0064976932
0.0065540583
0.013944953
0.018212331
0.016168287
0.011925911
0.009576302
0.0049609933
0.0049745003
0.007942363
-0.0015825068
-0.01005112
4.028892E-4
0.017095637
0.023034869
0.018093517
0.020836461
0.023519728
-0.002968821
-0.031057328
-0.035583027
-0.048298858
-0.067448
-0.06176296
-0.040340424
-0.031017015
-0.032516524
-0.023460986
-0.0077580716
-0.0015119459
-0.011989599
-0.03331016
-0.032217413
-0.00398641
0.024141354
0.04133929
0.042616617
0.050893378
0.08428274
0.1202005
0.13994405
0.12467904
0.08956846
0.06694268
0.033257484
-0.017625835
-0.05167107
-0.046332803
-0.012390233
-0.0067764046
-0.039741088
-0.058835838
-0.05297617
-0.03283228
-0.0027254168
-0.0067327986
-0.07238995
-0.1356578
-0.14831683
-0.14213675
-0.13032995
-0.10471876
-0.057254273
0.030584026
0.12968755
0.18323323
0.1753199
0.12160742
0.044583548
-0.013763324
-0.023167891
-0.01545062
0.0013159388
0.03710944
0.043444745
0.037735682
0.07172324
0.09305168
0.059967306
0.0125351455
-0.022124816
-0.081058055
-0.1657249
-0.1877454
-0.12937863
-0.06360685
-0.036398042
-0.039895795
-0.012716296
0.050161913
0.11045175
0.17200749
0.16406867
0.078273326
0.031231785
0.004705649
-0.024871679
-0.033726327
-0.05631654
6.125734E-4
0.16132203
0.25966442
0.23773101
0.11087152
-0.049900465
-0.14690445
-0.18441166
-0.16961174
-0.17703488
-0.20907275
-0.10605959
0.042201366
0.07489947
0.04027732
-0.0548232
-0.1850666
-0.2591031
-0.27276483
-0.23823854
-0.14483821
-0.028783428
0.06763917
0.14972207
0.20173451
0.24354465
0.29860622
0.24384105
0.081293456
-0.041499622
-0.10719618
-0.08967315
-0.0072163176
0.0213199
0.023909353
0.07475385
0.10561856
0.041307595
-0.013160934
0.042402387
0.116149195
0.14290091
0.112763725
0.035689462
-0.031285476
-0.10674519
-0.17879622
-0.20637028
-0.1856068
-0.091425724
-1.4619176E-5
0.0525195
0.10435945
0.08810834
0.041858774
0.07043234
0.15606242
0.21549751
0.14929102
0.01631696
-0.06649278
-0.15101187
-0.26979357
-0.35333425
-0.35844976
-0.29461098
-0.16091591
0.02994441
0.15165214
0.14445347
0.13673428
0.17477314
0.12367045
-0.0489425
-0.1607627
-0.15212713
-0.12752198
-0.057978444
0.046123367
0.08471102
0.111675404
0.15039748
0.15233222
0.16190414
0.18193232
0.16460921
0.112982444
0.06056195
0.053678825
0.081589475
0.07079093
0.0014783823
-0.061652225
-0.080387056
-0.099171646
-0.1261461
-0.11816838
-0.08087518
-0.03649101
-6.497058E-5
0.014601971
0.025435595
0.038369562
0.02534167
-0.021680344
-0.06862202
-0.07817046
-0.06026873
-0.040856883
-0.020109948
-0.0073838634
-0.012326979
-0.014057726
-0.0026178136
0.006125644
0.0043353825
-0.0026721465
-0.0050166855
0.0013799376
0.0069315145
0.007304109
0.008292071
0.010463436
0.012923819
0.015007678
0.014530513
0.013970513
0.015425683
0.015467909
0.014268047
0.018257273
0.024436522
0.023007393
0.019513955
0.0203037
0.016399533
0.006052473
-0.003307946
-0.011331771
-0.018800693
-0.022612672
-0.02069841
-0.012774315
-0.0053670746
-0.008484201
-0.012304027
-1.6434268E-4
0.01755258
0.026861317
0.029532334
0.026931938
0.026295846
0.029615527
0.02547191
0.020678679
0.021756554
0.011985613
-0.006201486
-0.013879861
-0.012547685
-0.0065928125
0.011884788
0.034879357
0.03168982
7.0469204E-4
-0.02554335
-0.039929654
-0.052239645
-0.059605423
-0.06337398
-0.06566252
-0.060200863
-0.042891543
-0.02001622
-0.002786241
0.00539093
0.008801688
0.011313157
0.009162309
-1.0610735E-4
-0.008433879
-0.008081085
5.46418E-4
0.004630167
0.0047853626
0.019943431
0.036100574
0.032297913
0.020353058
0.012698024
0.009907075
7.2807353E-4
-0.011341406
-0.008019645
-0.0016704763
0.0011740496
0.007697779
0.0077315676
0.007324289
0.010922412
0.0042526284
-0.008775534
-0.013613746
-0.008563494
-0.0052403244
-0.008532979
-0.015349913
-0.025127392
-0.027581438
-0.02275719
-0.024748804
-0.030339073
-0.030318273
-0.022735303
-0.0076368903
0.013172881
0.031897355
0.033979353
0.021162113
0.019591426
0.03853281
0.041256707
0.007568177
-0.020020716
-0.018919535
-0.0071072234
0.014469152
0.036638957
0.048605677
0.059961725
0.060427357
0.039073665
0.006779896
-0.018041063
-0.020305585
-0.019662695
-0.030059267
-0.03193338
-0.0320108
-0.03713204
-0.038522862
-0.043286413
-0.03803619
-0.022442745
-0.023266189
-0.031767536
-0.04180065
-0.051012184
-0.038283385
-0.018332051
-0.008197583
0.0035042246
0.015669612
0.022001635
0.027345568
0.037937835
0.04448172
0.041073866
0.039988313
0.03760688
0.03210994
0.033766843
0.037679926
0.041600622
0.043725885
0.041355412
0.037382897
0.025985602
0.011480457
3.867536E-4
-0.010845878
-0.017616637
-0.018086111
-0.011680591
-0.0067874794
-0.018937457
-0.035079937
-0.042641982
-0.04583945
-0.04123381
-0.03139238
-0.019761676
-0.008686828
-0.007925965
-0.0114569375
-0.00811564
-0.0012612722
0.005396769
0.0067781927
4.7096077E-5
-0.0031320623
9.3555334E-4
0.0037989016
0.007214933
0.010490175
0.011234046
0.014271282
0.012821311
0.006451218
0.004678886
0.0036242832
0.004207812
0.0074867136
0.008536386
0.010930151
0.009887573
0.002786303
2.0582245E-4
0.0037035905
0.009466294
0.012966886
0.011018562
0.007810206
0.006071798
0.0038302678
-0.0015357551
-0.005569581
-0.0046759117
-0.0046794494
-0.0055155526
-0.0056910547
-0.0069707017
-0.007678386
-0.008312571
-0.007140184
-0.0049508987
-0.0062282225
-0.0076594856
-0.0068553234
-0.004169693
-0.0014675265
-0.0020619442
-0.0042561353
-0.006274859
-0.005148038
-0.0016921741
1.4336337E-4
0.004887928
0.010418979
0.010603833
0.008324242
0.0063689873
0.006514688
0.0067932038
0.0058322316
0.0065684984
0.0055734073
0.0011048738
-0.0019396348
-0.0013082096
9.286422E-4
0.001958035
0.0020362332
8.889606E-4
-0.002436099
-0.0051147835
-0.0040709954
-0.002539687
-0.006710047
-0.01235144
-0.012157182
-0.007254165
-0.0021334789
-0.0030542968
-0.006319566
-0.0036524686
-0.0010530421
-0.0010665229
7.1014714E-5
-4.172764E-4
-4.7554384E-4
0.0012786838
3.0647097E-5
-7.2823616E-4
0.0021563144
0.0027754167
0.0017226625
0.002463736
0.0023721138
0.0020660998
0.0018212957
0.0013161408
0.0024943736
0.0014889112
-0.0017143121
-0.0024138608
-6.1947096E-4
0.0030155298
0.004289087
0.0028053643
0.003159134
0.0016960326
-0.0010906889
1.0473797E-4
8.9261215E-4
-0.0016074028
-0.0036727083
-0.0043770527
-0.0021560013
0.0028658665
0.003832634
0.0035139746
0.007002639
0.005498642
7.010507E-4
-5.1206106E-4
-0.00407756
-0.0061719585
-0.0029944375
-0.0036761533
-0.00602898
-0.004256031
-0.0035890755
-0.0032557382
0.0012020675
0.003775035
0.0019494824
2.8387806E-4
-0.0014908705
-0.0024392398
-0.0018284766
-0.0012272972
6.175702E-5
-4.85381E-4
-0.0017517983
2.3443198E-4
0.0021685702
0.0015366407
6.0714585E-5
6.924948E-4
0.0017908185
8.5669424E-4
0.0023669018
0.003098464
-6.305468E-4
-0.0014842157
2.4401321E-4
7.889088E-6
-0.0015133816
-0.0026033032
-0.001942453
-0.0018661646
-0.0023594573
-8.681186E-4
0.0010858257
0.0023703286
0.0030119237
0.0030021481
0.0022466138
9.459055E-4
0.0013513723
0.0022375635
9.731812E-6
-0.0019453341
7.9260796E-4
0.0033200937
0.0018572394
8.0806756E-4
6.110757E-4
-2.5859056E-4
5.0490322E-5
5.57982E-4
0.00141876
0.0019405605
-9.991141E-4
-0.0027509192
-5.1764323E-4
-2.9336783E-4
-0.0027589137
-0.0037371437
-0.0015871489
0.002148069
0.002691731
6.9926353E-4
9.769209E-5
-0.0019995985
-0.0057119546
-0.0062136245
-0.002218297
0.0029228053
0.0023496335
-0.0013853287
-0.0013121167
-0.0012823519
-8.172864E-4
0.0014286172
2.823314E-4
6.143611E-4
0.003925825
0.0029087686
8.9349877E-4
0.0024932474
0.003516277
0.0021818604
0.002955433
0.005137636
0.00374946
0.0020733443
0.0025413174
0.0016581637
-4.894651E-4
-0.0028380945
-0.004284686
-0.004626732
-0.0047929534
-0.002931388
1.479478E-6
0.0012882401
2.8724468E-4
-0.0016420009
-0.0012345936
-8.8558334E-4
-0.0019165113
-6.470984E-4
4.2525866E-5
-2.0909299E-4
0.0010798938
-0.0014178819
-0.005204002
-0.0023894606
0.0022333227
0.0033233892
0.0026082294
0.0021065024
0.0047101844
0.008001928
0.0068486263
0.003928124
9.992373E-5
-0.0054915994
-0.0065543368
-0.003008107
-0.002074885
-0.0028619238
-0.0013080178
0.001204319
0.0030747494
0.0036037965
0.0023880166
0.002711771
0.00499057
0.004732223
0.0021015222
1.520262E-4
-0.0011919608
-0.0051982487
-0.010725775
-0.01039558
-0.006376114
-0.0037850232
-1.7135631E-4
7.5555354E-4
-0.0012686888
0.0011142821
0.0044513363
0.0023968276
-0.0014062155
-0.0010123843
0.0011112262
8.893268E-4
9.192436E-4
0.0013887314
0.003032978
0.0073400717
0.008054324
0.0047651897
0.003338342
0.0030950718
0.0022239154
0.0011589912
0.0011686822
0.0024257984
0.0029188134
0.0023838228
-8.53024E-5
-0.005502276
-0.009175682
-0.007774987
-0.0051124194
-0.0038176207
-0.0032768976
-0.003122571
-0.0019884629
-9.4994664E-4
-0.0019617656
-0.002254645
-6.591932E-4
7.803035E-5
-0.0010951834
-0.0024746347
-0.0016047304
0.0012004742
0.0029149593
0.0031323093
0.0034890873
0.0021326048
1.483209E-4
0.0017742207
0.0031258268
0.0032966773
0.005813505
0.0057590497
0.0023791685
6.037049E-6
4.2888804E-4
0.0026985838
-2.563932E-5
-0.0038113862
-4.7209213E-4
0.0021533717
0.0011853568
0.0018456075
0.0023364443
0.0020622162
0.002509193
9.178131E-4
-0.002498114
-0.0021055522
-0.0011839232
-0.004551235
-0.004175807
-0.0015120228
-0.0040852265
-0.004685308
-0.0028407958
-0.004408559
-0.004240475
-0.0021128291
-0.0022723044
-0.0025505964
-0.0032042682
-0.0032039885
-2.506358E-4
3.6559865E-4
-0.0010797561
2.068499E-4
0.0017791551
0.0021133525
0.0020033442
0.0030976054
0.004648089
0.0039644158
0.0044461084
0.004606853
0.0027274184
0.0034928804
0.0058537605
0.009523501
0.0108397445
0.008504496
0.009604398
0.0062615774
-0.0027763017
-0.006835633
-0.009436843
-0.00864788
-0.0037544633
-0.0029102813
-0.0025381926
-0.0024349545
-0.005212915
-0.005486368
-0.0053099957
-0.00762555
-0.0070776185
-0.0046487427
-0.004546311
-0.0028039904
1.7732455E-4
9.948604E-4
0.0020020716
0.0015607883
5.457482E-4
0.0018220748
0.0021760056
0.00282588
0.004087123
0.0033638831
0.0030482295
0.0038718341
0.0042877523
0.003721783
0.002537255
8.1077585E-4
-0.0010905736
-0.0013615364
-0.0011264114
-5.9486524E-4
3.029861E-5
-0.0013605304
-0.0016121765
-0.001080005
-0.0018530991
-6.4873754E-4
8.5779704E-4
0.0014951224
0.00250451
0.0014957571
6.017912E-4
0.0023645991
0.002440661
-4.345512E-4
-0.0016951294
-0.0013287518
-0.0017360017
-0.0015341344
2.5409015E-4
0.0026751223
0.0014766888
-0.0023352203
-0.0019848195
-0.002297043
-0.004322558
-0.0016980313
-3.4115187E-4
-0.0018154144
-0.0025301543
-0.003604557
-0.0024115578
-5.334935E-4
-1.248344E-4
0.0011825997
0.0023777348
0.002642436
0.0025502967
0.0036250434
0.0044386005
0.003048733
0.002565763
0.0016173138
2.55867E-4
1.2065293E-4
-0.001768118
-0.0012554019
9.6216786E-4
-8.746373E-5
9.722548E-4
0.0023090038
2.464535E-4
-9.718995E-4
-0.0017025296
-0.0014775239
-6.7385257E-4
-0.0028293964
-0.0046185725
-0.0032709741
-0.0018210936
-0.0017607657
-0.0013475376
6.266623E-4
0.0027786787
0.0030713677
5.5813044E-4
-0.0017507329
-4.0734423E-5
0.003023179
0.003229808
0.0010858855
6.39632E-4
0.0032922318
0.0034322396
-7.441998E-5
-0.0018185934
-0.0016413118
-0.0015260682
-0.0018478922
-0.0021976286
-0.0010862544
7.7915E-4
0.0017444601
0.001067329
-1.8882744E-4
-9.272595E-4
-0.0018701382
-3.1751252E-4
0.003054807
0.0018039132
-0.0010418902
5.615682E-4
0.0019353707
-9.3294407E-4
-0.003386408
-0.0030162097
-0.0014252912
9.2162675E-4
9.974324E-4
-8.320635E-4
-7.967959E-4
-7.925234E-4
-0.001006894
-5.702974E-4
-2.0480761E-4
8.6531136E-4
0.0011641048
0.0013679158
0.0011965586
-5.2949437E-4
-8.2862575E-4
-3.664162E-4
0.0019835515
0.0037372003
3.01378E-5
9.2222233E-4
0.0067949053
0.0059327763
9.261325E-4
-0.0018638747
-0.0029701635
-0.0051090685
-0.0030083791
0.0033968317
9.4892265E-4
-0.0036304204
-0.0031612637
-0.0059164995
-0.003940254
0.0020878548
7.8420574E-4
-0.0018408955
-0.0022116776
-0.001213351
0.0010280717
0.001709652
0.0018154331
9.582394E-4
-4.4758388E-5
8.162577E-4
2.312335E-4
-0.0023265067
-0.0019537287
0.0026031518
0.004990728
0.0040246113
0.0039676796
0.0028711844
0.0014378967
5.747184E-4
-0.001827565
-0.0021200122
-0.0010119173
-0.0018147613
-0.0025738727
-0.0024003112
-0.0010971784
1.18478034E-4
1.13851995E-4
-4.2597504E-4
-9.4570615E-4
-4.0343063E-4
-6.429967E-4
-0.0010274785
6.6189485E-4
6.9535954E-4
-5.024502E-4
-0.0011217762
-0.002326529
-0.0010867065
0.0010746585
7.6264463E-4
5.43555E-4
0.0018637246
0.004006533
0.003907729
0.002512251
0.0032032158
0.0014933989
-1.16546835E-4
0.00301561
0.0030756185
-6.2870927E-4
-0.0030197166
-0.0034451084
-0.0016910059
-0.0029423537
-0.005771609
-0.0037767454
-0.0028064072
-0.003624624
-0.0019774511
-0.001995035
-0.002139009
-2.8778557E-4
-8.3432597E-4
-0.0012327434
4.782468E-4
2.830612E-4
-1.2079896E-4
0.0011778153
0.0019114163
0.002318809
0.002642435
0.0026561653
0.0035037154
0.0050326544
0.006007403
0.0050317403
0.0026966722
8.047798E-4
5.7944104E-5
9.712958E-4
5.195314E-4
-0.0024358758
-0.003256854
-0.0026264715
-0.0013060705
0.0020287575
0.0015989172
-0.002521023
-0.004108482
-0.0038634066
-0.0036630658
-0.0036895967
-0.0030851688
-0.0011815848
7.2372577E-4
0.0022721428
0.002253374
0.0017720282
0.0026667835
0.0028260273
0.002783645
0.0012971215
-0.0025216413
-0.003332325
-0.0018941887
-0.001343623
-5.025064E-4
5.0331943E-4
8.066834E-4
3.0075016E-5
2.3329417E-4
8.311531E-4
-8.025436E-4
-9.77128E-4
8.6665765E-4
6.11285E-4
-0.0015545869
-0.00285829
-0.0010899495
0.0019334573
0.003113742
0.0023086148
9.072482E-4
8.544841E-4
0.0010001609
-4.7468237E-4
-8.886445E-4
9.849446E-4
8.376561E-4
-0.0014040227
-0.0011592817
-6.7892065E-4
-8.4345194E-4
1.05589635E-4
-0.0015437312
-0.0018441873
0.0015219435
0.0010811461
-0.0013160141
-0.0012966129
6.0716865E-4
0.0024699748
0.0016128513
0.0020957543
0.0045605344
0.003227966
-0.0017455951
-0.0051906845
-0.0021715632
0.004051751
0.0074182977
0.0066310633
0.0026176458
5.842606E-4
-4.0961284E-4
-0.004952545
-0.009012488
-0.010040381
-0.0075881025
-0.0026471256
1.0989938E-4
2.9321926E-4
-8.272485E-4
-0.002435065
-0.0027071207
-0.0011387288
4.5216762E-4
6.080581E-4
0.0016448216
0.0027560203
0.0031491185
0.0042127674
0.0022998438
3.9556128E-4
0.0018946885
0.0018700067
0.0019399122
0.003352012
0.005058736
0.007578919
0.0061988365
0.0024605514
1.1514581E-4
-0.0034072264
-0.0054827128
-0.0054528485
-0.00665686
-0.006189322
-0.0040741377
-0.0035491213
-0.0014894145
0.0010448344
-4.0883152E-4
3.4184058E-4
0.004848551
0.0063070003
0.004771911
-0.0018576637
-0.009042538
-0.0049435627
0.0014136388
0.0015730781
0.0029255094
0.0038323763
0.0023910718
0.0025765905
0.0030206721