0.001855697
0.0028310325
0.0015505014
0.0010744107
1.9043438E-5
-6.5097475E-4
-6.438472E-4
-2.3105952E-4
-1.8563074E-4
-0.0019437667
-0.0022046363
-0.0025001755
-0.0046042516
-0.0037260535
-4.086489E-4
0.0016417222
0.0019015949
0.0015069242
9.863144E-4
3.3749282E-4
8.4717403E-4
0.0014504567
2.8494664E-4
-0.0010281525
-3.418965E-4
8.48403E-4
1.5099673E-4
-7.141694E-4
-6.527929E-4
8.533255E-4
0.003381221
0.0024645303
7.587246E-5
1.886798E-4
7.526952E-4
0.001307208
8.395629E-4
-0.0013191609
-0.0033405651
-0.0045960424
-0.0035052358
-0.0010628207
-9.2417235E-5
-2.8229362E-4
-9.6044794E-4
4.014462E-5
0.002663159
0.0024031524
3.3041582E-4
6.984932E-4
0.0021803721
0.001885563
9.363795E-5
-8.6429936E-4
-9.015106E-4
-0.001337477
-4.4072716E-4
6.5866765E-4
-5.22021E-5
4.099741E-4
4.5853024E-4
-0.0015177975
-0.0014091618
-5.7531994E-5
5.6450575E-4
0.0015464694
0.0019065158
6.3119474E-4
-4.5165257E-4
8.0937454E-5
8.0142214E-5
-3.8959782E-4
1.3193992E-4
0.0010153571
0.0018620521
-7.0803195E-5
-0.0018340766
-2.7270255E-5
1.3947906E-4
2.380889E-4
-1.973794E-5
-0.0028546602
-0.0010546615
0.0022887015
0.0019205422
5.8108993E-4
-0.0015904272
-0.0029606835
-0.00264632
2.1814882E-5
-0.0012105164
-0.009125051
-0.0064244624
0.0024966008
0.001810251
0.0018677503
0.0036019247
0.0026493932
0.0038612387
0.0027757073
4.964269E-4
0.0012392673
0.002005374
0.0018053027
4.5714583E-4
2.651407E-4
0.0016378436
0.0016760683
8.8893145E-4
8.157878E-4
0.0015564731
-2.8993754E-6
-0.0018956094
-4.249259E-4
-4.972563E-4
-0.00154428
-0.0015712521
-0.002058107
-5.08802E-4
-0.001600616
-0.0049170908
-0.0029133568
-9.759818E-4
-4.155095E-4
0.0012837637
-4.4850132E-4
-0.0015796099
6.661819E-4
0.0016189307
0.0020689478
0.001917138
3.2557658E-4
4.6894187E-4
0.001653678
0.0012024618
6.4284005E-4
4.2416347E-4
-0.0013024813
-0.0021531896
-6.871738E-4
8.462744E-4
0.002455741
0.0019581327
-0.0010304372
-0.0020598143
-0.0018935478
-0.0015929703
-8.649626E-4
-6.8563316E-4
-2.8477132E-4
-9.096733E-4
4.2143085E-5
0.0025442964
-4.474659E-5
-0.0016630688
3.3076378E-4
-9.580351E-4
-5.467068E-4
0.002972102
0.004861943
0.005815914
0.004657194
0.0015771855
-0.0012591233
-0.0012581563
8.432558E-4
-6.445643E-4
-0.0015709676
1.8443832E-4
-0.0017580177
-0.0030314866
-0.0012295052
-0.0010102196
-0.0017526526
-0.0026296566
-0.0021642477
-8.093E-4
-0.0014149359
-0.001887561
-0.001418047
-6.197539E-4
0.0013932715
0.002158211
8.657849E-4
7.202514E-4
6.4012886E-4
-0.0010872433
3.0020974E-4
0.002435118
-5.5695424E-4
-7.9108914E-4
0.0028270518
0.002585098
0.0017624579
5.6836905E-4
-0.0012883012
8.750635E-4
0.0020967864
4.6371116E-4
-2.6297205E-4
-0.0017394248
-0.0030138872
-0.0031061582
-0.0033012738
-0.0022423272
-6.3379464E-4
4.5820183E-4
0.0019355671
0.0031515833
0.0036767218
0.0031565183
0.0021698321
0.0037807173
0.0049235253
3.8031556E-4
-0.004357808
-0.0052658133
-0.0055128396
-0.0043046786
-0.001582403
7.625002E-4
0.0021205642
4.8692664E-4
-0.0016518771
-4.923546E-4
0.0013880089
0.0016617673
0.0014027646
3.3635445E-4
-0.00179801
-0.0020637638
-7.394018E-4
-9.188403E-4
-0.0017006049
-0.0018768607
0.0011599507
0.006244326
0.005105568
0.0022561166
0.0047465605
0.0038517697
-0.0010916141
-0.0025213526
-0.0029343334
-0.0035186007
-0.003011128
-0.0034134672
-0.0030467396
-0.0019616291
-0.0024153525
-0.0022836318
-0.001575926
-4.6791908E-4
0.0012431396
0.0016266857
0.0033415903
0.004385901
0.0016178929
9.839978E-4
0.0015680786
8.6508977E-4
6.618815E-4
-2.360897E-4
4.8586453E-4
7.578641E-4
-8.373655E-4
3.145951E-5
-1.6086735E-4
-0.0010674837
-8.726015E-4
-0.0011620885
6.399283E-4
0.001016488
5.6452805E-4
0.002262828
0.0014284089
8.8818773E-4
0.0015552093
4.281696E-4
-2.75413E-4
4.8665036E-4
0.0027286534
0.0017064078
-0.0019046982
-9.046402E-4
0.0012367662
1.8346477E-4
-0.0028305785
-0.0043463395
-0.0036432012
-0.0035835407
-0.00252842
-0.0022101414
-0.0010033309
2.8220387E-4
-0.008566014
-0.012840958
-0.0025368119
0.0029938305
0.0020294462
0.0011482046
7.507404E-5
0.0014358346
0.0022996205
0.004415424
0.00860487
0.00902709
0.008229998
0.009044633
0.009409203
0.006244336
7.34319E-4
-0.0010667426
-0.0013130199
-0.0031093496
-0.0036882039
-0.0029659884
-0.0015489563
-0.0017989938
-0.004885121
-0.0064240587
-0.005523864
-0.0043679476
-0.003369575
-0.002878721
-0.002226224
-6.979043E-4
7.3758146E-4
0.0010075187
7.558022E-4
0.0012370817
3.3888614E-4
-0.002777062
-0.002461597
0.0016614574
0.002487288
8.899421E-4
0.0015662656
0.0018845311
0.0013707889
0.0032211393
0.003763963
0.0011484013
0.0011055114
0.0018739334
-2.1925842E-4
-0.0010704158
-0.0019072382
-0.00336823
-0.0019044784
-0.0012126223
-0.001406321
1.713042E-5
4.100663E-4
7.19846E-4
4.6847877E-4
-0.0011396346
1.3880215E-4
0.0036664018
0.004614363
0.0013875855
-0.0015913043
-8.314974E-4
5.789856E-4
0.0014339492
0.0011127205
-0.0013091505
-0.0027983568
-0.002668822
-0.0015681939
-1.5164091E-4
3.934378E-4
0.0014477777
0.0018131004
-1.00887366E-4
-0.0018749053
-0.0017631385
5.4165823E-5
0.0015066401
6.615475E-4
-0.0013543383
-0.0014406015
9.5580894E-5
1.8724553E-4
4.920474E-4
9.0439786E-4
-7.946906E-4
-0.0014745833
-0.0010627275
-0.0010917037
-2.6895237E-4
0.00114785
0.0015550201
-1.4743106E-4
7.500264E-4
0.0036800948
0.0018569103
-2.1332971E-4
-8.234339E-4
-0.0016305986
5.4236746E-4
9.671102E-4
-5.7490804E-4
-5.751326E-4
-0.0017057013
-0.002273634
-0.0016530497
-6.573659E-4
-5.623013E-4
-0.0029548134
-0.002712709
-8.589367E-4
-9.846063E-4
1.2421259E-4
0.0015415144
0.0022203736
0.0035078847
0.0034859518
3.4569253E-4
-0.0016131789
0.0013865243
0.0022587343
-5.1003695E-4
-7.856383E-4
-6.247261E-4
4.7148642E-4
0.0039200895
0.0046062344
0.002570307
0.0018814501
0.002582929
0.0021827389
0.0014076122
7.8376255E-4
-0.00112626
-0.0027438828
-0.004973979
-0.0058909375
-0.0024152084
-0.0016140202
-0.0039022574
-0.003443217
-0.0015399044
6.225532E-4
0.0012120028
-5.276961E-4
-0.0018882927
-0.0013404526
0.0011766851
0.0016988078
-2.245935E-4
-3.528556E-4
3.386285E-4
1.8022908E-4
-5.521447E-4
-9.923616E-4
-1.5650972E-4
5.4585893E-4
0.0016820064
0.0029146774
0.0014371637
4.7341659E-4
0.0022405887
0.0029947283
0.0019623
5.4247845E-5
-0.001460007
-1.4140904E-4
0.001390027
1.6247822E-4
-0.0015137767
-0.0016429812
-2.0921425E-5
9.768618E-4
-7.880333E-4
-0.002561634
-0.0021220786
3.8417347E-4
0.0031472929
0.0030453396
0.0014466516
6.3172216E-4
-0.001929381
-0.0051113763
-0.0036514683
1.7073187E-4
0.0015892892
2.4017281E-4
-0.0020445779
3.52254E-5
0.0032470515
0.0014767399
0.0015636849
0.00306286
0.0020460668
0.0021235966
6.4360135E-4
-7.835459E-4
-0.0015903064
-0.005564678
-0.0059993495
-0.0019831066
0.001813689
0.0033231624
0.003384759
0.0044407453
-0.003217987
-0.012141351
-0.0047978596
0.0029141696
0.0021926574
0.0014371579
-7.5353676E-4
-0.0010371347
2.3391141E-4
4.9587537E-4
0.0025072228
0.002859091
0.002107732
0.0027382944
0.0032647904
0.0026569879
-2.8240815E-4
-0.0017103018
-4.88495E-4
-4.8447843E-4
-0.0012557263
-0.0024601826
-0.003382911
-0.0025653383
-0.0012499504
-3.7696003E-4
-2.2298664E-4
-0.0010404568
-0.0017167871
-8.7333634E-4
-6.5271236E-4
-2.0463711E-4
0.0031275214
0.002118185
-0.0019923325
7.6094986E-4
0.0043687634
0.0036882726
0.0034374306
0.0045969426
0.0061324304
0.004387748
3.1940645E-4
-5.58295E-4
-0.0012313424
-0.0030462549
-0.0024773544
-0.0021170422
-0.0039000914
-0.0045169652
-0.0032568316
-0.0020870077
-0.0016824633
-0.003139817
-0.0039718035
-5.1406183E-4
8.357977E-4
-0.0016559353
-9.63374E-4
-0.0011802017
-0.0027529914
3.3801922E-4
0.0017839432
0.0013107785
0.0031030602
0.0025068375
0.0022611213
0.0028462932
0.0011301873
0.0025109537
0.0033817964
2.2981304E-4
1.6847179E-4
0.0018175269
0.0012261693
-6.1057194E-4
-0.0016792828
2.8906288E-4
0.0014218946
1.1046113E-4
-4.3218315E-5
-7.256044E-4
-0.0019993726
-6.8103155E-4
9.928809E-4
-2.831793E-4
-0.0015854368
-6.4379256E-4
-0.0016721655
-0.003735106
-0.0024387941
-2.0536182E-4
0.0013932991
0.0019738905
7.0102594E-4
-4.5607143E-4
-0.0016027826
-0.0019459702
-6.96283E-5
0.0018318931
0.0022779691
0.0014451828
0.0020728037
0.00323176
0.0018738866
0.0013777504
2.0926291E-4
-0.0017504302
4.919745E-4
0.0016705124
6.078346E-4
3.5226566E-4
-0.0011122082
-9.97423E-4
-5.675407E-4
-0.0024033377
-0.0043221973
-0.005566146
-0.0032815447
-0.0012019745
-0.0027085962
-0.0026137694
-0.0018652672
-0.0013316805
-6.999936E-4
-6.881083E-4
6.2765816E-4
0.0010470808
0.0018227352
0.0028141194
0.0014977613
0.0035290734
0.006546107
0.0065939236
0.0057062865
0.0025120913
0.002023956
0.0052758474
0.0050391443
8.77511E-4
-0.0029062862
-0.0024646895
-0.0021965706
-0.0050266907
-0.004774105
-0.0023793117
-0.0013308506
-0.0012425144
-0.0017654812
-0.0019624433
-0.0032236686
-0.0042253453
-0.0030444087
-0.0025944249
-0.0029739216
-0.0027716768
-0.0023702944
-5.864198E-4
0.0025783114
0.0035246813
0.0024478163
0.0027513388
0.0021458343
0.0014161692
0.0049697044
0.008904345
0.008567688
0.0043841684
-2.0056125E-4
-0.0033670056
-0.0069259163
-0.0075373785
-0.0036260127
-7.625654E-4
-3.987633E-4
-3.716166E-4
4.338751E-4
0.0014639235
0.002241969
0.0029771097
0.002536722
0.0015398661
6.244453E-4
-1.9477216E-4
-4.643838E-4
-0.0020591232
-0.00337378
-0.0034848433
-0.0049770945
-0.0037838067
-7.38658E-4
-5.896909E-4
0.0015724287
0.0035571174
0.0023193455
0.0032706806
8.083814E-4
-0.002436743
0.002647695
8.950926E-4
-0.008954328
-0.0081347
-0.0023748244
-0.0010950785
-9.0651534E-5
9.813284E-4
0.0015688033
0.0039923824
0.009237322
0.010911218
0.006877886
0.006983554
0.007901909
0.0021978386
-0.0025579557
-0.0055192662
-0.00812238
-0.004789146
-0.0015480707
-0.0032753123
-0.0029211564
-0.0019681281
-0.0027883025
-0.0015691664
-0.001782507
-0.0030588137
-0.0021605908
-0.0028233884
-0.0034931896
-0.0023949693
-9.401478E-4
3.1892833E-4
-0.0015957505
-0.0034092015
-0.003280262
-0.0041073407
-0.001980106
0.0022573415
0.0044297357
0.0045162514
0.0033129076
0.005321445
0.008466526
0.0070090927
0.0024276928
-0.0028112237
-0.004220015
-0.0016111678
0.0011705098
0.0054217386
0.0075950995
0.0046855994
-1.6461124E-4
-0.0045359842
-0.0025772275
0.00263706
0.0018612227
0.0019756563
0.00718748
0.008571771
0.005173575
0.0016463167
-0.0011340228
-0.002373046
-0.0018271134
-0.00139992
-8.946926E-4
-1.2170963E-4
-0.004303898
-0.012380996
-0.015361117
-0.012469943
-0.009746425
-0.011112276
-0.012665402
-0.008280115
-0.0017984413
0.0032650882
0.0076184287
0.010784199
0.014569341
0.016345154
0.013613462
0.00870655
0.002963264
0.0028407553
0.008960196
0.012585841
0.012312976
0.0071036136
-0.0040682848
-0.014281593
-0.016954523
-0.012172455
-0.008700741
-0.014821046
-0.026614863
-0.034804408
-0.036351837
-0.031012934
-0.01836091
-0.0069474615
-0.0014688651
0.0047369096
0.012712137
0.023076257
0.030197019
0.023804711
0.013736154
0.008182295
0.006618032
0.0138790235
0.025185047
0.037367765
0.052408367
0.06425721
0.068194956
0.056786805
0.026105314
-0.010836166
-0.03738763
-0.045075174
-0.039163906
-0.035217304
-0.04022794
-0.04503213
-0.043992113
-0.03966376
-0.029429702
-0.019926023
-0.020594178
-0.02498688
-0.029352674
-0.030474083
-0.021146806
-0.008441983
-0.0046327515
-0.0030107095
0.009557311
0.024250528
0.038427703
0.05488669
0.051911887
0.034845795
0.019986914
-0.0021993862
-0.018350832
-0.01693396
-0.0036434059
0.009807203
0.0053946623
0.003453941
0.010218921
0.0084782485
0.017230768
0.034548998
0.04578062
0.038443893
-4.6906798E-4
-0.029069558
-0.030254988
-0.032049224
-0.033771556
-0.032129675
-0.01989691
-0.0033593003
0.005327778
0.027349768
0.05054242
0.045521457
0.01820947
-0.011399023
-0.021551175
-0.02218357
-0.02799469
-0.034957264
-0.044137504
-0.043110628
-0.02665636
8.4905775E-4
0.020949576
0.011038562
0.006669082
0.01576748
0.003934519
-0.0069089816
0.0037983835
0.033911876
0.07427731
0.094327725
0.09719423
0.10634945
0.09816548
0.04050221
-0.032705482
-0.08662514
-0.1261631
-0.12840351
-0.098405935
-0.068885736
-0.045661665
-0.04694761
-0.059402782
-0.0727907
-0.1020498
-0.102382466
-0.062849015
-0.034341335
-0.021202246
0.016339347
0.069951415
0.07328049
0.051487844
0.063690916
0.08576707
0.11572059
0.132642
0.10242161
0.09286312
0.17182583
0.2938581
0.31258288
0.1840439
0.059908584
0.015638236
-0.008434289
-0.088393964
-0.27465513
-0.44266376
-0.4370057
-0.31500596
-0.16196786
-0.026128031
0.025743714
0.01904309
-0.011048892
-0.040734943
-0.033297297
-0.050485052
-0.08033573
-0.041647602
0.02422992
0.08449169
0.10672386
0.09746105
0.15594208
0.22770503
0.2276439
0.20771603
0.21332105
0.26385
0.2753631
0.11540179
-0.12857553
-0.25684527
-0.25586796
-0.22481099
-0.19190364
-0.14053276
-0.047992527
-0.01246856
-0.12559235
-0.17802304
-0.084180586
-0.010973595
0.04746744
0.055306703
-0.043945074
-0.091742165
-0.04364376
0.0030246186
-8.353229E-4
-0.03185738
-0.010691731
0.028272195
0.008511931
0.0032660381
0.09545212
0.2335857
0.31187975
0.29839265
0.2409213
0.16132584
0.04110928
-0.09201428
-0.19690287
-0.24696647
-0.2158934
-0.15020832
-0.07176993
0.027916824
0.110156424
0.22799806
0.3167424
0.2120699
0.029514933
-0.12352548
-0.24979497
-0.27094162
-0.22029728
-0.16909088
-0.13197112
-0.121382125
-0.101511486
-0.07039564
-0.024435453
0.02384469
0.014023387
0.016528305
0.08446864
0.13090016
0.12312737
0.07152335
-0.016300784
-0.082474604
-0.08186443
-0.03597792
0.016885335
0.056187868
0.07475795
0.08510019
0.09165521
0.08516055
0.068604566
0.054918353
0.062194325
0.06028023
0.02995657
0.038932525
0.078230545
0.069061324
0.0053641526
-0.08173482
-0.133418
-0.13012034
-0.10443487
-0.03921476
0.023139017
0.013591573
-0.0075143036
0.002659758
0.011569653
0.013204714
0.009601048
-0.0013217184
-0.020443378
-0.048727743
-0.06902335
-0.06714664
-0.056633152
-0.04982463
-0.032970026
-0.012735452
-0.0075136223
0.0046342695
0.026099239
0.030705888
0.027068004
0.027452204
0.02442192
0.013804209
-0.001819033
-0.015384765
-0.018465726
-0.0037688685
0.019473176
0.030540042
0.027981555
0.021000413
0.011863327
0.0097588515
0.021945225
0.026258167
0.010624893
2.1573064E-4
0.0017328338
0.0036979346
0.0040779556
4.94536E-4
1.08612876E-4
0.0017543484
-0.0011691023
0.0043936227
0.013495864
0.013306008
0.016922772
0.026109744
0.026324745
0.020503055
0.019951435
0.022229213
0.020281512
0.009550423
-0.012703249
-0.032683015
-0.037782643
-0.03829341
-0.039193157
-0.040324885
-0.04763122
-0.051324587
-0.046330135
-0.041168667
-0.03205875
-0.02598293
-0.035800792
-0.048606783
-0.04765908
-0.027791126
-0.004948263
0.0024300802
0.01944681
0.06224419
0.09623496
0.10371149
0.09909184
0.09039968
0.07845359
0.05835864
0.029143428
0.009445544
0.006771279
0.0046209223
0.0024721138
0.0077846358
0.0066029117
-0.014593202
-0.046964172
-0.0671728
-0.067015156
-0.056987215
-0.042391066
-0.032893486
-0.03465781
-0.035478473
-0.032467674
-0.028667923
-0.020519458
-0.004768965
0.025676508
0.056266997
0.05816972
0.044355173
0.03959883
0.037182704
0.03026
0.01690335
-0.0014874068
-0.0049939235
0.009675962
0.018153133
0.011532167
-5.881907E-4
-0.012491256
-0.017992066
-0.011775115
-0.0032388526
0.0012432487
0.00651817
0.007528528
0.0025588775
-0.001980644
-0.0015260576
0.007895749
0.010208301
0.0012092363
0.0024304534
0.0017253668
-0.016969688
-0.03609633
-0.042096954
-0.038559288
-0.041105866
-0.052500367
-0.061175767
-0.06440067
-0.05923991
-0.050749972
-0.041439172
-0.025155276
-0.01090673
0.0010114822
0.016073575
0.030998282
0.045242805
0.051369365
0.05411693
0.059762485
0.059840605
0.061980218
0.067741245
0.07098946
0.077771634
0.08583266
0.08817952
0.073222645
0.045994055
0.028079141
0.00429557
-0.035475053
-0.06134168
-0.062413335
-0.061529554
-0.07463896
-0.08642282
-0.088289775
-0.0887084
-0.07889277
-0.06226664
-0.050248116
-0.036100328
-0.024654359
-0.020047318
-0.014710607
-0.006092265
0.005056254
0.011797334
0.01450057
0.019417949
0.022229394
0.022633573
0.02422748
0.025212904
0.025222216
0.025532428
0.025709715
0.025690317
0.024435693
0.018559676
0.012915386
0.012143628
0.009807142
0.006150929
0.0034580647
3.6757224E-4
9.013949E-5
-2.1058384E-4
-0.0011332267
0.0023978676
0.0063582417
0.008047487
0.010227822
0.010780952
0.008716396
0.007827296
0.0056482046
9.2553155E-4
-6.865417E-4
-0.0029925876
-0.00724052
-0.009412576
-0.013212016
-0.015136027
-0.015458493
-0.018343942
-0.017343538
-0.015202568
-0.014602183
-0.013025722
-0.012775369
-0.009971359
-0.005171733
-0.0020572266
-3.2538408E-4
-8.9834735E-4
-6.8678043E-4
-6.4368814E-4
-0.0013565532
6.0478563E-4
0.0014235309
6.538238E-4
0.0015464076
0.0035700232
0.005031005
0.0052507897
0.00592322
0.005507815
0.004158986
0.0040276423
0.0037057125
0.004374022
0.0048417132
0.0035829379
0.0035546625
0.005904498
0.007523174
0.0047369306
0.0041470495
0.0075599933
0.0077983774
0.008441834
0.008263058
0.004087448
0.0012782034
-1.8969792E-4
-3.9059788E-4
-3.6171048E-5
0.0016163856
0.0048513995
0.0036042882
0.0017090327
0.0013349423
-0.0012041555
-0.0024692966
-0.001363806
0.0010373292
6.29146E-5
-0.0038923481
-0.0038517881
-0.00300983
-0.002049174
-0.0015504048
-0.0042183273
-0.004225931
-0.0013548223
2.0619492E-4
-0.0037334277
-0.008160923
-0.0022702138
0.00515344
0.009242895
0.011958213
0.0073536374
0.002524342
3.3175948E-4
-0.0038977242
-0.005807645
-0.0055777635
-0.003012675
2.252807E-4
-3.5428334E-4
0.0010689183
0.0053285863
0.0066292672
0.0061001405
0.0039354335
-0.0010839078
-0.003873442
-0.0032640062
-0.0044528763
-0.004834311
-0.002861969
-0.0028161372
-0.0024201407
-7.569121E-4
4.983498E-4
0.001520482
8.3018554E-4
4.2629818E-4
-7.6810735E-5
-0.0015278655
8.238931E-4
0.002932264
0.001320023
0.002013492
0.0031363203
0.001418632
-5.449717E-4
-0.0029413323
-0.0038649053
-0.002097129
-7.1541715E-4
0.0011660482
0.0032911594
0.0030467876
0.0024184715
0.00312497
0.0027428863
-4.4003237E-4
-0.0022941683
-0.0013396988
-0.001950842
-0.0019747573
-7.8143086E-4
-0.0022085689
-0.0027897668
-0.0013600468
6.357181E-4
0.002543315
1.3040847E-4
-0.0031783134
-0.00297949
-0.002176906
-7.182335E-4
-4.9886195E-4
-0.0021420831
-8.220258E-4
3.2411187E-4
-7.6676696E-4
7.274653E-4
0.002911003
0.0022163666
-4.5484095E-4
-0.0015731915
0.0012554285
0.0030881974
0.0025502534
0.003094884
0.0024379396
0.0012295767
0.0020927438
0.0026047246
0.0017214537
0.0013569614
0.002150745
6.8705523E-4
-0.0023049747
-0.002627587
-0.0027764537
-0.0032438876
-0.0028722205
-0.0024872955
-6.181893E-4
7.968511E-4
0.0011327517
2.9728728E-4
-0.002253332
-0.0017043756
-3.0965405E-4
-9.65309E-5
9.888005E-4
-5.121425E-4
-1.3906904E-4
0.0027772656
0.0019560044
0.0018230045
0.0019984466
0.0011742415
0.0027386837
0.0010377421
-0.0026395347
-0.0011588188
5.23987E-4
-8.1623666E-4
1.185704E-4
0.001754527
-9.935893E-4
-0.0028258967
-8.550885E-4
-0.0011131358
-0.0023545814
-9.0047874E-4
1.177247E-4
-7.8548305E-4
-2.5202832E-4
0.0022364073
0.0029623117
0.0017032195
-2.420073E-4
-0.0011959961
0.0011281136
0.002022349
6.488755E-5
-2.941404E-5
4.7874113E-5
-8.038503E-6
0.0010438164
4.0768055E-4
-3.7046536E-4
1.14062364E-4
-4.7027224E-4
-5.6065933E-4
0.0011363993
0.0012306416
-7.1796484E-4
-0.0017258329
-0.002119385
-0.0016791283
2.0607842E-4
-6.7352765E-4
-0.002712904
-3.7151296E-4
0.002210601
0.0023557264
0.0029495321
0.0032923094
0.004350869
0.005316259
0.0027447906
-3.6511486E-4
-0.0031654409
-0.00615741
-0.0044305804
-5.160147E-4
-5.377711E-4
-0.0010644889
5.487872E-4
8.8941044E-4
-2.735163E-4
-8.697208E-4
-6.735551E-4
-5.339368E-4
-0.0021402664
-0.0031716463
-8.038311E-4
7.269877E-4
2.420047E-4
3.91218E-4
-6.282972E-5
7.79178E-4
0.0034851686
0.002842134
7.6465035E-4
0.0020506608
0.0028910274
9.965971E-4
4.951035E-4
9.828266E-4
3.858813E-4
1.3099398E-4
3.2327633E-4
2.9164768E-4
-0.0013060693
-0.0017586288
0.0012475587
7.208159E-4
-0.00216696
-0.003128065
-0.0044824383
-5.530104E-4
0.0027504894
-0.003898382
-0.005641807
6.348253E-4
0.002736507
0.002606861
0.002573257
7.550809E-4
-2.777508E-4
2.6711222E-4
-3.2448203E-5
-4.0962154E-4
9.2924025E-4
0.0010388034
3.2203717E-4
0.0012884295
6.6888577E-4
3.2628354E-4
0.0026794139
0.0015344652
-0.0010881934
1.9930296E-4
7.0452795E-4
2.0118422E-4
7.632081E-5
-0.0019460467
-0.0015992087
-1.141652E-4
-0.001165101
-8.79537E-4
-8.8831596E-4
-0.001281034
-2.5752632E-4
-3.315156E-4
5.929178E-4
0.0013993889
0.0010132714
0.0011051351
-7.1220315E-4
-0.0014687676
-4.6615643E-4
-1.8633514E-4
8.4502593E-4
4.887835E-4
-2.7261523E-4
4.745947E-4
0.001243045
0.0012519575
1.580026E-4
0.0012286532
0.0015323777
-3.1694176E-4
6.0012756E-4
-0.0013576787
-0.0036813659
-4.0111205E-4
5.7129445E-4
3.81486E-4
0.0017128229
2.4414298E-4
-0.0012190193
-3.216414E-4
3.6653888E-4
-1.516948E-4
7.32554E-5
6.855083E-4
2.7238874E-4
-1.8197125E-4
-8.2277815E-4
2.1247202E-4
0.0014387667
1.7695473E-5
6.0270185E-4
0.001945181
1.3473403E-4
-0.001966373
-0.0019218503
-3.5399725E-4
-2.2677469E-4
3.875508E-4
0.0021877862
0.0010525006
7.2547694E-4
0.0019748737
0.0011694888
1.0160931E-4
-0.0012761744
-0.0025217568
-0.0023234263
-0.0010811599
-9.539895E-5
-0.001759051
-0.0027408886
4.296031E-4
0.0035309824
0.0021774687
-8.1921683E-4
-5.7040714E-4
-2.0969482E-4
-0.0012452671
-1.3677885E-4
4.5147943E-4
-6.0362736E-4
-7.760335E-4
-1.9894856E-5
0.0016637285
0.0026506977
0.0013243255
-2.1838074E-4
7.572278E-4
0.001872202
5.082322E-4
-2.5374824E-4
-5.187803E-4
-7.86876E-4
4.3723724E-4
-2.5366948E-4
-0.0011743259
3.120361E-4
2.9433792E-4
-8.9786306E-4
-0.0018139037
-0.0015051622
6.0799206E-4
0.0013665657
0.0015983906
0.001803805
5.3053842E-5
-5.7379383E-4
-2.3722414E-4
-0.001918727
-0.002218273
1.5856876E-4
0.0014938142
0.0020493246
0.001683853
-5.979808E-4
-4.470365E-4
6.468824E-4
-0.0016181959
-0.0021367928
-7.928679E-5
3.757742E-4
7.797549E-4
0.0013762151
2.5910564E-4
-0.001506081
-0.0018090138
-5.305173E-4
9.322603E-4
7.272988E-4
-0.0010945237
-3.842156E-4
0.0017783499
0.0013637878
9.743544E-4
0.0010547341
7.1481493E-4
8.170807E-4
7.4667437E-4
9.245194E-4
-3.6150136E-4
-0.0016543631
-0.0012137863
-0.0020971003
-0.001192597
3.6577828E-4
3.3169657E-5
0.001039584
-0.0011309626
-0.0027934879
0.0011826118
0.0014215907
-0.0013269242
-0.0014924677
-1.2855865E-4
0.0018819529
0.0017641992
2.6366382E-4
-0.0014035166
-0.002182254
5.233431E-4
0.0023820593
0.0012860624
7.737878E-4
0.0011433515
0.0011711651
0.0011135185
0.0011097601
-3.3446733E-4
-0.0012197512
1.2306741E-4
7.4932486E-4
2.4417037E-4
-7.7756256E-4
-2.1027071E-4
9.121847E-4
-0.0014722114
-0.0018457058
1.2660059E-4
-5.413163E-5
0.002066632
0.002185722
-0.0028021284
-0.0012933458
0.003100137
-0.0032419667
-0.009245477
-0.003293994
0.0010924318
6.5712346E-4
0.0030602084
0.0030297178
0.0012093837
3.2575557E-4
-0.0021207568
-0.001620456
9.3095796E-4
0.0017065963
0.002469132
0.0022876202
0.0012857467
0.001205367
0.0012371222
1.0830318E-4
-6.4051506E-4
5.125089E-4
0.0010670144
8.082905E-4
-2.2470555E-4
-0.0018382877
-7.8761764E-4
-3.356235E-4
-6.6845433E-4
0.0013220045
4.1043642E-4
-7.244433E-4
8.742349E-4
-9.690807E-4
-0.0026941455
-0.0012575821
-4.4665806E-4
-1.2325472E-4
-3.316682E-4
6.2246976E-4
0.0018394196
5.6082587E-4
6.1902497E-4
4.0411265E-4
-0.0016251267
-0.0017307472
-0.0012420217
5.9639226E-4
0.0010904322
-0.001793007
-9.838345E-4
2.204073E-4
-3.8274148E-4
0.001276131
5.802119E-4
-2.6229245E-4
0.0013719439
0.0010916276
8.311898E-4
9.5804705E-4
-2.9251209E-5
-4.1715254E-4
7.7868794E-4
0.0019369045
6.6797837E-4
-4.568908E-4
-6.161412E-4
-6.858233E-4
5.121826E-5
-9.4017474E-4
-9.671442E-4
5.7486474E-4
-0.0011835191
-0.0020109788
-8.304686E-4
-8.6392695E-4
-4.0054252E-5
7.933084E-5
-7.046639E-4
5.4164586E-4
8.261311E-4
-9.358533E-4
-2.4885393E-4
9.467463E-4
2.6754025E-4
0.0020688197
0.0026092224
6.1618944E-4
0.0017384607
5.1062198E-6
-0.0023495778
7.1911316E-4
-4.435065E-4
-0.0024605652
0.0012815081
0.0017626059
-6.6862174E-4
-8.199895E-4
-2.8431346E-4
7.472505E-4
0.0012825856
5.0080597E-4
3.4752957E-4
8.17122E-5
-0.001464315
-0.0017449888
-0.0011971565
-0.001149601
0.0011430964
0.003031292
0.001692642
1.4264202E-4
-9.941148E-4
-2.7814298E-4
5.643419E-4
-0.0016237014
-0.0014390292
4.3164988E-4
-4.1327454E-4
-9.650472E-4
-0.0010672329
-8.122145E-4
-3.70684E-4
-0.0015081115
-0.0020154289
-0.0013665283
7.285895E-4
0.0022360904
0.0010408334
0.002370499
0.0025060466
-0.0013123326
-9.990499E-4
2.2693802E-4
-4.445245E-4
4.297315E-4
7.004061E-4
8.753065E-4
0.0013998498
0.0027210582
0.0041002915
0.0011537037
-0.0027084493
-0.004036279
-0.002408424
4.8698433E-4
-8.903125E-4
-0.0017410509
4.4071814E-4
0.0014304393
0.0032800068
0.002100135
-0.0012309835
1.913903E-4
4.1680937E-4
-0.0020731282
-0.0026145533
-0.0017974874
-8.560366E-5
5.825817E-4
4.3750717E-4
0.001296577
0.0016030835
9.4520516E-4
-2.7331995E-4
-0.001252831
-9.3272683E-4
-5.7447405E-4
-0.0016108856
-0.002160508
-0.001049112
-0.0010085275
-9.99133E-4
4.9591134E-4
7.6169585E-4
1.9123124E-4
-6.298537E-4
-0.0012056234
-2.3935772E-4
0.0010051754
0.0024529886
0.0023573935
1.555508E-4
-8.936032E-4
-8.5477316E-4
5.830577E-4
0.002085401
0.0012164298
3.5244212E-4
2.1359834E-4
0.0011895006
0.0026378355
0.0021772392
0.0011780014
4.7023525E-4
0.001238875
0.0013625899
-0.001683912
-0.001525129
7.166147E-4
-3.408683E-4
-9.3639875E-4
-3.3552287E-4
-8.8519376E-4
-5.6651555E-4
0.0034402143
0.0035742952
-0.0060721715
-0.010035276
-0.003354759
6.9185146E-5
1.2930836E-4
0.0011276995
8.707009E-4
-8.708275E-4
-0.0023939302
-0.0024206084
-0.0011512513
0.0012740919
0.0013374607
2.8952516E-5
0.0016178031
-3.9772694E-5
-0.0019461795
0.0018388652
0.0023457257
0.001400241
0.0030265397
8.816578E-4
-0.00171669
-8.0970715E-4
6.6693756E-4
0.0017556802
0.0021868602
0.0016404287
9.0043433E-4
7.509242E-4
2.5328272E-4
-8.574193E-6
-1.7051998E-5
-0.0017598438
-0.0015623816
2.5423733E-4
-1.6030525E-4
8.5636025E-4
0.0012182157
-7.582167E-4
-2.5165624E-5
5.0321163E-4
-1.6239916E-5
-2.7692484E-4
-0.0023214987
-0.0017354902
1.6957591E-4
-2.857218E-4
9.07695E-4
0.0011197348
-6.172556E-4
-4.7678465E-4
-0.0017330156
-0.00402522
-0.0028220674
5.6874944E-4
5.8112695E-4
-0.0029372624
-0.0023971791
6.8867893E-4
8.311035E-4
9.179742E-4