-0.0011615283
-0.0012371987
-0.0019342534
-0.0030201438
-0.0031309417
-0.001281005
-3.6433042E-4
0.001385333
0.002083934
9.1211515E-4
0.0018057178
4.8985815E-4
-0.0014552266
-0.0013569191
-0.0010633414
0.0025744382
0.0052515515
0.004584029
0.0035443478
0.0022145908
0.0037234104
0.0041221064
0.0016858747
0.0016410956
9.658765E-4
-0.0015188704
-0.0038714262
-0.0045212684
-0.0035900627
-0.0042708814
-0.0026224575
5.1090133E-4
-3.4028006E-4
-6.144332E-4
9.012083E-4
6.976116E-4
6.5284265E-5
2.5364142E-4
-0.002291777
-0.006661414
-0.0040996857
0.0012493699
0.0016235573
0.0021768417
0.0027923114
0.002303814
0.0022623537
-7.4187195E-4
-0.002767932
-8.947597E-4
-4.0218592E-4
-1.6986263E-4
0.0025063644
0.0037845583
0.0015420448
-4.5504494E-4
-0.0011988282
-0.0028759155
-0.0025866688
5.6340854E-4
0.002391649
0.0025242285
0.0013154531
-0.001032165
-0.0010252254
9.782106E-4
0.001523673
0.0011470835
9.857622E-4
9.970446E-4
8.5842755E-4
-8.4911974E-4
-0.002663712
-0.002237351
-0.0014828325
-6.266107E-4
0.0014914136
9.403383E-4
-0.0022505259
-0.0014496536
0.0018947197
0.002006713
0.00106105
0.0016184432
0.0023869989
0.0020827157
-2.11315E-5
-0.0010333617
3.971521E-4
-7.522499E-4
-0.0044971923
-0.0052640815
-0.0034111964
-0.001138688
9.326128E-4
-6.65063E-5
-0.0022648398
-0.0015945204
-0.0011111567
-0.0020967943
-0.001440395
1.9027086E-4
4.595569E-5
-0.00140699
-9.46538E-4
0.0010066903
0.0013821676
5.0558144E-4
7.909322E-4
0.0033750003
0.0048609665
0.0035596164
0.00431813
0.006587443
0.005803246
0.0043621627
0.0053985156
0.005635088
0.0021857088
-0.001704092
-0.0050609796
-0.008532014
-0.0073953187
-0.00403382
-0.0049624
-0.004730996
-6.6985143E-4
5.444888E-4
-1.6505747E-4
-3.8711523E-4
-0.0028610453
-0.004837492
-0.0036384787
-0.0014409678
3.52498E-4
4.8998534E-4
1.3547568E-4
-9.466197E-5
-6.963422E-4
7.9966366E-4
0.0022964573
0.0020639908
0.0023489525
0.002174047
0.002771921
0.0038437727
0.0031212159
0.003014239
0.002182835
-3.7506717E-4
-0.0015122461
-0.0012079914
-3.4656882E-4
-9.183583E-4
-0.0028337333
-0.0025355413
-4.7170508E-4
0.0015354007
0.003118211
0.0034703752
0.0018635158
-0.0014609
-0.0036150161
-0.0027507406
-9.467111E-4
-5.762071E-5
3.696437E-4
0.0010140757
6.062913E-4
-0.0010024795
-0.0014694486
-8.7933964E-4
-8.5962255E-4
-0.0012021535
-0.0015518876
-0.001266474
1.9864689E-4
0.0017899176
0.0037725654
0.004923342
0.0022236952
-4.7186454E-4
-4.909064E-4
-0.0018873084
-0.003045286
-0.0014855615
4.0042785E-4
0.0016168958
5.760446E-4
-0.0013322097
-5.9951755E-4
1.5554571E-4
-9.53836E-4
-0.0019493273
-0.002479364
-0.0017216003
6.255977E-4
0.0015602594
4.261823E-4
2.3491016E-4
0.0010743169
6.066064E-4
-5.4228364E-4
2.4075962E-4
0.0023719242
0.0028289924
0.0017185023
5.6871475E-4
3.1501983E-4
7.909117E-4
-4.703604E-4
-0.001997772
-0.0013948642
-0.0011017555
-0.0014174479
-0.001058086
1.4719319E-4
8.3123427E-4
-6.855454E-4
-0.0011203921
-5.898825E-4
-0.0014071494
-4.1858805E-4
7.677748E-4
-4.5570516E-4
-0.0016584215
-8.881919E-4
0.0014222881
0.0018808962
0.0019446685
0.0029495624
0.0018279753
0.0013971915
0.0014049293
8.688659E-4
0.0019579586
6.259881E-4
-0.0018808219
-0.003158853
-0.004036796
-0.0015608643
0.0018210828
0.003962965
0.0016863233
-0.005252587
-0.0052375933
-0.0012636638
-1.5288093E-5
0.0024787853
0.0014573819
-0.0011475487
-4.944032E-4
-6.280519E-4
-5.103866E-4
-3.0467534E-4
0.0012819387
0.003055632
2.1326174E-4
6.9971813E-4
0.002827032
-6.47758E-4
-0.0016655219
-7.316103E-5
3.115113E-4
4.7593564E-4
-7.284652E-4
-1.2380541E-4
4.814405E-4
-0.0016633769
-0.002156142
-0.0023702588
-0.0025774606
-5.156363E-4
9.752536E-4
0.0012311734
7.8602403E-4
8.186234E-4
0.0021943266
0.0018372943
-4.1430787E-4
-0.001996427
-0.0014796953
-1.9479809E-4
-3.114071E-4
0.0014003266
0.004347266
0.0040733153
0.0034954732
0.003405793
0.0013536626
-7.753445E-4
-0.0013920411
-0.0014595739
-0.0031275642
-0.0045547085
-0.003615357
-0.0032355855
-0.0023759485
-7.535939E-4
-0.0016853301
-0.002614019
-9.74043E-4
0.0022760823
0.004140635
0.002701532
0.0013768491
0.0010840698
5.584874E-4
-6.647202E-4
-0.0025547468
-0.0011929801
0.0015350671
7.311054E-4
4.867215E-4
0.002238372
0.0030238798
0.0043643876
0.0052283606
0.0025086615
-5.049762E-4
-0.0023104649
-0.0054372847
-0.005747364
-0.002439007
-0.0018797086
-0.0025428182
-0.0020535626
-0.0016679498
-3.317724E-5
8.1156817E-4
4.9133593E-4
0.0017236118
0.002009656
7.0617173E-4
2.4832942E-4
1.6867607E-4
1.5904674E-4
3.8236927E-4
-3.304944E-4
-3.481858E-4
0.0025638996
0.0033414338
-1.5049444E-4
-0.0018524365
-0.001197816
6.4547505E-4
0.0025263103
1.00831894E-4
-0.001874682
-4.064757E-5
1.677488E-4
3.8862454E-5
9.295358E-4
7.505269E-4
4.1130985E-4
-5.7826728E-5
9.1236754E-4
0.0017933926
-0.0019286382
-0.004803166
-0.0018470223
0.0015859285
0.0024334292
0.0026240048
0.0022301076
7.7355286E-4
-7.65148E-4
-0.0024958276
-0.0030221401
-0.0010156818
-0.0010107087
-0.0026970583
-0.0018248672
-0.0017612268
-0.0016638455
5.5835804E-4
1.9987099E-4
2.9398955E-4
0.0020495784
-9.362325E-5
-7.7771494E-4
0.0026323455
0.0034062567
0.002221806
0.0011655214
1.7024136E-4
9.875331E-4
7.715411E-4
-0.0011464354
-9.149033E-4
-4.2823295E-4
-0.00108171
-0.0010734403
-9.6474204E-4
4.3150396E-4
0.0024623624
0.0013205786
-9.1590825E-4
-6.670776E-4
1.7887032E-4
-4.6293312E-4
-7.662451E-4
-7.209417E-4
-0.0011325373
0.0012299707
0.0034025975
9.84887E-4
-0.0014609466
-0.0023604925
-0.0018443791
2.2301702E-4
3.566171E-4
3.6715946E-4
0.0012040096
0.0010118592
5.528909E-4
-0.0010482318
-0.0011342232
9.178788E-4
6.257291E-4
-0.0010868219
-0.002622257
-0.0028750352
-0.0018899329
-0.0019360443
-0.0011619015
0.0010753025
0.0031117501
0.0030932256
5.696798E-4
1.2873724E-5
4.320414E-4
-8.1155694E-4
1.209897E-4
0.0022050762
0.0021201752
9.696478E-4
6.9431483E-4
0.0020018383
0.002728226
0.0010605798
-0.0017338688
-0.003124872
-0.0014781872
6.461853E-4
-5.5118493E-4
-0.002012482
-2.9345527E-5
3.6665716E-4
-0.0014438472
-5.1886326E-4
4.4792032E-4
8.762519E-4
0.001687865
-4.4514472E-4
-0.0026751128
-0.0024895417
-0.0017342528
-8.373439E-4
-4.658506E-4
-1.8660683E-4
-2.6559146E-4
-0.0010255399
-8.349952E-4
1.6084558E-4
8.5192174E-4
0.0017153536
0.0032535638
0.003351603
0.0028890846
0.002491261
-0.0015717171
-0.0046552145
-0.0042934655
-0.003334215
6.8072096E-4
0.002104022
4.0720377E-4
0.0021834814
0.0027763315
0.003115865
0.0041544447
0.0015677093
-3.5106597E-5
0.0011068519
0.0013866948
-0.0010953418
-0.0034682238
-0.0029226944
-0.0029431647
-0.002648862
-0.0015605934
-0.001050095
3.4823542E-4
-2.9573377E-4
-8.971311E-4
9.850388E-4
0.0014099538
1.1589388E-4
-0.0015849642
-0.001161134
-5.534012E-4
-0.0011215148
9.788675E-4
7.7512884E-4
-6.606476E-4
7.836111E-4
-7.743078E-4
-0.0016773837
3.8158242E-4
0.0012435967
0.0032449944
0.0044470127
0.0033408983
0.0026224877
7.812339E-4
-0.0015696015
-0.0015721127
-0.001244956
-0.0020113687
-0.0012560913
-5.8604317E-4
-9.777838E-4
6.533221E-4
0.0019328798
0.0012143812
-2.869231E-4
-0.0016836583
-0.0014803014
-0.0017035888
-0.0015609178
-9.578105E-4
-0.0018120072
-7.0983614E-4
-7.659828E-5
-8.815004E-4
1.8077073E-4
4.58298E-4
0.0015406002
0.0014487247
-0.0018252479
-4.6544586E-4
0.0019499947
-1.1374072E-4
-8.922981E-4
5.208168E-4
0.0015406029
0.0028194962
0.0035523023
0.0018943263
0.0018307175
0.004062693
0.0017612657
-0.0010607446
-7.699838E-5
-0.0011428616
-0.0029017888
-0.0023098157
-0.0016816668
-0.0020939237
-0.0022408352
6.5829884E-4
0.0030133128
4.190006E-4
-0.0018120889
-0.0013434932
-0.0017200009
-0.0017020587
-9.0234616E-4
-0.0019865741
-0.0027378413
-0.0015444398
-7.3386927E-4
-1.3556001E-4
6.9805596E-4
9.81685E-4
6.75737E-4
-9.069946E-5
-8.089198E-4
-5.924669E-4
0.0012399273
0.0021654028
0.0018631192
0.0039633624
0.0044748173
0.0011849682
-4.0974666E-4
-9.073571E-4
-9.275075E-4
9.606355E-4
0.001569335
5.535596E-4
-1.7501874E-4
2.1038245E-4
0.0020772466
0.002936166
0.0020095932
0.0016500214
4.2572894E-4
-0.004565304
-0.008205282
-0.004517591
5.775401E-4
5.708894E-4
-5.005486E-4
9.451214E-4
0.0017130604
8.6447195E-4
1.7078707E-4
-0.0026249303
-0.0055848053
-0.0036512471
-1.5396859E-4
0.0017393155
0.0020828377
7.4718834E-4
5.177133E-4
0.0012249794
0.0011246075
6.676745E-4
-7.445078E-5
3.8115462E-4
8.00381E-4
1.6724992E-4
7.343423E-4
2.8410408E-4
-0.0013733146
-0.0010173708
-8.724517E-5
4.9256545E-4
0.001313518
0.0013891852
1.6743765E-4
-0.0011787637
-7.982856E-4
1.9148948E-4
7.368041E-4
0.0013097052
4.4713196E-4
-2.1423103E-4
5.975987E-4
-8.0955867E-4
-0.002356545
-7.249079E-4
0.0011116528
0.0021688219
0.0015062807
-2.521537E-4
0.001007076
0.0019600813
1.03366256E-4
-0.0013611304
-0.0031472698
-0.0034794922
-6.8674656E-4
8.273275E-4
1.825862E-4
2.0231285E-4
0.0016638865
0.0017226727
-5.5970496E-4
-0.0010854461
-1.4583036E-4
-6.1210076E-4
-0.0013891546
-0.0010121077
-2.5411454E-4
-7.696502E-4
-3.4512463E-4
0.0016067273
0.00126716
-1.3519882E-4
-9.82868E-4
-0.0011966988
4.8299367E-4
0.0015163467
7.3858636E-4
5.697792E-6
6.135002E-4
0.0016517829
9.911795E-5
-0.0012912243
-8.5811026E-4
-9.914915E-4
7.1607815E-4
0.0021400207
4.193609E-4
-5.3424435E-4
-4.8869115E-4
2.1959077E-4
0.0011927845
1.3573846E-4
-6.91715E-4
-3.4358984E-4
-3.880162E-4
-4.2929713E-4
-6.180097E-4
-8.2452554E-4
-4.1680472E-4
1.3606537E-4
8.104155E-5
2.6095117E-4
0.0011682407
5.5611454E-4
-2.78666E-4
7.250927E-4
-4.317071E-5
-0.0018858154
-0.0010669614
-2.6781106E-4
-5.6726136E-4
3.0188923E-4
6.9069007E-4
-3.366074E-4
-7.932616E-4
-9.3086343E-4
-0.0012974457
-0.0011615545
-2.2473442E-4
0.001804726
0.0021516532
-0.0011800015
-0.0028049143
-8.5867156E-4
-6.40097E-4
-0.00136241
3.5703674E-4
0.0013264411
6.664803E-4
0.0016119665
0.0019243222
2.9847704E-4
0.0017730461
0.004735598
0.004545095
0.004555457
0.004316708
0.0020381652
0.0018406619
4.5408492E-4
-0.0044414536
-0.006462777
-0.0051056026
-0.003467043
-0.0032765188
-0.002884608
5.7073025E-4
0.0012753281
-6.422312E-4
0.0013913461
0.0016720068
-0.0021993872
-0.003355333
-0.0014155576
0.0011802248
0.0032262495
0.0023976841
-2.7489552E-4
-0.0017976933
-0.0041644042
-0.0068968437
-0.0066809175
-0.0072020995
-0.0064884974
-0.0015781587
-3.441377E-4
-0.0018224398
-0.001528432
-0.001905947
-8.101552E-4
0.002823248
0.0036646465
-0.0040405425
-0.01368431
-0.014140228
-0.011661772
-0.009254742
-0.0010140582
0.00795555
0.013168817
0.016011126
0.019109488
0.021193257
0.018035613
0.015122571
0.012927675
0.0068819756
0.003420513
0.0033865212
0.0023899686
-0.0014476839
-0.009961561
-0.016732216
-0.017994646
-0.01753039
-0.015680484
-0.011129388
-0.0029917553
0.0045085917
0.00933667
0.016016848
0.021853846
0.025767716
0.025418503
0.013289082
0.0014662286
-0.0017596931
-0.004597953
-0.005559114
-0.00684998
-0.008363046
-0.005086781
-0.0040727574
-0.0028583137
-0.0017425648
-0.0088649625
-0.014484227
-0.01478117
-0.013145185
-0.008742086
-0.011921147
-0.021949338
-0.024901824
-0.02737498
-0.037787568
-0.044656366
-0.045250736
-0.043987427
-0.03325587
-0.013976334
0.0041403207
0.021003712
0.041399725
0.06779108
0.09970466
0.12873589
0.13347813
0.10833592
0.07056622
0.02619015
-0.008844831
-0.021971146
-0.041123085
-0.069993585
-0.076133065
-0.059931055
-0.0533227
-0.057542045
-0.035303432
0.01659221
0.06085133
0.06446249
0.023482224
-0.018221619
-0.04346842
-0.07957774
-0.0957901
-0.06336365
-0.046303134
-0.053117316
0.012130077
0.12578069
0.16795743
0.15026315
0.12718257
0.07935652
0.018265205
-0.0031465567
0.01047075
1.2771608E-4
-0.048298784
-0.11106325
-0.16287406
-0.15319224
-0.10037714
-0.086495735
-0.11924794
-0.15472502
-0.14339688
-0.08147263
-0.033618353
5.49716E-4
0.06422982
0.1213358
0.13174891
0.12092544
0.13756631
0.18550682
0.21089181
0.1978101
0.16155069
0.096904054
0.037664093
-0.009763028
-0.053433325
-0.021489967
0.042399872
0.03614496
0.014193347
-0.008069751
-0.0569577
-0.07580323
-0.080692455
-0.14740214
-0.2682674
-0.3379202
-0.28322652
-0.16773422
-0.06586935
-8.5686997E-4
0.025864754
0.035243176
0.032595083
0.0609025
0.16175161
0.27135786
0.30447975
0.22199832
0.08231749
0.009627576
0.010518818
0.003092519
-0.026138438
-0.020049369
0.031868722
0.035256196
-0.040364455
-0.10326819
-0.11626895
-0.097097196
-0.064817935
-0.06365866
-0.08985032
-0.09830184
-0.080163136
-0.04163448
-1.9381847E-5
0.016290173
0.047778595
0.13066976
0.11022234
-0.06986973
-0.12514123
0.026539024
0.15838426
0.2150442
0.2098632
0.13076992
0.045230176
-0.010375226
-0.0016449293
0.018705383
-0.048931733
-0.08030084
-0.02662619
-0.047961023
-0.121130094
-0.13166513
-0.09139076
-0.055072468
-0.09074556
-0.1501732
-0.097010516
0.009255802
0.069079176
0.11576921
0.112583525
0.068169765
0.07552249
0.076126166
0.037948366
0.0060447184
-0.046096098
-0.05984902
0.0012101389
0.021234594
-0.012413712
-0.027931843
-0.03277188
-0.049661145
-0.078113735
-0.08681755
-0.05905458
-0.025279652
0.04107805
0.13285838
0.14705546
0.08965711
0.0029791296
-0.11238581
-0.16708732
-0.15386833
-0.15215525
-0.12385998
-0.056232534
0.004783867
0.06820029
0.16608891
0.3055937
0.37394798
0.27821717
0.11749706
-0.03529413
-0.1482012
-0.13997237
-0.07561742
-0.056694478
-0.048912764
-0.045491252
-0.027948912
0.059685133
0.13953148
0.14710335
0.116910696
0.050729588
0.0030869835
-0.0018269335
-0.057553116
-0.12645265
-0.11739782
-0.09364704
-0.1353459
-0.22258711
-0.25922772
-0.21422377
-0.14812487
-0.07311552
-0.013856462
0.0028191
0.020401502
0.03669245
0.041824035
0.054685317
0.062111992
0.070557624
0.08358566
0.09868687
0.12796536
0.13569273
0.096820354
0.052293092
0.049081236
0.084180735
0.11320091
0.12330513
0.117807895
0.09121102
0.06057562
0.024679149
-0.01730104
-0.038073532
-0.043695807
-0.04989079
-0.056000046
-0.07125059
-0.08732684
-0.09149387
-0.09690855
-0.09969937
-0.08117852
-0.052256495
-0.030735971
-0.0135603305
0.0036762182
0.012479328
0.011116034
0.011946445
0.011108726
0.0010921448
-0.008703089
-0.017024452
-0.025139572
-0.034588058
-0.04674258
-0.048051663
-0.03677979
-0.020050185
-1.2049551E-4
0.014973248
0.027839676
0.040078435
0.048110027
0.055523105
0.053832926
0.041569468
0.03205042
0.02756696
0.028012283
0.035182297
0.04452597
0.04340279
0.03163218
0.0266397
0.024193782
0.016101103
0.010341489
0.0038754526
-0.0064403997
-0.021965493
-0.03731289
-0.037571862
-0.029810963
-0.020074213
-0.008442679
-0.0016942683
0.0042989342
-0.0043527787
-0.030961404
-0.043276515
-0.035443563
-0.019650314
-0.01039653
-0.01368044
-0.0067857904
0.00959459
0.017478144
0.020012263
0.026934987
0.036991797
0.027952181
-0.0014071148
-0.029467657
-0.047506243
-0.05050296
-0.051224895
-0.048348494
-0.02468986
-0.002246644
0.006366175
0.0044613415
-0.008728802
-0.010541755
0.003141927
0.012784629
0.0146879405
0.01858376
0.028152475
0.03393157
0.0395574
0.043255247
0.031280067
0.010178606
-0.011047642
-0.01551402
0.0010693424
0.010558354
0.006058772
-0.0051357066
-0.009103463
0.006224735
0.0156305
0.009898408
0.0050064255
-0.0016877895
-0.014355168
-0.025364826
-0.023206873
-0.015542842
-0.016028319
-0.016341342
-0.011126697
-0.0024441297
0.0014955278
-0.0023858903
0.0044974587
0.016190875
0.013161492
0.003689601
-0.008788809
-0.027351772
-0.042201024
-0.04529136
-0.041351173
-0.0402773
-0.03846895
-0.031012757
-0.020892533
-0.00352665
0.015532982
0.023169465
0.024430469
0.028054727
0.037236966
0.04697689
0.047444824
0.044626508
0.041271538
0.03166884
0.028030705
0.03682723
0.042928472
0.031300083
0.0029145326
-0.018489629
-0.018547757
-0.0122386515
-0.010211915
-0.009947984
-0.010587841
-0.012739238
-0.016397756
-0.019349186
-0.02067174
-0.022937793
-0.025029222
-0.023738617
-0.020723533
-0.01709975
-0.011631429
-0.007053426
-0.0033764222
0.0021873727
0.005699401
0.0061010635
0.006332762
0.0037977416
9.974955E-4
0.0028161027
0.0041631274
0.0020917186
-0.0010498157
-0.0043622316
-0.005787868
-0.00666072
-0.006811341
-0.0025840616
0.0016074114
0.0042175525
0.0076810694
0.009382313
0.011363947
0.013223714
0.012691042
0.013862901
0.015045521
0.014199047
0.012782738
0.009843849
0.006348284
0.0027656602
-1.3124091E-5
-0.0020068826
-0.0045136116
-0.005275348
-0.004942251
-0.0046808114
-0.0036900837
-0.0040203994
-0.006508639
-0.007964095
-0.004956151
-0.0025278009
-0.0034633016
-9.328402E-4
0.0020532133
3.0322792E-4
-0.0021507773
-0.0024029275
-5.447287E-4
1.8467452E-5
5.0312455E-4
0.0031524668
0.002445668
-0.0013793967
-0.0037378925
-0.0025691758
-3.7122055E-4
-7.669934E-4
-1.6634562E-4
-0.0029181545
-0.01036989
-0.010195755
-0.00547274
-0.0023879407
0.0010057652
7.09938E-4
-6.763828E-4
4.677311E-6
-7.3438644E-4
-1.8674298E-4
0.0021665273
0.001018812
-0.0027111338
-0.003585327
-0.0018805198
-5.0028774E-4
3.6805787E-4
-3.4375047E-5
1.0632815E-4
0.0018525489
0.0026059395
0.002848533
0.0017133831
-2.0708778E-4
5.5521145E-4
7.4205047E-4
-5.3618464E-4
3.7547835E-4
0.002472683
0.0032413327
0.0015874883
1.3039254E-4
-1.0299901E-4
-0.0019430512
-0.0023568335
2.1578913E-4
0.0013887275
7.6961704E-4
0.0010428582
0.0028766189
0.0025342095
-3.8845104E-4
-7.6120615E-4
-4.5275365E-4
-0.0019466664
-0.0025388813
-0.0024335035
-0.0017494754
-1.1958835E-4
8.7061594E-4
1.0834164E-4
-0.0014384696
-0.002065124
-0.0026023628
-0.001798695
0.0019775014
0.0077732406
0.012697249
0.0092753135
0.0018797565
-9.008416E-4
-0.0053677093
-0.008386618
-0.004227051
-5.804671E-4
0.0021482739
0.004804156
0.0031500943
-0.0026025034
-0.0061799223
-0.0026639847
-9.2024406E-5
-1.04149265E-4
0.0027867984
0.0026945123
0.0018818743
0.0030039265
3.037792E-4
-0.0016278985
-0.0024372006
-0.0045956396
-0.0031162426
-3.6418063E-4
5.813621E-4
0.0015802894
0.0026785908
0.0028041718
0.0011693626
8.9101173E-4
0.0020973338
2.3267022E-4
-0.0014947077
-7.114935E-4
-0.0010942664
-4.089527E-4
8.143627E-4
-0.0010344952
-0.0012146919
2.5523826E-4
1.0013911E-4
5.3383224E-4
3.845564E-4
4.0751722E-4
0.0014410651
0.0013447491
0.002267965
0.002309927
3.3502834E-4
-2.3461344E-4
-1.5451277E-4
3.322069E-4
5.639949E-5
-1.8607247E-4
0.0014871999
0.001189969
3.9413324E-4
-1.3001202E-4
-0.0027039743
-0.002581355
-1.6824694E-4
5.684033E-4
6.4029417E-4
8.6724653E-4
0.0010473247
9.0132694E-4
6.9252535E-4
-8.189274E-4
-0.0022815398
-7.1133766E-4
6.8418897E-4
9.949304E-4
0.0011123639
2.735222E-4
5.700737E-5
-3.620013E-5
3.187199E-4
-9.594955E-5
-0.001999577
-9.981758E-4
-1.8505524E-4
-5.911778E-4
0.0016366376
0.002264579
9.436232E-4
-3.9633223E-6
-5.5023894E-4
9.33611E-4
0.00148985
3.8747047E-4
2.0801938E-4
2.3082642E-4
4.2532122E-4
1.3896577E-4
3.0381544E-4
0.0018762675
0.0015443956
6.0027727E-5
-1.0043875E-4
-4.7661155E-4
-0.0010908876
-4.8844726E-4
6.86174E-4
2.9101895E-4
-9.1681053E-4
2.6143802E-5
1.8286434E-4
-0.002782042
-0.0027054762
5.351041E-4
4.340749E-4
-0.0014508363
-0.0014588796
1.9343306E-4
0.0011169497
-5.8228493E-4
-5.5659545E-4
0.0022110345
0.0034195
0.003617837
0.0027638902
6.6940405E-4
-1.9479975E-4
1.3768993E-4
9.474963E-4
0.0016605892
0.0020331177
0.0023129531
0.0021498173
4.592022E-4
-0.002290666
-0.0022062215
-0.0020417764
-0.003798944
-9.5321983E-4
0.0017226819
4.889917E-4
6.6134264E-4
-0.0011379616
-0.0021214276
5.939171E-4
-2.2476194E-4
-0.0014093393
-0.001376589
-0.0031399499
-0.0027719776
-0.0030597786
-0.004250995
-2.0388499E-4
0.0042937626
0.0054776096
0.0061600152
0.0046831355
0.0021535577
0.002282148
0.0018591774
-7.808648E-4
-0.0014950684
-5.9346866E-4
-0.0012431233
-0.002253458
-0.0017113282
3.9104515E-4
0.0017224292
4.0013934E-4
5.9112406E-4
0.0026185228
0.0013295695
-8.520276E-4
-0.0013890327
-0.0019049513
-0.001607253
-8.2779507E-4
1.0697782E-4
2.0817362E-4
-7.6264486E-4
5.194565E-4
0.0012053082
-0.001174204
-0.0022225764
-0.001023585
9.828816E-4
0.0023561663
0.0020591118
8.3308836E-4
6.610288E-4
0.0024849842
0.0015749842
-0.0016297149
-0.0021306756
-0.0020954814
-0.0018048364
-9.539125E-4
4.451954E-4
0.0021018735
-0.0013047975
-0.0032636402
0.0015278814
0.0032006823
0.0012320203
-4.3960364E-4
-0.001456873
1.944708E-4
0.0017999833
0.0013154787
-3.8715228E-4
-8.359776E-4
0.0014383518
0.0016636241
1.5110237E-4
5.687683E-4
2.7464208E-4
-9.6720504E-4
-8.498862E-4
-4.097592E-4
5.955513E-5
9.794309E-4
2.015351E-4
-5.9987436E-4
0.0015598923
0.001977614
-5.0386874E-4
-8.109314E-4
1.3521269E-5
-9.6151856E-4
-0.0016078855
-6.5602997E-4
-6.6681864E-4
-9.112059E-4
-5.1628787E-4
-7.8400946E-4
3.7575525E-4
5.537215E-4
-2.788405E-4
0.0020435643
0.0019497253
-7.3739466E-5
1.0309104E-5
-9.446351E-4
-0.0011419819
-0.0014658349
-0.0023649763
-0.0012453303
-5.0247466E-4
0.001527457
0.0029166783
0.0013300667
0.0012805393
0.0014768321
0.0020882522
0.0028219528
8.8928704E-4
-9.301516E-4
-0.0023910187
-0.0017247899
2.8615567E-4
-0.0011649177
-0.0012098554
0.0016884095
0.0035520822
0.0031267826
2.522443E-4
-8.963442E-4
-0.0011691808
-0.0029166597
-0.0030231513
-0.0026845217
-0.0018986122
-5.398158E-4
-2.104624E-5
0.0014555211
9.301168E-4
-6.82591E-4
5.8622495E-4
5.6452985E-4
-1.1367687E-5
0.0010026409
4.3080223E-4
-1.7555327E-4
9.779132E-4
0.0020038206
0.00120071
2.8816456E-4
0.0013249926
9.3240774E-4
-3.7810326E-4
4.061535E-4
3.394527E-4
-5.303752E-4
-6.784715E-4
-0.0014463139
-0.0012990094
5.723066E-4
6.987662E-4
-0.0017550152
-0.0021010127
-5.266102E-4
-8.6455134E-4
-8.630112E-4
-7.271708E-4
-0.0012179352
7.905427E-4
0.002474972
0.002065513
0.0014602836
4.299811E-4
-5.089778E-4
-0.0011832418
-4.6784335E-5
0.0014219767
3.723471E-4
2.3812533E-4
5.9954374E-4
0.001198318
0.0026905474
0.0013698754
7.313859E-4
3.1242086E-4
-0.0027367587
-0.002590495
-0.0013346053
-0.0012157932
-5.0504785E-4
-0.0013906405
-0.001911341
-0.0018923621
-9.3925284E-4
0.0014583656
0.0011957169
7.574012E-4
0.0012092345
8.930088E-4
5.393107E-4
-6.917325E-4
0.0012778573
0.0038965102
0.0020846461
0.0014032797
6.341894E-4
-0.0010465475
4.70187E-4
0.0013765367
3.5512832E-4
-7.7251025E-4
-0.0012048117
-1.18823686E-4
-5.977199E-4
-0.0024915321
-0.0021303825
-6.0546637E-4
5.230465E-4
0.0014080441
-3.8210955E-4
-0.0031221588
-0.0020519774
-0.0010356468
-0.0012551076
3.130062E-4
-4.2714138E-4
-0.0016099346
1.7340385E-4
2.4397818E-4
-6.0153025E-4
1.9669697E-4
9.34011E-4
0.0010216722
9.2217635E-4
0.0012916133
0.0020868892
0.0028793484
0.0020677072
-2.1151708E-4
-9.934522E-4
-5.390133E-4
3.088305E-4
3.5817543E-4
-0.0010530294
-0.0010703743
-4.3680175E-4
3.6762387E-4
0.0028401741
0.004147563
0.003362766
0.0021352938
2.6068054E-4
-0.0014103485
-0.0013988358
-0.0016993111
-0.0022949365
-1.9836049E-4
2.2361017E-5
-0.0024279496
-0.0015760254
-0.0010306686
-0.0012572092
9.3340524E-4
0.0015049396
0.0013614994
9.1314357E-4
-0.001793869
-0.0023293125
-5.377992E-4
-6.116231E-5
1.595025E-5
4.8740636E-4
-8.2387566E-4
-0.0023569728
-9.1386604E-4
-0.0012096217
-0.0036585126
-0.0017346289
0.0013602455
0.0015231591
8.501074E-4
-2.8394582E-4
-3.8725176E-4
0.0011062215
0.0016235651
0.0012204114
5.910135E-4
-6.5681676E-4
-0.0011103015
2.4799167E-4
0.0021623608
0.003086505
0.003015674
0.0026195808
0.0010112586
-2.7728916E-4
0.0014233825
0.0025856835
0.00175108
0.0019616217
0.0018654648
7.1037473E-4
-1.561116E-4
-8.450491E-4
-0.0013932742
-0.0018939535
-0.001525684
-0.001963024
-0.004250529
-0.00381184
-9.065554E-4
-9.1798784E-4
-0.0036049634
-0.0028746475
0.0021249985
0.0029889701
-7.674129E-4
-0.0014727267
-5.6054554E-4
-0.0015351464
-0.0020519542
-0.0010090747
3.6666027E-4
0.0012668602
0.0012752688
7.949692E-4
8.665088E-4
4.388906E-4
-7.2882534E-4
-4.857483E-4
0.001457885
0.0034541348
0.0020192883
-0.0014924271
-0.0012308001
1.03546256E-4
5.524879E-4
0.0020564501
5.601735E-4
-0.001993726
-8.637624E-4
8.2262926E-4
0.0017442234
0.0025972046
0.0030476386
0.0032029036
0.0031658357
0.0022787198
-7.967467E-4
-0.0017134581
8.846036E-4
-9.989848E-4
-0.004798466
-0.0032004423
-0.0014726734
-0.0013521182
9.887754E-4
0.0015418413
-6.335774E-4
-0.0014549436
-0.002541723
-0.0035345175
-0.0022323898
-0.0017361864
-0.002341461
-0.0013673574
0.0010381218
0.0028139725
0.0014969138
-1.1709602E-5
0.0015753051
0.0017989627
-1.1925976E-4
7.002093E-4
0.0026515368
0.0026428243
0.002675345
0.0024416274
7.2090386E-4
-5.896461E-5
1.12847054E-4
2.572538E-4
0.0012124622
0.0015252281
3.7356562E-4
-0.0020915004
-0.00514427
-0.0050319387
-0.0029508227
-0.0025265925
-0.0010701711
9.883003E-4
3.017479E-4
-8.6168485E-4
-0.0010062149
1.1300341E-4
0.0025690913
0.00247548
5.1445235E-4
-8.302484E-5
-3.0071035E-4
0.0012764409
0.0028645617
0.0010073857
2.3462604E-4
0.0014203402
5.725062E-4
-9.1233326E-4
2.0957792E-4
0.002201251
0.0010025917
-0.0012976406
-0.0021969727
-0.0027169513
-0.0018417333
-5.5228226E-4
8.6470495E-4
0.0015076385
-3.0758794E-4
3.571611E-4
9.91769E-4
-4.7411997E-4
0.0021822134
2.671559E-4
-0.0072522904
-0.006165265
-0.0011983056
0.0018681651
0.0058497167
0.0054694116
0.0023174502
0.0022144162
0.0026579706
0.0022784458
4.4222473E-4
-0.0025443514
-0.0038131503
-0.004604822
-0.004403728
-0.0019157197
-0.0013637667
-0.0014473556
6.0632546E-4
0.0014269372
0.0017119237
0.0019350705
3.5398206E-4
1.7576151E-4
0.0014993964
0.0011246823
1.4480026E-4
-3.704377E-4
-0.0011656503
-0.0014348708
-6.632539E-4
-2.2344636E-4
1.9029665E-4
0.0014421458
0.0020499176
7.8429526E-4
-4.2727945E-4
0.0013554605
0.0024630756
1.3776562E-4
-7.5821206E-4
-0.00107522
-0.0016753107
-1.4047814E-4
1.13749134E-4
-4.6351463E-5
5.618103E-4
9.598215E-5
-2.418655E-4
-0.0017023893
-0.0018788106
-0.0010758487
-0.0026951663
-9.270368E-4
0.0024900928
0.0029565566
0.0020724228
1.820232E-4
0.0018476964
0.0024514801
-0.0016822513
-8.9733355E-4
0.0010776836
-4.018613E-4
-0.0011216089
-0.0015452434
-0.0010895635
-8.394791E-4
-2.0400816E-4
6.244915E-4
-0.0012531445
-0.0010428946
7.164922E-5
-3.2624145E-4
9.4776E-4
5.908799E-4
-2.595187E-4
4.8224765E-4
5.490348E-4
1.4202546E-5
-0.0023584652
-0.002069734
0.0014842785
9.997643E-4
8.113848E-5
0.0011088696
5.0943025E-4
0.001083108
0.002626329
0.0013496969
-7.372146E-5
0.0011603853
0.0017334927
9.1960956E-4
5.066626E-4
-0.0012479837
-0.0035551754
-0.0040458697
-0.0025646584
-8.094901E-4
-7.369969E-4
7.4336465E-5
0.0012751914
-8.132567E-5
-0.0016807099
-0.0017220395
-4.5117622E-4
4.2918915E-4
0.0010764011
0.0024543833
6.495219E-4
-4.909509E-4
0.0030723433
0.0036166925