0.0024160026
4.3938475E-4
-0.0013530218
5.9743045E-4
0.0017274738
0.0019095207
0.0035010434
9.095241E-4
-0.0025265063
-4.733763E-4
0.0010935288
2.1736091E-4
0.0014515925
0.0016334353
-8.876224E-4
-0.0028439236
-0.00365392
-0.002848825
-0.0021752748
-0.0026832165
-0.0026844111
-0.0026527059
-0.0012524435
0.0015262886
0.0029936607
0.0031165318
0.0023305453
0.0013349007
2.4599305E-4
5.2960485E-4
0.0022496947
0.0011547613
8.7985094E-4
0.0042041615
0.004949657
0.0032296877
7.7172986E-4
-0.002285961
-0.0026468914
-0.0017870968
-0.0022775976
-0.0029036857
-0.0024294057
-0.0019972834
-0.0028408498
-0.0010228194
0.0014807256
-0.0020111683
-0.004287185
-9.3837536E-4
5.698131E-4
5.7173497E-4
5.519376E-4
-8.140134E-4
1.3964596E-4
0.0023119452
0.0030208642
0.0032278106
0.0012369935
-8.831727E-5
0.0025885706
0.0039311284
0.001695373
-6.622335E-4
-5.2400335E-4
0.0020097035
0.0017848588
-0.002232178
-0.004440427
-0.004265013
-0.0021239996
9.78114E-4
-7.1903574E-4
-0.0033318414
-0.0011197814
7.159142E-4
0.0014580308
0.0018539788
6.970161E-4
9.0573187E-4
-8.815527E-4
-0.0036152096
-0.0011459178
5.837263E-4
8.070232E-4
0.0026025642
0.0018471588
0.0013793337
0.001720646
-2.5309192E-4
-6.142509E-4
-6.594065E-5
-7.818472E-4
-4.7575968E-4
6.1438046E-4
9.0602576E-4
-7.866526E-4
-0.0025940812
-0.0013991185
8.259802E-4
8.1854855E-4
6.876923E-4
0.0037146276
0.0051439893
0.002026588
3.2465928E-4
3.7198054E-4
-6.9191185E-4
-0.0016890196
-0.0021558008
-0.0023412018
-0.0038552547
-0.0044905497
-0.0017851699
-2.652915E-4
8.064722E-5
2.2877762E-4
-0.0014568187
-0.0014066054
-7.5595744E-4
-0.0021209726
-0.0016516849
3.0567936E-4
8.501031E-4
0.0013169463
0.0025177442
0.003163596
0.0032120086
0.0019314644
5.3157302E-5
0.001176651
0.0017964558
-1.4352867E-5
6.468042E-4
9.155395E-4
9.5909263E-4
0.004146545
0.0040148823
6.3893903E-4
1.0399114E-4
5.777748E-4
-7.838149E-4
-0.0024548674
-0.0030601884
-0.0037470965
-0.003271413
-0.0014001662
-4.4171527E-4
4.5447765E-4
3.3163736E-4
-0.0012272253
-0.0020871633
-0.0018203651
-2.3152617E-4
-2.6021936E-4
-7.572514E-4
0.001079669
7.338196E-4
1.3168075E-4
5.2305276E-4
-3.3446762E-4
0.0020374882
0.00204984
-0.0028224217
-0.002156823
7.6572737E-4
6.48295E-4
6.201997E-4
6.5165084E-5
-1.115784E-4
-2.3201223E-4
-0.0011445972
-3.7122596E-4
2.444479E-4
5.859188E-4
0.0016111796
0.0014182514
0.001508485
0.0016547245
0.0015836421
0.0015793307
-4.7310727E-4
-0.0018089527
-0.0027350434
-0.0031767134
7.7191746E-4
0.002705226
0.002717733
0.004542318
0.0020204731
-3.771521E-4
1.4505934E-4
6.005278E-5
0.0024538217
0.0017927191
-0.0026520093
-0.0019284802
6.4780074E-4
-5.8971246E-4
-0.0024760303
-0.0013689853
-0.0036603822
-0.010029049
-0.0071067004
-2.2208193E-4
-1.2755892E-4
7.521944E-4
0.0018543131
6.678678E-5
4.8280545E-4
0.0016096943
0.0014766885
8.510444E-4
-1.3188903E-4
6.989908E-5
0.0013209513
0.001899387
7.5165724E-4
-6.703655E-4
-6.0145256E-5
8.3782134E-4
6.856101E-4
0.0023235201
0.005058651
0.0049053943
0.0036518725
0.0033087272
0.001111344
-0.0022837124
-0.0037299418
-0.0035846725
-0.003638912
-0.0031748053
-0.0010912735
1.505924E-4
1.0928975E-4
4.8487727E-4
-5.162278E-4
-7.535305E-4
0.002734945
0.0031811357
-0.0011358759
-0.001785948
-2.1834503E-4
-0.0014472209
-8.676171E-4
0.0010132481
-7.201903E-5
-0.001112889
-0.0010938179
-0.0016888166
-0.0014733311
3.9539635E-4
0.0010003493
-0.0012491123
-0.0011366272
0.0017419609
0.001731965
5.09481E-4
2.1194914E-4
-2.1509003E-4
-2.9825408E-4
-9.5311104E-4
-0.0011992296
1.3656369E-4
9.747414E-4
0.0012989913
0.0018614702
0.0010090154
-0.0011403138
-0.002104505
-0.0018460201
-0.0010417361
9.96802E-4
0.0020827432
5.5958994E-4
-0.0014527272
-0.0017653643
2.1796547E-4
0.0018837783
0.0025470972
0.0031047573
0.0012571535
4.7834605E-4
0.0022363672
0.0015151609
0.0015384341
0.0020604003
-5.684282E-4
-0.0011098748
-0.001084086
-0.0024193032
-0.001011081
-6.372832E-4
-0.0013385541
-7.8892324E-4
-0.0027021817
-0.0032516238
-0.0011041373
-0.0017238453
-7.858686E-4
0.0033986769
0.0025976263
-0.002152297
-0.0024935694
1.6491214E-4
3.9987778E-4
-6.167661E-4
-0.0014689923
-0.0015570291
-5.4421904E-5
3.4674225E-4
2.3102389E-4
0.002415643
0.004007978
0.0022240058
4.83297E-4
0.0016639627
0.001516506
-5.3363125E-4
-4.6109283E-4
-0.0014577074
-0.003131442
-0.0016927704
-4.5559616E-4
6.134963E-5
8.1750733E-4
0.0017507082
0.002947697
0.0014927323
4.935325E-4
0.0014478643
-3.8624965E-4
-0.0016069027
-1.4395405E-4
3.945804E-4
6.4987625E-4
2.8156617E-4
-0.0014719109
-0.0011932406
0.001094386
0.0012643092
4.4815178E-4
1.996034E-4
-0.0013975025
-0.0016892498
-8.035233E-4
-0.0020629335
-0.002905507
-0.0014620195
0.0011142234
0.0015179043
-3.0420828E-4
-4.101745E-4
-2.2940022E-4
2.845699E-4
0.001350141
0.0017205264
0.0030519343
0.001516435
-0.0011394847
-6.834089E-4
-0.0011989141
-9.794343E-4
-0.0012791032
-0.0031267975
-2.2251465E-5
0.0034800214
0.0022149126
-0.0012029731
-0.0030680632
-0.0016590512
-0.0010245647
2.6310986E-4
0.0017825621
-9.816232E-4
-0.0026778108
-0.0026002906
-0.0021997506
5.876652E-4
0.0020320453
0.0021935857
0.0016001407
4.2156008E-4
0.001324175
0.0016275805
0.0024913913
0.0039865864
0.0030405626
0.003294363
0.0034303328
0.0027611903
0.0022822137
-0.0015563057
-0.0031977005
-0.0019994115
-0.0029096373
-0.0021019257
-0.0011913391
-4.3606435E-4
-4.4481072E-4
-0.004697107
-0.0015821904
0.003907234
-0.004456045
-0.009896736
-0.0034480542
-6.2530115E-4
-6.9854903E-4
8.182035E-4
2.8551597E-4
8.418188E-4
0.0018151454
-5.637509E-4
-6.7788555E-4
0.0011681423
0.001070193
0.0029448618
0.0036985253
0.0021105532
0.0025131202
0.0016570458
0.0019007454
0.0026837331
-1.5205583E-4
4.797042E-4
0.0020361317
4.8128853E-4
5.694176E-4
-0.0011251678
-0.0034678867
-0.0026775855
-0.0026745345
-0.0031650173
-0.0016858852
0.0010956681
0.0030957041
0.0032616365
0.0018237118
-6.735227E-5
-5.339698E-4
-0.0011684054
-0.0014856922
-6.159052E-4
-0.0015520967
-0.0015439282
6.095623E-4
8.74466E-4
-2.620595E-4
-2.8514426E-4
5.495139E-4
-2.411151E-5
-1.5920059E-4
3.240021E-4
-9.32804E-4
4.4600187E-5
-8.245247E-5
-0.0033890682
-0.0017810555
2.3298422E-4
-0.0012087186
-9.892565E-4
-3.3111268E-4
0.0015275646
0.0032525598
0.0017475216
0.0019691165
0.0021059513
-0.0010104378
-7.0380303E-4
0.0021026365
0.0018799118
0.0015800429
0.0017125314
4.94417E-4
-2.2945851E-4
-0.0015069293
-0.0031197404
-0.0026807496
-0.0015191748
-4.7335075E-4
3.5008223E-4
7.8065234E-4
0.0013005125
0.001489888
0.0013274136
3.6887988E-4
-0.0013332599
-0.0022229168
-0.0015954456
-6.900668E-4
-0.0012914807
-0.0015599047
-4.2670654E-4
4.1549382E-4
0.0014132379
9.932485E-4
1.2807695E-4
0.0020127504
0.0014812307
-0.0024962774
-0.0029249778
-1.111244E-4
0.0011166224
9.401299E-4
0.0016733712
0.0019684653
4.4126651E-4
-0.0013554173
-0.002037861
-0.0014523087
-0.0018615962
-0.0019318466
0.0014981454
0.004606705
0.005574018
0.004183197
5.7037733E-4
4.7074223E-4
0.0014251124
1.8661536E-4
6.8855553E-4
-0.0010246022
-0.0045831706
-0.0040877326
-0.0026558987
-0.001513389
-2.9984512E-4
-6.139905E-4
-0.0015292562
-0.0029748336
-0.0023457129
2.8872394E-4
3.1645407E-4
-5.723644E-4
-5.0250604E-4
4.5497567E-4
0.0018395162
0.0012909686
0.0012322363
0.0016786741
5.181107E-4
9.524659E-5
-0.0012051794
-0.001539975
0.0023313109
0.0038128134
0.0019395502
0.0024613764
0.0038922504
0.0018619986
-0.0015665158
-0.0020600066
-0.0012187826
6.0413036E-5
4.3120052E-4
-0.0026276151
-0.0030244864
-8.0338266E-4
-9.4495993E-4
3.5795095E-4
0.0013240728
1.2479273E-4
3.3762466E-4
5.799119E-4
5.995691E-4
-0.0010359149
-0.0031834762
-0.0010421374
8.864566E-4
0.0013514188
0.002070203
-2.9730797E-4
-0.0015694447
-2.5911067E-4
-5.9093634E-4
-0.0010896571
-0.0022024398
-0.0031340558
-0.0010920467
2.8268163E-4
7.54059E-5
6.1244395E-4
2.5983233E-4
-2.3389724E-4
0.0015041383
0.002819658
0.002111542
0.002056309
0.0025053509
0.0016418565
2.0527629E-4
6.227964E-5
0.0012809928
-8.222413E-5
-0.0026202248
-3.1265034E-4
0.0025235864
0.0028251065
0.0034065833
7.2357757E-4
-0.0035618804
-0.0051750136
-0.005982748
-0.002932547
0.0019965156
0.0017758486
-1.631826E-5
-8.06746E-4
-0.0018702704
-0.0019087548
-0.0017806413
-0.0013358637
-2.584086E-4
4.4257552E-4
0.0026449396
0.0049632066
0.002717504
-3.219587E-4
0.0011833936
0.001599076
-5.141916E-4
-4.3556088E-4
-9.099956E-4
-0.0012086077
-2.3068638E-4
-5.0572155E-4
4.5885862E-4
-6.0958543E-4
-0.0025627057
9.728729E-4
0.0024736582
-9.1183305E-5
-0.0015187255
-0.0021045904
-6.56526E-4
2.7473245E-4
-2.534884E-4
7.3715445E-4
0.0013833073
0.0012910541
0.0012609079
0.0019932708
0.002483744
1.8396514E-4
-0.0012830297
-7.979451E-4
-0.0010912082
-0.0019846587
-0.0026235976
-8.7616744E-4
2.6730317E-4
-7.242733E-4
4.3245844E-4
-5.2755757E-4
-0.002757005
-4.8355537E-4
4.790822E-4
3.358056E-4
0.0015217531
9.204402E-4
0.0011949996
7.8403857E-4
1.0339684E-5
0.0018913705
0.0014408352
0.0012619498
0.00288251
0.003522837
0.00543823
0.003136927
-0.00158379
-0.003541035
-0.005980805
-0.002962935
-0.001376298
-0.0083877295
-0.0068669203
-4.9594826E-5
-4.898125E-4
2.3727612E-4
0.0038631507
0.004559249
0.0031068602
0.0019800176
-9.74256E-6
-0.00282691
-0.002984573
-0.003096206
-0.0029007096
1.6904407E-4
0.0011938597
0.0013872338
0.0022442993
0.0016361821
0.003038272
0.0044235624
0.0031624844
0.0025968303
0.0014899083
-0.0018562125
-0.0045289197
-0.0038042432
-0.0017695667
-0.0012929955
1.3514698E-4
0.002766408
0.0023544657
-3.3909237E-4
-5.6149694E-4
0.0011308308
8.6982E-4
7.487696E-4
0.0022787482
0.0011459107
-0.0012995721
-0.0012382816
-0.0012188205
-0.0017757871
-0.0010147403
-6.933783E-5
5.9263065E-4
8.1826915E-4
-9.1499335E-4
-0.0040632314
-0.005150395
-0.0031447858
-8.9097384E-4
0.0010205373
0.001898273
0.001339247
0.0025852413
0.0032920178
0.0017383621
0.0014859643
8.8714395E-4
2.486903E-4
1.266488E-4
-4.1938832E-4
0.0016942358
0.0012013298
-0.0028985743
-0.0032230138
-0.0029625623
-0.0012104514
0.0027126141
0.0010447707
-9.0343104E-4
0.0011888769
0.0018517335
0.0022132262
0.0013823131
-0.0022800674
-0.004094851
-0.0038950222
-0.0023779194
1.9074335E-4
-2.0111105E-4
-3.356031E-4
0.0024519917
0.0036673578
0.0048115165
0.0057479604
0.0034379677
9.1379235E-4
-0.0014795568
-0.0029838705
-0.0022132099
-0.0028170585
-0.0032489544
-0.0016817083
-7.536611E-4
-5.4439945E-5
7.899618E-4
0.0022368156
0.0028705397
-9.890508E-5
-0.0027891316
-0.0029750324
-0.0028733443
-0.0021822522
-0.0019427118
-0.0024850192
-0.0012245758
0.0010128542
9.217201E-4
-0.0012543942
-0.002658441
-0.002809283
-0.0023885581
-0.0022685144
-0.0027404323
-0.0015491763
0.0011143676
0.0032502206
0.004035348
0.0042305333
0.0059116376
0.005167793
0.0014962668
0.0011328954
0.0015703157
6.259863E-4
1.520563E-4
-8.771915E-4
-0.0019468719
-0.003021568
-0.0014572494
0.0022376012
0.002470578
-6.842489E-5
-0.0053718956
-0.0061812154
0.002516232
0.0036050451
-0.0020477227
0.0025768199
0.00950309
0.008384977
0.0033981807
-0.0011962818
-0.0037125773
-0.0046220254
-0.0051449514
-0.0052525587
-0.004962472
-0.0053112013
-0.005642345
-0.005652078
-0.004711567
-0.00102519
-0.002106382
-0.007819006
-0.0077725635
-0.0075861462
-0.0068483935
-2.276078E-4
0.0026553946
0.0036230383
0.0052126483
0.0036293955
0.004616091
0.0036731784
-0.0031610045
-0.0056615514
-0.0017273064
0.0048864526
0.014602804
0.023977183
0.023315843
0.014782873
0.011206322
0.014195226
0.022085074
0.025116954
0.00737534
-0.016928349
-0.026858546
-0.024785148
-0.015571525
-0.0065641883
-0.005683693
-0.011156839
-0.018278783
-0.016406503
-0.002925467
0.005631649
0.00545381
0.0068855714
0.007098242
0.0030886312
-2.5723808E-4
-0.0075458656
-0.020881254
-0.025693696
-0.018384378
-0.009830334
0.005776298
0.027867343
0.03937635
0.043729175
0.03761932
0.013827194
-0.0041240966
-0.013510103
-0.018261783
-0.0012210032
0.018422823
0.018920738
0.0046944604
-0.024912883
-0.050478317
-0.052440055
-0.037093677
-0.01136645
0.012833168
0.022272604
0.012220139
-0.00209221
-0.0035925177
-0.007845773
-0.0068175434
0.024351569
0.048550114
0.02682928
-0.014554402
-0.040498216
-0.047951072
-0.030469447
0.005545652
0.020634584
0.0055558416
-0.028748661
-0.053484872
-0.026701426
0.02768439
0.08406546
0.118380554
0.091212794
0.055005826
0.044748235
0.04129998
0.036335014
-0.017931033
-0.07564353
-0.06519376
-0.04854498
-0.041796975
-0.03958127
-0.05240769
-0.015301595
0.053129554
0.07733077
0.059744604
0.014298577
-0.03333292
-0.07059841
-0.11175225
-0.1360214
-0.12627715
-0.078455925
-0.011675113
0.033672076
0.08078429
0.12291341
0.095283
0.042932678
0.029380303
0.030095665
0.034118623
0.041426487
0.044888254
0.04045319
0.016907526
-0.0030067235
-1.4719556E-7
-0.009551034
-0.05193922
-0.090880044
-0.10728495
-0.10798365
-0.07068147
-0.0149122
0.026772583
0.0785858
0.10693883
0.07003023
0.0071465396
-0.018904617
0.023300124
0.07236253
0.095213205
0.106384315
0.065763995
0.0074633197
-0.028142925
-0.05348012
-0.045752488
-0.050890382
-0.07625774
-0.038759694
0.035677418
0.057939194
0.020852381
0.0047378996
0.0071236403
-0.056249626
-0.15711035
-0.21685524
-0.17799526
-0.08900698
-0.0673445
-0.04188848
0.04285616
0.09995318
0.12601086
0.12836851
0.12120053
0.14339581
0.14782022
0.09108199
-0.01343683
-0.10010098
-0.10266738
-0.050066072
0.009336164
0.058747575
0.10288192
0.1287402
0.060955714
-0.07979722
-0.15117398
-0.121255636
-0.07050521
-0.023707237
0.026509618
0.045090716
0.024711002
0.011608772
0.007059881
-0.023564417
-0.06888895
-0.10747929
-0.11411625
-0.04520346
0.05722951
0.11295732
0.11341843
0.06416901
0.019767687
0.026882106
-0.0025711432
-0.07718496
-0.086101376
-0.040576812
-0.007207906
0.00786244
0.011218903
0.016939512
0.020140244
0.0066530136
-0.011376421
-0.031371497
-0.031662375
0.0108244475
0.029668119
-0.0019624732
0.0011339453
0.028610608
0.0074143135
-0.023914477
-0.033634506
-0.038074408
-0.013707988
0.024997434
0.028290708
0.008014672
0.0013601426
0.01395315
0.024812968
0.020620879
0.0135707725
0.011914436
0.015544854
0.02493677
0.024145786
0.0054146247
-0.004889972
0.0032343706
0.004586659
0.0016869805
0.009472482
0.007861793
-0.0014464535
2.4665552E-4
0.0014038397
6.999875E-5
-0.008732001
-0.03558023
-0.0530514
-0.049106788
-0.04227641
-0.03506254
-0.027005337
-0.01966476
-0.0134034855
-0.01379504
-0.016872529
-0.01060157
0.0033358051
0.0101547
0.007747768
0.006401612
0.008337776
0.010124445
0.012106421
0.016402777
0.019081876
0.02020114
0.025876025
0.0304901
0.03464786
0.042371266
0.037650943
0.019403957
0.005491347
-0.0013905299
-0.0017802588
0.007086197
0.015737653
0.0146010425
0.011415128
0.013086028
0.012118034
0.007865006
0.0053745974
0.0016906612
-0.0026527857
-0.00420617
-0.00496025
-0.010679449
-0.023727542
-0.03216642
-0.028522706
-0.026435534
-0.027497131
-0.018911215
-0.01176126
-0.016208835
-0.0115467785
0.0011788522
-0.0074931495
-0.026126703
-0.02431758
-0.01386333
-0.012924337
-0.012809968
-0.005460235
0.0038508133
0.00925448
0.012482131
0.014093458
0.011903668
0.013166441
0.023966393
0.036248017
0.04273295
0.04609778
0.044059735
0.03192818
0.018543568
0.009374543
0.005468466
0.014168617
0.01923818
0.004107314
-0.009325027
-0.010745625
-0.012682605
-0.011723484
-0.0044844295
-0.0010889514
-0.008225197
-0.02021102
-0.029725352
-0.035706937
-0.033029925
-0.023480631
-0.01334188
0.0016543907
0.01014607
0.0028364395
-0.0027135075
-0.0025238374
-0.0039618164
-0.0053253244
-0.0066152485
-0.0077799703
-0.010175397
-0.008015486
0.004456224
0.011359611
0.007168186
0.0057313098
0.0037837692
-0.010633913
-0.032709762
-0.048784547
-0.05091549
-0.03977854
-0.025066797
-0.01505056
-0.00925715
-0.006089473
0.0015803721
0.017249737
0.03303592
0.045178648
0.050029803
0.0532023
0.06437969
0.075492956
0.08195569
0.06943055
0.027710825
-0.006679109
-0.013298993
-0.007905486
-0.0038509713
-0.011819663
-0.021272691
-0.027458617
-0.041493475
-0.049926866
-0.049830534
-0.051217094
-0.048102256
-0.04384797
-0.045002945
-0.053832967
-0.066383936
-0.06452519
-0.046187412
-0.022217587
-8.171422E-4
0.009279534
0.018523956
0.034392267
0.043286346
0.04602407
0.049330406
0.051767558
0.054666825
0.049689945
0.033662636
0.020871028
0.015301458
0.012004021
0.00830375
0.0039540944
0.004565436
0.0070627895
0.0031732896
-0.0042756237
-0.0108526135
-0.013542768
-0.010437808
-0.006754761
-0.00671892
-0.00600368
-0.0028005794
-0.004274662
-0.0087664435
-0.008025812
-0.0050491053
-0.004136851
-0.005842066
-0.008547518
-0.008866956
-0.007258357
-0.004178768
-0.0035759914
-0.0060475706
-0.0063331327
-0.008237803
-0.00964586
-0.0062849205
-0.003855747
-0.0024327969
-0.0018901812
-1.7134931E-4
0.0032379893
0.00152726
-5.9726235E-4
3.0701823E-4
0.0038372558
0.009734533
0.009477209
0.009100506
0.011799394
0.008575008
0.005350603
0.0033626212
0.0016534011
0.0027761462
0.0014665739
0.001712283
0.00351495
0.0018551792
0.0018298733
0.0021063916
6.4275693E-4
-2.6394447E-4
-1.8202735E-7
0.0019206884
0.0020277158
6.047236E-4
4.7791324E-4
-1.3963987E-4
-9.235589E-4
1.7563875E-4
0.0017952564
0.0016230635
0.0010690434
-9.569808E-4
-0.00432902
-0.00261802
6.015489E-4
-1.2462143E-5
-0.001056348
-0.0014507066
-0.0010456921
-6.1541254E-4
8.9798676E-4
0.0021444561
-0.0017189089
-0.002866636
1.8388299E-4
-6.7877036E-4
-8.849802E-4
-4.8309957E-4
-0.0034383405
-0.0043577473
-0.0023638431
-6.56463E-4
0.0018170563
0.005728355
0.006949686
0.004457236
0.0021573608
3.861609E-4
-5.255347E-4
-0.0020507611
-0.0053253057
-0.004585308
-0.0014970575
-0.0016910464
-0.0016787854
3.0317836E-4
3.4593264E-4
-0.0011895141
2.597952E-4
0.002661267
0.0019897565
7.418247E-4
5.515767E-4
0.0014827093
0.0014477673
-9.812791E-4
-0.0010290087
-0.0013948967
-0.0051711327
-0.004793441
-0.0014195814
-5.5887003E-4
2.2788926E-4
6.0303236E-4
-4.4263716E-4
3.2367455E-4
0.00193462
4.6996505E-4
-0.0013905886
1.3071295E-5
0.0012440383
9.4037055E-4
0.0011914031
0.0016699854
0.0026865776
0.0024889829
1.2857122E-4
-6.9773865E-5
7.201073E-4
-4.9741444E-4
3.6023962E-4
0.00274725
0.0025801894
0.0033059295
0.006138888
0.007375632
0.006630871
0.0025625313
-0.003227748
-0.0039504217
-0.0032469158
-0.006597483
-0.0072843945
-0.005110338
-0.0047484995
-0.0030169375
-0.0035427646
-0.006669589
-0.004041627
-0.0012216974
-0.0012209602
9.986814E-4
8.7219116E-4
-2.1467792E-4
6.483676E-4
-0.0016305483
-0.004137857
-0.0028391443
1.01778896E-4
0.0023368225
0.0034895185
0.0058937804
0.0071573085
0.0042035272
0.0014023228
0.001762131
0.004325932
0.007294357
0.008972517
0.009676376
0.0074157454
0.0016980732
-0.001387566
-0.0016829302
-0.0015462686
0.001130983
-1.830597E-5
-0.005068104
-0.004508675
-0.00321
-0.0035803365
-0.0021997197
-0.0017548781
-0.0017389436
-0.0056963125
-0.007368982
-2.6098493E-4
-0.0030305432
-0.010850565
-0.0056697624
-7.4186147E-4
-2.374594E-4
0.0029727346
0.0045361156
0.003325506
5.2644475E-4
-8.1825117E-4
6.6484424E-4
0.0011389147
0.002031229
0.0039344206
0.0045579965
0.0058114403
0.0069827447
0.0057643433
0.004085768
9.434044E-4
-0.0035664132
-0.0032637354
-3.8623164E-4
4.780905E-5
4.479034E-4
3.4489128E-4
-1.2365509E-4
3.9743356E-4
-2.0014995E-4
-0.0011425762
-0.0016660648
-0.0019106602
-0.0015769878
-0.001922754
-0.0021740051
-3.3550672E-4
0.0019232368
5.2393763E-4
-0.0023413054
-0.0029445605
-0.003120025
-0.0023410681
-0.0014289037
-8.410772E-4
6.889849E-4
-4.7192228E-4
-0.0010541595
0.001800839
0.0033636522
0.0021388358
-0.0011334097
-1.8753401E-4
0.0030410627
8.2882785E-4
5.494143E-4
0.0031674353
0.0026977106
7.382963E-4
2.0562146E-4
0.0036377716
0.004917709
0.002600499
0.0019808915
9.219047E-4
0.0017639487
0.001749737
-0.0017426152
-0.0027152968
-0.0043267566
-0.0035574692
4.8458314E-4
-8.196688E-4
-0.001077839
8.7800965E-4
-7.232518E-4
-0.0013545323
-9.83041E-4
-0.0016342225
-0.0016961246
-0.0019903132
-0.004324796
-0.0049436544
-0.0017004396
-0.0022759063
-0.003811663
-8.8559114E-4
-9.930894E-4
-7.7301863E-4
0.0021583647
8.3864556E-4
-8.028147E-5
7.760162E-4
-9.1415114E-4
-0.0016899254
0.0023560831
0.009334953
0.011402908
0.008429555
0.007242857
0.0054266998
0.0024018453
0.0020592797
0.0019104173
6.5064285E-4
2.2286507E-4
7.324245E-4
0.0025401553
0.0050500073
0.003733201
-0.0018687416
-0.00570821
-0.0074604135
-0.008028862
-0.0050243936
-0.0028645247
-0.003993136
-0.0053468957
-0.006566465
-0.0062079174
-0.00504672
-0.004346657
-0.0019322867
-4.2482564E-4
-6.05822E-4
0.0012165955
0.0014747552
-0.0025301399
-0.0025693625
0.0027455739
0.0029094303
7.7938364E-4
0.0035936066
0.0047733407
0.0038124921
0.0030583532
0.0017053992
0.0049439217
0.007563845
0.0036376708
7.968681E-4
2.8154108E-4
-1.9505776E-4
4.906691E-5
-2.1777256E-5
0.0018941791
0.005872346
0.0072713923
0.005230999
0.0026243837
6.646866E-4
-1.6222865E-4
7.2376285E-4
-0.0011891605
-0.0053459695
-0.00520118
-0.004710854
-0.0063389614
-0.005290926
-0.0038044876
-0.0033554556
-0.0017099679
-0.0010080704
-0.0014657887
-7.234714E-4
-3.184747E-4
-9.922556E-6
0.0012773243
0.0013494814
8.8177144E-4
-2.242771E-4
-0.0013475679
-0.0014204549
-0.0028627887
-0.0017470542
1.5832705E-4
-0.0025242323
-0.0023779417
-1.14698974E-4
-0.0012076846
-0.001503582
-7.091129E-4
-0.0012625434
-0.001910319
-1.5496997E-4
0.00228223
0.003311439
0.0050001303
0.0065674507
0.0069931955
0.0041966005
-6.194768E-4
2.6134652E-4
0.00522625
0.00910148
0.009656601
0.008181032
0.008940952
0.008677079
0.0082534915
0.0055883406
-0.0018452659
-0.00606657
-0.011083914
-0.011260443
-0.0045844386
-0.010807717
-0.01562027
-0.008134823
-0.00892738
-0.011724732
-0.0046203556
-0.0012662058
-0.007388554
-0.005672851
0.0015476854
-9.839333E-4
0.0011826272
0.0042712907
-9.066688E-5
0.007003736
0.010461025
-5.646901E-4
-0.005511661
1.6336846E-4
0.006702855
0.0026936294
0.0054908777
0.01579393
0.006867641
0.0057902704
0.012164387
-0.0042718756
-0.009500266
0.0035563563
0.0034867378
-0.0056009325
-0.0065051215
7.421092E-4
0.0023204722
0.004959115
0.008750943
-4.637546E-4
-0.007125483
-0.007864552
-0.00339596
0.005061673
-0.0031614592
-0.0042793616
0.0056659277
-0.0056989826
-0.012315368
-0.0049820924
-0.003127581
0.0027687962
0.005491853
0.0012405624
0.0011342609
-0.002335463
-0.0058704913
7.2345385E-5
3.8911377E-5
-0.0065624607
0.0017998898
0.010814366
0.009185317
0.011441048
0.0030630294
-0.0077554537
0.0013845997
0.0035186855
-0.007074748
-0.0068462244
0.002717143
0.0028179523
-0.0056371763
0.0020060595
0.00471655
-0.014068885
-0.013293689
7.670461E-4
0.0042513353
0.007760682
0.005127349
3.301829E-4
0.001216145
-4.3803884E-4
-0.0012238693
-2.6390553E-4
1.8738107E-4
6.55308E-5
2.298755E-4
0.0036216625
0.004702392
0.0035502103
0.0035328532
8.2878926E-4
-0.0010690519
0.001273164
0.0019098008
-0.0010320363
-0.0027965712
-0.0040832213
-0.005116091
-0.0031871174
-0.0030416667
-0.0033259108
-5.219459E-4
1.894285E-4
0.0010599587
0.00404183
0.0049096136
0.004090633
0.002346941
0.0014035804
0.0011342913
-0.0015681054
-0.0033524542
-0.0027212796
-0.0029104291
-0.002077072
0.0012134481
0.002273394
-3.7144677E-4
-0.0020942916
-9.205773E-4
-6.715237E-5
-6.132762E-4
6.3153595E-4
0.0014651864
3.5178688E-4
0.0012219758
2.3651388E-5
-0.0027687713
-0.0013005451
-3.4146997E-4
3.1857565E-4
0.00183629
5.5017014E-4
4.5729693E-4
0.0016954399
0.0026368974
0.004244549
0.0023813408
9.211932E-5
-1.7856681E-4
-0.0034698867
-0.004764992
-0.0012527015
-1.8096191E-4
-9.2968E-4
-5.5733055E-4
-0.0013682299
-0.0020670178
-6.9214497E-4
6.4017175E-4
0.0012924251
0.002001422
0.0015805861
4.3180553E-4
1.5800438E-4
-1.0541045E-4
-6.4233085E-5
9.996403E-4
0.0012351199
0.0013867056
0.0021498052
0.0017853443
0.00146114
3.466646E-4
-0.002610068
-0.0033278014
-0.0010796537
0.0011274288
0.0013166543
6.6906837E-4
0.0025963334
0.0039689788
4.942327E-4
-0.0036825563
-0.004367161
-0.003185447
-0.002783268
-0.0040292535
-0.00577344
-0.004584047
-0.0013036423
5.199214E-4
0.003301104
0.0063943695
0.006524624
0.004105364
-0.0010088031
-0.0032024055
-0.0017891835
-0.0025701195
-8.67315E-4
7.682028E-4
-5.6309695E-4
0.0020908935
0.0028146557
0.002147961
0.0039188103
-3.977348E-5
-9.6970674E-4
0.0038067847
0.0032138876
0.0027017095
0.0010022587
-0.0024342877
4.0708328E-4
-0.0021877605
-0.010756803
-0.008096321
0.0015637322
0.0046272664
0.0018203753
0.0022420955
0.00460443
0.0018808504
-0.0010096607
-0.0011166491
-0.0015214473
-0.0012355694
-3.1923442E-4
-3.286604E-4
-0.0025139716
-0.003982406
-0.0030416779
-0.00244606
5.3309803E-5
0.0013416467
-5.2308E-4
5.014686E-4
2.466088E-4
-0.0011625647
5.746049E-4
5.721896E-4
-1.816107E-4
-6.5158197E-4
-1.2177336E-4
0.003694251
0.0041892556
0.0013169989
1.5183122E-4
9.583583E-5
0.0018417522
0.00378974
0.0039194967
0.0021979234
-1.1436785E-4
9.2089287E-4
0.003285079
0.002972785
0.001008612
-0.0011419058
-0.0026261883
-0.004318264
-0.0052201133
-0.0035864338
-0.0023939325
-0.0020913288
-0.0015446872
-0.002174143
-0.002212607
-7.523489E-4
-8.7288127E-4
-0.0024567419
-0.0026632433
-0.0011656985
5.069226E-4
0.0010207263
1.4381624E-4
-0.0010937192
-0.0013145244
2.2989513E-4
0.0014428919
8.8910386E-4
0.0013734956
0.0034199809
0.005020271
0.005626889
0.004544074
0.0028121925
0.0016491998
-9.4173214E-4
-0.0044205096
-0.0034322825
0.001749325
0.003776359
0.0028663508
0.0024712933
6.415557E-4
-3.414489E-4
1.1507109E-5
-9.224362E-4
-7.746514E-4
-0.001041265
-0.0023238624
-0.0028196275
-0.0031198547
-3.1668693E-4
7.008578E-4
-0.003320556
-0.0035002022
-0.00231485
-0.0030675884
-0.0013488728
-8.185317E-4
-0.0010474367
0.0015886012
0.0024675275
2.9733544E-4
6.83757E-4
0.003220444
9.39878E-4
-0.0027070157
-0.0015561578
4.7758696E-4
0.0023706313
0.0037406713
0.002215185
-1.33278E-4
-3.3257558E-4
0.002732668
0.0024003638
-0.0018992128
-7.7668874E-4
8.0031564E-4
-0.0016448239
-0.002223329
-9.7595947E-4
0.0013459872
0.0022423454
0.0011625002
0.001550417
2.9288055E-4
-0.0010351111
-1.8466961E-4
-0.0016551535
-0.0027440046
-0.0013824946
-7.716027E-4
-7.1258895E-4
2.316502E-4
0.0025921178
0.003136829
8.5095415E-4
-3.5319963E-6
-6.6699483E-4
-0.0024690127
-0.0033252852
-0.0034101363
-6.834261E-4
0.0026962012
0.0018088764
3.9829517E-4
-1.6421128E-4
-9.03188E-4
1.0458716E-5
3.2995807E-4
7.1769836E-4
0.0011907681
9.3740775E-5
0.0019975142
0.0034334075
9.58527E-4
-1.5853194E-4
-8.061751E-4
-9.4708503E-4
-7.3742616E-4