0.0015253881
5.9102423E-4
1.1909873E-4
0.0013006197
1.6014099E-4
-6.285187E-4
5.0049793E-4
-9.5722225E-4
-0.0011010893
-1.6486966E-6
-0.0012836463
-7.353184E-4
0.0015336146
0.0024843013
7.750797E-4
-4.8399973E-4
0.0017176521
0.0020702905
0.0016344818
0.0011397891
-0.0018562071
-7.3301204E-4
0.0015704471
8.90006E-4
6.4932124E-4
-9.492422E-4
9.5632765E-4
0.0047692875
0.0026727635
0.0013212177
5.242197E-4
-0.0027512382
-0.0034867888
-0.0033133882
-0.0021783367
7.2451716E-5
6.879472E-4
0.0014690261
2.7041693E-4
-0.0018712571
-3.467503E-4
-3.3507246E-4
-0.0027931365
-0.0023879507
-0.0015088686
-0.0022735826
-0.0027082933
-0.0021878053
-3.3690888E-4
0.0010413998
9.707909E-4
6.2756514E-4
-0.0010143397
-0.0017857575
-2.8394215E-4
1.748689E-4
2.7716527E-4
7.9512066E-4
6.0132367E-4
1.1685123E-4
1.3263419E-4
0.0014650779
0.0019488183
0.002673742
0.0044256337
0.003003402
0.0032962789
0.0054893196
0.002757797
5.502885E-4
2.4558537E-4
3.059049E-4
0.0026651395
0.0013285966
-0.0023455948
-0.0031603996
-0.003366676
-0.00288782
-0.0027150328
-0.0025761158
-0.0015011659
-0.0011506024
-2.3908087E-4
-6.951581E-4
-0.0023845676
-0.0028168573
-0.0049054474
-0.005571267
-0.0024343405
3.6995855E-4
0.0019903113
0.0012524176
1.8219862E-4
0.002189275
0.0043374836
0.005201351
0.00395411
2.5793686E-4
-0.0016480807
-0.0011614776
-6.6779536E-4
-6.025877E-4
-0.0013400645
-0.0012062525
8.930419E-4
0.0021740317
0.0022474888
0.0030337374
0.0027784153
-2.5050738E-4
-0.0031603395
-0.0030549117
-0.0010793593
0.0011191544
0.0028209738
0.0017270714
-2.452486E-4
0.0010872252
0.0013555138
-4.0149412E-4
0.0016095478
0.003395004
0.0012991005
-0.0012206607
-0.0034455215
-0.0034675112
-0.0021045646
-0.0021592914
-1.1442535E-4
0.0015479365
-0.0015431138
-0.0033731062
-0.0023671696
-0.0020475686
-4.3153708E-4
7.9799874E-4
-0.0015961925
-0.0024419597
-1.9472765E-4
6.9889415E-5
-4.2556928E-4
0.0010658677
0.0023843872
0.0019383245
0.0012154322
0.0024847563
0.002915946
7.043947E-4
4.577522E-4
7.200706E-4
-7.4198557E-4
-7.0922327E-4
-4.7511174E-4
4.66788E-4
0.0025588153
0.0014189354
-6.1709457E-4
-8.642938E-4
-3.890693E-4
7.311206E-4
1.9204257E-4
2.740879E-4
0.0019343623
-1.5784636E-4
-0.0021703718
-9.4041025E-4
-9.7548513E-4
-6.598759E-4
2.0727962E-4
-0.001112201
-0.00151746
-3.4566244E-4
6.427759E-4
0.0013212465
2.9982199E-5
-0.0011950783
-3.789759E-4
-5.871926E-4
-9.894544E-4
-6.142549E-4
-6.687808E-4
-2.680466E-4
-5.483471E-4
6.489815E-4
0.0037165394
0.0020675675
-3.8404294E-4
1.9809465E-4
-0.0014023451
-0.0015621998
2.4121511E-4
-6.9091975E-4
-3.9462902E-4
8.1329985E-4
6.5728294E-4
0.0014859043
0.0023853655
0.0015852985
-0.0014191504
-0.0028058914
-0.0010101002
-8.314076E-4
-9.0068195E-4
-0.0012060098
-0.002436316
-6.7135616E-4
-7.050581E-4
-0.0021731043
-1.1102536E-4
-5.4052583E-5
-4.2516165E-4
0.001888184
0.0032459793
0.0042794747
0.0032519402
6.162819E-4
3.2896744E-4
9.4031496E-4
0.0015936706
0.0010137636
-4.3512436E-4
-5.3344056E-4
-4.9494277E-4
0.0018160348
0.003133826
-0.0026398436
-0.005118086
9.370384E-4
0.0031482354
9.140527E-4
0.001527305
-0.0013336418
-0.0050150864
2.069018E-4
-6.603592E-6
-0.008292271
-0.005680643
-0.001130436
-0.0042108493
-0.002616482
0.0010950868
0.0015546893
0.0027266182
0.003149747
0.0026465715
0.0024039857
0.0017102188
3.742924E-4
-0.001307498
-0.0011839503
7.713441E-5
4.0705752E-4
3.1618637E-4
7.014286E-4
0.0020860538
0.0025124347
0.0012311722
6.5375067E-4
0.0010957201
0.0016534375
0.0016911642
-2.9614825E-5
-0.0029805158
-0.0026888018
2.8913378E-4
-1.9650548E-4
-0.0012362362
-8.658721E-4
-0.0017111927
3.0287652E-4
0.002265089
0.0012591446
0.0017571982
5.2167365E-4
-0.0011812384
3.8611167E-4
8.872539E-4
-3.2918595E-4
-0.0026482677
-0.0030625474
1.270981E-4
8.73962E-4
2.0192831E-4
1.9176149E-4
-9.978514E-4
-7.795964E-4
-4.4285442E-4
-0.0017386843
-0.0029430015
-0.0035240483
-0.0015027535
6.2000984E-4
-2.3350309E-4
5.4265815E-4
0.0028492555
0.0022135295
0.0010474054
0.0013602419
0.0014789448
0.001672905
0.0011270441
-3.9872457E-4
-5.870592E-4
-2.6016563E-4
-1.4300931E-4
5.750551E-4
0.0015438992
0.0020411955
7.0099474E-4
-1.9920622E-4
2.9395046E-4
-3.501873E-4
-1.1309355E-4
4.1500145E-5
-0.0012473948
-6.259213E-4
-2.3098044E-4
-0.001374206
-0.0017483252
-9.0839475E-4
9.3248335E-4
0.0015400673
0.0021243088
0.0025560493
-0.0011730269
-0.0035427473
-9.1231096E-4
9.875374E-4
1.3029706E-4
-0.0018229983
-0.0019187398
-6.537012E-4
-0.0011400305
-0.0012287042
-9.924136E-4
-0.0017742568
-9.14716E-4
-1.3486888E-4
-0.0010914046
-9.665858E-4
3.018363E-5
5.737975E-4
8.553417E-4
6.2112644E-4
0.0010827438
0.0028886118
0.0038286317
0.0037752695
0.0027081354
3.0366713E-4
0.0011535112
0.0030451363
-4.096294E-4
-0.0031029657
-0.0017466336
-6.710133E-4
7.567757E-4
0.0012876604
6.736579E-4
0.0011534119
5.170725E-4
-0.0011985694
-0.0021261324
-0.0015677536
-7.394207E-4
-0.0021748852
-0.0028991431
-0.0017294985
-0.001328222
-5.8844266E-4
-4.0614867E-4
-5.727713E-4
0.0018248538
0.0033603553
0.0018170535
6.4307585E-4
3.182027E-4
-2.425973E-5
-2.6940322E-4
-0.0013932465
-0.0018596963
-7.3348574E-4
-4.921646E-4
-6.001695E-4
-6.4336543E-4
-0.0016459686
-0.0013336472
0.0015072423
0.0036342621
0.0013434216
-0.0011786545
4.447918E-4
4.714679E-4
-8.13435E-4
7.380439E-4
0.0015227357
0.0010901095
5.5258156E-4
8.5150685E-5
3.3923358E-4
4.5433242E-4
0.001110398
-2.721812E-4
-0.0019631207
-4.938843E-5
-9.151197E-4
-0.0015123605
0.0018368779
0.0017703574
0.0019721764
0.0020266392
-0.0015497768
-3.3265908E-4
0.0014554724
-0.0012122482
-0.0014858935
-0.0014386371
-0.002723097
-0.0017082801
5.564733E-4
0.0022598119
0.0013084506
-0.0014281473
-0.0015394283
2.8514906E-4
7.958231E-4
1.508608E-4
-0.0013713494
-0.0033057427
-0.002389004
-2.3976817E-4
-6.3002383E-4
1.0138084E-4
0.0020876063
0.0020919468
0.0013868179
-0.0012424021
-0.0013724042
0.0040879995
0.0023695088
-0.005195436
-0.0037357633
0.0013866781
0.0010124677
-0.001758609
-0.0034419608
-5.883688E-4
0.0047555524
0.0049454556
0.0023386115
0.0022712739
0.001929383
-4.590632E-5
-0.0019971665
-0.0018045189
0.0011091427
0.0022445016
0.0021595433
0.0027055633
5.8499136E-4
-0.0016562406
-0.0028713013
-0.0035030479
-0.0013185854
-9.157407E-4
-4.6829734E-4
0.0028142552
8.220177E-4
-0.003484313
-0.0035491239
-0.0018115119
2.851511E-4
2.7887637E-4
4.7986192E-5
0.002041649
0.0013830389
1.0030621E-4
0.0016163533
0.0021275382
0.0019427731
0.0018652116
4.132542E-4
-4.2378905E-4
-0.0010936068
-0.0017160117
1.9934277E-4
0.0011466324
0.001300679
0.0027351873
-7.239671E-4
-0.005735351
-0.005966799
-0.0063573024
-0.0073088384
-0.006761323
-0.004642751
-9.820102E-4
4.566225E-4
0.001663957
0.004608501
0.004725753
0.0033757961
0.0035316187
0.004140917
0.0043957112
0.0037576852
0.0032029885
0.0050471695
0.007965335
0.0073261415
0.0036839305
2.8962034E-4
-0.0022300847
-0.0026676166
-0.0022038615
-8.3009107E-4
0.0014494536
-2.015149E-4
-0.003209523
-0.0034403712
-0.0032562783
-0.0040099234
-0.0056967367
-0.0050469832
-0.0035782678
-0.005508833
-0.0062780958
-0.0043313433
-0.001710403
-9.782633E-4
-0.0015630486
0.0015243386
0.001089236
-0.0016326521
0.0030605742
0.005549991
0.0053320266
0.0072380328
0.0052463715
0.0033029842
9.575756E-4
-0.0030800223
-0.0023354238
-1.3950145E-5
0.002231014
0.0035643368
0.0020025563
0.0016864346
0.0013459718
8.171143E-4
0.0021552749
0.0028685569
0.0020068362
-6.442146E-5
-5.160546E-4
-0.0013854654
-0.005493552
-0.006536971
-0.0050017983
-0.0041787485
-0.0020246902
1.8168615E-4
6.414487E-4
-0.0010503078
-0.0012128693
4.69847E-4
-9.873727E-4
-0.0012870664
0.001008306
9.720131E-4
-4.048755E-4
-0.0014807325
-5.462198E-4
0.0016601598
0.0028427672
0.003809429
0.0040094336
0.003757505
0.0028908139
0.0015644155
8.811999E-4
-8.414586E-4
-0.00132082
-0.0011244903
-0.003444561
-0.0030051668
-3.285055E-4
-0.0013670044
-0.0020907796
0.0010305295
0.002629105
0.0021371408
0.0023818002
-0.0013990719
-0.004780817
-0.00114727
8.695253E-5
-0.001561204
-0.0011520473
-0.0013367966
5.606165E-4
0.0018077949
2.6498115E-4
0.0014448545
0.0031621242
0.004193961
0.003478184
-0.0012953922
-0.0041037505
-0.0039281687
-0.004444433
-0.0036801915
-0.001229577
-2.4441825E-4
-5.43445E-4
-6.2662817E-4
-0.0022876002
-0.0019675975
0.00207695
0.0025976836
0.0021499344
0.004478725
0.005084201
0.0041689877
0.002431706
0.0019042705
0.0019253859
-0.001778763
-0.0028803425
-2.6888688E-4
5.0960644E-4
0.0020069873
0.00303793
0.0027819984
0.0030420702
2.5342777E-4
-0.0028872627
-0.0017621532
-0.0011915464
-0.003070408
-0.0028991215
-0.0036209149
-0.0058896984
-0.0021065704
-0.0010887943
-0.00830514
-0.006352948
0.0022596922
0.0030530086
0.0022397165
0.0027515865
0.0010094121
4.5001326E-4
0.0014345215
0.001288223
7.6075335E-4
5.6441803E-4
-4.3492863E-4
1.5568327E-4
0.0021244255
8.636329E-4
7.567551E-4
0.0031199038
0.00197039
0.0014111089
0.0035153823
0.002760064
-2.5056183E-4
-0.0015727483
-0.0014877751
-0.0028218504
-0.0030838943
-0.0013789408
-7.895855E-4
0.0017097113
0.0033989763
6.23713E-4
-1.6261524E-4
5.612052E-4
2.3164299E-4
-7.957761E-5
-0.002527158
-0.004599147
-0.0033154904
-1.3103127E-4
0.0021521663
0.001158283
2.0518234E-4
8.0495694E-4
7.3837367E-4
9.619017E-4
4.7826112E-4
-0.0016885877
-0.0019336097
4.8282606E-4
1.9316292E-4
-0.0025731653
-0.001378438
-2.961713E-4
-0.002839602
-0.0020780494
1.2542121E-4
2.5866847E-4
0.0013725001
0.0010338594
3.2216127E-4
0.0025972028
0.0025593506
7.3432137E-4
0.0015926457
8.276884E-4
-0.0010445067
5.653266E-4
0.0015035635
2.460335E-4
-7.7563594E-4
-0.0012267407
0.0018991481
0.0052988
0.0029050482
-6.8233063E-4
-0.0014634833
-9.1424043E-4
-3.4249123E-4
-0.0011017006
-0.0022035597
-0.0019284114
-4.9302453E-4
6.273566E-4
3.4159975E-4
-2.0301188E-4
-8.180277E-4
-0.002523026
-0.0038027745
-0.0023988227
7.2128355E-4
0.0027740179
0.0025760557
5.5146497E-4
-2.874046E-4
8.9758495E-4
2.5491326E-4
-7.2691677E-4
-2.4525783E-4
-0.0010491255
-0.0014988639
-0.0018003554
-0.0027779043
-7.541225E-4
8.2483824E-4
-7.127469E-4
-3.0580067E-4
0.0022298647
0.004569862
0.004692196
0.0014746538
4.5137615E-5
0.0015816742
0.0012813903
-7.143789E-4
-0.0011404144
-2.6403365E-4
-0.0021949243
-0.0039555556
-6.5111136E-4
4.674427E-4
-8.350412E-4
4.5147963E-4
-0.0013234367
-0.0033288836
-0.0015392092
-0.0012749161
-0.0013969305
-9.908413E-4
-3.8794964E-4
0.0018107215
0.0021636374
-5.0467695E-4
-0.0038719298
-0.0052336445
-0.0055404715
-0.0071135215
-0.0053326422
-3.4375038E-4
0.0040733935
0.0075438763
0.007797103
0.008380372
0.009244522
0.003751967
-0.0022856025
-0.0029221808
-0.0033511727
-0.0051750024
-0.003581803
-0.0010339584
-0.0030348354
-0.003314941
0.0011241641
0.0042549283
0.00551458
0.005220082
0.0037541618
0.004195637
0.007005804
0.008823665
0.005842549
0.0017548561
6.829154E-4
2.5071474E-4
-7.339548E-4
-0.0025460774
-0.00349485
-0.001996649
-5.479865E-4
1.742885E-4
0.0012041726
0.0039063795
0.007406402
0.008071937
0.004976674
-0.0011049348
-0.007141426
-0.01088498
-0.0139410775
-0.01617723
-0.01802938
-0.018550878
-0.014263449
-0.010689524
-0.013597179
-0.017862061
-0.019740408
-0.018374573
-0.011602807
-0.0011334755
0.011597346
0.024652433
0.030751387
0.026096413
0.014432019
0.004490894
0.0030782393
0.008109103
0.014771923
0.01795712
0.014022483
0.0073170494
0.0039109155
0.006202783
0.012928743
0.020092068
0.025789602
0.028246455
0.021835353
0.011339907
0.009686006
0.00545089
-0.006775806
-0.0037689942
0.0023123906
-0.013754883
-0.038250513
-0.053853657
-0.046630256
-0.018816773
0.004319539
0.0111885695
-0.001854957
-0.029893106
-0.05504969
-0.06251692
-0.04354285
-0.013423562
-0.004195527
-0.018910678
-0.016724637
0.019219127
0.050607458
0.06350839
0.062128786
0.04241262
0.0144056445
-0.023898685
-0.041174702
-0.010110794
0.00822486
-0.002154167
0.0036218984
0.022329094
0.047259524
0.0700603
0.060030323
0.030072972
0.018054556
0.009953054
-0.02528224
-0.07646785
-0.11139044
-0.09787433
-0.043102276
0.0010491147
0.007529431
-0.007913066
0.00248544
0.053174876
0.094842546
0.10494231
0.07414298
0.010145142
-0.02498447
-0.021549068
-0.013361911
-0.008186445
-0.012257592
-0.018430931
-0.011567825
0.010191961
0.027850404
0.028594317
0.031111576
0.014989917
-0.035186324
-0.06724353
-0.07865819
-0.10510277
-0.12762874
-0.12251077
-0.10061459
-0.068989724
-0.003241821
0.09257465
0.14914949
0.13574691
0.106283545
0.098691925
0.08516481
0.024987932
-0.07358126
-0.13113798
-0.09778256
-0.015081491
0.0839398
0.14848512
0.13250434
0.11272493
0.10994014
0.06314676
-0.008337679
-0.10486994
-0.21112005
-0.2378968
-0.17199048
-0.07077395
-3.0863527E-4
0.026876112
0.06379269
0.11295717
0.14932258
0.14585787
0.05939574
-0.07649057
-0.17672192
-0.21090071
-0.18383381
-0.076523066
0.07793966
0.18946654
0.24674076
0.24158888
0.17162102
0.11292106
0.047899753
-0.017373394
-0.013093972
-0.05974109
-0.2002188
-0.26802924
-0.21638513
-0.11963562
-0.06821681
-0.07560865
-0.023175793
0.088587515
0.13924669
0.16133624
0.20277512
0.15146676
-0.007987944
-0.13489287
-0.19442557
-0.22816725
-0.221148
-0.14376496
-0.010057839
0.101970755
0.16015811
0.2032526
0.23583516
0.25096914
0.20236059
0.053482678
-0.09289574
-0.15300857
-0.14754128
-0.11840872
-0.11009714
-0.084224164
-0.011459815
0.023971515
0.028716298
0.05622147
0.02706613
-0.08713172
-0.15996103
-0.1046862
-0.0048690946
0.03263498
0.047837794
0.073113695
0.04822584
-0.0053370334
-0.013371735
0.01099947
-0.013735287
-0.09559953
-0.12572971
-0.07666567
-0.007551516
0.0755095
0.14156468
0.16087495
0.14085816
0.054332357
-0.05995247
-0.11269864
-0.09759683
-0.042609006
0.021756947
0.05696951
0.07953726
0.110704064
0.09441291
0.034968656
0.023313688
0.03112808
0.008231134
9.531114E-4
-0.018827062
-0.07706209
-0.11864952
-0.13513741
-0.09522931
0.009004023
0.06361757
0.035082523
-0.003703597
-0.025430214
-0.044806603
-0.089581884
-0.13534981
-0.119063534
-0.06980345
-0.034828313
7.72018E-4
0.027728772
0.046752185
0.07872653
0.10089826
0.11218242
0.10964991
0.05784199
-0.0034891735
-0.017729359
-0.0031816906
0.013627695
0.018264644
0.009687973
0.009233402
0.016408535
0.018520076
0.01765068
0.013112333
0.004643229
-0.0023504412
-0.0043391674
-0.0023267665
-1.6358751E-4
1.2492673E-5
-0.0044373707
-0.007093168
0.0021687075
0.012777413
0.0132776415
0.0069772387
0.0020100323
0.007051125
0.010479694
0.001914974
-0.0077208173
-0.018971223
-0.027258309
-0.023876369
-0.025259867
-0.033424485
-0.034987897
-0.034200627
-0.03672028
-0.039052267
-0.03278394
-0.017261779
-0.0021374733
0.008473863
0.014838286
0.01796974
0.019769982
0.021484688
0.02349006
0.02387205
0.022508573
0.01998919
0.017475568
0.0133977765
0.003264769
-0.0026043972
0.0026627542
0.007134094
0.010724867
0.016129116
0.015791148
0.015759947
0.024173811
0.032171354
0.032380432
0.028730826
0.020512434
0.0067070313
-0.004748785
-0.012945135
-0.018637175
-0.02087237
-0.0227381
-0.018208832
-0.009254506
-0.005898877
-0.003240384
-3.13592E-4
0.0017015311
0.006804152
0.009110898
0.0064555868
0.0051189037
0.009511823
0.019755522
0.025330264
0.015379427
-0.0010755388
-0.0031783313
0.0063807685
0.0069417898
0.004465706
0.013932197
0.025961066
0.03276215
0.040062133
0.045782153
0.041864887
0.03723854
0.03842904
0.017722053
-0.03393908
-0.07972116
-0.10206936
-0.10587923
-0.09159296
-0.07230409
-0.05782663
-0.047048442
-0.04638748
-0.055740893
-0.06577227
-0.071521014
-0.06784385
-0.05287472
-0.036731407
-0.027059717
-0.022713773
-0.02344851
-0.019118065
-0.00481252
0.007999711
0.029890941
0.06465959
0.089064986
0.10335069
0.11314698
0.116903655
0.11498028
0.09867749
0.08191794
0.07954156
0.07787359
0.06816368
0.061220285
0.076082565
0.08407617
0.0491803
0.00435029
-0.037257165
-0.077649355
-0.090830505
-0.08950762
-0.08252351
-0.07275072
-0.07974658
-0.076799415
-0.05951568
-0.05403141
-0.042297494
-0.035011612
-0.05603339
-0.07481206
-0.07726621
-0.07207092
-0.053906567
-0.035500705
-0.029656867
-0.024394311
-0.014755116
-0.004108031
0.01115616
0.031291142
0.043692272
0.041473605
0.040400434
0.043142207
0.0361333
0.028436396
0.028953563
0.033161562
0.037991874
0.038000006
0.038377568
0.045608036
0.05240155
0.04974588
0.03824649
0.03310827
0.033790536
0.029379636
0.028979514
0.029156122
0.022838853
0.0195641
0.015498389
0.0049430137
-0.008249837
-0.020874463
-0.029421167
-0.03462835
-0.040595748
-0.047802962
-0.047834504
-0.04133485
-0.03985566
-0.038088955
-0.030587537
-0.022229757
-0.016223501
-0.016863307
-0.017875753
-0.01495947
-0.013686115
-0.012236485
-0.0092007825
-0.0030577474
0.0018268698
-6.342239E-4
0.0011786737
0.0074252603
0.009364646
0.012466578
0.01584196
0.016940637
0.017840998
0.017270232
0.014643581
0.010538849
0.009117491
0.008715757
0.007531832
0.012120882
0.016782759
0.017016945
0.017200502
0.012817807
0.004923803
7.453466E-4
0.0029266141
0.008240193
0.009052105
0.009190253
0.011531931
0.010697266
0.011605507
0.013980703
0.010616203
0.0059458013
0.0056027835
0.0077126063
0.006255398
0.0018516585
3.7494296E-4
-0.0024148645
-0.006227725
-0.0033423773
7.1333797E-4
-1.7067467E-4
-0.0024312115
-0.0036120133
-0.0034757857
-0.0024983347
-6.4631156E-4
2.0246705E-4
-0.0025866488
-0.004163655
-0.002272632
-0.0016874875
-0.0011474034
4.5388567E-4
4.0031804E-4
2.6020437E-4
7.653489E-4
0.0015553025
0.0031873705
0.0033732713
0.0013802017
-2.4029665E-4
-1.693497E-4
2.9715116E-4
9.998328E-4
0.0024318432
0.0015475515
-9.567411E-4
-0.0014164367
-0.0021485062
-0.0037817066
-0.0038682702
-0.0037437642
-0.003759419
-0.0026473496
-0.002573692
-0.0041048573
-0.0036371397
-0.001914302
-9.4856304E-4
4.3302606E-4
7.789322E-4
8.6642953E-4
0.0012610367
1.5718755E-4
5.630938E-4
-3.3611854E-4
-0.003921143
-0.0020003936
0.0020478154
0.0019785932
0.001197706
0.0014913527
0.0022663495
6.693346E-4
-0.0013371144
6.4050365E-4
3.014295E-4
-0.0021878493
-1.3508373E-4
0.0013277279
-1.815404E-4
-4.8399123E-4
-5.750395E-4
-0.001979736
-0.0035933503
-0.0030492176
-0.0011524841
-0.0013821
-0.0016328946
-6.4932473E-4
1.505328E-5
0.0017410035
0.0013208387
-0.0018204603
-8.4732205E-4
0.0023146952
0.0026009926
0.0012335355
1.6748671E-4
4.1770155E-4
-3.409009E-4
-0.002325573
-0.002008396
-0.0010137144
-5.9798727E-4
6.109134E-4
5.7958014E-4
-4.8151793E-4
9.501892E-5
1.5248403E-4
-7.0327905E-4
7.165879E-4
1.8703194E-4
-0.0033525191
-0.0026733524
3.8274296E-4
0.001753168
0.002259504
0.0017578338
0.0021383818
0.0014701367
-0.0020003538
-0.0043253764
-0.0043905647
-0.0013589725
0.0013007964
-2.611178E-4
-7.0655986E-4
-1.8164962E-4
-0.0015851134
-0.002570662
-0.0032396687
-0.0037325297
-0.0036825137
-0.0016179173
0.0012840845
3.6887427E-6
-0.0014638061
-5.3185935E-4
-0.0013739871
-0.0016009653
-2.1076121E-4
0.0015824572
0.0047439765
0.006396488
0.005057395
0.003285218
0.0027870296
0.0018394501
-1.11679066E-4
-1.5881659E-4
-2.4804752E-4
-5.5508356E-4
0.0018361011
0.0031655934
0.0024303424
3.1091203E-4
-0.0023843665
-0.002186383
-0.0045278673
-0.007999458
-0.0044678883
-0.002025893
-0.0034979226
-0.0021497114
-8.6266914E-4
-0.0010418886
5.2666845E-4
0.0011007736
-0.004499998
-0.009333987
-0.003572348
0.003833907
0.004058819
0.0018707307
0.001015592
0.0020669505
0.0024396433
0.0011883022
7.414779E-4
8.101828E-4
0.0018214827
0.0034935705
0.0048504435
0.003791104
-7.0219924E-4
-0.0013932703
4.8739195E-4
-0.0017003169
-0.0026192022
-0.0016975828
-0.0020215646
-9.0428244E-4
3.136274E-4
6.807286E-4
8.0598734E-4
-0.0020641733
-0.005803721
-0.0038578408
0.0011574671
0.0023226072
0.0014792881
3.46266E-4
-8.8133663E-4
-7.988364E-4
-0.0021882076
-0.002073156
4.7408327E-4
-3.2465864E-4
-5.578924E-4
9.1224763E-4
0.0013840885
0.0022189796
7.1189424E-4
-3.0536365E-4
4.8851495E-4
-5.428188E-4
-9.017173E-5
1.11065376E-4
-1.787008E-4
6.180386E-4
-0.0023063917
-0.0029141551
4.5425768E-4
9.450014E-5
-2.1249817E-4
0.0012112604
0.0022378645
0.0028773816
6.6302123E-4
-0.0012526744
-8.29306E-4
-7.1336445E-4
-1.52435505E-5
5.556947E-4
-4.4786494E-4
-0.0014687504
-0.0017061158
-0.0016188391
-3.9135246E-4
0.0018016843
0.0017679824
2.549765E-4
3.6646996E-4
3.2428192E-4
-0.0011179354
-0.0018955931
-0.001358011
-0.0010123113
-0.0014192216
-0.0014766197
-3.3839836E-4
8.608366E-4
3.299853E-4
2.0369077E-4
6.2129676E-4
-0.0011457425
-0.0010881803
0.0015866252
0.0025816185
0.0019430533
-6.076316E-5
1.4749475E-4
0.0027545742
0.0011407624
-0.0019787108
-0.0022617162
-0.00137995
-4.9393665E-4
-0.0015056116
-0.0028469202
-0.0010507064
0.0028203481
0.005468845
0.0048562004
0.0024176554
6.817068E-4
3.266874E-4
-9.718667E-4
-0.0034008755
-0.0031883102
-0.0022950235
-0.0017905157
0.001053092
0.0020622262
-3.7373317E-4
-0.0021779968
-0.0023247777
-0.0014382811
-0.0017687659
-0.0039600176
-0.0040818607
-9.287737E-4
0.0010332556
0.0013178039
0.0034035903
0.0034464295
-5.903265E-4
-0.0030364865
-0.0028352365
-0.0014197885
-1.2479385E-5
1.7841176E-4
0.001585059
0.0035934907
0.0038397515
0.0039165705
0.0043693176
0.004233837
0.0033746583
0.0023778605
0.0015619474
-2.1494151E-4
-0.002976127
-0.004376365
-0.003305891
-0.0021829356
-0.0018942805
-6.5505406E-4
-2.9864792E-5
-9.878257E-4
-0.0011132205
-5.0652865E-4
-5.5878755E-4
-7.9509476E-4
-9.896558E-4
-0.0015666016
-0.0012234187
-2.3997379E-4
-0.0010367439
-9.904134E-4
0.0011996982
8.922171E-4
-0.0012749315
-0.0012391112
5.3520617E-4
0.0011097657
-9.5500494E-5
3.8306188E-4
0.0017752238
6.57665E-4
-2.0194138E-4
-3.0524688E-4
-0.0012060036
-0.001609712
-0.002030036
-5.8602646E-4
0.0013258118
-6.297944E-4
-0.0012914002
4.3408494E-4
0.0013089353
0.003256805
0.0037312068
0.0031569693
0.003221721
0.0020421892
0.0030222617
0.002969701
-1.393616E-4
-5.0643703E-4
-5.115085E-4
-2.585788E-4
6.044984E-4
-5.6890334E-4
-0.0013201347
-0.0029026226
-0.002924857
-8.5449213E-4
-0.001698525
-0.0018799093
-0.0027333344
-0.0017846053
0.0017745268
-0.005628381
-0.010962702
-0.0016831702
0.0027870948
6.3492265E-4
0.0010249265
0.0011196734
0.0011835009
0.001100651
5.942566E-4
9.583751E-4
0.0010595273
8.63039E-4
0.0015563555
0.0021449213
0.0013899938
0.0024331505
0.004028708
0.0022347302
6.328497E-4
5.7338526E-5
-0.0013033054
-0.003469636
-0.0043059913
-1.725906E-4
0.0026951884
0.0021043667
0.0034446502
0.0029101137
7.0693705E-4
-9.432203E-4
-0.003724678
-0.0034711221
-0.0014611164
-0.0016665625
-0.0012844389
1.4582045E-5
3.986048E-5
-2.150142E-5
9.020722E-4
2.172923E-5
-8.137066E-4
6.3670793E-4
-2.2715228E-4
-9.6249854E-4
-5.3219043E-4
-0.002102556
-4.3737824E-4
0.0013361538
2.3819499E-4
0.002339324
0.0023286168
-5.443974E-4
-1.4207388E-4
-9.433464E-5
8.5175585E-4
0.0033872337
0.00261815
0.002580677
0.0023360592
-0.0039629326
-0.0076640965
-0.0033696343
1.1448131E-4
4.634127E-5
-5.2212307E-4
-9.296163E-4
1.7111632E-4
5.1080034E-4
-0.0014864114
-0.0018373819
-0.0013666693
-0.0018541953
-0.0010275671
-9.556181E-4
-0.002183755
-8.0251665E-4
0.0018454151
0.0026879192
0.00214792
0.0018651382
0.0034644117
0.005121443
0.0040234206
0.0026338222
0.0018411493
-6.0612516E-4
-0.0016143166
-4.510796E-4
5.184305E-4
0.0028891284
0.0031747886
2.592694E-5
-0.0015671642
-0.0025830108
-0.0023840892
-0.0011820156
-0.0014915935
-9.686014E-5
-1.11102054E-4
-0.0018453675
-7.0647337E-4
-0.0015433136
-0.002106709
1.19162825E-4
-0.0010624703
-0.0026417181
-0.0016022805
-3.2533435E-4
-6.0321945E-5
-0.0017597943
-0.0026814844
-0.00202864
-0.0015282753
-0.001072662
-0.0014498436
-0.0014469414
5.8251264E-4
0.0024327254
0.0020944928
0.0018114609
0.0020207772
7.3049974E-4
0.0011907414
0.0017920838
-0.001113687
-0.0010696696
0.002059807
0.0032646062
0.0046113883
0.00662
0.0074009434
0.0056838193
0.0017143639
-0.002033248
-0.0027454507
-9.073656E-4
-8.676573E-4
-6.0661667E-4
4.7746664E-4
-0.001571457
-0.0014877425
-3.7082718E-4
-0.0024777858
-0.002777825
-0.0034203553
-0.0043691783
-0.0030674369
-0.0029565548
-0.0014780062
-5.564067E-4
-0.0020342804
-0.001835902
-0.0024185814
-0.0011802166
0.0013559405
-5.841709E-4
-0.001376902
-0.0012827157
-0.002096944
-1.9696358E-4
-3.4656745E-4
-3.3659211E-4
0.0033847846
0.004203481
0.003207772
0.003541691
0.003775302
0.0032461204
0.0010994368
7.2143506E-4
0.0035127385
0.0039112717
9.022673E-4
-3.9508537E-4
4.808793E-4
3.3536373E-4
9.815295E-4
0.0016528588
4.4238838E-4
0.0018618644
0.002341583
-0.0022423472
-0.0046104006
-0.0037850188
-0.004112192
-0.004714201
-0.0032277605
-5.593973E-4
-6.0549206E-5
-2.5723115E-4
-2.3070478E-4
-9.183136E-4
-3.5777962E-4
-0.0014318981
-0.0035540522
-0.002888499
-0.0024194522
-8.323645E-4
0.0018490527
0.0025748422
0.003296561
0.002511974
0.0036877966
0.0073030326
0.0016329807
-0.006351928
-0.0043642833
-0.0013772193
-6.637884E-4
0.0022656298
0.003263007
0.0019984941
0.0022211862
0.0018670603
-7.761719E-4
-0.0025358524
-0.0011790248
0.0015139594
0.0034862694
0.003197757
2.6417596E-4
-0.0015897879
-9.491293E-4
-0.0017093794
-0.00408722
-0.0035806717
7.648537E-4
0.0028623317
-1.43563E-4
-0.0027372635
-0.0031682237
-0.0026502188
-0.0012596821
-8.1087375E-4
2.7297062E-4
0.0014615512
9.682081E-4
0.0015372618
0.0010449694
3.3493305E-4
0.0018233479
9.499795E-4
4.2231852E-4
0.0011804558
-3.5586098E-4
1.8077636E-4
0.0013881407
-2.2564363E-4
-0.0010925846
5.823725E-4
0.0020099978
-8.704433E-5
-1.9349472E-4
0.0023112844
5.250246E-4
-5.8357057E-4
-0.0013238399
-0.0039067795
-0.0019796554
-8.207589E-4
-0.0012508698
3.0628886E-4
-9.3195145E-4
-2.228656E-4
0.00220135
0.0011348646
9.714937E-4
5.54748E-4
3.1089556E-4
9.471465E-4
-7.240897E-4
-4.6089405E-4
-0.0012073402
-0.0036992165
-6.109305E-5
0.0018635296
-0.0010939579
1.1739808E-5
0.0014126803
4.414439E-4
5.744622E-4
-3.6124742E-4
-6.81033E-4
0.0014760453
0.0019333432
0.0011719676
0.0010181598
8.4659207E-4
0.0013799428
2.8404692E-4
-0.0017035635
-8.229746E-4
-3.774253E-4
-0.0010817462
-6.208846E-4
-1.6473963E-4
2.5458355E-4
-2.0037844E-6
7.7731954E-4
0.0023984523
2.9455373E-4
-0.0015329282
-8.2460255E-4
-0.001606747
-0.0017163283
-6.163677E-4
-9.3682494E-4
-5.817131E-4
0.001951564
0.0035309484
0.0031849865
0.0028576339
0.0010452181
-0.0016592459
-0.002956877
-0.0039373008
-0.0032629224
-0.0015725179
-9.897647E-4
-2.7028238E-4
-4.993055E-4
-9.961452E-4
-0.0010117901
-0.0021190546
-0.0014805949
6.36999E-4
0.0011727881
0.0021267682