0.0023607265
0.0014658425
0.0011324802
1.5867752E-4
-5.768956E-4
0.0016826544
0.0028266609
0.0014992068
0.0022543657
0.0021961674
2.9921852E-4
2.6887917E-4
-0.0013913424
-0.0036626034
-9.55443E-4
0.0017630862
1.0869502E-4
-9.258993E-4
8.7819056E-4
0.0018959543
0.0016778694
0.003197648
0.0040907864
0.0015553021
-6.212438E-4
-0.0022212556
-0.0050749197
-0.005536376
-0.0035546185
-0.0025142566
-0.002953716
-0.0034906317
-0.0018895359
3.2305747E-4
0.0010797236
0.0010838292
-1.4991243E-4
-3.5291194E-4
5.6733645E-4
-0.0013868653
-0.0017259197
0.0020253938
0.0027622166
0.0013452697
0.0011307126
1.3530739E-4
0.0017257956
0.0041247727
0.0027936897
0.003169953
0.0032633164
0.0011455029
0.0022633378
0.001792414
-6.063445E-4
-0.001145836
-0.0029860132
-0.004399798
-0.0049620387
-0.003718724
-5.7072466E-4
-6.3774124E-4
1.17935866E-4
7.2968524E-4
-0.0027712048
-0.002291876
0.0014214324
0.0019684446
7.49461E-4
0.0014143225
0.0030481801
7.688182E-4
-8.47908E-4
2.4484252E-4
-7.7067764E-4
-1.707644E-4
5.433356E-4
-5.020179E-4
4.2849008E-4
-3.1834352E-4
-9.891522E-4
9.4854727E-4
2.3827545E-4
-0.0019020719
-0.001477349
7.9222035E-4
0.0014689415
8.69949E-4
0.0015855395
0.0011282548
-5.619783E-4
-0.0023685843
-0.003447925
-0.0012251475
1.9548691E-4
2.3855705E-7
9.033986E-4
0.0011789888
0.0028404312
0.0031516862
7.504954E-4
0.001716409
6.797171E-4
-0.003385813
-0.00282803
-0.0011197779
5.2669214E-4
0.0028991092
0.002149105
-5.3276937E-5
-0.0021236297
-0.0016862659
0.001101295
-3.723488E-4
-0.0019615935
-6.138574E-4
-0.0025832455
-0.0035086551
3.66139E-4
0.003814016
0.0053109247
0.004969131
0.0029922237
-5.7583242E-5
-0.0031569146
-0.00475103
-0.0057577547
-0.004423952
-8.2439475E-4
4.102333E-4
8.022018E-4
0.0017824274
0.0022392208
0.003344131
0.0026941136
1.4611318E-4
-0.0011482078
-0.0011870555
-1.0097242E-4
4.923067E-4
4.6210672E-4
0.0013217626
-3.013554E-5
-0.0023692294
-0.0019677419
-0.0015759249
-9.32656E-4
0.0013733417
0.0016564478
0.0016340489
0.00432329
0.0038396525
-6.276529E-4
-0.0021025394
-0.0016085394
-0.0021634325
-0.002206726
-0.0017973719
-7.660837E-4
-8.740398E-4
-0.0015320173
7.3095935E-4
-2.4302064E-5
-0.0031280583
-8.3838555E-4
0.0013517935
0.001537014
0.0022911036
0.001859477
0.0029216707
0.0034518884
0.0020217027
6.397293E-4
-0.0018140881
-5.636126E-4
0.0014440957
-9.880271E-4
-0.0010661803
-6.823911E-5
-4.7240796E-4
3.3937732E-4
3.0015182E-4
-0.0011220422
-0.0022356312
-3.416492E-5
0.0018831146
2.0964463E-4
-3.0191746E-4
-0.0028761977
-0.0031451846
0.0018350724
-0.0023131473
-0.007765556
-0.0033671283
6.8632787E-4
0.00277435
0.0027289537
4.3845642E-4
0.0017098003
0.0025490446
0.0010982379
0.0020548475
0.0025730983
2.7474537E-4
-6.226384E-4
-2.0868437E-4
-2.2845657E-4
0.0014224192
0.0010938277
-0.0014169639
-3.8305094E-4
4.8009428E-4
0.0010342047
0.0036472746
0.0020547567
-0.0012671379
-2.6574254E-4
0.001000871
-3.2741527E-4
-0.0018458568
-0.002960859
-0.003926986
-0.0030687447
-0.00223206
-0.0020328364
3.3967366E-4
0.0013604678
0.0012891006
0.002891119
0.0010030745
-0.0013856085
8.698619E-4
0.0020809982
0.0011036282
6.864523E-4
-8.4224384E-4
-0.003176214
-0.002940742
5.4054868E-5
0.0027022478
0.0045574186
0.0047111963
0.002363957
5.054876E-4
-0.0023964597
-0.0052641355
-0.003610744
-0.0027992357
-0.0029692466
-4.2016996E-5
0.0011435052
0.0013022437
0.002094227
7.1890146E-4
-7.705808E-4
-0.0023679172
-0.0029678992
6.492267E-4
0.0036451335
0.0031519448
0.0034477925
0.0053172074
0.004876695
0.0017749774
-6.04912E-4
-0.0020742211
-0.0036041772
-0.0038794747
-0.0020603344
-5.8776385E-4
-9.0912246E-4
-4.3491586E-4
-6.758342E-4
-0.002010912
-0.0011823872
-0.0011278612
-0.0010806471
4.4541823E-4
-7.4290286E-4
-0.0018995666
-0.0011259619
-2.9243316E-4
0.001153304
0.0016508756
0.0011452925
-1.4480141E-4
-7.143836E-4
9.925829E-4
8.039298E-4
8.6550094E-4
0.003016204
0.0028404684
0.0031599212
0.0027599602
-5.8770087E-4
-5.818498E-4
-3.2827375E-5
-0.0019359129
-0.0020229334
-0.002417615
-0.0019002587
2.0334574E-4
-0.0018713215
-0.0019510395
0.0031405683
0.004255432
0.0025723008
0.001417109
1.8122843E-4
2.3689707E-4
-0.0015945219
-0.0031240415
-0.0019179118
-0.0031377834
-0.002817342
0.0012446895
0.0028662595
0.0020055915
-6.9372916E-5
-0.0020736055
-0.0024359592
-0.0018058902
2.7663537E-4
0.0015180996
0.0010092177
5.738427E-4
-0.001277382
-0.0019628902
5.6323793E-4
0.0021027254
0.0027772116
0.0024766165
-4.8672382E-4
-0.0021014388
-0.0014635553
-1.4620512E-4
0.0013810891
3.3968955E-4
-1.6110168E-4
0.001509853
9.820334E-4
0.001442131
0.002071831
-0.0012800854
-0.0023835143
-0.0015655012
-0.002965883
-0.002532435
-4.986917E-4
2.7342336E-4
3.8888637E-4
7.938772E-4
0.0016018157
0.001994884
0.002597109
0.0022275173
5.2123965E-4
0.0014644372
0.0023358741
-3.8528978E-4
-0.0017218346
-0.0014124312
-0.002261582
-0.0014656829
-4.4633885E-5
-9.210131E-4
-0.0017872988
-0.0021501353
-0.0023662494
-0.0010426659
7.714415E-4
0.0016477782
7.3278835E-4
3.9803155E-5
0.0010043592
-6.34699E-5
-3.447435E-4
0.0012415576
-9.676816E-4
-0.0010525846
0.002427056
0.0015836598
1.9131767E-4
8.7320904E-4
0.0010038974
0.001249774
6.143206E-4
-3.1566375E-4
-4.9791194E-4
5.4172747E-4
0.0031268862
0.003527641
0.0012313732
-0.002809362
-0.00670866
-0.003325435
-2.0341965E-4
-0.0066939155
-0.0071347556
0.0010834993
0.0018728042
7.409127E-4
0.0027246205
0.0012089226
8.257721E-4
0.0010731849
-4.5516613E-4
0.002146449
0.0040398017
0.0020545432
6.0018426E-4
-7.6955376E-4
5.2923E-4
0.0023225427
3.8591423E-4
0.0011156081
0.0026707258
7.3621055E-4
0.0019896037
0.003435178
-7.097231E-4
-0.0034529276
-0.0027292666
-0.0031776247
-0.004120359
-0.0036375406
-0.0020174875
-9.0150017E-4
-7.9710834E-4
-7.639858E-4
-0.0010125252
-5.3707074E-4
-6.264871E-4
-0.0019247202
8.8423496E-4
0.004672517
0.0036575177
0.0024380998
0.0016917074
2.9536819E-5
-2.4602216E-4
-5.4618973E-5
0.0010172055
0.0015133141
-8.393232E-4
-0.0013181695
0.001218699
0.0024219977
7.310231E-5
-0.003027585
-0.0021897578
-0.0010726983
-0.0021791297
-0.0013897076
-7.0937426E-4
-0.00157238
-0.0013841236
1.4277673E-4
0.0018292163
0.001276317
0.0012065242
0.0027174498
0.0012393757
6.8951794E-4
0.0025367807
0.0017216332
6.748408E-4
8.7492785E-4
0.001067586
9.699805E-4
-2.4662827E-4
-7.5251656E-4
-0.0015680797
-0.0026440793
-0.001748694
-0.002662722
-0.0043977182
-0.0033949823
-0.0020383464
-6.0292E-4
7.240763E-4
0.0013285128
0.002046122
0.0016256548
-5.41616E-4
-0.003142963
-0.0025431088
0.0012679491
0.0032693364
0.0035232238
0.0033528327
0.0031054434
0.0032008246
0.0018502438
0.0012760245
0.0015195452
-9.644562E-6
-3.361319E-4
-2.0352282E-4
-0.0014859221
-0.0024149565
-0.0026901634
-0.001975041
-0.0017190366
-0.0018453848
-0.0010773533
-0.0013254639
-0.0013920127
1.6164279E-4
9.397714E-4
-9.4200077E-4
-0.0024924027
-8.3927775E-4
-3.8059114E-4
-5.2173884E-4
0.0011313248
3.0852747E-4
-7.7543846E-5
0.002148556
0.0032108298
0.0029934174
0.0018099871
0.0010497503
5.131705E-4
3.7866317E-5
2.3518404E-4
-0.001050781
-6.7388656E-4
5.6564104E-4
1.2150926E-4
0.0019474097
0.0020668597
3.9481785E-4
9.6979743E-4
5.4909266E-4
3.517725E-4
-8.7814825E-4
-0.0031279272
-0.0023350255
-0.0029016037
-0.0038075098
-0.0019679996
-8.047495E-4
3.5942434E-5
3.2921284E-4
1.4034483E-4
5.5963E-4
-3.303637E-4
-0.0013619347
-4.8978766E-4
5.255798E-4
5.2057294E-4
0.0010387457
0.001147418
6.1301823E-4
0.0024072188
0.003396439
0.0012455478
-6.956831E-4
-0.0010617656
5.551352E-4
0.0016988743
0.0012844523
0.0014057711
0.0011031416
9.3114E-4
-1.7099676E-4
-0.003483046
-0.0041558174
-0.0013650303
1.5930945E-4
-7.5042946E-4
-5.188605E-4
6.837999E-4
-1.4722632E-4
-0.0017712798
-0.0041305274
-0.0045503783
-0.0012378204
6.011482E-4
0.0028893466
0.0050336593
0.002883843
0.0027448956
0.0034712327
8.498528E-4
-0.001239861
-0.0030126097
-0.0020423047
0.0018142319
0.001845547
0.001048861
0.0013023244
-5.694567E-4
6.377714E-5
0.0024409941
0.0016484045
4.828392E-4
-6.4059E-4
-8.3601463E-4
3.9284673E-4
-0.0015237285
-0.0011289348
0.0014438877
-0.004120553
-0.008016818
-0.0034889348
-0.0024263049
-0.0033232225
-9.180043E-5
0.0027019854
0.0024358178
0.0010096774
0.001604248
0.0023570487
-2.960167E-4
-0.0023449725
-7.3396263E-4
0.0017461632
0.0030897711
0.0038454502
0.0033870446
0.0012997024
6.727258E-4
7.0269674E-4
-6.3359214E-4
-7.6537475E-4
-4.489664E-4
-2.3352349E-4
6.6558295E-4
5.883691E-4
0.0012499812
0.0015570481
-0.0015625146
-0.0035209595
-0.0012245527
9.5009006E-4
4.8726244E-4
0.0010397227
0.0015066867
-0.0016628925
-0.0028282427
-0.0012563929
-0.0014506502
-0.0014806757
-0.0015791432
-0.0016088795
-1.9918177E-4
7.321759E-4
0.0012163637
0.0012848082
8.0400996E-4
-1.4618416E-4
-9.5416745E-4
-5.674345E-4
-4.7443272E-4
1.6238069E-4
-7.3036435E-4
-0.003567395
-0.0012681575
0.0012490957
-9.6200244E-4
-0.0013238698
8.0408546E-4
0.0037208581
0.005310544
0.0044006696
0.0031397499
0.0012104763
9.955808E-4
0.0012985968
-6.789376E-4
-0.0015432164
-0.0031275195
-0.005387541
-0.0043361904
-0.0017942004
4.7137385E-4
0.0012470766
0.001057875
0.0020033943
0.0018871732
-2.7330767E-4
-1.443414E-4
0.001715235
1.5716188E-4
-3.5876222E-4
0.0014830466
3.053787E-4
7.7982456E-4
0.0019055887
-5.382967E-4
-0.0016421218
-0.0010101715
-6.514241E-4
-0.0029564074
-0.004180591
3.5204043E-4
0.0010343312
-0.0019485356
-0.0018699726
-4.3428136E-4
0.0028066046
0.0028909063
0.001077645
0.0031778575
0.0033332796
0.003174388
0.00496127
0.0036884025
0.0010349714
-7.9993525E-4
-0.0022593546
-0.0038849874
-0.0040163514
-0.0025302523
-0.0035973615
-0.0051754354
-0.0046172845
-0.0042494433
-0.004666394
-0.002836236
0.0012812132
9.0767123E-4
-4.2668157E-4
0.0021611964
9.801277E-4
-0.0010289188
6.192678E-4
0.0017467074
0.0037038503
0.005444228
0.006191929
0.006374893
0.0045371633
0.004780015
0.0067751864
0.008392249
0.008703334
0.0030749727
-0.0042717145
-0.0086634625
-0.010691816
-0.008173062
-0.0065394645
-0.009590468
-0.010613775
-0.009232714
-0.008138707
-0.004283675
2.1836917E-4
3.1510767E-4
2.5637526E-4
0.003054766
0.0044632237
0.0051475656
0.006862369
0.008913008
0.012417756
0.0141680185
0.009501622
0.001902483
-0.0020672774
-0.0039407285
-0.0058494383
-0.0034083766
-3.535332E-4
-0.0010518965
-0.0012537879
-0.003480727
-0.0069712834
-0.0054551777
-0.0036116967
-0.0048459363
-0.004847825
-0.0027238252
-0.0022994478
-0.0036056535
-0.003312685
-0.0028097178
-9.56583E-4
0.0024485246
0.003966961
0.0061738524
0.006449325
0.0036491938
0.0022025723
-4.997036E-4
1.3151822E-4
0.0044349167
0.0024382507
-0.0022513943
-0.0038532831
-0.0024754493
-0.0021892814
-0.006003582
-0.006158843
-0.003030381
-0.0016605252
-1.6423904E-4
3.9320128E-4
7.6775294E-4
0.0010590083
5.5071135E-4
-5.8682763E-4
-1.6672E-4
0.00642618
0.0042623254
-0.007398336
-0.0026436136
0.007446514
0.0080946395
0.011960065
0.015357461
0.017666465
0.023193909
0.022517221
0.016876645
0.009155753
-0.0017571056
-0.009744896
-0.012612816
-0.010064459
-0.0051586214
-0.005100074
-0.007876098
-0.0114448285
-0.018148763
-0.02413828
-0.021981075
-0.011962369
-0.008004631
-0.012898052
-0.01106035
-0.0038013633
-0.0027973813
-0.0069678053
-0.010622719
-0.01038767
-0.010070149
-0.012175967
-0.013256721
-0.010766967
7.020307E-4
0.017701758
0.025615696
0.014504676
-0.0045585046
-0.0037864621
0.014395007
0.031807546
0.04373581
0.037691616
0.023354298
0.01948095
0.01824713
0.02448069
0.03681129
0.031957142
0.012282548
-0.0068535213
-0.01912756
-0.013848398
6.313818E-4
0.0019640264
0.004115924
0.012302364
0.0033816004
-0.014938762
-0.038890786
-0.051557574
-0.025412312
-0.01728154
-0.049170148
-0.058095776
-0.04852339
-0.055522084
-0.06421195
-0.053208154
-0.029271582
-0.0109267635
-0.00850512
-0.016407128
0.0030333768
0.04596897
0.06455543
0.07017192
0.073362455
0.063279584
0.057641685
0.061230056
0.061289012
0.03891541
0.013580172
0.011784054
0.0051321615
0.009398014
0.03273079
0.031623095
0.025164206
0.024113163
0.010988812
-0.013077732
-0.0587012
-0.09651762
-0.09684962
-0.073808685
-0.038088173
-0.017182542
-0.018015604
-0.027842402
-0.05478289
-0.06086756
-0.023630796
0.0051568556
0.017012121
0.027310524
0.018736223
0.0074611157
0.006827536
0.0054900725
0.010232754
0.00625658
-0.011970289
-0.01821699
0.0054439683
0.07323001
0.13787198
0.14316063
0.12346709
0.0965092
0.035687733
-0.05793751
-0.13582331
-0.13212912
-0.093278065
-0.118416436
-0.16432974
-0.13796952
-0.040242996
0.06877477
0.13402793
0.17708433
0.21248713
0.13780281
-0.028929759
-0.10824315
-0.104919426
-0.1204385
-0.112181485
-0.049476337
0.022898227
0.07440249
0.104828976
0.113986135
0.06098114
-0.0055724354
0.028672803
0.105021045
0.1329761
0.10892228
0.010252888
-0.09018637
-0.13539898
-0.18119566
-0.17704682
-0.11820012
-0.08250412
-0.054776773
-0.055351254
-0.04701243
0.032256365
0.10773913
0.1713303
0.20203938
0.14288586
0.05279212
-0.052356426
-0.14650661
-0.18842275
-0.20298919
-0.13818237
-0.020134965
0.036355812
0.08542286
0.17974295
0.2109659
0.14693846
0.092029154
0.045041237
-0.03937118
-0.10012887
-0.107250445
-0.07886996
-0.06198102
-0.074113905
-0.03810414
0.05512432
0.17495754
0.23703201
0.12869127
-0.002852727
-0.028920129
-0.057438213
-0.100988634
-0.10070901
-0.08105092
-0.06923731
-0.044600744
-0.017409531
-0.020983377
-0.001723693
0.026844878
-0.008256666
-0.045658085
-0.0393135
-0.019556046
-0.006981469
0.010049961
0.04961438
0.053493116
0.027791815
0.049584687
0.08181618
0.06828456
0.01119311
-0.038513407
-0.035098024
-0.027589722
-0.038173072
-0.029608544
-0.0039236667
0.013708083
0.0115578035
0.0069991406
-8.691884E-4
-0.022686688
-0.032460567
-0.029292336
-0.026190203
-0.01808374
-0.010259367
-9.0042426E-4
0.01495547
0.02522024
0.019171132
0.011345863
0.02096134
0.03728086
0.041830085
0.025849514
-0.0015518953
-0.012501908
-0.0015293485
0.019743878
0.037920747
0.029655017
0.0077187167
0.0044547403
0.002158198
-0.016759759
-0.030403947
-0.032694258
-0.026655655
-0.011499429
-0.009756804
-0.02315069
-0.024170475
-0.01260649
-0.0020753746
0.0053000306
0.010378613
0.012016437
0.0063088867
-0.005794985
-0.017832482
-0.021845687
-0.018345503
-0.016284859
-0.013943772
-0.009633994
-0.0074425144
-0.0038003859
0.0015313108
0.00613062
0.010470156
0.014787531
0.020906264
0.025622856
0.02609165
0.024716802
0.023051914
0.020219924
0.011434084
-5.8201916E-4
-0.008350972
-0.012993637
-0.015141765
-0.014291165
-0.0113027105
-0.006005709
4.875652E-4
0.0059625064
0.008388805
0.011865282
0.017438114
0.017418467
0.009832911
-0.0026529192
-0.012735394
-0.01665009
-0.020517198
-0.0198034
-0.013052435
-0.0110906055
-0.012586231
-0.011511069
-0.0066478373
-0.0023288447
-0.004125667
-0.004350971
-5.646022E-4
-0.001105233
-0.004901034
-0.007512752
-0.00524602
0.0025777952
0.013056078
0.026103476
0.032640137
0.025675893
0.016845562
0.011897377
0.008732814
0.009479524
0.008344716
0.003960404
0.0021062146
-0.0058377725
-0.018212538
-0.017781427
-0.009788953
-0.005247161
-0.00241433
-0.0028520166
-0.006604548
-0.011467145
-0.012954227
-0.009730617
-0.01259175
-0.01729981
-0.012955063
-0.0072615524
-0.0022108653
0.003138942
0.0048654145
0.009503201
0.018629974
0.023840945
0.02217527
0.01872896
0.020017292
0.022562478
0.017075146
0.0031675312
-0.00990304
-0.01699075
-0.0173678
-0.007551444
0.0037152679
0.005148592
0.0020334506
-0.0040175146
-0.015327753
-0.023553561
-0.023874734
-0.023256067
-0.024031825
-0.020942466
-0.016251057
-0.008346378
0.0034535292
0.0053407443
0.004826421
0.012970663
0.014730968
0.012634505
0.012933337
0.006033577
0.0015741965
0.007356068
0.015245034
0.022945346
0.026489444
0.02603915
0.026185405
0.018838733
0.0033185054
-0.008239394
-0.013365761
-0.011689313
-0.005450022
-0.0046252306
-0.0075476067
-0.008658696
-0.010504634
-0.014331379
-0.018709153
-0.01898356
-0.014719032
-0.009382722
-0.0038750977
-0.0017388563
-5.5300206E-4
1.8832459E-4
-0.0030586144
-0.0023247674
-0.0023691463
-0.008976566
-0.0059337523
0.0054373974
0.010615202
0.009159118
0.0051667956
0.004858384
0.00752478
0.0063051446
0.0021985339
-9.1848423E-4
-3.646495E-5
0.0017629225
-0.0017140156
-0.004018563
4.1777903E-4
0.0032368232
0.002503839
0.003155977
0.0023850915
0.0011724617
0.0031830736
0.003259822
-2.1042584E-5
-0.0010551441
0.0019915693
0.0051060487
0.0044363313
1.5873651E-4
-0.0051783174
-0.0045810197
1.9690608E-4
-8.357972E-4
-0.0019131317
-0.0010952487
-0.003572138
-6.729935E-4
0.004386407
0.0033123035
9.00771E-4
-0.0040761805
-0.008817086
-0.00837918
-0.0071832715
-0.0050319377
-0.002399238
-2.3257386E-4
0.0027303589
0.0025047346
-8.0321386E-4
-0.003535301
-0.0030320743
-8.484334E-4
-0.0026289239
-0.002864739
9.7099977E-4
5.015022E-4
-0.0013598964
-0.0010894359
-0.0013852029
-1.05670166E-4
4.262944E-4
-0.0015745725
-8.9452305E-4
0.0019710888
0.004757275
0.0075781518
0.0063585094
0.001542793
6.5292144E-4
0.002155039
-3.9241952E-4
-0.0040891715
-0.0049808645
-0.0044334806
-0.0042983647
-0.0026508993
0.0026737533
0.004871641
0.002042541
0.0012884802
-5.3024245E-4
-0.003572579
-0.0014859171
5.2857265E-4
-2.3545208E-4
-8.7073055E-4
-0.0017265792
-0.00146861
-9.787882E-4
-1.2214275E-4
0.0014842974
6.7489524E-4
6.028144E-4
0.0015391205
-2.6162187E-4
-7.372496E-5
0.0030661959
0.003897741
0.0019664385
6.152354E-4
9.4094436E-4
-5.5474625E-4
-0.0033063507
-0.0029596235
-8.6410175E-4
-6.7546667E-4
-0.0023378327
-0.0031333158
-0.0029227755
-0.0026376636
-6.796333E-4
0.0023145778
0.0034680471
0.0019261679
0.0014194752
0.0019801143
-0.0022672832
-0.0048728716
-0.0013257575
-0.0010445458
-0.0011528209
0.0017889296
0.0019543807
0.0023101184
0.0015687793
-0.0016434585
-1.624015E-6
0.0018341856
-5.2141683E-4
-0.0012474738
-9.317347E-4
-4.8093032E-4
7.872878E-4
8.6845184E-4
0.0016159932
0.0028550245
0.0015958435
1.8083765E-5
7.697924E-4
0.0012342309
3.2903033E-4
0.0022569702
0.00305148
-0.0016755154
-0.003386906
-0.0021065588
-0.0017079712
0.0013115036
0.0023298587
0.001019583
7.0565654E-4
-0.0019149407
-0.0023592385
3.249517E-5
-5.343714E-4
-0.0020013317
-0.0023613048
-0.00180341
-0.0023244538
-0.0021152974
0.0031208638
0.004432518
-5.594869E-4
-0.0020488552
-0.0015716237
-0.0012765281
2.3561253E-4
2.9793064E-4
1.9418354E-4
0.0016724267
0.0033587245
0.00370197
0.0019788186
5.868951E-4
-2.0686798E-4
-0.0019474344
-0.003094312
-0.0019996122
2.42032E-4
0.0012191692
6.255853E-4
-0.001339488
-0.0024903535
-7.9802534E-4
-7.39018E-4
-0.0017449935
-7.9604797E-4
1.369829E-4
0.0027099394
0.004379242
0.0026812223
0.0017769523
0.0017245425
0.002283101
0.0013469175
-0.0013275214
2.0370346E-5
0.0037557064
0.004553697
7.692906E-4
-0.002659143
-0.0030379621
-0.003380287
-3.3077263E-4
0.0018548918
0.0024158766
0.0034874198
-0.0029807354
-0.002847378
-0.0013120391
-0.011060915
-0.004843245
0.0014913476
-0.0035054563
0.0025309068
-0.0049962057
-0.011687742
0.0040328796
0.008868928
0.009726064
0.006038874
-0.004407897
0.003834366
0.0057158307
-0.0013676878
0.0023170507
3.5922832E-4
5.9091666E-4
0.001054625
-0.006812597
-0.001778209
0.007856307
0.0031215805
-0.006064763
-0.0019125361
0.0051461714
-0.0037945474
-0.0029387206
0.0063633183
-0.0045711375
-0.006869762
0.0026720378
-0.0032906719
-0.0048799077
0.0016156937
8.029588E-4
0.0010110914
0.0026883034
0.0022599995
0.00193038
8.4814144E-4
0.002070826
0.0028151593
-0.001596661
-0.0034205155
-4.5378023E-4
0.001784177
0.0030554135
9.7521103E-4
-0.0015464654
6.3001557E-4
9.799296E-4
0.001358958
0.004841566
0.0052631525
0.0040732655
-0.0028576325
-0.012767713
-0.009723068
-8.555758E-4
0.0035424517
0.005878776
0.0043334286
0.001452015
-6.1984995E-4
-0.0021811102
-0.0020495881
-0.0029011595
-0.0040617003
-0.003277731
-8.03993E-4
-2.6933436E-4
-0.0031708744
-0.002830018
5.6131958E-5
8.6298416E-4
0.0014107694
0.0017896508
9.700474E-4
-7.4345456E-4
-1.1229299E-4
0.0018242669
0.0011222021
0.0020819902
0.0024484368
9.6849794E-4
0.0033885667
0.0038922715
0.0016826516
0.0013322872
0.0014841004
0.0031020516
0.0014197143
-0.0027428172
-7.700411E-4
0.0023286298
0.0015929993
5.369678E-4
-5.4572163E-5
-0.0011653842
-0.0029345546
-0.0033915234
-0.0020310169
-0.0011324215
-8.332391E-4
-6.195814E-4
-5.137346E-4
-4.151068E-4
-2.3899514E-4
-3.0844926E-4
-0.0025689818
-0.0044226944
-0.0012790039
0.0012483535
-0.0010574381
-0.0025831123
-0.0023407787
-0.0010325782
0.0016998736
0.0013867248
-2.4188624E-4
7.7780563E-4
0.0014354786
7.099265E-4
3.7914125E-4
0.002357369
0.0041363696
0.0018825107
9.5222314E-4
0.0020565882
7.7317416E-4
8.252521E-4
0.0012421173
-6.595099E-4
-1.5710302E-4
0.0025824928
0.0039865575
0.0033426706
0.0015086037
-7.454908E-5
-0.0012412202
-5.464807E-4
6.8057026E-4
-0.001775387
-0.004305642
-0.00328577
-0.0027852724
-0.0034672325
-0.002742626
-0.001652894
-0.0013113825
-6.0270017E-4
3.8230582E-4
-8.0731726E-4
-0.0025161898
-7.1381597E-4
7.3219143E-4
-5.464378E-4
3.2429412E-4
0.0018029766
6.629704E-4
-2.0219735E-4
-2.6483063E-4
2.0924007E-4
0.0015721346
7.7447435E-4
-4.8383957E-4
0.0016086521
0.0032149313
0.002330112
2.8014294E-4
-0.0015448423
3.9323876E-4
0.0013275857
-7.8355166E-4
5.6017895E-4
0.0011672647
7.053198E-4
0.0031750295
0.0030724267
0.0020176806
0.001196645
-0.0012948029
-0.0017252561
-0.0018692657
-0.0011607538
0.0017153656
0.0026221776
0.002111386
7.463605E-4
-0.00189729
-0.0041903136
-0.0023153862
0.001855189
0.0010973235
-9.1195805E-4
-0.003953391
-0.005498871
9.576612E-4
-0.0019806216
-0.010457103
-0.00412501
0.0010549234
1.4530159E-4
0.0026435973
0.0022116168
0.0010027833
0.0014375682
0.0010390049
0.0015636764
0.002382102
0.0027845378
0.0021994207
0.0020034465
0.0023045486
0.0016284826
0.0015632757
6.4454443E-4
2.0627338E-5
0.001108108
2.161508E-4
-0.0010799861
-1.2873243E-4
0.0011930547
5.4645084E-4
-4.709281E-4
-3.2257714E-4
-0.0012115673
-0.0017032054
-0.0025476902
-0.0038260748
-0.0017264404
-7.4799673E-4
-8.1378175E-4
3.356895E-4
-7.534624E-4
-2.1441093E-4
4.4799343E-4
-0.001205649
7.457211E-4
0.002725289
0.0015929084
6.745707E-4
-1.6111211E-4
-3.0468887E-5
0.0011237923
6.0029025E-4
-7.962651E-4
4.3415293E-4
0.0016726744
-3.5693176E-4
-0.0016126334
-0.0017760978
-0.0016536309
-1.4407413E-4
3.1789E-4
9.627062E-4
0.0010970541
-1.2222242E-4
8.808701E-4
4.491381E-4
-0.0012852154
-5.098959E-4
-8.7616814E-4
-0.0012222535
-1.0596712E-5
2.3107929E-4
8.53768E-4
0.0013098525
0.0010335498
0.0014040135
7.6285354E-4
-9.938818E-5
0.0013249669
0.0021482857
6.381811E-4
4.636371E-4
0.0010617571
4.1634467E-4
0.0015071422
0.0020325042
-9.2802127E-4
-0.0021029215
-8.713296E-4
-0.0010279068
-0.0018869209
-0.0030010263
-0.0033426483
-8.506185E-4
3.345115E-4
-0.0022127598
-0.0027138712
-0.0015566094
-0.0027256096
-0.0023470668
-3.2539095E-4
0.0010267694
0.0032613676
0.0026286915
7.921287E-5
0.0018135415
0.0022069358
-0.0015433399
-0.0014395274
0.0011156905
7.883759E-4
0.001233691
0.0037112886
0.005667113
0.00652343
0.005572448
0.004191381
0.0017817346
-0.0022101547
-0.0036345695
-0.004297684
-0.005924463
-0.005417254
-0.0028274853
0.0011901552
8.1242004E-4
-0.0037135559
-0.0023232184
8.7111606E-4
0.0016512456
0.0028633203
6.918219E-4
-0.0018120953
-0.0017826983
-0.0020687797
-9.809083E-4
-4.1916053E-4
-1.4379573E-4
0.0016668452
0.0011131098
3.4849008E-4
0.0016214417
0.0011690205
-3.9381662E-4
-1.20440454E-4
7.2763325E-4
4.935619E-4
3.3320254E-4
-4.0507127E-4
-0.0015326485
-2.795218E-4
0.0013706823
0.0010823396
-3.8668132E-4
-0.0014954575
-2.2636027E-4
8.034436E-4
-6.0430382E-5
2.629416E-4
9.7174087E-4
1.2477983E-5
-9.0935826E-4
-2.131652E-4
4.0153507E-4
4.8434944E-4
0.0019471808
0.0027439173
0.0016992404
9.756429E-4
-3.009172E-4
-0.00278372
-0.004376666
-0.0025714221
0.0013001158
0.002186308
5.620279E-4
5.218471E-5
2.2736067E-6
-6.552703E-4
-3.5031495E-4
6.388082E-4
-3.6367233E-4
-0.0010971327
3.633805E-4
5.572447E-4
4.367835E-5
4.6631816E-4
8.1697974E-4
4.898549E-4
-0.0013287769
-0.0014236537
0.0010225031
0.0016270258
0.0011986231
7.332645E-4
-1.99659E-4
-3.3014283E-5
-4.8609264E-4
-0.0010584607
4.783895E-4
-5.6793055E-5
-0.0022581923
-1.3304189E-4
0.0015978807
-4.1507836E-4
-1.7823595E-4
-0.0013090392
-0.003035173
0.001867882
0.001361111
-0.0061080963
-0.00455097
2.5099632E-4
-1.5911389E-4
6.1304934E-5
0.0014760472
0.0021683834
0.0016068452
4.8411184E-4
0.001042217
0.0014109374
0.0011666653
0.0014539863
0.0013018703
0.0019525591
0.0025551564
0.0015933366
8.5037743E-4
-4.343851E-4
-0.0013943656
-5.935065E-4
-6.89196E-4
6.500363E-4
0.0039781746
0.0034112989
3.5879036E-4
-0.0013990009
-0.002585823
-0.0031413261
-0.0029582588
-0.0027283167
-0.0028212487
-0.0017358544
1.4011626E-5
-1.4849276E-4
2.8587293E-4
0.0011766092
2.7340694E-4
4.9125747E-4
4.2881185E-4
-0.0010286657
-2.2671552E-4
0.0010637117
-2.858743E-4
-0.0025797577
-0.0030061374
-0.0016292583
2.6920642E-4
0.0018017457
0.0018138307
0.0014266594
-2.2499515E-4
-0.0024759222
-7.674104E-5
0.002601404
0.0018416852
0.0031076565
0.0039534313
0.0017904699
-1.6797689E-4
-0.0023527183
-0.0026163876
2.2286287E-4
0.0012202754
3.7046798E-4
0.001244746
0.0028192163
0.0031130943
0.002626843
0.0021941045
9.793582E-4
-0.0015745573
-0.0037005898
-0.0046613845
-0.0044688936
-0.0027899481
-0.0019194395
-0.002350348
-0.0018442186
-7.8285905E-4
3.1437576E-4
5.947183E-4
-4.594711E-4
4.1787737E-4
0.0030370709
0.002674773
2.4198172E-4
-8.882472E-5
1.1597698E-4
-4.175798E-5
0.0010732445
9.0473867E-4
4.8869475E-5
-6.439052E-4
-0.0026573958
-0.0014538425
4.6759096E-4
-3.026573E-4
0.002325923
0.0034433044
4.9154036E-4
8.5632055E-4
-2.6512265E-4
-0.004033709
-0.0030424546
5.2328064E-4
0.0022224947
0.0020793765
0.0017171392
3.2847846E-4
-0.0019748576
-5.812258E-4
0.0011744123
-8.2540454E-4
-2.2005223E-4
0.004060369
0.0063586514
0.0043709776
1.3894933E-4
-0.0020246585
-0.0025634912
-0.002989992
-0.001321376
-4.6428733E-5
-0.0019306747
-0.0029624903
-0.0014482484
-0.0016054631
-0.0036015748
-0.0030743775
-4.5179465E-4
9.773005E-4
6.723479E-4
-2.6208948E-4
-4.0374088E-4
-1.4114738E-4
-5.0683063E-4
-4.9751234E-4
2.1968427E-4
0.0015212551
0.003253289
0.0032736473
0.0022793736
0.002181271
4.3741777E-4
-0.001137235
9.563199E-4
0.002028675
9.122082E-4
5.4984377E-4
1.6084989E-4
5.585087E-4
9.124943E-4
-2.581958E-4
-0.001289383
-0.001498289
-5.472693E-4
-5.3779077E-4
-9.2117727E-4
-9.575365E-5
-0.001645079
-0.0020073934
-1.9389593E-4
-0.0014090015
-0.0018000439
-0.0012741217