-8.719269E-4
-0.0021564614
-0.0022194947
-6.3708844E-4
4.2495775E-4
-8.5696933E-4
-0.0015934086
-8.412814E-4
-4.652492E-4
0.0013741382
0.0039144377
0.0028257794
1.4244279E-4
-5.8812794E-4
5.293556E-4
0.0014903722
4.457824E-4
8.7810436E-4
0.0024384807
8.702226E-4
-9.297167E-5
-2.0515254E-5
-0.0016927591
-0.0020972295
-0.0016204909
-0.0023159918
-0.0026966874
-0.0013744142
5.082802E-4
0.0013154023
0.0018166477
0.0011757062
2.4076056E-4
3.7854677E-4
-0.0010570962
-6.053384E-4
0.0020745755
0.0020444223
0.0032287308
0.004405548
0.0013711092
-0.002063369
-0.003911917
-0.0026081125
-5.143068E-4
-0.0010572715
4.2437994E-5
0.0013224963
3.455198E-5
3.3958792E-4
9.862664E-4
-4.788837E-4
-9.801122E-4
-1.6356414E-4
-0.0012617123
-0.0027192095
-0.0019363317
-0.0012450828
-3.180588E-4
4.8251436E-4
-9.0465497E-4
-5.308503E-4
0.0012598352
0.0017219057
0.0021772897
9.137786E-4
-7.652705E-4
-9.026338E-4
-9.162329E-4
-1.7136284E-4
-4.8054423E-4
-6.688571E-4
0.0012818719
0.0016472283
0.0015696977
0.0014372965
2.9823984E-4
0.0011463811
0.0017081333
0.0010077774
-2.3681107E-4
-0.0024471213
-0.0013041478
0.0011790605
0.001526054
0.0023308643
8.3268824E-4
-0.0022982191
-9.480785E-4
0.002021527
0.001873764
8.861311E-4
1.7259535E-4
-0.0018477305
-0.0015433963
7.004877E-4
-0.0033184714
-0.008135817
-0.0033864963
0.0018029765
5.1592337E-4
4.5682097E-4
0.0015000553
6.4006145E-4
5.964644E-4
7.657189E-4
0.0018962136
0.0025337895
-2.020178E-4
-0.0015227965
-0.001327973
-8.690237E-4
-3.697611E-4
-0.0030544482
-0.002103997
0.0012695313
-9.771658E-4
-9.6837786E-4
0.0014299569
9.456925E-4
0.0012468065
0.001209977
9.141139E-4
0.0016952414
0.0021629762
0.0023133636
0.0018193404
0.0019233768
0.0014593875
-1.7062329E-4
-0.0010412249
-0.0016422665
-9.805362E-4
-8.358909E-4
-0.0014780969
2.4957597E-4
0.0013753343
0.0013586892
0.0016842639
0.001063407
-5.3846027E-4
-0.0022583604
-0.001497684
-6.2254386E-4
-0.0027936895
-0.004994904
-0.0048789703
-0.0015591582
-5.844155E-5
-0.0021626218
-4.103729E-4
0.0028042966
0.0028753385
0.0024987613
0.0017424426
0.0010714019
0.0018772596
0.0023260128
6.4511574E-4
8.522745E-5
0.001496022
6.4770505E-4
-2.7166118E-4
-7.891487E-4
-0.0019342948
-1.8881439E-4
2.6827535E-4
-0.0012299429
1.9389055E-4
0.0017657144
0.0025736715
0.002576843
5.304462E-4
-0.0010799919
-0.001633301
-0.0020136654
-0.002418143
-0.0021153314
-8.3502365E-4
-1.4572007E-4
-1.9773269E-4
-8.3009514E-4
-0.0012843601
-6.615235E-4
-1.8036795E-4
-2.108612E-5
5.7409005E-4
0.0015174214
0.001880762
0.0011280782
-3.6556492E-5
7.065213E-5
0.001126491
-0.001042407
-0.0029412305
-1.9124062E-4
6.5766595E-5
-0.0010698183
8.7799627E-4
0.0014370568
0.0022807207
0.0038321668
0.0038142093
0.004020252
8.965968E-4
-0.0036825305
-0.0030096737
-7.552978E-4
-7.2805345E-4
-0.001221026
-7.2268565E-4
3.286107E-4
3.1168795E-5
-0.001096848
-0.0018182847
-0.0017851795
-2.670182E-4
0.0013792978
0.0019010166
0.0015442123
-5.3989975E-4
-0.0032193912
-0.0036051201
-0.0020279572
-8.599698E-4
-0.0010282838
-2.919165E-4
0.0019185527
0.0016300306
2.0386247E-4
8.198558E-4
0.001088499
0.0015834392
0.0016351647
-3.8356625E-4
-8.618492E-5
0.0013342923
0.0010300481
0.0010121695
3.741155E-4
-6.0412096E-4
-0.001290714
-8.1785093E-4
0.0022396413
0.0026006335
9.448025E-4
0.0023196423
0.0021276313
-1.05003746E-4
-0.0010830952
-0.0022811687
-0.0018828931
1.9531332E-4
7.4640865E-4
4.0094345E-4
-2.4849584E-4
-0.0010953471
-0.0013057403
-0.0012443707
-0.0011893335
-0.0011352616
-8.4983994E-4
-4.6750202E-4
-9.346097E-4
-0.0019481882
-0.0023092413
-0.0018802404
-0.0013049277
-2.0418067E-4
0.0011167575
0.0011089912
0.0012299024
0.0015929493
-5.6323607E-4
-0.0024875246
-6.668338E-4
0.0023312331
0.003128935
0.0026180525
0.0031509716
0.0029846728
0.0018019145
0.0016364054
7.613565E-4
-6.3032587E-4
-0.0012825131
-0.0014396113
-9.942881E-4
-7.103958E-4
8.234689E-4
0.0016244034
6.323103E-4
0.0014031231
2.1937155E-4
-0.0016908521
-0.0014477137
-0.0027093824
-0.0024473746
-0.003294663
-0.0029751684
0.0034607116
3.7671157E-4
-0.007304866
-0.004000588
4.7090565E-4
0.0031247223
0.0038916338
9.4761717E-4
8.9861994E-4
0.0025484737
0.0037820607
0.0021625496
-0.0011986092
5.102095E-4
0.001449719
-2.573768E-4
-4.054164E-4
-9.748149E-4
-4.5713148E-4
-8.652406E-5
-8.7920576E-4
-9.2797424E-4
-0.0010048854
5.7375044E-5
3.416194E-4
-0.0012292257
-0.002052702
-0.0014671022
-4.1007093E-4
-0.0012908939
-0.0013723358
-4.379561E-4
-6.0779817E-4
0.0017889402
0.0023871597
7.892612E-4
9.7120524E-4
-0.0016715808
-8.7171386E-4
0.0036876213
0.0017124
-5.817016E-5
0.0017910152
0.0033320696
0.0054894537
0.004257491
7.7600405E-4
-0.0013096007
-0.003898577
-0.0037601027
-0.0014559048
-0.0015835691
-0.0013387547
-0.0012658299
-0.003846558
-0.004304626
-9.981133E-4
0.0020136337
0.0024650046
0.0010379143
-2.9633282E-4
-3.674607E-4
-3.9833193E-4
-0.0023416579
-0.0031049792
-4.827626E-4
0.0011165342
0.0014662074
0.0011356687
1.360965E-4
0.0019619393
0.0029715777
0.0018242368
0.001784238
7.364081E-4
3.070575E-4
-2.571759E-4
-0.0020119483
-6.6115794E-4
2.2738011E-4
3.957251E-5
0.0011718788
2.0616966E-4
-0.0011000881
-8.4805215E-4
5.5568066E-4
0.0015337717
-4.8874813E-4
-0.0017265324
-0.0014656301
-0.0010250583
3.6890595E-4
-6.088023E-4
-0.001127336
0.0010833907
0.0010029522
5.267893E-4
9.996932E-4
-6.675459E-5
8.1474864E-5
9.6186873E-4
-9.2096895E-4
-0.0027717976
-0.0020625673
-4.910488E-4
9.552285E-4
8.429091E-4
-2.085344E-4
4.6185046E-4
4.3902395E-4
-9.833908E-5
0.0020518904
0.002087276
-9.49206E-4
-6.07817E-4
0.0014220505
0.0013780545
7.9677795E-4
1.4672594E-4
4.9187878E-5
1.6834721E-4
-5.959453E-4
-9.51704E-4
-0.002075725
-0.002483447
1.7958175E-4
0.0010804262
3.8319363E-4
2.911172E-4
-3.4779505E-4
9.516069E-4
0.001786048
2.1788313E-4
-9.968778E-4
-0.0018603052
-9.316849E-4
-0.0011003016
-0.0020659603
5.664969E-4
1.8906446E-4
-0.0011319759
0.001103409
1.6523994E-4
5.469844E-6
0.002081729
0.0014079915
4.7133194E-4
-0.0010156691
-7.49397E-4
0.001059351
2.1609517E-4
0.001143755
0.0014883894
-7.0258375E-4
2.8291044E-5
-5.8996835E-4
-0.002416542
-3.475719E-4
0.0012922751
1.88117E-4
-0.0013133815
-0.0012848849
4.779696E-5
6.9425465E-4
0.0012499879
0.0015743775
0.001365276
0.0021300416
0.0018343184
-7.9743814E-4
-0.0021583375
-0.0012951444
-1.1067274E-4
0.0010642228
-8.797884E-5
-0.0019872414
9.283785E-4
0.002820064
1.9355008E-4
-1.3210732E-4
-0.0010860031
-0.0035852715
-0.0022299122
-8.125003E-4
-2.5913538E-4
1.688663E-4
-0.001522038
-0.0012530112
2.7304987E-4
1.8257587E-4
6.521207E-4
3.5075605E-4
-2.3691889E-4
9.3402085E-4
0.0015060612
2.6240337E-4
-0.0018725178
-0.0026102073
-4.0712667E-4
0.002426224
0.0028453823
0.0019036407
0.0021530378
0.001143555
6.7454606E-4
0.0038514659
0.0011018909
-0.0068176193
-0.0076421853
-0.003927634
-1.3935185E-4
0.002102218
0.0014266218
0.0034287095
0.0048131393
0.0027096856
0.002758617
0.001529593
-7.301731E-5
9.201537E-6
-0.002778564
-0.0020169846
0.0016503829
8.766562E-4
6.920891E-4
4.0116056E-4
-0.0019701659
-0.0033525082
-0.0049209767
-0.0033754492
-5.078036E-4
-0.0015206869
-8.043388E-4
0.0012621717
-2.0421408E-5
-0.0018291658
-0.0017849441
-2.9447558E-4
-3.863161E-4
-0.0022444075
-0.0032795311
-0.0036926675
-8.558371E-4
0.0040498655
0.0060595893
0.006108438
0.003927417
0.0019338357
0.0041659707
0.005654437
0.0037365498
9.662518E-4
-0.0011887667
-0.0013143466
-1.9015114E-7
0.0012385001
4.9425504E-4
-6.664525E-4
-8.329878E-4
-0.0044534677
-0.006107311
-0.0018655664
-0.0015893469
-0.0029909317
-0.0010567289
-5.775781E-4
-1.4684963E-4
-3.3655856E-4
-0.002711222
-0.0030531161
-0.0015484082
6.8431324E-4
0.0028437627
0.0032976838
0.0032201596
0.0023692995
0.0011892259
0.0011139073
8.075617E-4
-9.9450546E-5
-4.8337385E-4
1.16386545E-4
1.9206495E-4
-0.0010849927
-0.0011004499
-7.511489E-6
-4.1583687E-4
-0.0013004952
-0.0012391668
-0.0015745901
-0.0029380657
-0.003609653
-0.0027391848
-0.0011661433
-9.429867E-5
-8.993141E-5
3.0665734E-4
0.0020181495
0.0041824304
0.005702066
0.0048649777
0.002418482
0.0017093932
0.002715855
0.0024972958
0.0011581139
0.0020061354
0.0044246865
0.0035340865
-8.531958E-5
-0.002349579
-0.0046301787
-0.0058356347
-0.0030165422
-0.002130216
-0.0037456392
-0.0020780633
-9.267603E-4
-0.0027588077
-0.004624039
-0.004737632
-0.0029196995
-0.0022997886
-4.162066E-4
0.0030833776
0.0017706639
2.0742048E-4
0.0012028707
7.721284E-4
0.0014366519
0.0025641595
0.0025531482
0.0018787348
5.697094E-4
0.0016976211
0.0026499478
0.001351885
7.251288E-4
1.9599697E-4
0.0012856197
0.0022085644
4.706679E-4
3.4428065E-4
-5.228541E-4
-0.0024365222
-9.79189E-4
-1.9503279E-4
-3.3255052E-4
2.5490473E-4
-2.3952391E-4
9.5002475E-4
0.0022986063
0.002186906
0.0028675655
9.490785E-4
-0.0022478395
-0.002111919
-9.474405E-4
-3.6755198E-4
-4.046486E-5
-3.1065196E-5
-8.882275E-4
-0.001990102
-0.0024652383
-0.004309666
-0.004850711
-0.002474365
-0.0014411194
-8.057079E-4
-2.0041682E-4
-6.227214E-4
-1.9335473E-4
1.8320432E-4
7.8134314E-4
0.0011567053
-3.2138286E-4
-0.0010533277
2.1564234E-4
0.0013611132
0.0012713898
0.0023907877
0.0043885126
0.0044302815
0.003193821
-3.399254E-4
-0.0024468498
8.692709E-5
9.7616995E-4
0.0018761614
0.004309041
0.003883452
0.0023317672
-9.851634E-4
-0.0038204365
-0.0015574074
7.0006814E-4
-4.8276398E-4
-0.0021157416
-0.0021146399
-0.0019694308
-0.0011620389
0.0015539874
0.0011006251
-0.0025314512
-0.0037468707
-0.002170988
-3.2563353E-4
5.1493733E-4
-2.2664851E-4
-0.0037832945
-0.0023910739
0.004835109
0.0019097127
-0.0042435313
-0.0012242858
7.9661125E-4
0.0011255847
0.0017594305
-2.2149178E-4
-2.9759895E-4
0.0017151011
0.0033251601
0.0021441965
-4.1340178E-4
-3.8206164E-4
-0.0012905812
-0.0017405477
-4.4503025E-4
-5.1937916E-4
0.0013480734
0.0027817294
0.0019620052
0.0023015984
7.9072104E-4
-8.9455105E-4
-5.5344426E-4
-0.0018468134
-0.0027080425
-0.0025208446
-0.0031507502
-0.001202136
0.0016309638
2.2300155E-4
-0.0016430554
-1.0311811E-4
0.0012611448
9.4389525E-4
0.0012639689
0.002375771
0.0033872265
0.0039861947
0.002609583
-2.5955157E-4
-0.001334449
-0.0015266578
-0.002306964
-0.0020573237
-3.5109813E-4
0.0023930452
0.0028031855
0.0019259081
0.0031840617
-1.2956452E-4
-0.0048326044
-0.0037328163
-0.0044314354
-0.0044990904
-0.0013583703
-0.002661047
-0.0036423728
-0.0018444173
-8.3685364E-4
-1.6584047E-4
-9.48583E-4
5.811237E-4
0.0030044068
8.955343E-4
2.6964804E-4
0.0022141328
0.0016554564
-4.3054495E-4
-8.4038684E-4
0.0020370285
0.0031849064
2.942258E-4
-5.702195E-4
9.384879E-4
0.0020360162
0.003364575
0.0036410314
0.0010329073
-0.0020400705
-0.0028715425
-0.0041603195
-0.005761848
-0.0042906306
-0.00326799
-0.0025760715
0.0024354341
0.006803104
0.006049371
0.0035217116
0.0018568791
0.0027394448
0.0054790424
0.007006318
0.0073930635
0.0055543147
-2.2420996E-4
-0.0050456747
-0.0052864556
-0.0035178731
-0.00170961
-0.0010504606
-0.0015248628
-0.0023768025
-0.0046028113
-0.006072437
-0.0054077706
-0.006146113
-0.007723377
-0.00644898
-0.0030202074
-5.435156E-4
3.15339E-4
9.0347737E-4
0.0012637427
0.0016446942
0.0028185162
0.0045286324
0.0060900063
0.005347127
0.0024993275
0.0010547313
0.0011532434
9.2461857E-4
-1.3000157E-4
-0.0011805579
2.1223578E-4
0.003998394
0.0054146196
0.003899482
0.0040677898
0.0030371458
-0.0010702837
-0.003679318
-0.008065025
-0.01132217
-0.0058915415
5.308756E-5
0.0014754367
6.069801E-4
-5.8539666E-4
3.768575E-4
5.855144E-4
0.005456584
0.013750772
0.00975537
-0.003116291
-0.016589155
-0.025877286
-0.023649858
-0.014637755
-0.0030322156
0.004453123
0.007405088
0.0142110055
0.00924171
-0.004229854
-0.006070874
-0.008676917
-0.00556818
0.010243245
0.012473658
0.008515015
0.0129033895
0.011697074
0.009509799
0.015646692
0.022304976
0.026140137
0.027792845
0.02268634
0.011989128
0.002692799
-0.007957959
-0.014817644
-0.010460896
-0.011921879
-0.021947168
-0.025969718
-0.02548765
-0.020891301
-0.014349426
-0.016012069
-0.02626419
-0.029242191
-0.012771655
0.0038862147
0.005465102
-9.5708715E-4
-0.010261624
-0.011660025
-0.002195251
0.011930118
0.020287754
0.010780907
2.5327722E-4
-0.0026721102
-0.0010498863
0.008991772
0.0043166205
-0.006907478
-3.8736218E-4
0.009357109
0.023987954
0.030238317
0.01775147
0.017946994
0.016745001
-9.289065E-5
0.0028139804
0.022300296
0.018231053
-0.006306756
-0.010627953
-0.0022497044
-0.009330636
-0.010769301
0.00126338
0.014838711
0.038691383
0.0626992
0.057496823
0.021752145
-0.011114409
-0.023833513
-0.025823954
-0.027482556
-0.05164085
-0.08702481
-0.094241194
-0.07978988
-0.046582554
0.0013969508
0.020111864
0.0027439944
-0.013875527
-3.9821494E-4
0.023015294
0.019815065
0.022396391
0.03608803
0.030758487
0.030265538
0.011242272
-0.033640128
-0.03799135
-0.030225622
-0.039595608
-0.00728214
0.04038472
0.035067447
0.023550794
0.05582289
0.072765216
0.04644103
0.027321035
0.022773338
0.0021012584
-0.022989271
-0.014253171
0.017993893
0.061789043
0.093315564
0.03403344
-0.05005305
-0.06504661
-0.07547337
-0.08134336
-0.07501809
-0.06994981
-0.013900841
0.053764243
0.10112507
0.11087473
0.043072104
-0.0322686
-0.086238734
-0.1253459
-0.14412905
-0.15848845
-0.12641345
-0.07621295
-0.039672352
0.0015456792
0.047338568
0.16016495
0.26486436
0.26709995
0.23424824
0.16223902
0.07526812
-0.0342849
-0.19462039
-0.22963561
-0.12513341
-0.0453476
0.002090595
0.054717124
0.095569685
0.099683195
0.084557615
0.06428892
0.048796322
0.037984688
-0.05950901
-0.2044102
-0.25622445
-0.23019089
-0.15179972
-0.037056465
0.027076334
0.02002919
0.014959282
0.025668746
0.014208691
0.0253959
0.055457193
0.062192503
0.06497887
0.033493116
0.013979814
0.04068277
0.023939336
0.014260094
0.055162787
0.06945364
0.071569934
0.105704345
0.09951907
-0.012994417
-0.094732285
-0.06280121
8.231492E-4
0.09450001
0.14131752
0.07033067
-0.043689724
-0.19388053
-0.31454632
-0.30682933
-0.19991621
-0.06984754
0.014419713
0.07516719
0.10242763
0.07048554
0.045242157
-0.018315852
-0.11131086
-0.120325476
-0.06989905
0.014955538
0.09290944
0.10613553
0.12419537
0.14994244
0.10522627
0.012169812
-0.05163788
-0.040424153
0.021242803
0.054576285
0.046756856
0.0770849
0.11444236
0.057892285
-0.024857871
-0.06151774
-0.07823936
-0.06026729
-0.019162755
0.021289501
0.06010291
0.057329066
0.027100492
0.009459285
0.003794036
4.597325E-4
-0.058415025
-0.1507022
-0.16120781
-0.10792093
-0.07334299
-0.05291282
-0.013273099
0.017382564
0.0073807216
0.014570391
0.030662516
-0.016311066
-0.08828761
-0.12647414
-0.093465835
-0.017734503
0.006449119
0.012886628
0.07666218
0.17616719
0.22053963
0.17654963
0.17486213
0.20475425
0.12532721
-5.515354E-4
-0.106127374
-0.18691108
-0.17884478
-0.100218765
-0.024935946
0.009840026
0.010326936
0.006287416
-0.0059526744
-0.010391038
0.014912966
0.013902315
-0.039953377
-0.07198655
-0.06846264
-0.07165509
-0.037265535
0.024334643
0.047617726
0.06441952
0.07446914
0.05972596
0.062010076
0.07874115
0.07865008
0.04813868
0.011816335
-0.0071687503
-0.022100365
-0.015562142
-0.008886854
-0.044448
-0.07967432
-0.086361475
-0.074914984
-0.059014644
-0.057175048
-0.052423224
-0.033842318
-0.012507854
0.006247412
0.013794815
0.017443553
0.02389861
0.027483115
0.031402647
0.03523014
0.03312694
0.021554444
0.007830744
0.006873081
0.017692247
0.027229546
0.029141914
0.028635718
0.024565134
0.008537353
-0.0054302905
-0.0012805386
0.0083592
0.010390316
0.007899774
0.0037084944
-0.0024309724
-0.0055018254
-0.0030371193
-0.0031494112
-0.0057934346
-8.2193926E-4
0.0079550855
0.008903899
0.0035367578
0.001386097
0.0034162959
0.004083938
0.0026586046
-0.0026482213
-0.013408555
-0.021439822
-0.022234889
-0.022319186
-0.025921352
-0.028979057
-0.030349879
-0.033022497
-0.031747855
-0.024682835
-0.01744646
-0.0089683235
-0.0013084648
0.00295505
0.00803911
0.013505
0.018017402
0.019754233
0.018192148
0.016480498
0.009741654
-0.002584271
-0.00724546
1.5043688E-4
0.0058932346
0.0033353434
0.004273572
0.009129523
0.009125303
0.008267068
0.004482067
-0.006701886
-0.015096606
-0.013785074
-0.006750185
0.0031205264
0.015403518
0.022509873
0.02136641
0.022384185
0.023171911
0.012626797
-0.0036989509
-0.012335539
-0.00969771
-0.004684683
0.0031489204
0.019093774
0.027919788
0.020746917
0.0062340805
-0.004627649
7.7939134E-5
0.0069373115
-0.0040913895
-0.01801463
-0.021284604
-0.021179238
-0.021276461
-0.021484058
-0.020447142
-0.019969502
-0.022328796
-0.018267728
-0.007967962
-0.0041523427
-0.0029821575
0.0036977876
0.013491071
0.022368249
0.02141656
0.012838487
0.011485133
0.013400833
0.010669166
0.0090494575
0.0072712246
4.6889964E-4
-0.0075753024
-0.010987973
-0.012192381
-0.01570844
-0.01037973
0.0043837186
0.009335622
0.006712827
0.0024118465
-0.0059271744
-0.0042268527
7.486677E-4
-0.009440863
-0.018293334
-0.017088125
-0.016284766
-0.009425334
0.0067051975
0.019115746
0.021306591
0.022644551
0.033255145
0.04935553
0.060728244
0.058308885
0.050042823
0.058248904
0.06832582
0.04801632
0.0075629693
-0.03753901
-0.081640765
-0.099584766
-0.08942938
-0.07572024
-0.06339298
-0.047382474
-0.022770667
-9.0998306E-4
-0.010075418
-0.038599323
-0.050993145
-0.04549812
-0.033386055
-0.020412005
-0.012431006
-0.0053641167
0.006123486
0.019580916
0.035727706
0.05273797
0.06457476
0.07049828
0.064607784
0.05380817
0.056918465
0.05495915
0.036920544
0.02933607
0.026714372
0.016887648
0.007872076
-0.0050765127
-0.0146426875
-0.016771672
-0.0278288
-0.04130102
-0.04377312
-0.03923163
-0.02990411
-0.017456023
-0.011199223
-0.012333616
-0.01130697
-0.009242151
-0.007470406
-0.0032807246
-0.004629144
-0.008851257
-0.008990133
-0.009360942
-0.010449782
-0.01195267
-0.007184262
0.005247424
0.011502685
0.014602728
0.017803129
0.0139415115
0.01050876
0.010091439
0.009133886
0.009610041
0.008131417
0.00543396
0.0052646515
0.0054912632
0.006719588
0.010385062
0.012774195
0.009926237
0.00495724
0.0056094863
0.009667816
0.0070278673
6.4758933E-4
-0.0034472242
-0.010703716
-0.016496276
-0.015078167
-0.014085607
-0.010958551
-0.004086097
-0.0014310249
-7.5822003E-4
5.151103E-4
0.00151142
0.0038468037
0.0064293393
0.006967154
0.0047691846
0.0035198608
0.0049949605
0.007326932
0.009612449
0.007899073
0.0063362243
0.01121492
0.015638478
0.015097552
0.010680325
0.005916076
0.004878575
0.0050068228
0.005614497
0.005264418
2.0053283E-4
-0.00470424
-0.0035153744
-1.8310627E-4
-0.0015827
-0.0042264215
-0.0049310885
-0.006026881
-0.0029191035
0.001182864
1.11246096E-4
-9.699386E-5
0.0012003668
0.0025638945
0.003610006
0.001953575
0.0029802662
0.005608714
0.004430272
0.0034624385
0.0021571165
-6.4154406E-4
3.3157784E-4
0.0016387901
-0.0014843413
-0.0012879773
0.0015957828
-0.0023712432
-0.0068996614
-0.007171628
-0.0073436066
-0.0054085874
-0.0037306608
-0.003799909
-0.003000114
-0.0032750373
-0.002897006
-0.0021070286
-0.00280366
-0.0027352686
-0.002077915
-2.7708375E-4
9.92467E-4
8.230995E-4
0.003148374
0.0053344234
0.0052535064
0.0071966876
0.010159549
0.008139068
0.0038349025
0.0034747252
9.209751E-4
-0.0040754317
-0.002394923
0.0012328838
5.026244E-4
-0.002882546
-0.005032334
-0.0034247935
-0.003193051
-0.003966609
-0.0022928626
-0.0021740312
-0.0027365386
-0.0026160162
-0.0024761017
-0.0016784905
-0.0029020824
-0.004370679
-0.0034933996
-0.001693315
1.4958558E-4
-6.149349E-4
-0.0017683884
4.7948654E-4
0.0011724986
-0.0012603953
-0.001839174
-0.0011900944
-0.0012188716
-9.2139715E-5
0.0017198513
0.0039742175
0.00543672
0.0030567553
0.0012545765
0.0018898358
0.0018598932
0.0029985183
0.0022178194
-6.134249E-4
-1.7497827E-4
-9.842376E-4
-8.871117E-4
0.0046684616
0.006027638
0.0032797174
0.0037824546
0.0032808627
-2.0978472E-4
-0.0037316845
-0.006114922
-0.006239944
-0.0065946016
-0.0074324496
-0.0061332094
-0.0058239014
-0.005579997
-0.0024992223
-9.541471E-4
-7.7046506E-4
2.6428583E-4
-1.827493E-4
-6.9208845E-4
4.8808212E-4
4.078761E-4
-8.501425E-4
0.0012577403
0.0043011764
0.0043687853
0.0032792664
-0.001437902
-0.0026025043
0.0053370036
0.0042471974
-0.0035226457
-0.0016184469
0.0012952308
0.0017749445
0.0021570006
-9.95215E-4
-0.0022024445
-0.0014002704
-0.002703907
-0.0036024505
-0.0036822073
-0.0033680443
-0.001777151
1.00686644E-4
-7.364209E-4
-0.0023786274
-0.001262917
-6.4485543E-4
4.5328581E-4
0.00380482
0.00501714
0.0048830984
0.004587559
0.0024888583
-8.6563954E-4
-0.003017691
-2.8890904E-4
0.0031547127
0.0028428389
0.0031977936
0.002824618
-6.6826784E-4
-0.0018429301
-1.272453E-4
8.7254896E-4
0.0010529476
0.0010827121
5.150418E-5
-0.0016519759
-0.0022331306
-0.003439162
-0.005714598
-0.005703363
-0.0044820914
-0.0041298927
-0.004157135
-0.004525993
-0.004015707
-0.00222242
0.0010431353
0.0035563398
-5.297767E-5
-0.0038906846
-0.0022520144
-0.003205017
-0.0045532743
5.7675835E-4
0.0041861683
0.0035048297
0.0047912225
0.006676179
0.0058675734
0.0047246995
0.004701776
0.003976959
0.00344896
0.0047029583
0.004449376
4.9210916E-4
-0.002504214
-0.0022082485
-0.0017045668
3.599346E-4
0.0023397205
-6.5446156E-4
-0.0031227763
-0.0024569526
-0.002053372
-0.001319241
-0.0015661946
-0.0014541649
-6.6391914E-4
-0.0022559427
-0.0020025766
-0.0012994023
-0.0035123585
-0.0034636722
-0.0026894815
-0.0021288332
4.7801112E-4
-3.102977E-4
-0.0029975057
-9.095103E-4
0.00267691
0.0029744625
9.347087E-4
4.136024E-5
9.583841E-4
-9.0361726E-5
-0.0018474457
-4.327893E-4
0.00112706
0.0014084443
0.0016901867
0.0010533147
1.02385326E-4
-9.836702E-4
3.182481E-4
0.0036196732
0.0027183993
0.0012600973
0.0018783591
0.0010443572
0.0012691629
5.005499E-4
-0.0015346912
-8.121105E-4
-0.0010930423
-0.0021919932
-0.002267826
-0.0026555825
-0.0015125268
3.1416654E-4
0.0012650847
9.437943E-4
-2.3015203E-4
-5.1931327E-4
-0.0011196955
-0.0017101238
-0.002011525
-0.0017577556
9.1168855E-4
0.0020346984
0.0012550247
0.002198333
0.0020364327
2.2923239E-4
-2.7780017E-4
3.3166626E-4
-7.021612E-5
-1.675922E-4
0.0024897263
0.003943589
0.0028169341
0.0017382521
4.266016E-4
-3.4483368E-4
-0.0019598564
-0.004149498
-0.0033994694
-0.0024918541
-0.003386786
-0.0033742995
-0.0019878875
-1.07829605E-4
0.0022929271
0.0032179717
6.387973E-4
-6.540236E-4
0.0013485504
0.0017485312
-4.4498593E-4
-0.0027671875
-0.0018381149
1.6847579E-4
1.7232669E-4
0.002178056
0.0038007372
0.003408113
0.0035741534
0.0015934275
8.833963E-4
0.0018463866
3.0922834E-5
-8.65278E-4
-0.0010691686
-0.0019811953
-0.0013055746
-5.598142E-4
-7.0204417E-4
-0.0011797792
-0.0011583734
-7.876292E-4
-0.0013818915
-0.0024167765
-0.002428254
-0.0013012454
-8.940121E-4
5.918979E-4
0.0026879269
0.001712505
0.002663521
0.0039949
0.0014732416
0.002446608
0.003654017
-8.780123E-4
-0.0033248789
-7.5454504E-4
0.001007739
-6.579261E-5
-0.0023202694
-0.0049700136
-0.003491948
-0.0011194382
-0.0061887046
-0.006795417
8.583112E-4
0.0034126763
0.0028112533
0.0017401258
-2.4705997E-4
-7.62953E-4
-0.0014299327
4.396002E-4
0.0023351898
0.0017980818
0.0037945623
0.0051193004
0.004427433
0.003439842
0.002008946
0.0026195294
0.003452512
0.0035640823
0.002978933
0.0018904051
0.0018397783
-0.0017454815
-0.0061343103
-0.0062540476
-0.00609759
-0.0042995694
-0.0022275622
-0.0034161264
-0.0032206404
-0.0019483054
-9.887277E-4
-2.3470617E-4
-0.0023246424
-0.0027706276
-2.801026E-4
-0.0010576519
-0.0021479654
4.2058338E-4
0.0023560533
0.0022408748
0.0032454417
0.0045379796
0.0028098351
0.0015787096
0.0033958282
0.0033339458
0.0013718542
-5.721079E-5
-9.234026E-4
-0.0012695176
-0.0024212205
-0.0012878597
6.483701E-4
-7.766307E-4
-2.9924302E-4
5.734066E-4
7.9921907E-4
0.0037214498
0.0010716111
-0.005275477
-0.005536206
-0.003605631
-0.003717306
-0.004093849
-0.0023945444
-2.9040218E-4
6.248373E-4
0.0021810068
0.0025415842
0.0032140154
0.0050221863
0.0038435785
0.0030580177
0.0026584682
-0.0011850498
-0.0039879093
-0.002801463
0.0013852236
0.006080531
0.007246234
0.005164122
0.0030838982
8.1772404E-4
-0.0031363757
-0.0048735496
-0.003099633
-0.002590187
-0.0023229234
-0.0018836089
-0.004074585
-0.003674462
3.1537926E-4
6.922361E-5
-0.0022348624
-0.001493108
-0.0024532757
-0.004197901
-0.0024558352
-0.0017864358
-0.0024370826
-0.0019886126
-0.0017495315
-2.61914E-4
6.5100595E-4
6.9784437E-4
0.002510598
0.0022935015
7.733445E-4
0.0010031076
7.424163E-4
1.9368534E-4
6.3093915E-4
0.002689295
0.0034814423
0.0011979557
0.0020115362
0.0060718483
0.00805953
0.0064733885
0.0036637823
0.0039290464
0.0024659783
-0.0019878391
-0.001534791
-1.831756E-4
-5.660924E-4
7.70615E-4
-6.1142497E-4
-0.0041853604
-0.0051623615
-0.0032135146
-3.3272835E-4
-4.7310378E-4
-0.0030342713
-0.00466124
-0.00418255
-0.001322489
0.0013653886
0.0016154734
2.9362904E-4
-5.284347E-4
-3.374902E-4
-0.0012145287
-0.0034179555
-0.00420635
-0.0017818377
0.0010975366
0.0012028506
1.1218983E-4
-0.0014024784
-0.002973772
-0.0025683304
-0.0014059956
-4.3333275E-4
5.288998E-4
0.0017138987
0.0026580312
9.109088E-5
-0.002381829
3.323179E-5
0.0027465767
0.002726882
-2.7426795E-4
-0.0023001174
0.0014460759
0.0051066484
0.0073558064
0.011213922
0.01379346
0.014413073
0.010269225
0.0011051982
-0.0074852365
-0.0127169695
-0.011767711
-0.0075032515
-0.0057940353
-0.005362056
-0.0036689288
-0.0027089822
-0.0042243437
-0.0021370773
0.0011089841
-0.0016358984
-0.0018833978
-5.590885E-4
-0.0030628121
-0.0026598612
-9.640084E-4
-4.089785E-4
-1.6446803E-4
-3.455395E-4
9.947486E-4
0.0016019857
6.5606483E-4
-3.529571E-4
0.0020088693
0.004404535
0.0027131925
0.0042940294
0.0022482213
8.848888E-4
0.0079069855
0.0024096125
-0.0035355724
-0.001890763
-0.008773775
-0.007953301
-0.0032568013
0.0017319324
0.011276738
0.0051555918
0.0030058941
0.0072314194
-0.0029737302
-0.003554649
0.0015047373
8.39278E-4
0.001934737
-0.0033360717
-0.004054673
-0.0010072046
-0.0050091534
-0.0028098277
0.0026390064
-8.9592027E-4
-0.010633824
-0.011455512
-0.0014931599
0.0016885921
4.6028296E-4
2.2539511E-4
2.5389518E-4
0.0042101936
0.0029687274
-6.429282E-4
0.0014823257
0.0023774372
0.0029437216
0.0035620043
0.0018649537
0.0011758191
0.0011099541
0.0010958805
0.0020787464
0.0020681072
-0.0012800447
-0.002426206
4.1220192E-4
-0.0011711771
-0.0031963354
-0.0016559785
-0.0024968493
-0.0023045933
0.0010040157
0.0033386224
0.0024742878
-0.0011927817
-0.0029415393
-0.0024635908