0.001046465
3.794452E-4
-2.4342924E-4
-7.421625E-4
-0.001930582
-0.0018144272
-2.3265283E-4
1.2273675E-4
-7.774076E-4
-0.0014343658
-7.561032E-4
5.944873E-4
7.238418E-4
1.970281E-4
3.068382E-4
0.0012240247
0.002683649
0.0030916266
0.001312754
-3.9879954E-4
4.7747736E-4
0.0019368544
4.60894E-4
-0.0015673434
-4.3717922E-5
3.5585358E-4
-0.0017992907
-6.6310534E-4
-0.0014913306
-0.003278445
0.0011155076
-5.0737994E-4
-0.006091223
-0.002396152
0.0013913618
0.0020160421
0.0016240871
-0.0012567264
-5.942295E-4
3.3390985E-4
-3.1778245E-4
0.0021771402
0.0033484346
0.0022198646
5.936395E-4
-0.001214166
-0.0010952521
-4.751653E-4
9.809713E-5
8.897432E-4
0.001163329
0.0016843573
0.0017471099
5.0612405E-4
-4.0763375E-4
-4.5438883E-5
-7.585184E-4
-0.001951292
-9.5005747E-4
-2.4691276E-4
-0.0012162697
-0.0021327608
-0.0017766278
-6.630713E-4
-5.679455E-4
-4.6574956E-4
1.8351353E-4
0.0011771107
0.0015060682
1.0052728E-4
1.946456E-4
3.3335885E-4
-4.0476845E-4
5.3929474E-4
-1.6530678E-6
1.598788E-5
0.0014263745
5.864085E-4
9.162711E-4
0.0015775488
9.456417E-4
6.224545E-4
-3.8867077E-4
-3.4199728E-4
2.8374718E-4
3.764848E-4
1.5475386E-4
-0.0018742206
-0.0031990607
-0.001955193
5.4959266E-4
0.0018636243
0.0016020272
0.0020161215
6.2512624E-4
-0.0017776749
-0.0019375592
-0.0018941652
-0.0022728574
-0.002043646
0.0010339222
0.0033208576
0.0010014757
0.0011093772
0.0010086779
-0.002873115
-0.0029529915
-0.0020081303
-0.002171607
1.6777472E-4
0.0015420552
4.735801E-5
-0.0012313481
0.0012529207
0.0024805323
-0.0014269685
-0.0012923351
0.0014572474
3.3213533E-4
2.724459E-4
0.0011391931
0.0019117359
0.0034302268
0.0025672747
0.0019281717
0.002220121
9.5877453E-4
0.0010736492
0.0023372397
0.0025247254
1.962827E-4
-0.003135819
-5.0563924E-4
0.0025284942
-0.001742666
-0.0038405082
-0.0029308212
-0.0052717207
-0.0057673506
-0.004113257
-0.0024873703
-1.8533508E-4
-7.2986825E-4
-0.0013277222
9.916909E-4
7.822709E-4
-0.0013452949
-8.547007E-4
4.920711E-4
9.760552E-4
0.0031563656
0.004791093
0.0015258413
2.3623325E-4
0.0035126533
0.0026619898
-1.6152926E-4
7.655895E-5
9.322274E-4
0.002242405
0.0023642376
0.001412129
0.0010651347
-0.0012940313
-0.0022333215
-4.8726978E-4
-0.0014408408
-0.0025888106
-0.0017326941
-3.4828557E-4
6.131877E-4
-0.0017444675
-0.002945039
-5.174332E-4
-8.6264405E-4
-8.464863E-4
0.002998818
0.004658261
0.0027296934
4.1814352E-4
-3.3086003E-4
-8.405326E-4
-0.0025628922
-0.0023532403
-6.19148E-4
-8.4680057E-4
-7.980411E-4
2.6120705E-4
-3.1779622E-4
-6.5177196E-4
3.029682E-4
3.9080097E-4
4.932354E-5
-5.658649E-4
-0.0014780057
-0.0012885008
-1.9334359E-4
0.0012360218
0.0024241419
0.003086378
0.0023357347
5.114113E-5
-0.0011543595
-0.0020269009
-0.0013301476
0.0016963988
8.1746763E-4
-3.67884E-4
0.0016125996
0.001175202
6.742379E-5
-0.0017735562
-0.003461145
-4.469379E-4
0.0021846953
0.0016119342
-7.131467E-4
-0.0015751368
0.0014257006
0.002039799
9.09834E-4
0.001136103
4.4691027E-4
-4.4146486E-6
-0.0020845078
-0.0029581676
-6.207903E-5
-3.8375176E-4
-8.1650127E-4
0.002230006
0.002817702
0.0011281054
3.0352257E-4
-9.605107E-4
-0.0024869263
-6.875995E-4
-8.3790335E-4
-0.006302853
-0.0061363457
-0.001377474
9.2410645E-4
0.0027874215
0.0021994158
0.002176716
0.0042529255
0.0029067697
0.0012303413
-3.718483E-4
-0.0019943996
-7.0498476E-4
-9.1301044E-4
-0.0010335756
0.0015901787
0.0018884087
-1.4455372E-4
-0.0015038665
-9.2769135E-4
1.528311E-4
-4.1496364E-4
-2.0118798E-4
0.0014552888
0.0023084593
7.8411965E-4
-0.0024215146
-0.0022604852
3.282543E-4
-3.9291775E-5
-7.0627226E-4
-6.387207E-5
-2.8996356E-4
3.3416605E-4
0.0010442138
4.327796E-4
0.001223144
0.0028874713
0.0030090327
0.0016990852
9.913704E-5
-0.0010141943
-0.002065342
-0.0019151027
-8.916795E-4
-0.0014713604
-0.0020074428
-0.0013288866
-1.8451971E-4
2.0714168E-4
-0.0012178303
-6.9396093E-4
4.0453517E-5
-0.0023354073
-0.0015754169
6.403409E-4
-8.728254E-5
5.266576E-4
7.2735053E-4
-2.2950917E-4
0.0014422253
0.0018725607
-2.9518467E-5
2.2141132E-4
0.0014519367
0.0012704595
1.21674595E-4
-0.0013793615
-9.0586336E-4
0.0022609348
0.004189645
0.0030281923
4.1035525E-4
-0.0013051411
-3.373847E-4
0.0010245742
4.4710447E-5
-0.0022600475
-0.002944425
-9.6817367E-4
4.7634868E-4
5.1762454E-5
-5.991495E-4
-2.56175E-4
0.0010403608
1.630671E-4
-8.426527E-4
6.303616E-4
-0.0010857035
-0.0043109925
-0.003426056
-0.0013815424
-5.2578945E-4
-1.8132283E-4
3.7190923E-4
0.0011678803
0.0014936762
0.0021253398
0.0030453934
0.002073562
-0.001115164
-0.0029921161
-0.0028457604
-0.001627719
0.0020261854
0.004030165
0.0024623729
0.0015904699
0.0019491584
0.002409345
7.701726E-5
-0.002305552
-3.1474588E-4
-6.1627035E-4
-0.0011145076
0.0024009473
0.0019050793
-7.0592115E-4
-9.522268E-4
-0.001181137
-9.365852E-5
4.6951635E-4
-8.6613785E-4
-7.812416E-4
-0.0012023222
-0.003588421
-0.0037925756
-0.0018738207
-4.3146196E-4
9.0570626E-4
8.465008E-4
2.603564E-4
6.8157114E-4
-3.0492415E-4
-0.0010148741
-1.4636286E-5
4.997242E-4
2.66759E-4
-3.6124352E-4
-2.2779693E-4
5.113985E-4
0.002141626
0.0043130633
0.0042172247
0.004429578
0.003641361
-5.3513877E-4
-0.0017578454
-0.0014146428
-0.0018381295
-2.66202E-4
-7.908757E-4
-0.00271408
-0.0016775503
-3.7163522E-4
-8.3435443E-4
-0.0014027224
-6.589868E-4
-3.093092E-5
-5.309698E-4
-4.4191786E-4
5.641901E-4
-4.8442642E-5
-0.002380493
-0.0019651535
3.515341E-4
0.0013512854
0.0024296073
0.0016463685
-2.6041712E-4
2.5536795E-4
1.1562999E-4
-0.0013551287
-0.0014327462
3.0531088E-4
0.0020050304
0.0013058179
1.2210682E-4
-3.0698476E-4
-0.0010897793
-0.0011332255
-7.5195485E-4
-8.9789403E-4
4.0846004E-5
0.0013192937
-7.1406655E-5
-7.710699E-4
0.0020572408
0.0030082369
0.0017655818
0.0017382065
0.0012287316
-4.0443902E-4
-0.0011236633
0.001005332
0.0026157412
5.4199714E-4
-8.784119E-4
-7.025739E-4
-5.648873E-4
-7.850235E-4
-0.0031023964
-0.00495308
-0.0037078736
-0.0017239182
-8.2762947E-4
0.001413573
0.0036095942
-4.3907974E-4
-0.0038377503
-7.366125E-4
-2.0679629E-4
-0.0016817162
-3.6574694E-4
4.9631775E-4
0.0010450187
0.0021311066
0.0021478678
9.667643E-4
0.001196105
0.002869651
0.0027333784
0.00191392
0.0013157194
0.0013413607
0.0023115426
0.0015876743
7.0119137E-4
-1.02202604E-4
-0.0012459935
-0.0010137841
-0.0029524276
-0.00491445
-0.003194107
-0.0014379447
-0.0011897117
-0.0032384363
-0.002686714
0.0016609118
7.4574706E-4
3.9119717E-5
0.0024837782
-8.0450467E-4
-0.0022979595
8.55884E-4
-6.0940743E-4
-0.0025702978
-7.5730623E-4
0.0015575719
0.0027382886
0.0028522348
0.003205413
0.0019118859
0.0013368552
0.0047417874
0.004147197
4.3870253E-4
9.425362E-4
0.0020654749
0.0025259892
1.13538845E-4
-0.005670443
-0.006200866
-0.0044997423
-0.0052650026
-0.0039034951
-0.0026072483
-0.0018350114
7.1277254E-4
0.0015179036
5.199927E-4
2.35699E-4
5.583135E-4
3.2242987E-4
-3.8846387E-4
-7.303278E-5
0.001249268
0.0020189069
0.0010911544
7.2178413E-4
0.0019138247
0.0020092416
0.0021578914
0.0022134657
0.0013209723
0.0014494199
-7.892265E-4
-0.0030458546
0.0010753251
0.0039829668
8.8166606E-5
-0.0044352286
-0.0053625605
-0.0028744242
-3.779595E-4
-4.6506416E-4
-5.4864294E-4
5.1482423E-4
0.0011186599
0.0010682307
-2.6122067E-4
-0.0018986417
-0.00100072
6.9159304E-4
0.0012384461
0.002301369
0.0028351285
0.002019594
0.0025523684
0.0038393054
0.002131346
-0.002848702
-0.0066189487
-0.005183779
-0.0014164776
-2.0381635E-4
-1.04485654E-4
-5.1309053E-5
-0.0017672242
-0.0016103832
0.0020255833
0.0031429105
0.001013692
5.2257086E-4
7.1265793E-4
-2.846643E-4
1.2987407E-4
6.2102993E-4
-6.259333E-4
-6.667204E-4
-1.4104381E-4
3.0217413E-4
0.0016194703
0.001286519
8.551431E-4
0.00239209
0.003474262
0.002195346
-0.0019974709
-0.004139187
-0.002692762
-0.002756809
-0.0018619201
2.5429908E-4
-1.3554367E-4
-2.2177832E-4
-2.6092504E-4
-0.0012742077
-6.424748E-4
8.1340264E-4
9.3134615E-4
-6.8680354E-5
4.5393294E-4
0.0015175927
9.889138E-4
0.0015110826
0.0010905594
-7.4182375E-4
2.6518482E-4
1.4947625E-4
-0.0017406702
-4.6131184E-4
0.0013462177
6.7624333E-4
-6.800122E-4
-3.0741785E-4
4.6632785E-4
-7.2948216E-4
-9.90228E-4
6.3185516E-4
0.0014116323
8.526605E-4
1.2251182E-4
2.9215735E-4
-9.300126E-4
-0.0035628509
-0.0032816452
-0.0011192069
1.5800488E-5
6.692569E-4
0.0015223102
0.0018831362
0.0017783976
0.002722076
0.0028975143
0.0015174905
5.816298E-4
-0.001346945
-0.0029466634
-0.002873419
-0.0026514921
-0.0012413416
-7.028236E-4
1.3319246E-4
0.0032772545
0.002612664
1.5228914E-4
-2.327897E-4
-0.0012389116
-4.718951E-4
1.3435284E-4
-0.0016260593
-2.4541694E-4
0.001967339
9.45874E-4
1.0041524E-4
6.339576E-4
1.8762011E-4
-0.0010423239
-7.0142455E-4
-9.6197193E-4
-0.0027902364
-0.0020142745
-1.15244104E-4
0.001126552
0.0022812444
0.0010341769
7.0993864E-4
0.0017693433
6.8690188E-6
-1.8806409E-4
6.709587E-4
-8.111192E-4
-6.344024E-4
-5.465371E-4
-0.001195365
5.277311E-4
0.0012310247
2.4704894E-4
-6.487698E-5
6.0443033E-4
8.4909704E-4
-0.0010950839
-0.0016258415
3.7924162E-4
0.00130744
0.0012717377
7.804169E-4
-5.041263E-5
-4.9862714E-4
-2.8219918E-4
-2.580538E-5
-8.4314327E-4
-4.87284E-4
0.0013242379
0.0016319145
8.111285E-7
-0.0020824
-0.0022964755
-0.0016343103
-0.0011602427
6.098818E-5
-2.4061973E-4
-0.0010327804
-5.976504E-4
-2.8801462E-4
8.547671E-4
0.0017716342
0.001297311
-6.308538E-4
-0.0026634028
-0.0015162784
-0.0010681672
-0.0022731922
-3.1739887E-4
0.0015224748
9.535687E-4
5.904073E-4
0.0020247272
0.004550218
0.0034858813
4.8768557E-5
5.4755143E-4
0.0030758292
0.0031466535
0.0020629577
-2.265738E-5
-0.00368473
-0.004205831
-0.0012390782
0.0014507923
0.0028712412
8.7110425E-4
-0.0014126642
-0.0012269488
-9.97487E-4
0.0013104713
0.0010659667
-0.0030384585
-0.0018950435
0.0013145297
0.0022130385
-4.0187585E-4
-0.004986488
-0.002022095
-0.0015582663
-0.007951708
-0.0031663317
0.0037915604
0.0014082476
-1.1371405E-4
-0.0013445846
-0.0022045511
-2.2076326E-4
-3.676571E-5
1.2781318E-4
4.0642367E-4
-7.002375E-4
-3.4775978E-4
8.086147E-4
0.0024677974
0.0046827234
0.0060517406
0.006689128
0.005390839
0.0026438874
9.843723E-4
-3.3329587E-4
-0.0021358007
-0.002510405
8.27811E-5
0.004789215
0.007370132
0.0036771614
-0.0021169016
-0.002906141
-0.0010838893
-0.0028738019
-0.0063821166
-0.005435536
-0.0029655665
-0.0042845802
-0.005204397
-0.004973971
-0.005766008
-0.0040860814
-0.0014702202
-0.0011705884
-9.014268E-4
0.0013356601
0.0027176687
9.55105E-4
0.0016452224
0.0043628975
0.0041766576
0.0037310198
-2.2530998E-4
-0.0045894114
0.001106954
0.007519681
0.006743652
0.0042795343
0.0018349595
0.0014602453
0.0019417912
-2.0774249E-4
-0.0014928725
-4.0118137E-4
5.5684333E-5
-8.94572E-4
-9.1957406E-4
2.651047E-4
-9.567732E-5
-0.0011743633
-9.646684E-4
-3.7594553E-4
-0.0010321102
-0.0033971253
-0.0044892114
-0.002589377
-0.001513942
-0.0027634334
-0.0028407606
-9.948299E-4
8.679386E-4
0.001618839
-9.536425E-6
-0.0012772573
4.2688986E-4
4.3090273E-4
-0.0019150029
-0.0017461411
-6.222294E-5
7.354618E-4
0.0018424239
0.0031291672
0.002858436
0.0010796243
1.1159897E-4
0.001086324
0.0011976337
3.091236E-4
0.0019284661
0.0035231921
0.0024163148
0.0022032994
0.0036670284
0.0040196422
0.0023261616
9.490021E-4
2.2044127E-4
-0.001603158
-0.0020945654
-0.0037649935
-0.007587185
-0.0064749476
-0.0027190445
0.0016224193
0.0050455187
0.0011397512
-0.002051339
-0.0025190075
-0.0049072756
-5.778877E-4
0.0025250786
-0.0049511795
-0.008162465
-0.0038951428
-0.0029083986
-0.0061741876
-0.007074205
-0.0027136456
5.703747E-5
-0.0011121136
-5.660131E-4
1.5956268E-4
-0.0014593345
-0.0025359853
1.2459577E-4
0.006336118
0.007628499
0.0035095522
0.004336391
0.004485249
-0.0014854175
-0.003347564
-0.0010411979
6.112843E-4
0.001590044
1.9757313E-4
-0.0011683815
-0.0018086098
-7.527043E-4
0.005032113
0.010939573
0.015148038
0.016587386
0.0115015935
0.006501097
0.0058580027
0.0033194777
-0.0022439416
-0.0058744745
-0.007336199
-0.012396798
-0.021800123
-0.024695508
-0.01607933
-0.005869303
0.0010482394
0.0044697863
0.004937729
0.0098618595
0.016654413
0.022743741
0.028742189
0.02364976
0.013050931
0.0048418557
-0.006971952
-0.015749866
-0.020376693
-0.02260079
-0.01668385
-0.011818437
-0.015997624
-0.021714985
-0.022023628
-0.02068068
-0.016952
-0.007446848
-0.0047793887
-0.0081254775
-0.0034690627
0.007862555
0.013623533
0.008671742
0.013220449
0.024871856
0.02554075
0.031774566
0.043832507
0.056295622
0.063108824
0.048385203
0.042914968
0.045584418
0.02166539
-0.0056528524
-0.025040815
-0.044393726
-0.05861999
-0.074854486
-0.08699459
-0.081248485
-0.064942166
-0.059334412
-0.06131139
-0.047293648
-0.021406336
0.0044899792
0.024078269
0.042567976
0.07063661
0.07708409
0.046208315
0.0189942
0.022456318
0.032085583
0.01779145
0.0030897248
0.005304917
0.012049695
0.033561602
0.048830815
0.031369686
0.008855166
0.0034238892
0.018278053
0.037054513
0.02618326
-0.017117633
-0.06462838
-0.087452434
-0.075127
-0.044346735
-0.030769238
-0.04648825
-0.04896998
0.002413442
0.07435575
0.08643729
0.0287196
-0.030332455
-0.062472876
-0.0767457
-0.08039327
-0.07486634
-0.035477195
0.013260473
0.026321951
0.032924656
0.03469052
0.0068068025
-0.022472078
-0.0446329
-0.05214685
0.0018012194
0.09686966
0.15459716
0.19401576
0.26698115
0.29670325
0.22339123
0.09016173
-0.07799558
-0.21359222
-0.23280068
-0.18331662
-0.14396669
-0.1072714
-0.052649125
-0.010525024
0.007139731
0.010457099
-0.019571794
-0.054323606
-0.05689343
-0.04468696
-0.041167296
-0.07185697
-0.09086845
-0.061968658
-0.05467646
-0.07482409
-0.06364092
0.010431333
0.09961207
0.14227489
0.19657505
0.21735042
0.13670257
0.099602334
0.12538874
0.12013182
0.09767628
0.028191343
-0.10281917
-0.21931167
-0.26907855
-0.23509568
-0.115009815
0.032678157
0.12717439
0.16806035
0.1720205
0.15772645
0.13439743
0.06931158
0.014959337
-0.044527635
-0.15641811
-0.1775647
-0.13578835
-0.16942549
-0.18744561
-0.12787226
-0.024089262
0.084023364
0.14512448
0.16701308
0.15325996
0.09571839
-0.00913866
-0.13045186
-0.14235637
-0.04396935
0.010829051
0.017307747
0.04571655
0.041504912
-0.007328453
-0.03653741
-0.038675934
0.014364742
0.120118245
0.180353
0.16308546
0.11863898
0.070728466
-0.038010616
-0.19795907
-0.2406599
-0.14948009
-0.07817979
-0.059303965
-0.05214958
-0.03709674
0.0012699293
0.05293666
0.07726863
0.05587526
0.04931652
0.094855696
0.115847066
0.053093284
-0.0150826
-0.010384487
0.010928308
-0.0024977576
-0.025767524
-0.027398447
0.002603952
0.028329173
0.04172662
0.05555656
0.042078786
0.02352065
0.019391127
-0.015728116
-0.07536107
-0.10764098
-0.116323605
-0.13088574
-0.12611616
-0.08066778
-0.020054067
0.028077915
0.04740616
0.060988322
0.056630917
0.0052976464
-0.010311212
0.026886193
0.043468453
0.055237763
0.060425237
0.032369178
0.0044741267
3.9392037E-4
0.020868862
0.03716244
0.026383365
0.02065665
0.021963445
-0.0019996283
-0.038525783
-0.0572411
-0.047148358
-0.019399336
-0.005987381
-0.009659765
-0.009657943
-0.014506868
-0.02186702
-0.01767543
-0.0121167395
-0.005178415
0.0062065497
0.014463234
0.01738615
0.018030772
0.02316029
0.020820595
0.0063458504
0.0025792602
0.009941422
0.01507173
0.010999858
-7.8354985E-4
-0.003829703
-0.003900685
-0.012043867
-0.015154084
-0.016901204
-0.02595331
-0.026952479
-0.01429953
-0.0021554488
0.001665301
0.002510331
0.0061322814
0.007291683
0.0027503837
0.0015266566
0.005332933
0.00854215
0.0108761545
0.008586842
8.935188E-4
-0.0044776155
-0.0061149267
-0.0050089615
-0.001006675
0.0015170536
-0.0011677181
-0.008365531
-0.013666813
-0.014728744
-0.01654237
-0.015360279
-0.008830999
-0.0018221751
0.010334804
0.022630626
0.022691984
0.021219078
0.024995657
0.025957631
0.025118398
0.021821301
0.017341394
0.014589288
0.0025237377
-0.015318212
-0.02192288
-0.01843918
-0.012902575
-0.009614904
-0.008299846
-0.003999534
0.0032477907
0.006374447
-0.0042949836
-0.021571413
-0.02679644
-0.028312111
-0.03660139
-0.035594214
-0.023601564
-0.014074566
-0.0075350427
-0.00263092
0.0018790425
0.0074729538
0.011736587
0.015265466
0.015705002
0.014292457
0.021221615
0.029751137
0.023538256
0.011005132
0.010246233
0.017073767
0.020423388
0.02268957
0.023589917
0.01817388
0.012332009
0.013279061
0.01621878
0.015080884
0.017209042
0.025147647
0.022188423
6.28168E-4
-0.028356388
-0.051264036
-0.059022885
-0.05314022
-0.043646548
-0.03615119
-0.026945071
-0.01842569
-0.019604048
-0.024603523
-0.025161074
-0.021805653
-0.016246838
-0.0132781
-0.011781403
-0.008875783
-0.0015683789
0.013919296
0.027398601
0.03509774
0.03979067
0.035892546
0.02813228
0.022632625
0.023209346
0.032128047
0.039199747
0.03929744
0.033068098
0.022444714
0.011108868
-1.318788E-4
-0.006729099
-0.01113822
-0.01618601
-0.01955556
-0.024701383
-0.02535693
-0.019932302
-0.016026426
-0.011591087
-0.010695276
-0.015522538
-0.01923666
-0.019018684
-0.015692359
-0.013299574
-0.011266967
-0.010351439
-0.010215377
-0.00428262
0.0013832545
0.003670254
0.006873546
0.00804701
0.009289726
0.012421349
0.016566405
0.01962881
0.01672396
0.0097253835
2.0282865E-4
-0.0074492116
-0.0068739373
-0.0034763888
-0.0031778743
-0.0033629667
1.1352014E-4
0.0032442447
0.0036541764
0.0031016595
-0.0020886702
-0.002031517
0.006078098
0.0077893124
0.00848617
0.008205691
0.0016934182
-8.832247E-4
-0.0034688055
-0.007817737
-0.0081643695
-0.008831739
-0.007721959
-0.0045401943
-0.0018249546
0.0019144547
0.0017328156
-0.0037110907
-0.009738299
-0.010983527
-0.005308717
-9.059862E-4
-0.002732795
-0.0062284805
-0.007960199
-0.007748014
-0.0059267106
-0.0034653854
-0.0022764064
-0.0020161155
-1.737961E-4
0.00526242
0.012455328
0.0201776
0.031326212
0.03444296
0.019133456
0.0018815363
-0.008760375
-0.018558757
-0.0217801
-0.017609648
-0.012945234
-0.008322622
-0.0043953615
-0.0021563135
-9.268379E-4
-0.0023570326
-0.005656376
-0.0059256717
-0.0037981023
-0.0034242414
-0.004297566
-0.006108753
-0.0073784855
-0.0060955198
-0.005971268
-0.0055920226
-4.15626E-4
0.0058579003
0.009746455
0.011120718
0.012321565
0.014621627
0.011855896
0.005427369
0.0025871634
-2.798847E-4
-0.0038048483
-0.0042366236
-0.004689481
-0.0052502574
-0.0037187962
-0.0018706843
-0.0012519322
-0.0023897893
-0.004200574
-0.0037288356
-3.4865392E-5
0.0029964503
0.0031551877
0.0029076042
0.002054219
4.386165E-4
-2.898379E-4
3.5309372E-4
0.002883554
0.003758107
0.0015043865
3.998097E-4
-8.335666E-6
-0.0011737722
-4.72473E-4
0.0028067795
0.0043844585
0.0014652924
-0.0020457185
-0.0044960296
-0.0064888387
-0.0060435864
-0.0036391907
-0.0016519128
-0.0015876641
-0.0013199201
4.6881344E-4
0.0013708598
0.0023499571
0.0015120191
-0.0015772608
-8.5772935E-4
0.0012746535
0.0011856351
3.9097827E-4
-0.0012608494
-0.0024764964
-0.0026731417
-7.474682E-4
0.0031031987
0.0036917445
0.0018709477
0.0015195688
9.7518956E-4
2.8626516E-4
0.0019079756
0.0035764498
0.0020185846
-3.6053447E-5
7.703361E-4
0.001980759
9.857438E-4
6.239462E-4
0.0016046289
9.783886E-4
8.413275E-4
0.0016443295
0.0012761506
3.5225214E-5
-0.0016943244
0.0012661968
0.0052938154
0.0014091529
-0.0026744655
-0.0041499343
-0.006747778
-0.0054104906
-7.761392E-4
0.0026060112
0.003169727
0.0024107625
2.9006117E-4
-0.0024005105
-3.1677927E-4
-0.002658372
-0.0083052525
-0.001625027
0.0032850164
-6.923233E-4
-1.6485066E-4
0.0025853207
0.003996325
0.0015404259
-0.0021755937
-0.001572238
-0.0033603138
-0.003440932
0.0024290604
0.00487852
0.0035808883
0.002767617
0.004144219
0.004310144
8.493621E-4
-2.4383728E-4
-5.030146E-4
-0.0020084465
-8.7430223E-4
0.0019822032
0.0056297
0.007947056
0.007011187
0.0040571894
-0.0012694146
-0.0077061127
-0.011093701
-0.007348205
-0.0024021831
-0.0039396025
-0.0042660786
-0.002400101
-0.0034715787
-8.55539E-4
0.0025703344
0.0016900958
0.0020354665
0.002560263
0.0024992956
0.0025178173
3.0055406E-4
-6.842738E-4
6.803099E-4
0.0033641213
0.0061561847
0.0037903213
-4.0496688E-4
-0.0010509933
-6.759997E-4
0.0012043428
0.003161723
3.762962E-4
-0.002943225
-0.002413078
-0.0015694302
-2.1508844E-4
0.0013492431
-0.0021889412
-0.0057531227
-0.0044524516
-0.0027340765
7.8807626E-4
0.0032980444
8.118417E-4
0.0010207897
0.0040757367
0.004795259
0.0045433883
0.004160967
0.003844679
0.0035644053
0.0025301476
-0.0012616321
-0.005274432
-0.002902718
5.966049E-4
-0.0010529433
-0.0040125246
-0.0056434423
-0.0039020109
-1.8762921E-4
0.0016946879
0.001593732
-0.001863336
-0.005038477
-0.0035435432
-0.0019730278
-0.0011131518
0.0021547643
0.0045242696
0.0036675246
0.0034962138
0.0043740245
0.0025685534
0.0012930068
0.0029929641
0.0022039379
-5.9721945E-4
-8.8587607E-4
-0.0010723219
-0.0013911711
5.406835E-4
8.1009034E-4
-7.3204417E-4
-6.581725E-4
-7.311112E-4
-2.006952E-4
0.0010642493
0.0011600673
0.0017089256
0.001428437
7.471684E-5
-0.0016032426
-0.004072818
-0.0031120528
-3.258383E-4
-7.0786674E-4
-0.0012633998
6.532533E-4
0.0027112071
0.0028076565
0.00340626
0.003321321
6.9499185E-4
0.001455297
0.0017904051
-0.0015521207
-0.0014399644
-0.0016422602
-0.0030134125
-0.001090652
4.466804E-4
0.0016006863
6.89127E-4
-0.002407175
-0.0020611247
-0.0017420758
-0.0024214275
-0.001216436
-0.0014215913
-0.0010016765
0.0019042278
0.002892829
0.0026407265
0.0033756527
0.0031472982
0.0016934844
3.8312745E-4
-3.5588676E-4
-8.710324E-6
-3.4197562E-4
-0.0020711166
-0.0017892764
7.72907E-4
0.0033375097
0.004185397
0.0024851258
0.0016122467
0.0017309682
-0.0012413501
-0.004203931
-0.0029811629
-0.0011325994
-0.0019178403
-0.0032423437
-0.0037612657
-0.0038126
-0.0024178312
-0.0016448369
-0.002504285
-2.1314024E-4
0.0044601094
0.006444714
0.0067380536
0.007754907
0.0067340825
0.0012210299
-0.0018981387
6.76624E-4
-1.864885E-4
-0.0042362036
-0.003825712
-7.200771E-4
0.0017224994
0.0015502403
-8.012567E-4
-0.0020052984
-0.0012467037
0.0011616362
8.297444E-4
-0.002516597
-0.0017703056
9.5721036E-5
-7.5310486E-4
-8.0817536E-4
-1.6862329E-4
3.8938766E-4
-0.0011084765
-0.002752868
0.0015563113
0.0037544782
-0.0027936634
-0.0057715084
-0.0011157704
6.166503E-4
4.4988515E-4
0.002975388
0.0022772648
-1.7115187E-4
6.423251E-5
4.0720354E-4
0.0011561132
1.0000731E-4
-0.002013879
-1.6391528E-5
0.0014972568
0.0015399543
0.0030266996
0.0022245427
0.0012709658
0.0032314898
0.0035572057
0.0017923224
0.001720413
0.002566838
0.0029411197
0.0023184393
-7.6608005E-5
-8.4745995E-4
-0.0010925537
-0.003572053
-0.004505589
-0.0056974706
-0.007046045
-0.005317409
-0.0042134253
-0.0034267535
-0.0024847956
-0.0015162869
-1.1779751E-4
-0.001827673
-0.0016327322
0.0022379402
0.0037735
0.0034904233
0.0014478738
-1.14717106E-4
-3.122296E-5
2.9791528E-4
0.0026716527
0.003460635
0.004116855
0.006133298
0.0048574596
0.0049153278
0.005143891
0.0021980922
4.47678E-4
-0.0014435803
-0.0016208689
8.247602E-5
-0.0013049527
-0.0029804886
-0.0031275654
-0.003363456
-0.0044168364
-0.0044497196
-0.0025447416
-0.0032788918
-0.004585984
-0.0029022885
-8.613397E-4
0.0015327578
0.0024505444
0.0010676151
7.975397E-4
0.0011319697
0.0015961907
0.0019856174
-2.0281797E-4
-0.0018948647
0.0010371417
0.0038122314
0.0025928346
7.796669E-4
5.459314E-4
0.0013029951
0.0013624325
0.0014030135
0.0026969595
0.002029229
-3.5788576E-4
-0.0024833255
-0.0033587539
-0.0017184026
-0.001619882
-0.0018962817
-6.1841786E-4
-0.0025674568
-0.003157485
-5.5670575E-4
-1.7538577E-4
0.0013654543
0.0047230474
0.0056099338
0.0037617078
8.633351E-4
1.9638276E-6
0.0012300058
0.0010527419
-6.7907455E-4
-0.0012537692
-0.0011108378
-0.001706346
-0.001952343
-0.0029279538
-0.0041216835
-0.002354416
-1.6912664E-4
-8.901456E-5
3.9283893E-4
0.0020494673
0.0022526444
1.5745434E-4
-0.0013581475
-3.024841E-4
9.17977E-4
2.2377625E-4
8.188272E-4
0.0021542374
5.0793745E-4
3.1277194E-4
0.0022936908
0.0021701541
0.0020901237
0.0028222299
0.0029287094
6.999371E-4
-0.003244247
-0.0029511028
-2.2395591E-4
-9.055475E-4
-0.0027147476
-0.0022523967
-0.0011246749
-0.0016280385
-0.0020217474
-0.0020060295
-0.0021942428
-0.0018215826
-0.0019983759
1.2484132E-4
0.0024828939
-5.388279E-5
-7.9987367E-4
6.4638513E-4
3.6153308E-4
0.0025313308
0.005006146
0.0047132275
0.004223999
0.004392439
0.0031723
-0.0012249227
-0.0036742825
-0.0021411907
-0.002849596
-0.004590666
-0.0023029677
9.964906E-4
0.0022275618
0.00481926
0.0072302143
0.002646977
-0.0042222254
-0.00542026
-0.004841017
-0.0045735347
-0.0020613205
-0.0016264307
-0.0029304326
-8.215532E-4
5.767514E-6
-6.9857994E-4
0.0016925143
0.0026235632
0.0016703241
0.0022126725
0.0037356245
0.00460343
0.001446874
-0.001537635
-3.0498E-4
1.3496508E-5
-2.8687908E-4
0.001382097
0.0026572654
0.0015508402
9.1478653E-4
0.001951152
-0.0015663304
-0.0053241686
-0.0023489376
2.8185733E-4
3.8044626E-4
-8.5780345E-4
-0.0023918797
-7.8695815E-4
-5.8689236E-4
-0.0010136224
-4.8547747E-4
-0.0037283928
-0.0032471227
0.0023549672
0.0029393553
4.2595124E-4
-8.990514E-4
-8.923359E-4
7.5039116E-4
0.0016608689
0.0013371848
0.0011629711
0.0016988534
0.0018885051
8.662104E-4
5.37456E-5
-0.0017763526
-0.0026438795
8.1359394E-5
1.3862996E-4
-0.0011211128
7.493554E-4
6.716278E-4
1.927591E-4
0.0013272355
0.0010188234
0.0012797863
0.0013513281
1.281201E-4
-0.0010503796
-0.0017363987
7.524698E-5
6.915979E-4
-0.0013924257
-0.0020915456
-0.002436485
4.6886547E-4
0.0056910445
0.0055167107
0.0034620813
0.0011612999
-0.0039020607
-0.006355051
-0.005557744
-0.0040169903
-0.0014868729
-3.6160272E-4
8.056177E-4
0.0038316338
0.0032168694
-1.4105765E-4
0.0012575047
0.0031354823
-6.5408496E-4
-0.0033981265
-0.0029685665
-0.0033951206
-1.627556E-4
0.004070434
0.0010514479
-7.880019E-4
0.0031590567
0.0028678013
-0.0013161725
-0.003027228
-0.002326167
-4.262335E-4
-1.0423391E-4
-7.7547046E-4
3.128656E-4
4.0950545E-4
2.4616183E-4
0.0021752967
0.0024900448
0.0018050061
0.0026020985
0.0015092241
6.885591E-5
0.0023502281
0.0030744015
-9.579673E-4
-0.0031676185
-0.0015445962
2.939375E-5
9.368096E-4
3.42595E-4
-0.0018992933
-0.0022927925
-8.041653E-4
8.712875E-5
-4.101019E-5
-0.0013239648
-0.0025518893
-0.0024932541
-0.002527592
-0.0034129834
-0.0031633086
-3.0891807E-4
0.0022583301
0.0018413074
0.0012075417
0.002465947
0.002967595
0.0015961145
6.143045E-4
4.2020145E-4
0.0015501906
0.003612076
0.002001412
-0.0011680584
-8.332819E-4
1.1387651E-4
1.2975388E-4
-6.6086574E-4
-0.002016292
-0.0011261231
2.0027068E-4
4.0181726E-4