0.0013365971
9.430935E-4
0.0013499039
7.3237583E-4
8.57041E-4
2.2765611E-4
-6.116445E-4
0.0011078059
0.0019094105
-4.4777486E-4
-0.002295385
-8.093054E-4
8.115465E-4
4.960162E-4
6.6702743E-4
9.80002E-4
0.0014001082
0.0032785113
0.004302395
0.0026910359
7.375144E-4
1.6131127E-5
-6.8824866E-4
-0.00234897
-0.0040379963
-0.0023693696
-1.10204826E-4
-0.0014023798
2.6393766E-4
0.0013163203
-0.0012676711
0.0021511654
-3.4522693E-4
-0.009819836
-0.0049473783
0.0030057586
0.002175958
0.001472496
-3.823929E-4
-0.0015134382
2.2790344E-4
2.6234487E-4
-3.8581726E-4
-2.6823537E-4
5.8263674E-4
8.20668E-4
0.0017526274
0.0044601336
0.003977602
0.0022429489
0.0024382845
0.0022235604
0.0016070459
7.2975137E-4
4.9293577E-4
-0.0012243158
-0.00522404
-0.0059950375
-0.0049001444
-0.005223916
-0.006028362
-0.0058075227
-0.0034414409
-0.0022247103
-0.0019149296
-0.0012791611
-9.7341003E-4
0.002070906
0.003350271
0.001675397
0.0028869677
0.0035726666
0.003727306
0.0044669006
0.0034476768
0.0020378304
2.2562282E-4
0.001197819
0.0034345693
0.004511504
0.007851042
0.0075319605
0.0057859244
0.006625963
0.005172135
0.0051877685
-2.1918993E-5
-0.00844331
-0.0060213106
-0.0044018063
-0.005800235
-0.0035593219
-0.004248738
-0.0036961024
-0.0013065996
-0.0015958163
-0.0030403356
-0.0060733003
-0.009200435
-0.00946455
-0.0010911892
0.007987729
0.0032323746
-0.00338504
-0.0025601732
-0.002204215
-0.0034257087
-0.003400241
-0.002603739
-0.0038112113
-0.00446305
-0.0044904198
-0.0069900122
-0.003618942
0.007524709
0.015036495
0.012468985
0.007964876
0.008465042
0.0065548248
0.004922427
0.005441015
0.0028634772
0.0023288054
-0.003109644
-0.007872812
0.0014859078
0.0057471134
0.0035995233
0.006033333
0.0044705993
0.0021455064
0.0016526538
7.939674E-5
-5.667385E-4
-0.0010033156
-0.0015224994
-0.0060442677
-0.010064171
-0.0061508925
-0.0035887265
-0.0049154116
-0.003142458
-0.002561584
-0.0062611974
-0.003602072
0.003970417
0.00112649
-0.004957991
-0.0044829054
-0.0035066388
-8.615972E-4
0.0013553656
5.3187046E-4
6.1170367E-4
-3.0984037E-4
0.0010373486
0.00365138
0.0010704752
-8.2027086E-4
-5.212163E-4
-4.4896133E-4
8.540911E-4
0.001558003
0.0034398758
0.0052708634
0.0038493096
0.0030192686
0.0013586833
-0.0011827468
4.6963623E-4
0.0031584941
0.003833301
0.003997812
0.0032886525
3.761826E-4
-0.0022922633
-6.697505E-4
1.09727895E-4
-0.0019481387
-7.569249E-4
-8.321186E-5
-9.789858E-4
-4.736231E-5
-5.638124E-4
0.0010254357
0.0040176297
0.0011411521
-0.0019386346
-0.0021079327
-0.00381843
-0.004835296
-0.0042810454
-0.004724277
-0.0030371302
-2.8595733E-4
-0.001935156
-0.0020146258
0.0010482685
9.237318E-4
0.0016482183
0.0027102602
0.0015772271
0.0019444317
4.1561454E-4
-8.432139E-4
0.0018251282
0.002979959
0.0035529288
0.003458368
6.762808E-4
-2.9506008E-4
-3.9123528E-4
-0.0013916132
-9.590936E-4
-5.554735E-4
-3.5294876E-4
6.823984E-4
7.555767E-4
2.3294185E-4
-2.547191E-4
-2.8902703E-4
0.0013670233
0.0016332027
-1.8790111E-4
-0.0011789843
-0.0016107175
-3.530162E-4
1.4915433E-5
-0.00331206
-0.0041387174
-0.0034368432
-0.0050371075
-0.0037188726
-5.062623E-4
-2.7764516E-4
-3.7385672E-4
0.0016109687
0.002212524
-1.2969374E-4
-0.001587974
-0.0016754502
-0.0016557558
-8.563907E-4
-8.479883E-4
-0.0012738447
-3.703829E-5
0.0025838146
0.0055662207
0.0078138495
0.010432985
0.013715815
0.013447587
0.008039459
0.0014760122
-0.0028409574
-0.0042868075
-0.003586192
-0.0032206534
-0.0043209335
-0.0048868484
-0.0045716423
-0.004874894
-0.0057494394
-0.0056429547
-0.0038926145
-0.0017090038
-0.0016257481
-0.0042518913
-0.004803573
-0.0023169708
-0.0011925539
-4.5436004E-4
6.3020654E-4
0.0013383942
0.0015211367
-5.9599977E-4
-4.684657E-4
0.0027031917
0.0036135986
0.003914183
0.0028189938
6.5380783E-4
9.631116E-4
4.762019E-4
2.2911369E-4
0.0014667041
5.5741327E-4
5.402896E-4
0.002851772
0.003207933
0.0015085371
-2.2395569E-4
-0.0028796827
-0.0044971816
-0.0017944755
0.0013734358
0.0032155088
0.0039194236
0.0026717503
0.0045014005
0.0061037242
0.00321912
0.0013133092
-0.0015729741
-0.0040397015
-0.0023030513
-8.673016E-4
0.0010269366
7.2541146E-4
-0.0050273156
-0.008467696
-0.006749908
-0.005191565
-0.0060761506
-0.005097507
-0.0017503744
7.2058267E-4
0.0032053345
0.00331959
0.0025748997
0.0030208624
7.3877507E-4
-2.6462294E-4
-6.029247E-4
-0.0018170399
0.0010933771
0.0024930357
0.0023919232
0.004271349
0.0037422767
0.0028514252
0.0016866383
0.001271731
0.0030591714
6.138111E-4
-0.0026209606
-0.001360764
2.535824E-4
-7.111216E-4
-0.0023091165
-0.0017768872
-0.0023792018
-0.0026156576
1.3358354E-4
5.411665E-4
-1.4092926E-4
-0.0036688128
-0.008065903
-0.0015842917
0.0056747287
0.0045227064
0.0041741156
0.003261602
0.0010011472
0.00204328
0.0020978253
-0.0014183052
-0.0043106447
-0.0031757297
-7.7874813E-4
-3.1424704E-4
4.5974058E-4
0.0013174798
9.778829E-5
-0.001385454
-0.0015852752
-0.0010394758
8.2950114E-4
0.0037375716
0.0040396783
6.2330137E-4
-0.0037406476
-0.005849159
-0.0031700907
3.6990255E-4
8.872306E-4
0.001821433
0.0027919852
0.0021977604
0.002089757
4.4679665E-4
-0.0023914247
-0.0021337047
2.7745092E-4
0.0016873011
0.0013096976
8.1821956E-4
8.438383E-4
-1.8004948E-4
-7.5150037E-4
-7.279412E-4
-0.0022461615
-0.0027321586
-9.1213285E-4
6.3559745E-4
1.6590515E-4
-0.0017207387
-0.0015973294
-5.332797E-6
2.8447338E-4
8.8530337E-4
0.001172279
5.490437E-4
0.0014887215
0.0031151325
0.003782888
0.0018061727
-0.0018013617
-0.0016761714
-7.6779624E-4
-0.0027304809
-0.0024426864
-0.0010058415
-7.784253E-4
9.178838E-4
0.0012197302
-7.7152957E-4
-0.0027042716
-0.0029828928
0.0011774007
0.003915418
0.002210218
0.0015688672
-8.335815E-4
-0.0039301245
-0.0029427677
-0.0014128297
-3.250945E-4
-2.3646858E-4
3.157159E-4
0.0030061014
0.0028899857
0.0026783464
0.003269185
5.558907E-4
7.57949E-5
0.0016457126
0.0010761343
2.0908721E-4
-1.0716017E-4
7.4028823E-4
0.00101905
0.0016615434
0.0039560776
0.0031719261
-4.7798545E-4
-0.0043014083
-0.003978699
0.0013563372
0.0030133887
0.0013048708
-7.676242E-4
-0.003030792
-5.6808465E-4
0.0022839394
4.5474833E-5
-0.0053915023
-0.010293014
-0.010500572
-0.009883934
-0.008892499
-0.005408607
-0.004690596
-0.0034300182
8.334319E-4
0.0022980974
9.019791E-4
-7.511056E-4
-4.460524E-4
0.0018897079
0.0042723943
0.006237864
0.008730778
0.011868192
0.011718536
0.010504191
0.012145869
0.0123473555
0.011660559
0.010825485
0.008071106
0.004333135
-0.0012157855
-0.0043150797
-0.005051274
-0.007200091
-0.0056154625
-0.0041669095
-0.0077937185
-0.010064521
-0.0100211585
-0.010073051
-0.011233833
-0.012420201
-0.011315287
-0.010812166
-0.010115222
-0.0049420767
3.9997164E-4
6.9471326E-4
2.0027741E-4
0.0023988718
0.003981395
0.005263818
0.0074393833
0.009074925
0.010060043
0.008196299
0.006412167
0.007568985
0.0062992536
0.005896582
0.0074875066
0.0034269306
-0.0011314627
-0.0027283248
-0.00423664
-0.0024065166
-0.001207374
-0.0022908612
-0.0014474817
-0.0021585033
-0.0027142277
-0.002071762
-0.0023284676
9.430213E-4
0.0030048564
9.4050757E-4
-9.591194E-4
-0.0045493133
-0.0046195434
-3.41309E-4
0.0010544892
9.930119E-4
-3.4087547E-4
-5.034014E-4
6.3918397E-4
-0.0017002573
-0.0015833285
9.247112E-5
-8.929681E-4
0.0013274745
0.005124861
0.006429724
0.005670133
0.0024719578
-0.0040062633
-0.010922996
-0.00995462
-0.0041324925
-0.0022379216
-0.0010808199
0.0023211122
0.004537827
0.0024143509
5.9719576E-5
5.9941673E-4
-3.4301527E-4
3.722333E-4
0.0024899037
7.538415E-6
-0.0025203507
-0.002921638
-0.0014378355
0.0017500481
0.0026069179
0.0037862388
0.0052562715
0.0029458848
1.076535E-5
1.8190441E-4
0.0024646246
0.0015408867
-0.0014018731
-8.834437E-4
1.3659913E-5
3.0525547E-4
-4.0044455E-4
-0.003882208
-0.0048541497
-0.0032216366
-0.0013582974
0.0014616059
0.0030402201
0.004043005
0.0012312254
-0.0066974456
-0.008441503
-0.002777933
0.0020235651
0.0031396172
8.7516743E-4
-3.6980043E-4
-2.5538908E-4
1.1135171E-5
0.0033396615
0.006544943
0.006232278
0.0015662629
-0.0034829637
-0.0017962396
-7.176079E-4
-0.0032974193
-0.0020781604
-0.001466085
-0.0020897514
6.209654E-4
0.0035263337
0.0037021579
4.156422E-4
-0.0011291067
2.842648E-4
-2.8508308E-4
7.5548847E-4
0.0012440684
-0.0012397481
0.0011186827
0.0033523235
-2.112214E-4
-0.0024010092
-0.0020536026
-0.0016270494
-0.0021329315
-0.002957489
2.7827264E-4
0.00378932
0.0013748847
-0.0025877766
-0.00420518
-0.004323161
-0.0030751363
-0.0018272841
-0.0011793517
-2.5259546E-4
-9.25124E-4
-0.00155373
0.002838894
0.0066274307
0.0048285783
0.003393447
0.0015109888
-0.0019752453
-3.5694157E-4
0.004164211
0.004666367
0.002027275
-5.4231685E-5
-0.0013971269
-2.0200256E-4
0.00396056
0.0027970483
-0.0024186363
-0.0029997514
6.577738E-4
0.005156032
0.003243179
-0.0015809016
-9.522163E-4
-0.0031239039
-0.0055671483
-0.0026405063
-0.0022874707
-0.0046210866
-0.005795425
-0.0023481082
8.7429705E-4
-5.103342E-4
0.0010812737
0.0021851033
0.0030403389
0.0040260856
-8.3438586E-4
-5.450955E-5
0.0015868957
-0.0029900821
-0.0016820175
-8.1810955E-4
-0.0013832654
2.2595069E-4
-0.0027505083
-0.004628381
-0.002852528
0.002521859
0.00744855
0.0051495265
0.0036560486
0.0010988377
-0.0021611932
0.00376028
0.008569284
0.006308118
0.0017651607
-0.0050616753
-0.008645789
-0.0053754305
-0.0010980768
2.9632018E-4
0.0024082714
0.0027344965
-0.002388809
-0.004098285
-5.6415796E-4
0.0050771637
0.010630475
0.005781583
-0.0050082337
-0.010404691
-0.011648613
-0.007233047
-0.0023056667
-0.0036825994
-0.0025974596
0.0028541496
0.0058836844
0.0058267973
0.004496895
0.0039504217
0.002363134
-6.544658E-4
-0.0010511809
-2.8084093E-4
5.465158E-4
0.0010890184
7.072334E-4
0.0025573762
0.003046546
9.981054E-4
1.5154829E-4
-0.0025957453
-0.0043133018
-0.0023844757
1.5327416E-5
0.002925484
0.0027573823
-3.8355042E-4
-0.0050453036
-0.011513509
-0.014343705
-0.012643535
-0.0044628936
0.005508389
0.0068079466
0.0073754997
0.008527186
0.00521972
0.002949243
9.2507567E-4
0.00230492
0.0066719344
0.006130267
0.002193716
-0.004400263
-0.00621018
-8.817748E-4
2.8338854E-4
2.9485318E-4
0.0012035249
-4.130566E-4
-0.0019636732
-0.0036740485
-0.0034532514
-0.0026826323
-3.8708697E-4
0.0047188043
0.0021602244
-0.0033410494
-0.003923163
-0.0036882788
-6.4761867E-4
0.0011388509
3.6029494E-4
0.0013376803
7.290321E-4
3.157533E-4
-0.0010868027
-0.0028270078
-9.929971E-4
-0.002438506
-0.0035044618
-0.0030237231
-0.0073121646
-0.0066097225
-0.0033041255
-0.0042110146
-0.00205967
-7.2364724E-4
5.319585E-4
0.007197054
0.010971432
0.010757389
0.009793237
0.0072729504
0.0058577685
0.00587288
0.0073758215
0.009303837
0.008669016
0.008540273
0.008540808
0.004951247
-2.0417574E-4
-0.00845203
-0.019726578
-0.024035241
-0.018688487
-0.012689881
-0.009066165
-0.0039926595
-2.3182777E-4
-0.0018926227
-0.0028010656
0.0013677228
0.004268546
0.004088031
0.0059273997
0.009864678
0.0142168505
0.017873272
0.01883
0.018180776
0.015288674
0.009805639
0.0043053655
-0.0032087578
-0.011455234
-0.016905855
-0.021798518
-0.027615456
-0.034522753
-0.036685348
-0.03223108
-0.032599583
-0.03588292
-0.033938922
-0.032210037
-0.031194579
-0.021705618
0.0023458381
0.030147525
0.04515917
0.050800387
0.056405973
0.065855436
0.08121499
0.09671184
0.098674975
0.079606354
0.05571991
0.039287418
0.026485965
0.01719598
0.0026122134
-0.01366349
-0.027240794
-0.052210774
-0.07899479
-0.11056087
-0.14532967
-0.14858481
-0.13669153
-0.12627484
-0.0966129
-0.06113278
-0.030481791
0.0049838102
0.039296117
0.06328793
0.081107266
0.09622955
0.099539705
0.09608891
0.091717064
0.08598323
0.08629599
0.07606232
0.06898451
0.095766105
0.10058756
0.048573013
-0.013292202
-0.06618409
-0.1086669
-0.12274833
-0.12591852
-0.14903814
-0.16524182
-0.13937496
-0.08955877
-0.04433944
-0.014270003
0.01422007
0.045913197
0.062468786
0.07300871
0.07771688
0.07890709
0.096445754
0.101603806
0.10224637
0.122124135
0.12271457
0.11673397
0.09736798
0.008490902
-0.091830246
-0.13465647
-0.15034707
-0.16121103
-0.15227862
-0.122458905
-0.08483342
-0.068904236
-0.09073476
-0.074445456
-0.0020917545
0.019493742
0.0049075023
0.018195186
0.032133974
0.048922516
0.08239186
0.1282824
0.17285421
0.1979375
0.19098908
0.13925585
0.095354445
0.056156456
-0.027978357
-0.08685372
-0.08356094
-0.007615613
0.116472736
0.13713026
0.017103557
-0.16055623
-0.29422548
-0.32879394
-0.33972573
-0.32742196
-0.2670636
-0.19391847
-0.07684403
0.07053104
0.2113
0.3078912
0.30588904
0.25010675
0.18057956
0.124109544
0.123893805
0.13828957
0.0881058
-0.055200182
-0.17244996
-0.14270979
-0.055367153
-0.013260449
0.037173666
0.15556368
0.26270294
0.31000322
0.2781685
0.042251814
-0.24326952
-0.3105007
-0.27200964
-0.21758223
-0.122779354
-0.08398834
-0.11505683
-0.15724519
-0.16996348
-0.1574431
-0.16504554
-0.1530978
-0.086354695
-0.0074373777
0.056205414
0.10015062
0.11048111
0.11327365
0.17604433
0.25682807
0.2731375
0.18621227
-0.013335914
-0.14254908
-0.11103521
-0.08442486
-0.058827914
0.006864178
0.042668376
0.0720404
0.11243305
0.18162009
0.26333588
0.30023444
0.3320772
0.25908783
-0.030991754
-0.35433686
-0.5218561
-0.49001786
-0.3354226
-0.18760951
-0.0507923
0.065349884
0.1126693
0.117419615
0.0885332
0.02298553
-0.03994709
-0.030918514
0.058292717
0.13716345
0.18357673
0.20118815
0.1275939
-0.03266118
-0.20212424
-0.30501273
-0.3248555
-0.27738184
-0.15735531
-0.033530723
0.058339685
0.17409319
0.24276967
0.17793287
0.058145285
-0.018852225
-0.045949988
-0.048871238
-0.020051764
0.016501287
0.0270786
0.07456535
0.15740284
0.1714154
0.116783544
0.055028245
0.0052530635
-0.04620072
-0.10168108
-0.08867618
0.001761058
0.078027055
0.12432816
0.13086247
0.0756119
0.020638507
-0.01713134
-0.08127984
-0.16421677
-0.21559912
-0.19845982
-0.13403884
-0.060595613
-0.012497284
-4.1647544E-4
0.024778998
0.056800447
0.054527752
0.051021364
0.058577705
0.058924038
0.05184646
0.024740396
-0.010004353
-0.025572691
-0.029208563
-0.034415163
-0.041682497
-0.04366442
-0.03469699
-0.01823388
-9.415503E-4
0.012862893
0.024364661
0.036659203
0.047812924
0.051866688
0.0495625
0.04501205
0.039413642
0.034560934
0.02425364
0.008418736
-0.0017277331
-0.008425901
-0.014285656
-0.020214988
-0.026278926
-0.021633884
-0.014395369
-0.01518787
-0.010835516
-4.2087756E-4
0.005059823
0.0042237556
0.0028938174
0.004914428
0.0034047656
-0.0031944246
-0.009193716
-0.014246141
-0.015613584
-0.005984251
0.013676513
0.028657563
0.032732815
0.035930485
0.04057931
0.03680371
0.018671164
0.0015436782
0.0012382308
0.002294104
-0.006748939
-0.011697765
-0.007856123
-0.008138494
-0.019202057
-0.031343006
-0.036516003
-0.036416363
-0.031923413
-0.028849296
-0.0326192
-0.032572195
-0.025615176
-0.029465549
-0.04307288
-0.050483044
-0.0532938
-0.046789348
-0.024232049
0.0039830673
0.031886604
0.059859753
0.090212174
0.112520285
0.1125382
0.10168066
0.08321756
0.05280108
0.021171344
1.1216111E-4
8.3918625E-4
0.004522015
-0.008392426
-0.02281848
-0.04114889
-0.06490009
-0.0783878
-0.074619405
-0.05767492
-0.055644803
-0.076930285
-0.093729585
-0.08522522
-0.05540491
-0.030683799
-0.013323857
0.003763412
0.014459752
0.030795703
0.043154012
0.039843455
0.037827563
0.041756712
0.052590754
0.05881877
0.05178596
0.04271449
0.03523389
0.031443644
0.0077783796
-0.0369805
-0.053888876
-0.045212932
-0.0320888
-0.01378536
-0.0033389062
-6.927151E-4
-0.0042514545
-0.012346713
-0.0069309315
0.011768926
0.024285425
0.025967523
0.03146613
0.044631626
0.057483826
0.055956986
0.03902809
0.040380195
0.068188705
0.103606805
0.10603063
0.027032893
-0.06884221
-0.112145
-0.13250472
-0.13320158
-0.12680617
-0.13638222
-0.13291667
-0.10596496
-0.06775031
-0.04580019
-0.0425887
-0.01652214
0.017295673
0.034413006
0.052408773
0.061748978
0.051835362
0.04358081
0.050301913
0.058798958
0.06486177
0.077151604
0.08582512
0.08809787
0.084981
0.071404725
0.05658354
0.039970227
0.02045077
0.0026385414
-0.018301245
-0.035420675
-0.044138987
-0.04789092
-0.047813322
-0.049099036
-0.046801023
-0.039922256
-0.034587618
-0.025376862
-0.014725056
-0.00895345
-0.0048351167
-0.002584496
-0.0019084828
0.0013859794
0.0049817264
0.003634799
-3.0963024E-4
-0.0033977712
-0.0065866737
-0.007874224
-0.007364869
-0.009573402
-0.012614547
-0.013468383
-0.014025648
-0.011549623
-0.0031582548
0.0048946394
0.008943703
0.01261571
0.017145231
0.020458916
0.02157257
0.021433145
0.0216886
0.023756621
0.023767697
0.019461006
0.016762372
0.012834472
0.003909103
-0.0011843495
-4.5194768E-4
0.0010575635
7.4670376E-4
-0.0015598648
-0.003595331
-0.0067769876
-0.0087449895
-0.0070665977
-0.0077338307
-0.008585267
-0.00633285
-0.0054239472
-0.004760193
-0.003415248
-0.0022607623
5.0705756E-5
0.0014585631
0.0013241075
3.143471E-4
-7.787139E-4
9.1320736E-4
7.874531E-4
-0.0033470825
-0.0040231543
-0.0035188887
-0.0039319913
-3.384426E-5
0.0027201523
0.0020229965
0.0016560954
0.0012713579
0.0032653937
0.0016975257
-0.0044639423
-0.0035338374
-0.0016271058
-0.0039753006
-0.0035729096
-0.0031070157
-0.0031986597
-0.0033460343
-0.00436604
-0.0027910357
-0.0024586269
-0.0026943916
0.0017562403
0.005813123
0.0055971625
0.0035137886
0.0031847628
0.0023621856
-0.0018262556
-0.0034087244
-0.0036077658
-0.004577537
-0.0016115713
4.5969812E-4
0.0015208912
0.0035607966
-0.0010855257
-0.005783223
-0.0033029672
-0.0015346179
-7.5540744E-4
8.2840875E-4
4.3956685E-4
2.6288206E-5
0.0010319564
0.0021434308
6.055298E-4
-0.0017897233
-3.9624618E-4
3.8118442E-4
-0.0011869629
-0.0013982134
-8.3796843E-4
0.0019163722
0.0030588242
-5.365984E-4
-8.0371404E-4
5.133244E-4
5.257476E-4
0.0059422096
0.010896328
0.007635769
0.0028214084
0.0019760751
7.992469E-4
-0.0036174287
-0.007114852
-0.008500316
-0.007996218
-0.005958802
-0.004573814
-3.7856816E-4
0.0023358227
5.8317586E-4
0.0029691716
8.782683E-4
-0.0060053775
-9.42797E-4
0.00527473
0.0015813131
-0.003400851
-0.0055364985
-0.00295866
3.4332613E-4
0.0016999734
0.004719722
0.0056789867
0.0047148354
0.0040330086
0.0024396302
0.004015133
0.006378129
0.005807942
0.0054493016
0.0041487585
0.002172443
2.375703E-4
-0.003135015
-0.0047128913
-0.005346554
-0.006067043
-0.0043660114
-0.00410029
-0.0042034886
-0.0010499505
1.9370946E-4
-2.2911481E-4
0.0011528069
0.0019803345
0.001044052
-0.0012475761
-0.002778046
-0.0014764654
6.377896E-4
0.0013272098
0.0013551952
0.0025224388
0.003103467
0.0017569138
0.0014563092
0.003400371
0.0041689877
3.1693667E-4
-8.870152E-4
0.0037751112
6.233773E-4
-0.0057023684
-0.0014688472
0.0017635755
-4.8013116E-4
3.9792326E-4
-5.717841E-4
-0.0051732254
-0.0048407037
-3.9493965E-4
0.0012098177
0.0028759076
0.0052916803
0.002279971
-7.656719E-4
6.8749493E-4
0.0015955151
0.0011821267
9.3661435E-4
0.0016953115
0.0013026661
-7.488133E-4
-9.7623655E-5
3.593026E-4
-0.0013129034
-0.00235767
-0.0031379596
-0.0017601822
-3.6974202E-4
-0.0012573223
-8.5254124E-4
-3.4618523E-4
8.3495246E-4
0.001791772
-0.0019094497
-0.0032436498
3.218943E-4
0.0018973994
0.0030434646
0.0042219185
0.0035630895
0.0034314538
0.0027373373
0.00232505
0.0028716833
6.00757E-4
-9.194167E-4
5.622514E-4
0.0014136562
0.0022256328
0.0013320406
-0.0017335935
-0.00420114
-0.0061835055
-0.0044000344
-3.896599E-4
9.062227E-4
0.0014693271
-7.236992E-6
-0.0015113835
7.239815E-4
-1.7207276E-4
-0.004027613
-0.003991291
-0.0015672626
-4.1355233E-4
-7.5938756E-4
-6.8354595E-5
6.560411E-4
-9.476653E-4
-4.098624E-4
0.0018622817
0.0011509514
0.0010881855
0.002110702
0.001240281
0.0024094582
0.004069361
0.003074481
0.0029501712
0.0016206506
5.215524E-4
0.0027337277
0.0012777267
-0.0010702938
4.2590115E-4
0.0013816638
0.0028324788
0.002721058
9.857417E-4
0.0016334619
7.553306E-4
-5.3762033E-4
-0.0012389988
-0.0023839953
-0.0016304492
-0.001426639
-0.001437138
-0.008502018
-0.020468114
-0.013210527
0.002538929
0.0044119824
0.0039465516
0.0044343276
0.0026359577
0.0036749993
0.0048668897
0.0040151784
0.001949812
1.710855E-4
3.7166246E-5
7.68894E-4
0.0013331182
1.6944461E-4
-1.8844119E-5
1.388609E-4
-0.0013447627
1.534676E-4
6.1135815E-4
-0.0017895993
-3.6432518E-4
0.0018800928
0.0016049109
5.456901E-4
5.064295E-4
0.0019302352
0.0019247907
6.65616E-4
-0.0020119867
-0.0048101316
-0.0028753858
5.0802936E-4
0.0011053891
-7.078213E-4
-0.001609798
0.0030271679
0.0061881472
0.0026587879
0.0014717636
0.0034124635
1.7090786E-4
-0.005495269
-0.0052165072
-0.001228396
2.4524156E-4
-7.102408E-4
-0.0027037025
-0.0037234216
-0.0028831223
-0.002346013
-0.0012537406
0.0010637664
0.0025417847
0.0022272984
0.0013572754
0.0022925097
0.002955315
0.0021111274
0.0028371655
0.002263365
-0.0010190572
-0.0018956427
-6.863793E-4
5.5408455E-5
9.340843E-4
0.0013957635
1.4744622E-4
-0.0021822448
-0.0038126807
-0.0028961843
5.6965917E-4
0.0012218038
-0.0015554714
-6.8844314E-4
0.0010326984
7.547743E-4
0.002472943
0.0013210844
-0.001584414
5.281665E-4
0.0020897074
0.0012116418
4.0832892E-4
-0.001754608
-0.0021432587
1.0023994E-4
8.129513E-4
-7.3765515E-4
-8.317554E-4
0.0020785856
0.0019700704
-0.0013933812
-0.001257069
-7.853035E-5
-0.0011279114
-0.0013533054
-0.0011980694
-0.0022556218
-0.0023502172
-5.024434E-4
6.3019275E-4
0.0012694317
0.003057612
0.0020413988
-0.0010732064
-8.08011E-4
6.786835E-4
0.0019717491
0.0036533163
0.0023344196
6.195976E-4
0.0020486717
0.0024671326
8.4626453E-4
2.5653272E-4
5.488211E-4
5.0377316E-4
6.729303E-5
-0.0012671578
-0.0034383019
-0.004125932
-0.0027196168
-0.0017490651
-0.0017547791
-0.0016524624
-0.0021322046
-0.0023457338
3.614738E-4
0.0033799396
0.0029901005
0.0016420914
6.0932484E-4
-0.0011869454
-0.002492516
-0.0026551872
-0.0014527058
1.6127432E-4
2.8043622E-4
-6.152341E-4
-7.7324855E-4
0.001167937
0.0033857706
0.0041802246
0.0041042105
0.0019856829
9.0964366E-4
0.0022357749
6.9000357E-4
-0.0011526674
-3.0908527E-4
-6.6807464E-4
-0.002048069
-0.0026925474
-0.0027299442
-0.0022631895
-0.0012748177
-1.2428248E-4
0.0013934681
0.0035730386
0.0039869063
0.003742893
0.0037687533
0.0013461909
-0.0011508205
-0.004875042
-0.007856326
-0.003955698
-0.0019631262
-0.0023863579
0.0016849738
0.0028972996
0.0020002173
0.0027225458
0.0016513022
6.1902305E-4
-4.88946E-4
-0.0023882152
-0.0040411525
-0.0044067535
-0.0028473265
-0.0026555064
-4.1394038E-4
0.005328428
0.0068054725
0.0048668305
0.0031235218
0.0011803939
-0.0018128344
-0.0050423597
-0.0032158077
4.2513103E-4
0.0010227978
0.002142755
0.0020564701
9.3613064E-4
0.0013416213
1.529559E-4
-9.145824E-4
-9.546725E-5
-6.3991865E-5
-0.0011759825
-0.0015217554
-5.6567034E-5
5.1479536E-4
-4.6463036E-5
-1.3540659E-4
-5.38828E-4
-3.6029913E-4
-9.203988E-4
-0.0013295803
6.777268E-4
4.987406E-4
-0.0012864616
-0.0011059634
-5.433118E-5
0.0014026508
0.001319752
8.9306704E-4
0.0018689058
4.929348E-4
-0.002178766
-0.0022588216
-4.5622565E-4
7.686612E-4
9.066332E-4
8.081112E-4
-4.7395384E-4
-0.0014889794
-8.2159066E-4
-4.8717763E-4
6.2581775E-4
0.002156618
0.0019558275
0.001470755
3.3048913E-4
-0.0012720736
-0.0014509764
-0.0013332716
-4.4616833E-4
0.0015919604
0.0021977287
0.0020721564
0.001098017
-0.0019290848
-0.0015110692
0.0012720912
3.8948707E-5
-6.3267996E-4
-3.805048E-5
-0.0012646839
-4.2435288E-4
5.9647136E-4
-5.759641E-4
-0.0018557367
-0.002919802
-0.0024900157
-3.699114E-4
0.0022231191
0.0029331483
0.0014154556
3.582401E-4
-3.097523E-4
3.7484344E-5
4.4458002E-4
-0.0013359326
-0.0031860408
-0.0032422068
-0.001545705
-0.0010855023
-0.0014939018
-3.9448644E-4
-3.0400296E-4
5.201303E-4
0.0013890171
5.4483186E-4
4.594782E-4
-7.427198E-4
6.3114543E-4
0.0034785336
0.0021829165
0.0029070498
0.0047261487
0.004192755
0.0022538458
-0.0011785117
-6.57411E-4
0.0022766397
0.0037262863
0.0040216614
0.0018545503
1.0416238E-4
-1.4990428E-4
0.0015900787
0.0032262492
-7.812085E-4
-0.0069172904
-0.009206176
-0.0075642546
-0.008933794
-0.00823255
0.0017164521
0.0019651358
-0.007016455
-0.0092548635
-0.0066948584
0.0029872248
0.0077240732
0.0014203846
-0.0012249617
-0.0047209337
-0.0034011565
0.008455151
0.013352173
0.010641037
0.007028647
0.0037963735
0.001831017
2.3234781E-4
0.0010483026
9.1659074E-4
-6.806282E-4
-0.0011581276
-9.7286294E-4
0.001583272
0.001601632
-3.229571E-4
3.7448684E-4
-0.0017034322
-0.0047365464
-0.004841032
-0.0038246517
-0.0022539864
-0.0020329887
-0.0021347236
-0.0016276061
-0.0017602509
-9.224526E-4
5.723175E-4
7.19027E-4
5.9255894E-4
0.0021328437
0.0031185995
0.002196228
0.0019644483
0.0014769167
9.979734E-4
0.0024750775
0.0019113327
-8.229642E-4
-7.116714E-4
-7.6106284E-5
-0.0015047154
-0.0018646462
-0.0021602872
-0.0020844084
7.623498E-4
0.0018120583
2.1762293E-4
-0.0013830597
-0.0024584613
-0.0022694974
-0.0036481419
-0.0033293564
5.218277E-4
0.0010040775
4.777943E-4
4.2444104E-4
-6.5231073E-4
4.0888024E-4
7.185632E-4
6.6043244E-4
0.0015839776
0.0011067957
0.0016611259
0.0014077342
-4.4916476E-5
8.7569526E-4
9.832188E-4
9.974578E-5
8.316883E-4
0.0016160228
0.0019208383
0.0026326214
0.0041347705
0.0051801563
0.004304283
0.001677873
-0.0017260136
-0.0036828695
-0.0033103249
-0.0032234855
-0.0051679956
-0.0064623673
-0.004315459
-5.616715E-4
0.001159443
-2.4402178E-5
-0.0012276825
-3.3626068E-4
2.810531E-4
-7.1291183E-4
-7.8166067E-4
-1.19445496E-4
-4.5915655E-4
5.2080816E-4
0.0020229532
4.981487E-4
5.5598586E-5
0.0022431032
0.0017856872
0.0012007662
0.0029304498
0.0028440338
0.001704082
-3.4529545E-5
-0.0016448651
5.755248E-4
0.0013317702
-0.0012618868
-0.0014158599
-0.0020246813
-0.0028481912
-8.110575E-4
-9.1497775E-4
-0.0023991258
-0.002538409
-0.0020377964
8.012766E-4
0.0017801427
-8.299144E-4
-0.0013064857
-9.808467E-4
-6.821719E-4
0.0017775511
0.0020970523
3.5616226E-4
4.0409603E-4
-1.449192E-4
2.7946706E-4
0.004031708
0.005386851
0.0034569069
0.0015000312
2.2820456E-4
2.644806E-4
-0.001506391
-0.0041550486
-0.0026202013
5.7695905E-4
0.0014385583
-4.9649266E-4
-0.0010268085
0.002005968
0.0030539415
0.0019789252
2.5095753E-4
-7.833278E-4
0.0025970945
0.0024902662
-0.0032327846
-0.004630839
-0.0034401899
-0.0027343147
3.1048065E-4
4.943247E-4
-0.0064199804
-0.008799553
-0.0020099864
5.1350374E-4
3.02929E-4
0.0017876629
-0.0015707653
-0.0023925048
4.962804E-4