-1.5900772E-4
6.046984E-4
9.662385E-4
0.0013409406
0.0014338733
-7.01898E-4
-0.0016228665
5.849144E-4
5.9864495E-5
-1.947786E-4
0.0022997097
4.6868843E-4
-0.0025667257
-2.0228454E-4
0.0016829246
-9.054938E-4
-0.0010102602
0.0011871245
1.9697636E-5
-4.9109606E-4
2.2501815E-6
-5.018867E-4
0.0013541374
0.0026490095
0.002054102
0.0011830819
-3.4530368E-4
-2.0107471E-4
-0.00106604
-0.0033420986
-0.0029849266
-0.0030953535
-0.0034250221
-0.0010516079
0.00194783
0.0039426256
0.0034900482
0.0014103843
7.0531765E-4
9.4193895E-4
6.6358363E-4
4.4562458E-4
5.768915E-4
4.8646217E-4
-1.12203874E-4
-0.0011252488
-1.8424634E-4
0.0023449236
0.0021426545
6.472283E-4
8.794847E-4
3.0678825E-4
-0.003465241
-0.0050218375
-9.9029E-4
2.5624954E-4
-2.5853317E-4
8.274463E-4
-0.0024513847
-0.0017978648
7.265173E-4
-0.006180167
-0.0073857736
-4.2717383E-4
0.0015063053
0.001840137
0.0029130003
0.0037287497
0.0027671754
-0.0011589362
-0.0023430763
4.151492E-5
0.002501477
0.0038432141
0.004055906
0.0022713547
-1.2705661E-4
0.0014005054
0.0015346527
-0.00201393
-0.0029891285
-0.0028398824
3.8057548E-4
0.0039589484
8.7911094E-4
-9.413801E-4
-1.2814281E-4
1.5195333E-4
0.0026293313
0.0024916194
1.7290925E-4
1.7230576E-4
-1.0547299E-4
-0.0010644288
-0.0022577208
-0.0039066775
-0.0039223493
-0.0021619622
-0.0014368071
-9.923591E-4
0.0015845443
0.0025941054
7.131329E-4
-6.7095616E-4
-4.5432802E-4
8.955554E-4
-7.98734E-5
-0.002423389
-0.0018090263
-0.0011636356
-0.001219796
5.0767474E-5
7.009215E-4
3.729363E-4
5.831346E-4
0.0022300717
0.0035845605
0.002390258
-5.1267278E-5
-9.941518E-4
0.0014640419
0.0026084778
-0.0013503988
-0.0022946713
9.428564E-4
-1.3390575E-4
-0.002334398
-8.396892E-4
1.7840494E-4
7.364767E-4
0.002009454
0.0014808608
9.6939935E-4
0.001364196
4.749115E-4
-8.5780286E-4
-0.002082679
-0.0021289585
-9.021493E-4
-6.250419E-4
8.9258153E-4
0.0024025042
0.0011433811
8.46741E-4
-0.0011102117
-0.004260922
-0.0016068913
3.0753293E-4
-8.167694E-4
9.488132E-4
9.337653E-4
-8.294293E-5
0.0010666499
-2.002019E-4
-0.0015610106
-2.8739806E-4
0.0023199269
0.003921664
9.481134E-4
-0.0018049178
-0.0010224093
-2.0816227E-4
9.306073E-4
0.001444624
8.648333E-4
6.883316E-4
-3.1128966E-5
-3.0315412E-5
8.958554E-4
2.7508315E-4
-0.0016980172
-0.002456761
-0.0019366222
-0.0027006047
-0.0031321258
-0.0018682901
-2.0881048E-4
0.001204915
-7.409876E-4
-0.0027299263
-5.796283E-4
5.5876933E-4
0.0013642404
0.0027857681
0.001911663
0.0023491331
0.002985352
0.0015146496
0.0014308915
0.0012669839
-0.0011187633
-0.003320808
-0.0025754056
7.9994893E-4
0.0036232981
0.0043712338
0.0027709138
9.422762E-4
0.0012317168
0.0010387861
3.631291E-4
7.8747596E-4
-4.72746E-4
-0.0027869812
-0.0033274747
-0.0029872374
-0.0021475265
-7.4922456E-4
-7.059289E-4
-0.0018925401
-0.001825167
-0.0011802452
-0.0016036698
-0.0012462682
-1.861736E-4
-6.638099E-4
-0.0010277006
-1.900614E-4
1.7400202E-4
-5.4053473E-4
-0.0016866686
-6.9932034E-4
0.0014586212
0.0014971708
0.002304595
0.003401501
0.0017330403
0.0014803268
0.0031059508
0.0036056156
0.0031478282
0.0015645269
4.543707E-4
1.0478149E-4
-6.092318E-4
-0.0011635049
-0.0026202719
-0.0031481702
-0.001882953
-0.0026527203
-0.0030573867
-1.8406479E-4
0.0017749575
7.821024E-4
-7.730623E-4
-7.662676E-4
5.102491E-4
0.0014004293
0.0015628802
6.8168185E-4
-7.0820097E-4
-3.877454E-4
5.712624E-4
9.5771026E-4
0.0013821204
5.759168E-4
3.8255862E-4
3.791154E-4
-0.0011750539
9.80245E-4
0.0026877117
-2.066873E-4
-0.0018617242
-0.0055520223
-0.005271539
0.002916879
-1.9938173E-4
-0.00840177
-0.0032229624
0.0038338562
0.0048241564
0.004302799
0.0023794807
7.460105E-4
3.722238E-4
2.7578554E-4
7.7501615E-4
9.3230343E-4
3.919161E-4
1.1674191E-4
-9.272233E-4
-0.0013235785
0.0012922678
0.002583492
0.0014803915
3.4355067E-4
-0.002092962
-0.003518111
-0.0035653603
-0.003208693
-8.664704E-4
-1.9453678E-6
-2.8619517E-4
8.509082E-4
0.001239943
0.0017407496
0.002041699
7.179342E-4
-1.545847E-4
-5.613015E-5
-4.153286E-5
5.996484E-4
0.0027982525
0.0040090145
0.0031194317
0.0015202444
-4.2266978E-4
-6.549526E-4
-7.129227E-4
-0.002629081
-0.004125721
-0.003603369
-1.6217715E-4
8.1016164E-4
-0.0010478839
6.3787075E-4
0.0012144366
0.0018569947
0.0018915936
-0.0062029585
-0.007408824
1.8631053E-4
-3.0394635E-4
-8.524455E-5
0.0048814146
0.0039349706
3.3270233E-4
-0.0011054607
2.962075E-4
0.0014741657
-0.0013635767
-0.0023524316
-2.4625752E-4
4.116019E-4
0.0017097
0.0039524008
0.0038189096
4.5503245E-4
-0.003585529
-0.004836689
-0.0033742418
-0.0011343645
5.348206E-4
0.00241652
0.0032879068
0.0014781682
0.002620301
0.0042602103
8.90085E-4
-5.582771E-4
-0.0012479695
-0.0026801813
2.8415906E-4
0.0013035362
1.5738478E-4
0.0016245414
0.0017830869
7.5179385E-4
-0.0012101836
-0.004014576
-0.0044640354
-0.0032290167
-0.001054219
7.056938E-4
-8.7540905E-4
-0.0029309886
-9.372782E-4
4.0701893E-4
-4.5601456E-4
0.0018532659
0.0012520696
-0.0016668153
-2.6625753E-4
-0.0022939907
-0.0032228115
0.0024572823
0.004157358
0.0027896995
0.0025693465
0.0016967736
5.817004E-4
0.0013881571
0.0032946935
8.838911E-4
-2.1507495E-4
0.0016653314
-0.0010523321
-0.0018865294
-4.9130974E-4
-2.3995462E-4
0.0017282268
2.7494785E-5
-0.0020015228
-7.8222883E-4
-0.0010277051
-7.996593E-4
-0.0012696487
-0.0017461147
-4.1684278E-4
4.4026595E-4
0.0018776028
2.0799231E-4
-0.0019635838
6.1374507E-4
7.363882E-4
-8.3723676E-4
-2.1527844E-4
-4.582677E-4
-0.0014258168
-0.0019663875
-3.638697E-4
2.0038625E-4
-0.0015988852
4.420121E-4
0.0018278798
-1.5117851E-4
7.691861E-4
0.002331162
0.0022214407
8.555634E-4
-9.848216E-4
-5.1156585E-5
0.0012676929
0.001625525
0.0018134577
2.421918E-4
-9.5768E-5
0.0013319054
0.0014548879
1.353282E-4
-0.0015881233
-0.0019175383
-0.0028148955
-0.0034611546
-2.2418814E-4
0.0021166897
0.0012730665
-0.0012691116
-0.0029765447
-7.4900454E-4
-0.0014034228
-0.0035878546
-7.8803854E-4
-2.5343028E-4
-7.198154E-4
0.001476337
0.0015719675
0.0020824187
0.0029946344
0.0030599535
0.004420302
0.0038977487
0.002031122
0.0011237514
-5.111577E-5
-0.0010032904
-0.002065194
-0.0030736257
-0.0025732499
-0.0016827914
-0.0016696175
-7.106545E-4
-4.0742362E-4
-0.002741312
-9.5793256E-4
0.0025332142
0.0012222073
5.414759E-4
-0.0023387447
-0.0039121327
0.0024839637
-4.866634E-4
-0.007989778
-0.0020772007
0.0025613522
0.0018934153
0.004982154
0.0052431854
0.00348363
0.0033327162
0.0016843383
0.0021104866
0.0032019927
-5.4702896E-4
-0.002518271
-8.796664E-4
-0.002088479
-0.0030561998
-0.0017058328
-7.854244E-4
-7.5942837E-4
-0.0019886598
-0.001452367
-1.7578031E-4
-9.369648E-5
7.3176966E-4
-6.367816E-4
-6.128605E-4
0.0014292701
-0.0013774786
-0.0031246508
-0.0022673737
-0.002063219
7.4228406E-4
0.0028690076
0.0013496412
-9.5922686E-4
4.616912E-4
0.0035270196
0.003243812
0.0039362153
0.0031837753
7.0539286E-4
0.0014485265
-0.0022135754
-0.0044091013
0.0015503946
0.0029958233
-2.531659E-4
-0.0016240757
-0.0013607595
3.7619376E-4
0.0012743036
-0.0014395812
-0.0057577277
-0.00483229
-0.0014614037
-0.0011863869
2.068784E-4
6.692922E-4
3.76315E-5
0.002155619
0.0019544822
-5.754364E-5
3.0479598E-4
0.001686946
0.0016419577
-6.281059E-4
-0.0010500725
0.001723946
0.002801237
1.3170048E-4
-0.0024297154
-0.002042266
-3.9519905E-4
0.0018118955
0.0025793521
0.001063702
5.667725E-4
5.015455E-4
3.1476907E-4
-7.0481503E-4
-0.0031242953
-0.0030577176
-0.002354701
-0.0030034971
-0.0029143528
-0.0020237667
0.0013253305
0.004155957
0.003823132
0.0036204932
0.0022224877
8.8606164E-4
0.0026607965
0.0038669081
0.003415834
0.002161885
-4.8061064E-4
-0.0016874003
-8.34998E-4
-0.002170996
-0.0048269997
-0.004521549
-0.0025763428
-0.001290217
-7.197901E-4
-2.9199268E-4
6.411436E-4
2.0915081E-6
-0.0021975278
-0.0027720944
-0.0019524846
-9.953004E-4
-5.697123E-4
-7.437908E-4
5.5399956E-4
0.0028210736
0.0030329248
0.0023233597
0.003350793
0.0037138972
0.0018541617
8.0654776E-4
0.001257331
0.0019533697
0.0013352988
-0.0010023534
-0.0011638819
5.172363E-4
-2.1635408E-4
-0.0026812404
-0.0048463815
-0.004757956
-0.002552347
-0.0010789062
1.9967997E-4
2.963844E-4
-0.0011481311
6.05311E-4
0.0030788123
0.0020531805
0.0016351026
0.002375868
0.0015304887
9.7293605E-4
3.6046893E-4
-0.0015709674
-3.1735265E-4
0.002868409
0.0017117879
8.320755E-4
0.0027352935
0.0021521093
0.0011369707
-5.832793E-4
-0.004384137
-0.005219667
-0.004038859
-0.002772675
-0.0017948325
-0.0031389003
-0.0036129586
-0.0015732892
5.5644764E-6
-3.218078E-4
1.4589667E-4
0.0027935694
0.0029496565
0.0022758516
0.0030418043
8.536945E-4
-8.7097916E-4
4.847323E-4
0.0012971871
0.001202819
0.0011219374
0.0029748087
0.0041148434
8.66113E-4
-0.0018819211
-0.0017351693
-0.0014620917
-0.001921949
-0.002491617
-0.0022870402
-0.0016974296
-6.5822125E-5
0.002481447
0.0022850472
-2.8025525E-4
-0.001583414
-5.85107E-4
0.0021989557
0.002421268
-5.4539833E-4
9.1391936E-4
0.003450419
0.0011316211
9.4257965E-4
0.001270026
-0.0011972655
-8.3661673E-4
-2.038547E-4
3.8305274E-4
0.0032176292
0.0055099223
0.005984464
-0.0017695292
-0.0123818
-0.010733653
-0.0044083763
-0.0036626856
-0.003220426
-9.003741E-4
-0.0016387774
-0.004715417
-0.002960539
-3.8942412E-4
-0.0011511653
0.0011576986
0.0028811563
0.002048844
0.0035593915
0.003669958
0.0033862756
0.0044164495
0.0024911806
2.0060444E-4
-6.3590246E-4
-0.0018317167
-0.0015388982
0.0020048327
0.005640522
0.0058348877
0.0064799716
0.0073055997
0.0032862558
2.4041635E-4
9.879535E-4
2.0725554E-4
-0.0014014968
-0.0033880272
-0.0062749544
-0.0065199193
-0.0048002596
-0.004578137
-0.0046085785
-0.003315247
-0.0016296881
-6.059613E-4
-0.0012096777
-9.674256E-4
0.002123445
0.003408738
0.002096575
0.0019840864
0.0012566912
-0.0013315537
-0.0016223292
9.264578E-4
1.8746316E-4
-0.0041818465
-0.006086677
-0.006197985
-0.0052556475
-0.0016436456
9.025334E-4
0.0010823616
3.505741E-5
-0.0010704284
-1.8600827E-4
6.7110866E-4
-4.608915E-4
-0.0028553
-0.0037355646
-0.0026353612
-0.0032131085
-0.002041298
0.0015656356
0.0035692665
0.008006561
0.011410601
0.0102880625
0.01143766
0.012738826
0.013672743
0.016802896
0.014176285
0.005310083
-4.299987E-4
-0.0015278258
-0.003563812
-0.0073043155
-0.009439524
-0.0123243
-0.016255561
-0.016697481
-0.016075827
-0.015638925
-0.012455981
-0.010244255
-0.009613992
-0.0065857596
-0.0040938724
-0.0036469023
-0.00384025
-0.004704256
-0.004123624
-0.002270851
0.0020628155
0.007375321
0.0072175814
0.008935907
0.016930155
0.02144063
0.021369932
0.017240997
0.011466404
0.011886628
0.016541246
0.02354198
0.027352352
0.019851582
0.008603905
-0.0051229685
-0.022091001
-0.02706283
-0.019650683
-0.014694697
-0.012062978
-0.0036133677
0.004792748
0.0027392965
-0.0074429377
-0.016940068
-0.01985937
-0.020438366
-0.018844396
-0.007771524
0.0018755211
0.003585367
0.0026052818
-0.0077839047
-0.020749958
-0.02087367
-0.011696428
-0.004438751
-0.0061178333
-0.011815756
-0.010586502
0.0035427962
0.025234675
0.039140828
0.040718354
0.03921536
0.037253417
0.023020662
0.0040165912
0.0029028773
0.008744045
0.013878323
0.016903905
0.0030751545
-0.0055294563
-0.0028891338
-0.007249393
-0.004176296
0.0017117197
0.0015212831
-0.005967981
-0.022960287
-0.020022525
0.0012242929
0.0221306
0.03973333
0.026743764
-0.008961738
-0.028590394
-0.025205582
-0.016726399
-0.016041523
-0.01837133
-0.032622185
-0.033177253
0.0059450543
0.012491057
-0.03960568
-0.077390246
-0.05568012
-0.0013637975
0.022068482
0.015450825
0.0015142487
-0.024317393
-0.03237933
-0.025915962
-0.017316047
0.0021267023
-0.0010244749
-0.01295741
-0.004148879
6.283667E-5
0.015426537
0.06645166
0.12817922
0.17637217
0.19734542
0.17406295
0.12546062
0.098924756
0.05857438
-0.053623535
-0.15355767
-0.15292132
-0.11834109
-0.1108774
-0.10547722
-0.088562295
-0.030643191
0.07033504
0.12967849
0.11592441
0.0454373
-0.06949133
-0.1705972
-0.22982301
-0.24723165
-0.19692135
-0.09145826
0.008121535
0.05718918
0.08027074
0.105914585
0.12576824
0.13740906
0.11342737
0.068078555
0.051372074
0.036953382
0.028969377
0.051304728
0.06867441
0.07716873
0.061141472
0.0035434687
-0.035384268
-0.027063137
-0.015291395
-0.0323389
-0.046135645
-0.011283371
0.037245322
0.041429445
-0.016539123
-0.11774254
-0.17678203
-0.14193061
-0.07641816
-0.023183765
0.026091766
0.04550772
0.031031812
0.023716671
0.042389207
0.06680803
0.05332006
0.0220688
0.033998866
0.043038573
0.0062817526
-0.006477823
0.03154923
0.0714235
0.085668534
0.06692147
0.02110725
-0.008800916
-0.019401785
-0.07180672
-0.11986359
-0.09658054
-0.09002374
-0.106101215
-0.067420356
-0.030639462
-0.032593384
-0.040766712
-0.039591774
-0.01606186
-0.001318398
-0.0069476105
-0.006866119
0.001862715
0.048506323
0.12741992
0.15800276
0.10878258
0.05937324
0.07664559
0.0756162
-0.014200528
-0.10296733
-0.110054106
-0.06527028
-0.029125517
-0.009891727
-0.009920057
-0.044621497
-0.07239059
-0.07625462
-0.072928905
-0.066889144
-0.076475956
-0.06274074
-0.03665254
-0.06728596
-0.07412042
-8.1001595E-4
0.06022488
0.05411467
0.024807377
0.033664394
0.049775712
0.04529521
0.08402681
0.16899401
0.24351706
0.28116128
0.28992632
0.2794718
0.20433682
0.0508624
-0.10299106
-0.18222867
-0.17813118
-0.12650996
-0.05822565
-0.0352018
-0.09954372
-0.16869083
-0.16270065
-0.101607785
-0.07505061
-0.13544694
-0.17841245
-0.15235339
-0.15754738
-0.19693415
-0.20196868
-0.16395484
-0.093440935
-0.017741669
0.043931562
0.09826786
0.14160949
0.15973474
0.15758592
0.16419014
0.178536
0.18469357
0.18972228
0.18009044
0.15010044
0.1253182
0.110695
0.0835891
0.033107713
-0.0047546695
-0.008655928
-0.012368237
-0.027866902
-0.036744233
-0.030582542
-0.02134982
-0.024187684
-0.030187273
-0.036368784
-0.050838996
-0.071329825
-0.088731244
-0.09095623
-0.084316894
-0.07513741
-0.06067836
-0.047309607
-0.028537491
-0.017126666
-0.031873424
-0.04289352
-0.03748173
-0.027592719
-0.014147939
-0.010067062
-0.011662117
-0.0041579003
0.0107246125
0.030605353
0.03989167
0.031931546
0.028217992
0.03197757
0.032275576
0.03404745
0.039550662
0.044408605
0.052595727
0.060723938
0.05403677
0.04154436
0.042081352
0.03870177
0.016850064
-0.006322359
-0.021783859
-0.024939837
-0.019948198
-0.026416939
-0.030722765
-0.020705057
-0.017709598
-0.02071005
-0.021420622
-0.021053249
-0.009946429
0.008233325
0.020924877
0.026401725
0.027453147
0.023713892
0.0088906195
-0.009366386
-0.01437998
-0.009879424
-0.005419963
0.0018681542
0.010297575
0.012166334
0.010787952
0.007794271
-2.8613958E-4
-0.0051103733
-0.00363936
-0.0050054654
-0.011046962
-0.01283509
-0.007757679
-0.00988457
-0.017846854
-0.015950765
-0.008549549
-0.001244073
0.006924774
0.014301703
0.020961314
0.027079523
0.03181966
0.023574911
0.005797038
4.0670122E-5
0.0014101603
0.0018576675
-1.18407195E-4
-0.01176897
-0.026690511
-0.03956542
-0.041226953
-0.027810268
-0.018266253
-0.0146182915
-0.012036192
-0.009638092
6.093411E-4
0.009263532
0.004809275
-0.009629244
-0.023281572
-0.027367812
-0.027061468
-0.021788023
-0.012947654
-0.0125912335
-0.014955218
-0.009768451
-0.0033647022
-0.0025901604
-0.002649005
-0.0018697844
-0.0024985443
0.0012195241
0.0044091833
0.005075623
0.011779225
0.012049008
0.004990211
0.007623988
0.0147275105
0.023834946
0.037027515
0.036732238
0.022381771
0.019518532
0.031256903
0.044471603
0.058807492
0.07152648
0.082247496
0.079999514
0.042345185
-0.0037144183
-0.018730395
-0.01726995
-0.03146896
-0.060946275
-0.07223052
-0.061991964
-0.05219625
-0.037919432
-0.033820678
-0.055064302
-0.073331945
-0.07710651
-0.07440641
-0.064841814
-0.051655278
-0.039682254
-0.029181493
-0.013460906
0.0045735617
0.0140973
0.020230444
0.02718634
0.032063983
0.04101617
0.054391965
0.06165432
0.0632177
0.06466748
0.059454467
0.044502296
0.030013219
0.022738531
0.017916903
0.012748361
0.011610474
0.010595795
0.0048272116
-6.711946E-4
-0.0030423885
-0.003192375
-0.004874742
-0.0065915943
-0.0045011095
-0.0065712524
-0.010743542
-0.008695889
-0.005840849
-0.004781386
-0.0054405597
-0.007390102
-0.0076838494
-0.007665896
-0.008663535
-0.013098031
-0.018309558
-0.017965859
-0.015988728
-0.014171846
-0.010926646
-0.0104201995
-0.012954184
-0.016112907
-0.018390806
-0.016491517
-0.011063575
-0.0058877855
-7.342325E-4
0.0042570457
0.007866573
0.011542899
0.01317988
0.01247431
0.013701805
0.015384646
0.017081898
0.018131774
0.013854654
0.008022021
0.0056344834
0.0052890517
0.0043377853
0.0025444499
0.004774929
0.008462302
0.0069353483
0.0046911975
0.0052739116
0.0063175927
0.0062035113
0.005148173
0.00397253
9.860141E-4
-4.983845E-4
0.0018638661
0.0030496458
0.0038925528
0.004462696
0.0038775017
0.0040493137
0.0020882282
0.002105972
0.0044248844
0.0024975145
0.0021319366
0.0032134664
0.0029881583
0.0036323983
0.0019801783
0.0020531984
2.7425238E-4
-0.003963235
0.0017269095
0.0012578726
-0.0092333695
-0.004869885
0.0046814918
0.004891614
0.00457243
0.003515253
-0.001409503
-0.0047443626
-0.003884939
-0.0038789369
-0.0037369074
-2.111632E-5
0.0020253402
0.0039244746
0.005266517
9.940333E-4
-0.0025326277
-0.003275118
-0.002853562
-0.0014288295
-0.001911256
-9.4108033E-4
-3.2761748E-4
-0.0030331363
-0.0020558462
0.0012850794
0.002389046
0.0038268915
0.0045521217
-7.555498E-5
-0.006980576
-0.007897254
-0.0048518376
-0.0022333143
9.508757E-4
8.432686E-4
-0.0016519027
-0.0015038394
-0.0011816355
1.7692444E-5
0.002934538
0.00236596
1.9607977E-4
9.4294763E-4
0.0014524837
1.6058328E-4
1.03221384E-4
0.0011712114
9.460117E-4
7.697486E-5
4.385726E-4
-3.190979E-4
-0.0031576785
-0.0024232757
0.0016481372
0.001827057
-7.482339E-4
-0.0011123457
2.1781243E-4
0.002101048
0.0020841924
-3.4888893E-5
4.625538E-4
2.4680712E-4
-0.003001412
-0.0029879108
-0.0029187694
-0.004363832
-0.0025883655
-0.0011038282
-1.1776915E-4
7.895434E-4
-1.7527113E-4
3.4982164E-4
3.2009828E-4
-0.0016553845
-0.003087374
-0.0033708327
-0.0011909194
-2.9522527E-4
-6.5273E-4
8.999322E-4
0.0013759298
0.0023718842
0.0032191747
0.0012310058
-7.2613324E-4
-0.002142063
-8.2939724E-4
0.002033555
0.0023785178
0.0022364154
0.0014890758
4.6115252E-4
4.8193765E-6
-3.6697928E-4
1.5959603E-4
1.1753482E-4
0.0012996885
0.0014692893
-0.0026004354
-0.004109093
-0.0044829263
-0.0060858782
-0.0037265103
-3.138661E-4
6.082916E-4
-1.7920083E-4
-6.936074E-4
-3.662236E-5
1.765675E-4
4.9570546E-4
-5.083157E-4
-0.0016324221
-7.089229E-4
-0.0010870115
4.5687283E-4
0.0040940037
0.003589889
0.0021147944
0.0019329819
5.2309426E-4
-6.679139E-4
5.764074E-4
0.0018180244
3.5197628E-4
-1.0249783E-4
6.9957034E-4
1.248096E-4
-4.1223477E-4
-0.0023960168
-0.0036697483
-0.0018291239
-0.0018662678
-0.0030825294
-0.0021772867
-9.4289903E-4
-5.3676893E-4
-2.118281E-4
-3.912158E-4
-0.0010920119
5.2522647E-4
0.002068777
6.932013E-4
4.021969E-4
4.016746E-4
-1.261949E-4
-3.561886E-4
-0.002909436
-0.00313028
0.0015819866
0.0058108023
0.007276068
0.0058574933
0.0036374053
9.426365E-4
-0.0023199997
-0.0027652914
-0.0029922018
-0.0034571073
-7.7499094E-4
1.635244E-4
-0.002266807
-0.0033195855
-0.0024557153
-0.002150345
-0.002027261
0.0014996267
0.0045275157
0.0013140118
-0.0022462178
-0.002460001
-0.002809146
-0.0030025402
-0.0016482541
5.6456603E-5
-2.0866584E-4
-0.0019134014
-0.0015416098
3.4935743E-4
0.0011092521
6.350349E-5
-0.0011545324
0.0015085388
0.0050748545
0.0033492576
0.0010408306
0.001971132
0.0017671755
-3.0019475E-4
-0.0015868215
5.3498046E-5
0.0024074593
8.663653E-4
-0.0013110437
-0.001860477
-0.0016379751
0.0023729166
0.005677977
0.004883433
0.005243172
0.0030752006
-0.0027769536
-0.004110746
-0.006388633
-0.013353827
-0.01142924
-0.0024825356
5.926724E-4
0.0024315827
0.0043195155
0.0020533793
0.0013053393
0.0010625852
-2.9446952E-5
8.1670104E-4
-1.4261302E-4
-9.456934E-5
0.001832515
0.001043205
0.0015479733
0.00287114
0.002912967
0.0028625769
0.0013623151
5.412642E-4
-0.0018422918
-0.004775703
-0.0026681158
-0.001416975
-0.0015046984
-8.276861E-4
-0.0016127796
-4.633635E-4
-8.202927E-4
-0.0020879877
2.0725439E-4
-6.5375934E-4
-0.0027555735
-0.0024518748
-0.0025767973
-0.001948864
-0.0014727
8.7278435E-4
0.0041473033
0.0039861603
0.0043348004
0.005001104
0.0069588874
0.010318318
0.0056495983
-0.0027244592
-0.004798493
-0.0038003349
-0.0036771763
-0.0018492297
0.0021502825
0.0024730542
8.0281985E-4
0.0013536855
2.7022473E-4
-0.0020304415
-0.003545185
-0.0036632803
-0.003651758
-0.0041963365
-0.0013575268
-0.0023604145
-0.007337625
-0.0056191254
-0.0033910542
-0.0015344821
0.0012212741
5.4071726E-5
0.0016207065
0.002580826
9.7245234E-4
0.0029956105
0.0018524305
3.4689005E-5
0.0018156386
0.003020421
0.005470708
0.006021091
0.0034099258
9.672299E-4
0.0019955866
0.0082862545
0.008247106
9.145443E-4
-0.0028867673
-0.0043103183
-0.002498657
2.1573859E-4
-0.0021222148
-0.0040895944
-0.003332275
-0.0023009898
-0.0024932723
-0.004354038
-0.0042123483
-0.002365247
-0.0014333907
-8.8458974E-4
-6.348772E-4
-7.754066E-4
-5.1699264E-4
9.176119E-4
0.0015374164
5.705132E-4
0.0015030311
0.0026213329
7.68153E-5
-0.0014304296
0.0011731333
0.0017086632
-2.9139852E-4
4.278821E-4
0.0012073186
8.530414E-5
-4.2341225E-4
-5.625635E-4
-4.620206E-4
-9.2288223E-4
-0.0016837112
-0.0015278124
-0.002319989
-0.002499306
-4.3526205E-4
0.0014427922
0.0024990796
0.0026722362
0.0021865452
0.0020431918
0.0033245587
0.004975399
0.003342244
6.6673785E-4
7.4359516E-5
-0.0010303666
-0.0020125571
-1.0054378E-4
0.0027514147
0.0022870146
2.4850624E-5
3.0608723E-4
9.1730086E-5
-0.002187353
-0.0033578381
-0.0035821225
-0.0025078924
-6.567864E-4
-3.872475E-4
-0.0017898196
-0.0029037963
-0.0012816576
6.009894E-5
-1.08319786E-4
0.0021752154
0.00204601
-0.0024620325
-0.0047448087
-0.005125497
-0.0029496404
0.0010561633
-7.3202646E-5
-0.0020848054
4.6657978E-4
0.0021653161
0.0019989042
0.0028004814
0.0017573468
-0.0015080124
-0.001861438
-7.822691E-4
-0.0010166467
3.6220845E-5
-1.07994194E-4
4.0278654E-4
0.0049857264
0.0053940862
0.0039147134
0.006975078
0.0070694876
0.0030972497
-6.0551916E-4
-0.0028570995
-0.0022616375
-0.0016809294
-7.5361895E-4
0.0022918682
0.0027386413
3.5517386E-4
-9.2179823E-4
-0.0010562303
-0.0012332755
-0.0020364856
-0.0035489628
-0.005063672
-0.0048069167
-0.0027778961
-0.0029296328
-0.0037852677
-5.553666E-4
0.0011606212
-4.426036E-4
-3.75774E-4
-0.0022841652
-0.0016063326
0.0033979416
-0.0014643684
-0.0076228497
-0.0020784037
0.003024764
0.002965637
0.0024526299
0.002626959
0.004153212
0.005252729
0.0061938665
0.00610536
0.0031192321
-0.0010086144
-0.003556493
-0.0019545737
-4.2925373E-4
-0.001924502
-0.0014910025
8.6399924E-4
0.0016026892
-6.2789774E-4
-0.0021072547
3.4922537E-5
4.4870598E-4
1.4384402E-4
0.001840652
7.4915984E-4
-0.0012979431
-0.0015115982
-0.0016061964
-7.121619E-4
-9.335585E-4
-0.0036832283
-0.0041095344
-0.00105962
0.0012451306
0.0015898861
0.001981167
0.001295955
-9.0976944E-4
3.4417494E-4
0.0027861528
9.831344E-4
-2.525309E-4
-0.0011878411
-0.004065344
-0.003904809
-0.0027571637
-7.984343E-4
0.003399925
0.0043610847
0.003152092
8.475714E-4
-0.001263638
0.0015425545
0.0044266516
0.003522858
7.41866E-4
-9.5011404E-4
5.4313627E-4
2.4778562E-4
-0.0013351048
-1.8773433E-5
0.0010453556
-1.01985046E-4
-0.0028224087
-0.0030245506
-1.9247578E-4
-7.704583E-4
-0.0029842113
-0.0021832155
1.6803884E-4
0.0013138709
4.7201721E-4
-7.0500607E-4
-0.002886235
-0.0041002943
-5.503321E-4
0.0017987535
1.0591801E-4
7.7196176E-4
0.0024587316
0.0016203008
0.0021915224
0.003227623
3.6056433E-4
-0.0021264197
2.3824665E-4
0.0022072853
2.376384E-4
-1.6813504E-4
3.0023893E-4
-0.0027993412
-0.0036291967
-0.0015708671
-7.868057E-4
0.0013726967
0.0018837622
-3.5837572E-4
6.3493697E-4
0.0028573077
0.0019036378
-3.1946466E-4
-6.6973956E-4
-8.105841E-4
-0.0011649042
7.3315017E-4
0.001742473
0.0018370486
0.0026789764
0.0022413558
0.0029219717
0.002651693
-9.482008E-5
-0.0011241538
-0.0019992103
-0.002004091
-0.001963045
-0.0045792274
-0.003997631
-9.0106775E-4
-3.9971038E-4
-0.0011366875
-0.001495852
-8.855873E-4
-0.001199799
-0.0024898115
-0.0023086593
-0.0013322331
-9.988148E-7
5.340335E-4
3.2392304E-4
0.0010792131
0.0019033921
0.0025222774
0.0012941328
-1.8339044E-4
0.0015001523
0.0010893748
3.5452354E-4
0.002933808
0.0016398621
2.5945742E-4
0.0017951643
2.5154997E-4
8.1554434E-4
0.0017989678
-6.827987E-4
0.0010517013
0.0026264342
6.3633156E-4
4.683598E-4
7.20997E-5
-8.252982E-4
-0.0018959623
-5.310315E-4
0.0034129038
0.0010790089
-0.0021661816
-0.0012738699
-0.0028277666
-0.0037509452
-0.0020132058
1.9231158E-4
4.0867238E-4
-0.0024491572
-0.0032310195
-0.0040123668
-0.0045525166
-0.0014467958
-0.0011252463
-0.0023630578
-0.0018497101
-0.0012738518
8.465261E-4
0.0020372795
0.0015695929
0.0014066766
0.0013338696
0.0014417476
0.0011707131
0.0024426861
0.0039061885
0.003749885
0.004844211
0.005616423
0.00565946
0.005566008
0.0038724106
0.0012048098
-0.0020271272
-0.002797188
-0.002046069
-0.0018125339
-1.3095803E-4
-0.0010220447
-0.003225435
-0.0031449408
-0.0024826238
-2.7641456E-4
1.3289427E-5
-0.0020353736
-0.005049288
-0.006579768
-9.779726E-4
-0.00201171
-0.009153594
-0.004153832
3.1769162E-4
-2.8699375E-4
0.0038023596
0.0042176326
0.0019175864
0.0014767322
8.895125E-4
0.0016148684
0.0018461398
0.0022099717
0.0022813766
0.0011258915
0.0018540346
0.0020998477
0.0012976977
0.0010083016
5.8390055E-4
0.001110199
0.0011414094
0.0011892241
0.0032459109
0.0032802075
-0.0011136285
-0.0040816814
-0.002832389
-0.0028514992
-0.0023772717
8.4721314E-4
7.735638E-4
-1.185032E-4
7.744844E-4
-1.7087656E-4
-0.0019166841
-0.003119371
-0.002293636
-4.508538E-4
-1.34125E-4
-2.612371E-4
-0.0012501772
-0.0011983942
-4.1420897E-4
-7.770496E-4
0.0015268232
0.0032289582
0.0023382346
0.0030586044
0.0024346441
4.6311E-4
-8.9091767E-4
-0.003476256
-0.004341023
-0.001103053
0.002291027
0.0017779468
2.2682239E-4
7.726408E-4
0.0013800741
0.0019238911
7.703163E-4
-0.001951965
-0.0026250228
-0.0029615911
-0.0015325482
0.0020419182
0.0022161815
4.6834967E-4
-0.0011934761
-0.0024003515
-0.0012666913
1.4142596E-4
0.0014486401
0.0025293303
0.0019432766
7.832147E-4
-0.0013616338
-0.0024803975
-5.463733E-4
2.7604835E-4
-2.1008405E-4
0.0011755158
0.0019616107
1.798919E-4
-5.743356E-4
0.0015096323
0.0018469124
-0.0016006101
-0.0022330033
5.6614476E-4
-8.6739205E-4