-0.0035730994
-0.0019271979
-0.0017930927
-0.0020422305
-0.001379052
0.0010309214
0.0016656063
-8.550189E-4
-0.0034892831
-0.0015602564
0.002144844
0.0026106786
0.0018028894
-0.0028479728
-0.0068351217
-0.0018007304
0.003347086
0.0040339013
0.0037902854
0.0028141702
0.0030477918
0.0035041722
0.0031854338
0.0013751783
-0.001258933
-9.624095E-4
-1.702037E-4
-9.3916623E-4
-0.0021621992
-0.0018866898
4.8269874E-5
9.241606E-5
0.0019968096
0.0036684352
1.5315399E-4
-4.840074E-4
0.0013967828
0.0015198321
-6.2534283E-4
-0.004545132
-0.0025275445
6.113462E-4
1.3196947E-4
0.0014187125
-6.0916576E-4
-0.003343376
-0.0024494918
-0.0023137173
6.0709903E-5
0.0012438501
-0.0014429527
-0.0018988132
-0.0010129152
-2.4401007E-4
-8.791971E-4
-0.0024061238
-9.3376194E-4
8.563363E-4
0.0010715105
1.4180221E-4
-5.4979755E-4
0.001783019
0.0025978896
0.0012232122
0.0017157346
9.867877E-4
7.0735236E-4
0.0021708854
7.1671786E-4
3.913613E-4
0.0025364936
0.003098551
0.0041755326
0.0040977644
7.355729E-4
-0.0030841797
-0.004915425
-0.0036763037
-0.003241954
-0.0030048944
-3.9048234E-4
-2.234602E-5
4.8738577E-5
7.932939E-4
-0.00137771
-0.002038176
-2.1534003E-4
5.015333E-4
-0.0012510085
-0.0027453713
-3.1217356E-4
7.180656E-4
-1.442998E-5
0.0013344894
0.0012015748
6.302042E-4
3.052421E-4
2.3050113E-4
0.0015687867
0.0014215584
0.001882642
-1.8106258E-4
-0.005371429
-0.0034445198
5.3297635E-4
6.698849E-4
0.0010475654
0.0022556793
0.0031510608
-0.0025843894
-0.0077986415
-0.0017200941
0.0026668808
0.0023864706
0.003932709
0.0034604927
0.0028167628
8.933648E-4
-0.002309229
-0.001384851
-0.0010113985
-0.0016233406
0.0012027732
0.0045235557
0.0045331735
0.0013106173
-4.9610843E-4
-0.0010999445
-0.0029852898
-0.0029614288
-0.0016710288
-4.0537005E-4
2.3011492E-4
-6.023639E-4
-1.69318E-4
-0.0013498412
-0.0039030965
-0.0025576944
-0.0010431418
-6.388775E-4
3.7840512E-4
0.0015522039
0.0039880276
0.0044759586
0.002675251
5.543054E-4
-0.002655615
-0.0034108902
-0.0025282388
-0.0026009947
-0.0013082124
5.1755545E-4
0.0018909506
0.001759602
1.7704794E-4
-3.911733E-4
-3.9019555E-4
6.979941E-4
9.981667E-4
-2.2086038E-4
7.771553E-4
-7.358555E-5
-0.0020739334
0.0012097864
0.0046955966
0.0050506066
0.004757822
0.0034121966
0.0015734821
-4.5815672E-5
-0.0022207308
-0.0039631124
-0.0020234508
1.9238233E-4
-0.0018927732
-0.0020596965
-7.158316E-4
-0.0030758777
-0.0040021823
-0.0028201463
-0.0022284165
-0.0010403431
-4.5457052E-4
-0.0012505727
-0.003164025
-0.004168989
-0.0026120334
-0.0013058388
-8.2339364E-4
0.0012214414
0.0046862494
0.0060999286
0.004590597
0.0041653635
0.005353668
0.0057864613
0.0045814444
0.0025817824
7.094895E-4
-0.0018450208
-0.0011641647
0.0019451622
1.2050218E-6
-0.0029894616
-0.004275753
-0.0041690995
7.2494056E-4
0.00258857
-8.34633E-5
-0.0011806486
-0.0034096139
-0.0034930175
-0.001024534
-4.237036E-5
8.2142476E-4
-0.0024309922
-0.0058674454
-0.0031453094
-3.751433E-4
0.0017499808
0.0033142045
0.001994752
8.0342713E-4
-1.83024E-4
-5.4465473E-4
9.95546E-4
0.002404476
0.0014911266
-7.3002203E-4
-2.6039226E-4
-2.3829217E-4
-0.0017655818
2.5913268E-5
4.6956577E-4
-9.273257E-4
-4.352318E-4
-7.980875E-4
9.319719E-6
6.7049364E-4
-6.745112E-4
4.0705968E-4
9.494094E-4
1.7717645E-4
0.0012028104
0.0014880274
8.830561E-4
8.5733825E-4
0.0026270947
0.0041798945
9.626954E-4
-0.0019316608
-3.160431E-4
8.291924E-4
3.4766595E-4
-1.13669834E-4
-5.184964E-4
6.866092E-5
0.0012148771
1.4004995E-4
-0.0029268262
-0.003976229
-0.0034795343
-0.0025271699
5.5845786E-4
0.00179464
-1.2714248E-4
-0.0011975525
-0.0027183322
-0.004172867
-0.002193516
0.0010632928
0.0028797197
0.0032374188
0.0016957531
-0.0012034911
-0.0019985647
-5.854679E-4
-8.4382674E-4
-0.0010032224
0.0010443653
0.0016069242
5.536762E-4
6.9931976E-4
8.1648014E-4
4.4194786E-4
9.484913E-4
2.134737E-4
-6.74413E-4
0.0018714798
0.0033740478
0.0013001453
-7.1965606E-4
-0.0017718865
-0.0012292542
1.4743562E-4
0.0012213758
0.0022117782
0.0013993487
7.1071234E-4
0.001888788
0.0019067854
6.5771287E-4
-3.5998656E-4
-0.0015061883
-0.0027135962
-0.0022145163
-7.453773E-4
-0.0022166525
-0.0041826377
-0.0019744635
0.0013179801
0.0020524296
0.002488922
0.001722258
-0.0048978226
-0.008946294
-0.0029829734
0.0013446263
5.1312963E-4
0.0014406327
0.0023934245
0.0020404146
0.0015017083
0.0013551025
0.0014459067
7.686069E-4
8.7820005E-4
8.1998453E-4
2.0928885E-4
8.965364E-4
0.0011289744
1.1669325E-4
-0.0011100159
-3.6544763E-4
0.0021538616
0.0023317528
5.167463E-4
-0.0012716278
-0.0013258739
0.0011850452
0.0017072763
-6.359049E-4
-0.0016766149
-0.001940343
-0.0025880428
-0.0015490411
-5.279792E-4
-6.275254E-4
5.6537526E-4
1.09945264E-4
-8.5231435E-4
0.0011010264
7.1717246E-4
-7.038485E-4
-2.2318134E-4
-2.3329763E-4
5.51242E-4
1.456299E-4
-2.1241522E-4
0.0020402735
0.001903073
2.654249E-4
-8.3159347E-4
-0.0016613298
-6.821836E-4
-5.4640503E-4
-0.0013426349
-0.0011473837
-6.60048E-4
2.3409947E-4
0.0014101607
0.0024415422
0.001381074
-9.967739E-5
7.7060866E-4
4.470134E-4
-1.5973764E-4
9.4132667E-4
7.054064E-4
-4.1328633E-4
-7.385906E-4
9.0812874E-4
0.0035746708
0.003437512
8.5407007E-4
-0.002696943
-0.005875407
-0.0053906348
-0.0020297947
7.049321E-4
0.0023359465
0.0033447875
0.0019879444
-0.0012086388
-0.0023265928
-0.0021479477
-0.0025556767
-0.001756566
-0.0017736302
-0.003136464
-0.0013421292
0.0015393822
0.0020814321
0.0018068718
0.0018304682
0.0029715628
0.0026468849
0.0012178259
0.0026604587
0.0022882288
1.2461294E-4
4.055081E-4
-7.722473E-4
-0.001806281
-7.235894E-4
-8.5881026E-4
-0.0012165458
-4.7647086E-4
9.0819085E-4
5.6293694E-4
-2.0391449E-4
0.0011910124
-5.6498993E-6
-0.001785308
-0.0010107402
-0.0014232431
-2.4840425E-4
0.002633982
0.002915569
0.002168176
0.0025177605
0.0015988597
-0.0022405416
-0.004071485
-0.0040392717
-0.0046950052
-0.0022881024
-3.0271243E-4
-6.243415E-4
-6.4471323E-4
-0.0013521228
6.474992E-4
0.0026512975
0.0011054159
-1.5258242E-4
-0.001924263
-0.0025841373
-0.0013871809
1.682146E-5
0.0023653905
0.0017844382
9.141436E-4
0.0021155695
0.0011294407
0.0016867428
0.0037641833
0.0037190644
0.0026860973
0.001199846
0.002136208
0.0025776955
-0.0018447903
-0.0048316796
-0.0038461834
-0.0027954918
-0.002399158
-0.0013228268
4.7235307E-4
1.8111622E-4
-0.0017589036
-0.0010382475
3.6788493E-4
-6.7961286E-4
-2.901802E-4
0.0016874955
0.0011801836
3.1766968E-4
0.0014672644
0.0021658302
2.1865245E-4
-0.0012655833
7.816994E-4
0.0014480711
5.793497E-4
0.0010467479
-0.0010331984
-6.7049277E-4
0.0033371062
4.0005828E-4
-0.004327761
-0.0033026373
-0.0025273752
-0.0027486046
-8.869138E-4
0.0011268524
0.0010892993
-2.7251127E-4
-3.8319879E-4
2.4484374E-4
-9.169765E-4
-0.0017058664
-7.376045E-4
-0.0011809097
-7.7803055E-4
0.0031765809
0.0054009864
0.0041278605
0.0035558916
0.0042298352
0.0035907167
0.0023783725
0.0010067578
-0.0033551853
-0.005819997
-0.0027391491
-0.0016545395
-0.0031092514
-0.002909347
-0.001236856
0.0013773023
0.0020048826
0.001262019
0.0013231335
4.9901847E-4
-2.1490158E-4
-7.970883E-5
6.1632897E-4
0.0014887556
1.6359265E-4
-0.0015602201
-0.0012555496
-0.0018297106
-0.0028052402
-6.1045244E-4
7.0354965E-4
-0.0013929034
-0.0027724016
-0.003038151
-0.001087458
-1.1966639E-4
-0.003996805
-0.0030523464
0.0017327673
0.0029085826
0.004498449
0.0042148083
0.002753299
0.0029211526
0.0011101117
0.001252801
0.0021075578
0.0011505396
0.0018047268
0.0012503434
9.4083854E-4
0.0026093333
0.0033668717
0.0030429792
0.0017426392
0.0015052152
6.3670345E-4
-5.305887E-4
0.0017204803
0.0024237281
-3.9331778E-4
-0.007065913
-0.018063575
-0.025356026
-0.021601006
-0.0048026177
0.011004925
0.011980903
0.009207704
0.008211083
0.005624137
0.0053891544
0.003817644
-0.0013761086
-0.0041472465
-0.003178413
-0.0012803006
-1.06921456E-4
8.5504574E-4
0.0017513952
0.0033551753
0.0055898
0.005144759
0.002267588
-4.3877703E-4
-0.002010416
-0.002146117
-0.0019382919
-0.0015378634
-0.0018627193
-0.0035887433
-0.0031494647
-0.0022779685
-0.0040330384
-0.0020717925
0.0016255922
4.5911103E-4
5.4277835E-4
0.0010556726
9.225014E-4
0.00577832
0.0046226657
-3.411725E-4
0.0044560446
0.0056993198
0.001949342
0.003561632
4.650542E-4
-0.0061783125
-0.0069032055
-0.005233937
-0.0026821678
0.0019022768
0.004523317
0.0014425712
-0.002564089
-0.0033266854
-0.0019804505
0.0017417399
0.0025271373
-1.4971943E-4
-0.0015530505
-0.0049595037
-0.006463856
-0.004129921
-0.003601565
-0.0022521694
0.0010473048
0.006024159
0.008212976
0.0045933463
0.004511559
0.0032003608
-0.003071139
-0.002996283
-0.0014760152
-0.0028211747
-0.0016618964
6.047967E-4
0.0027460582
0.0033114296
0.0020604562
-1.7079746E-4
-0.0016660041
-2.8872877E-4
6.564618E-4
0.0024912842
0.0032401497
0.001181142
0.0025983634
-0.0020875707
-0.009542853
-0.0028622774
0.004939265
0.005984472
0.004539771
-0.0019394342
-0.0044256016
-0.0013372804
-7.1640435E-4
-0.0019038327
-0.0018649122
0.0013030374
0.0013774211
-0.0019624683
-3.1638012E-4
0.0017816054
3.869208E-4
-0.0023576762
-0.004550036
-0.0033291795
-0.002416586
-0.0021612616
1.2968534E-4
0.0015371944
0.0020317682
4.1181155E-4
-0.0033068445
-0.0037507599
-0.0013286824
0.0014452838
0.0037618172
0.0040378137
0.0045926813
0.0059177307
0.0040054694
5.869032E-4
-6.912969E-4
-3.1620203E-4
0.0011877003
0.0018453315
0.0019866
0.002714384
8.414985E-4
-2.5053078E-4
-4.744221E-5
-0.0028074412
-0.0016862118
-4.3398674E-4
-0.0063903015
-0.007450306
-0.002815659
-0.0020487995
-0.0023706374
-8.288066E-5
0.003736637
0.0036995779
9.629661E-4
0.0034948622
0.006783557
0.005224504
6.024035E-4
-0.004371202
-0.0038411485
-8.036143E-4
-0.0013299553
-3.5260196E-4
0.0011968011
-0.0018239861
-0.004231906
-0.0038036706
-0.004340579
-0.0039288043
-7.639584E-4
0.0030477443
0.005433298
9.2288986E-4
-0.009380097
-0.012771986
-0.0060461997
0.0014934923
0.006044694
0.008724198
0.0060126283
0.0011372195
0.002595875
0.004084768
0.0038611898
0.008485922
0.010907424
0.011187583
0.013587804
0.013922867
0.010800292
-0.0013819864
-0.013656405
-0.012708913
-0.0111654475
-0.0124831125
-0.012783691
-0.0144933965
-0.010032075
-0.0029826418
-0.0013045985
-0.003080946
-0.007307703
-0.0076920385
-0.0046289517
-0.0023432535
0.002404733
0.0051508183
0.00567177
0.008514724
0.007506766
0.0027118737
5.761735E-4
3.639173E-4
8.999329E-4
0.004364723
0.0122455135
0.019669287
0.019037591
0.0134943575
0.0081518665
3.660975E-4
-0.006049667
-0.008039568
-0.01126116
-0.013816447
-0.012243176
-0.008821329
-0.0058879633
-0.005096101
-0.00330569
-0.001582252
-0.0031941854
-0.004650411
-0.00695729
-0.008629982
-0.0063480185
-0.003676626
-9.813206E-4
-0.0017117796
-0.0057954434
-0.0040683467
9.5195445E-4
0.0030295865
0.0035921687
0.0039907643
0.004641119
0.007232388
0.011618732
0.011847584
0.009346058
0.010659544
0.011994122
0.011649888
0.008381703
0.0017342017
0.0019597004
0.004014109
-0.0041260333
-0.0126577625
-0.015263581
-0.01558046
-0.0111905625
-0.0051556192
-0.0012662029
0.0037997763
0.007949925
0.008071115
0.007436615
0.009254738
0.011156184
0.010416331
0.010137232
0.0071506635
-0.0031754419
-0.013129415
-0.019130515
-0.024316238
-0.029797243
-0.034286328
-0.035258047
-0.036402464
-0.03716195
-0.03332428
-0.027194774
-0.018061355
-0.008109988
0.0010055533
0.012338819
0.022446679
0.028917449
0.031920012
0.0327385
0.032022752
0.03266098
0.04078683
0.048684306
0.052364677
0.05414563
0.053359903
0.055340018
0.05009737
0.04434545
0.04629089
0.025240757
0.00529212
0.012533434
-0.004788735
-0.04392789
-0.065133005
-0.08136018
-0.09592345
-0.09903572
-0.09501153
-0.083945304
-0.07146013
-0.059422955
-0.041981723
-0.032619413
-0.035534766
-0.028525187
-0.010038776
0.0060800635
0.017963775
0.028611898
0.049870156
0.08415775
0.1080036
0.11150218
0.11250684
0.11161547
0.09832609
0.0935897
0.099193916
0.07134797
8.5652946E-4
-0.07549111
-0.13702053
-0.18188636
-0.20345518
-0.1953676
-0.13570467
-0.029714145
0.051867455
0.09340491
0.10351403
0.037737485
-0.04476179
-0.042062838
0.021009983
0.071833536
0.06604461
0.018261582
-0.014028263
0.0063113826
0.05615659
0.08146152
0.10148331
0.1184149
0.08779359
0.06348647
0.08286804
0.1120117
0.11402598
0.041250024
-0.07478057
-0.17775913
-0.26500678
-0.3253136
-0.33847225
-0.2688478
-0.13731101
-0.029485257
0.030847728
0.06745043
0.0840139
0.056661773
0.03267806
0.08376293
0.14624149
0.17313036
0.16979429
0.13451551
0.1361284
0.14940545
0.07956108
-0.06834832
-0.22834703
-0.2527756
-0.11085487
0.039563183
0.13410972
0.17138296
0.16832842
0.15213564
0.055872176
-0.08997624
-0.17641161
-0.20616682
-0.1524066
-0.008189302
0.110168144
0.14117862
0.11132777
0.061699666
0.0021424012
-0.091616765
-0.18789029
-0.2433599
-0.24787773
-0.1755846
-0.04961863
0.062740855
0.1510296
0.2197842
0.19466154
0.045150932
-0.08319976
-0.10589891
-0.10679595
-0.12805793
-0.15607154
-0.14506248
-0.07590073
-0.02462697
0.036338
0.15844373
0.22986645
0.2241891
0.22569512
0.20713423
0.10715334
-0.023694478
-0.061197855
-0.03413227
-0.11878092
-0.25119337
-0.23948197
-0.12932995
0.004585032
0.13791054
0.22420117
0.29612675
0.28008577
0.10551397
-0.06908567
-0.14058478
-0.11317347
-0.05786086
-0.037256755
0.05133261
0.14420535
0.0974776
0.01653956
-0.020511255
-0.03395988
-0.10697339
-0.25493333
-0.26931348
-0.16788009
-0.1414558
-0.1473526
-0.14467792
-0.12722763
-0.06132608
-0.024203505
-0.04935362
-0.05167702
0.011985875
0.0975652
0.16777845
0.20415746
0.18677223
0.16928764
0.17599429
0.14793809
0.10037538
0.06907873
0.040008698
0.019112911
0.024120985
0.04797609
0.054969914
0.038780227
0.03659077
0.053924203
0.051383995
0.004646392
-0.04916058
-0.07993034
-0.10654869
-0.12458503
-0.12423304
-0.11188119
-0.08623274
-0.061252452
-0.04214441
-0.019768946
-5.159628E-4
0.009507192
0.011653148
0.013920993
0.018469663
0.016036488
0.008089901
6.241144E-4
-0.006098677
-0.013502348
-0.02251503
-0.029684674
-0.031325016
-0.023979891
-0.012266183
-0.0049624136
0.0045396932
0.020124748
0.032119453
0.03757383
0.038314953
0.037382323
0.037277807
0.03422235
0.029282248
0.025638243
0.017878179
0.008434417
0.00531115
0.003000746
2.6250747E-4
0.0025339196
0.0031008024
0.0016516048
0.0028871172
-2.0103578E-5
-0.0044503957
-0.003572658
-0.0043098642
-0.006285396
-0.0040184436
-0.004251246
-0.004381246
0.0016113012
-0.0029303858
-0.018420702
-0.020480275
-0.011954179
-0.0073403423
-0.0021780566
0.008476116
0.020147296
0.022620931
0.01464431
0.005446225
-4.914614E-4
0.001081985
0.0070394725
0.005635609
0.0015741534
0.0029926372
0.005308888
0.007486461
0.0066824052
2.6840583E-4
-0.003020394
-0.00643261
-0.016854996
-0.020470092
-0.0131344
-0.009002866
-0.010549354
-0.015034075
-0.025299342
-0.033074856
-0.028445538
-0.017683478
-0.0046824985
0.0077823102
0.0121924775
0.017647974
0.02762193
0.029077675
0.025416967
0.02419663
0.020510446
0.010799381
-0.0051465067
-0.028679948
-0.05192527
-0.056512415
-0.047973167
-0.04403518
-0.040451046
-0.03613706
-0.030274926
-0.017280577
-0.0045617
4.5823373E-4
-0.010763034
-0.023029331
-0.008706836
0.012551361
0.025565604
0.038348097
0.037146047
0.023801705
0.017386025
0.02309027
0.036934692
0.05090168
0.06798457
0.08910078
0.10358979
0.1065902
0.09042682
0.051383357
0.0020547954
-0.04078878
-0.061851505
-0.06081368
-0.05764796
-0.061788335
-0.060915407
-0.05578673
-0.05829073
-0.062429063
-0.06590781
-0.063311845
-0.038707145
-0.018031104
-0.028394215
-0.04511321
-0.048072174
-0.034182176
-0.008115169
0.008676611
0.014905273
0.023486948
0.033072565
0.038484953
0.033953752
0.026193079
0.02764143
0.03394614
0.04121555
0.046019483
0.0396583
0.027351009
0.02027252
0.019086203
0.016830215
0.009100033
9.961562E-4
-0.0014276293
-5.6307885E-4
-0.0010412049
-7.9401623E-4
0.0021454408
0.0018719668
-0.003564449
-0.003351258
0.0068953126
0.011139831
0.0036919466
-0.0018958438
-0.0042670644
-0.0048903036
-0.0023986564
-0.0030938087
-0.0052666334
-0.00987169
-0.019299725
-0.024329193
-0.024411285
-0.021422701
-0.01735496
-0.01779294
-0.017103378
-0.012845494
-0.007807574
-0.005297009
-0.0071072513
-0.00369701
0.0019031384
0.0014232935
4.2296568E-4
0.0015743322
0.0053592087
0.004181661
-8.63087E-4
0.005730776
0.012779542
0.011971749
0.014667219
0.016151782
0.0136386985
0.011545063
0.010246422
0.010017406
0.0074111293
0.0056196437
0.007193969
0.006498014
0.0050892713
0.0057721585
0.0057862345
0.0027121631
-4.4137816E-4
7.429028E-4
0.0015956921
-8.523738E-4
-0.002178362
-0.0030901516
-0.005291092
-0.0063220025
-0.0048501818
-0.0028574488
-0.0035491749
-0.004479835
-0.002627042
-0.0026014308
-0.0039079553
-0.0018071864
-0.0012246774
-0.0037490656
-0.004402298
-0.004200236
-0.0034125175
-0.0020342187
-0.0022543138
-0.0017220431
-2.089071E-4
3.100197E-5
-1.8476603E-4
-8.50836E-5
7.5704453E-4
0.0013250449
0.0013078152
0.0024736328
0.00331222
0.0036254998
0.0050717825
0.0052008717
0.0037298142
0.0026240633
0.0017982974
0.0017879246
0.001774594
0.0010967895
1.383872E-4
-0.001914413
-0.0032429108
-0.002173756
-2.7854147E-4
-9.920649E-5
-0.0011935369
7.296095E-4
0.0026952198
0.0019178989
-4.897409E-4
-0.010463964
-0.020327397
-0.019729549
-0.017896753
-0.017188175
-0.015610904
-0.008181718
0.010182385
0.01895521
0.01363286
0.011081853
0.0064890333
0.0022625977
0.0047141607
0.004117858
0.0025714824
0.0029678168
0.0020275107
0.0035190831
0.0051149707
0.0043247775
0.006790476
0.010283497
0.006918863
4.003027E-4
-0.0024353461
-0.004652288
-0.0060549034
-0.0046880613
-0.004909749
-0.0052877534
-0.0043870863
-0.0047723865
-0.0033385789
-0.0012433685
-0.0030847169
-0.0043167705
-0.0020297724
-0.0010451818
-7.5208716E-4
0.0018203795
0.0026202467
0.0020775197
0.003021949
0.0018245102
0.0014766494
0.0039985823
0.0033828046
0.0024397264
0.002976142
2.939831E-4
-0.0032774976
-0.0037161543
-4.149807E-4
0.0021803153
3.6076995E-4
-0.0017421452
-0.0025583832
-0.0012392793
0.0016690345
0.0019023389
0.0029897639
0.004665913
0.002470702
-7.135789E-4
-0.002557886
-8.006585E-4
0.0010622534
-8.056587E-4
-0.0013182671
-0.0010569599
-4.958935E-4
-4.571403E-4
-0.0028647536
-0.0015677424
-3.3260448E-4
-0.0016767968
1.7573593E-4
8.407282E-4
9.592321E-4
0.0016118238
-4.3475747E-4
-7.499569E-4
-3.7117992E-4
5.240519E-4
0.002903164
0.001077871
-0.0010526608
7.8939565E-4
0.0023018927
0.001973755
4.949019E-4
-0.0010983195
-5.9548544E-4
0.0024059394
0.0036725432
0.0033697682
0.0038131494
0.0010732434
-9.63208E-4
-6.585976E-4
-0.0039003054
-0.0051572733
-0.003037743
-0.0015481914
-5.7659854E-5
-9.4936346E-4
-5.865248E-4
0.0024321093
0.0018565372
-9.251864E-4
-0.0021143255
-9.071873E-4
-5.1569845E-5
-2.189566E-4
0.0016685558
0.002079682
6.7301653E-4
5.635054E-4
-3.948776E-4
-0.0017932064
-0.0018135086
6.29938E-5
0.0010306654
-3.001538E-4
8.326597E-4
0.0026961192
0.002490223
0.0020448093
0.0011605048
8.618804E-4
2.501757E-4
-2.1931094E-4
0.001095728
8.17386E-4
5.5735646E-4
0.0013144986
1.7914806E-4
-6.675682E-4
-0.0012950585
-0.001154228
0.0015520088
0.0023687345
9.412873E-4
6.268483E-4
-1.04775005E-4
-0.001997986
-0.0024069077
-0.0010423756
-6.798797E-4
-6.7817606E-4
4.89681E-4
-5.0389644E-5
-0.0019127897
-0.0028512103
-0.0037894612
-0.0020763509
0.0017815067
0.0017810768
-7.153504E-6
0.00117016
0.0038216528
0.0038182288
1.20323704E-4
-0.0016799937
-8.286137E-4
-0.0010542579
6.331674E-4
0.0021714089
3.636994E-4
5.298875E-4
0.0012195269
-7.9575364E-7
-4.929816E-4
-0.0022296542
-0.0023816973
6.2640227E-4
-2.9948226E-4
-0.0014023453
0.0013443365
0.0013626788
0.0014327894
0.0038020124
0.0026294314
6.169266E-4
5.4566783E-4
-3.4826712E-4
-0.0020302024
-0.0022211843
6.9634384E-4
0.0026330098
0.0016662343
0.0014203932
1.705094E-4
-0.0016032902
-8.68988E-4
1.7889214E-4
0.0016759285
0.003567223
0.0033189117
0.00114961
-0.0015567751
-0.0032775388
-0.0043844683
-0.0059960466
-0.005591223
-0.0026023122
-0.001522947
-9.7360415E-4
0.0022187063
0.0022011374
-3.3517348E-4
4.787616E-4
0.0012483929
0.0010484714
5.921454E-4
-5.4242124E-4
5.4129065E-5
1.888687E-4
-1.5107053E-4
0.0013534619
0.0018469372
2.3587309E-6
-9.84158E-4
0.0015651918
0.0026515475
0.0016083586
0.0037473498
0.0033120492
2.0300024E-4
8.350265E-4
8.2037697E-4
-9.2900015E-4
-7.9852267E-4
5.4871873E-4
3.3747658E-4
-0.001345104
-0.0016308621
-0.0012126906
-3.324461E-4
-0.0010904842
-0.0033693605
-5.432064E-4
0.0023640005
3.3479126E-4
-5.879845E-4
4.2624734E-4
9.361659E-4
1.2920582E-4
2.898757E-4
0.0011557754
-3.8250495E-4
-8.1091473E-4
-6.405206E-4
-0.0014730886
-0.0012934834
-0.0016623479
-9.850466E-4
1.8371358E-4
5.375719E-4
0.0013279311
7.994779E-4
0.001564303
0.0014489015
-0.0019503325
-0.0019708758
-7.078555E-4
-1.6483688E-4
0.0010630803
2.8805135E-4
1.3891804E-5
1.3365956E-4
9.466E-5
0.0026797873
0.00466038
0.004109467
0.0033983004
0.003938755
0.0028603224
-8.471095E-4
-0.0028953757
-0.0050096638
-0.0060996553
-0.0033516763
-0.0019551187
-6.697989E-4
-2.9100457E-4
-0.003550345
-0.0038678136
-0.0022504928
-9.433249E-4
0.001082362
4.3867622E-4
-2.1250438E-4
4.8982404E-4
7.84855E-4
0.0019623518
0.002273564
0.0019712693
0.001268358
8.4639044E-4
0.0035484894
0.00466164
0.002707088
9.2410564E-4
-4.9165153E-4
0.0014631293
0.004413836
0.0047963755
0.0058549177
0.0055221193
5.4088485E-4
-0.008005127
-0.015588862
-0.014324801
-0.005462345
0.001956396
0.0035694146
0.0013577833
8.681976E-4
0.002851745
0.0016068331
-0.003053461
-0.003202372
5.2699127E-4
-9.084392E-4
-0.0030168763
6.727465E-4
0.0028308253
0.0015138305
0.0010772884
0.0017287768
0.0029388028
0.0014669513
-0.001901197
-0.0011287172
8.2961074E-4
6.678492E-5
2.3831651E-4
8.36874E-4
1.5978364E-4
4.8017837E-4
6.577876E-4
2.6256008E-5
-1.8758794E-4
-0.001027129
-0.0012615072
-4.856049E-4
-6.254712E-4
-3.1468255E-4
7.1930967E-4
5.7539577E-4
-2.0163193E-4
-9.97525E-4
-0.0018356391
-3.8309072E-4
0.0026094087
0.0021575359
8.991484E-4
0.0015907512
-1.7912365E-5
-9.2456094E-4
-1.3152433E-5
-0.0015026636
-0.0018411849
-0.0013139843
-0.0012318018
0.0015684147
0.0033840812
0.0024430312
3.7035532E-4
-9.662227E-4
0.0019747242
0.0033211394
4.6116923E-4
7.604021E-4
0.002050938
7.528674E-5
-0.0026998862
-0.004460788
-0.0030928398
-3.908522E-4
-5.658704E-4
-7.6686323E-4
2.1257396E-4
-0.0015891856
-0.003651213
-0.0033534733
-0.0036982442
-0.002474176
6.8152015E-4
8.5766095E-4
4.5841114E-4
7.623749E-4
-1.7111807E-4
6.705383E-4
0.0023381922
0.002238061
0.0014644758
5.841804E-4
7.5724797E-4
6.992373E-4
-7.343536E-4
-5.555724E-4
0.0015182497
0.0025218427
0.0019865714
0.003571684
0.006297667
0.0060530226
0.0048769717
0.0014642522
-0.0037748301
-0.0041158623
-0.0027681347
-0.0028386156
-0.0015176752
-9.259942E-4
-0.001607617
-0.002479063
-0.0018334639
0.0010410397
-2.9626113E-4
-0.0044737835
-0.0031015107
8.9418795E-4
0.0021802578
0.0012886582
-6.7012693E-4
-0.0021294223
-0.002157051
-7.290404E-4
-6.524038E-4
-0.0035854983
-0.0026787145
0.0017196212
0.0022922812
0.003168742
0.004692373
0.0027504882
0.0014626693
-4.4321692E-5
-6.451578E-4
0.0020705245
5.4085284E-4
-0.0024659215
-6.286029E-4
9.3550625E-4
2.349282E-4
-0.0017151926
-0.0031086442
-0.001591724
3.4546776E-4
5.711159E-4
-3.0558748E-4
4.6565554E-5
0.0025842653
0.004246283
0.002715858
5.2170933E-5
2.1066534E-4
0.0011181526
-6.028457E-5
-7.1947934E-4
-0.0010251778
-8.5940334E-4
-0.001557499
-0.004821192
-0.003898369
4.4707768E-4
0.002144922
0.0023853995
9.672567E-4
1.4632414E-4
2.5880855E-4
-0.0016257138
-0.0012990952
-1.4308516E-4
-0.0014967516
-0.0015568613
-8.315962E-4
-4.9286004E-4
-3.4232726E-5
5.5374217E-4
0.0019178325
0.00124313
-4.407581E-4
9.6730544E-4
0.0021464655
7.094259E-4
6.5761607E-4
0.0022495266
0.0013200708
-4.890137E-4
-4.7915138E-4
-0.0013205397
-0.001964563
-6.610665E-4
3.2031734E-4
7.1311515E-4
3.0174069E-4
-5.3632248E-5
5.74361E-4
3.9324688E-4
8.788249E-4
0.0016048519
-5.808097E-4
-0.0019669912
-4.752356E-5
9.101936E-4
-4.866062E-4
-0.0016505113
-0.0015802631
-9.85743E-4
-0.001174034
-0.0022069777
-0.0018680374
-2.3926244E-5
0.0015279094
0.0018074949
2.984119E-4
-9.861788E-4
-6.409876E-4
7.547349E-4
0.0018848021
-9.742501E-5
-0.0016483561
3.2095978E-4
4.5439028E-4
-6.795029E-4
-2.2035484E-4
5.0614023E-4
0.0018795142
0.0028560709
0.003342749
0.0029413917
3.8733045E-4
-0.0011918237
-0.0013985159
-0.001687699
-0.0014139363
-0.0013283197
-0.0014923868
-3.580239E-4
0.0026692841
0.0032058777
4.538813E-4
0.0012268188
0.0019974653
-0.0012492274
-0.0014470596
-0.0010261594
-0.003652653
-0.0032457556
-0.0015030456
-4.586011E-4
0.0028851905
0.0025732769
-0.0020672982
-0.0026634817
-0.0013320817
-0.0015228089
-0.0021980144
-0.003725078
-0.0018993929
0.001751427
7.90086E-4
-9.670961E-4
-3.5152966E-4
0.0014151155
0.004053532
0.0042294664
0.0016991921
0.0012175896
0.0039033005
0.005382049
0.0035923056
0.0020471974
0.001112742
-6.679749E-5
3.2356562E-4
-2.069391E-4
-0.0031498044
-0.0044619823
-0.002473511
8.7406853E-4
0.0018117025
-0.0022089444
-0.0058277017
-0.0038838277
-0.0021546548
-0.0033321676
-0.0017312735
4.630733E-4
-4.6664325E-4
-0.0010603212
-7.5252046E-4
-5.1467923E-5
9.68238E-4
0.0018474652
0.003293425
0.0016704841
-0.0013734289
-1.768374E-4
0.0015091164
0.0023626678
0.002857105
0.0019776959
0.0014689656
-0.0017603305
-0.003683837
-7.187849E-4
-0.0010608801
-8.6582487E-4
0.002153861
0.0018279989
0.0013347337
0.0012526783
0.0024286692
0.0034899942
-1.985632E-4
-0.0025230178
-0.0030065223
-0.0018071522
0.0024692826
0.0025673807
0.0027642953
0.0043898
0.0022545012
9.19317E-4
-0.001522344
-0.0029201922
-9.649773E-4
-0.0037563185
-0.0062466045
-0.0034859085
-0.0012769876
-0.0020252406
-0.0016335071
0.002284938
-0.0012268197
-0.007900835
-0.0021631296
0.0034606413
0.0019656057
0.0021090899
8.6173945E-4
-8.267298E-4
-1.4663504E-4
0.0013486666
0.0040803393
0.003199923
-4.949609E-4
-0.0010145
-7.4637396E-4
-2.2568069E-4
0.0014444792
0.0015392613
8.199827E-4
-5.66381E-4
-0.001264026
0.0014322166
0.0025306682
5.259612E-4
-0.0010196097
-0.0014522191
7.8983314E-4
0.0019962292
0.00103157
0.002451139
0.0017573882
-0.0015223997
-0.002693812
-0.0029134166
-0.0015258664
0.0018101725
0.0054651997
0.0061991797
0.004203494
0.0028390435
-0.0015610567
-0.004489487
-0.002339231
-0.0039195213