3.6096296E-4
2.9013882E-4
3.3811256E-4
3.4558642E-4
0.0013378742
0.002402228
0.0035951238
0.001840105
-0.0017559921
-0.0010263672
9.247486E-4
2.5838934E-4
-0.0016530016
-0.0016422047
7.280904E-4
0.0011867327
4.8121542E-4
2.2812247E-4
-5.856757E-4
-0.0023086565
-0.0038418798
-0.0010124823
0.002415678
0.0018740516
0.001487782
0.0014530884
6.374638E-4
-6.517269E-4
-0.0016965651
-0.0022134893
-0.0032389502
-0.002606794
-0.0023578797
-0.0017908515
0.0010155756
-0.001162472
-0.0035515723
4.4056604E-5
0.003190053
0.00332794
9.279621E-4
-2.60424E-4
-5.557111E-4
-4.6308222E-4
0.0032636782
5.310698E-4
-0.0041979784
0.0018779448
0.0055443426
0.0032515859
0.0022405502
2.2347833E-4
4.8359006E-4
0.0023897074
0.002173708
0.0016867995
-1.9674536E-4
-0.0023182041
-0.0015400329
-2.7566197E-4
-9.768794E-4
-0.0019899034
-0.0023789962
-0.0027454498
-0.002467298
-0.002494641
-0.0019109295
0.0011833964
0.0018439648
-7.686249E-4
-0.0012573462
-0.0015971502
-0.0030962345
-0.00106818
0.0014607782
9.935058E-5
1.243924E-4
0.002177308
0.002008651
0.0014668509
1.2274958E-4
-0.0020235167
-2.065527E-4
0.0032597545
0.002855568
-6.676213E-4
-0.0018753094
0.0012780599
0.0021708366
2.467348E-4
0.0011122326
5.3938717E-4
-0.0011182188
0.002373773
0.005174703
0.004279998
0.0025143253
-0.001955261
-0.004505958
-0.0026536204
-0.0023706157
-0.0032811146
-0.0032009399
-0.0016009257
7.670426E-4
-1.21206474E-4
-0.0020012923
-0.0012520273
2.4356962E-4
8.2758465E-4
-1.9763366E-4
-0.0013864965
-0.002090779
-0.0012713369
0.001965464
0.0013291751
-0.0017298697
4.2505554E-4
0.002628583
0.001393094
7.1003614E-4
5.1938044E-4
8.318757E-4
0.0011017332
7.455213E-5
-2.1418244E-5
4.3946775E-4
-4.4723838E-5
0.0011253596
0.0031569158
0.0026393374
8.780422E-4
-0.0013548783
-0.0027363112
-8.847185E-4
1.6525331E-4
-0.0012348265
-0.0022194972
-0.0023379824
-8.200342E-4
1.8178603E-4
5.746024E-4
0.0026240102
0.002857032
0.00206297
0.0012035855
-0.001028571
-0.0013288492
-0.0023472398
-0.0039056889
-0.0022346424
-0.0020031997
-0.0017911509
5.626901E-4
8.899928E-4
2.2110919E-4
-4.0572594E-4
-3.6329663E-4
4.2670584E-4
-2.1958111E-4
-2.3633167E-4
5.9854373E-4
0.0010591034
0.002098653
0.0012667408
-1.8762588E-4
0.0010823742
0.0013925815
7.71453E-4
0.0022638184
0.0013818132
-0.0012770324
-9.984616E-5
0.0015999924
0.0016171058
0.0014855101
-1.6849408E-4
-0.0020020467
-0.0023285695
-0.0014081083
2.3504555E-5
2.4414805E-4
-4.4352553E-4
-0.0014339738
-0.001524389
6.950708E-4
0.003277706
0.0030550146
-0.0010299578
-0.0037440716
-0.0026221804
-0.0018973557
-0.0011253069
-4.404805E-4
4.584131E-4
0.00256097
4.3465156E-4
-0.0021223275
3.256494E-4
0.0011087285
-2.0553694E-4
-6.7083456E-4
-0.0019681877
-0.0025110606
-0.0017056745
-0.0012292941
-6.959069E-4
9.3388883E-4
0.0027962828
0.0027332995
0.0010944193
-1.6435573E-4
-3.6659796E-4
1.2598305E-4
0.0010647711
0.0020589598
0.0023163236
0.0030262414
0.0037655504
0.0025612253
8.378006E-4
-7.736218E-4
-0.0011619115
-7.178989E-4
-0.003516992
-0.0054387557
-0.0031052586
-9.0008846E-4
6.365635E-4
5.990052E-4
2.2256066E-4
0.0022472304
0.0021457474
-4.70787E-4
-0.0024644574
-0.003445448
-0.0030795783
-0.0022902093
-4.343707E-4
2.0353677E-4
-8.73693E-4
7.528614E-4
0.0024844385
0.0038546075
0.0049656606
0.0032378326
0.001982067
-2.5101172E-4
1.1827823E-5
0.0037258018
-0.002344406
-0.009079483
-0.004183624
-1.7909569E-4
-1.1400679E-4
7.3695596E-4
5.625579E-4
8.411308E-4
0.0017097206
6.2716386E-4
-9.5681555E-4
-6.871393E-4
4.5343483E-4
0.0010921927
-5.2919026E-5
-0.0019867318
-0.0014125545
6.5586115E-5
0.0011816854
0.0011738967
-0.0014784051
-0.0019367571
0.0014636344
0.004216525
0.003088616
0.0012480062
0.0028398717
0.0018735233
-2.8317975E-4
9.1788324E-4
-4.5402907E-4
-0.0013487262
-6.2893087E-4
-0.0024317387
-0.0028916504
-0.002324114
-0.0011745491
1.0487573E-4
-0.001057281
-0.0023343896
-0.002932704
-0.002212822
-9.936338E-4
-6.4434396E-4
-2.8325146E-6
-3.9705745E-4
-8.204101E-4
2.0827551E-4
0.0027973813
0.00375157
0.0018651981
0.0028173
-0.0012531052
-0.008534414
-0.0031429091
0.0036302067
0.004046447
0.0041340296
0.002932482
0.0057581775
0.008053431
0.0038170184
5.3694175E-4
-6.6248025E-4
-6.766504E-4
-0.0023299328
-0.0062735304
-0.006193584
-0.003211328
-4.9177516E-4
3.2373398E-4
-9.2774775E-4
-0.0014307795
-0.0011452896
3.099221E-4
9.861817E-4
-0.0010848928
-0.002108169
-0.0010487277
-1.3435728E-4
-3.5091466E-4
-9.2722307E-4
-9.6655404E-4
-2.8171075E-6
0.0019874363
0.0022514376
6.8198924E-4
-3.775514E-4
-5.099996E-4
3.5033052E-4
1.42143E-4
-4.1277107E-4
5.1449507E-4
3.3630576E-4
8.3335384E-4
0.0035206995
0.0035088805
7.862039E-4
-8.569778E-4
-0.0012428277
-5.9340976E-4
1.8287353E-4
4.5963575E-4
0.0017650499
0.0014145875
-3.5133972E-4
5.453293E-4
8.369864E-4
9.802685E-4
9.905036E-4
-0.0034826738
-0.005306486
-0.0027707696
-0.001087807
0.0011442233
9.5781E-4
-6.223439E-4
-8.8287075E-4
-0.0026649276
-0.0017757344
0.0014215208
-2.7854103E-5
-0.0027648124
1.51748E-4
0.004315947
0.0026955423
0.001870908
0.0035694689
6.8943243E-4
-0.0019296589
-0.002541797
-0.003175941
-2.8797716E-4
0.0019340725
0.0014594976
8.597759E-4
6.44351E-5
0.0015810628
0.0025575121
4.3990294E-4
-0.0011668791
-0.0027239237
-0.0032158084
-0.0015711562
-9.064474E-4
-8.5448724E-4
-5.9227634E-4
-4.1597473E-4
1.843462E-4
9.035175E-4
0.0016596497
0.0014752316
7.7455526E-4
0.0015602404
0.0013276541
-4.6008563E-4
1.7831837E-5
-9.772008E-5
-0.002743922
-0.0018698229
0.001697022
0.0019698585
-1.6752232E-4
-0.0011987984
6.857168E-8
0.0010632472
-2.6951297E-4
-0.0013418519
2.9525184E-4
0.001444316
-4.5268418E-4
-0.0011539735
-5.070406E-4
-0.001476607
-8.543815E-5
7.024041E-4
-0.0022049753
-0.0014781338
0.0010807792
0.0014602582
0.0018303377
0.0017992179
0.0021160298
0.001027715
-5.8311375E-4
0.0011105357
0.0011339212
-2.1590097E-4
7.1129616E-4
-2.8367122E-4
-0.001361965
4.6339253E-4
2.7549473E-4
-0.00177613
-0.0021892968
-0.0022815692
-3.4633355E-4
0.0022678704
0.0012833546
0.002577104
0.0019918997
-0.0037031572
-0.0020593049
-0.0029587853
-0.009846058
-0.0053209895
0.0010885888
0.0026216772
0.004818962
0.0036503188
0.0034907262
0.0021759914
-0.0023389503
-6.9372496E-4
0.002106096
0.0018449153
0.0018031967
3.4361717E-4
-5.802377E-4
7.70128E-4
0.0016262322
-4.867715E-4
-0.0031762794
-0.003081127
-0.0012813106
0.0010585852
0.0012356654
5.721417E-4
0.001903672
0.0012243881
5.3195393E-4
0.0012580345
-6.241003E-4
-0.0019913593
-0.00162797
-0.0013592339
1.6171798E-4
0.0012759183
-9.5464615E-4
-0.0029233906
1.1108806E-4
0.0018570971
-3.3153128E-4
6.957652E-4
0.001980853
3.106949E-4
-8.6523587E-4
-0.0022317015
-0.0024567274
-0.0012484923
-0.0014635872
-0.0016020474
-3.781518E-5
0.0023718257
0.0025934498
-8.12425E-4
-0.0029148445
-7.9806586E-4
0.0013268079
0.001344108
0.0024609736
0.004043808
0.002665141
6.2549923E-4
3.7181113E-4
-3.2517832E-4
-0.0020644893
-0.0019290488
2.4704082E-4
5.9338135E-4
-0.0010816881
-0.001757806
-0.0010178935
2.9254472E-4
-1.133283E-4
-0.0018578059
-4.0853224E-4
0.0015292141
-2.3920082E-4
-7.459554E-4
8.5872534E-4
3.3320588E-4
4.2458656E-4
0.0016729208
5.095603E-4
6.0614773E-5
7.028795E-4
-1.5431359E-4
0.0014461653
0.0025678568
-0.0010348468
-0.00263893
-0.001821802
-0.0016179341
-3.6176978E-4
-4.830029E-5
-2.3773221E-4
3.4689248E-4
0.0010210326
0.002513304
7.8734965E-4
-0.0036018495
-0.0045651714
-0.00396907
-0.002911281
5.968411E-4
0.0035218154
0.0030577418
0.0017407592
0.0023813015
0.0030751892
0.0030930396
0.0025800634
0.0010870176
0.0017406181
0.0027982031
0.0022152152
0.0021430994
-0.0010278608
-0.0051771966
-0.0049456763
-0.0040618
-0.0035342574
-0.002430997
-0.0015456594
-0.0010060121
-0.0017506443
-0.002130627
-0.00260506
-0.0033398003
-0.0013593105
2.0172764E-4
-1.7490404E-4
5.8245746E-4
0.0016986608
0.0016606116
1.029461E-4
-0.0015034861
-0.0015044069
-7.639067E-5
0.0025617161
0.004898354
0.008094599
0.012312993
0.012408005
0.008709391
0.0045101293
0.0019598547
0.0015702762
-0.0018677865
-0.006357159
-0.00773596
-0.010299166
-0.010710111
-0.0057841064
-0.0013830017
0.0010368158
6.040317E-4
-0.002593372
-0.0039955885
-0.0031425678
-0.0018931743
-0.0017458058
-0.0028653261
-0.0030457575
-0.002005533
3.6942615E-4
0.0031407035
0.0033811487
0.0024655252
0.0024638867
0.002303106
0.0026320682
0.003585681
0.002898942
0.0016754752
0.0021793554
0.0028931818
0.0027958811
0.0026821378
0.0015830004
-0.0015060182
-0.0043649753
-0.004253941
-0.0023476235
-5.396341E-4
9.854552E-4
9.638021E-4
-9.476793E-4
-0.0022616554
-7.0330943E-4
0.0013926285
0.0010569305
6.129557E-4
9.951203E-5
-1.8047835E-4
0.0027258033
0.0029983833
-8.2252774E-4
-0.002017057
-0.0023849972
-0.0028634258
-0.0020946383
-0.001687126
4.7103353E-4
3.7379624E-4
-0.0034488803
-6.141696E-4
0.0027193846
-0.0034080574
-0.0056064436
0.001123977
0.00499643
0.0027979861
-0.0012198479
-9.175844E-4
0.0031102062
0.0041813925
0.003357622
0.0013798776
-0.0011953291
-1.9117711E-4
0.0011801991
7.222608E-5
-0.0020159055
-0.003770838
-0.0020392158
0.0011913673
0.0018992083
0.0010550633
1.8212189E-4
-9.738869E-5
-0.0010853423
-0.003152698
-0.0031502915
-6.95781E-4
6.7550835E-4
-4.2949425E-4
-0.001576027
-0.0010166501
2.7234646E-4
0.0016999653
0.004253625
0.006278877
0.0045253653
0.001795196
0.001171381
9.342333E-4
7.0731156E-4
-4.6184147E-4
-0.003654424
-0.0064216163
-0.0058632563
-0.0033781917
-0.0032946188
-0.0025917634
0.0011064229
0.001981433
3.6528494E-4
-7.0217815E-5
-5.271885E-5
-0.0018436916
-0.0043394086
-0.0025185617
-6.2984554E-4
-0.002026141
-7.6955796E-4
0.0019070111
0.0044610337
0.0070537124
0.0066044754
0.003717239
5.6572014E-4
0.0017594788
0.0063138613
0.007499038
0.006628119
0.005433994
0.004440368
0.002270245
-0.0037984615
-0.0074041877
-0.0073616616
-0.007514047
-0.0059607453
-0.00476334
-0.004134462
-0.0025230073
-0.0027536058
-0.0035976924
-0.0040537585
-0.0057529313
-0.0061253575
-0.0030220773
-4.2863752E-4
-0.0012585894
-3.7397773E-4
0.005549784
0.0097052585
0.0068835686
0.0038739042
0.0056135817
0.00625941
0.005430045
0.0064669573
0.004964781
-1.7348141E-4
-0.0042192405
-0.004870175
-0.0041170744
-0.005570387
-0.007879794
-0.007607643
-0.0053704153
-0.0041244538
-0.0038768977
-5.964837E-4
0.004070486
0.0026796374
-0.0042142505
-0.0067115324
-0.0028115327
-0.0021190115
-0.004302018
-0.0034745065
-0.0038025728
-0.0051003327
-0.0039638067
-0.0025406878
8.9082296E-4
0.0064518596
0.010641865
0.01527732
0.020507418
0.023698162
0.025683455
0.026769074
0.026451962
0.022218816
0.011905959
0.0024983538
-0.0022256162
-0.0054560103
-0.008399982
-0.016458614
-0.02583444
-0.028199667
-0.032202534
-0.03845002
-0.03879895
-0.033091474
-0.01944084
-0.007001663
-0.0067136786
-0.0075595556
3.7422957E-5
0.008382693
0.011725321
0.01344592
0.012008082
0.007044344
0.0024776184
-0.0035923237
-0.0047990377
9.178619E-5
0.0019240775
0.011264766
0.032224476
0.0522169
0.06489581
0.059584364
0.03689715
0.010859865
-0.0120330695
-0.023875467
-0.022881644
-0.018818224
-0.017835297
-0.02164909
-0.028706126
-0.031074295
-0.024300123
-0.017925281
-0.0151985865
-0.011185787
-0.009349059
-0.0012623747
0.015315167
0.01651528
0.004606544
0.0062015723
0.018986426
0.025411801
0.018523738
-0.0021817635
-0.014342117
-0.0051307073
-0.005470509
-0.016396865
-0.018749157
-0.024142236
-0.02002016
0.001041513
0.017425649
0.0341491
0.053542633
0.063564375
0.064755894
0.054534823
0.0073117376
-0.08513305
-0.15563084
-0.15619165
-0.1213688
-0.07641501
-0.03123961
0.0041800155
0.04128835
0.085335955
0.124513164
0.14123
0.12010286
0.054621812
-0.021950334
-0.047821272
-0.013199534
0.031155352
0.027528036
-0.0074404026
-0.0014718683
0.039692644
0.073910534
0.087231696
0.05719406
-0.009159975
-0.05858492
-0.054898545
-0.055274203
-0.1053748
-0.12475166
-0.092732094
-0.07218876
-0.065793104
-0.055549018
-0.02581279
0.012120966
0.043979798
0.08345822
0.08521033
0.023692502
-0.043684907
-0.08150974
-0.08817202
-0.065187834
-0.019513914
0.04117517
0.11878572
0.18191631
0.19841164
0.19289069
0.13650124
0.039445695
-0.011926918
-0.06446445
-0.13515328
-0.16302447
-0.1618682
-0.09993612
0.011436723
0.09012798
0.14084736
0.15645133
0.114433676
0.04874748
0.0034702283
-0.04080641
-0.14062847
-0.21331778
-0.17394091
-0.11456269
-0.09223784
-0.052295312
0.038786434
0.11030355
0.07500738
-0.009398252
-0.0364078
0.004560251
0.035938498
-0.0044313115
-0.074880034
-0.10991428
-0.06886872
0.02290458
0.08545328
0.13834383
0.1768632
0.13501395
0.09181813
0.09162275
0.06596342
0.031422988
-0.00599356
-0.07196237
-0.10440793
-0.05261723
0.048187852
0.12939297
0.16282065
0.14944446
0.03980258
-0.14103836
-0.2507641
-0.27611378
-0.28080046
-0.20903835
-0.059956644
0.04695481
0.062897556
0.029067276
0.010943549
0.004935096
-0.071593516
-0.17663947
-0.20616776
-0.17071661
-0.105247565
-0.058470238
-0.03319112
0.022159444
0.05115794
0.05734775
0.11749493
0.19249871
0.26489553
0.31640825
0.2941559
0.22911313
0.17316641
0.15462998
0.11320836
-0.0144502865
-0.15735859
-0.24282333
-0.21538939
-0.10744709
0.0012524215
0.17177474
0.33206147
0.3329442
0.22967231
0.04997633
-0.1906311
-0.38764492
-0.46253148
-0.3895589
-0.26197222
-0.17387295
-0.120379515
-0.09068027
-0.053999133
-0.011673671
0.0014439421
-0.006360702
-0.01662455
0.005031273
0.066049434
0.10727993
0.09099388
0.03862835
-0.03300074
-0.09952263
-0.090708196
-0.044297293
-0.030523766
0.033777885
0.13307308
0.15211208
0.11410185
0.099952385
0.17482549
0.26803464
0.26681143
0.26152813
0.27163383
0.17750502
0.016721908
-0.10293069
-0.14618589
-0.13988368
-0.12558715
-0.08879228
-0.01944248
0.0285319
0.019178597
-0.011012479
-0.06575383
-0.17504491
-0.23695888
-0.18653892
-0.12204874
-0.09546781
-0.08083462
-0.07322408
-0.088880226
-0.11391124
-0.09321314
-0.03920754
0.0015709398
0.04184644
0.075646475
0.09435477
0.115815505
0.120555215
0.103386804
0.09559389
0.09661685
0.09223356
0.084533505
0.06677038
0.042154122
0.031167569
0.024113378
0.0076424144
-0.005792073
-0.014583964
-0.020628648
-0.01959842
-0.011834141
-0.0015645179
0.0037812637
0.009996329
0.01643063
0.005903342
-0.01879318
-0.0384242
-0.03644459
-0.02294
-0.026259603
-0.0385107
-0.038274623
-0.032370493
-0.034524634
-0.0414506
-0.038133796
-0.026362306
-0.016092043
-0.0040700207
0.009175879
0.019903552
0.026492035
0.028272916
0.030064886
0.03062207
0.029351143
0.024568412
0.010004308
8.9711254E-4
0.0036242844
0.0032159504
0.002800538
0.0020561041
-0.0030456022
-0.003929113
-9.174988E-4
0.0033057537
0.003598208
0.0013475303
0.0046917386
0.0026163864
-0.0024251787
-0.0023077063
-0.010194704
-0.018860653
-0.018012457
-0.017201072
-0.018424137
-0.01764293
-0.009595435
0.0033307204
0.013644948
0.018308308
0.007567597
-0.013578439
-0.023335313
-0.022459498
-0.026700009
-0.03736373
-0.045922846
-0.04295764
-0.021614036
-4.6813258E-4
-0.0024764375
-0.012516815
-0.014808614
-0.010311532
0.003868994
0.019931871
0.03129308
0.043842494
0.059209846
0.064508975
0.050350823
0.042817872
0.05255304
0.052673407
0.04400767
0.03701152
0.027982472
0.018270703
0.0118595045
0.015123667
0.01505858
0.0036892353
0.0025036358
0.011800934
0.017129583
0.0136309825
0.0047823293
-0.0015999894
-0.012274442
-0.021778826
-0.02697928
-0.04384695
-0.05584478
-0.05500801
-0.05623165
-0.04756485
-0.032459732
-0.0279954
-0.026984511
-0.020567892
-0.011527685
-0.010786056
-0.019800212
-0.03130348
-0.042481948
-0.048777953
-0.051873602
-0.048813764
-0.03492286
-0.022757541
-0.015752414
-0.008882793
-7.846848E-4
0.011153928
0.022500398
0.034087062
0.045718864
0.04871875
0.045409344
0.042046614
0.04844002
0.06235973
0.06078706
0.057787776
0.07948748
0.10598433
0.1342167
0.16840634
0.15769589
0.09111832
0.028088016
-0.003706804
-0.0050903335
0.008715773
0.012549067
0.019452713
0.012810024
-0.032842457
-0.054245137
-0.056829937
-0.11723279
-0.17343982
-0.16788334
-0.16816065
-0.1772378
-0.15426674
-0.12875102
-0.10958395
-0.079183355
-0.061225984
-0.06379138
-0.058166012
-0.03914492
-0.021113113
0.0012440954
0.033700522
0.06149458
0.07920093
0.092917114
0.10062995
0.105316065
0.109233186
0.10627577
0.10066569
0.09789241
0.09387601
0.08478909
0.07175488
0.06342287
0.058556944
0.04359379
0.024185395
0.01110629
-3.8118256E-4
-0.010946536
-0.02196035
-0.03236827
-0.032133605
-0.029817082
-0.034538142
-0.03633325
-0.034386992
-0.034633465
-0.036952924
-0.03754205
-0.035459127
-0.035526466
-0.03624589
-0.038305573
-0.03924926
-0.033074334
-0.03382139
-0.035755433
-0.021388885
-0.01139524
-0.013138674
-0.010960971
-0.0041159834
0.0056225713
0.01029604
0.009075227
0.014803889
0.023167651
0.025352523
0.022630135
0.016181676
0.008565624
0.0054177335
0.008658938
0.0115257455
0.013044883
0.017301394
0.018341077
0.014967331
0.013842475
0.013998399
0.011433554
0.00763078
0.0060425517
0.0063638706
0.0068992986
0.007156795
0.0068784417
0.0065438487
0.00834031
0.013240046
0.01559846
0.012726134
0.0096762115
0.007406948
0.0056487713
0.0066344608
0.008288481
0.0070764283
0.0055966373
0.0056590056
0.0014911077
-0.0039627803
-0.00297275
-0.002385227
-0.0064869174
-0.0077884747
-0.0038384309
-6.521556E-4
-0.0011089573
2.957552E-5
0.003727465
0.0062410915
0.007426796
0.0070718797
0.005645297
0.0039924653
0.002374325
0.0017391436
0.0026220968
0.0041532815
0.0051159584
0.007998369
0.009141727
0.005239133
0.0041191983
0.0030580603
-5.5504695E-4
-0.0027897109
-0.0077803843
-0.0091507
-0.006132629
-0.008575089
-0.009566653
-0.0056678294
-0.0022777298
-0.001325249
-8.0873416E-4
-0.0013616529
-0.0108488
-0.014422591
-0.0024883142
-3.607718E-4
-0.00683888
-0.005315906
-0.0040866374
-0.0040523205
5.1262695E-4
0.0050188117
0.005506886
0.0043997257
0.003987577
0.0028900076
0.0031680958
0.0052705877
0.005461221
0.0038618464
0.0022609618
0.0015336832
8.873751E-4
-2.3045421E-4
-0.0018931216
-0.0015366868
0.0029458757
0.0021320314
-0.0036722217
-0.0022789377
4.0640842E-4
-0.00250121
-0.005805506
-0.0064644585
-0.0041554403
-0.0028005652
-0.0037285236
-0.0041246847
-0.0040348023
-0.0034525963
-0.0039397115
-0.0038202396
-5.109189E-4
8.742101E-4
-8.058734E-4
-0.0017254442
-0.0010909287
-1.1184384E-5
-3.361671E-4
-5.960197E-4
2.7434466E-5
-0.001090173
-0.0022652845
-0.0014258742
-8.8173035E-4
-9.817376E-4
-6.124831E-4
-0.0011322986
-0.0020121865
4.175031E-5
0.0035583794
0.0034279006
0.001431675
0.0020130824
0.0013446218
-0.0021445462
-0.0027133797
-0.001104589
-3.0553772E-4
0.0010749847
0.0019130459
0.0016110936
0.0025893678
0.004544665
0.005097479
0.0044020475
0.001836202
-0.0041673384
-0.007896184
-0.0059299697
-0.0037860447
-0.0022758578
-0.0010173377
-0.002481061
-0.0047807996
-0.0052424544
-0.0028955527
-0.0015233419
-0.004464778
-0.006073263
-0.0044816905
-0.003504844
-0.0027453573
-1.6389471E-4
0.0027693508
0.001515951
-6.47579E-4
0.0010054627
6.722872E-4
-7.5717387E-4
0.002152152
0.0047211163
0.004567065
0.0044771116
0.004512192
0.0044360296
0.0043437323
0.0018333335
-0.0029752543
-0.0052962746
-0.0041935025
-8.6943014E-4
0.0021963897
0.001812031
0.0016649838
6.463991E-4
-0.0028139062
-0.0028912914
-0.003572944
-0.0050986977
-0.0037079966
-0.0053537986
-0.005475524
-0.0022107335
-0.002313303
-0.0011891472
6.604777E-4
-2.5276252E-4
-1.9036118E-4
8.495177E-4
0.0011089167
9.6611405E-4
0.0028107548
0.0031384854
4.4909646E-4
0.002086495
0.0023138763
-0.0017711614
-0.0015546809
-4.7921797E-4
-8.391385E-6
4.1066293E-4
-0.0015653362
-8.187367E-5
0.0015990739
-0.0013066862
-0.0020408034
-7.916063E-4
-3.6113683E-4
0.0010685811
0.001681726
8.2564953E-4
0.0017245889
0.0028663112
0.0015623135
-4.7083228E-4
-0.0029013208
-0.004177878
-0.0037616738
-0.0039522783
-0.0022993844
-8.9402846E-4
-0.0014425343
-5.6722685E-4
-0.0010502203
-2.6987342E-4
9.5735374E-4
-0.0027782614
-0.0022912861
8.067601E-4
-8.3414913E-4
-0.001099164
-0.002012087
-0.0033803557
-0.0011408657
-6.8060966E-4
-8.764076E-4
-3.9535164E-4
-6.050566E-4
0.0023174738
0.004606854
0.0037250926
0.0053494014
0.0078081894
0.007739838
0.0073511056
0.006402982
0.0030769866
-0.0017829721
-0.00499412
-0.0051880907
-0.004966115
-0.0038550445
-0.0011061159
-7.6334155E-4
-0.0030951174
-0.005936756
-0.007358627
-0.0052930834
-0.0025241715
-5.277721E-4
0.0016074529
0.0031087578
0.0025637131
-0.0026639567
-0.007965797
-0.008160127
-0.006650584
-0.0031806964
0.0014202044
0.002827005
0.002338282
0.002279912
0.0034080215
0.004617471
0.006034563
0.007857262
0.00808991
0.007059149
0.002576656
-0.0015912415
7.725626E-4
0.0010107968
-0.0026778905
-0.004006357
-0.004690589
-0.0039082333
-0.0012223772
0.0016048502
0.001305501
-0.002788858
-0.0022174967
6.001242E-4
-4.7400434E-4
-9.5261645E-4
-0.0015483813
-0.0025794215
-0.002268853
-0.0018947556
-8.757328E-4
-0.0012629562
-0.0020533274
-3.9045632E-4
0.0012151789
0.0012189024
-1.0769726E-4
-1.810976E-4
7.2247407E-4
3.0295333E-4
0.001541388
0.0021326703
3.5773544E-4
7.24823E-4
6.502071E-4
-6.952963E-4
-7.461845E-4
-0.002265385
-0.0037153775
-0.002516155
-0.0013485311
2.9998447E-4
0.0031461373
0.0028479905
2.821554E-4
0.001467672
0.004196933
0.002944538
3.258657E-4
-3.5037773E-4
-0.0018155908
-0.0031659703
-2.4463792E-4
0.0018166476
3.9010108E-4
0.0011290951
0.0015502458
6.021727E-4
0.0014802358
8.086065E-4
-3.4029633E-4
1.4424491E-4
-1.9662402E-4
-0.001172636
-0.0027405925
-0.003008516
-0.0016655033
-0.0019903313
-0.0022768592
-0.0015060909
-6.6570815E-4
9.288525E-5
-5.2978756E-4
-0.0011688112
-9.0859697E-4
-2.056589E-4
-1.4362574E-4
-0.00228703
-0.002599208
-3.0118466E-4
-2.7564453E-4
-0.0016458024
-0.0017097776
-1.3662163E-4
0.0017691877
0.0027295533
0.0031097631
0.0014991602
-2.5803226E-4
0.0016422747
0.0046958276
0.0060547916
0.005028095
0.003072826
0.0042797984
0.0054878467
0.0024754612
3.7286506E-4
-0.001660674
-0.007757943
-0.008653462
-0.002502031
-2.102251E-4
2.2785798E-4
0.0030956366
0.003837498
0.002945488
-3.306738E-4
-0.0077648293
-0.008784043
-0.0023961808
-0.0057353056
-0.01284473
-0.005873102
0.0015863613
2.691039E-4
0.0025214565
0.0055284053
0.004190898
0.0032410626
0.002528814
0.001092002
-4.776686E-4
1.3997573E-4
0.003246467
0.0036710722
0.0010609785
6.672191E-4
0.0027026432
0.0018006488
2.1093691E-4
0.0012905578
-7.374677E-4
-0.0034083545
-0.0023187858
-0.0013815769
-6.627393E-4
-4.91422E-4
3.6152443E-4
0.0023627586
0.0010212986
-3.755132E-4
-6.029487E-4
-0.0021192946
-0.0018364579
-6.443408E-4
-2.2061537E-4
5.842481E-4
0.0020164405
0.0018830993
-4.1002576E-4
2.8822932E-4
0.0013799234
-1.147093E-4
-1.7268234E-4
-0.0016543954
-0.002214859
4.8350694E-4
3.9778848E-4
0.0020836066
0.0041369
6.917969E-5
-5.7392527E-4
-0.0013337028
-0.010295092
-0.009989053
8.050003E-4
0.0032358156
0.0018876066
0.0032122005
0.0015935694
-2.8605535E-4
-1.5140598E-4
0.0010453409
0.0012811074
-2.722013E-4
6.1237346E-4
-2.085421E-4
-0.0022723689
6.1920955E-4
7.191143E-4
-0.0011275525
8.567251E-4
0.0020911165
0.002707138
8.18581E-4
-0.0012600024
0.0014705742
4.128535E-4
-0.003234841
-0.0018058722
-4.1184598E-4
-0.0018429534
-0.0026427133
-4.7801388E-4
0.0018868147
0.0018954603
0.0020104158
0.0015245326
9.2383684E-4
0.0010250546
-4.05754E-4
-8.569396E-5
0.0011549252
8.7380264E-5
4.3568268E-4
5.2968605E-4
-1.2874912E-5
0.002316431
0.00137324
-0.0025297545
-0.0016676529
-5.535767E-4
-9.419651E-4
0.0019095609
0.0020552278
-0.0017532484
-0.0019166447
-0.0020830266
-0.0047697853
-0.0035230208
-0.0013085827
-0.0021663134
-0.0015562921
2.393876E-4
7.3021505E-4
9.209519E-4
5.18249E-4
2.3745873E-4
0.0013169935
0.0025307115
0.0024167197
0.0012144917
6.8386336E-4
8.801708E-4
7.176224E-4
5.3432846E-4
0.0014526347
0.0035753096
0.0035636525
0.001410084
0.0011418686
2.0665895E-4
-0.0024048276
-0.0013936575
9.745038E-4
-5.5648084E-4
-0.0021979322
-0.0013429418
-0.0023365421
-0.0026057684
4.5749958E-4
-8.618799E-4
-0.0039602993
-0.001660693
-2.8094382E-4
-0.0015990426
-0.0016505833
-8.467613E-4
3.6296486E-5
-7.19848E-4
-8.191584E-4
0.0015382079
0.0034257
0.0049359803
0.005031125
0.0033491286
8.002983E-4
-0.0023802398
-0.0022188262
-9.378414E-4
-0.0021066829
-0.0017982852
8.3445595E-4
0.004489654
0.0071978136
0.0074216034
0.0059486916
0.0022068329
-0.0015076183
-0.0046599456
-0.0075394274
-0.007019987
-0.0057610436
-0.0044510383
-0.0024059217
-0.0032658528
-0.0037275627
-0.0016587921
-2.466006E-4
3.0339012E-4
1.4910843E-4
1.0668029E-4
5.535955E-4
0.0011252512
0.0018337804
0.0016504802
8.314261E-4
2.6291932E-4
3.7883726E-4
9.7201126E-5
2.1850373E-4
0.0034202465
0.0056950077
0.005938473
0.0073725535
0.006102325
0.0029059597
0.0022596112
1.6104116E-4
-0.0026571788
-8.2490576E-4
-0.0011200483
-0.0039691105
0.0010693069
8.7804795E-4
-0.010309808
-0.008489063
2.4458504E-4
-0.0015448844
-0.0023147587
-0.0011526459
-0.0018519545
0.001379172
0.0032085376
0.0013741541
-8.7655144E-4
-0.00342929
-0.0028378845
-0.0013018916
-0.0020780056
-0.0010094146
6.2411544E-7
-0.0010794522
5.330905E-4
0.0013054551
-0.001356201
-6.3020387E-4
0.0016823632
0.0014700163
0.0014429069
0.001861358
0.003578244
0.0047880956
0.002008862
1.4155587E-4
7.342509E-5
-0.0025368934
-0.0035333624
0.0011536921
0.00614856
0.005941679
0.0033541068
0.0021163526
0.001441699
7.9541194E-4
-0.0016022519
-0.0037990238
-3.5376733E-4
0.0014093426
-0.003338903
-0.0038772253
-6.215701E-4
-0.0014231332
-0.0024237803
-4.5571598E-4
0.0018947917
8.969042E-4
-0.002309344
-0.0014392828
-3.410194E-4
-0.0038481513
-0.0045603206
-7.2443526E-4
-2.0769363E-5
-0.0019950573
-7.934422E-4
-5.339693E-5
-0.0021263305
-0.001631316
1.9932468E-4
0.0012389651
0.0010616289
-9.01597E-4
-2.0823965E-4
0.0013453981
0.001448155
0.0022022608
0.0012116613
7.133034E-4
0.0015607501
0.0013700478
0.0022965902
0.002118759
0.0018594757
0.0042692013
0.005216781
0.0049451715
0.0037227857
4.8396987E-4
-0.0011344862
-0.0011735405
-0.0022646785
-0.0029064293
-6.518735E-4
0.0019779184
0.0012415271
-0.001214198
-0.0021765195
-0.001621236
-0.002756948
-0.004857222
-0.0044445815
-0.004312748
-0.0042200335
-0.002290162
-0.002778254
-0.0029549382
5.4597616E-4
0.0020392246
0.0010290232
8.2586816E-4
2.7880885E-4
-3.879972E-4
9.278849E-5
5.487816E-4
-1.7530617E-4