0.0016178903
0.002733806
0.0024671603
9.3593315E-4
2.361768E-4
0.0015250907
9.889788E-4
-1.0068677E-5
1.3746927E-4
2.556067E-4
0.0014185177
0.0018824174
0.002583308
0.003116807
3.7177702E-4
7.6072087E-4
0.0033844912
6.023215E-4
-0.0025909883
-0.0026694078
-0.0012040415
4.7217368E-4
-8.5928675E-4
-0.0018142768
-4.3903114E-4
-0.0011333295
-0.0025159328
-0.0023789469
-0.0018481762
-0.001027626
5.51426E-4
0.0023843478
0.001971066
8.7862805E-4
0.0011876398
3.9924016E-5
-7.920417E-4
-7.7490124E-4
-0.0018473077
-8.394049E-4
-3.6138407E-4
-0.0016942162
-4.1077708E-4
1.5701927E-4
-4.7774042E-4
0.0013078558
0.0020035238
-1.6126582E-4
-0.0012897428
3.1481514E-4
0.002019145
0.0026322342
0.0023507688
0.0010890281
1.6406842E-4
-6.2485406E-4
0.0011160782
0.0038283495
0.0010163705
-0.0010166224
1.4353052E-4
-0.0011111463
-4.957227E-4
8.104215E-4
-7.605716E-4
-0.0017615834
-0.0012467465
-2.4618497E-4
-0.0021832904
-0.005165571
-0.004662403
-0.0016105894
0.0023570214
-4.4002195E-4
-0.006739374
-0.003941933
2.4765595E-5
-1.9577309E-4
0.0015171308
0.0033914796
0.0042789807
0.0037028212
0.0023858899
0.0021077052
5.9696654E-4
6.8401016E-4
0.003268414
0.004574939
0.0056018895
0.0038538703
-9.344191E-4
-4.6225108E-4
0.0038238575
0.0021778203
-0.004173561
-0.0070382385
-0.006173309
-0.0043799444
-0.0013881682
-6.54453E-4
-0.0021688158
-8.8205584E-4
-2.6551614E-4
-0.0020808717
-0.0017421093
-0.0012211569
-0.0012989113
7.678102E-4
0.0022354657
7.002606E-4
-7.629656E-4
4.5557573E-4
0.0010231669
5.26665E-4
0.0020025815
0.0017658809
4.276597E-4
0.0015099659
0.002022595
0.0019513146
0.0014482596
4.539106E-4
-4.7994655E-4
-0.00218109
-0.0010545034
-4.5968042E-4
-0.0032447593
-0.0018997563
0.0011243357
0.0014832752
0.0011435662
7.256099E-5
-4.0849592E-4
-8.981598E-4
4.3845113E-4
0.0033581061
0.0018814451
3.9569158E-4
0.0013345417
-7.7035686E-5
-0.0022759137
-0.0033077782
-0.0021157528
-3.447267E-5
-1.12096015E-4
-0.0010418767
-0.0017324914
-7.777168E-4
3.4685005E-4
-9.2825934E-4
-8.167475E-4
3.3973373E-4
8.6925784E-4
0.0019388592
5.5313756E-4
-2.6936596E-4
0.0014682473
7.202313E-5
-8.922787E-4
-9.8275545E-5
-0.0012403239
0.0010155484
0.0037656021
0.0016913951
5.496667E-4
7.84472E-5
-5.4785423E-4
4.8359673E-4
2.3067859E-4
-3.2142256E-4
-9.2117465E-4
-0.0014867693
-5.4328976E-4
-0.0015915409
-0.002146338
-7.643581E-5
-9.017185E-5
-8.289339E-4
-2.9206712E-4
7.1639504E-4
0.0020323768
0.0025314684
0.0014928159
-7.6879276E-4
-0.0013218329
-2.522035E-4
-2.9884733E-4
-9.262317E-5
5.179877E-4
0.0013453125
0.0011570877
-0.0017799776
-0.002165429
7.272991E-4
0.0012006393
-9.158482E-5
-2.3832331E-4
1.9759026E-4
-4.0274768E-4
-0.0010458138
-0.0010261647
-0.0012896586
-3.4114023E-4
5.680811E-4
-9.262813E-5
5.011631E-4
6.5165147E-4
-9.693282E-4
-2.0842151E-4
0.0011082604
-6.815096E-5
6.3763733E-4
0.0016647939
-0.001103233
-0.0014571357
1.1230434E-4
-0.0015768658
-6.0946355E-4
0.0023911777
0.0012950539
3.3806934E-4
0.0020091047
0.002083392
-5.594691E-5
-5.9593556E-4
-6.6925E-6
-9.949501E-4
-0.0011348058
-2.6834215E-4
2.46136E-4
0.0013779256
0.0019714467
0.0011536721
-2.7422945E-4
-1.0036444E-4
-5.8777333E-4
-0.0032159782
-0.0010933612
0.001758417
5.8653747E-4
0.0013666967
1.727999E-4
-0.002528348
-0.0011139793
-0.0017180222
-0.004047744
-0.0035852026
-0.002674126
-0.001830876
1.9255541E-4
0.002324221
0.00154932
-0.0010673986
-0.0016871731
-1.0124015E-4
0.0021351124
0.0032401606
0.0031288748
0.00216388
0.0013265987
0.0020459914
0.002561261
0.0023738104
8.085846E-4
-4.1858965E-4
0.0014832757
0.0019074077
0.0017522617
0.0012705614
-0.0020052728
-0.0017472359
-9.885553E-4
-0.0016692209
1.5855547E-4
1.9592997E-4
1.1658621E-5
-0.002068538
-0.00362564
3.3464594E-4
-0.003923406
-0.00851529
-0.001538674
0.0010617718
-5.33426E-4
-2.1640355E-4
2.9786467E-4
0.0019505206
4.4823167E-4
-9.1777346E-4
4.369155E-5
4.3132642E-4
0.0016870667
0.0014685959
0.0020198775
0.0027109676
3.1601192E-4
3.565845E-5
1.6597836E-4
-3.498735E-4
2.96597E-4
3.976642E-4
0.0015523114
0.0010008226
-8.0001634E-4
-2.3821642E-4
-2.4740316E-4
-4.476936E-4
-1.6032202E-4
0.0011182678
0.0028514818
0.001278258
-1.6676306E-4
2.815741E-4
-2.305772E-4
-2.7783355E-4
2.3070995E-4
-4.3425857E-4
-0.0015130398
-0.0015469111
-0.0018074916
-0.001995865
-6.302498E-4
1.2412718E-4
8.3981914E-4
9.5167634E-4
-2.537424E-4
2.0245521E-4
1.7677795E-4
2.1640706E-4
7.725965E-4
8.864737E-4
0.003809104
-1.1650574E-4
-0.009775625
-0.0068662474
5.348156E-4
0.0011794458
0.0019524217
0.0026054762
0.001393685
3.4438114E-4
6.437366E-4
0.0015915417
1.6574866E-4
-4.958901E-4
6.197761E-4
-8.338979E-4
-0.0023588073
-0.0015096808
3.5191115E-4
8.807565E-4
-0.0010880183
-1.4587794E-4
0.0027585744
0.001277479
-2.4886557E-4
6.1309926E-4
8.830046E-4
0.0020649899
0.0029718792
0.0013921865
-9.2475835E-5
5.0900975E-4
9.158826E-4
-3.9518106E-4
-3.5511103E-4
-5.8239466E-4
-0.0034861497
-0.0037356638
-8.260738E-4
9.6423714E-4
0.0010729181
0.0012552622
0.0019628624
8.464029E-4
-2.5074228E-4
-8.5351005E-4
-0.0031512617
-0.0028584276
-8.8524807E-4
5.610626E-5
0.0012911012
5.770839E-4
-1.7546612E-5
-2.2372884E-4
-0.0012686996
5.119203E-4
2.0501071E-4
-0.0032058521
-0.002415502
4.885005E-4
0.0015652726
0.0012453464
8.620026E-4
8.524007E-4
0.0010889892
0.0020579328
0.0017514621
2.647619E-4
-0.0011747703
-0.0022385747
-0.0011894807
-5.482425E-4
-0.0011568326
-5.520134E-4
1.0052438E-4
3.892011E-4
9.095541E-4
0.0018904085
0.0018387171
1.8434181E-4
-2.7119878E-4
-3.21528E-6
7.0755044E-4
6.194302E-4
-0.0011746611
2.7434807E-4
0.0019439966
7.572441E-4
0.0013860347
0.0022379241
0.0017645095
5.257994E-4
-3.830228E-5
0.0016559558
2.405177E-4
-0.0031432493
-0.0027074954
-5.9603236E-4
4.6935896E-4
-7.416872E-4
-0.0026413137
-0.0040480187
-0.0053672525
-0.0034612827
-7.8840787E-4
-4.3416367E-4
5.2553636E-4
9.812388E-4
4.614186E-4
5.761864E-4
3.2058315E-4
2.312269E-4
5.8446656E-4
0.0010527537
0.0019197955
0.0023605125
0.0023868366
0.002374202
0.0025773777
0.004016588
0.005312281
0.0030198006
-0.0022195322
-0.005680256
-0.005813479
-0.0038429887
-2.6830228E-4
0.0015788074
-6.234539E-4
-0.0020504675
-5.45996E-4
-1.3343191E-4
-0.0012617158
-0.0016761648
-8.1082695E-4
2.8460188E-4
2.5733883E-4
-1.886492E-4
5.8018453E-5
0.0016836117
0.0029849822
0.0021316132
0.0018645234
0.0014126489
8.463413E-4
0.0026385733
9.2061306E-4
-0.0015070478
6.944578E-4
-3.5852453E-4
-0.0011526893
0.0010962428
-7.916752E-4
4.6009736E-5
0.0012790045
-0.0058121867
-0.008315522
-0.0020826354
0.0017744487
0.001703557
7.3590135E-4
5.752007E-4
0.0012581078
0.0020076134
0.0026816782
0.0011590262
-0.0010817747
-5.902209E-4
8.428068E-4
0.0011392563
2.159398E-4
-0.0011189313
-0.0017082685
-0.0017315827
-8.227494E-4
-2.2264902E-4
-8.302514E-4
9.4234696E-5
4.4979117E-4
-0.0016733023
-0.0018675145
-7.473762E-4
-6.007705E-4
-4.826727E-4
-6.0809776E-4
4.3708528E-4
0.0013884064
3.8893736E-4
2.2095641E-4
5.215561E-4
0.0012919323
0.0026836132
0.0019445517
0.0015915999
0.0027295917
0.0043232306
0.0063072275
0.0039138976
-9.3832135E-4
-0.003412356
-0.005292256
-0.0047285096
-0.0019731738
-5.680345E-4
-2.980011E-4
-7.304189E-5
0.0023294103
0.0030197096
-0.0012307484
-0.0031481786
-0.0024047098
-0.0033717472
-0.003573415
-0.0021685606
-0.0011132921
-0.0012549508
-0.0010898819
-1.6947225E-4
-4.350226E-6
3.1797567E-4
5.9796555E-5
-3.9420725E-4
0.0014022347
0.0033911862
0.004164141
0.0029388154
4.4818016E-4
7.6595304E-4
0.0021650791
0.0013907958
-3.2988455E-4
-8.403194E-4
6.115938E-4
0.0011702245
-1.1266942E-5
-5.799442E-4
6.8486064E-5
7.5120106E-4
4.986307E-4
0.0017200933
0.002474977
-2.3719816E-5
-2.459561E-4
-2.4297957E-4
-0.0034736565
-0.0036956037
-0.002077803
-0.0016458014
-4.769375E-4
6.2981264E-5
-6.287978E-4
-0.0025744296
-0.004496943
-0.002680652
0.00122629
0.0024136035
7.685663E-4
4.4167455E-4
0.0025222686
0.0032127658
9.596405E-4
-4.3432938E-4
0.0011131867
4.797923E-4
-0.0023623728
-0.0011387684
7.4644235E-4
-0.001327267
-0.0040401192
-0.0035976917
6.819915E-4
0.0053581567
0.00855121
0.009408687
0.0067147766
0.0023243781
-0.004053132
-0.007994251
-0.0051706517
-0.0027088425
-0.0016128467
8.2717784E-4
0.0015777703
0.0012997268
0.0014422585
0.0012222042
-0.001532853
-0.0044612447
-0.003451077
-0.002924444
-0.0021077425
9.6420763E-4
0.0015316639
4.62672E-4
-0.0021528061
-0.003864655
-0.0015474994
-1.2508086E-4
0.001352327
0.0020243712
1.2944842E-4
0.0018656773
0.004107009
0.0032743842
0.0020774165
6.812623E-4
3.036323E-4
-3.820826E-4
3.455439E-5
0.0024077632
0.0019635677
0.0011523619
1.4083342E-4
-0.00151409
2.1103736E-4
5.8130838E-5
-0.0020888734
-0.0015927204
-0.0020321796
-0.0035386235
-0.0045406297
-0.0038349354
-7.174993E-4
0.001198807
0.0012969812
7.334917E-4
0.0010036388
0.0025557866
0.0028318905
0.002272101
0.0016626453
0.0017429637
0.001129876
-0.0014210852
-7.933296E-4
1.6594928E-4
-0.0017368485
-0.0018349828
-0.0018435455
-0.0010999147
8.173967E-4
9.920856E-4
0.0026570873
0.003596835
0.0018911336
0.0012798648
2.6014517E-4
-0.0024338355
-0.004339522
-0.0030224903
-7.884199E-4
4.3752312E-4
0.0022536127
0.0020727892
-7.2562677E-4
-0.004875195
-0.005265954
1.6503186E-4
-0.0022358394
-0.007861333
-0.002566468
0.0037168253
0.005999466
0.0049089715
-2.2750282E-5
-0.001556144
-0.0023712558
-0.0032639122
4.6109274E-4
0.0034451757
0.0031764123
0.0021350328
0.0015061054
6.68356E-5
-0.0010184421
0.0021111735
0.003705913
0.0017856376
0.0022558577
0.0042923964
0.006487245
0.005074395
-0.0015546246
-0.0054345797
-0.004551157
-0.0019679742
5.0637196E-4
-6.8122643E-4
-0.0041554086
-0.0054333997
-0.0049488386
-0.0043091895
-0.0022332713
0.0019661176
0.006644088
0.007858144
0.002680542
-0.0018123457
3.7935196E-4
8.639442E-4
-0.0040833927
-0.007458513
-0.008072373
-0.0073153554
-0.0027336674
0.0032448696
0.0027444623
-0.0019946327
-0.0019394519
-0.0010090808
-0.0036958128
-0.0040608062
-0.002085574
-0.0028875319
-0.0065023336
-0.0075082392
-0.0029421304
0.003948556
0.010289294
0.010530974
0.007782347
0.012481838
0.013965444
0.006812123
0.0034995598
0.002328715
0.0025651052
0.0056052604
0.0017074004
-0.0069312705
-0.0099641
-0.008357343
-0.008215777
-0.0073377434
-0.001587307
0.0031189001
0.0024959063
-0.0020701305
-0.008489467
-0.013750581
-0.016571568
-0.0144638745
-0.007161257
0.0024127164
0.009760108
0.012965653
0.01746821
0.019947268
0.0198808
0.023045287
0.019857226
0.014054895
0.01326927
0.010067761
0.011309515
0.012233672
0.002158054
-0.0053645736
-0.008522624
-0.012896125
-0.014100722
-0.0119073605
-0.010894209
-0.019192101
-0.036012262
-0.050731048
-0.054109078
-0.040761612
-0.021255752
-0.01187846
-0.006168448
0.01068611
0.024412548
0.018145997
0.009407446
0.00616407
-4.2537748E-5
8.8656717E-4
0.011845277
0.016849946
0.0040130788
-0.011964034
-0.008988317
-7.3310104E-4
0.013518864
0.04699896
0.057994746
0.036094345
0.028374175
0.03978135
0.05709932
0.0746766
0.07030316
0.035361342
-0.01565551
-0.056058034
-0.07416615
-0.08389536
-0.08380134
-0.06669868
-0.030205712
0.015861278
0.0344242
0.029418403
0.024451464
0.010456261
-0.004033478
-0.025512591
-0.058687374
-0.057802863
-0.015820691
0.024975508
0.020776464
-0.029215202
-0.06185503
-0.047581457
-0.007998672
0.02805992
0.039286207
0.035280682
0.021344328
0.01381856
0.021599727
0.0045349547
-0.02571965
-0.025350874
-0.004349156
-0.001166565
-0.03220107
-0.058729187
-0.06948418
-0.06273369
-0.0023839269
0.06082025
0.09298869
0.13197787
0.14708477
0.128692
0.10828885
0.09614714
0.09905556
0.080580786
0.049288306
0.051244948
0.030997422
-0.046775464
-0.12225898
-0.16771796
-0.18825446
-0.16124004
-0.1057147
-0.0903788
-0.116955504
-0.1403187
-0.12296834
-0.053169362
0.0048669144
0.0146812415
0.014751857
0.028749881
0.067220345
0.094989024
0.06218433
0.0024091196
-0.023286683
0.0016600805
0.042647615
0.07607716
0.13077861
0.19800836
0.22584704
0.20530316
0.17025179
0.14148721
0.063428186
-0.10861922
-0.2438741
-0.23047872
-0.1832617
-0.1687434
-0.12175342
-0.06535988
-0.0024696342
0.11143032
0.17696622
0.08852266
-0.052166056
-0.086233854
-0.04946628
-0.035172053
0.006395188
0.06276752
0.035405885
-0.006272953
0.046683673
0.07667732
-0.048232455
-0.15525627
-0.08877916
-0.017291056
-0.045645375
-0.07091943
-0.040415842
0.010102614
-0.005386864
-0.07988755
-0.08295037
-0.006125112
0.095910504
0.19993171
0.20362139
0.11265131
0.059896264
0.046310328
0.05302186
0.08127909
0.047528815
-0.025366211
-0.03973527
-0.029792454
-0.051199183
-0.053767826
0.0074432753
0.047050193
0.013168957
-0.0084479535
0.0018754336
-0.0039968407
-0.067457646
-0.21323806
-0.33079606
-0.30646497
-0.19479115
-0.085526034
0.007675345
0.07919108
0.095588356
0.11625676
0.18810089
0.2029197
0.16832307
0.18920133
0.18060122
0.06312129
-0.060847096
-0.12115522
-0.13733251
-0.1166294
-0.113264695
-0.14823805
-0.117690824
-0.010355358
0.098831266
0.1933065
0.25236872
0.22596814
0.085757375
-0.04312666
-0.073421866
-0.13707729
-0.19729872
-0.1629155
-0.138158
-0.08514206
0.05327423
0.16548987
0.20510219
0.23137002
0.26102635
0.1946366
0.03554577
-0.100522354
-0.19950914
-0.222929
-0.17067885
-0.13962218
-0.13113111
-0.10118801
-0.032796074
0.001971474
-0.038159076
-0.04937527
-0.05236831
-0.078769185
-0.03558385
0.049759954
0.10837371
0.11444283
0.06754263
0.028707264
0.03365894
0.06693828
0.06299158
0.008287634
-0.021042824
-0.021447934
-0.0062400717
0.035880215
0.079104185
0.09833183
0.0815908
0.058251634
0.03848239
0.0053481087
-0.012167094
-0.022706108
-0.032868616
-0.023054756
-0.02523082
-0.034059677
-0.023596333
-0.005504714
0.027731622
0.06297699
0.051575013
0.0025045187
-0.02411538
-0.03425091
-0.053716507
-0.043399084
-0.020423314
-0.031809743
-0.044279043
-0.04829849
-0.062294938
-0.062088378
-0.05068777
-0.04956231
-0.03720954
-0.010009419
0.004620969
0.0078534605
0.013887297
0.032463394
0.049077366
0.044316027
0.04776225
0.048734024
0.01843665
0.01072527
0.031991
0.037995074
0.0412391
0.045537297
0.036610294
0.019026518
0.0041409396
0.0020944173
0.004306389
0.0026118103
3.1445652E-5
-0.004006761
-0.0078946315
-0.011340657
-0.013058132
-0.011897161
-0.011285322
-0.010529183
-0.0093245935
-0.010132762
-0.009704669
-0.0012361457
0.0053452146
-0.0014400271
-0.006960663
-0.007494296
-0.0133481985
-0.018527154
-0.021037951
-0.02196048
-0.019630428
-0.018399222
-0.017585361
-0.0149446605
-0.0084962025
0.0017135448
0.0097684255
0.017957937
0.02751302
0.033729922
0.036435604
0.029769039
0.014444638
0.0035660986
-0.002119601
-0.0061041503
-0.0056812395
9.567346E-4
0.0129916705
0.018678982
0.011233821
3.507521E-4
-0.007295012
-0.009130698
-0.009194981
-0.014711509
-0.0202158
-0.022453697
-0.02444814
-0.026840346
-0.029319204
-0.028452925
-0.029708248
-0.037763238
-0.04122762
-0.034898773
-0.023433357
-0.013224125
-0.010051709
-0.008300852
-0.003974483
-0.0040577888
-0.011038569
-0.021346172
-0.024681969
-0.006927105
0.024584448
0.046546243
0.051710155
0.045849122
0.036476627
0.029962504
0.02108438
0.0062524737
-0.001424762
0.007680244
0.025497722
0.04163749
0.052159116
0.052306477
0.04428928
0.035904765
0.021327896
-0.001630816
-0.019543894
-0.027217168
-0.023123743
-0.008690729
-0.007284037
-0.028277192
-0.044504516
-0.046018556
-0.045640048
-0.04129194
-0.033575878
-0.02759084
-0.022329371
-0.025792044
-0.03291064
-0.028236886
-0.019122807
-0.018086279
-0.023824748
-0.022393478
-0.0076976935
0.005283865
0.011994412
0.015866766
0.018111972
0.028032053
0.036898468
0.03382523
0.032250587
0.036909845
0.03706307
0.02499049
0.01357247
0.018699408
0.026495423
0.02996683
0.027287537
0.007580839
-0.007454767
-0.006610029
-0.0061294916
-0.0049102213
-0.010712856
-0.02398797
-0.025268087
-0.01972152
-0.016386697
-0.013219917
-0.011018279
-0.007874372
-0.0047719255
-0.0033509966
-2.3041492E-4
0.005948184
0.006142158
-0.005577288
-0.014009558
-0.008828867
-4.873569E-4
0.0018475632
0.0010453822
0.0010282478
0.0022399165
0.0086147
0.013118939
0.009690376
0.009814834
0.00991188
0.006902623
0.0076689078
0.0024845123
-0.008031417
-0.016342642
-0.021756748
-0.017902153
-0.010568494
-0.004869031
0.0048803207
0.015714915
0.019491835
0.00928322
-0.0067818235
-0.01234311
-0.007586774
-0.0014014959
5.0182913E-5
-0.0018730491
-0.0014066312
9.130234E-4
-3.6036188E-4
-0.0053904066
-0.0052749068
7.64245E-4
0.0058914493
0.009340812
0.010314115
0.011566037
0.013154462
0.011431328
0.010631946
0.0077861096
0.0021409914
6.7675643E-4
-0.0020626762
-0.0046894634
1.6412705E-4
0.0040236963
0.002005743
-5.617481E-4
-0.0020414318
-0.0019086477
-7.3067413E-4
-0.0026340366
-0.0051457877
-0.0035591177
-0.0025260963
-0.0030048927
-0.0027373985
-0.0046138535
-0.0045806943
-3.6200308E-4
0.001089428
1.9753532E-4
0.0011037663
0.0011926743
2.426422E-4
0.002591276
0.0051669674
0.0051564095
0.005373741
0.0020670798
-0.0029651085
-0.003059685
-7.909947E-4
0.0022663758
0.0018918241
-0.0018902465
-2.8227427E-4
0.0010664422
-0.0045621744
-0.011512746
-0.012794895
-0.009470133
-0.012815597
-0.01581489
-0.0068313875
3.7814904E-4
0.0015062137
0.0021169772
4.669969E-4
1.5384215E-4
1.6940196E-4
-8.8673376E-4
-1.6900754E-4
1.4533143E-4
-6.6900026E-4
-0.0027976192
-0.0032382677
-0.0016896649
-0.0017197083
0.002385067
0.006626774
0.0042277914
0.0033824781
0.0043077837
0.004664443
0.0064224126
0.005536418
0.0018044449
-0.001707242
-0.0035807022
-0.0033276682
-0.0012304946
0.0014956221
5.926992E-4
-9.784369E-4
-3.3821617E-4
-0.0030835066
-0.0042457045
4.7071808E-4
0.00283441
0.0017677433
1.3032406E-4
-0.0017381391
-0.0013762068
-4.363728E-4
-0.0013829
-0.0026250451
-0.0029776823
-0.0014965882
3.0854627E-4
6.4513786E-4
0.0014268844
0.0012575213
-4.5733879E-4
-4.6826713E-4
-0.0011013752
-0.0026349302
-8.8871457E-4
0.0024342937
0.005117707
0.005721317
0.0024488778
-3.3089332E-4
2.0345965E-4
0.0011233697
0.002589666
0.004373315
0.0029771088
-1.1892657E-4
-9.41456E-4
4.9954123E-4
0.0016408155
-1.1627079E-4
-0.0025711623
-0.0010428579
0.0017962401
0.0016009259
5.7966186E-4
-1.421723E-5
-7.3939544E-4
-5.248775E-4
-0.0012724632
-0.002096987
3.4842058E-4
0.0010581836
-0.0014917175
-0.002371042
-0.0022641958
-0.0011921081
-4.3252448E-4
-0.0013974332
0.0013211207
0.005312882
0.0053621447
0.0037425964
1.7347674E-4
-0.0030611947
-0.0028928628
-0.002932344
-0.0027384562
4.3670625E-5
0.0017544626
4.37949E-4
-4.8825948E-4
-6.0051316E-5
5.9957826E-4
0.0022511205
0.003390429
0.003923581
0.0032750177
-0.0017882554
-0.0053091818
-0.003901246
-0.0025979201
5.8146776E-4
0.0044638775
0.0044329404
0.0033936626
0.0025917138
0.0029203827
0.0045996495
0.0031040204
1.0136128E-4
-9.4661943E-4
-0.0023296434
-0.0026977432
-9.3972083E-4
-0.0022206835
-0.005231778
-0.00286349
0.0029225512
0.0043025548
5.881896E-4
-4.603371E-4
0.0032820804
0.0028335399
-0.002892926
-0.004671029
-0.0024462072
-0.0013740398
-2.6955648E-4
0.0014109634
0.002242499
0.002342507
0.0018531892
0.0027228647
0.0031276487
-1.08552136E-4
-0.0015238506
-2.490084E-4
-4.9727707E-4
-7.667895E-4
-0.0014423948
-0.0015172276
6.3964474E-4
0.0021479637
0.0026970787
0.001679685
-2.854946E-5
-5.735833E-4
-3.0107168E-4
0.00213674
0.0017635354
-0.0027088982
-0.003676195
-0.0016733063
0.0011305707
0.002231057
5.3031906E-4
0.0017126702
0.0027948194
0.0017515591
0.0025602183
0.0010418043
-0.0022363781
-0.0019399815
-6.1882916E-4
-7.076903E-4
-5.251571E-4
-2.2790242E-4
-1.9393355E-4
0.0015817848
0.0027257963
9.3592284E-4
-7.2247036E-5
6.96573E-4
0.0017155955
0.0016619067
5.190041E-4
2.7391617E-4
6.3686154E-4
0.0010852461
8.726347E-4
6.3889986E-4
3.9909282E-4
-0.0027991822
-0.003971485
-0.001564768
-5.480356E-4
0.002010523
0.0041266694
0.002423679
4.0231645E-4
-0.0014799763
-0.0026155158
-0.0018048121
0.0015186028
0.0017860126
-0.005080032
-0.00627266
2.9924113E-4
0.002725636
0.0020527747
0.0016882503
0.00202729
0.0035763062
0.003830657
0.0026360597
7.4486725E-4
-7.98371E-4
-8.720961E-4
-5.608917E-4
-6.3564203E-4
-0.0010310638
-9.716202E-4
-0.0014471754
-0.0024464857
-8.709824E-4
0.0015081564
0.0010834639
-1.00062585E-4
3.0276887E-4
0.0010133727
8.2700065E-4
-6.088534E-4
-7.6707714E-4
0.0021498213
0.0022398296
3.6954254E-4
0.0010869714
-6.815619E-4
-0.0017525513
4.4594644E-4
2.1803589E-4
0.0012597855
0.0037980077
0.004810589
0.00507558
0.0033755603
0.0015538632
-0.002098274
-0.005387097
-0.0028952025
-9.032593E-4
-0.0010149204
-0.0013203769
-0.0019145962
-0.0011960419
-0.0017998548
-0.001636453
-0.0012935062
-0.0027209166
-6.5602333E-4
4.7625808E-4
-5.4628175E-4
6.3683174E-4
9.500535E-4
0.001164393
6.402736E-4
-6.35179E-4
1.6683868E-4
6.143195E-4
8.4231014E-4
0.0011782418
0.0019330234
0.0025547317
9.24744E-4
0.0012710913
0.0026741556
0.0022299092
0.0014429237
-8.2750246E-4
-0.0013938
-8.315063E-4
-0.0015717675
6.858314E-4
0.0016256301
-0.0012514581
-0.0012272693
0.0010776033
0.0020536685
0.0019286803
3.9703873E-4
-0.0023717918
-0.0021656193
5.0244166E-4
6.5216096E-5
-6.3204643E-4
-9.810005E-4
-0.0033088606
-0.0024000115
5.773657E-7
9.2457264E-4
0.0028502266
0.002443492
2.6738917E-4
-1.1557684E-4
-3.1196474E-4
-5.769319E-4
-0.0014485917
-0.0018447768
7.4922387E-4
0.002423074
4.0347845E-4
-0.0011621976
-8.6255364E-5
0.001133283
0.0017443773
0.0016566849
-2.8467862E-4
-8.061644E-4
3.661181E-4
-1.04007435E-4
6.9119985E-4
0.0011964593
-0.0014789718
-0.0016476434
2.608384E-4
6.0870974E-5
-0.0016215254
-0.002457366
-2.1823512E-4
3.7106356E-4
-0.0016725827
-4.6878034E-4
0.0010542766
6.5070856E-4
1.4746287E-4
-4.5786984E-4
9.836012E-4
0.0023622916
0.002004352
0.0022929783
9.943141E-4
-0.0011619893
-5.994846E-4
0.0013099957
0.0026044673
0.0019163477
-1.5542806E-4
-0.001158592
-0.0016731832
-0.0016155915
0.001116867
0.0038048062
0.0029450168
7.761263E-4
6.462005E-4
0.0029345858
0.0022222472
-0.0046581235
-0.008036385
-0.004593503
-0.0030017453
-0.0033214358
-0.0017285863
9.541871E-4
0.0024290225
9.3555433E-4
-9.7453245E-4
-0.0013121321
-4.914363E-4
6.6541374E-4
3.4257222E-4
-1.3010151E-4
2.4025384E-4
0.0012643222
0.0028450862
0.0021831521
0.001080237
0.0014097035
3.442425E-5
-8.8754616E-4
-5.404453E-5
-1.1215097E-4
4.2159675E-4
0.0011461481
9.808902E-4
0.0022394143
0.0015832608
-0.0023901968
-0.0025590446
-2.7368273E-4
-3.2054115E-4
-1.9125523E-4
-3.599335E-4
7.772164E-5
0.0018339372
9.4752514E-4
-5.869477E-4
-0.0013258564
-6.894144E-4
0.0021399811
0.002370423
0.0011702981
4.78164E-4
1.6436097E-4
0.0024020972
0.003559082
0.00424629
0.002756296
-0.0030827667
-0.0036461144
-0.005429952
-0.010950029
-0.005834106
5.261534E-4
1.9456854E-4
1.8525594E-4
-3.6283085E-4
-2.0409469E-4
-4.0753107E-4
-0.0014029104
-4.1770664E-4
-2.08018E-4
0.0013826187
0.0030401498
0.002051518
0.0022161875
9.078023E-4
-6.605307E-4
8.050411E-4
0.0025240723
0.0038891733
0.0020912944
-1.8737858E-4
8.974792E-4
3.0847805E-4
1.8530643E-4
0.0011610364
-8.376436E-4
-0.0011180072
4.271228E-4
-4.063642E-4
-0.0017269456
-0.0023938823
-0.0026914487
-0.0016460222
-1.6054802E-4
-1.9557878E-5
3.0086687E-4
0.001360882
0.0014965507
0.001968361
0.002857325
0.0036705846
0.004324971
0.0027387945
4.346592E-4
-0.001025902
-0.0019576056
-0.0023763343
-0.0033575988
-0.0024594406
-0.0011615853
-0.003293186
-0.004586236
-0.0034753613
-0.0013248876
5.6058855E-4
9.877426E-5
4.0125995E-4
0.0010794807
4.5879738E-4
6.870901E-6
-0.0017860273
-0.001956577
5.8882993E-5
3.064837E-4
5.2183453E-4
3.3333382E-4
8.780539E-4
0.0037748616
0.0046563
0.0033991153
0.0012195428
-4.883346E-4
4.5612932E-4
6.865828E-6
-0.001712818
-1.0638986E-5
0.0017338682
8.8248996E-4
0.0011149354
4.72143E-4
-0.0020150242
-4.6794032E-4
0.0013750291
-2.2184245E-4
-2.5352187E-4
3.8613318E-4
0.0013498034
0.0015488433
-8.234805E-4
1.559041E-5
2.2732241E-4
-0.0027664185
-7.5987965E-4
0.0023387847
0.0022323085
0.0013350884
-0.0025129416
-0.005834601
-0.004275942
-0.0025984778
-0.0031651987
-0.0027902871
-0.0015041829
-1.8296413E-4
0.002449061
0.0037456623
0.002167465
9.5892E-4
3.4711114E-4
-4.2396685E-4
-2.1453194E-4
6.1445107E-4
5.66737E-4
-1.4215034E-4
0.0013195346
0.00437954
0.0037418322
-9.015248E-5
-0.0011788036
-2.654221E-4
-8.0616516E-4
-0.0013309086
-0.0014217499
-2.5610486E-4
0.0021459635
0.0018904514
0.0015543865
0.0018224288
-0.0013011773
-0.0024337315
-6.846761E-4
-0.0016280207
-0.002755428
-0.0019286401
-2.9414578E-4
7.284107E-4
7.7768514E-4
0.0015592558
7.391326E-4
-0.0013016488
-6.2119163E-4
7.694914E-4
0.0017064605
0.0016317628
-6.086907E-4
-0.0011851866
-3.8303135E-4
-6.8791816E-4
-7.7325164E-4
-0.0016242305
-0.0014466565
8.034206E-4
7.664858E-4
5.17457E-4
0.002718553
0.0037054364
0.0021034435
-6.909727E-4
-0.0019865548
-4.8518364E-4
8.324223E-4
4.238495E-4
-1.4519384E-4
-3.154883E-4
-8.5709686E-4
-0.0018584265
-0.0025072405
-0.001847055
-9.113184E-4
-7.96653E-4
9.763134E-5
1.22230795E-5
-0.0011641405
9.801633E-4
0.0020913715
-1.5661884E-4
3.3589365E-4
7.986651E-4
-0.0014161516
-0.0011636907
2.4538185E-4
2.1515165E-4
0.001813411
0.002575303
2.3860089E-4
6.9199706E-4
0.0023357342
0.0011600981
0.0010968158
9.969951E-4
-6.0334565E-5
1.2311256E-4
-1.8924564E-5
1.9148695E-4
3.4394168E-4
-4.4304604E-4
-0.0013119386
-0.0014908481
-8.49526E-4
-0.0031956653
-0.0025967106
0.0022193107
-0.001884467
-0.0050238306
0.0016289441
0.0041937097
0.0023196675
-7.377036E-5
-0.0015175769
0.0013256307
0.0012692928
-0.0018940333
-0.0024612108
-0.00211921
-5.866279E-4
9.414792E-4
0.0010065373
0.0025883685
0.0047087893
0.003734442
0.0010341113
3.065238E-4
-3.8587934E-4
-0.0031236566
-0.004016169
-0.002320559
-0.0018161762
-0.0031144945
-0.0030428409
-0.0012114758
-8.7657874E-4
-0.0011719024
-8.648674E-5
0.0016016369
0.0035095674
0.0031924034
0.0010962033
0.0013792434
0.0024312357
0.002087227
8.405874E-4
-2.3927554E-4
0.0013165871
0.0026554442
0.0018752967
0.0020899524
0.001074276
-0.0011157345
-0.0014027195
-9.263846E-4
0.0011669876
0.0028452887
0.0016538628
6.230175E-4
-0.0011516372
-0.0033673805
-0.0032855542
-0.0033630212
-0.004214649
-0.0038503064
-0.002139644
-0.0013461773
-0.003442584
-0.004689779
-0.0027440507
-9.0771343E-4
-3.9779407E-4
-4.538349E-4
-8.6376345E-4
-8.5974036E-4
-1.1130363E-4
0.0010916378
0.0033056475
0.004973537
0.0029805296
3.479096E-4
6.08796E-4
8.024314E-4
7.500255E-4