-0.004563005
-0.0026498586
0.0017522196
0.001961098
0.0010174544
-2.0219441E-4
-0.0027877148
-0.0032982482
-9.79598E-4
0.0013700856
0.0013033343
4.8349123E-4
0.0016973658
0.0021022663
4.6815525E-4
-0.001226407
-0.0024795975
-0.0033075563
-0.0031214403
4.6735635E-4
0.0030097428
7.3474797E-4
5.494445E-4
5.7598884E-4
-0.002662765
-0.0031600734
-0.0015153069
1.6294123E-4
0.0013107944
0.0016110925
0.0035966742
0.0035213241
9.737213E-4
8.084196E-4
0.0012598461
0.0011877556
6.131661E-4
-9.3197485E-4
-0.0020177949
-0.0015949965
6.1678304E-4
0.0015979847
8.313771E-4
0.0016928143
0.0029100718
0.0016836263
-0.0015083295
-0.0034586291
-0.0035845924
-0.004018684
-0.0032046207
-0.0012355112
-9.864278E-4
-0.0012662164
9.725836E-4
0.003791824
0.0027252224
9.22771E-5
-0.0018817848
-0.004063776
-0.0037805655
-0.0027647465
-0.0031531781
-0.0017159362
0.0012551893
0.0040803337
0.004286183
0.0010645365
-1.5460543E-4
0.001071969
0.0022861643
0.0046469974
0.005312305
0.00412483
0.004357097
0.001907376
-0.0030042597
-0.004032681
-0.0016989931
0.0012748186
0.0011867034
-7.1471086E-4
0.0028056658
0.0046304823
-3.9241393E-4
-0.0022859045
-0.0013596762
-0.001570247
-0.0027252473
-0.0063584456
-0.006460477
-0.0033531543
-0.0036145905
-0.003254829
-0.0029551962
-0.0038521737
-0.0010675637
3.3165445E-4
-5.699883E-4
5.0411053E-4
4.7731836E-4
0.0023310105
0.0049386574
0.002708435
0.0025952826
0.0043134624
0.0028733602
0.0021662337
0.0015832942
8.8596647E-4
9.3050767E-4
0.002523612
0.0066771014
0.003156007
-0.005175713
-0.0024523474
0.0034661572
0.0030111654
0.0025704019
0.0020830755
-7.4904325E-4
-0.0020893558
-0.0010029905
-0.0011150886
-0.003330004
-0.004530476
-0.0039400384
-0.004111751
-0.004997957
-0.0039914455
-0.0026444672
-0.0024317715
-0.0017951003
-0.0021853198
-0.0023577076
-2.7041518E-4
5.1225635E-4
-1.1511124E-4
3.7091973E-5
5.9649115E-4
0.001822721
0.0029525938
0.0025059544
0.0013763852
0.0014610576
0.0017165373
0.0010213755
0.0022008114
0.0057377787
0.006783341
0.0039026788
0.004207909
0.00966968
0.01078728
0.0042765383
-0.0038525024
-0.0072115576
-0.0046926523
-0.00342098
-0.0044650906
-0.0038476565
-0.0035488855
-0.0037171657
-0.003777138
-0.0034621006
-0.0034384918
-0.0056938548
-0.005090131
-0.002731455
-0.003417294
-0.0020514515
-5.851474E-4
-0.001383448
-2.5139016E-4
-1.2292556E-4
-2.6240357E-4
0.0020036725
0.00311375
0.0032988037
0.0034690525
0.0035450468
0.004308618
0.003490623
0.0014850782
0.0021033126
0.004331023
0.0041009127
0.0038490377
0.005746929
0.0034135578
-9.788275E-4
-2.6299436E-5
0.0012088249
-6.5127584E-5
-0.0018665185
-0.0057750773
-0.007880646
-0.0048445007
-9.44479E-4
-3.5590073E-4
-0.0017240599
-6.059245E-4
5.210689E-4
-0.0012180026
-9.1939647E-4
2.8815996E-4
-8.9464046E-4
-0.0011801614
-0.0020174193
-0.004111052
-0.0028904662
-7.2521484E-4
-2.7036024E-4
8.894144E-4
0.0023505264
0.0031857223
0.0031470922
0.002389319
0.0020775006
0.0019003394
0.0021305992
0.0019685044
9.1539155E-4
5.2592234E-4
-2.590164E-4
-1.5314187E-4
0.0014947446
0.0015263773
6.3623756E-4
-2.8211324E-4
-5.524398E-5
-4.552451E-4
-0.004363276
-0.003857645
3.6268547E-4
-4.9479E-4
-0.0023792505
-0.0038437152
-0.006226064
-0.005824203
-0.0029463146
6.7819207E-4
0.0020725701
0.001054076
0.0013657514
0.0015136645
9.456583E-4
0.0011076243
0.0016770182
0.0030701014
0.0035616327
0.0021087846
0.0012117674
0.003876133
0.008065593
0.0077328123
0.004576249
0.0016770203
-0.002013265
-0.0029107572
-5.52012E-4
0.0010913811
0.0012325379
-0.0014175574
-0.0054861098
-0.0060823765
-0.003531095
-0.0024395592
-0.0035755686
-0.0037876887
-0.00258074
-0.0015238787
-0.0013898956
-0.0022152592
-0.002437017
-0.0025270872
-0.0034362064
-0.0028069927
-0.0016039379
-0.0010443984
0.0014673201
0.0032991741
0.0024130912
0.0027631929
0.0033178774
0.0025127416
0.002876867
0.0028089732
0.0022246737
0.0033088145
0.0024915945
-3.783551E-4
2.0284958E-4
0.0030442087
0.0029190907
0.0015314308
0.0022295068
0.002599281
0.0024366872
0.0027244084
0.0014994587
0.0012382899
0.0014203712
-0.0018758407
-0.004563185
-0.003749594
-0.0024283244
-0.003997464
-0.0055465456
-0.0017519839
-0.0023586943
-0.009835449
-0.008869149
-0.0019006425
0.0010738098
0.0011591687
-9.132579E-4
-0.0027341663
-0.0028460673
-0.0012320899
0.0014705536
0.0020082288
0.0024389504
0.0025073392
0.0015938454
0.0036047162
0.0051987492
0.0047617406
0.003314888
0.002023457
0.004761169
0.0047651045
0.0017478593
0.0032102095
0.0025735993
4.7119686E-4
5.2006356E-4
-0.002587951
-0.0038849406
-0.0015731306
-7.090101E-4
-1.6211538E-4
-1.522421E-4
-5.2305654E-4
-0.0020625985
-0.0050113183
-0.0045998963
-0.0029390056
-0.0031236692
-0.0028386426
-0.002342607
-0.0016026624
-4.1171807E-4
0.0014584237
0.0037856183
0.0031811371
7.80091E-4
-2.2298779E-4
-0.001101028
-0.0024258369
-0.0020203437
0.0012918783
0.0026734306
-0.0013564279
-0.0036652857
-3.995634E-5
0.002970767
0.0018557528
0.0011786298
0.0023949335
0.0021484734
0.001275394
0.001304803
0.00115843
0.0010155375
2.2432004E-4
-5.068897E-4
9.9225945E-5
-4.976479E-5
-7.040192E-4
1.6496635E-4
7.515878E-4
-6.596484E-4
-0.0011587127
0.0010095298
0.0029222122
0.0031787357
0.0021868723
4.4859605E-4
-0.0012351748
-0.0034170256
-0.004122823
-0.0014764171
9.157988E-4
-3.442083E-5
-0.0024141027
-0.0026202116
-0.0020674812
-0.0027373654
-0.002278771
-0.0019545394
-0.0013008711
0.0010682523
5.4948684E-4
1.4543683E-5
0.0016459755
1.096258E-4
-8.5458066E-4
8.6802425E-4
8.845792E-4
5.0633925E-4
0.0011694018
0.002810419
0.00336129
6.0204417E-4
-9.849039E-4
-3.1824686E-4
3.8888943E-4
0.002997869
0.0046880576
0.002951887
0.0022718306
0.0025252153
0.0011650226
1.508765E-4
-7.272799E-4
-0.00171861
-0.002344237
-0.0042309533
-0.0038754619
-0.0019059806
-0.0036172944
-0.002854911
6.223612E-4
-0.0010184501
-0.002979312
-0.0022787729
-0.0023052215
-0.0017397118
2.9193462E-4
0.0033788367
0.00488442
0.0036054184
0.0028672665
0.001079031
-0.0022037793
-0.0017209963
0.0015840977
0.002245978
2.930445E-4
6.8759214E-4
0.0036765642
0.0032928956
-3.216246E-4
-0.0013860126
-0.00104422
-0.002673045
-0.0038082593
-0.0031850177
-0.002914423
-0.002112461
0.0013814395
0.004544645
0.0029047665
-2.3333587E-4
-3.579471E-4
-5.643085E-4
-0.0020150037
-0.0010993426
7.0411665E-4
9.996644E-4
0.0028123285
0.004702015
0.0027123755
8.5753656E-4
-1.5453917E-4
-0.0014783692
0.0012447175
0.0019001605
-0.0034094905
-0.005284488
-0.0040378626
-0.0033343143
-0.0019234885
-0.0013506088
-2.1112299E-5
0.001260224
-4.131776E-5
-2.4045314E-4
4.8433265E-4
-6.883893E-5
3.619201E-4
0.0016000825
0.001326475
-5.197877E-4
-0.0018129521
0.0011012461
0.0069077825
0.0075969896
0.002380788
-0.0013576993
-0.0015963073
-6.1218994E-4
5.533393E-4
4.0723511E-4
-0.0025141118
-0.0034305
-4.788385E-4
-0.0037554184
-0.008222139
-0.0015863464
0.0030922187
6.366594E-4
3.0229904E-4
-0.0014856042
-0.0028279426
-0.0013020159
-6.4104534E-4
0.0023060613
0.0042095953
0.0033063216
0.0040666666
0.0025781333
-0.0011410903
-0.0011684223
0.0018883881
0.0025848334
8.445294E-4
3.566096E-4
-3.6151367E-4
8.9962495E-4
0.0028263044
-4.4034852E-4
-0.0016505539
-8.815589E-4
-0.0033071348
-0.0032548367
-0.0030502558
-0.0036974305
-0.002621275
-0.002932993
-0.0018600494
-1.6710127E-4
-2.984519E-5
0.0012416122
0.0015155234
0.001250702
0.001519594
9.7252516E-4
0.0010492309
0.0015401732
0.001686941
0.0018986061
0.0032757823
0.003947532
0.001439658
-7.7441573E-4
-0.0014597123
-9.2771807E-4
-1.0874158E-4
7.2986615E-4
0.004499952
0.0014170031
-0.0077381623
-0.0041175447
0.003025374
3.201668E-4
-0.0016335772
-0.0013739619
-0.002725065
-0.0024174177
-0.0011930643
-4.503508E-4
8.2988985E-4
0.0024319075
0.0030192512
0.0026451864
0.0017827555
-9.083656E-5
-0.0014871794
-9.109411E-4
-3.260502E-4
-4.6999555E-4
-3.5670723E-4
-0.0012021882
-0.0019947966
-0.0013349003
-0.0010039344
-3.0679052E-4
-3.187915E-4
-0.0017932107
-0.0011522318
-1.0089664E-4
-2.1983209E-4
-2.8496172E-4
-9.48709E-4
2.594293E-5
0.0020678672
0.0016207236
-3.4598808E-4
-6.146604E-4
0.0016233443
0.003504849
0.0047501796
0.0047374507
0.0017709269
-5.8613456E-5
2.51431E-4
0.0017048491
0.002616477
-0.00111398
-0.0029418783
7.29769E-4
0.0013470228
-0.0020558573
-0.0040988475
-0.0038401189
-0.0039189304
-0.004071958
-0.0032421532
-0.0034837169
-0.00230616
1.00375924E-4
7.3588087E-4
0.0031741
0.0055519477
0.0046086875
0.002874489
0.0010965397
2.1961743E-4
-8.944703E-4
-0.0011555061
0.0032063567
0.005339223
0.0029818218
0.0036091188
0.003384857
-0.0020887076
-0.006372174
-0.005587192
-0.0024554331
-0.0011086399
-8.0675597E-4
8.23161E-4
0.0017856577
-1.1078326E-5
-0.004124739
-0.0048346277
-7.605609E-4
6.464933E-4
0.0012012072
0.0023537283
4.5560522E-4
2.7311023E-4
2.929281E-4
-0.0014179533
-6.778306E-4
-0.0012666059
-0.002532292
-0.0018372356
-0.0010958316
2.6173185E-4
-1.3573196E-4
-8.492988E-4
-8.3767826E-4
-0.0020414377
-0.0011258663
-0.0020337421
-0.0037133927
-8.057955E-5
0.001348199
0.002287049
0.0077972156
0.009285641
0.00561085
0.002594864
0.0022396436
0.0033893632
0.0050383015
0.008375497
0.010311821
0.006837061
-1.4433716E-4
-0.0038655286
-0.0015070109
1.05506115E-4
-0.0020523935
-0.0051914095
-0.0077148266
-0.0087162275
-0.010550171
-0.01228645
-0.011514154
-0.010016896
-0.0066398284
-0.0026144458
-2.9638497E-4
0.0020728554
0.002311597
0.0016488524
0.0042420696
0.00472566
0.0017113662
8.025444E-4
3.8043104E-4
8.983559E-4
0.004373583
0.006245804
0.008419024
0.008775227
0.0015911617
-5.4045464E-4
0.002707648
-0.0019738364
-0.003595336
0.0036313054
0.005175257
7.2858944E-5
-0.0021168557
-0.0015573028
-0.0032759754
-0.0047776774
-0.004063552
-0.0031645477
-5.3120614E-4
0.0012742119
0.001490756
0.0034245923
0.0048197885
0.006133081
0.0057640574
0.0017622426
-9.801099E-4
-0.0034123186
-0.005098333
-0.0035182144
-0.0021207097
-0.001589676
-0.0021864912
-0.0026386704
-0.002369546
-0.0032342344
-0.0016025777
-3.8067685E-4
-0.002478368
-0.0011925381
0.0016545276
0.0013287195
-1.7499417E-4
-2.1474902E-4
0.0014666088
0.0020632169
0.0021242849
0.00234562
6.6971447E-4
-0.0011981016
-0.001629315
-4.027865E-4
0.0019692667
0.0028009636
0.0015398727
3.2741907E-5
-0.0011359759
-0.0018197964
-0.0012588662
-9.1253E-4
-7.2510215E-4
-3.2521918E-4
-0.0024048586
-0.0023258873
0.0019041381
0.0037846551
0.0033123537
9.790206E-4
-1.555967E-4
0.0029464692
0.0035769092
0.0027885442
0.0036840772
0.003197118
0.002654676
0.0021311124
0.0012239243
-0.001255924
-0.0063100676
-0.009468162
-0.008325324
-0.0027594303
0.0011421731
-0.0016531962
-0.0024874823
1.2271358E-4
-4.034314E-4
-0.0012792321
-9.254198E-5
-5.9231505E-4
-0.0030574
-0.0037045102
-0.0033366235
-0.003769022
-0.003010931
-2.781767E-4
0.001687194
4.5492724E-4
0.0018991244
0.007196745
0.009841906
0.012471199
0.010605311
0.0012143003
-0.003446719
-0.005515609
-0.008796737
-0.0064128954
-0.0017284768
1.4946965E-4
-2.4297528E-4
-0.0023059205
-0.00667475
-0.010591408
-0.008997417
-0.0029504593
0.005042199
0.008757361
0.0052135102
5.621099E-4
-0.005161201
-0.007974984
-0.0041776747
-0.0012929662
8.075665E-4
0.0038918436
0.0054702554
0.0053789467
0.005520983
0.008638127
0.008756823
0.004587909
0.0039425176
0.0042593447
0.0029554022
0.003563395
0.0054937634
0.003828916
-0.0036790536
-0.009663086
-0.007459925
-0.002767141
-0.0043057124
-0.0069446545
-0.0037611097
-8.0578454E-4
0.0034005712
0.009857752
0.010109896
0.010105095
0.014833523
0.018301738
0.017646309
0.01065147
-0.0012073409
-0.01544402
-0.032171696
-0.044585284
-0.04391782
-0.03604373
-0.030543767
-0.0236727
-0.016035525
-0.017275782
-0.026150946
-0.024974471
-0.0076818643
0.0063303234
0.017498214
0.036815275
0.052481804
0.05979987
0.057245914
0.04992042
0.051659122
0.051032778
0.03460746
0.002621729
-0.026160002
-0.022714064
-0.0036835293
-0.0015081856
-0.008740947
-0.009670751
-0.011144761
-0.01915568
-0.031023415
-0.050911475
-0.061450575
-0.05742711
-0.058240935
-0.04320138
-0.020313963
-0.009572218
0.01492395
0.03200485
0.03937825
0.06988263
0.09248233
0.09052006
0.08751981
0.10673144
0.12323029
0.076662816
-7.744857E-5
-0.043621298
-0.03802337
-0.0030267092
-0.008750419
-0.067429334
-0.13528019
-0.16630113
-0.12663837
-0.09124426
-0.097929515
-0.07118769
-0.010985707
0.046690494
0.08353108
0.06570519
0.02877472
0.03618747
0.053084735
0.032158796
0.02114873
0.03147068
0.0027674674
-0.0419768
-0.047091447
-0.048777003
-0.08233035
-0.082499065
-0.032961696
-0.008522973
0.040478
0.15353777
0.22194377
0.24077748
0.23442625
0.13381825
-0.032661248
-0.18573293
-0.28844884
-0.2718023
-0.13320398
4.047828E-4
0.10376129
0.23470916
0.3180486
0.30949122
0.20974578
0.0434869
-0.016668767
-0.09081499
-0.3922434
-0.5850468
-0.47130513
-0.29232514
-0.12327966
0.03257508
0.14163229
0.21248162
0.20485024
0.13513556
0.067550816
0.041495614
0.018886624
-0.044739414
-0.048182957
-0.032606892
-0.109105736
-0.11984104
-0.011208574
0.090629786
0.1409393
0.12037508
0.09397718
0.057828397
-0.08434673
-0.20326096
-0.21294007
-0.2012271
-0.13682652
-0.030600525
0.04596284
0.1302773
0.19505948
0.18745807
0.15773211
0.14804386
0.18237367
0.25738734
0.31876385
0.34448123
0.33182728
0.24169786
0.04262348
-0.19161344
-0.31206605
-0.26129386
-0.12140722
-0.039023414
-0.04381813
-0.058299396
-0.17942825
-0.41878578
-0.50680846
-0.4352852
-0.37550148
-0.29008186
-0.19436593
-0.12249493
-0.008619007
0.100595705
0.14243852
0.1343488
0.12570347
0.16933087
0.18977004
0.1259225
0.082738265
0.11075842
0.1515002
0.17409603
0.19723763
0.24222025
0.28390527
0.2749339
0.18490414
0.06526435
0.027244058
0.036468223
-0.0057641556
-0.062073577
-0.10312646
-0.159363
-0.22209093
-0.24426684
-0.17067209
-0.030686233
0.08776381
0.1401985
0.12881792
0.097359456
0.033313725
-0.0849183
-0.15778635
-0.15125309
-0.14256552
-0.14616247
-0.13157994
-0.096507505
-0.076638274
-0.076066725
-0.053668804
-0.012673271
0.024868652
0.047844104
0.05209871
0.054983757
0.051362094
0.03558279
0.028410226
0.03197759
0.03745396
0.043645155
0.053049497
0.060058065
0.054037068
0.043873746
0.037738264
0.031109143
0.027229952
0.028782992
0.031859815
0.033366285
0.03209697
0.027920334
0.017376559
0.00446208
2.2279045E-4
-0.010696271
-0.03627487
-0.045641538
-0.039046794
-0.03628681
-0.030233212
-0.02388287
-0.017093018
-0.0061148438
0.003980455
0.018946253
0.022744117
0.0123505285
0.014180557
0.017793544
0.009832224
-0.010221973
-0.03855507
-0.046966143
-0.03314246
-0.016742684
-0.0046912306
-0.0014189839
0.0013328114
0.00482983
0.002871355
0.003327112
0.0064100833
0.007167976
0.006173261
0.003924052
-0.0035999452
-0.018012274
-0.027259072
-0.031344935
-0.036683723
-0.036653195
-0.03212179
-0.018046914
0.0057382714
0.019395703
0.023876218
0.027095191
0.027441664
0.024899475
0.0123834275
-0.0013021971
-0.005165341
-0.0089737
-0.010877797
-0.006395392
6.3118327E-4
0.008911529
0.020656575
0.04404514
0.061672814
0.05296801
0.03853756
0.02687839
0.0042376905
-0.023339959
-0.03815151
-0.033941034
-0.028260376
-0.03134568
-0.03736461
-0.049303453
-0.057327405
-0.05049127
-0.035065483
-0.01567915
5.753086E-4
0.013184551
0.026977886
0.04528931
0.06471347
0.05570895
0.015462664
-0.015683262
-0.020608693
-0.014298068
-0.010944956
0.004951403
0.040625032
0.0641536
0.06814689
0.06456337
0.053840365
0.03672239
0.0049540326
-0.029317306
-0.047447428
-0.057711318
-0.0553288
-0.0459844
-0.050847877
-0.048215754
-0.025460524
-0.015297319
-0.024501344
-0.032985028
-0.035891943
-0.03214223
-0.025568277
-0.018681306
-0.005409788
0.0060178447
0.013716614
0.020187749
0.016830571
0.01296713
0.011589029
0.0121534085
0.018276988
0.0010586793
-0.028567709
-0.026348475
-0.012927664
-0.008905528
4.6983885E-5
0.014255553
0.03112269
0.044319224
0.05051833
0.056127332
0.06201925
0.06991646
0.070196204
0.059434645
0.05984368
0.07055296
0.076679066
0.08171208
0.08010178
0.053009678
-0.00912615
-0.0711254
-0.08262287
-0.06598857
-0.061278865
-0.060195662
-0.064298205
-0.084909566
-0.118253894
-0.15049042
-0.16056973
-0.15267262
-0.13755926
-0.11232
-0.08508004
-0.053222194
-0.014280657
0.014671975
0.036245596
0.061828457
0.085342884
0.1003925
0.11061401
0.122968026
0.13250346
0.12960039
0.11822095
0.10259822
0.083583064
0.0680589
0.054925397
0.039196927
0.02587403
0.015279545
0.00355711
-0.00896631
-0.022982039
-0.03593217
-0.04637157
-0.05510854
-0.06028883
-0.06427795
-0.06458416
-0.054910343
-0.041763976
-0.03484087
-0.032698672
-0.028405352
-0.02332953
-0.018649187
-0.010713825
-0.0049463497
-0.0020400083
0.0017707337
0.0029657285
0.0040725605
0.0028608097
-0.0050848196
-0.011388108
-0.012495976
-0.008364749
-1.9755976E-4
0.005155562
0.008875503
0.014189268
0.018440412
0.021379594
0.023609094
0.023963401
0.022907337
0.021536814
0.01885998
0.015162962
0.012666947
0.011933274
0.011184994
0.008108943
0.004866299
0.0032844606
0.0016448107
7.586813E-4
-4.9518264E-4
-0.0021086924
-0.0020356495
-0.002470283
-0.0031949573
-0.004064463
-0.0042652264
-0.0023054008
-0.0023043975
-0.0024422002
-0.0013896469
-0.001944614
-0.001050957
-0.001090413
-0.0024122086
-0.001834938
-0.0032195041
-0.0049381587
-0.005083521
-0.0034516999
-3.5152404E-4
-9.803345E-4
-0.0015474705
-0.0013793429
-0.0018095018
0.0021351634
-6.97271E-4
-0.007974844
-0.0022408166
0.005050329
0.0051673977
0.00502571
0.0032029145
0.0016637992
0.0024726258
0.0032408873
0.0036745542
0.0032457616
0.0034102467
0.0046199104
0.0055921446
0.0040656556
-8.7896985E-4
-0.0035750477
-0.0042237467
-0.007099086
-0.009357123
-0.010448297
-0.009580091
-0.0054924916
-0.0036300803
-0.004633692
-0.0038013984
-8.468668E-4
2.968422E-4
-0.0016200627
-0.0017259328
-0.0016988443
-0.004788433
-0.0034936122
0.001108777
0.0010119452
-7.3212397E-4
-0.001165388
2.1588845E-5
0.004262426
0.0072368737
0.0070400145
0.0070357183
0.005763152
0.0029744396
0.0012731793
-0.0020101806
-0.0053688143
-0.0038214107
-0.0013655819
-5.1756523E-4
-1.740175E-6
-0.0021435304
-0.0045309747
-0.00426972
-0.0034256834
-8.621557E-4
0.0017461242
-8.040242E-4
-0.0040566227
-0.0025600675
9.8435194E-5
0.002840229
0.005155675
0.0049526137
0.0061159506
0.005476093
-1.5505296E-4
-0.0027420565
-0.0042678774
-0.0056501725
-0.0015700331
3.2273904E-4
-2.5392405E-4
0.0018965907
0.0032064042
0.005245632
0.0045068753
-0.0015405299
-0.0026506842
-9.468854E-4
-0.0018929456
8.25841E-4
0.0034740658
1.0921659E-4
-0.0030126828
-0.003316438
-0.0018523434
-6.06425E-4
-0.0031449809
-0.0034397622
-1.3641028E-4
4.6357166E-4
0.0026658492
0.0057701133
0.0048902445
0.004040936
0.0026512963
3.1523674E-4
-4.084036E-4
-0.0011134559
-0.0017556986
-0.0020744218
-0.0016917345
-0.0013764012
-0.003179489
-0.0036030973
-0.0012096936
-2.1805266E-4
-0.0020150584
-0.0023350688
5.083347E-4
6.3927576E-4
-8.426466E-4
7.4136397E-4
0.0014638376
7.6043094E-4
3.542137E-5
-7.5408415E-4
0.0013144313
0.0030600894
0.0018464682
0.0017823966
0.0018838997
1.7370548E-4
3.232187E-4
0.0030499708
0.003392222
5.234437E-4
9.735754E-5
0.0031539453
0.0045420234
0.0017050133
-0.0020884424
-0.0028943731
-0.002232338
-0.002025217
-0.0011163745
2.8446803E-4
7.3358475E-4
-7.383379E-4
-0.0018804761
-0.0014018558
-0.002176999
-0.002826318
-0.0013740623
0.0016919028
0.0048558353
0.004399409
0.0042213504
0.0041880766
-0.0014831704
-0.0045992737
-0.003397244
-0.0029631455
-5.6647963E-4
-5.076412E-4
-0.0011665218
6.2010327E-4
-0.0023098916
-0.003771395
-4.1679226E-4
-3.7696134E-4
-0.0015955435
-0.0021305718
-0.0023229064
-8.9179474E-4
7.79202E-5
6.339682E-4
8.0872735E-4
3.4979638E-4
0.0011539852
0.0019227876
0.0017274017
0.003931157
0.0063042715
0.0028237053
-8.118217E-4
3.6823258E-4
-4.042489E-4
-0.0019342882
6.6469057E-4
0.002974317
0.0028074963
0.0022484418
0.0027967112
0.0041109123
0.004329176
0.0038398688
0.0023941877
-3.0586572E-4
-0.00208653
-0.0024757804
-0.0015401945
7.083953E-6
5.3801935E-4
3.5847424E-4
-9.0608496E-4
-0.0026690082
-0.004043916
-0.0058485307
-0.006427893
-0.007421825
-0.0079278145
-0.0034032254
-0.0041493936
-0.010985525
-0.007796393
6.28147E-5
0.0018519416
9.6275046E-4
-7.265977E-5
8.654155E-4
0.0029268651
0.0047578705
0.0059777773
0.0040948144
0.0027563225
0.0030573637
0.0028452873
0.003879004
0.00561578
0.009709029
0.015554293
0.017686948
0.013821182
0.004667407
-0.002692079
-0.0038692728
-0.001928131
3.4618773E-4
-0.0019634238
-0.007930329
-0.010864251
-0.009598551
-0.006496203
-0.005396592
-0.0061819605
-0.0056974343
-0.005019843
-0.0052355034
-0.0049019614
-0.003714072
-0.004113082
-0.0053228782
-0.0042903875
-0.0022998732
4.942937E-4
0.002885603
0.0023412397
0.0014924738
0.0021914833
0.0034051868
0.0036103495
0.0034393508
0.0042007817
0.005441376
0.007862028
0.007716792
0.0055547077
0.006951684
0.006056305
0.0027386618
0.0020012278
1.49867E-5
-0.0012031398
-0.0011273713
-0.002850386
-0.0042200987
-0.005787622
-0.0058967355
-0.0033415535
-0.0012860975
1.6718832E-4
6.5639506E-5
-6.190583E-4
3.1929233E-4
6.2560226E-4
-8.2694745E-4
-0.0017980994
-6.268955E-4
-0.0015099959
-0.004429067
-0.0031840217
-0.0016989112
-0.0016437351
9.947902E-4
0.0020345664
0.0018244993
0.0032237237
0.0031643694
0.0015630726
-6.027942E-4
-0.0012822784
-1.4479156E-4
-0.001125568
-0.0018094284
-0.0011263946
-0.0019314872
-2.9992682E-4
0.0021170753
1.8293684E-4
-0.0010888934
7.347391E-5
4.1564097E-4
0.001075988
0.001874667
0.0021219722
0.0023136968
0.0019858705
0.0026913576
0.0032958295
0.0013753768
7.190601E-4
0.002010374
9.618316E-4
-0.001111582
-0.0022237003
-0.0041820887
-0.0051411204
-0.0024264855
5.9060425E-5
-0.0010797617
-0.001134077
0.0022088888
0.0023126414
-0.0010156599
-0.0011691521
-0.0016001276
-0.0046071694
-0.0028881393
0.0012667093
0.0014847395
0.0017533355
0.0022264551
-4.036551E-4
-9.611682E-4
5.44488E-4
-3.0167226E-4
0.0016971646
0.0050151604
0.0020248094
-0.0011048289
0.0017364803
0.0055598957
0.0052810903
0.0021530504
8.659274E-5
-0.0018670199
-0.004162011
-0.005347301
-0.0056833727
-0.0028173693
7.660805E-6
-9.1020635E-4
-4.525012E-4
9.228752E-5
-9.005212E-4
-5.722835E-4
-0.0017946946
-0.0024175774
-6.4455066E-4
-0.0011869632
-0.0017798218
-6.517713E-4
-1.6627878E-4
6.360702E-4
0.0014592614
6.7755743E-4
-5.885974E-4
6.73524E-4
0.0033462269
0.0032659404
0.0025646195
0.0038400905
0.006043979
0.0082372455
0.006409601
0.0015413957
-4.9765594E-4
-0.00234498
-0.0056191697
-0.0060176956
-0.0052271853
-0.0052793836
-0.0038206333
-0.0023179476
-0.0015587407
4.085581E-4
7.951341E-4
-8.4152224E-4
-6.956191E-4
4.740641E-4
0.0012608741
0.0017392257
0.0017761419
0.0014843383
3.1617584E-4
3.9528913E-4
0.0017967264
0.00167024
0.0011077144
4.0036722E-4
3.8853343E-4
0.0013449079
6.7685347E-4
3.8754995E-4
-2.9979975E-4
-0.0014958411
6.095573E-4
0.0023973007
0.0025536495
-0.0017246021
-0.010219334
-0.008139746
-8.292589E-4
-9.7442186E-4
7.9817063E-4
0.0030813417
4.0975647E-4
-5.6610774E-4
-4.050109E-4
-1.7347121E-4
5.164292E-4
-3.4268634E-4
-4.0732912E-4
6.4288673E-4
0.0019766623
0.0042034364
0.0043314854
0.001577717
-3.2549072E-4
-0.0011914371
-0.0025848916
-0.0019473362
-3.1762014E-4
-0.0016405684
-0.0020232522
0.0012114089
0.0033370364
0.0022913713
0.0014361829
0.0046733576
0.007846298
0.0034337319
-0.0034628925
-0.0047884802
-0.0027355787
-1.7947484E-4
0.0025346824
0.0025378824
-0.0017524988
-0.0050581577
-0.0026727982
-1.3684884E-4
-0.0010952387
-0.001475243
-0.0022143703
-0.003628178
-0.0025857652
-0.0015667055
-0.0012706997
-4.818066E-4
-2.8901242E-5
6.7191204E-4
-1.6483631E-4
-0.002010331
-0.00108158
0.0014684205
0.0028435495
0.001569731
-5.070506E-4
-4.868498E-4
0.0011387178
0.0038833532
0.004531849
0.0019108143
0.0011865728
0.0014959621
2.3165281E-4
-3.0954478E-5
6.909739E-4
9.279553E-4
0.0011383177
0.0013706562
-2.6805585E-4
-0.0028296239
-0.0029294426
-0.00219258
-0.0012782118
0.0011181659
0.002073689
2.0616599E-4
-0.0015770284
-3.5823756E-4
7.371173E-4
-0.0011837786
-0.0018868988
-0.0013825021
-0.0010692788
-1.6919977E-5
-8.137959E-5
3.856061E-5
3.106749E-4
7.5715326E-4
0.0025233414
0.0013813176
-2.4556968E-5
-7.6841976E-4
-0.003622381
-0.0015672274
0.0014897552
2.7267687E-4
0.001444824
0.0023230158
0.0011214279
8.676723E-4
7.865893E-4
0.0011981747
5.6610984E-4
3.3386686E-4
1.9962778E-5
-0.0018449841
-2.5427656E-4
-6.517564E-5
-0.0027889393
-0.001885213
-0.002755895
-0.004882423
-0.004041026
-0.0034763343
-0.0015076128
3.6556096E-4
7.235864E-4
0.0024974253
0.0034087477
0.002950229
0.0013699757
-1.3974831E-4
7.760662E-4
3.6453368E-4
7.1020506E-5
0.0021828571
0.0013596002
-0.0010257767
-0.0013132562
3.19416E-4
0.004639524
0.009266969
0.012233283
0.012559688
0.0060516247
-0.0034506028
-0.0063824086
-0.00546743
-0.006697059
-0.0067237155
-0.0054529984
-0.005129728
-0.0030470002
-0.0012068847
-0.0012927284
-5.273879E-4
-0.001055676
-0.0027143343
-0.0026680236
-0.0023703226
-0.0020310997
-0.002695486
-0.004766667
-0.004696425
-0.0019514082
0.0011973418
0.0027285048
0.0037874589
0.0048357258
0.0026186148
0.0013086838
0.003178146
0.002282339
0.0014509496
0.0033140695
0.0038069685
0.0039373296
0.0048358017
0.0052056722
0.002308356
-0.0033275804
-0.0033418601
3.28243E-4
2.2539013E-4
7.9915795E-4
0.0024433716
0.0013981255
-4.808408E-4
-0.0022844302
-0.0019207549
-5.456359E-4
-7.779239E-4
7.134699E-5
2.5862246E-4
-8.75163E-4
-0.001681226
-0.0026984785
-0.0013418286
-0.0010131017
-0.0026623001
-0.0022560058
-0.0026741568
-0.0016202551
-0.0011503128
-0.0038474654
-0.0033156262
-0.0044485033
-0.0028578422
0.0025141663
-0.0035862855
-0.00508454
0.004069839
0.0037301262
0.0023004154
0.0027452826
-8.476829E-4
6.326406E-4
0.0024133855
9.151943E-4
0.0017202382
0.003592256
0.00662675
0.007727115
0.00593811
0.0063805934
0.0072653773
0.004841505
-1.9310023E-4
-0.0033522695
-0.002451582
-0.0027140377
-0.00487824
-0.0045566526
-0.0036986028
-0.0032069585
-0.001115322
-0.0012596007
-0.0021137886
5.463098E-4
9.258777E-4
-0.0014548382
-0.0029501282
-0.0051668747
-0.0057351626
-0.0045716697
-0.0036468918
-0.0012796419
-2.5149158E-4
-0.0013861418
-5.354322E-4
0.001971945
0.00326909
0.0031966965
0.003280393
0.0033455999
0.0020657573
3.9922938E-4
0.0012667427
0.0025936083
1.9819096E-4
-0.0014214573
-5.4854027E-4
-8.318575E-4
0.0012923408