0.00377478
0.0040315827
0.0012549201
9.664251E-5
0.0012840428
0.0012557226
-1.7250724E-4
-0.0025005909
-0.004649147
-0.0032954596
8.402431E-4
0.0029915457
0.002263668
0.0013836167
3.2929043E-4
-9.3232526E-4
-9.381868E-4
1.0229959E-4
-9.467884E-5
-0.0036417737
-0.0052273544
-0.0016314415
0.0019540603
0.0036709525
7.700549E-4
-0.003170549
-3.915696E-4
0.0015183107
5.8173505E-4
8.68323E-4
-6.7802495E-4
-5.03071E-4
7.6286774E-4
5.1556923E-4
6.2897726E-4
-6.7654403E-4
5.5839674E-4
0.0018353019
-0.001532202
-0.0015048326
6.0322555E-4
9.720084E-4
0.0017078416
0.001136154
0.0011244927
8.213463E-4
-0.002129667
-0.0036595676
-0.002208003
-0.0010181239
-0.0014947709
-1.9944509E-4
6.071136E-4
-3.5932736E-4
0.002631486
0.0026898265
-0.0012119929
0.0010118868
0.0029098203
5.829492E-4
-8.411602E-4
-0.0019560053
-0.0012236752
6.3532515E-4
-9.808278E-5
-0.0012597616
2.2733964E-4
0.0018210531
9.212988E-4
5.513715E-4
0.001112326
9.5762446E-4
4.294093E-4
-1.717208E-4
-1.2267877E-4
-0.001987532
-0.0030184954
-1.7845683E-4
-2.4988356E-5
-5.2627403E-4
-8.5464904E-5
-0.0012461769
8.810348E-4
0.0024510552
0.0016223826
0.0018226989
-7.524226E-4
-0.0024747404
-0.0010279389
3.5391384E-4
0.0013381271
3.976837E-4
-1.55165E-4
-0.0026472507
-0.006447616
-0.0020553975
0.0030330883
0.0014334953
7.2551536E-4
0.0014919547
6.5476657E-4
-5.868369E-4
-8.740734E-4
-6.6207896E-4
-4.2662232E-5
0.001251398
0.001264897
0.001575784
0.0024837204
0.0019500022
0.0014552996
-6.24849E-4
-0.0018561195
1.7284966E-4
-4.2469017E-4
-0.0017997166
-0.0015018522
-0.0017007524
-4.4621373E-4
5.3536595E-4
6.693239E-4
0.0010314481
-5.773795E-5
-1.8206605E-4
-3.5226825E-5
-0.0014052412
-0.0015538915
-7.273548E-4
3.8966915E-4
0.0012484165
0.0019838596
0.0032533435
0.0024386037
0.0016070966
0.0018665607
-3.0613563E-4
-0.0019016931
-0.0014233751
-0.0010911982
-0.002022168
-0.0049859546
-0.0049326974
-0.001652742
2.3891462E-4
0.0034375137
0.00543573
0.0021128117
-0.0014207473
-0.0028889112
-0.0033324363
-0.0015901233
3.2213968E-4
-7.9603674E-4
-0.0010104164
0.0023717824
0.003938376
0.003233019
0.00239793
9.241294E-4
8.721603E-4
0.0010533141
6.306264E-4
7.8259304E-4
4.6400278E-4
4.847627E-4
-5.773268E-4
-0.0024945363
-0.0023767247
-0.0020095315
-0.0022882842
-0.0026949546
-0.0017750304
-4.15537E-4
-0.0012508145
-5.261309E-5
0.0026358382
0.0025149195
0.0013265896
9.0584805E-4
0.002852856
0.003760811
0.0010452324
-0.001452757
-0.0021765253
-3.105095E-4
-5.930124E-4
-0.004261871
-0.0035063247
-1.0764804E-4
0.0028202913
0.0039308737
0.0018426504
0.0010122882
-0.0010601274
-0.003759283
-0.002347568
-0.0016375507
-0.0015878446
-1.575268E-4
0.0010149272
8.4532786E-4
-0.0011846133
-6.6289795E-4
0.0012093369
0.0015350211
0.0033668776
0.004022908
0.0019470647
-6.620421E-4
-0.001851879
-5.635546E-4
-5.72336E-4
-4.835316E-4
0.0013921413
0.0014353449
4.9743E-4
-0.0014478983
-0.0025124827
-4.4017663E-4
-3.136523E-4
-0.0014663924
-7.4886804E-4
-1.0932887E-4
-1.91465E-4
-0.0012181916
-8.362675E-4
6.054367E-4
-3.9103176E-4
5.819389E-4
0.0029565066
0.0012216122
-5.1970786E-4
-4.732793E-4
1.3966893E-4
3.814886E-4
-0.002575711
-0.002368858
0.0014889868
7.0902344E-4
5.101623E-4
0.003050837
0.0029498024
0.00258858
0.001680058
-0.0010602174
-0.0024615559
-0.0024182603
-0.0036239733
-0.005044297
-0.0020358376
0.0020148298
0.003000472
0.0049196696
0.0051431023
0.0016629015
-8.224828E-4
-0.002974995
-0.0033933893
-0.0010596131
-0.0013260127
-0.0022366503
-9.6053997E-4
-8.792145E-4
2.3797687E-4
0.0020768414
-1.0859715E-4
-0.0011170929
0.0014335621
0.0028341063
0.004078609
0.0031660376
-0.0020851989
-0.0057937074
-0.0054645007
-0.0023816025
0.0020312467
0.0041984287
0.0024076083
-2.0158359E-4
-1.8211643E-4
-3.4953122E-5
-0.0013971525
-8.383742E-4
9.369501E-4
6.904431E-4
-2.8910444E-4
7.9929427E-4
0.0017701578
5.305931E-4
8.471936E-4
0.0011617448
-0.0022768795
-0.004711338
-0.0025896388
0.0025323413
0.005809596
0.004054651
0.0013715029
-0.0026153815
-0.0084699085
-0.006906407
4.536562E-4
0.0024174382
0.0024884488
0.00462971
0.0031752605
0.0014489978
0.0018082159
-3.498397E-5
-4.4577697E-4
1.1904641E-4
-0.0023475233
-0.0043135537
-0.0037104585
-0.0011850732
-3.455253E-4
-0.0012106271
4.520567E-4
9.868561E-4
9.685475E-4
0.00145443
-0.0010653689
-6.654565E-4
0.0010539604
-4.91728E-4
5.143684E-5
6.3063885E-4
7.305159E-4
0.0015971448
4.9105583E-5
4.374196E-4
0.002263949
0.0013890101
5.097957E-4
-0.0010128465
-0.0022684003
-6.871582E-5
0.001957574
8.358721E-4
-7.834697E-4
-0.0010797158
-7.337688E-4
-6.678096E-4
-0.0013996399
-0.0014879452
-0.0017320446
-0.002022165
8.334035E-4
0.0015544604
-1.2614756E-4
0.0012601144
4.4624944E-4
2.754754E-4
0.0034455496
0.003175136
0.002581006
2.3487696E-4
-0.0039098877
-0.0017661364
9.758753E-4
5.300556E-4
4.5022712E-4
1.5639604E-4
-7.545342E-4
-0.0017152808
6.7111466E-4
0.0026025323
-6.7141233E-4
-0.0027629987
-0.0027949007
-0.0012922344
0.0012921212
7.3299543E-6
-0.0010527581
2.9469715E-4
9.911133E-4
0.001254197
-3.4690154E-5
-5.1257195E-4
4.9566524E-4
-3.4002287E-4
-0.0015641821
-0.0010958451
9.330044E-4
0.0014102997
-4.887445E-4
-0.0011920945
-0.0013241393
-9.1511727E-4
5.371058E-4
-7.572106E-5
-0.0015929199
-0.0010031799
8.1066164E-4
0.0011490195
5.7843263E-4
0.0022936657
0.0036071313
0.0020908923
0.0010628622
0.0012112149
0.0025542646
0.0037538847
8.5797184E-4
-0.003155626
-0.0037931006
-0.0017546719
7.767817E-4
6.1951287E-4
-5.8155536E-4
2.486375E-4
3.3584744E-4
-5.266579E-4
-0.0014403367
-0.0030888862
-0.003517568
-0.0026816984
-7.832406E-4
9.0903597E-4
-2.7876996E-4
-7.090019E-4
5.7904096E-4
4.542112E-4
9.349193E-4
0.0016586302
0.0010088763
0.001051793
9.621544E-4
-3.6475167E-4
-8.171922E-4
1.7925326E-4
9.0200326E-4
-2.303702E-4
-0.0021408333
-0.0014343675
0.0010234239
0.0019188016
0.00183503
4.8072822E-4
-0.0010983007
-0.0011829748
-0.0025953308
-0.0022138287
0.0011721272
0.001787032
0.0020938206
0.0018685322
-0.0010844395
-6.043192E-4
0.002089857
0.0026949528
0.002236133
0.0011178503
5.981781E-4
-4.879236E-4
-0.0017914417
2.9717415E-4
0.002932193
0.0022727076
-0.0012993253
-0.0042241574
-0.0025941385
-0.0011763795
-0.0037154942
-0.003787841
-0.0010732049
-2.8412393E-4
8.9558517E-4
0.0021971895
0.0011295015
2.6278672E-4
-2.0131162E-4
-7.49023E-4
-6.960383E-4
-0.0010635371
-7.3399616E-4
-8.38005E-4
-0.0019359802
-9.539718E-4
-9.0719666E-4
-0.001412333
0.0014382302
0.0024300094
0.0019053023
0.0040456704
0.0045982776
0.0037836973
0.0029729283
-2.7286127E-4
-0.0029879273
-0.004422078
-0.0058529656
-0.004255682
3.1958031E-4
0.0043967622
0.0048449915
0.0033329371
0.003891006
0.003802937
0.0025771016
0.0020492938
-0.0014171838
-0.0053849993
-0.0050951736
-0.002554879
2.4192671E-4
0.0010065788
-5.309312E-4
-8.559379E-4
-8.261105E-4
-0.002848154
-0.004012975
-0.002770013
-0.0020116298
-4.7924224E-4
0.0024464566
0.0023985344
6.8111456E-4
-4.31582E-4
-0.0020170861
-0.0028361406
-0.0026028154
-6.919212E-4
0.0018176534
0.0018233788
0.0020966697
0.0032225933
0.0022254353
0.0011437293
0.0017215278
0.0025315897
0.0023706057
0.001329637
-2.0437974E-4
-0.0010582488
-1.4187221E-4
0.001207136
0.002738712
0.002349021
-0.00134454
-0.0024377287
-6.46864E-4
4.1464932E-4
8.147047E-4
-0.0010069223
-0.0012407248
0.0010038719
-5.44674E-4
-0.0029351055
-0.0034949628
-0.004048722
-0.0024963422
-2.8072922E-5
3.629785E-4
-0.0012809319
-0.0026198975
-0.0020365876
-0.0013474792
-7.5031683E-4
3.6906826E-4
0.0022702238
0.00404888
0.0027924406
0.0016227759
0.0019708057
4.305377E-4
2.1887335E-4
0.0015165276
0.0016763682
0.002618191
0.0025383157
0.0020160584
0.0033797128
0.0022320845
-0.0010265979
-0.001146578
3.6378435E-4
-6.802009E-4
-0.0031689869
-0.0035800994
-0.0028310267
-0.002437531
-0.0020220447
-0.0031112717
-0.0026405838
0.0017940437
0.002863272
2.920952E-4
1.0308966E-4
-2.3761662E-4
-0.0015688706
-0.0020886923
-0.0023795778
-9.025167E-4
4.4265532E-4
-1.9025673E-4
-6.908079E-4
-9.845466E-4
2.0146047E-4
0.001059597
-6.162333E-4
7.410678E-4
0.0032071478
9.473158E-4
-8.1480545E-4
8.710641E-4
0.0021199996
0.001959299
0.0020823458
0.002453548
0.0021149043
0.0032940153
0.004649895
0.002156753
4.5261811E-4
0.001247657
2.701124E-4
-0.0010247823
-0.0023987286
-0.0025954142
2.9382622E-4
0.0014720549
0.0014724885
-9.888995E-4
-0.0071910345
-0.0057703047
-0.0024134107
-0.008011466
-0.008689304
-0.0017009537
0.0017074889
0.002142747
0.0014563974
9.286794E-4
0.0021892458
0.0017225741
-4.3746587E-4
2.6973104E-4
0.0017075574
7.668671E-4
0.0019459054
0.0041327113
0.003729483
0.0030756711
9.035439E-4
-8.6527993E-4
-2.2307882E-4
-5.808475E-4
1.4659094E-4
6.928326E-4
-0.0014585382
-0.0019243081
-4.5091362E-4
-6.865898E-4
-0.0019926596
-4.2022457E-5
0.0013395356
-0.0012571204
-0.0014435113
-0.0012521391
-0.001716665
3.716349E-4
0.001406536
0.0032225547
0.0048383805
0.0038467194
0.0034052085
0.0019338949
-3.9307587E-4
-0.0034787229
-0.004872982
-0.0021638346
-6.77993E-4
-1.0996986E-4
-4.0456813E-4
9.4898825E-4
0.0015884655
-0.007074081
-0.007759084
0.0017555632
0.0048544207
0.0067981295
0.0021378258
-0.00522666
-0.003178824
-0.0048918654
-0.005237638
8.5301744E-4
0.0010566723
-4.605632E-4
-1.2922205E-4
0.0016673999
0.0036038088
0.003241023
0.004766187
0.004330365
3.8420217E-4
-4.2961523E-4
7.207272E-4
-2.7468326E-4
-9.105111E-4
0.0024026982
0.0022165293
-0.0017828966
-0.0011995882
-0.0013167224
-0.0032131376
-0.0039113006
-0.003077555
0.0020351778
0.0035897403
0.0015873186
0.002656103
0.002374462
8.291544E-4
-0.0017858478
-0.0039080726
-0.0037991456
-0.0054400326
-0.004038841
-0.0012434355
-0.0012771356
7.342072E-4
0.0012151769
0.0020007277
0.0048297113
0.0034313826
0.0031450894
0.0042038504
0.002688139
0.0014479966
2.094007E-4
0.0011244237
7.6815684E-4
-0.0027906715
-0.0030397405
-0.004375475
-0.0053294753
-1.7401601E-4
0.0029066973
0.0019586205
6.2244403E-4
0.0011727076
0.0042411983
0.0036006188
-3.2240187E-4
-0.0027353563
-0.0031782633
-0.0029849291
-0.004854045
-0.0055143046
-0.002888728
-4.0060503E-4
7.1313676E-5
-4.3815287E-4
0.002161859
0.0026283362
-2.1221102E-5
0.0032063269
0.0043854094
0.0010429922
7.0876215E-4
-3.4509486E-4
-6.9428294E-4
-7.592577E-4
-0.0021533177
-6.302568E-4
8.654556E-4
0.002323868
0.0028624395
0.0014718954
0.002238401
0.0016628747
0.0011497965
0.0027407554
0.0021724517
-0.0010629956
-0.006730011
-0.0075014387
-0.0029626403
-7.9398067E-4
0.0012855814
0.0019336082
0.002309691
0.0029028968
-0.0017071764
-0.0040918305
-0.0017024884
0.0012278616
0.0027513972
2.7692874E-4
-6.8336615E-4
-0.0010287921
-0.0019880426
-9.429079E-5
-8.2991726E-4
-9.216803E-4
0.0022870053
0.0025434187
2.3149053E-4
-0.001478358
5.696592E-4
0.0018503029
-4.054423E-5
-0.0018873657
-0.0054584476
-0.0040177004
7.0439395E-4
9.357607E-4
5.0096284E-4
-0.003137167
-0.0029725428
0.0018184164
-0.0024253738
-0.003473513
0.0010943816
2.2208068E-4
0.0015983928
0.0013614617
-0.0031941235
-0.0019887218
7.8655285E-4
-3.173079E-4
-0.0013505783
-1.4962033E-4
0.0020305677
0.0046219393
0.0057419688
0.005174773
0.0067612086
0.006509099
0.0039549232
0.0060447557
0.0082254335
0.007230766
0.004095057
-0.0026160236
-0.008064802
-0.009312146
-0.0060294373
-0.001049378
-6.1684544E-4
-1.610234E-4
0.0029245885
0.0045913127
0.006213228
0.00645232
0.0034022497
-0.001911611
-0.006670158
-0.007084841
-0.0074770646
-0.009141515
-0.00920594
-0.01203183
-0.014992502
-0.01372256
-0.01267879
-0.012672121
-0.013316345
-0.012243196
-0.0056653735
0.00108146
0.004421778
0.00564167
0.004837847
0.0050892457
0.0060926573
0.0047879247
0.0046291347
0.0076035433
0.00848942
0.0066018226
0.008188804
0.011441425
0.011882538
0.014952313
0.01849508
0.014831187
0.013277924
0.019135138
0.021354642
0.01972332
0.015764264
0.0022309036
-0.013097162
-0.018852636
-0.015151859
-0.006853086
-0.0049453084
-0.010665116
-0.017861981
-0.027658839
-0.035056945
-0.033761952
-0.02562323
-0.020335114
-0.026559299
-0.03211727
-0.022484504
-0.0014800582
0.020376585
0.036605682
0.042738594
0.035021864
0.022869533
0.014989747
0.010079865
0.011841388
0.013645962
0.010664218
0.014093479
0.023234686
0.028382188
0.022509167
0.004802813
-0.0090845125
0.00656314
0.04116067
0.04036161
0.008226319
-0.010947754
-0.026905915
-0.04309216
-0.05460378
-0.074831314
-0.092071176
-0.10217279
-0.10527324
-0.09737741
-0.08805922
-0.063465886
-0.02252063
0.012063384
0.043799028
0.084038004
0.124446265
0.13810804
0.12408584
0.094289266
0.046587247
0.0215981
0.042805683
0.070394084
0.07780155
0.072350115
0.07680239
0.07174718
0.03811339
0.011145742
-0.028677324
-0.071316585
-0.03715406
0.029315464
0.04062606
-0.016611129
-0.10930734
-0.15314287
-0.120515056
-0.05270145
-0.010126644
-0.05432143
-0.12163861
-0.15566894
-0.2006949
-0.20189959
-0.12538843
-0.043865986
0.04836573
0.16562818
0.24104844
0.22062516
0.14544192
0.08723313
0.025473816
-0.037641086
-0.04902899
-0.048114657
-0.06401268
-0.07708608
-0.09911379
-0.108838305
-0.06371215
0.025195286
0.1097951
0.17465688
0.22021583
0.24418049
0.295567
0.29617652
0.0945869
-0.13572149
-0.18133922
-0.16827293
-0.21224807
-0.23998483
-0.15618157
0.060258165
0.28716
0.36616963
0.28785378
0.17699492
0.09602245
-0.049187895
-0.2919311
-0.4584072
-0.3986328
-0.22002828
-0.09801396
-0.019350454
0.03522321
-3.024111E-4
-0.081489936
-0.114631906
-0.083356224
-0.035792693
-0.018352432
-0.014460282
-0.018695602
-0.003263505
0.073285386
0.1284448
0.120115034
0.121182464
0.15584031
0.17717011
0.12545067
0.042166505
0.016545074
0.03228585
0.036274962
0.02861922
0.05375568
0.09063694
0.06969603
0.006194261
-0.04911628
-0.03183319
0.027629677
0.0013883868
-0.073861025
-0.12045857
-0.12715758
-0.112202495
-0.17602764
-0.23413922
-0.15019393
-0.045436423
0.02116061
0.10831581
0.17471191
0.14448018
0.058291998
0.037171844
0.04625916
-0.019302143
-0.14184439
-0.2174029
-0.14410315
-0.00450568
0.084927864
0.1497091
0.18434533
0.17059001
0.074608065
-0.0647801
-0.07235017
0.0087295305
0.031123575
0.045440733
0.09321001
0.100333184
0.014623219
-0.081474476
-0.11658777
-0.14032522
-0.12852053
-0.06125491
-0.020490533
-0.0069758585
0.013001133
0.018303158
0.021989662
0.036967434
0.01088642
-0.043116942
-0.059724275
-0.073394634
-0.079662606
-0.04211364
-0.018926324
0.012897886
0.083531104
0.119417496
0.11278383
0.07063281
8.046024E-4
-0.012558862
0.05224745
0.118927285
0.11081727
0.02469591
-0.031711772
2.8498366E-4
0.025549022
0.0072729797
-0.006724193
-0.04667865
-0.10308808
-0.11540785
-0.10076896
-0.076828994
-0.060409337
-0.05231688
-0.012860589
0.023520332
0.036379464
0.06069074
0.0793189
0.08128646
0.07562404
0.068198346
0.045315646
-0.0182576
-0.053535033
-0.0358497
-0.06089709
-0.10153932
-0.06697541
0.009566063
0.05979403
0.061162964
0.042730443
0.046951834
0.05584865
0.019256622
-0.0496026
-0.0625468
-0.008882621
0.008230997
-0.028487347
-0.058030877
-0.075839214
-0.07446682
-0.033354837
0.02295061
0.059452247
0.07004564
0.064950645
0.043058697
0.025289569
0.03681593
0.036450338
0.005760015
-0.018894589
-0.033627786
-0.031723112
-0.012139308
-0.009085826
-0.018093174
-0.018737221
-0.012916197
0.0023454397
0.01772313
0.024982784
0.034837555
0.047791064
0.05510776
0.048092883
0.028911361
0.014246736
-0.002191605
-0.038389787
-0.07346856
-0.07266948
-0.0477135
-0.03502361
-0.034200232
-0.029426685
-0.02071109
-0.0054064672
0.017002095
0.03548228
0.038555406
0.036795124
0.036731802
0.013653441
-0.011398474
-0.0027127601
0.011161318
0.014657857
0.0077109244
-0.004656152
0.007988236
0.02675615
0.03529143
0.04716458
0.0336523
0.008791901
0.0042144908
-0.030033505
-0.088651404
-0.08861559
-0.045897298
-0.034097824
-0.048971325
-0.06084234
-0.06259171
-0.05005307
-0.029167347
-0.010313549
-0.0036586581
-2.8562243E-5
0.011586113
0.015907764
0.017038828
0.017714798
0.01539861
0.025203954
0.03750268
0.056949977
0.08370061
0.09802913
0.1178272
0.109714314
0.03872098
-0.031758837
-0.059711553
-0.05055159
-0.027344221
-0.0139509905
-0.004505888
-0.007557896
-0.020383691
-0.024812417
-0.028609227
-0.030902527
-0.03315011
-0.040101215
-0.044682927
-0.04671576
-0.04253765
-0.03437037
-0.026295686
-0.017292866
-0.010429328
0.0013942922
0.014335336
0.02064381
0.02853393
0.032862455
0.031221176
0.03220076
0.03160234
0.024084877
0.012779113
0.0035238275
-0.004558816
-0.01618337
-0.028175185
-0.03367273
-0.031351168
-0.029320152
-0.02507733
-0.0040494995
0.025449023
0.048389867
0.06468696
0.068673134
0.059739873
0.044795305
0.019503625
-0.009420232
-0.025867712
-0.034289636
-0.038055602
-0.026976088
-0.00514636
0.014369403
0.03243603
0.04892535
0.046976063
0.019763734
-0.013667306
-0.03096096
-0.032511037
-0.039114986
-0.053716313
-0.06389791
-0.06894499
-0.06582389
-0.057503026
-0.05322267
-0.049757592
-0.04485985
-0.032142438
-0.0072455877
0.019828461
0.042430367
0.05817658
0.066305555
0.056931883
0.027219959
0.0023894024
-0.0053764046
0.0065425443
0.035929676
0.058329772
0.0679729
0.06624949
0.05177306
0.039991897
0.032363426
0.027710006
0.026380273
0.023262648
0.029999346
0.038301334
0.022436542
-0.016296558
-0.05774868
-0.075320505
-0.06604439
-0.052533556
-0.043530602
-0.038044292
-0.029112948
-0.008911964
0.011139727
0.021076994
0.02279673
0.014614843
-0.0012555412
-0.017746111
-0.03054676
-0.036428005
-0.0412428
-0.050073203
-0.05639983
-0.063384734
-0.073751874
-0.07673307
-0.071084924
-0.064158835
-0.06491155
-0.07143545
-0.060892876
-0.02820292
0.010582889
0.04726827
0.073802024
0.09478472
0.1197089
0.13219447
0.13008472
0.13142858
0.13373344
0.1336543
0.12614591
0.10545275
0.09333847
0.09524032
0.0924272
0.08772281
0.09713346
0.10958092
0.05658088
-0.07761477
-0.18614976
-0.22159623
-0.2243688
-0.20252289
-0.17938305
-0.17927535
-0.17397682
-0.14676583
-0.11231855
-0.090889305
-0.07976734
-0.054905992
-0.017694745
0.016839037
0.044370297
0.059206005
0.061815098
0.06380629
0.07260859
0.08446505
0.09511899
0.10196526
0.10203973
0.098114684
0.08995092
0.07475943
0.056978144
0.041460004
0.028641928
0.017328082
0.007864316
-0.004362297
-0.022262286
-0.035164196
-0.040092617
-0.039723746
-0.031703744
-0.024276251
-0.02046493
-0.014080855
-0.007146051
-0.0021390226
-1.2850095E-4
9.832198E-4
0.0025964032
-2.905275E-4
-0.005192332
-0.0058186348
-0.0011317685
0.0017740382
-0.0051285205
-0.012646155
-0.016070805
-0.022182222
-0.024693057
-0.023111083
-0.024900183
-0.023462756
-0.016164664
-0.0098023685
-7.0541646E-5
0.016837325
0.024502944
0.014247674
0.0048176735
0.0048144907
0.0054951543
0.005215064
0.003209444
4.940928E-4
-2.850586E-4
-9.04644E-4
0.0029859007
0.010168366
0.010160483
0.004925617
0.0022102299
6.838903E-4
-0.0019761086
-4.311256E-4
0.0041446993
0.0018159917
-0.002102534
-0.0014029674
-0.00325381
-0.0046842033
-0.001624959
0.0013272543
0.0029094627
0.0022207175
0.0023072804
0.0047791293
0.005455821
0.0068145683
0.008942479
0.009070117
0.010263808
0.010888281
0.008353138
0.0048239552
-6.415103E-4
-0.0077978754
-0.010387926
-0.0075907186
-0.0039706095
0.0019225939
0.0063592084
0.003318456
-0.0012313066
-0.006099639
-0.011358689
-0.01227599
-0.012832972
-0.012070046
-0.0074328347
-0.0053857197
-0.0042748176
-0.0014186747
-8.694437E-4
-8.029245E-4
0.002210153
0.00548074
0.0070155417
0.007796595
0.004805696
-0.0013623983
-0.0029022207
-5.480326E-4
6.676037E-5
0.0013141178
0.005668586
0.006814009
0.0024496194
1.3460476E-4
-4.711447E-4
-0.0011603698
9.476131E-4
7.024557E-4
-1.6708381E-4
0.0021373134
8.0619403E-4
-0.0014833763
-4.11217E-4
9.5992954E-4
0.0021548586
9.657354E-4
-0.0012649118
0.0011144528
0.0050467346
0.0014822368
-0.0067989836
-0.0068844003
-0.0013981813
-2.3405989E-4
-0.0022224493
-0.005022798
-0.0054354025
-0.003147005
-0.0020381073
-0.0013331218
-0.0012603754
-3.4831598E-4
9.1772026E-4
-0.0014636358
2.8471532E-4
0.005760044
0.0022878966
-0.0028023024
-1.6816897E-5
0.001967704
0.0036581228
0.011081907
0.013673912
0.0082725715
0.0056415764
0.004388851
0.0014656715
7.8724546E-4
0.0010688952
2.4176456E-4
-0.0023739042
-0.004927476
-0.0055734725
-0.0073235394
-0.008367721
-0.006642143
-0.004329645
-0.0020817835
-0.0019890706
-0.0019528624
-3.3176766E-4
-0.001015585
-0.0018664399
-0.0017115733
-0.002147688
-0.0011690557
4.608011E-5
9.130041E-4
0.0038188614
0.0073933443
0.008349118
0.0084129125
0.009571077
0.007437326
0.003433019
0.0022578835
0.001360252
2.9357476E-4
8.966967E-4
0.0036187887
0.003087
-0.004030128
-0.0060195616
-0.0022934277
-0.0015723583
-7.716058E-4
-0.0017584306
-0.0034525846
-0.0015622247
-0.001057005
-8.957528E-4
-0.0014181611
-0.0028863193
-5.6377624E-4
0.0010438294
7.7175343E-4
3.1104195E-4
-0.001336456
-7.874923E-4
5.1703694E-4
0.0010346337
0.0017347735
0.0013723705
-6.2485307E-4
-0.0037651313
-0.0026545257
0.0017893006
0.0029636954
0.0029328046
0.0019101513
-2.0821812E-4
-4.724227E-4
-3.1618878E-5
5.6952366E-4
9.301416E-4
0.002711124
0.005563868
0.0035840755
-0.0011394533
-0.0018881497
0.00161584
0.0037477852
0.0018541326
6.9373386E-4
6.198666E-4
-9.5364434E-4
-0.0019396585
-8.3118974E-4
8.82051E-4
5.329887E-4
-0.0017967458
-0.0040604486
-0.003313097
3.3477647E-4
0.0015398466
0.0014702386
0.0018857333
8.4035296E-4
1.688214E-5
-0.0018288033
-0.0019906035
8.266501E-4
-3.1907437E-4
-0.002087451
-9.930783E-4
4.8295554E-4
0.0025051574
0.0038725669
0.006610896
0.008821768
0.006596569
0.0015310394
-0.0069756545
-0.011943642
-0.008460141
-0.0036621743
-1.0389519E-4
4.5496483E-5
-0.0017323476
1.565309E-4
0.002189783
0.0029249166
0.0026896647
-9.209138E-4
-0.0035526762
-7.3484326E-4
0.004313125
0.0050899372
0.0020660989
5.160397E-4
-0.0012303261
-0.0026046543
5.318755E-5
0.002472467
0.0034794952
0.0036372812
-5.5119843E-4
-0.0028922516
5.491186E-4
0.0026935216
0.0024880318
5.7830976E-4
-0.0014074242
-9.706532E-5
-5.468603E-4
-0.002636677
-0.002204429
-0.0017151989
-7.7007635E-4
6.6978537E-4
0.0018057432
0.0016149343
-0.0010106607
-4.7285968E-4
0.0013704236
-5.110386E-4
-8.4622647E-4
2.6746967E-4
-3.3132872E-4
-5.0414825E-4
9.55519E-4
0.003415164
0.0033081826
-6.7854766E-4
-0.00355042
-0.0015690968
0.0018324445
0.0019489668
9.175447E-4
2.6916372E-4
-0.0013074515
-0.0014305264
-1.589132E-4
-2.6489404E-4
-9.1320666E-4
-0.0025111088
-0.0052129184
-0.004611134
-0.0022873033
-0.0010781055
0.0016042609
0.001031187
-0.0015554652
0.0011800647
0.0021561838
2.2289998E-5
4.8839685E-4
0.0022689884
0.0046266112
0.0038901696
0.002730893
0.0045425473
0.003151927
0.002616175
0.004422739
0.0018114671
-0.0014682888
6.213754E-4
0.005724234
0.005080377
0.0012903874
2.3165837E-4
-0.0046271873
-0.0072414624
-0.0039828955
-0.006288074
-0.009333752
-0.0071514347
-0.00517417
-0.003879709
-0.002125029
-6.708056E-4
-6.7852414E-4
-3.7057758E-5
0.002570091
0.0034800547
0.003197734
0.002893146
0.0020581952
0.002284335
0.0026481838
0.0026155428
0.0027092514
0.0012009576
-1.9140067E-4
0.0018378028
0.004536878
0.004030383
6.438827E-4
-0.0018917567
2.7461763E-4
0.0021665627
-6.136081E-4
-0.0015916
-6.703087E-4
-0.0022214432
-0.0034121193
-0.003347064
-0.0028520857
-0.0010925422
9.4704656E-4
6.752688E-4
-8.9098257E-4
-2.1161365E-4
-4.3801405E-4
-0.0014847517
6.568022E-4
0.0010826234
-4.2507498E-5
0.0013334608
0.0013568179
3.9926262E-4
0.0020719552
0.0029922859
-7.708077E-4
-0.003325687
-1.3179811E-4
0.0018675417
0.001099189
7.6020416E-4
1.9164203E-4
7.957315E-4
8.7318756E-4
-7.924615E-4
-9.142845E-4
-2.0709028E-4
5.093948E-4
0.0016626143
0.0015112339
2.947944E-4
7.2509656E-4
0.0023160458
0.002211191
0.0010805888
-3.6381165E-4
-0.0025341262
-0.003816033
-0.003042277
-9.4226125E-4
-0.0010107517
-0.0030761743
-0.0037359307
-0.0037570836
-0.0024063576
-0.0016302253
-0.003463815
-0.0025115411
-7.310406E-4
-0.0014921563
-0.0020770119
-0.003159154
-0.0015597382
0.0032333066
0.0036206727
0.0018120627
0.0034728472
0.004446124
0.0036458496
0.00567738
0.006664695
0.0032155642
0.0019661558
0.004432006
0.0073267226
0.009056608
0.0077087497
0.0060283476
0.0034873933
-0.0022849222
-0.004895612
-0.0041766325
-0.0050867004
-0.005655403
-0.0057988684
-0.0057220864
-0.0051679634
-0.0067206393
-0.0060159257
-0.0016116654
-0.0014340699
-0.0033709523
-0.002368797
-0.002230076
-0.002832244
-0.00269782
-0.0026553087
-0.0013163523
-5.5147073E-4
-3.9106474E-4
0.0017006067
0.0026691298
0.0019152563
0.0020076656
0.0024424042
0.0029020812
0.002599457
7.7950023E-4
-6.269016E-4
-8.802617E-5
0.0011585813
0.0026456842
0.004303912
0.0027165185
5.653868E-4
0.0036718338
0.006233217
0.0042603766
0.0013066104
-0.0014051645
-0.0014070993
2.2385331E-5
0.0012357803
0.0048402147
0.0055003236
0.0027526983
0.0028322886
0.002254581
-3.059153E-4
-0.0036983152
-0.0073045064
-0.006614181
-0.0054544043
-0.006330089
-0.0053695403
-0.0049625775
-0.004612184
-0.0026140655
-9.86501E-4
6.304165E-4
0.0015134476
0.001239604
-1.2456503E-4
-0.0014810372
-2.4169395E-4
0.0010021318
2.8942534E-4
-4.981531E-4
-5.9552345E-5
6.3216296E-4
5.169276E-4
0.002059457
0.0025522616
5.6571123E-4
3.2064658E-5
-0.0019397493
-0.002440987
5.4700125E-4
6.395661E-4
0.0012718975
0.0019315755
-2.6146695E-4
5.7061884E-4
0.0029788055
0.0030664026
8.2507636E-4
-7.874273E-4
-3.174765E-4
-0.0013474886
5.8069365E-4
0.0062438147
0.008295324
0.0074677966
0.005916292
0.005150481
0.0032251733
-0.0019181614
-0.0031514117
-0.0019028381
-0.004430399
-0.006510515
-0.0058532646
-0.004578273
-0.0023579565
1.8329878E-4
3.4229414E-4
-3.652704E-5
-0.0012089568
-0.007233506
-0.009992647
-0.005714742
-0.003043879
-9.3231833E-4
9.275314E-4
-6.117649E-4
-8.2753046E-4
6.2038243E-4
5.422471E-4
1.7675674E-4
7.251423E-4
0.0015038551
0.0024505085
0.0028654349
0.0015121902
0.001998539
0.0050893794
0.005215029
0.002529982
0.0021528138
0.0054097422
0.006462786
0.0027475355
-9.5789606E-4
-0.0040315064
-0.0037029106
0.0014113585
0.0039147823
0.004120734
0.003354733
-0.0013348238
-0.003964118
-0.0019704555
-0.001494341
-0.001770577
-3.351276E-4
-0.0018190754
-0.0045400853
-0.004083786
-0.004196893
-0.0033884891
-0.0018202276
-0.003991531
-0.0037926924