0.0017745052
0.00138854
0.0016711004
4.3141513E-4
-0.003150801
-0.0062271147
-0.005058242
-6.368893E-4
0.0012351995
0.0023572473
8.4242783E-4
-0.0035734822
-0.0020743115
-1.4675269E-4
-0.0010435412
-3.1364607E-4
-0.0013852182
-0.0016579629
-5.581563E-4
-2.5826338E-4
0.0013658862
0.0018766067
0.0023558086
0.0021059609
-6.1393046E-4
-6.7025085E-4
4.5506778E-4
4.91677E-4
7.62338E-4
1.7751167E-4
2.1594677E-4
8.112247E-4
-7.8298413E-4
-0.0027038697
-0.001492933
-1.9897216E-4
-6.63453E-4
2.9980126E-4
7.6431496E-4
0.0011215053
0.0018212331
4.2072602E-4
0.0012804747
0.0016936095
-6.460528E-4
1.2614808E-4
7.423146E-4
2.1130628E-4
7.0184807E-4
-3.131449E-4
-0.0011655964
-6.44435E-4
8.15351E-5
-2.7566284E-4
-9.903462E-4
-0.0018492152
-0.0038514256
-0.0013735043
0.0029615043
0.002283249
3.9329764E-4
-9.826256E-4
1.6257259E-4
0.0012080473
-0.0017872184
-0.0021297869
-0.0011231643
-6.685009E-4
3.235699E-4
-5.448847E-4
0.0013508594
0.0023504475
1.12261216E-4
0.0014015535
0.0020846333
0.0017610684
0.0023078956
0.0012797425
4.6501163E-4
-8.82445E-4
-0.0013775749
-0.0011497397
-0.001453467
-3.534388E-5
-0.0011705623
-0.0027108602
-6.176787E-5
0.0015508593
8.760135E-4
-3.043224E-4
3.9543418E-4
0.0022278444
0.0011359237
-5.942631E-4
-0.001772683
-0.0017790354
-7.4736896E-4
-0.0015341834
-9.441141E-4
6.100542E-4
3.140179E-4
1.1207256E-4
-0.001237369
-0.001954539
3.1530962E-4
0.0016934349
0.0014173925
0.0017174393
0.002132492
6.2908296E-4
-0.0016181865
-0.001684186
-4.889924E-4
5.0666125E-4
9.960579E-4
9.6850976E-4
0.0011466593
0.0012227702
4.297092E-4
-0.0011960749
-0.0013626387
0.001081621
0.0022331825
5.956442E-4
-3.9887862E-4
6.7030516E-5
-8.9898723E-4
-0.00249179
-9.754496E-4
8.756373E-5
-0.0016988174
-0.0010562455
4.9501285E-4
1.4708373E-4
-8.166639E-5
-0.001393663
-0.0015930226
3.9543983E-4
9.898195E-4
0.001501398
0.0014675637
4.5941706E-4
5.156142E-4
-9.33551E-4
-0.001992282
3.1054916E-4
0.0013758927
2.1189621E-4
3.3355627E-4
5.216614E-4
-0.0014126288
-0.0017298434
9.6055956E-5
9.1130256E-5
4.7093342E-4
9.4828475E-4
-4.5579058E-4
-4.7043132E-4
-8.4003295E-5
2.3277575E-4
9.1354136E-4
6.232479E-5
3.8559455E-4
0.0012920185
6.464068E-4
8.114688E-4
0.0010959606
4.7284993E-4
-4.4886565E-5
-3.3033438E-4
-5.3146906E-4
2.541032E-4
0.0013911076
-1.8212735E-5
-9.675424E-4
4.489072E-4
-4.2371723E-4
-0.001920359
-5.986386E-4
8.477583E-4
3.0926816E-4
-5.481538E-4
-0.0023335812
-0.0048080697
-7.420061E-4
0.0023926154
-0.0051925783
-0.006115339
0.0024631137
0.0030164989
-6.348111E-4
-8.334036E-4
3.3923046E-4
0.002404915
0.00349821
0.003305341
0.002701182
0.0013688522
4.0764798E-4
-0.0011846345
-0.0031126668
-8.3819416E-4
0.0026613222
0.0023542473
0.0026885804
0.0023585272
-0.0011354492
-0.0011653462
2.9635415E-4
2.3366095E-4
5.4270925E-4
-0.0013110295
-0.002583808
-0.0019434736
-0.0019717338
-0.0012446298
-0.0010506114
-4.5651404E-4
4.151784E-4
-8.972303E-4
-9.094508E-4
-7.6247513E-4
-0.0016464758
-4.939826E-4
6.9889735E-4
0.0011613152
9.1658573E-4
2.3874115E-4
6.4532366E-4
4.932268E-4
0.0012361985
0.002401682
7.825554E-4
-5.987981E-6
8.8487106E-4
7.8581675E-4
5.0779973E-4
-2.6915252E-4
-0.001942977
-0.002082827
4.1198308E-4
0.0015537152
2.8940313E-4
5.849697E-4
7.570147E-4
-3.4443787E-4
-1.6768444E-4
3.7071173E-4
6.469914E-4
-8.337515E-4
-0.003119933
-0.0023300538
-7.5717736E-4
7.575029E-4
0.0016377898
1.5888954E-4
7.421006E-4
0.001821706
4.1991117E-4
-0.0011118405
-0.003607992
-0.0030998702
0.0013229859
0.0020182782
2.0442354E-4
-2.6702034E-4
-4.6938375E-4
2.460842E-4
0.001490499
1.6608348E-4
-0.002756033
-0.001583969
0.0016645084
0.0011275726
8.521274E-4
0.002745769
0.0018308403
-6.850994E-4
-8.5263775E-4
2.368082E-4
3.3424012E-4
-2.3546028E-4
-3.1451116E-4
2.2732676E-4
5.671924E-4
3.995478E-4
2.9204504E-4
4.0039528E-4
3.958391E-4
-3.1335917E-4
2.6135516E-5
0.0013794228
-1.6775483E-4
-0.001435959
-5.5167836E-4
-0.0015430353
-0.0015739105
-0.0012643372
-0.002394329
-7.877566E-4
9.3195273E-4
0.0015708948
0.0015760886
-8.427564E-4
-0.0013390518
-0.0011577116
-0.002187221
-8.264157E-4
-2.2014411E-4
-2.6149224E-4
0.0012313805
0.0014020869
0.0013719167
0.001110264
4.0353803E-5
2.4291674E-4
-2.985871E-4
-8.350893E-4
8.236599E-4
9.665973E-4
2.611248E-4
0.0015779774
0.0013550709
-5.450719E-4
-5.3010276E-4
1.7689931E-4
-2.332056E-5
-1.6035761E-5
-7.171242E-5
-0.0010956192
-9.5527776E-4
6.1674305E-4
4.2381507E-4
-4.1120834E-4
4.258995E-5
9.2442415E-4
0.0013833676
2.2478618E-4
-2.8399224E-4
2.5612034E-4
-5.0232775E-4
-2.4856167E-4
8.3560706E-5
-6.163365E-4
3.7469753E-4
9.968403E-4
-3.145233E-4
-0.0020874324
-0.0020733029
-8.028419E-5
-3.608345E-4
-0.0012239015
-1.2829958E-4
-3.837174E-4
-3.0618015E-4
9.443112E-4
5.879578E-4
5.292261E-4
7.6961063E-4
-5.7209353E-4
-0.001559038
-0.0020685922
-0.0020799679
-3.588692E-4
-1.6203817E-4
-0.0011144383
5.0477625E-4
0.0016611033
0.001037047
9.057263E-4
0.0012255362
0.0016397962
0.0016481
0.0021054188
0.0020925528
0.001132186
0.0012480797
-0.0010270097
-0.0037641753
-3.2928048E-4
0.0035415809
0.0011514212
-0.0028895289
-0.0019673952
0.0015029545
0.0030868922
0.0026035572
-0.0010957229
-0.0029668293
-0.0014945223
-7.7826466E-4
0.002737993
-3.242953E-4
-0.011249407
-0.008451167
0.0015545994
0.0033114105
0.003309856
0.0021609236
-4.8126935E-4
-5.873204E-4
-4.7655572E-4
-5.763043E-4
5.2061724E-4
0.0015978754
0.0015418195
0.0011039726
5.005437E-4
-2.986164E-4
4.7258666E-4
7.4578583E-4
-3.5951045E-4
4.3341523E-4
8.5318595E-4
-2.0833669E-4
-5.513912E-4
-0.0014008314
-9.6142374E-4
0.002111561
0.0028977518
-3.726846E-4
-0.0028693639
-0.0023197175
-0.0013092569
6.8349887E-6
8.6191215E-4
-2.0419732E-4
-9.823794E-5
2.2399292E-4
-6.688695E-5
0.0019748053
0.0021532346
-4.4329584E-4
-7.657461E-4
6.730659E-4
0.0017846645
0.001276791
3.842745E-4
2.844086E-4
-3.0429792E-4
5.2083947E-6
4.5124214E-4
4.108299E-4
3.85986E-4
-0.0017243522
-0.0032739015
-0.0026651314
-0.0010110728
6.973611E-4
5.1034713E-4
0.0010225436
-2.5307952E-4
-0.0018661906
0.0018928648
-0.0012952513
-0.008120555
-0.00311024
0.00134744
4.5675138E-4
0.0028438661
0.0037398
0.0013166735
-3.6085374E-4
1.8234798E-4
2.8830397E-4
-0.0015748589
2.574375E-4
0.0041822745
0.0036581662
0.0014767733
0.0011009219
6.289964E-4
-8.2597625E-4
-0.0012361053
-9.33569E-4
-9.1461366E-4
-7.5034524E-4
-0.0014719557
-6.936172E-4
0.0011216395
-3.878666E-5
2.3923685E-5
0.0014355708
6.916698E-4
7.9026347E-4
-4.0403387E-4
-0.0032954675
-0.0023504163
1.2310494E-4
1.3701109E-5
-9.813774E-4
-4.004705E-4
1.1381753E-4
-7.1236445E-4
1.4212834E-4
5.955165E-4
-6.3654076E-4
3.449815E-4
4.735321E-4
2.316206E-4
0.002628849
0.001412037
-0.0014302128
-2.4168573E-4
-6.067481E-4
-0.0036344167
-0.0036641029
-9.642976E-4
4.914176E-4
8.451463E-4
0.0020832357
0.0025311413
0.0017173265
0.0024813763
0.0038208142
0.0019302799
-9.2445227E-4
-0.0012954092
-0.0025486152
-0.0030816628
1.3011991E-4
1.9935617E-4
-0.0012463881
0.0011463233
7.828632E-4
-0.0024543481
-0.002341941
-2.936013E-4
5.7155376E-5
-0.0011558445
-1.7732066E-4
0.0026499664
0.0027591789
0.0011195055
5.69713E-4
6.8180676E-4
2.1068021E-4
-0.0014102123
-0.0025445926
-0.0021058072
-0.0014037126
-8.177345E-4
-2.817287E-4
8.1992865E-4
0.0025675164
0.0024210003
0.0015045821
0.0018006248
9.32467E-4
-2.0508873E-4
3.2711898E-5
7.278968E-5
-7.9739845E-4
-0.0020229893
-0.0014815389
3.6922294E-5
-7.837968E-5
-7.108848E-4
-0.0010202955
-9.096096E-4
-7.8356214E-4
-5.342931E-4
-2.5970594E-4
-0.002008568
-0.001966742
7.350882E-4
0.0012544682
0.0020814885
0.0010629582
-0.003457326
-0.0031839332
-0.0010396407
-0.0020457448
-0.0011560238
0.0013932512
0.0026718525
0.002923293
0.0038739515
0.004969023
0.002631619
0.0017289968
0.005004772
0.0048406264
0.001561494
-0.001562484
-0.0032896157
-0.0022163778
-0.0036517046
-0.004160857
1.4600073E-4
9.882712E-4
4.2982213E-4
-0.002059325
-0.0066913213
-8.0284086E-4
0.0030302731
-0.0061549577
-0.007781543
-6.1024615E-4
0.0021043832
0.0023205653
0.0016488115
1.18034295E-4
-1.8914661E-5
8.3731895E-4
8.108897E-4
1.18789845E-4
4.115655E-4
4.990425E-4
0.0010215017
0.0030467985
0.003486207
0.003298142
0.00397172
0.0020310343
-0.0010316578
-7.783494E-4
-3.394051E-4
-0.002007241
-0.002055308
-0.0019702574
-0.0028707408
-0.0014309474
-9.4278046E-5
1.7596815E-4
6.3177693E-4
-7.848175E-4
-0.001115759
0.0014755682
0.0029917408
0.0022230784
4.5732086E-4
-2.6082862E-4
1.1797242E-5
-0.0012798696
-0.0031519695
-0.0028421793
-4.911883E-4
0.0013694541
0.0020733566
0.002760925
0.0019607996
-6.6205466E-5
-0.0015386703
-0.0041249394
-0.0053280517
-0.0024707909
-8.3307957E-4
-0.001468938
1.8323579E-5
0.0032536318
0.003673613
-4.0622012E-4
-0.0020702304
9.981192E-4
0.0015955654
9.127305E-4
0.0022582547
0.0018026695
-7.2765615E-6
6.8751007E-4
0.002771485
0.0015923122
-9.502783E-4
-3.9981885E-5
3.5130972E-4
-0.0011024496
-0.0010722986
-0.001549276
-0.001719278
2.3792124E-4
6.0663465E-4
-6.599233E-4
3.105645E-4
0.0014859162
-1.2639668E-4
-0.0012646408
-8.124107E-4
8.4526626E-5
0.0016357106
0.0016380056
5.717693E-4
-1.9294224E-4
-0.0017459685
-0.002478025
-0.0016433859
-9.781178E-4
-0.001704953
-0.0014811619
0.0010496414
0.001019715
-4.2552984E-4
-4.7940284E-4
-0.0016825795
-0.0014074089
-3.306557E-5
7.1901355E-5
9.591653E-4
-8.529214E-5
-0.001786003
-6.147044E-5
0.0017819194
0.0022396622
0.0013373676
8.022446E-5
0.0017645367
0.0041195466
0.004398765
0.003708393
0.0026321576
0.0015131262
-4.490711E-4
-0.003080837
-0.003885896
-0.0027118844
-4.934086E-4
0.0018266544
0.0020428482
-3.0378875E-4
-0.0033909325
-0.004855268
-0.0039403625
-0.0020350723
-6.7028275E-4
-3.7269117E-4
3.753721E-4
0.0012486365
9.03035E-4
4.4980153E-4
-0.001870398
-0.0043665445
-0.0024253947
1.6144606E-4
0.0011516038
0.0012690409
8.0602756E-4
0.0026544638
0.0031885
0.0013397344
0.0018948119
0.0021999944
0.001583871
0.0015727702
8.833933E-4
0.0013184234
0.0020292064
0.0016663019
0.0017150142
4.7639626E-4
-0.0023594394
-0.003952835
-0.0037739861
-0.0026095354
-4.4131678E-4
0.0011642379
6.9710193E-4
-2.5379143E-4
-8.862438E-4
-9.783427E-4
-0.0010667541
-0.002780446
-0.0036913657
-0.0029545545
-0.0024084132
-2.2657559E-4
0.002938003
0.0031229216
9.872076E-4
9.192303E-4
0.0030764889
0.0030733678
3.571743E-4
-0.001310164
-5.129605E-4
9.4368144E-5
1.4440161E-4
0.0019511695
0.0028071473
9.5197494E-4
-4.0717042E-4
-1.8874666E-4
5.146627E-4
2.9226378E-4
1.4290336E-4
4.4105397E-4
-0.0012835048
-0.0030898775
-0.0032247794
-0.002148332
-2.982758E-4
-3.573392E-4
-3.7070774E-4
1.8566956E-4
-6.008431E-4
9.4486325E-4
0.0015608706
1.754359E-4
0.0011766702
-0.0015887354
-0.0028352074
0.0029846465
9.396618E-5
-0.0061515
-7.299485E-4
0.0021780115
-0.0027967254
-0.0031711773
-0.0020028222
-0.003242965
-6.5508543E-4
0.0030162972
0.0043163938
0.006706125
0.0064682444
0.002891076
0.0013386962
-6.3306105E-4
-0.0015512828
4.5622312E-4
2.0183694E-4
6.0420274E-4
0.0022959008
0.0010180393
-1.7528623E-4
-0.0014811412
-0.003441613
-0.0027215353
-7.6166703E-4
-3.9923965E-4
-0.0012935243
-9.864212E-5
0.002088311
0.0013785772
0.0015670345
0.0039367257
0.0038845225
1.6161133E-4
-0.005781443
-0.00957974
-0.008399459
-0.005119138
-0.003040169
-0.0024054952
-0.0017400963
-0.0015743821
-0.0016466305
-0.0013444681
-0.003120545
-0.0032352922
0.0021271356
0.005733271
0.004779796
0.0024123501
-0.0025751502
-0.006370508
-0.0044792113
-0.0012213349
0.00234305
0.0076845177
0.01007265
0.007802622
0.00661061
0.008976428
0.008592741
0.003709242
0.0015128863
6.8483496E-4
-0.00239787
-0.003852704
-0.007607323
-0.013979055
-0.01153531
-0.005792172
-0.0067971633
-0.0034304352
0.0057439017
0.008325128
0.009434145
0.013445328
0.012594914
0.007343338
-7.270975E-4
-0.009430178
-0.013529574
-0.015106037
-0.013759703
-0.008384993
-0.0055118077
-0.0094723925
-0.0146393785
-0.0111912675
-0.0016257593
0.008928411
0.020115985
0.022924412
0.018286819
0.017113741
0.01805363
0.017956283
0.014768154
0.0063075544
-1.9722263E-4
7.6209067E-4
0.0024095606
-3.5554558E-4
-0.007049589
-0.018231276
-0.029361965
-0.035439115
-0.033169847
-0.019124102
-0.0026190083
0.0035949326
-0.0011570543
-0.00520853
-0.0020875598
0.0043695667
0.0228456
0.038974185
0.026081456
0.0086763
0.0019182374
-0.0076183164
-0.0074906717
0.008922876
0.018517053
0.0067856144
-6.802052E-4
0.0061850217
0.008070568
0.019404668
0.0274632
0.013299192
0.017510124
0.04066108
0.0509732
0.025828574
-0.03452244
-0.08376036
-0.12431885
-0.15295838
-0.12790087
-0.08969542
-0.060469024
-0.015000602
0.024435649
0.05524778
0.097102754
0.13593328
0.14615418
0.12281573
0.06386283
-0.03600439
-0.13590057
-0.18986525
-0.17613648
-0.08354176
0.02500673
0.079329036
0.09346698
0.11286797
0.16359107
0.20736162
0.19227003
0.13381565
0.059251495
-0.009010845
-0.039257422
-0.034876235
-0.03087303
-0.057273217
-0.10323674
-0.121350266
-0.10506447
-0.0928292
-0.079273865
-0.04711488
-0.037595246
-0.056351375
-0.061485093
-0.07073024
-0.1070738
-0.1352868
-0.10251966
-0.011272535
0.05297742
0.07078756
0.08501058
0.07911301
0.07461031
0.076578565
0.03248628
-0.009598699
-0.0054601524
0.04158584
0.13397393
0.18649596
0.185909
0.21997456
0.23294552
0.1305298
-0.03663691
-0.16062705
-0.21541975
-0.24240886
-0.23773885
-0.16879192
-0.0546748
0.027986951
0.05057611
0.062100444
0.05473114
0.02647643
0.004050188
-0.06727568
-0.15288964
-0.13832465
-0.047674254
0.044680443
0.13148011
0.21034394
0.19908212
0.056921303
-0.09964896
-0.16420811
-0.124626026
-0.0873492
-0.14329587
-0.1488806
-0.051572252
0.042902358
0.14086348
0.16568083
0.06993882
-0.057936054
-0.19616885
-0.220888
-0.08987351
0.04365648
0.14309962
0.15697332
0.11224049
0.10636066
0.033122547
-0.049695622
-0.028295573
-0.022285895
-0.028719217
-0.0040069344
0.01942986
0.032803535
-0.010475928
-0.0801247
-0.1339296
-0.14963785
-0.06289941
0.03412714
0.031935442
2.4869692E-4
0.02980334
0.09151532
0.087655835
0.06302813
0.099310145
0.13969137
0.13394715
0.08341466
0.052476313
0.07746793
0.107348196
0.14068404
0.12037066
0.047122877
0.05567158
0.054400437
-0.04820051
-0.114389695
-0.14778964
-0.23664519
-0.3225386
-0.3452623
-0.33092913
-0.29494512
-0.20770451
-0.07931199
0.033871796
0.07559835
0.011435951
-0.09010055
-0.10257144
-0.022575734
0.066263646
0.14536878
0.18936722
0.14782088
0.09408854
0.10348519
0.13082527
0.15108386
0.16154294
0.15804864
0.16745628
0.1707382
0.14064741
0.094990656
0.03150289
-0.03492218
-0.051285796
-0.023388125
-0.0044260183
-0.0022462818
-0.006723826
-0.027722707
-0.056727197
-0.07408743
-0.0638516
-0.02956744
-0.013512768
-0.039291248
-0.07982533
-0.09526548
-0.07790645
-0.05096992
-0.028271146
-0.028447365
-0.05495237
-0.07487963
-0.08575542
-0.09322112
-0.082994916
-0.066186376
-0.055818457
-0.04751037
-0.029359361
0.0028758887
0.03423685
0.06321162
0.086495675
0.091731995
0.085396945
0.06876215
0.050289966
0.04787909
0.05011063
0.05014238
0.05723222
0.065872155
0.06906103
0.06752255
0.06424177
0.05625834
0.033289116
0.0041116015
-0.010364233
-0.01566587
-0.0275055
-0.043469865
-0.055605896
-0.054126747
-0.039723683
-0.028883979
-0.024152752
-0.020986909
-0.02030243
-0.018526653
-0.015788473
-0.014241576
-0.012125436
-0.007022119
-0.0049987873
-0.012640438
-0.014156961
-0.0014787351
0.0092692105
0.011217552
0.006872975
0.0038283146
0.009482114
0.012233757
-1.4027928E-4
-0.013528615
-0.009771427
-0.0040965565
-0.00909649
-0.0082644345
-0.0072536003
-0.01570575
-0.017921913
-0.017064136
-0.02390586
-0.03171706
-0.03581547
-0.033988714
-0.021116348
-6.9509615E-4
0.011600376
0.01430299
0.01960285
0.024305057
0.024598345
0.019036222
0.005706487
-4.9864546E-5
0.0067370846
0.018667012
0.03732225
0.052190658
0.05408545
0.047855195
0.037328843
0.03523462
0.042210743
0.036874868
0.018116897
-1.2867413E-5
-0.0151244635
-0.022772139
-0.017389998
-0.004172096
0.010065365
0.01694285
0.0137013905
0.007735608
-1.3505007E-4
-0.0063477345
-0.0022233576
0.0059654377
0.0060627405
-0.004376781
-0.017276784
-0.026344761
-0.03120769
-0.028387284
-0.022856697
-0.020552346
-0.015011366
-0.009674578
-0.014425149
-0.026601491
-0.038148034
-0.047780305
-0.05893735
-0.07276354
-0.088920176
-0.09482512
-0.084446914
-0.07755487
-0.07280698
-0.057072096
-0.042035155
-0.028218834
-0.009357109
0.0063073193
0.020835921
0.04584897
0.08229931
0.117643036
0.1417848
0.15904644
0.17202972
0.1736666
0.1698007
0.1748015
0.1903572
0.21600318
0.21770135
0.14476162
0.04497775
-0.0019848777
-0.01224831
-0.022352712
-0.023229014
-0.007857968
-0.027670998
-0.12423094
-0.21086943
-0.21316189
-0.2061514
-0.24580513
-0.27438474
-0.24817307
-0.2051824
-0.18268111
-0.16410099
-0.13403997
-0.098410554
-0.059531223
-0.018555706
0.01533477
0.03468149
0.04944719
0.06597118
0.08398407
0.1124941
0.14499447
0.16510028
0.16840369
0.16152719
0.15376338
0.13887829
0.116184555
0.09844863
0.08469112
0.069946945
0.053912222
0.039253045
0.028913602
0.017704766
0.003944254
-0.008816466
-0.020715969
-0.030213755
-0.03258572
-0.03355084
-0.04242165
-0.04976457
-0.04958748
-0.047179673
-0.0429176
-0.04373047
-0.04693452
-0.04428423
-0.043481253
-0.04379176
-0.040368114
-0.035023242
-0.030863628
-0.030985966
-0.028645804
-0.0230982
-0.016649969
-0.009815261
-0.014705637
-0.02369317
-0.01828777
-0.0052625025
0.005706584
0.014154618
0.021263175
0.025617953
0.02492995
0.024946447
0.027633224
0.02872888
0.026927594
0.02411955
0.025755817
0.030575937
0.03006141
0.023709077
0.020719448
0.020713927
0.0119467275
9.3191385E-4
-5.773891E-5
0.002442203
0.004648231
0.0063281283
0.0042547775
0.003301138
0.0055657392
0.0055532367
0.0027074318
0.0013270351
9.508885E-4
-0.0017293626
-0.004240966
-0.0034141964
-2.247438E-4
0.0037995684
0.0084610805
0.013111285
0.01435113
0.012216778
0.009496459
0.0075079952
0.0093669575
0.011286476
0.006961212
0.0025178557
0.0028842841
0.004106365
0.004534849
0.0042409576
0.0024439918
8.240561E-5
-0.0012858406
-0.0014060114
-0.0012979341
-0.0011791862
-4.0255004E-4
3.1992354E-4
4.0727528E-4
3.389874E-4
7.2323915E-4
6.34755E-4
-0.002628832
-0.005626166
-0.004017052
-0.0023962369
-0.0010814858
0.0022877331
0.0028963713
0.0015029132
0.0019684683
0.001793077
0.0017420367
0.0025637727
-0.0026297034
-0.009978226
-0.009172054
-0.007176681
-0.0064243693
-0.003415628
-0.005574032
-0.004036822
0.002720411
-0.0030138367
-0.0076752896
1.6824275E-4
0.0046861083
0.0031369992
3.4448277E-4
-2.8800574E-4
2.6867475E-4
-0.0022469058
-0.002575797
-0.0027169285
-0.004582206
-0.001284825
0.002005585
4.124497E-4
-0.0018050165
-0.0015885443
1.5363663E-4
4.051205E-4
0.0011667078
0.0021040223
0.0012380481
0.0015277783
0.0013670078
-3.3649284E-4
-0.0013726244
-0.0020189644
-0.0024987177
-0.0027571267
-0.0019777617
-0.0013924445
-7.6089264E-4
0.0022746
0.0034903928
0.0025583168
0.0030419524
0.0016718054
-0.0012995878
-0.003251361
-0.0050326237
-0.0050260206
-0.00395988
-0.0051045706
-0.006361332
-0.0059364657
-0.0062007266
-0.0068766195
-0.004831005
-5.0006196E-4
6.0538505E-4
-0.0014697253
-0.0010558278
-0.0011430349
-0.0020328842
0.0011599832
0.0024404994
0.0020516545
0.0053202542
0.0052023907
7.4686983E-4
-9.2493376E-4
8.972582E-4
0.0034516046
0.0050351033
0.004892655
0.0030929234
0.0022289304
4.4603043E-4
-0.0029955353
-0.0023378104
-0.0024004139
-0.0054855803
-0.005614043
-0.005769675
-0.004141126
-0.0010258663
-0.0029388326
-0.0036682168
-0.0018808983
-0.0017797349
1.2390058E-5
0.0014390108
-1.2619833E-4
-0.0014742657
-9.349178E-4
3.8796538E-4
6.148384E-4
6.9673697E-4
9.587806E-4
7.6654476E-5
1.2905037E-4
0.0020007745
0.003553448
0.0033418923
8.70514E-4
-0.0010770916
-6.7522476E-4
-0.0031217267
-0.007072653
-0.0048137736
-0.0021911543
-0.0035115024
-0.0018799616
-3.178646E-4
-0.0021276898
-0.0026336436
-0.0019690269
-7.0395594E-4
1.6030867E-4
-8.3178445E-4
-3.026157E-4
0.0026237823
0.005102363
0.0043272567
0.0014468982
-8.844695E-5
-0.002429091
-0.0038382062
5.549414E-4
0.0049617626
0.0047479426
0.003509015
0.003985471
0.004882291
0.0023806107
-0.0015813219
-0.004424154
-0.008722196
-0.009690656
-0.0055360873
-0.0028587666
-5.6684297E-4
5.754697E-4
-0.0019424288
-0.0036845782
-0.0037208768
-0.001555783
8.243391E-4
-1.9607863E-4
-1.4894037E-4
5.572237E-4
-2.0600566E-4
8.9649075E-5
5.2285905E-4
0.0016191112
0.001611285
1.3862438E-4
0.0010480334
0.001629004
0.002221595
0.0033290794
0.0014034541
-4.9028225E-4
-4.9417996E-4
4.496425E-4
8.1155257E-4
-4.698832E-4
-0.0013545118
-0.0030904845
-0.00393913
-0.0033302074
-0.0040209848
-0.0014587945
0.0015208633
6.752936E-4
0.0010654291
0.0014179578
9.191298E-4
0.0013765255
2.7047098E-4
-0.0013947936
-6.2287785E-4
3.6584694E-4
-0.001373469
-8.529692E-4
0.0012647946
-0.0013109351
-0.0015179031
0.0010780883
-6.945503E-4
-0.0019681763
-0.0011501424
-3.792927E-4
-4.8469083E-4
-0.001932435
-0.0014577475
-0.0021099073
-0.0040782946
-0.0015581296
0.002033855
0.0033180309
0.0025630654
7.6712825E-4
0.0021659248
0.004784444
0.0033234837
4.4003202E-4
-3.662599E-4
-6.927733E-4
-5.063703E-4
7.292052E-4
8.207826E-4
-2.3938029E-4
-8.3794835E-4
-8.625638E-4
-0.0011423742
-3.5274276E-4
-3.1270256E-4
-0.004415784
-0.003144776
0.0013674515
-0.005786503
-0.010471148
-0.0022612233
0.0021761819
1.7096948E-4
-4.8632539E-4
4.932286E-4
2.4802663E-4
-8.737338E-4
0.0017992683
0.004309999
0.0016603929
-8.381166E-4
-2.0076732E-4
6.2738825E-4
1.3842626E-4
-3.454045E-4
-8.105704E-4
-8.443906E-4
8.071744E-4
0.0020282648
0.001921458
0.0011732782
7.2994025E-4
8.919404E-4
-3.983016E-4
-0.0014071858
-3.947739E-4
6.364252E-4
6.07622E-4
6.667828E-4
0.0022104704
0.0024228673
0.0016724565
9.5353194E-4
-0.0014294137
2.3474424E-5
0.0020134652
-0.001083616
-0.002914622
-0.004507482
-0.004364288
-1.1816395E-4
8.229088E-4
-8.3813147E-4
-0.0029687227
-0.0031014972
-4.456136E-4
-0.0014623234
-0.002033285
-3.4797745E-4
-1.5247059E-5
5.5677426E-4
-0.0012782757
-0.0015639716
6.998563E-4
-5.922315E-4
-1.078804E-5
0.0017814174
7.3800964E-4
7.5160223E-4
0.00182881
0.0035054255
0.0025739893
-0.0013764919
-0.0017508573
-2.927296E-5
3.0495375E-4
1.1981846E-4
-3.416443E-4
-0.0010993817
-0.0018562902
-0.001633141
-9.6752425E-4
3.0243475E-4
0.0012740537
6.0346763E-4
0.0014066378
0.0016701695
2.909162E-4
3.5270426E-4
-0.0011259954
-0.0016653306
2.840349E-4
1.2285524E-4
8.928627E-4
0.0019314026
0.0015241421
0.0025475847
0.0019755943
3.110474E-4
-3.1264807E-4
-6.1902776E-4
6.0769805E-4
7.232284E-5
-0.0019031501
-0.0016290783
-0.0019451712
-0.0026302144
-0.0021343087
-0.0018292491
-0.0019263515
-0.0023213269
-0.0019454851
-0.0019726325
-0.0017528916
3.5987486E-4
1.6240292E-5
-8.7952084E-4
-9.558221E-5
-0.0013184514
-9.490353E-4
2.48123E-4
-1.8298998E-4
0.0011034174
1.5681701E-4
-8.284589E-4
0.0028203893
0.004641439
0.003524061
0.001569239
3.3023124E-4
0.0013293939
0.0018530607
0.0035033613
0.004754709
0.0021841535
-0.0012557877
-0.005094249
-0.0050328462
-0.0015304562
-0.00211344
-0.0018735345
4.333194E-4
8.8713755E-4
0.0024365813
0.0027844114
7.695531E-4
-2.8853494E-4
3.961056E-4
5.7229865E-4
-0.0028572066
-0.00449699
-0.0014524077
5.253832E-4
1.2023506E-4
-0.0013703357
-0.0013655756
7.300652E-4
0.0017266475
0.0014323477
2.745179E-4
-1.4944238E-4
-1.4993142E-4
-0.0021578427
-0.0034533644
-0.0028601272
-9.271493E-4
6.2116224E-4
-4.682721E-4
-5.712951E-4
-1.4703815E-4
-4.99374E-4
8.999184E-4
0.0010127187
6.411889E-4
0.0019547415
0.0013259688
-3.6998943E-5
-8.976887E-5
-1.7111866E-4
1.6948004E-4
0.0014249244
0.0015329691
1.3136888E-4
1.6846739E-4
2.8182776E-4
-2.5759183E-4
0.0012243093
0.0018812921
0.0010500271
0.0010891447
7.2811E-4
2.8669942E-4
-3.0120547E-4
-2.0035212E-4
0.0018185131
0.00231829
8.783872E-4
-0.0019404943
-0.005074998
-0.003484491
-0.0010535087
-9.883528E-4
0.0013276597
1.7560652E-4
-0.0033106196
2.8354995E-4
-8.773094E-4
-0.009320404
-0.007155059
8.910166E-4
0.0025755048
0.002073891
0.0023044597
0.0019254098
9.719447E-4
0.0015716057
0.0024313196
4.8671852E-4
2.5103183E-4
7.3687657E-4
-7.1992207E-4
0.00244656
0.0053693904
0.0018490285
7.4279413E-4
0.002372471
5.4288894E-4
-0.0012063019
-9.4846444E-4
-7.8513235E-4
-0.0011430167
-0.002798515
-0.0031000245
-7.733633E-4
4.520596E-6
1.2659235E-4
1.7100024E-4
-0.0012177649
-4.3919237E-5
0.001889663
0.0011600353
9.5303316E-4
8.931505E-4
-2.0766078E-4
-9.4922894E-4
-0.0012112621
-0.0010219114
-0.0010767656
-0.001187608
-7.1770477E-4
-9.300634E-4
-0.0012553534
-4.8599415E-4
-2.6480394E-4
8.30293E-5
0.0015108776
3.1700355E-4
-0.001469511
-3.7125766E-4
-0.0012483677
-0.0032256476
-0.0023017453
-8.8764046E-4
6.6843943E-4
0.0022082753
0.0024436668
0.0018826516
0.002128635
0.004467845
0.0050477744
0.0026446055
5.89217E-4
-0.0014265252
-0.0019425068
-1.8114063E-4
8.657849E-5
-0.0012422941
-0.0015540101
-0.0010531518
-0.0011021191
-3.9586256E-4
8.9504203E-4
4.925906E-4
4.670429E-4
1.9201454E-4
-0.002339813
-0.0020793686
5.08154E-4
-5.8661617E-4
-0.002212669
-4.0493032E-4
8.320345E-4
-7.4901065E-4
-0.0023819972
-0.0015106949
4.880245E-4
5.486043E-4
9.52268E-4
0.002711746
0.0022895532
0.001174203
0.0013779474
0.0013655255
-8.7857695E-4
-0.0039865286
-0.0031005086
-5.2466895E-4
8.187265E-4
0.0016748297
8.4921473E-4
0.0014938137
0.0019114108
1.7982328E-4
3.9048676E-4
-0.0018727999
-0.0028426626
0.0012894163
8.3960546E-4
-1.9974912E-4
0.0010795421
6.8885507E-4
0.001006311
-0.0015211762
-0.003257795
-0.0011968709
-0.0015639155
-8.7073917E-4
-4.915326E-4
-0.0017128144
-1.1802333E-4
-1.9407626E-4
4.151732E-4
0.0024971957
7.806216E-4
3.8676197E-4
9.0825965E-4
2.8603917E-4
0.0014000267
2.4283282E-4
-0.0012597821
9.070229E-4
0.0011247429
-5.330424E-4
1.4306132E-4
4.7493877E-4
-1.3990927E-4
-7.480519E-4
-0.0019403748
0.0011882841
0.0043903515
1.4348485E-4
-0.0014525381
-1.3105656E-4
-0.0022128692
5.5477198E-5
0.0023610569
-3.2251168E-4
-2.244155E-4
0.0011797772
0.0013014768
2.3247069E-4
-0.002837982
-0.0048937285
-0.004856452
-0.0013884004
0.0024538818
0.001886838
0.0021282902
0.003830563
0.0028167588
2.8954635E-4
-0.002109757
-0.002006594
-0.001424364
-0.0035490391
-0.0033222556
-7.894141E-5
3.478994E-4
-0.0012153541
-7.5651234E-4