-0.002082886
-0.0015351701
-0.001481516
-4.5749824E-4
9.299333E-4
-2.5488602E-4
4.7333486E-4
0.0029085784
0.0024088616
0.0013831799
0.002071344
0.002778542
0.001809082
-1.314552E-4
-0.0012878887
-0.0016017128
-0.0012734499
-3.651682E-4
6.058275E-4
0.0015303545
0.0020655214
0.001145309
2.651753E-4
6.0813996E-4
-2.2876227E-5
-5.251694E-5
1.9686793E-4
-9.3746145E-4
8.4836234E-4
0.0018225253
-2.0989732E-4
-1.7504625E-4
-0.0013706046
-9.713792E-4
0.0033295837
0.0044171996
0.0026297914
-0.0014787834
-0.0029619616
4.9799966E-4
3.0377577E-4
5.2616675E-4
6.9648615E-4
-0.0027259726
-7.538814E-4
-6.191454E-4
-0.005780529
-0.00479481
-7.0829416E-4
0.0014026982
8.3308376E-4
-9.658534E-4
-3.8066128E-4
2.0375215E-4
5.5417407E-4
-3.6443994E-4
-0.0033101463
-0.0030750989
-8.6138106E-4
-2.2654001E-4
-4.5487896E-4
2.5288487E-4
0.0016608365
0.0012767854
8.7971106E-4
0.0014587169
0.0017093939
0.0010483995
-5.4339925E-4
0.0010850526
0.0030890196
0.0016937382
0.0020332944
0.002663166
0.002548879
0.0023753257
-1.0936594E-4
4.2171136E-4
0.0034675081
0.0025903455
-0.0012245969
-0.0044315183
-0.0042537977
-0.0030867807
-0.0020487432
6.1530335E-4
0.0011673814
-7.029087E-4
-0.0025054296
-0.0030060462
-0.0013819402
-9.443656E-4
-0.0014604423
-6.977996E-4
7.763671E-5
-5.5714485E-5
-9.238526E-4
-4.2306763E-4
1.2721989E-4
2.9472122E-4
0.0025876544
0.0027107599
0.0016639262
0.0026403752
0.0021266567
0.0020601691
0.0016498996
7.0327165E-4
0.0020485322
-0.001422883
-0.006120059
-0.0039332453
-0.0019577914
-0.0013375909
-1.5666701E-4
-7.55251E-4
-3.4815908E-4
4.1391092E-4
-2.7731364E-4
-7.59514E-4
-0.0017862781
-0.002308628
-2.4661285E-4
0.0017910857
0.0016738062
0.0017552155
0.0012081482
-7.7221275E-4
4.1737515E-4
0.0019619875
6.3655E-4
0.0015873221
0.0031623768
0.0022790853
0.002122194
0.0037503669
0.0036969406
-6.7927365E-5
-0.0015236004
-6.7560386E-4
-0.0030575625
-0.0036281648
-0.0015133084
-3.9377614E-4
-3.4293416E-4
-0.0025748515
-0.0022860738
1.08944805E-4
-8.996162E-4
-0.0010235121
4.554335E-5
-6.1078655E-4
-0.0016560751
-0.00277052
-0.002716422
-8.565271E-4
0.0013833881
0.0010379885
-1.0599882E-4
0.0019242465
0.0023578308
9.702562E-4
0.0016808254
0.0023686527
0.0021802315
3.8674433E-4
1.4728525E-4
0.0019445632
2.8949152E-4
-1.4959047E-4
0.0010600964
-1.1249135E-4
4.3344413E-4
5.918193E-6
-0.002299043
-0.0020987007
-0.0016995321
-0.0016817763
-0.0011877336
-4.7822663E-4
9.466102E-5
-6.4639567E-4
-9.034557E-4
-4.32137E-5
5.75E-4
3.209162E-4
-8.716296E-4
-0.0013877061
-0.0014916704
-5.9194653E-4
0.0026488493
0.003744033
9.745355E-4
-2.8248769E-5
0.0021765584
0.0022030296
4.900182E-4
0.002046125
0.0026332163
-2.1021228E-4
-6.7862944E-4
-1.4952871E-4
-0.0013010183
-0.0014148602
-0.001020114
-7.0187234E-4
4.3528978E-4
7.8548683E-4
-7.542696E-4
-0.0028498871
-0.002454352
4.764072E-5
-8.464014E-5
-0.0023396113
-0.0022648415
-7.8893754E-5
4.989419E-4
-0.0020575519
-0.0032804525
2.669027E-5
0.0026531634
0.0010857064
-4.3992075E-4
5.1342003E-4
7.527283E-4
-7.1923765E-5
9.4682234E-4
0.0024831519
0.0026788116
0.0027938797
0.003289585
0.0022119067
-0.0010266955
-0.0014265195
0.0011084792
1.0673144E-4
-0.0016322567
-2.140142E-4
3.6099242E-4
-6.955101E-4
-5.621424E-4
0.0010264136
2.7502136E-4
-0.0018793166
7.7158744E-5
0.0014086952
-6.938979E-4
-0.0017402704
-0.00399761
-0.0038183397
0.0010133692
-3.6862743E-4
-0.0037621255
-3.103938E-4
0.001308362
8.760157E-7
0.0014727723
0.0025538893
0.0035444407
0.00445757
9.1740536E-4
-0.002728687
-0.0011139668
9.845907E-4
-3.8905384E-4
-0.0013763094
-5.979464E-4
-7.646342E-4
1.2917204E-4
0.0013982313
-7.4015296E-4
-0.002224645
-0.0010771977
-9.1538875E-4
-0.001702737
-0.0017222242
-1.7140903E-4
7.849703E-4
1.3826243E-4
4.204848E-6
-0.0014998311
-0.0026750236
2.2473958E-4
0.0032802748
0.0046688407
0.0048341514
0.0031848184
0.0016630208
0.0015865985
0.0026837399
0.0020417639
4.290922E-4
0.0015169566
9.159069E-4
-0.0015659186
-0.0024264664
-0.0040090485
-0.004290362
-0.0033318843
-0.0028852115
-8.8993827E-4
-7.785078E-4
-0.0014442195
-1.04939485E-4
-0.0013701649
-0.0028095709
-0.0015271311
-0.0012872402
-0.0012822587
5.13192E-4
0.0016647126
8.739561E-4
0.001160795
0.002433096
0.0027962334
0.0040692533
0.0038645365
0.0013784728
-2.624151E-4
-0.0022543755
-0.0014098418
0.0022684168
0.0017384953
4.228922E-4
0.001075267
-9.909557E-4
-0.0026184854
-9.859741E-4
-9.878986E-4
-0.0021814038
-0.001831505
-0.0023609553
-0.001237752
0.0023810114
0.0022578032
0.0010084637
0.0010806388
-7.724571E-4
-0.0015103354
-7.950807E-4
-1.1452136E-4
9.342831E-4
-4.7495305E-5
-8.6123886E-4
-4.207811E-4
2.0939796E-4
0.0024048518
0.0019385731
-7.872507E-4
2.2940076E-4
0.00212523
6.629369E-4
-0.00220119
-0.003126107
-0.0015737261
8.6431694E-4
0.0012626811
-0.0010040393
-7.7624666E-4
0.0014420636
0.0017332728
0.0017864577
3.9663466E-4
-0.0012210829
-1.16022566E-4
-6.1911426E-4
-0.0029561024
-0.0026860773
-5.372621E-5
5.9447705E-4
-0.0011732358
-6.4304E-4
4.3703965E-4
2.37128E-4
0.0014755798
0.002307498
0.0032758976
0.004346934
0.0024649776
7.9288887E-4
-2.735386E-4
-0.0018544819
-7.803816E-4
8.298834E-4
2.0296867E-4
-0.0013307522
-0.002163928
-9.185565E-4
-3.217645E-4
-0.0014222017
-0.0011739252
-0.001873442
-0.0033838395
-0.0025189565
-0.002061
-0.0018210857
-0.0013104407
-0.001663532
1.5232366E-4
0.0010817148
-2.3089894E-4
5.6943484E-4
0.0012124499
0.0024673264
0.0053163795
0.005734644
0.00497717
0.0034334734
0.0018995727
0.002705175
0.0028949857
0.0016345502
4.858647E-4
9.207132E-5
-7.11136E-4
-0.0031311605
-0.0035344737
-0.003273685
-0.0050586076
-0.0036134142
-6.1767024E-4
-0.002077773
-0.0036041925
-0.0023409221
-0.0026720534
-0.0021701811
4.282121E-4
-5.4879393E-4
-0.001477666
-6.2980724E-4
-0.0012979158
2.6947758E-4
0.0011001906
4.698623E-4
0.003086116
0.004445846
0.004679324
0.004662841
0.0035995848
0.0050414447
0.004725525
0.0019923511
5.1651325E-4
-3.5590486E-4
8.507229E-5
-0.0016200757
-0.0036846306
-0.003526978
-0.004299353
-0.0016800292
4.7811502E-4
-4.4858025E-4
7.7687285E-4
-0.0021083057
-0.0031374507
8.259626E-4
-0.0035352574
-0.0063487086
-9.82762E-4
7.7974785E-4
1.1392823E-4
-9.996158E-4
-0.0013139874
0.0018395333
0.0025036775
0.0021462587
0.0038709408
0.002464206
2.7205027E-4
1.3691248E-4
3.464186E-4
0.0031872801
0.004178542
1.2396454E-4
-1.0591954E-4
0.001997515
4.120631E-4
-3.6201518E-4
-9.097557E-4
-0.0023269155
-0.0016726204
-0.0011344226
-7.676756E-4
-2.4622443E-4
-9.27668E-4
-0.0012370877
-0.0015370237
-0.0020649515
-0.002060633
-0.0014783951
-4.529349E-4
-4.084559E-4
1.78871E-4
3.4447596E-4
-0.0025961453
-0.0028279594
9.461522E-5
-9.482532E-5
-3.050051E-4
0.001848448
0.0028206334
0.0025315108
0.001301982
8.521486E-4
0.0033288568
0.0036542083
6.307612E-4
3.3353822E-4
0.002617336
0.002949206
-5.5799616E-4
-0.0025101784
0.002004874
0.004410757
0.0011542032
-0.001320389
-0.004114926
-0.005168377
-0.0015998024
-7.0220616E-4
-0.0022955386
-0.0014324143
-0.0014307242
-0.0020686956
2.5586504E-4
0.00175768
-6.391875E-5
-0.0010661383
3.006717E-4
7.000588E-4
-0.0015879043
-0.0022229669
8.6391265E-5
1.5843331E-4
-5.477443E-4
-5.404942E-5
-0.0010581524
-0.001480995
-9.451346E-4
2.236877E-4
0.0028376018
0.0029703877
0.0015717454
0.0010643739
-2.4021823E-4
-7.9997367E-4
-9.0661476E-4
-7.9376256E-4
0.0014576005
0.0027899137
0.0024691888
0.002464381
0.0012836335
2.488468E-4
7.709998E-4
2.1753936E-4
-8.643197E-4
-9.454874E-4
-1.4035444E-4
0.0025402107
0.0036872453
0.0018215177
0.001319645
-5.6439472E-5
-0.003440168
-0.0049170796
-0.0052825497
-0.0048116306
-0.004704732
-0.0047375113
-0.001240673
0.0012868743
0.0016523364
0.0034666224
0.0034400427
0.0022090012
0.0010791996
2.4190299E-4
0.0020937556
0.0017649585
-5.355896E-4
-7.841264E-4
-0.002007773
-0.001230473
0.0019222694
0.0018681869
7.689914E-4
8.667878E-4
0.0015136845
6.720685E-4
-0.0017119225
-0.0017454491
-0.0015417392
-0.002059776
-0.0021459623
-0.003679745
-0.0026376522
1.7727056E-4
2.1745106E-4
8.493471E-5
-2.0286422E-4
-2.8214295E-4
-2.6195397E-4
-0.0018822515
-0.0017595022
-7.796634E-5
0.002246291
0.0044832295
0.0036062712
0.0033667157
0.0033755894
9.766301E-4
0.0013077498
0.0021977623
-9.145125E-5
-6.3131563E-4
4.5939654E-4
-6.388755E-4
-0.0015296827
-2.2084557E-4
9.966623E-4
0.001013558
4.0922212E-4
0.0011914823
0.0021744852
-2.2512481E-4
-0.0020088484
-0.002326675
-0.004162473
-0.0034964848
-0.001531125
-3.323741E-4
0.0010488683
-3.7095344E-4
-0.0012998804
-0.0011604276
-0.0030488812
-0.0021504194
1.6436557E-4
-4.6575096E-5
-7.265674E-4
-0.0010929402
-5.3774193E-4
1.9594157E-4
9.761299E-4
0.0028470263
0.0039004853
0.002213115
-0.0010184287
-8.768631E-4
0.0014477468
9.852425E-4
-1.6818235E-4
-0.0013733779
-5.8390153E-5
0.0035031873
0.0014091418
-2.567183E-4
3.9973302E-4
-0.0030899742
-4.8773322E-4
0.0038439794
-0.0015112932
-0.0024979413
0.0021043124
0.0019206175
0.0011314641
-3.8097656E-5
-2.9090635E-4
0.0019157
-1.627319E-4
-0.002426081
-0.0016123315
-0.0028855756
-0.003351301
-0.0019522245
1.9627933E-4
0.0038659512
0.004945451
0.0034192575
0.0014566731
-8.574601E-4
-0.0011056397
-4.670244E-4
-0.0013789126
-0.0025385325
-0.0021793037
-7.050141E-4
-1.9373163E-5
5.141443E-4
5.8270025E-4
-5.964486E-5
3.459884E-5
-0.0012853314
-0.002672253
-0.0019917611
-0.0016018627
-0.0011129655
-4.707213E-4
5.555853E-4
9.6759445E-4
-2.5554682E-4
0.0016160815
0.0032560248
9.776091E-4
-5.224572E-4
-0.0017800035
-0.0015012969
1.745118E-4
5.7481875E-4
0.002152341
0.002096554
0.0026083104
0.0053295637
0.0029984554
0.0016942783
0.0028017762
-0.0018586545
-0.005639592
-0.0053805984
-0.0048434646
-0.0016343321
0.001063585
-0.0011121364
-0.0021598923
5.307033E-4
7.0640945E-4
-2.5367722E-6
0.0016948917
8.2515605E-4
-9.195774E-4
-3.9344624E-4
-5.133348E-4
1.50151E-4
0.0018670624
0.0011470008
-1.921407E-4
0.0013355138
0.0033327406
0.0032041473
0.0010849978
-0.0022992992
-0.0013517889
0.002484966
0.0015165368
-1.26415525E-5
9.476807E-4
0.002920738
0.0041062953
-0.0010865466
-0.0050141923
-0.001117457
0.00134164
4.408237E-4
-6.322132E-4
-0.0017372367
-0.002818177
-0.005621072
-0.008349862
-0.0067171403
-0.002110242
-0.0014370526
-0.0031459522
-0.0010788338
-1.1739052E-4
-1.5121249E-4
0.0015894382
2.1717991E-4
-1.1530218E-4
0.0019150615
0.0012194662
0.0012884579
0.0024821348
0.0029426413
0.0047323126
0.0073421444
0.008959523
0.008256046
0.006585844
0.005079452
0.0024287545
-9.847117E-5
-0.0018963799
-0.0038488775
-0.005263645
-0.0061303773
-0.005493879
-0.0021201302
-1.1482194E-5
-0.0018032396
-0.0027941056
-0.002929052
-0.005633506
-0.0076689892
-0.007077947
-0.0039381706
6.4501824E-4
0.0019386763
0.0015585902
0.003347207
0.0054065613
0.0061733904
0.005520542
0.0047570653
0.0036711867
-1.0153619E-4
-0.003996127
-0.0043786806
-0.0018321321
9.901135E-4
0.0022122026
0.0031057035
0.0028647238
-0.0011061822
-0.0040568523
-0.0027803269
-0.00299815
-0.0045265914
-0.0042083547
-0.0043713823
-0.0021857433
0.0030625248
0.005621042
0.0051093544
0.0032490478
0.002380066
0.0025614507
0.0017325107
0.0029960328
0.0043334016
0.0031597572
0.001963963
-0.0014365269
-0.0040930533
-0.003688014
-0.0037195836
-0.0011390065
0.0012716493
2.0538969E-4
9.343564E-4
6.473736E-4
-0.0013913822
-1.551727E-5
0.0013393187
3.8357585E-4
-1.0515119E-4
5.5937073E-4
0.0016622783
8.500405E-4
-0.0012299235
-0.0017668083
-0.0047798445
-0.0089384075
-0.005497731
-0.0015367592
-0.004914968
-0.006385973
-0.0035543256
-0.0012740899
0.0025691588
0.0075572045
0.0076821265
0.0029905497
7.911195E-4
0.0017387614
0.0020735257
5.103032E-4
-0.003928195
-0.005107844
8.8370097E-4
0.008603953
0.012595802
0.009715446
0.005132363
0.002255417
7.366782E-4
0.0030595711
0.0029857557
0.004151151
0.011093177
0.010786075
0.0059134746
-0.0011547727
-0.016071083
-0.027519528
-0.030688796
-0.026666543
-0.0181763
-0.014331162
-0.011176027
-0.004730589
0.0018904033
0.0057168063
0.0047240304
0.0046559134
0.003506656
-0.0017397052
-8.953893E-4
0.005526816
0.006274728
8.5058715E-4
-0.0011170171
0.0025724128
0.004948653
0.0057809227
0.007628013
0.010815413
0.015470427
0.018588463
0.018780606
0.015497699
0.008737502
0.0017991919
-0.0033777005
-0.007133818
-0.01335842
-0.021469876
-0.021864217
-0.015138895
-0.011239681
-0.0073491526
0.004264818
0.016401097
0.018821418
0.012328762
0.0019122906
-0.0036656242
-0.0016897663
-0.003160629
-0.009977765
-0.017013598
-0.02394805
-0.0269175
-0.026770597
-0.02307944
-0.01590027
-0.019816874
-0.029921088
-0.027450511
-0.013722435
0.008618335
0.035420146
0.0587228
0.07613139
0.083293796
0.08673489
0.09225857
0.087425485
0.0728226
0.0556865
0.024501974
-0.015907524
-0.047492467
-0.07799073
-0.10274252
-0.10263453
-0.08757469
-0.068455085
-0.046882328
-0.0195067
0.012410703
0.03330457
0.050484084
0.059352238
0.046395246
0.028127467
0.0024486433
-0.02335476
-0.046127167
-0.07641166
-0.07124812
-0.024026114
0.026978778
0.054495186
0.039330896
0.035012502
0.060851246
0.043193925
-0.03386679
-0.11356472
-0.15153843
-0.17128885
-0.19363992
-0.19207159
-0.15764484
-0.08294002
0.010510918
0.1000547
0.18713859
0.22539766
0.22234468
0.2062758
0.15076181
0.094995156
0.07709787
0.09776085
0.16428702
0.23845397
0.29229197
0.31882936
0.2877838
0.16762249
-0.03376928
-0.23530163
-0.3558917
-0.3943998
-0.41357663
-0.42945728
-0.36796853
-0.23227367
-0.11183997
-0.039890483
-0.002457037
0.020505646
0.009532769
-0.061255846
-0.12651803
-0.1143979
-0.040585298
0.05185415
0.124405995
0.12654716
0.07326873
0.05990681
0.11894408
0.20937476
0.27283657
0.2674355
0.25050294
0.23803142
0.14561723
0.017447678
-0.062342703
-0.122610435
-0.15415047
-0.12124795
-0.06710783
-0.044975568
-0.04267324
-0.020174963
-0.007817913
-0.052266985
-0.08430392
-0.027467804
0.035022836
0.019612513
0.014139089
0.04171108
0.01345583
-0.0052786474
0.033023994
0.02372353
-0.03193589
-0.06543076
-0.09482988
-0.15078136
-0.1877483
-0.13998258
-0.048972618
0.032474782
0.11401885
0.15138581
0.11146446
0.06656727
0.05429385
3.9352247E-4
-0.042177543
0.055017613
0.12346738
0.008115231
-0.13394323
-0.17868502
-0.10305072
0.031872395
0.09455217
0.09516365
0.0693925
0.009013926
-0.036447734
-0.04153465
-0.028039273
-0.038842306
-0.056074765
-0.012545319
0.041235868
0.05275204
0.05768095
0.036565457
-0.029314827
-0.08212059
-0.07766529
-0.02992489
0.017477939
0.054862298
0.10509788
0.15058173
0.15734515
0.10907895
0.028909517
-0.008142331
-0.03136657
-0.10507342
-0.11949792
-0.051285222
-0.04143442
-0.07979393
-0.0817366
-0.05594165
-0.023420116
0.008133936
0.034232542
0.057815902
0.06379439
0.028529407
-0.022543607
-0.04354991
-0.041148104
-0.02900988
-0.014083369
-0.0160547
-0.018306222
-0.0039213724
0.013246483
0.028085109
0.037812315
0.040864345
0.038035862
0.0288589
0.021003744
0.014735193
0.0071581206
0.0026916969
-8.312324E-4
-0.0063840384
-0.012005515
-0.015557126
-0.013541123
-0.00997834
-0.010256521
-0.008170427
-0.0018892852
0.0031073976
0.0076339063
0.01154676
0.012570628
0.012700964
0.011400956
0.0066786106
0.0027715552
0.002856346
0.002638303
8.27543E-4
-0.0027135469
-0.010428643
-0.015225086
-0.014733057
-0.015468923
-0.015489686
-0.015041788
-0.013850968
-0.009897655
-0.010591958
-0.012606125
-0.009279838
-0.00599631
-0.004522787
-0.006934428
-0.013109652
-0.017312175
-0.017979277
-0.012112842
-0.002350911
0.0055714455
0.014284037
0.02127226
0.02443413
0.03058847
0.038147222
0.036054414
0.0239514
0.016801236
0.020856848
0.024864145
0.021524156
0.016357664
0.014235606
0.006433805
-0.012302647
-0.02544467
-0.024608605
-0.020627262
-0.01874898
-0.021150788
-0.024689054
-0.022196975
-0.019594552
-0.018979067
-0.014717842
-0.012016754
-0.01513534
-0.014737749
-0.0017868339
0.01690608
0.03064977
0.03404719
0.023785185
0.009675823
-4.8737254E-4
-0.010007712
-0.014382382
-0.013961059
-0.012912631
-0.005427468
0.011671012
0.027061425
0.021376524
0.0030986087
-0.0072470433
-0.01738303
-0.028073924
-0.030395385
-0.026606044
-0.018248044
-0.012275338
-0.0061229724
0.0053181527
0.012923288
0.022702409
0.037371427
0.04622073
0.04998883
0.045784775
0.033002272
0.018504648
0.0027092418
-0.0065784017
-0.0016707885
0.007993168
0.012107389
0.0087355515
-0.0024857663
-0.014841212
-0.025587756
-0.044911228
-0.05890041
-0.050286572
-0.039219838
-0.033903234
-0.026859287
-0.024508502
-0.02250683
-0.015657498
-0.009420626
-0.0043776757
6.742536E-4
0.0066939495
0.011231688
0.0141354045
0.019526005
0.02498442
0.028978072
0.031112686
0.031477597
0.03247187
0.029843895
0.023093442
0.017697245
0.013761271
0.0099009555
0.0050349114
-0.0018786053
-0.009729164
-0.012504621
-0.009919862
-0.012713277
-0.016874008
-0.0136396
-0.012284127
-0.014534903
-0.011955468
-0.0060525048
-0.003741007
-0.0056326943
-0.0047608283
-0.0017115473
-9.609464E-4
0.0011167271
0.0033143589
0.001734224
-0.0017187007
-0.0042590545
-0.003751406
-0.0033050186
-0.005117544
-0.004202896
-0.0013102451
-8.6715573E-4
-3.2275406E-4
0.0015057166
0.0023251332
0.003890511
0.005845584
0.0049509928
0.002759043
0.0014585301
0.0016148309
0.0019308536
5.228717E-4
-5.6031175E-5
5.1887694E-4
4.5303302E-4
-2.0349173E-4
-0.0014379277
7.287939E-4
0.0033153968
-1.3070584E-4
-0.0021456433
-8.158532E-4
-0.0022160707
-0.002991715
-0.0024880483
-0.0032617135
-0.002507028
-0.0010519163
-0.002199399
-0.0034560193
-0.0016842504
6.795346E-4
0.0011424611
0.00124975
0.001982667
0.0022089484
0.0010918839
-6.108831E-5
7.4934965E-4
3.9560374E-4
-0.0045841276
-0.008841372
-0.008059026
-0.005589686
-0.003097449
-7.178849E-4
3.0758456E-4
9.517236E-4
0.0013690557
3.2076432E-4
-7.3301425E-4
-2.5923923E-4
-8.2945066E-5
-6.6082366E-4
-5.282417E-4
-6.4699474E-4
-7.594156E-5
0.0012314545
-1.8855676E-4
-0.0012523833
7.317425E-4
0.0013739725
0.0012955342
0.0025822613
3.8021375E-4
-0.005322971
-0.006594767
-0.0035738344
-0.0011134468
0.0012456302
7.731046E-4
-0.0021899359
-0.0018849629
-5.7420664E-4
-6.412444E-4
-0.0010628672
-0.0020229255
-0.0019283503
-0.001442833
-0.0018100954
-0.002414174
-0.001958519
7.301693E-4
0.0024526843
0.0021415872
0.0025071441
0.0038726348
0.0034008878
-9.695297E-4
-0.0025857342
-8.653882E-5
2.1499269E-4
8.1151305E-4
-1.9622249E-4
-0.0030513613
-0.0010084483
-3.8476262E-4
-0.0021504844
-4.883304E-4
6.859868E-4
0.0024976511
0.0046759634
0.0032875633
0.0033755696
0.005287683
0.0031610357
-0.0015823347
-0.0044304724
-0.0048721097
-0.0034383682
-0.0018713878
-3.458887E-4
0.004420144
0.005507257
1.7085898E-4
2.814526E-4
0.001927718
-0.0014314294
-0.0031736782
-0.003558744
-8.238675E-4
0.0039648386
0.0037348687
0.0028551975
0.0015294718
-0.0019152273
-0.002936279
-0.0041774535
-0.005337842
-0.003946133
-0.0022079009
-3.5827333E-4
5.4312404E-4
0.0015575084
0.0028812357
0.0015039156
-6.839136E-4
-0.0020013761
-0.0019375418
-7.5854216E-4
-0.0017842855
-0.003081273
-3.1461837E-4
0.0034641547
0.0026773694
4.4423543E-4
0.002114413
0.003419787
0.0025355753
0.0034218153
0.0044164476
0.0038901505
0.0034205343
0.0026516097
6.509649E-4
-6.297738E-4
3.7930577E-4
1.9485892E-4
-0.0010805482
-4.442283E-5
2.1380749E-4
-6.317114E-4
0.0012639236
0.0020404123
-0.0015465663
-0.003828467
-0.0031419909
-0.0032440738
-0.0020238745
3.8194197E-4
1.22448755E-5
3.0203754E-4
0.0023834242
0.0021211584
5.060621E-4
-3.0657768E-4
-0.0011594798
-0.0034807734
-0.004273226
-0.0014831072
-9.0440316E-4
-6.208282E-4
0.002538072
0.0015967292
0.0011258759
0.004207296
0.0012831929
-0.0030104697
-0.002311323
-4.0572303E-4
0.0014816392
9.84766E-4
-3.154569E-4
0.0011848616
0.0027413927
0.003055751
0.002498226
0.0030875308
0.0038861334
1.5577457E-4
-0.0035899656
-0.0027021386
2.8579382E-4
0.0024031387
0.0011120252
-3.5635394E-4
9.829197E-4
0.0019017655
5.7012215E-4
-0.0017683331
-0.0023069277
-0.0011732916
-8.8565337E-4
-6.6800934E-4
3.0820433E-4
1.6928517E-4
-7.5771E-4
9.988857E-4
0.0026598398
0.0011961912
8.302529E-4
3.6344898E-4
-0.0013750243
-0.00225619
-0.002826643
1.7014863E-5
0.0030852023
0.001959479
0.0012782622
4.9077574E-4
-0.0010546239
-0.0017339556
-0.0014833832
6.765141E-4
0.0010103643
-3.6252005E-4
-0.0012905936
-0.001918268
-2.0290508E-4
-8.637147E-4
-0.0022217082
4.0953394E-4
3.602655E-4
6.905971E-4
0.0029605748
0.0016385008
0.0013392095
7.539075E-4
-8.1399985E-4
0.0015499903
0.0030158306
0.0029099947
0.00301376
0.0012106565
3.0724725E-4
-8.547904E-4
-0.0034836824
-0.002509768
8.3787896E-4
0.0016017547
3.9962505E-4
1.2867748E-4
0.0012154194
0.0022005697
0.0015552978
-2.4506412E-4
-7.3649007E-4
-9.779398E-4
-0.0025016374
-0.0028891216
-0.0023013381
-0.0014000849
2.1130081E-4
3.5616916E-4
2.4254921E-4
0.0012648454
6.4723747E-4
-5.355023E-4
1.8919519E-6
1.8515837E-4
-6.858456E-4
-9.750049E-4
-0.0015180787
-0.002149527
-8.036743E-4
9.618229E-4
0.0020158768
0.0019248725
-3.469674E-4
-0.0014725348
-2.0544477E-4
0.0018347462
0.0027869726
3.0079237E-4
-9.3094347E-4
0.0013242814
0.0025598304
0.0023955386
0.0022854873
0.0035776573
0.0030612971
2.5775543E-4
0.0013667505
0.0013088225
-0.0015022265
-0.0011091232
-0.0017261006
-0.0019506594
4.9260654E-4
7.570002E-4
-5.065019E-4
-0.0021742252
-0.0024352223
-0.001998468
-0.0028926467
-0.0011843428
-2.5245E-5
-0.0018314032
-0.0017835228
-5.4434314E-4
5.5859645E-4
-2.0677331E-4
-0.0025297236
-0.0011375365
0.002111256
0.002106202
-3.6410318E-5
-1.2428663E-4
0.0013742435
0.0017443585
0.002744165
0.0032823156
0.0025934938
0.0020977715
-0.0012017633
-0.0035034958
-6.636397E-4
0.0018665423
0.0022195377
0.0012390591
3.8114094E-4
0.0013900844
7.020088E-4
-0.0011157735
-6.2331377E-4
-3.9807273E-4
-7.009547E-4
-2.1623135E-4
-6.962872E-4
-8.047248E-4
-4.147003E-4
-6.475106E-4
0.0012362436
0.0019965644
-2.9422602E-4
2.7834714E-4
0.0014915329
3.741062E-4
-0.001030768
-0.0032308153
-0.0033795217
-0.0026520041
-0.0036503575
-0.0012727567
0.0023047614
0.0024714433
0.0017264709
0.0015013121
0.0015257993
8.4196805E-4
3.3794695E-5
-6.143094E-4
-0.0012270208
8.352971E-4
0.002062151
-8.950921E-5
-6.896254E-4
4.8424172E-5
0.0010193841
0.0021942463
0.0013778243
8.6890603E-4
5.7988113E-4
-0.0015059464
-0.0014328044
-4.455583E-4
-0.0015762204
-1.8342999E-4
9.542117E-4
-0.0013233714
0.0014701112
0.0035458049
-0.004148607
-0.007082722
-3.8970416E-4
0.0029914116
0.002215787
0.0014247091
0.0010307499
0.0015631999
3.4728035E-4
-0.002023068
-0.0018687404
-7.458271E-4
1.13932234E-4
0.001715734
0.0026341157
0.0020957505
5.533234E-4
-0.0014127583
-0.0017622999
-0.0010023179
-5.34305E-4
0.001175021
0.0022625932
4.1208943E-4
-0.0014169479
-0.00183636
-0.0012009788
2.8544106E-4
4.1148748E-4
-4.1521672E-4
-2.5540637E-4
6.7568464E-5
1.647414E-4
4.9684575E-4
9.948073E-4
0.0017878584
0.0019809422
6.3069633E-6
-0.0021091576
-8.224375E-4
4.284996E-4
-6.944327E-4
7.976301E-4
0.0019349175
-2.708104E-4
2.7053957E-4
7.3891174E-4
-7.2806724E-4
2.843822E-4
-6.5332477E-4
-0.0022678114
-2.9001228E-4
6.3857407E-4
0.0014539514
0.001937027
-0.0010650223
-0.00211328
-0.0011031802
-0.002361354
-0.0024719734
-8.632523E-4
-3.8803133E-4
6.4306706E-4
0.0016862841
0.0011386595
8.5962645E-4
4.885727E-4
7.138414E-4
0.0016869416
-1.3102546E-4
-0.0010617068
9.389719E-4
-2.908143E-4
-0.0026493727
-7.168905E-4
0.0025901683
0.003149744
0.0015121935
5.843244E-4
8.872129E-4
3.445467E-4
-6.134034E-4
3.0542217E-4
8.100393E-4
3.661963E-5
9.9957135E-5
-0.0019598713
-0.003130348
-5.958873E-4
-0.001052625
-0.0011543529
9.938001E-4
-1.2325725E-4
-4.9810327E-4
3.112868E-4
7.6340407E-4
0.0020137841
9.413404E-4
-6.101643E-4
-0.0017724616
-0.0019616082
0.001692135
0.0033959993
0.0020735704
0.0014085443
-7.812698E-4
-0.0030669475
-0.0024199055
-2.0225419E-4
4.894091E-4
-6.3890684E-4
-5.8530347E-4
8.5851917E-4
0.0018817064
0.0014209064
2.6223576E-4
-4.6268364E-5
-2.9683727E-4
-8.189724E-4
-0.001040523
-6.124062E-4
-6.0560054E-4
-7.343811E-4
0.0012136315
0.0010527747
-0.0017051572
-8.044425E-4
0.0011835423
6.5082306E-4
-5.5820186E-4
-0.0010272661
-2.9394362E-4
5.286193E-4
8.4833376E-4
4.5824857E-4
4.213912E-4
9.42303E-4
-4.8855494E-4
-0.0013984978
-5.383714E-4
-3.7647574E-4
4.1613937E-4
0.0016298996
0.0015160345
-2.0439501E-4
-0.0011350162
0.0013384824
0.0029321662
0.0011629995
-1.7217464E-4
0.0014876829
0.0031933058
4.3528582E-4
-0.0017158771
-8.5794984E-4
-0.0021684682
-0.0019127498
2.4459264E-4
1.2881166E-4
3.5599896E-5
-0.0014926901
-0.002724502
-3.6411462E-4
4.0290816E-4
-5.0069916E-4
-6.248604E-4
-0.0010154104
-0.0010082646
-0.0010002345
-3.0486306E-4
8.281635E-4
4.5120376E-4
2.751725E-4
3.9725317E-4
1.4587172E-6
-3.930411E-4
-4.5887844E-4
5.0777855E-4
3.4636047E-4
-7.235221E-5
0.0011145794
8.042045E-4
5.340565E-4
4.487384E-4
-9.231322E-4
6.118697E-4
0.0017993813
-5.0267973E-4
-8.404538E-4
7.999643E-4
0.0014639101
0.0012875845
0.0010462705
9.6315437E-4
9.79515E-4
9.851697E-4
-0.0012009349
-0.0038377629
-0.0023057025
0.0010868942
0.0026347458
0.0019023166
5.451464E-4
0.0026580694
0.0064822966
0.0043786657
-0.0010908971
-0.003238872
-0.0068790372
-0.010025118
-0.0051914738
-6.218906E-4
-2.3010523E-4
4.315033E-4
-4.4923753E-4
-0.0010201795
1.5194822E-4
3.482701E-4
4.8274364E-5
6.5694534E-5
2.238936E-4
-4.0646042E-5
0.0010283336
0.0025564185
0.001407243
0.0010791519
9.91247E-4
-1.2894244E-4
0.0016535536
0.0027773976
0.0015355698
8.3422614E-4
-5.7073838E-5
-3.0589677E-4
-1.9536175E-4
-1.1718917E-4
7.3004526E-4
9.60678E-4
9.0335135E-4
8.3020655E-4
9.896649E-4
9.699136E-4
-6.4728374E-4
-8.216158E-4
-4.7135682E-4
-0.002673673
-0.0030456036
-0.0014571178
-0.001462631
-0.0018736329
-0.0012064087
7.703264E-4
0.00102582
1.4252696E-4
0.0019210738
9.772524E-4
-0.0016214114
-0.0017874073
-0.005995163
-0.007111533
-1.7502904E-4
0.0023391235
0.0016440538
0.0015802052
3.1937976E-4
0.0017430567
0.0021966167
7.411127E-4
0.0019417141
0.0024885011
0.0018485415
0.0023635242
0.004617234
0.0067045805
0.0045894408
0.0017357024
0.0012053504
8.3010105E-5
-9.338261E-4
-0.00126857
-0.0022202372
-0.0030407372
-0.0031848445
-0.0028145008
-0.0024047578
-0.0021810255
-0.0012883889
-0.0010073928
-0.003120989
-0.0045326236
-0.004379289
-0.0044480297
-0.001476092
0.0014703713
-3.6299243E-4
-5.072868E-4
0.0010935708
-1.5792341E-4
-6.8171474E-4
3.3491512E-4
0.0023655603
0.0048652114
0.0034662802
9.590573E-6
-4.4886145E-4
0.0014643111
0.003091248
0.00310123
0.0025632149
0.0024534345
0.001356158
1.4750249E-4