0.0011333528
3.482363E-4
5.4904766E-4
6.997967E-4
-2.9744787E-4
1.4839509E-4
-9.297752E-4
-0.0024847277
-0.0012232683
-0.0015870708
-0.0027179122
-0.0016504446
-0.0015751162
-0.0023014774
-0.001534714
-0.0012597386
-0.002375464
-0.002440283
-0.001241886
-1.7336856E-4
6.241625E-4
0.0022366247
0.004757213
0.0051013576
0.0030941383
0.0021098908
0.0028187684
0.0021962598
-0.001207909
-0.0022460774
-8.697255E-4
-0.0014437524
-5.413279E-5
0.0028534525
0.0033983532
0.0036392524
0.0034345372
0.0025851342
0.0013833813
-2.2424516E-4
-7.8551256E-4
-0.0013136901
-0.0026613686
-0.0044915862
-0.005127934
-0.0039518224
-0.002877248
-0.0013394866
-0.0013973655
-0.0020362535
0.0012369844
0.0025950265
2.171383E-4
-9.251573E-4
-0.0017988044
-0.002545102
-0.002991274
-0.0028217856
-7.554437E-4
4.1191626E-4
-7.184616E-6
5.2043755E-4
0.002467791
0.0041066958
0.004035833
0.0034131277
0.0026746658
0.0018615617
0.0029705896
0.004410289
0.0025724822
4.4075513E-4
0.0012265971
0.0015786795
7.386504E-4
-8.992461E-4
-0.0031792882
-0.0016790231
-3.1235628E-4
-0.0030549213
-0.0025516758
-2.4375459E-4
-0.0017755831
-0.0031413767
-0.0014635298
3.493143E-5
-0.0012118908
-0.0014624076
-7.9349E-4
-0.002027053
-9.04707E-4
-5.1056006E-4
-0.0025031518
-5.041276E-4
0.0013141714
0.0017770727
0.0031453858
0.001967278
7.144585E-4
-2.289673E-4
-1.2509765E-4
0.0024857044
0.0016792758
0.001222478
0.0038504214
0.0020631033
-0.001314782
-0.0011674467
4.4911692E-4
3.6223003E-4
-0.0017414056
-0.0023337083
-0.0023546137
-0.0029944459
-0.0019636613
-7.868489E-4
-2.645013E-4
3.6208765E-4
-1.0913668E-4
-0.0011325232
0.0017176723
0.0068086716
0.0028028486
-0.0061366525
-0.005578507
-0.0012508568
-6.9686363E-4
-3.6578314E-4
4.453546E-4
0.0027677305
0.0056274985
0.0062424606
0.0056951856
0.0034327838
2.3937668E-4
-0.001380314
-0.0017992286
-0.0017250986
-0.002582722
-0.0051618526
-0.006720825
-0.0034357642
0.0020454829
0.002663495
5.032038E-4
-2.421259E-4
-0.001791329
-0.002578749
-0.001045525
-8.7668865E-5
5.941125E-4
0.0022437864
0.003437176
0.003339737
0.0025906647
4.897961E-4
-0.0022237147
-0.0029412075
-0.003018518
-0.001778853
0.002007779
0.0031404465
0.0014383408
8.011472E-5
-2.7560277E-4
0.0016317831
0.0012144946
-0.002231763
-0.003121581
-0.0025122447
-1.4989747E-4
0.0014510972
-9.267031E-4
8.6579195E-5
0.0017832036
-9.777348E-4
-6.790156E-4
0.0013294886
0.0010291565
6.470713E-4
-2.5960495E-4
-4.4615343E-5
9.542646E-4
0.001148415
0.0017960403
0.001093688
1.9778452E-4
0.0011755336
0.0011399167
-0.0016417112
-0.005014153
-0.0036686526
4.0822997E-4
-1.643195E-4
-0.001888599
-4.7342133E-4
9.604601E-4
0.0018221169
0.0018077949
3.3312864E-4
9.053928E-4
0.003223475
0.002101661
-1.9265721E-4
5.9343124E-4
7.196411E-4
-2.2640158E-4
2.3303617E-5
-0.0015478919
-0.004334155
-0.004003335
-0.0012332994
-4.0754062E-4
-0.0010799911
2.3079856E-4
0.0013955754
9.505037E-4
-3.6630337E-4
-0.002084683
-0.0013991443
-4.922381E-4
-2.1259565E-4
0.001869417
0.0025201992
0.0027497904
0.0022748676
-4.9749104E-4
9.0406835E-4
0.0029515168
6.6936E-4
-9.857388E-4
-0.0023331793
-0.0017682072
0.0014845751
0.0014853565
-1.8092504E-4
-6.6982687E-4
-6.622994E-4
0.0012278168
0.0032094894
0.00153894
-0.003134456
-0.0058787214
-0.004184552
-0.0013854293
-5.4321694E-4
-0.0011832434
-0.0013128454
-4.372789E-4
0.0010633561
0.0028491088
0.0028456606
0.002982126
0.005982624
0.0059804292
0.0017725955
-4.7164853E-5
-0.0013984342
-0.0041722707
-0.0031531625
-0.0012101576
-0.0027777334
-0.0028352046
-4.566671E-4
3.7376412E-7
2.987086E-4
0.00255937
0.003018791
9.3164505E-4
7.56803E-5
-6.189162E-4
-0.002473439
-0.002651736
-0.0013015533
-3.2672932E-4
-0.0011942978
-0.0020930893
1.8894135E-4
9.942328E-4
-2.7369717E-4
2.9935717E-4
-4.8304253E-5
7.516198E-4
0.0028603002
0.0024813034
0.0030343228
0.0033796942
0.0019931148
-5.7762794E-5
-0.0032300556
-0.0039428137
-0.0036849335
-0.0025515503
3.1360312E-5
-0.0010166072
-7.4944826E-4
2.0085546E-4
-0.0015446675
8.868172E-4
0.0020870997
2.1393601E-4
0.0014778296
0.0022421002
0.0020953428
9.882054E-4
1.5168323E-4
0.0013999334
4.216863E-4
7.044138E-4
0.0021219915
1.4670154E-4
-7.670881E-5
0.0021894218
0.0034196586
0.0010886478
-0.002894875
-0.0022050908
-0.0011912833
-0.0033841145
-0.002699003
8.073415E-4
0.00196671
-0.0010130295
-0.005266938
-0.006048435
-0.0015412153
0.0014927321
-0.0036653962
-0.00720658
-0.0016602784
0.00271833
0.0020653205
0.0020532836
0.0019867073
0.0014041038
0.0025911848
0.003030558
0.0027374018
0.0032839521
0.0023550077
0.0024217567
0.0027064353
4.929584E-4
5.264239E-4
-6.0052064E-4
-0.0029115672
7.444151E-4
0.00269214
1.18357246E-4
-7.173787E-4
-0.0015479024
-0.0014698645
7.375621E-4
0.0014598868
4.54129E-6
-8.588034E-4
1.2843547E-4
-7.964454E-4
-0.0039888453
-0.0051929783
-0.00462787
-0.0043005855
-0.0034530973
-4.8042354E-4
0.002092128
0.0023399657
0.0033348172
0.0036314684
0.0011978451
-0.0012580026
-0.0022603995
-6.1909837E-4
0.0011251246
2.2467574E-4
8.894606E-4
0.0027834729
0.0018675459
8.5218623E-4
0.0015269989
0.0021719038
0.0026664964
0.0016192261
2.1534006E-4
0.0017804551
0.0020651862
-0.0012745353
-0.0031042674
-0.0024004593
-0.0013879624
-0.0016364724
-0.0025295003
-0.0023095335
-0.0022041053
-3.2801862E-4
0.0029705216
0.0017216199
-0.0018890909
-0.003294885
-0.0029424499
-6.932056E-4
0.0014381108
6.660001E-4
-4.3116845E-4
0.0013818037
0.0018473121
-0.0015053586
-0.0017056738
0.0012454154
0.0014943187
7.6619844E-4
1.1069445E-4
-7.0754095E-4
2.5438383E-4
0.0018737296
0.0025170343
0.0024473665
0.0017835321
-2.4785416E-4
-0.0021231615
-0.0013405832
2.3638274E-4
0.001195022
0.0018441338
0.0025517864
0.003386383
0.0016410984
-4.2418967E-4
1.0070465E-5
-1.8607714E-4
-8.1857917E-4
-0.0022171536
-0.0033242754
-0.0016923484
-0.0017499552
-0.0024895205
-0.0021391376
-0.0031258154
-0.002141541
-3.1381962E-4
7.0724804E-5
-4.940619E-4
-0.002695062
-0.0026679318
-0.0013757662
4.399178E-4
0.004628555
0.0049591097
0.0029716874
0.0013421187
-0.0025423714
-0.0026755803
7.611569E-4
0.0027003346
0.0035853868
0.0033271417
0.0027089575
6.941359E-4
-5.4025784E-4
8.5352873E-4
3.8017356E-4
9.486039E-4
0.0026989356
9.0788264E-4
-0.0010289678
-0.0025464138
-0.003853026
-0.0031813863
-0.0031200645
-0.0042363727
-0.003336073
0.0011944507
0.0044481866
0.004120506
0.0037678396
0.0026050676
0.0010846646
-7.610754E-4
-0.0029870884
-0.0029042624
-0.004613163
-0.005319549
-5.971182E-4
0.0011618575
7.1321276E-4
0.0027374022
0.002731821
2.9635808E-4
-8.8030804E-4
-8.123822E-5
3.4714895E-4
5.6120486E-4
0.0018373305
0.0023525867
0.0020963817
2.8677424E-4
-0.0027988993
-0.0025435952
-8.710737E-5
6.069184E-4
6.5145583E-4
-1.3926315E-4
-0.0017499567
2.7110356E-5
0.0019034322
-2.952236E-5
-3.2966156E-4
-5.43676E-4
-0.0015527162
-6.479276E-4
-0.0030561879
-0.0038772805
4.0707874E-4
0.0017622778
0.0015266018
0.0015730256
0.0021328663
0.0025071101
-9.019802E-4
-0.0025630593
-4.3496658E-4
0.0017081136
0.0027154477
0.0026380692
0.0038070213
0.0027455832
7.324733E-4
0.0025931161
0.0028873729
3.5976846E-4
-0.003269511
-0.005271049
-0.004830452
-0.0044343504
7.180168E-4
8.0883823E-4
-0.006894637
-0.0036660563
0.0012225758
3.4409392E-4
0.00361265
0.0018506917
-0.0034003735
-0.0027443385
-0.0020668919
-0.0017166073
3.867824E-4
0.002441169
0.003830771
0.004535622
0.0051491335
0.004139641
0.0014059572
-0.0024245027
-0.006047266
-0.0040819594
0.0013469053
0.0018431011
-9.0076437E-4
-5.6250335E-4
0.0014525511
0.0018389353
4.488771E-4
-0.0015284437
-0.0015713347
-0.0014341095
-0.0024272997
1.3033832E-5
0.0032744866
0.0027398837
0.0021912917
0.0023890694
0.0011362333
2.4036097E-4
4.3885718E-4
4.3166197E-5
-9.2588825E-4
-7.913976E-4
4.0820215E-4
3.688201E-4
-0.0011770639
-0.0013759742
-1.3528334E-4
-3.17286E-4
-0.001841256
-0.0025501985
-0.0010580785
-2.0112585E-4
-0.0034840263
-0.0042091473
0.0014484973
0.0044290647
0.0021347648
-8.161281E-4
-0.0030509755
-0.0022897625
-5.213488E-6
-2.2393692E-4
-2.4151105E-4
0.0014429211
0.0022138103
0.001996156
0.0017446192
0.0018949021
0.0012179781
-3.5831507E-4
4.0939782E-4
0.0021098903
7.552422E-4
-0.0023082937
-0.0038544545
-0.0034281174
-0.001725594
0.0016551152
0.0039698756
0.0028145981
0.0019465016
0.0020366302
0.0016763054
0.0015599458
2.4525373E-4
-5.8992923E-4
-4.804078E-4
-0.0016854088
-0.0011881399
-6.055584E-4
-0.0020895544
-0.0012350235
-6.3331105E-4
-0.0023622874
-0.001685705
-3.2940038E-4
-0.0023354124
-0.003812972
-4.016229E-4
0.0026604128
0.0019521979
0.0019147628
0.0011374425
-9.496878E-4
-1.882701E-4
7.8841794E-4
-7.875801E-5
-0.0012212953
-0.0016852554
-2.6937202E-4
0.0012523609
9.614855E-4
-9.566705E-5
0.0010120976
0.0030645176
0.0014644667
0.0010756106
0.0038705398
0.0026623348
-8.986342E-4
-0.0025450783
-0.0028205898
-0.0027161592
-0.0022020442
-1.03174076E-4
4.318891E-4
-7.532231E-4
-8.0187496E-4
-0.0011630079
6.9714435E-5
0.0015158548
1.5451424E-4
-5.452396E-5
0.0014169925
0.0027634592
0.0024647913
9.371331E-4
3.676822E-4
-0.0012220935
-0.0017182356
-7.3482713E-4
-0.0012546796
-3.6834352E-4
-7.882039E-4
-0.0026460325
-0.0011017942
-7.996718E-6
-1.9111884E-4
4.8064936E-5
7.4968615E-4
0.0018813855
0.0012944433
0.0017702854
0.0020174806
-1.9978527E-4
4.1208397E-5
-7.871129E-5
-0.001397069
-9.486051E-4
-0.0016742891
-0.001421694
-4.900997E-5
4.621511E-4
0.0018771756
0.0012105682
-2.3232297E-4
7.267239E-4
7.289427E-4
1.9973578E-4
6.021065E-4
2.9473729E-4
-0.0011661521
-0.0018672734
-3.744445E-4
-0.0010906516
-0.005184431
-0.0071564987
-0.0054210904
-6.546004E-4
0.0037333244
0.004687947
0.006258681
0.0073103392
0.0037451088
8.506777E-4
0.0011510169
6.142106E-4
-9.0023596E-4
-0.001969689
-0.00224811
-8.1640657E-4
8.6516084E-4
4.7712633E-4
-6.5656373E-4
-6.014483E-4
0.0013599171
0.005243546
0.0065322104
0.0032690268
1.8613138E-5
-0.00393872
-0.0062775733
-0.0023868168
-0.003316949
-0.009643743
-0.007351746
-0.0017116084
-7.33348E-4
-0.0017463294
-0.002379345
5.541766E-4
0.0020622541
-4.5548502E-4
-7.8882E-4
-6.092652E-4
-8.313729E-5
0.0014013854
0.0011048774
0.0020781888
0.0030599618
0.0027444453
0.0032151816
0.0025371646
0.002429011
0.0025067744
0.0014819584
0.0025702694
0.002652564
0.0011923343
0.0025128438
0.0037242272
0.0022909585
6.1589596E-4
-2.700543E-4
-0.0012326902
-0.0025484285
-0.005476501
-0.008360774
-0.0056272084
-0.0016458329
-0.0016547034
-8.8246184E-4
-0.0011517478
-0.0034773075
-0.0025641343
-0.0017597845
-0.0021177637
-1.9166376E-4
0.0013445084
0.00159237
0.0011533407
2.1098013E-4
7.3705154E-4
0.0010803114
6.6493003E-4
4.2443792E-4
-0.002030581
-0.0036244353
-0.0019484286
-0.0020190473
-0.0034344222
-0.003546013
-0.0030732828
-0.0019619775
-0.002096832
-0.0030987032
-6.6305854E-4
0.0050479923
0.00853604
0.007454705
0.007097648
0.008431388
0.0075502614
0.008563906
0.011475856
0.010024581
0.0073308554
0.0065495926
0.006007258
0.0046978015
-0.0019485335
-0.014101957
-0.022752536
-0.024676425
-0.025113609
-0.02657589
-0.0279295
-0.026959572
-0.02013016
-0.008802957
2.9493857E-4
0.0067182784
0.013284636
0.018240076
0.023545815
0.02986941
0.033607006
0.034730718
0.027817208
0.01778461
0.018941162
0.02017014
0.012210097
0.0021339874
-0.007686052
-0.010086629
-0.008324103
-0.0072143134
0.0027337635
0.009130799
0.0023053645
-0.0032895042
-0.008148232
-0.014081435
-0.013427683
-0.012215982
-0.015247584
-0.017577581
-0.021271588
-0.025940897
-0.024501784
-0.024120469
-0.031161468
-0.03619959
-0.028044842
-0.002065774
0.016799422
0.0146156335
0.02211075
0.029028865
0.017138917
0.024383357
0.043626457
0.032892868
-0.0028014558
-0.0433406
-0.06867916
-0.0759023
-0.08116455
-0.07087138
-0.033978935
0.005006231
0.03683371
0.08038374
0.129255
0.15181725
0.15447646
0.15500386
0.13895264
0.09990146
0.025376545
-0.08206599
-0.15607248
-0.16269653
-0.11827942
-0.041810654
0.008725708
0.016598837
0.02946695
0.042231835
0.04258878
0.033005085
-0.025862098
-0.10279925
-0.11950857
-0.116695926
-0.13289607
-0.118571684
-0.07848002
-0.047223892
-0.02933922
-0.014347663
0.030312069
0.08326019
0.10395491
0.1059675
0.092735074
0.083210416
0.08875131
0.06613107
0.025286257
0.018957749
0.048890393
0.071984954
0.080439344
0.10541564
0.08870248
-0.023882674
-0.13389741
-0.16406211
-0.1447538
-0.10544189
-0.07466593
-0.06721849
-0.058863975
-0.050709657
-0.04241458
-0.0035192356
0.049849156
0.07123417
0.048290096
0.023126733
0.03988358
0.06262739
0.055923745
0.03872782
0.040543914
0.06572993
0.05886317
0.045570854
0.07842892
0.07646846
0.036898084
0.008985692
7.983352E-4
0.06401031
0.09588366
-0.009368822
-0.120735414
-0.16374205
-0.19708939
-0.2618543
-0.3003488
-0.234092
-0.15698963
-0.118870325
-0.04512368
0.03956525
0.13074762
0.19203348
0.14460006
0.11263757
0.131139
0.11589886
0.16002989
0.22297916
0.18531382
0.1289823
0.07824677
0.04382313
0.07175729
0.08640702
0.06320766
-0.0126450015
-0.16617198
-0.25643766
-0.21597728
-0.1513981
-0.13255733
-0.15394954
-0.16893019
-0.14942124
-0.098093316
-0.039425604
-0.015823275
-0.012496749
-0.023792174
-0.056762096
-0.049319044
-0.009269338
0.01700532
0.07824481
0.17938218
0.24492145
0.2525457
0.22573505
0.17629386
0.12542665
0.03787454
-0.14016102
-0.25737953
-0.2005677
-0.1242303
-0.07352574
-0.012611655
-0.03107572
-0.09195317
-0.10262368
-0.07750755
-0.0010165201
0.11696051
0.17440866
0.1342968
0.09605546
0.11775299
0.121643506
0.05622274
-0.014673895
-0.0025376815
0.05745603
0.09688034
0.156928
0.19335613
0.13437498
0.0147874
-0.17401563
-0.3240351
-0.29202518
-0.22371204
-0.24409339
-0.2682588
-0.25714138
-0.21694145
-0.14222008
-0.071501605
0.018120078
0.14183179
0.17146999
0.13153274
0.13557348
0.0931895
0.0175395
0.010443907
0.047089163
0.11304062
0.15167885
0.16432683
0.20205662
0.1825005
0.14307489
0.16225632
0.14659949
0.053458106
-0.06695829
-0.12844205
-0.08916951
-0.04916656
-0.08967304
-0.16658555
-0.18407305
-0.11138683
-0.036083598
-0.0392145
-0.08402693
-0.094214916
-0.070796505
-0.037829835
0.020760143
0.08637873
0.097510725
0.037255783
-0.03200671
-0.0525537
-0.038155638
-0.014178649
0.017517801
0.057053205
0.087052405
0.08483257
0.060444534
0.03603863
0.019096123
0.0025129723
-0.014682982
-0.015227204
-0.0019952792
0.01178766
0.019588802
0.020275213
0.028312137
0.039109748
0.043346286
0.027547529
-0.04282169
-0.12734339
-0.14620419
-0.11085442
-0.06379271
-0.013310526
0.023831183
0.03510119
0.03925721
0.04099868
0.029800322
0.018847665
0.02038395
0.019904807
0.0060465573
0.0038578657
0.02473167
0.032535065
0.026969042
0.037196055
0.049320336
0.037756003
0.0032678125
-0.01928986
-0.012414209
-0.006732745
-0.0044082454
0.002512592
-0.0049350075
-0.020731788
-0.030943407
-0.03220265
-0.024771439
-0.019575493
-0.018634722
-0.018134428
-0.014799793
-0.0076075606
-0.0023536263
0.002217127
0.005644327
0.0061450186
0.008064086
0.012472898
0.020131502
0.024325237
0.019833999
0.012221732
0.0037271788
-0.0019179382
-0.009152129
-0.02311802
-0.02970925
-0.026681082
-0.024807205
-0.022545317
-0.015229429
-0.005048501
0.0031554059
0.006429155
0.0014384966
-0.005423594
-0.0052506705
-0.0057916255
-0.008685317
-0.00811738
-0.0069316113
-0.005729072
-0.005553788
-0.00619592
-0.005032314
-0.0025348663
7.619693E-5
2.3555403E-4
9.311818E-4
-0.0013546128
-0.011693602
-0.013239175
-0.0026937446
0.0018798618
0.0023671708
0.0066310926
0.009079696
0.01341756
0.025584185
0.033008978
0.033398297
0.035800096
0.037008755
0.03563959
0.02752093
0.014933101
0.010420103
0.010240086
0.011089912
0.0069546364
-0.007934663
-0.02043642
-0.02763581
-0.030293021
-0.02765126
-0.023143211
-0.012057712
-0.00393728
-0.0032810953
0.0017887446
0.0044862344
-0.0010418042
-2.534028E-4
0.01407045
0.022931142
0.019529797
0.017322738
0.010604606
0.0020951498
0.0011604776
-0.005279728
-0.020694343
-0.027713194
-0.017217852
-0.014801458
-0.023487233
-0.014371009
-0.006129127
-0.007592347
-0.0013402351
0.002308269
0.0030837818
0.001076746
-6.614513E-4
0.008082678
0.015344531
0.015101993
0.008575259
0.007601473
0.018422661
0.023152947
0.016849365
-7.8453304E-4
-0.010741803
-0.003372042
-0.006963498
-0.00569755
0.0102659855
0.010506092
6.9530346E-5
-0.010228044
-0.024415767
-0.03970194
-0.0467485
-0.046087656
-0.037449438
-0.010540358
0.007345038
0.014102787
0.042310886
0.0713418
0.092330106
0.10091564
0.08363884
0.06869336
0.049755856
0.024299823
0.017269237
0.0031923093
-0.019086346
-0.034318246
-0.0607046
-0.07312745
-0.0532998
-0.044762015
-0.0478242
-0.034312997
-0.029229593
-0.04048607
-0.05164471
-0.05989285
-0.051027514
-0.044371318
-0.046540443
-0.027770327
-0.012752118
-0.0020890597
0.020162115
0.022901183
0.028648457
0.05322219
0.060985375
0.058875624
0.058345113
0.05251822
0.043404438
0.03437056
0.030548804
0.02414167
0.0114156185
0.0034555655
-7.428496E-4
-0.0050289226
-0.007049533
-0.006593944
-0.004143106
8.9272065E-4
0.004147569
3.5572483E-4
-0.0059943674
-0.011912705
-0.015739681
-0.014021463
-0.012307414
-0.011037441
-0.00680069
-0.003696677
-9.4576326E-4
-9.252509E-4
-0.0065871454
-0.009809589
-0.0114053935
-0.014428982
-0.011540782
-0.0052610626
-0.0028659718
-0.0021444808
-0.002411426
-0.0024482803
0.0014298243
0.004720591
0.0036912693
0.0021130706
0.003465578
0.00728413
0.009008775
0.007301029
0.004023566
-0.0010141565
-0.0035592534
-7.412978E-5
0.0042875996
0.0030850607
-9.870427E-4
-2.1338114E-4
0.0016300959
3.357318E-4
-2.782359E-4
-0.0036190285
-0.0059032682
-6.7552895E-4
0.0038884515
0.008130867
0.012721801
0.011718804
0.011011721
0.010895013
0.010259693
0.0127885165
0.011470087
0.008005345
0.0098710675
0.012956991
0.012578008
0.008271525
0.0062070144
0.0071690916
0.004804175
0.0037599732
0.0060383705
0.0056168907
0.0016664967
-0.0024947284
-0.0027823355
-0.0016319014
-0.001465261
-1.5604925E-4
-0.0014683096
-0.00556158
-0.006107509
-0.0027585663
-6.3128985E-4
-0.0024683955
-0.004808286
-0.004891377
-0.003206679
-0.0019989577
-0.0025994247
4.5910742E-4
0.00612332
0.0067928913
0.0039928174
-8.4913516E-4
-0.0066223564
-0.0071842945
-0.0031066635
-0.001275433
-0.0030611204
-0.0022430588
0.001819424
0.003270904
0.0023462651
2.0288514E-4
-0.0020694903
-0.0016361452
-6.150094E-4
-0.0010560884
-0.002073119
-6.0784514E-4
0.0039140275
0.0046878145
4.3511367E-4
-0.003056429
-0.0030322268
-6.047582E-4
9.646411E-4
0.0017974466
0.0028495032
0.003048762
0.0015479412
-0.002230684
-0.003443342
-0.0014313654
-8.0232613E-4
0.0014468092
0.0028355012
-1.5919222E-4
-0.0022588104
-0.0038598205
-0.0037291371
-0.0010408467
-0.002118499
-0.0036566686
-0.0030954157
-0.0039544497
-0.0025110878
-4.8542923E-5
-2.0527299E-5
0.0010091075
4.2134995E-4
-0.0023120397
-0.0024159884
-0.0037038017
-0.0052431016
-0.001712527
-3.8094833E-5
-0.0015349732
8.8033086E-4
0.0026982827
3.3126023E-4
2.577822E-4
0.00239588
0.0017176399
6.9456507E-4
8.3184754E-4
-0.0011013836
-0.0013883623
0.0024828224
0.0047791167
0.005068749
0.0046894145
8.2370924E-4
-0.0034682082
-0.003461973
-0.0019821103
-7.981935E-4
0.001987656
0.0013822757
-0.004114423
-0.006127798
-0.0044009923
-0.0018822586
7.8581634E-4
-6.849366E-5
-9.4745564E-4
-3.2750104E-5
-9.84116E-4
-0.0010921488
-8.980024E-4
-0.0015018354
-7.2197046E-4
-0.0012477932
-0.0017368369
0.0010500924
0.0026541888
3.2207952E-4
-0.0010162323
-1.0358437E-4
-0.0012410796
-0.002044324
-1.7503227E-4
0.002400864
0.0047769155
0.0032690135
1.6185835E-4
-6.532778E-4
-0.0024399767
-0.0036065655
-0.003332525
-0.002823377
-0.0011741419
-5.607424E-4
-1.8148443E-4
-5.631204E-4
-0.0019926326
-0.0015620026
-0.00220761
-0.0026765445
-0.0013175603
-0.0014116064
-4.4545849E-4
0.0023773925
0.0057040905
0.008187094
0.0074203736
0.0035478
-0.002948243
-0.006718171
-0.0055819354
-0.003624213
3.2950562E-4
0.0041196826
0.0042981408
0.0025484725
7.8382884E-4
0.0017943146
0.0035234804
0.0028673122
0.0010271026
-0.0015298261
-0.0038663314
-0.004963979
-0.005024159
-0.005808934
-0.0062033725
-0.0038836063
-0.0030276107
-0.003441231
-0.001982355
-9.6109114E-4
7.132482E-4
0.0030925106
0.0023349198
-7.902881E-4
-0.0020195402
-3.1973005E-4
0.0015329927
0.0027787245
0.0030687512
0.0023270862
0.0018844825
0.0012725847
5.157775E-4
-1.9992677E-4
1.6533825E-4
2.599411E-4
-0.0011910909
9.864987E-4
0.0043821842
0.005481913
0.005109323
0.0010955023
-1.20137374E-4
-1.4542244E-4
-0.002522311
-2.0011813E-4
-0.0054454044
-0.015617222
-0.010049858
-0.0020422952
-0.0015591383
8.741855E-5
0.0019778262
0.00407462
0.0043064523
0.0015032947
0.0013121704
0.0016503395
1.23322E-4
-2.1367215E-4
-8.2764623E-4
-0.0019885774
-0.0026448192
-0.005218754
-0.004046474
0.0019874575
0.0027913642
0.0028791542
0.00548792
0.0041570487
0.0032477465
0.0028536047
0.001181858
-1.5874689E-4
-0.0040600956
-0.004832526
-0.0017043563
-8.072607E-4
4.0716588E-4
0.0010523604
8.7152864E-4
0.0015882617
8.1839325E-4
-7.8255136E-4
-0.0019022749
-7.511031E-4
9.118165E-4
-4.941033E-4
-0.0016603526
-0.0013980647
-0.0014127885
-0.002541737
-0.0042476254
-0.004274443
-0.003645137
-8.8669296E-4
0.0034382981
0.0038170347
0.0017758054
-5.94858E-4
-5.6425866E-4
0.0033532311
0.0024255854
-0.0025711139
-0.0027289162
-4.987252E-4
0.0012398519
0.0034439652
0.004499579
0.003892691
0.0015075927
-8.657662E-4
-2.8541623E-4
1.434875E-4
-1.7755653E-4
0.0011717184
8.445071E-4
3.8355472E-4
0.0018894367
2.2282785E-4
-0.0035708523
-0.0057582404
-0.005319686
-0.002666254
-0.0015080381
-9.32749E-4
-7.169896E-4
-0.0016578841
9.087268E-4
0.0036832266
0.0026196388
6.881985E-4
-0.0016235985
-0.0018449523
-7.756697E-4
-0.0013860081
-0.0010462459
-4.7657048E-4
9.134601E-4
0.003200578
0.0023685656
0.0012342801
4.169106E-4
-0.001653578
-0.0020227113
-0.0018866144
-0.0012598225
7.197981E-4
0.0013690881
6.1154005E-4
-6.8180676E-4
-1.9056017E-4
0.0010410709
-5.406184E-4
-5.8435136E-4
6.416441E-4
-4.5131738E-4
-5.39275E-5
9.440097E-4
0.0015824871
0.003410002
0.0029828122
0.0018776696
0.0029665164
0.002985215
1.5153619E-5
-0.0032923543
-0.0035083788
-0.0026515897
-0.0019511762
-3.4442087E-4
-1.5043019E-4
-1.0193306E-4
-5.4096663E-4
-0.0021380812
-0.0011908081
-0.0017071468
-0.002947669
-8.920003E-4
-0.0016568318
-0.001969983
0.0017680981
0.0020407566
1.5665783E-4
4.098074E-4
0.0012666862
0.0011554657
-2.1081018E-4
-7.25804E-4
1.8148849E-4
0.0012396408
0.0018538166
0.0014714672
5.6782214E-4
-4.716202E-4
-0.0011645473
-0.0014930195
-0.00197492
-0.0014450214
-7.6284356E-5
7.584798E-4
6.6665927E-4
-3.8760187E-4
-9.422215E-4
2.0945899E-4
0.0018168833
0.002491984
0.0022765119
6.488842E-5
-0.0027518398
-0.0010931803
0.0017614666
0.0011077658
0.0012458968
0.0014085732
-4.9435283E-4
-2.3348375E-4
3.201283E-4
-0.0015834987
-0.0022077383
-5.831187E-4
7.136034E-4
0.0013592322
0.002323202
0.002332544
6.671415E-5
-0.00310737
-0.00418089
-0.0025451102
-0.0019512438
-0.0023919651
-0.0017643434
-0.0011753971
5.329282E-4
0.0016893444
0.0019451162
0.004053641
0.002040262
-0.0021451628
-8.973495E-4
6.824086E-4
1.382919E-4
-7.869766E-4
-5.560263E-4
0.0018061735
0.0027613526
0.0031565328
0.0013545607
-0.0017364131
2.6501596E-4
-0.0017172543
-0.0074510886
-0.0033871203
0.0031593095
0.0032636253
0.0016451589
0.0014959654
0.0017438142
7.6831144E-4
4.8565402E-4
5.7903747E-4
-0.0015715527
-0.00324616
-0.003397364
-0.003483331
-0.0017868188
7.7411206E-4
0.0017480915
0.0026492933
0.0028847214
0.001935778
5.355823E-4
-0.0033099263
-0.003298787
0.0014782926
0.0012167407
8.4510114E-4
9.57935E-4
-0.0033180278
-0.0027672956
-4.3428576E-4
-0.0018455221
-0.0012908209
-7.7154764E-5
0.002455844
0.005804923
0.0044317497
-3.3742038E-4
-0.0034889602
-0.0014720283
0.0014535323
0.0011234675
3.8744905E-4
-2.0077651E-4
-9.7137305E-4
-9.705086E-4
0.0013643437
0.0032641746
0.0027979543
0.003612803
8.15428E-4
-0.004111368
-0.006309519
-0.010354542
-0.00571031
0.005501108
0.0055892156
0.0022837014
-8.476147E-6
-0.0028471455
-3.6366927E-4
5.7103287E-4
-0.002044468
-0.0021284518
4.0627533E-4
0.0037211126
0.004829259
0.004408267
0.001837192
-0.0023624676
-0.0036804315
-0.0038296569
-0.0017482904
0.0013040974
6.934769E-4
0.0011513758
0.0011249965
-0.0011153236
-7.3873135E-4
-6.912797E-4
-2.8511023E-4
0.0013514799
2.0940418E-4
2.817487E-6
0.0015933489
5.1701587E-4
-0.0022047986
-0.0017824593
7.345743E-4
-5.528963E-4
-0.0012626183
9.31844E-4
-3.0348904E-4
-0.0011830337
4.2717115E-4
0.0012931161
0.0020843514
0.0014412355
0.001291848
7.9735345E-4
-0.003151318
-0.0043655424
-0.0017147964
3.994031E-4
8.7470195E-4
1.3723559E-4
-3.6468948E-5
-5.2513735E-4
-5.202431E-4
4.4038758E-4
7.683201E-4
0.0031323237
0.0051906146
0.0040895273
0.0017982663
-0.001052624
-0.0022808975
-0.0021615282
2.3715198E-5
0.0023459909
-4.8804277E-4
-0.002004841
-0.0023082192
-0.0049410155
-0.0024841907
5.5222434E-4
-5.997765E-4
-9.373569E-4
-9.804042E-5
1.7004393E-4
-0.0022989411
-0.0028152217
4.4978716E-4
0.0015318608
0.0021777705
8.0663594E-4
-0.0013669552
0.0011048167
0.0015025489
2.773724E-4
0.0015052246
0.0018805901
0.0019566608
0.0012722744
0.0012374922
0.0026682368
0.0027644031
0.002081407
-6.330832E-4
-0.002665853
-0.00203884
-0.002194254
-0.0012479561
-0.0013693878
-0.0036362952
-0.0026934939
-2.9837785E-4
7.87631E-4
-1.5136313E-4
-0.001623674
-3.1530077E-4
4.241558E-4
-2.683795E-4
9.5387E-5
-8.337059E-4
-0.0017726315
4.5502174E-4
0.0028500282
0.002871706
0.002306128
0.003068533
0.0053178775
0.0051475023
4.5265298E-4
-0.0026408145
-0.0025982345
-0.0033756548
-0.0030577083
-0.0012481419
-9.1363216E-4
-9.268959E-4
2.084323E-4
5.401481E-4
-9.587819E-4
-0.001973213
-0.0021695103
-0.0021825563
-4.4589094E-4
7.4433093E-4
-0.0011113603
-0.0014034985
0.0012443747
0.0014453982
4.911303E-4
0.0022713705
0.004159896
0.0042626974
0.0022760173
3.717452E-4
6.7338964E-4
0.001069586
0.0019095372
-0.0013689159
-0.006544438
-0.0015378718
6.7022553E-4
-0.006753008
-0.005471536
0.0010941877
0.004016805
0.0055614305
0.0025979565
-0.0014194895
-0.0017329531
-7.026142E-4
-6.807995E-4
-0.0013569045
-5.91135E-4
-0.0012064861
-0.002726997
-6.2846416E-4
0.002253234
0.003061923
0.0021464908
0.001441829
0.0020340234
0.0013971723
-7.753805E-4
-0.0027645535
-0.0025507442
-0.0015685381
-0.002122492
-0.0015713463
-7.096581E-4
4.0720106E-4
0.00274678