-0.0012762003
-0.0027911759
-0.004323122
-0.004752877
-0.0034805983
-0.0026803047
-0.004008639
-0.003379683
-0.0017688798
2.4963205E-4
0.0017537102
-6.858402E-4
-0.002455513
-0.0026539355
-0.003360464
-0.0011968456
0.0014896384
0.0023173692
0.0020134253
-2.7732944E-4
-0.0014248515
-7.2436413E-4
-0.0012041787
-0.0013875014
6.380895E-4
0.00448187
0.008044378
0.008088932
0.0058750557
0.0043154764
0.0018039015
-6.2382483E-4
-5.6726474E-4
-9.538589E-4
-6.935901E-4
0.0014608944
3.936554E-4
-0.0023472772
-0.0019865436
4.3822257E-4
0.0017379409
5.3380727E-4
0.0010796236
0.002526446
-2.7481365E-4
-0.0032455076
-0.0052482197
-0.0066009504
-0.0038698588
-0.0029504127
-0.00463867
-0.0034990995
-0.0028563673
-0.0020230114
-0.001150829
-0.0035678756
-0.0024124733
0.0018468802
0.0022659092
0.0030785664
0.0050730677
0.004573543
0.004533275
0.005483877
0.0046674814
0.0015238341
-0.0019574086
-7.0477044E-4
0.0030653342
0.0019439361
5.842749E-4
0.0022161347
0.0013004545
0.0015089461
0.0028226103
-0.001248903
-0.004867975
-0.0049264836
-0.00486745
-0.002634553
5.906087E-4
0.0010455817
-0.001237665
-0.0022144574
6.141105E-4
0.0018934181
3.0313333E-4
6.464175E-5
5.339852E-4
-1.4754223E-4
-0.0018975287
-0.0016224378
-1.0074563E-4
-0.0022562891
-0.0022972054
0.0023426525
0.0033843326
0.0025105027
0.0020122477
-0.0019319943
-0.004048322
-0.0019587753
-0.0014697537
-0.0017963577
-0.0017587073
-0.0023535022
-0.0010811923
9.423955E-4
0.0022636226
0.0027968427
4.472562E-4
2.8434643E-4
0.0039502233
0.0040386063
0.0025964086
0.0025188657
0.001649782
0.0022412755
0.0025913396
0.0018970995
0.0030143035
0.0020754477
-0.0012226645
-0.0024336965
-0.0022985141
-0.002128402
-0.0020989948
-0.0029755598
-0.0032450452
-7.5335236E-4
5.936184E-4
-0.0020803409
-0.0025291934
-2.0281425E-4
-4.8095494E-4
-0.0024987997
-0.0035987566
-0.0017374813
9.334209E-5
-0.001698135
-0.0025615827
-0.0018097033
-0.00109834
5.866034E-4
0.0013146
0.0018804792
0.002149585
7.989352E-4
0.0020846114
0.0055612847
0.0045616226
-1.5839241E-6
-5.2272913E-5
0.002086916
4.735749E-5
-9.6917147E-4
-6.498825E-4
-0.0014638462
-6.221761E-5
9.770443E-4
0.003197652
0.006846845
0.0042731776
-2.8264863E-4
-6.533105E-4
1.8737299E-4
-5.560201E-4
-0.001970556
-0.0015631224
-0.0015225891
-0.0034140872
-0.004716273
-0.0027381957
0.0022939187
0.0042831264
0.0024097704
-0.0011889399
-0.005932616
-0.005869667
-0.0026460995
-0.0014217318
-7.3486555E-4
-7.168891E-4
-7.545404E-4
-0.0015671343
-0.0024626597
-3.2254477E-4
0.0013760253
0.0010660158
0.0015282362
0.004348843
0.005624574
0.001079055
-0.0014534396
2.492861E-4
-7.8148616E-5
-9.55303E-5
0.0013187958
0.0030961365
0.004101963
0.0032740308
0.0047386726
0.005751574
0.0023222582
-0.0012827818
-0.003911967
-0.005201357
-0.0042577083
-0.00283165
-0.001180295
-0.0011335262
-0.0026964475
-0.0013616711
0.0012949334
9.981177E-4
-7.275613E-4
-0.002164227
-0.00288099
-0.002823794
-0.0022300147
3.9320257E-5
0.0011665728
-6.8447983E-4
-0.0010146449
0.001970338
0.0055071716
0.004373604
-6.142314E-4
-0.001181793
0.0014530895
0.0015592522
-1.4910965E-4
-0.0015530994
-3.8734757E-4
0.0023721377
0.003212794
0.0017595424
3.2311006E-4
-4.385907E-4
-0.0022090718
-0.0027707072
-0.0013355154
-5.226314E-4
0.0015054917
0.003257628
0.0015720931
-4.2563828E-4
-9.883624E-4
-0.0020293596
-0.004106535
-0.0035601985
-7.6031423E-4
-0.0014837953
-0.003040067
-0.0012683222
0.0017066469
0.0038023468
0.002895093
0.0015306175
0.0020935861
3.302057E-4
-0.0023095687
-0.0016764094
-9.2239917E-4
-0.0016736949
-6.391793E-4
0.0010570982
-3.8296074E-4
-7.418486E-4
0.0035213481
0.0064165373
0.0069486666
0.008573401
0.0059956196
-0.0024962274
-0.0071292883
-0.0050436924
-0.004107046
-0.0054035075
-0.004063548
-0.00190625
-0.0011299232
-1.2655243E-4
2.5069056E-4
0.0011709823
0.0040247706
0.0041274647
-1.1804109E-4
-0.0031068758
-0.0024548054
-0.0024277668
-0.0026862035
-1.8622365E-4
6.2732253E-4
-9.893168E-4
-9.075522E-4
9.157339E-4
0.0028840564
0.0014506987
-7.688021E-4
-8.3435014E-5
-3.1109733E-4
5.5725715E-4
0.001875948
2.8557537E-4
-1.9919212E-4
4.428872E-4
0.0021937215
0.0021667103
-0.0010499316
2.1251636E-4
7.1326614E-4
-0.0015706902
1.1199157E-4
-7.95372E-4
-0.002461111
8.9306275E-5
0.0013478379
0.002232699
0.0033315213
0.004439341
0.0061839465
0.0043067182
-4.4890336E-4
-0.003939349
-0.0039056665
-0.0018738358
-0.0021622637
-0.00371374
-0.0044148196
-0.004852435
-0.004991932
-0.0028682004
0.0014125438
0.0021574164
1.5360674E-4
-1.6362178E-4
-6.865722E-4
-9.32726E-4
-9.2038274E-4
-7.026825E-4
0.0015248688
0.0019682082
9.743487E-4
9.482017E-4
2.2470967E-4
9.15869E-4
0.0019797324
0.0022295532
0.0046286355
0.006400754
0.006088174
0.0058855405
0.005350092
0.0021994042
-0.0052319453
-0.010759898
-0.008941848
-0.0041896203
-0.0018057693
-0.0035739834
-0.0038673517
-5.9274904E-4
2.5145298E-5
3.993411E-4
4.4048505E-4
-0.0018619867
-0.0012740088
-0.0018377438
-0.0028290302
9.4791414E-4
0.0033367635
0.0043760473
0.0049070287
0.0047563557
0.00639932
0.0044038864
0.0027553504
0.0045855884
0.0017605682
-0.001364466
-0.0025070296
-0.0037723668
-6.9472677E-4
0.0018673156
0.0010105298
6.871798E-4
-0.0017896374
-0.005920939
-0.006701055
-0.0051399344
-0.0045684255
-0.0040122964
-0.003689879
-0.0044718664
-0.00244478
3.853795E-4
3.2961363E-4
9.4747345E-4
0.0030240184
0.0062073963
0.007530973
0.0036378708
0.0016581595
0.0022348652
4.244221E-4
5.6469522E-5
-5.863006E-4
-0.001961806
5.539357E-4
6.375708E-4
-0.0015780845
0.0015752844
0.0049392353
0.0047879945
0.0028313233
-0.002527123
-0.0062308447
-0.004205858
-0.0027120025
-0.002814874
-6.786073E-4
8.908778E-4
6.4269966E-4
0.0012406829
2.7305522E-4
-0.0027181741
-0.0022921925
0.0019364597
0.0046437127
0.0037942338
0.00228346
0.0015593516
9.3341304E-4
4.8172745E-4
-0.0016964781
-0.0051843156
-0.0050786794
-0.0016599463
3.020391E-4
7.3060155E-4
0.0020114996
0.0012392815
-0.001849228
-0.0014244713
9.480153E-5
-4.3027135E-4
-1.20889046E-4
-0.0018802108
-0.003857598
-6.157622E-4
0.0013406946
-4.1733505E-4
-9.725194E-7
0.0010364192
7.5318123E-4
0.0011717909
8.4757624E-4
4.1661234E-4
0.0024112854
0.004166454
0.0033278733
0.0017755959
0.0018832703
0.0012562909
-0.002506616
-0.0033835438
-7.246897E-4
-6.6817156E-4
-3.5288834E-4
0.001244341
-2.778831E-4
-0.0018598144
9.384345E-4
0.004225511
0.0018472482
-9.2752633E-4
9.5788937E-4
-0.0020081138
-0.008075584
-0.0049817753
-2.6592735E-4
-0.002117178
-0.0023383258
-3.723729E-4
-6.169725E-4
5.7868165E-4
0.0019691256
0.0013887739
0.001515669
7.6808175E-4
8.2370266E-4
0.0038523802
0.0039505595
2.4864264E-4
-0.002368164
-0.0030886852
-0.0026665134
-8.2399935E-4
1.2731677E-4
-2.0376951E-4
0.0022051372
0.0041719824
0.0033145205
0.0039679036
0.0034264505
9.2313846E-4
-0.0010946632
-0.0030515145
-0.0026513687
-0.003191153
-0.0048443596
-0.002186435
6.002137E-4
0.0015159851
0.0015322198
-1.8294413E-4
-3.695615E-4
6.133385E-4
6.7144155E-4
5.458233E-4
0.0011577489
0.0020080854
0.0016566466
0.0019151514
0.0015926398
-1.5711813E-4
-0.0015972612
-0.0056985696
-0.0065598
-0.001022787
-5.761547E-4
-0.0030323893
-3.7056467E-4
0.0019340073
-2.7650746E-4
-0.0027676495
-9.363101E-4
0.0014392135
6.606839E-4
5.2040763E-4
0.0010090483
8.5218146E-4
0.0010643519
5.441694E-4
-6.96236E-5
-1.5633994E-4
-1.2379834E-5
0.002298319
0.005400909
0.00480915
0.0033070003
0.0056583537
0.0063204775
0.0025334936
-7.8651664E-4
-0.0036203223
-0.0034536612
-4.56328E-4
-0.0020704446
-0.004523309
-0.0039918865
-0.0033675402
-0.0019592016
-0.0023030809
-0.0027745746
-0.0010859689
-0.0023270275
-0.0028750654
5.079455E-4
0.002549743
0.0015419413
-3.200261E-4
-6.0179294E-4
-0.0016961986
-0.0026909974
3.0092677E-4
0.0020670812
0.0018825614
0.0021199582
0.0012762721
0.0010275289
-6.502659E-4
-0.0023512973
-7.062514E-4
2.540841E-4
0.0023238359
0.006391265
0.008369063
0.0075210733
0.0027439687
-0.0012649193
-8.899576E-4
-0.0022083954
-0.0057048965
-0.0062310295
-0.004062921
-0.002386204
-5.625476E-4
0.0019626336
0.0022554658
0.0016877905
0.0014567542
-0.0010919379
-0.0029856618
-0.0013037975
-3.3891478E-4
-0.0016305173
-0.0021576902
-0.0038412283
-0.0065243994
-0.0039345105
0.0011522066
0.0026283273
0.002724287
0.003661678
0.0051255403
0.004925866
0.0012613989
-0.0026423312
-0.0022886125
0.0028598672
0.0056374487
0.0016569213
-7.701422E-4
0.0018656962
0.0019388801
-0.0016728874
-0.0023060753
6.953434E-4
0.0014822674
-0.0010676429
-0.001830209
2.1328048E-4
8.988913E-5
-0.0017457282
-6.133277E-4
3.6676475E-4
-0.0019970397
-0.0034339374
-0.0027315237
-0.002332367
-0.0014117841
2.3792767E-4
9.4793556E-4
0.0010763425
4.5071234E-4
-0.0012560913
-0.0033909166
-0.0047687716
-0.001489791
0.002512847
5.633422E-4
-3.333614E-4
0.0021110529
0.003282734
0.0048298854
0.004205405
0.0022016224
0.003521652
0.004239148
0.0028387466
9.837634E-4
-0.0021460026
-0.0055782553
-0.0054953056
-0.0010445326
0.0016667821
0.0022003446
0.0020682744
-0.0016821458
-0.0019443964
0.00221021
0.0010071971
-0.0012346085
-1.974624E-4
-0.0015845567
-0.003905952
-0.0026336478
7.3604245E-4
0.00291182
3.683606E-4
-0.0048192963
-0.0039607473
0.0014756013
0.0041211355
0.0040832777
0.0014023281
-0.001295515
-0.00161348
-0.0021535216
-0.0011528374
-0.0010168749
-0.0036042186
-0.0034933574
-0.002263193
-0.0010234884
4.3222407E-4
4.7491933E-4
0.0015096567
0.0010761222
4.4005174E-5
0.0020297877
0.0024236406
0.0023602361
0.004021361
0.0039007175
0.0018189534
1.911745E-4
0.0023531346
0.005202617
0.0042934334
0.0029193903
0.001518871
3.1492332E-4
5.87173E-4
-0.0016397731
-0.005996248
-0.008094417
-0.0067456164
-0.00423125
-0.0045006084
-0.005181569
-0.002040562
9.6086616E-4
8.41594E-4
1.1211848E-4
-8.489595E-4
-0.0018248947
-8.874549E-4
0.0010930637
0.0018830282
0.0016886541
0.0015511761
8.260264E-4
0.001098815
0.0040380787
0.0056023123
0.005225511
0.0041873246
8.6335593E-4
-2.8913008E-4
5.9108436E-4
-3.8834527E-4
-3.8326424E-4
-0.002142882
-0.0044487426
-0.0011013125
0.0016699228
8.499254E-4
2.613351E-4
-8.657023E-4
-0.0029259266
-0.0040073036
-0.0022401772
-2.3754104E-4
-3.1894687E-4
-8.2930323E-4
-0.0014521307
2.4445477E-4
0.0024000863
4.5484706E-4
-0.0012612251
-7.3182787E-4
-2.2875196E-4
-1.820486E-4
-4.14765E-4
7.9249125E-4
0.0017525665
8.045321E-4
-7.1797415E-4
-0.0021739881
-0.0015864833
1.2798795E-4
9.709848E-5
-0.0014703221
-0.0022520649
2.583234E-4
0.0033916223
0.004627901
0.005732139
0.005920491
0.0039102808
-3.7061953E-4
-0.0049673202
-0.0048321923
-0.0012067615
-5.6452764E-4
-0.0013489742
3.1567318E-4
0.0010223826
2.0435153E-4
-4.2096397E-4
-0.0014313085
-6.384678E-5
0.0010520048
-9.452958E-4
-5.299692E-4
2.1595857E-4
-0.0014877759
-0.0017989744
-0.0014301515
-0.0010371254
-0.0018293852
-0.004160833
-0.00423313
-0.0037870395
-0.003486404
-4.978292E-4
0.0015148693
-1.9979858E-5
-0.0010306254
9.618997E-4
0.00378741
0.004561014
0.0019480739
-0.0013654591
-0.0025416587
-0.0044815387
-0.0067218267
-0.006085865
-0.005009795
-0.004439639
-0.0038526007
-0.0039249826
-0.0030588459
5.70278E-4
0.0052141347
0.006905411
0.008427414
0.012459183
0.0140177505
0.013399145
0.01312712
0.013748785
0.015257484
0.013338491
0.00988408
0.00748208
0.001846391
-0.007339451
-0.018235315
-0.025411038
-0.026134674
-0.026235873
-0.024627095
-0.019513095
-0.013409155
-0.0056880424
0.0011047095
0.00580797
0.0102157295
0.013637563
0.01737841
0.021879937
0.024382187
0.023430375
0.019368177
0.014335782
0.010019752
0.004700471
-8.610474E-4
-0.0032591573
-0.0068960073
-0.014552915
-0.022313625
-0.02960632
-0.02980392
-0.026225427
-0.032962967
-0.038274445
-0.038523696
-0.04293865
-0.036540583
-0.026146729
-0.026129913
-0.017760748
1.8872287E-4
0.01795485
0.040323354
0.06687772
0.092066064
0.10361155
0.103465706
0.103130184
0.0915979
0.06672823
0.030405004
-0.019378236
-0.056498803
-0.07524222
-0.09195659
-0.08999422
-0.063220404
-0.0325721
7.3783286E-4
0.037281055
0.044796187
0.019313838
0.013865383
0.027311362
0.019797387
0.0133233
0.022599528
0.03257126
0.042301133
0.034321643
-0.012608418
-0.09372006
-0.16400063
-0.19053055
-0.20013037
-0.17985606
-0.106909156
-0.0341031
0.0036476278
0.022686964
0.05679339
0.11022657
0.14260174
0.13644044
0.08692788
0.01721644
-0.013613692
0.0034641228
0.038903493
0.068508215
0.09951698
0.14701666
0.18019712
0.18424773
0.17556474
0.17936741
0.18805113
0.10892658
-0.06163797
-0.21094285
-0.30452338
-0.35725415
-0.35111377
-0.26844743
-0.16857904
-0.1201124
-0.08680612
-0.051381588
-0.0020070537
0.0860856
0.14511226
0.16086172
0.14600547
0.11992953
0.15283147
0.17195307
0.1708633
0.17636316
0.04515126
-0.1432857
-0.27929032
-0.3742365
-0.30362803
-0.13942863
-0.004555619
0.11688929
0.15025263
0.14969087
0.16901872
0.13247287
0.03208312
-0.13496748
-0.27668548
-0.27889192
-0.15319136
0.013599939
0.13689232
0.2631867
0.32998145
0.27823454
0.2595459
0.2299997
0.16279072
0.153333
0.11863648
-0.0050357813
-0.27216718
-0.55899704
-0.58035296
-0.39616793
-0.18413532
-0.042734575
0.015158823
0.10558572
0.11288039
-0.055412754
-0.17740864
-0.17549624
-0.14951168
-0.09374388
0.04623039
0.23102792
0.3376601
0.30075827
0.2215673
0.22775985
0.2552227
0.18499243
0.02536395
-0.10515914
-0.095993154
-0.019447267
0.03755951
0.07029636
0.018471275
-0.080825575
-0.11482932
-0.05497884
0.03651663
0.053484246
0.009825702
-0.041178804
-0.10778118
-0.21444128
-0.33950183
-0.30191052
-0.13730195
-0.087221436
-0.03819757
0.10501919
0.20509504
0.24365056
0.16257873
-0.017720828
-0.103774786
-0.10410432
-0.082827695
-0.004053806
0.06769801
0.09544665
0.13218184
0.14380482
0.07902281
-0.04012396
-0.12521376
-0.06320867
0.06410325
0.08089394
0.04523653
0.051048327
0.06243408
0.083670035
0.09586997
0.06909501
0.024406642
-0.08575582
-0.20880142
-0.19703473
-0.09811389
-5.464379E-4
0.07695868
0.10051385
0.09391151
0.05643757
-0.010246683
-0.01927979
0.007931937
-0.015262326
-0.060857512
-0.06532762
-0.037647188
-0.013773044
0.011089304
0.02457973
0.02784847
0.054531597
0.03479629
-0.08103579
-0.17758681
-0.1583101
-0.068608716
7.8013365E-4
0.025138073
0.027555576
0.026016898
0.033370133
0.05140418
0.08056322
0.10443172
0.102877624
0.08601015
0.040299762
-0.034560088
-0.07534448
-0.046326816
0.016935827
0.042988874
0.00924142
-0.026239466
-0.02757334
-0.008334157
0.014057288
0.02491869
0.024465902
0.019394316
0.012829064
0.0047812797
-0.012573065
-0.027263716
-0.02102233
-0.0113529675
-0.013209548
-0.013224135
-0.0037393076
0.007707687
0.01277351
0.01582244
0.020403916
0.020342752
0.018337598
0.014659266
0.00443929
-0.011487994
-0.02933125
-0.03712082
-0.0347936
-0.03103726
-0.02349987
-0.016475009
-0.0123673035
-0.009572734
-0.00885559
-0.0066290204
-0.009478452
-0.01487316
-0.009335444
-0.0016468583
-0.0024293405
-0.0052342834
-0.0025401874
0.002508056
0.005798182
0.0127869155
0.022988938
0.028860103
0.027855244
0.023337873
0.02308183
0.024959238
0.016976904
0.0041367197
0.0026055945
0.009442451
0.017052064
0.021537002
0.021575497
0.03632087
0.055126157
0.054525748
0.054720372
0.03334786
-0.029101705
-0.07529914
-0.09047619
-0.09247463
-0.083625026
-0.08088557
-0.07921034
-0.07072354
-0.05762462
-0.034470297
-0.015172994
-0.007991373
-0.0065101446
-0.008872744
-0.013132454
-0.016306346
-0.0076395418
0.0130461035
0.033180557
0.04884185
0.06378431
0.07977905
0.08703662
0.08960823
0.09137628
0.0779787
0.06164337
0.046058543
0.019517737
-0.005547531
-0.028993128
-0.041801784
-0.030615812
-0.01704982
-0.010961292
-0.009189298
-0.01239089
-0.016977075
-0.018009521
-0.014897502
-0.035309467
-0.08083228
-0.10319842
-0.09387466
-0.075526126
-0.05636842
-0.040509887
-0.020894246
0.0039520883
0.018624932
0.022180323
0.02962535
0.04181507
0.046241418
0.037559688
0.022845685
0.019238634
0.027810616
0.03464294
0.04269187
0.055120252
0.0691068
0.081074394
0.08148926
0.069989346
0.04603085
0.01975084
0.011959228
0.01187742
0.00770993
-0.0023206056
-0.034572367
-0.08290649
-0.11910439
-0.12389636
-0.10091209
-0.07755386
-0.06748782
-0.06453597
-0.062699795
-0.055076923
-0.03964579
-0.020094315
-0.0015002348
0.011788301
0.018235942
0.023159802
0.035602506
0.04767484
0.051797025
0.05966213
0.067524344
0.06342027
0.057593476
0.056521814
0.052322984
0.046212733
0.04238711
0.03658293
0.029358802
0.021956922
0.009053629
-0.0058092354
-0.015689412
-0.022386009
-0.026200673
-0.025510566
-0.02795201
-0.038128227
-0.042233814
-0.03548839
-0.030430783
-0.023957785
-0.011885893
-0.0024437914
0.004522214
0.005944765
-1.1218653E-4
-0.005465105
-0.011232851
-0.0156154735
-0.014466666
-0.012554117
-0.008679634
-0.005300256
-0.0025092023
0.00663975
0.012430165
0.0124803
0.014091688
0.011284838
0.010209206
0.017969642
0.021428846
0.0160348
0.0120827425
0.011595239
0.0063979053
0.0020739406
0.00422278
2.7242922E-5
-0.0040131453
0.0034123526
0.009845785
0.013233383
0.013721244
0.004717575
-0.0055511054
-0.010355911
-0.011255011
-0.009549237
-0.006282718
-0.0018273568
8.4556796E-4
0.0022409854
0.0042908383
0.005095696
0.006476521
0.007879356
0.004514926
0.0018581522
0.0066985735
0.007920218
3.750838E-4
-5.1152875E-4
0.0033106452
-7.807494E-4
-0.0032387732
0.0016062778
0.0023323968
-0.0037119675
-0.0067456067
-0.004243721
-0.0035339757
-0.0047207433
-0.0059425477
-0.008991082
-0.009587362
-0.0076236227
-0.0071654906
-0.0056182556
-0.0033218914
-0.0034785802
-0.003783737
-0.0027127748
-0.0025407786
-0.0027422784
-0.0023439163
-0.0027395103
-0.0016963596
0.0019723887
0.004721434
0.0045845127
0.003057379
0.0032975492
0.003402939
0.0021589324
0.0034219483
0.0024495362
-9.322795E-4
0.0011210481
0.0029064745
0.002258402
0.0042919163
0.0040430217
0.0014538199
5.234961E-4
-5.1785645E-4
-7.5856404E-4
-6.930885E-4
-5.1021716E-4
0.0017683798
0.0026095386
0.0025256665
0.0025013338
-0.0029237077
-0.008106311
-0.006857544
-0.0058049574
-0.0041554086
-5.921531E-4
-7.2032126E-4
-1.9089434E-4
0.0013846946
-0.0016023036
-0.0033156015
-0.0026515478
-0.003911166
-0.0038998022
-0.0020144004
0.0012559121
0.0041561485
0.0017902325
-0.0014580344
-0.0011096569
-6.318128E-4
8.90187E-5
0.0018787517
0.0022762294
0.0013155028
8.469732E-4
4.6870986E-4
-9.401704E-4
-0.0014460922
-5.899311E-4
-2.0928954E-4
0.0010278557
0.0021788455
7.20598E-4
-2.345207E-4
-6.140322E-5
-0.0022764585
-0.004084398
-0.0018196444
1.2914618E-4
-0.0016923647
-0.0030753976
-0.0015765729
-4.1253207E-4
-3.7470128E-4
-1.5520485E-4
1.8489147E-4
0.001445613
0.0024119676
0.0027700474
0.0036337832
0.002060135
8.6424325E-4
0.0023623959
0.0012246796
0.0015753604
0.0041769412
0.0022102112
7.091903E-4
-6.351876E-5
-0.0029720475
-7.7975786E-4
0.00339903
0.0035337892
0.0023862768
-1.227329E-4
-0.0021629045
-0.0035384346
-0.007492876
-0.0088916365
-0.006159597
-0.0037772956
-0.0014962897
-7.965125E-4
-0.0019092594
-0.0024460207
-0.0019559078
5.8326486E-4
0.001899631
9.940397E-4
0.0015221381
0.0012234618
2.52531E-4
7.879075E-4
0.0010117729
7.0943683E-4
2.338214E-4
0.0010703702
0.001977233
0.0011291092
0.0025969585
0.005061896
0.004673409
0.002342478
-7.474321E-4
-0.002228348
-0.0022377777
-8.3993375E-4
0.0015787003
7.3413685E-4
-4.4930764E-4
0.0015624835
0.0024794617
-1.6450412E-4
-0.0035388167
-0.0035948781
-0.0016833162
0.0016526514
0.005926984
0.0036762375
-0.0012279972
-0.0015697601
-0.0022387484
-0.0018138123
3.9232697E-4
-2.4073389E-4
-7.186357E-4
-8.530334E-4
-0.0012619606
-5.4350472E-5
-2.427169E-4
-9.249042E-4
0.0010852359
0.0028199744
-7.0323324E-4
-0.0056539928
-0.003106272
-1.9165118E-4
-0.0013914075
0.0017053259
2.639464E-4
-0.0066115395
-0.0036962945
0.0011412816
8.4277353E-4
0.0021226378
0.0024470992
0.001963316
0.003419924
0.0031108726
5.063474E-4
-7.5163285E-4
-7.542147E-5
-2.4646462E-4
4.2577798E-4
0.0034156735
0.005003763
0.004385139
0.0029865818
0.0022716227
6.350326E-4
-0.003352178
-0.0038484049
-0.0016216037
-0.002251771
-0.0029660824
-0.0014446428
-4.0307637E-5
-9.879486E-4
-0.0017744537
-3.793877E-4
-2.6596623E-4
3.571031E-4
0.0032778399
0.004135628
0.002320649
9.918819E-5
-4.991897E-4
-5.368208E-4
-0.0021266816
-0.0019710981
2.655702E-4
2.0563703E-4
-0.0019351653
-0.0035330867
-0.004148613
-0.003414952
-0.0014056121
-1.6546795E-4
2.6893773E-4
0.0014070668
0.002221421
1.1794183E-4
-0.0032565305
-0.0022659302
-1.3758992E-4
-0.0014070554
-7.233918E-4
0.0016336353
0.0027879488
0.0040767724
0.004711563
0.0055087144
0.004841804
0.0037365768
0.006532971
0.0070557217
0.0035939005
0.003037071
0.0032860357
-0.0014435902
-0.008508398
-0.010515535
-0.008418305
-0.0064473543
-0.004141005
-0.0028904476
-0.002119256
-0.0016463445
-0.0015110421
7.024844E-4
-1.4710787E-4
-0.0026817478
-9.405927E-4
-1.8335925E-4
-3.9368555E-5
5.060484E-4
-4.2094337E-4
0.001420594
0.0029190718
0.0026287062
0.003409079
0.0019366563
1.1110319E-4
3.433894E-4
0.0012224971
0.0026331567
0.0029285839
0.002498024
0.0022376843
0.0020605547
9.2526467E-4
-0.0018405427
-0.0020169532
-9.2205615E-4
-0.0022473973
-0.0025837994
-0.0010354966
0.0011518484
0.0024845314
0.0016493275
9.039219E-4
0.0013721039
0.0031215842
0.0036705404
0.0014159564
1.6571992E-4
-7.6697324E-4
-0.0024862867
-0.002772298
-0.0024548247
-0.0014344334
-3.0311974E-4
-0.0013602842
-0.0039220196
-0.00458435
-0.0016796543
-3.283084E-4
-0.0025678244
-0.0036946407
-0.0034419892
-0.0025579797
-8.348302E-4
-3.4298364E-4
3.2740826E-4
0.0025971257
0.003015239
0.0011530917
4.8498786E-4
0.0010803357
0.0018983886
0.0035218217
0.0039540245
0.0013931739
-5.747055E-4
7.654041E-4
0.0020697303
0.0028288101
0.004608321
0.0033879825
0.001465094
0.003177319
0.0030938229
0.0020432298
0.0028013475
0.0010464927
-0.0017935279
-0.0032438624
-0.0034212975
-0.0033856805
-0.0055315974
-0.0052322703
-6.5415795E-4
0.0012732336
-0.0012687106
-0.0039759325
-0.0032483477
-0.0015872912
-0.0026411263
-0.003309353
-0.0027398937
-0.0027428959
-0.0015475287
1.1683807E-4
4.0224544E-4
9.3268993E-4
0.0022522
0.0017493116
-0.0012814945
-0.0017783027
0.002676092
0.0057439455
0.0053623416
0.006835364
0.00885031
0.00628597
8.4751245E-4
-0.0024629997
-0.0025377125
-0.0016031072
-4.3730243E-4
-5.976873E-4
-0.0030090075
-0.0033645679
-0.0010196241
3.2868498E-4
-4.981624E-4
-0.0019896005
-7.1060617E-4
6.2080607E-4
-9.571591E-4
-0.0014639044
-0.0023457576
-0.0032438263
-6.835355E-4
6.596183E-4
-4.1984553E-5
-3.355582E-4
2.1511312E-5
0.00224691
0.0030758514
0.0025603669
0.0030423226
4.981473E-4
-0.0022288994
-0.0012825861
-0.0016315992
-0.0023541066
-7.823422E-5
0.0015388335
0.0011788541
9.6764066E-4
5.408849E-4
8.781941E-5
5.9090444E-4
4.7177693E-4
-5.0109654E-4
-9.135913E-4
-8.391169E-4
1.6454954E-4
9.0637396E-4
-5.3284765E-4
-0.0028662537
-0.0036744352
-0.0018548038
-0.0011939695
-0.0024604965
-6.128762E-4
0.0014036973
0.0018438341
0.0035782384
0.0032766862
0.0027979198
0.0039909105
0.0025745572
2.9382182E-4
-0.0018642287
-0.0029535266
-0.0011677375
-4.252406E-4
2.0206087E-4
0.0018341542
0.0014417727
0.001585503
0.003089041
0.0023419168
1.3302627E-4
-7.5078127E-4
-0.0021152534
-0.0038890908
-0.0039374176
-0.0052453927
-0.0039483416
-5.4289115E-4
-0.0057974444
-0.007996657
4.141649E-4
0.002684977
0.0010263934
0.0024498524
0.001880598
0.0029260153
0.0034404313
0.0010517584
0.003408662
0.0055261133
0.0033918987
0.0036198965
0.002596822
-0.0014240344
-0.0018321573
-0.0010173974
-0.0017919547
-0.0015320157
-0.0012535674
-7.580498E-4
0.0013861211
0.002493581
0.0017212183
0.0012958272
-3.9077808E-5
-0.002590737
-0.002438525
-0.0011747505
-0.0013184949
-9.392987E-4
-0.0013167621
-8.3385553E-4
0.0012901216
-1.2318132E-4
-0.001940826
-8.127502E-4
-5.8780613E-5
-9.663099E-5
-0.0014951655
-0.0025606737
-0.0010076974
3.08952E-4
4.2560924E-4
-8.4754045E-4
-0.0023245704
-7.252588E-4
0.001002388
0.0010156874
0.0010574128
-4.1707745E-4
-2.6080957E-6
0.0039147153
0.003917575
0.001687057
0.0019977314
0.0010276133
4.556267E-4
0.0028755716
0.0041274643
0.0021179214
-7.020305E-4
2.1396526E-4
0.0016790418
-0.001919425
-0.004850373
-0.0033409367
-7.521319E-4
-7.6164855E-5
-0.0019487882
-0.0025159786
-0.0012125607
1.4906858E-4
7.628591E-4
-0.0015146334
-0.0022260407
-3.2031926E-4
-7.385988E-4
-1.150744E-4
9.711893E-4
-2.1672125E-4
8.1018545E-4
0.0020201975
4.5405916E-4
-0.0013265142
-0.002308836
-0.0020834394
-0.0016736498
-6.069403E-4
9.0310257E-4
6.078832E-4
0.0011105607
7.3253183E-4
-0.0013787124
-5.502512E-4
-9.1465656E-4
-0.001540937
7.4195E-4
0.0013938966
0.005006751
0.008797446
0.006427865
0.00636305
0.0060472577
0.001921892
-1.1022468E-4
-0.0029938177
-0.004669004
-0.0024126961
-0.0021898472
-0.0025782408
-0.0013486261
-0.0017312776
-0.0034464677
-0.0039086826
-0.0031797073
-0.002027239
-0.0011560543
-0.002100272
-0.0025690428
-0.0013232335
1.8656909E-4
0.0018723259
6.956192E-4
-8.045493E-4
9.5660693E-4
0.0013239369
0.0010841035
0.0019853592
0.0026487594
0.0027818813
9.862651E-4
-5.2399444E-4
-0.0015647756
-0.0011867441
6.712695E-4
-0.0021316903
-0.0029804741
-5.988246E-4
-0.0036253259
-0.0036382903
-4.3691954E-4
-0.0014271009
-7.584844E-4
0.002733194
0.0043684863
-8.672732E-4
-0.006887011
-5.907018E-4
0.008128191
0.0072545973
0.0045181727
0.0060753278
0.008741778
0.008431228
0.0053901724
-5.006777E-4
-0.005403455
-0.0042105047
-0.003918522
-0.004138566
-4.099313E-4
4.5261186E-4
-8.3364063E-4
-0.004004424
-0.0074557
-0.0036536185
-0.001953221
-0.0043698526
-0.0035123536
-0.0042781234
-0.0031356844
-0.0016530842
-0.0040365765
-2.860543E-4
0.0032886975
0.0026161552
0.0049603283
0.0037834751
0.0026306428
0.0048596715
0.002876575
0.0026862454
0.005067482
0.0040299734
0.0023529658
0.0021263026
0.002833796
0.0012344668
-9.5594366E-4
-7.722762E-4
-0.0016617561
-0.0017442175
-0.001755971
-0.0033759207
-0.0027378532
-0.0021946924
-0.0017281143
-0.0014201474
-0.0025004258
4.213675E-4
0.0026206272
5.092275E-4
0.0011858811
0.0020667214
2.7011146E-4
4.970375E-4
0.001627305
-3.434754E-5
-0.0016104737
-0.0015076334
-0.002769202
-0.003169781
-0.0018063758
-0.0012873441
-0.0012245436
-0.0026081493
-0.0028189851
-0.001268216
-0.002048175
-0.0017555183
-1.8807614E-5
7.751644E-4
0.0015240787
7.230696E-4
3.246312E-4
6.604822E-4
9.24994E-4
0.0031308993
0.0037131992
0.0031467918
0.005168287