0.0016378338
0.0016202856
0.0010372218
-1.6895274E-4
-4.2066732E-4
-3.3342454E-4
-7.053319E-4
3.2311093E-4
0.0010306024
0.0013367262
0.0019756735
0.0017447834
0.0015571218
-7.920451E-4
-0.002459203
3.7730657E-4
4.3263484E-4
-0.001589457
-8.5708377E-4
-0.0012298429
-0.003042113
-0.003510884
-0.0012206996
5.1020173E-4
7.799179E-5
0.0026683332
0.0034675745
-1.9028949E-4
-3.353962E-5
0.0012111267
1.3025511E-4
3.6902068E-4
5.9931073E-4
2.9417843E-4
7.5114355E-4
0.0011666685
0.0012271384
0.0014860346
0.0014632277
-2.0063881E-4
-0.0014923194
-0.0010688127
-5.330852E-4
-3.6924772E-4
-0.0011995271
-8.6688914E-4
5.118339E-4
-7.7344844E-4
-8.7296317E-4
7.6889247E-4
-5.350054E-4
-0.002301146
-0.0038033582
-0.0045302254
-0.0017493563
0.0011076519
0.0021737586
0.0021401492
0.0014018803
0.0015587641
0.0012252652
3.4658122E-4
-4.6544804E-4
-6.842617E-4
0.0013847657
0.0013519997
1.3072128E-4
0.0023518105
0.002283918
1.6855591E-4
4.470211E-4
8.7630426E-5
-8.0470706E-4
-9.541356E-4
-7.419634E-4
1.8105644E-4
5.4375635E-4
-2.5924764E-4
-0.0013263042
-8.0314616E-4
8.779572E-4
0.0016438492
9.473098E-4
-0.0013816978
-0.002435842
-0.0021471116
-0.002177419
-2.040872E-4
9.823748E-5
-0.0013637057
6.285892E-4
5.765604E-4
-0.0023959053
-0.0013068506
0.0016333985
0.0013454424
-4.6697148E-4
1.177299E-4
0.0014689993
7.175243E-4
-7.102251E-4
-9.878111E-4
8.633274E-4
0.0022346228
9.730961E-4
4.9366703E-4
0.0013553649
9.341686E-4
-7.013403E-4
-0.0013446744
-0.0013118768
-0.002519912
-0.0017260262
0.0012444147
0.001986758
0.0017586626
0.0015740994
0.0010066681
5.2775873E-4
-9.315314E-4
-0.0013344089
8.731841E-5
8.271692E-4
0.0014382631
0.0013141418
-6.2176056E-4
-0.0022947157
-0.002387788
-0.0010167698
-6.796392E-4
-0.0018547671
-5.759225E-4
9.375367E-4
5.2671426E-4
1.9352716E-4
-0.0025267983
-0.0021785595
0.0021804282
-0.0018070542
-0.0058947126
-0.0012980789
8.108877E-4
0.0011419603
0.0029594044
0.0025618083
0.003040786
0.0058198725
0.006349162
0.0012075092
-0.0021232264
1.15974035E-4
-6.239534E-4
-7.6779246E-4
0.0016626432
0.0010378412
0.0010876539
-0.0016272733
-0.0064474596
-0.0044079274
-0.0015459375
-0.0014511781
-9.854698E-4
-6.7131507E-4
-7.3061135E-5
-0.0012726124
-0.002529976
-0.0011627952
-7.6180085E-4
-5.046279E-4
5.169085E-4
4.0256637E-4
0.0017113319
0.003945378
0.0039886874
0.0041015786
0.0041713743
0.002292859
0.0018767022
9.6220424E-4
-0.0032679245
-0.0034129506
6.7508494E-4
0.0012082519
7.567214E-4
0.002293332
8.309456E-6
-0.004192616
-0.0037089137
-0.0030309919
-0.00332941
-9.910893E-4
1.0486865E-4
2.9149212E-4
-6.623157E-5
-0.0023454642
-0.002497264
-0.0022077928
-7.3731545E-4
0.002702011
0.0022883224
0.0024196166
0.0033361935
4.6710047E-4
-0.0010158515
-0.0017687702
-0.0024501553
-4.4152836E-4
0.00107727
0.0021291545
0.00313881
0.0029988775
0.0012853105
-0.0017565478
-0.0019310501
1.2857903E-4
0.0010574902
0.0010826777
-5.891248E-4
-0.0022643502
-0.0020604585
-0.0014449784
-0.0012580074
-7.7494764E-4
0.0014990688
0.0031877237
0.0022651
0.0015599343
5.3712184E-4
-0.0012205293
-0.0013691576
-0.0015395075
-0.0016912665
1.5018941E-4
0.0019237921
0.0024631426
0.0017746609
0.0011340728
0.0018085651
-5.444404E-4
-0.002568175
0.0016064382
0.002869393
-5.7940156E-4
-0.0016538425
-0.0020469753
-0.0014635654
-9.761893E-4
-0.0027338834
-0.0028273172
-0.002612053
-0.002575833
-0.0011038728
-0.0017051565
-0.0031476754
-0.0018860459
0.0010003763
0.0017110565
3.698065E-4
9.856579E-4
8.213782E-4
4.1302264E-4
0.0029191673
0.0023179152
4.5503044E-4
0.0017918351
0.0027889838
0.0037790409
0.0033347008
0.0017287607
0.0015525299
-6.3890056E-4
-0.001615774
2.8699415E-4
0.0011018577
0.002834797
0.001905639
-0.0019119519
-2.6124023E-4
0.0025292842
-2.228273E-4
-0.0041467305
-0.005114151
-0.004265218
-0.0028585598
-3.9965776E-4
9.277633E-4
2.039673E-4
-6.729649E-4
-0.0017268561
-6.160789E-4
0.0010677545
-0.0019810006
-0.004329948
-0.0018234109
-7.6929064E-5
-1.129459E-4
-1.8375918E-4
-2.9834277E-6
0.0021890798
0.0030716984
6.659055E-4
1.0934653E-4
0.0010538459
0.0017876225
0.0022667274
-4.480958E-5
-6.9810404E-4
0.0014981951
0.002068093
0.0028319524
0.0012691444
-0.0012555756
8.9180423E-4
8.9183386E-4
-0.0011800968
-2.942489E-4
-0.0020358406
-0.0053300615
-0.0047399225
-0.0020183404
0.0010328529
0.0033050915
0.0031548245
0.0020560063
0.0025289515
0.0033272072
0.0018314305
-9.2426426E-4
-0.001804023
-0.0010776724
-7.17312E-4
1.7861906E-4
0.0011557145
6.8285735E-4
-0.0015662038
-0.003972477
-0.002177068
4.626915E-4
2.1320398E-4
-7.008743E-5
-0.0020784049
-4.957277E-4
0.0038686232
-0.002664336
-0.008644667
-0.0031941216
4.3924857E-4
9.91273E-4
0.0020085652
9.99762E-4
5.214231E-4
4.1775077E-4
-1.1263652E-4
7.7296264E-4
0.0023601702
0.0027230615
0.0016795167
0.0011325206
0.0011049804
0.0011911785
0.0018348194
0.0012842687
4.1235788E-5
6.3168304E-4
9.920252E-4
-4.8542552E-4
-7.1471295E-4
-7.205306E-4
-0.00228006
-0.0015740731
1.8759604E-4
4.3320865E-4
9.900013E-4
0.0010644941
0.001824891
0.0033015728
0.0017954897
-8.653625E-4
-0.0025601375
-0.0037654943
-0.0045236377
-0.0048579876
-0.0041392315
-0.0026354988
5.583057E-4
0.002464368
-4.7797002E-4
-0.0010942346
0.0016262127
0.0014431498
2.0791442E-4
-8.160383E-4
-9.702306E-4
7.455183E-5
-2.708789E-4
1.4790602E-4
0.0020434223
0.0036638214
0.0041443435
0.002526174
0.002551951
0.004218388
0.0028870408
-0.0015170372
-0.005132494
-0.0024544368
0.0015819318
0.001002602
0.002332291
0.0029403195
-0.0017927446
-0.0043659457
-0.0033697598
-0.002012196
-0.0020836
-0.0034319963
-0.0030096215
-0.0020712256
-9.4028504E-4
4.544495E-4
7.2396477E-4
9.444292E-4
-5.5182824E-4
-3.270483E-5
0.0033515128
4.2798414E-4
-0.0026093533
3.8084222E-4
0.0014129173
0.0011622435
0.0016318314
0.0029744776
0.0052060178
0.0018136675
-0.0018147534
9.463533E-4
0.0017544591
1.5927808E-4
1.0698402E-4
-5.284776E-4
-3.720437E-4
7.8635925E-4
0.0013631092
7.050016E-4
-0.0023402714
-0.0047166506
-0.00432315
-0.0025625918
-3.373504E-4
-1.02219296E-4
-6.5825257E-4
7.7130704E-4
5.337557E-4
-0.0012207625
2.5317352E-4
0.0018685886
5.405071E-4
1.9845137E-4
9.732617E-4
7.575017E-5
-7.689555E-4
-1.8666501E-4
2.2821336E-4
-3.5814583E-4
-4.8510198E-4
4.5071787E-4
7.4176193E-4
6.786212E-4
4.4931498E-4
-3.852477E-4
-1.0049337E-4
-2.832339E-4
-0.0015888588
-0.0014691601
-6.1151583E-4
9.803767E-4
0.0010365169
-0.001204198
-3.329101E-5
0.0012168818
-3.2607387E-4
3.226217E-4
2.9298995E-4
1.7522101E-4
0.0032369648
0.0044508665
0.003731551
0.0016801088
-0.0016074394
-9.5148984E-4
7.133948E-4
-3.7140163E-4
-0.001060863
-0.001838567
-0.0032619708
-0.0038477492
-0.0034511085
-0.0023756507
-6.3131197E-4
0.0025084876
0.003839927
0.0019134497
8.683462E-4
-4.8239395E-4
-0.0025560637
-0.0014438075
6.633562E-4
1.6846255E-4
-0.0016419027
-0.0013036077
6.4212224E-4
9.269947E-4
6.457422E-4
7.3762017E-4
0.0010166358
4.252558E-4
-0.0019008309
-0.0011655113
8.2599244E-4
-4.7046063E-4
-5.325181E-4
1.0358373E-4
-5.6768465E-4
-9.928814E-5
6.72279E-4
0.0012752786
0.0013327005
0.0016772936
0.002399254
7.329964E-4
-8.9320616E-4
-1.06678985E-4
0.002248017
0.003524466
0.0015623935
5.076574E-4
2.6154835E-4
-0.0010248958
-7.526868E-4
-0.0012409436
-0.0028736803
-0.002881143
-0.0013056304
7.0949784E-4
6.465137E-4
-0.0017144965
-0.0031110982
-1.9678741E-4
-3.7509648E-4
-0.0076062353
-0.0059239394
0.0017355325
0.0012402532
3.158024E-4
6.2286784E-4
4.3754047E-4
0.001892969
0.0019471116
0.003140415
0.0026355437
9.23695E-4
0.002895179
0.0021052198
0.0026738013
0.0067279856
0.006339809
0.0039539207
-4.8249378E-4
-0.0045185294
-0.0036848148
-0.0030183862
-0.0025428603
-0.0016512073
-0.0021450003
-0.0033168304
-0.004074457
-0.0025015064
-0.0024489134
-0.0038051896
-0.0022674443
-0.00161686
-0.0011868626
2.7047782E-4
-4.8671546E-4
-3.2813067E-4
0.0015509325
0.0019516431
0.0020678486
0.0036462327
0.0053473646
0.0059450874
0.006079041
0.0054328497
0.0035236273
7.172001E-5
-0.0027968942
-6.120099E-4
0.0022884568
2.8524772E-4
-0.0019335347
-0.0033356536
-0.0075907726
-0.010145708
-0.0067112725
-0.0029051013
-0.0021395371
-0.0012855161
-7.2972465E-4
-0.0014519574
-0.002210402
-0.0016596823
0.0019793897
0.0046031345
0.0031980705
0.0029127216
0.0043378975
0.004814988
0.0052086418
0.0052229436
0.004886335
0.0046939654
0.003501174
0.0016686259
2.3769537E-5
-0.0015524623
-0.0025300637
-0.003457728
-0.0042210366
-0.0027420642
-0.0015576376
-0.0028209223
-0.0031189595
-0.003511319
-0.004707692
-0.003679213
-0.0029472003
-0.0027533148
-0.001510558
-0.0015136696
-6.043831E-4
0.0012436231
0.0013049688
0.0018423684
0.0022268833
0.0024629105
0.0036469258
0.0025115798
0.0017240931
0.0037450464
0.004073866
0.0014438338
-0.0016270793
-9.820596E-4
0.0016044701
6.5354374E-4
-4.047696E-4
-0.0015070456
-0.0036915322
-7.959674E-4
0.0021649762
2.2765178E-4
3.6878063E-4
0.0025354302
0.0021604293
-7.432634E-4
-0.0033245583
-0.002997477
-9.008617E-4
0.0013828095
0.0012075539
-9.7641523E-4
-0.0014740123
-0.0021424512
-0.0019085816
-0.0010813259
-0.0034512617
-0.002157362
0.003130567
0.0045463955
0.0036982298
0.0021225214
-7.342524E-4
-0.0042123636
-0.0064695454
-0.005093322
-0.002645486
1.6723228E-4
0.0032606889
0.0032741174
0.0010924148
6.5704045E-4
0.0029557848
0.0031088914
0.0025321902
0.0054310276
0.003371034
-0.0025654507
-0.0037635232
-0.0025715001
4.2069034E-5
0.0010275928
3.5941214E-4
0.0019946888
9.576014E-4
4.909554E-4
0.001966919
-7.67187E-4
-5.5518904E-4
0.0015676221
-9.728201E-4
-0.0010923572
6.182755E-4
-0.0011008612
-0.0022633318
-7.93335E-4
1.08289E-4
-5.8216095E-4
-3.5487424E-4
0.0010673237
7.897332E-4
-0.0013493412
-9.785312E-4
0.0020392
0.0025557266
0.0014018063
6.031016E-6
-0.003305781
-0.0055461247
-0.005639009
-0.0056078453
-0.0048478683
-0.0040905993
-0.0052877185
-0.005682289
-0.0022815885
7.456392E-4
0.002615595
0.0050358404
0.0027560736
-3.7064392E-4
0.002670669
0.0058977944
0.007325897
0.008503526
0.0039360514
-0.00459601
-0.0071625826
-0.0035764903
0.001069698
0.007512615
0.0107242875
0.00843553
0.010155578
0.008163192
-0.0049772444
-0.008477562
0.0018514589
0.0066490406
0.0030855606
-0.002612303
-0.006563232
-0.005482828
-0.004276312
-0.0029468122
0.0033228826
0.0037803776
-0.00593709
-0.013554931
-0.01813375
-0.0195361
-0.013750027
-0.008439658
-0.0030687451
0.0042200196
0.0028769146
-0.00288052
-0.0035209956
-0.0017360843
0.0011447896
0.004357124
0.008182587
0.011926162
0.012439195
0.014220182
0.017251153
0.017234564
0.017460704
0.016750257
0.013137802
0.011401459
0.011782079
0.010714277
0.008901685
0.005193047
-0.0066024675
-0.022563722
-0.03281796
-0.039901353
-0.043092474
-0.032886032
-0.016080678
-0.008861013
-0.012936107
-0.019349722
-0.017584823
-0.003412319
0.014249495
0.025138032
0.025953632
0.02225216
0.020231662
0.011695619
-0.0012815553
6.116691E-4
0.01618871
0.020922726
0.005584397
-0.0035092763
0.004480553
0.007979597
0.0045024655
-0.0036720925
-0.010998516
-0.0027416523
0.0050721173
0.0047349585
0.007289929
0.005903435
1.2712169E-4
-0.0073716077
-0.013589233
-0.011941885
-0.0053489082
0.0064048925
0.014807282
0.009551381
-0.0023363945
-0.010064065
-0.008307959
-0.0063467124
-0.0012445066
0.009259432
0.0056466507
0.0033536158
0.006367314
-0.007731103
-0.008020562
0.011902329
0.006219459
-0.022343867
-0.038582962
-0.030959325
-0.0061211153
0.017858211
0.017226912
-1.2807682E-4
-0.0062726326
-0.0012756623
0.011574233
0.015188623
-0.015327587
-0.045736756
-0.05173521
-0.053964026
-0.04039125
0.0012437218
0.033096615
0.029818853
0.025878755
0.035647802
0.037946437
0.051850896
0.06837279
0.04857902
0.025865508
0.02939478
0.035149902
0.04041272
0.0525724
0.04497279
0.015386886
0.011016626
0.007110998
-0.04176927
-0.08081671
-0.094899364
-0.11293202
-0.1114495
-0.09262792
-0.07334325
-0.06564716
-0.069293074
-0.041489422
0.0022112834
0.0150934905
7.3240127E-4
-0.015143325
0.01023462
0.054153804
0.07543639
0.104166076
0.12000548
0.10451517
0.09805449
0.09465307
0.06602866
0.0037906687
-0.030086922
0.009514112
0.035474814
0.015667507
-0.00657666
-0.009442119
0.025044054
0.02345943
-0.06122423
-0.13920441
-0.16085805
-0.14198665
-0.09949868
-0.04489845
0.021017032
0.07792759
0.09774856
0.07669626
0.025722532
-0.06167148
-0.14725968
-0.15420555
-0.10999402
-0.041103758
0.06490732
0.12916097
0.13406295
0.1324324
0.10669936
0.033305008
-0.07298461
-0.12627517
-0.071397945
0.013882012
0.082272224
0.13912348
0.16286457
0.1305132
0.04580126
-0.01783404
-0.006040293
0.028459942
0.033392902
0.01144126
-0.018338462
-0.024089541
-0.0056486693
-0.013799717
-0.054007184
-0.0947591
-0.11288218
-0.10561408
-0.14613546
-0.21302295
-0.20197324
-0.1559298
-0.085048415
0.030211799
0.10693752
0.13622878
0.12842862
0.098858856
0.09348347
0.076986246
0.067424186
0.08610442
0.056753464
0.0047608274
0.0270188
0.0826885
0.06019612
0.031794854
0.08480521
0.0962061
0.035982564
-0.03162376
-0.092198744
-0.085735455
-0.05340905
-0.059082016
-0.07796966
-0.11549946
-0.120543145
-0.08920942
-0.08852382
-0.08052374
-0.05045761
-0.01595772
0.010409124
0.0092337895
0.051818844
0.1369269
0.1651858
0.14534803
0.11423343
0.04909825
-0.045381535
-0.08825151
-0.0407356
0.032049228
0.09841177
0.100011006
-0.01506402
-0.09515493
-0.0639879
-0.035832983
-0.042864755
-0.06878024
-0.07123266
-0.026111664
-0.011569086
-0.00829568
0.014315166
0.008024337
0.020848602
0.042091403
0.00926463
-0.034789298
-0.07218037
-0.089995265
-0.066847034
-0.025149697
0.019311007
0.033775736
0.029291663
0.04617391
0.052445676
0.030214608
0.004426104
0.0025363169
0.021402119
0.022812221
0.019199116
0.031170828
0.024684666
-0.015870586
-0.049202308
-0.03868411
-0.006179973
0.025041528
0.051342413
0.057489168
0.046477724
0.050119914
0.0805887
0.076437764
0.023291955
-0.010680324
-0.05910907
-0.12953685
-0.1282974
-0.081778385
-0.051142223
-0.00565918
0.05587616
0.052093882
-0.031048598
-0.08001404
-0.07707839
-0.074488945
-0.03740029
0.022307971
0.06459383
0.08373318
0.07079554
0.058722205
0.034178097
-0.032667007
-0.06741615
-0.040787917
-0.0101684155
0.0036460462
0.010900138
0.0147121595
0.017073069
0.020732068
0.018934177
0.013704405
0.014321294
0.012562763
0.0043737744
-0.0051962086
-0.009966461
-0.009051286
-0.011282172
-0.010221457
-0.002810187
0.0020185013
0.010203213
0.022004722
0.028825643
0.03091275
0.029002149
0.021039125
0.011480696
0.0072029405
0.0014737222
-0.006508384
-0.0071594166
-0.00692452
-0.0081528
-0.0052465918
-0.0029102077
0.0014341235
0.01037071
0.011649648
-0.0013985552
-0.021002125
-0.033838462
-0.02970632
-0.017343087
-0.012641578
-0.010860856
-0.010079638
-0.014619851
-0.012104885
-0.004326278
8.914932E-4
0.010083828
0.014269196
0.010840581
0.009722788
0.004959898
-7.413605E-4
-0.0038376807
-0.015059894
-0.028380543
-0.02630015
-0.008573944
0.0059321355
0.009085258
0.012483004
0.019135745
0.02332826
0.019874284
0.012208093
0.010686988
0.005200967
-0.008154663
-0.0054713646
0.01321385
0.013919531
-0.013279016
-0.03286546
-0.02535347
-0.013008501
-0.007184519
-0.0029028326
0.0022875944
0.016284538
0.043822978
0.07212083
0.082262985
0.07930491
0.0730637
0.049016297
0.0066957874
-0.032392
-0.057563964
-0.06586344
-0.056544304
-0.04167607
-0.031302027
-0.013196091
0.00672827
0.0057222596
0.0031693978
0.011239454
0.0069277664
-0.010261253
-0.034734003
-0.05969047
-0.06741341
-0.0702288
-0.08312852
-0.08643975
-0.06831724
-0.04093283
-0.013242155
0.007826454
0.019601766
0.034378696
0.052727208
0.06353469
0.06578988
0.059696928
0.05187149
0.046968438
0.03864032
0.029286122
0.018679712
0.005311109
-7.49453E-4
9.183996E-5
0.0014699989
0.008053213
0.022086956
0.036626726
0.045306627
0.043566804
0.037135202
0.039938096
0.034593787
3.466059E-4
-0.04295283
-0.08641006
-0.120184
-0.11110983
-0.07543767
-0.05023437
-0.034888282
-0.025161998
-0.014900398
0.0011736233
0.012581087
0.018307509
0.024625648
0.028856665
0.021257441
0.0020663748
-0.0059774835
-5.1769905E-4
-0.0031073324
-0.007141913
-0.004196864
-0.003840713
-0.0016827588
0.0045988215
0.012207781
0.024942428
0.034400653
0.031115381
0.019589977
0.012013309
0.011745655
0.0030769398
-0.011978383
-0.01391559
-0.007237766
-0.0045551653
-0.007728656
-0.011826691
-0.010898273
-0.00790427
-0.0022383379
0.010195199
0.024248742
0.030917881
0.027548155
0.02258897
0.015931567
0.0028794804
-0.0077853515
-0.016874133
-0.025425453
-0.02440815
-0.020514997
-0.019913906
-0.0175028
-0.013694324
-0.010331549
-0.004845334
0.0013060983
0.0013281776
0.001601771
0.006652575
0.0042751483
0.002179897
0.013275628
0.021389259
0.013627684
0.0032764124
0.0026033246
-7.833003E-4
-0.008365476
-0.0020955612
0.007523651
0.0065353354
0.0021843472
-0.0036375609
-0.007140199
-0.006336288
-0.0050150584
-0.0030023088
-0.002495152
-0.0030824817
-0.0047734887
-0.006299628
-0.0037544717
-0.0015689873
0.0012092362
0.0046749967
0.003415732
0.0044330223
0.008619202
0.007852234
0.0037030596
0.0021241542
0.0072726756
0.014874265
0.016304644
0.011328432
0.005210114
0.0011820815
-0.00227607
-0.003117781
-9.842225E-6
-0.0028502806
-0.009669391
-0.008182667
-0.0047595096
-0.005431262
-0.0033056152
-2.930103E-4
-7.731793E-5
-1.7526581E-4
-9.174492E-4
-0.0010698498
1.6619434E-4
0.0012253528
0.002421719
0.0017404966
-7.0865516E-4
-0.0020339754
-0.0021492005
-3.7966718E-4
0.0022145982
0.0032442452
0.003606014
0.003827847
0.0021847181
-0.0015221568
-0.0034853502
-0.0024584318
-0.0011178162
0.0010968975
0.0051315785
0.009281216
0.011065136
0.009770417
0.0066471132
0.0021834583
-0.0021262898
-0.0057827453
-0.0076204888
-0.005400704
-0.0031794903
-0.0020718956
-2.966807E-4
3.5362938E-4
0.0029580048
0.0065226494
0.0056490046
0.0012573167
-0.0030658448
-0.0032346467
-0.005381693
-0.013112018
-0.014640038
-0.011403075
-0.0072804727
0.0011744755
0.0035450445
0.0015200968
0.0065006786
0.009398549
0.004761039
9.574853E-4
0.0021941473
0.0043273806
0.002037432
3.2240385E-4
0.0030836647
0.0034301453
0.0012064651
0.0015811526
0.0026410553
0.0034495858
0.004959245
0.0030773648
-0.0028711474
-0.00641179
-0.006258029
-0.0062139668
-0.004602645
-8.524286E-4
3.7959544E-5
-0.001023071
-0.0011870064
-0.0014010153
3.2094153E-4
0.0016722549
-6.434721E-4
-0.001963148
-0.00203214
-0.0014326957
6.7247107E-4
8.35232E-4
0.0015115852
0.0023604187
0.001059487
0.0033874519
0.0067263697
0.00647694
0.004312675
-2.843742E-4
-0.0037516586
-0.0042174896
-0.0041432655
-0.0030796393
-0.0018471272
-0.00133588
-4.3657393E-4
0.0018619872
0.0026955167
8.9761225E-4
6.401542E-4
-3.9987086E-4
-0.001497312
0.0011676593
0.0017497755
1.4185264E-4
-0.0018549366
-0.004727011
-0.0038396332
-0.0013231175
-1.2735334E-4
4.57314E-4
2.506996E-4
6.0784223E-4
5.487312E-4
0.0011032687
0.001838014
-2.0734506E-5
-0.0021126454
-0.0031811264
-0.0015546436
5.176562E-4
5.472197E-4
0.0031218163
0.0034218603
4.092296E-4
0.001063617
0.0022995237
0.0037023989
0.0050775874
0.0035686186
0.0021161726
0.0019507947
0.0016011866
-0.0022440003
-0.005554824
-0.0029417225
-9.210067E-4
2.8717038E-4
8.979839E-4
-0.0028657084
-0.0045171115
-0.0016589705
0.0017100516
0.0016960233
-7.691124E-4
-5.15677E-4
-0.0019373073
-0.0048788995
-0.0037636415
-8.133343E-4
0.0015089035
2.3773617E-4
-9.812175E-4
-5.5166084E-4
-0.0025401283
7.4592803E-4
0.0052629258
0.0023523688
0.001021491
0.0015711259
5.643614E-4
4.4173814E-4
9.659574E-4
0.0023788298
0.0019389541
0.0011733904
0.0026358475
0.0033576114
0.0038318674
0.0027831804
7.0026115E-4
-3.7741347E-4
-0.0019744458
-0.0018988226
-0.0020921007
-0.0032297994
-0.0015879921
-4.2132658E-4
0.0010727752
0.0021288414
-0.0011834463
-0.001460515
9.262406E-4
-7.3957763E-4
-0.0020265472
-0.0030720294
-0.0044669323
-0.0010080236
9.971703E-4
-0.0017174678
-0.0019781764
-0.0015254926
-6.639825E-4
0.0022806872
0.002106252
0.0023197408
0.0051755933
0.0040995423
6.5823173E-4
-0.0013080391
-8.742596E-4
0.0010469893
2.7427217E-4
-0.001006718
-7.371754E-4
-0.0023059123
-0.0031371627
-0.0010339022
4.1881038E-4
2.4126425E-4
-1.2202837E-4
6.832769E-4
0.0024396947
0.003150277
0.0023546808
4.5847203E-4
-0.0013841434
-0.0012913352
1.9420122E-5
1.2285676E-4
-0.0010771572
-9.376589E-4
4.0307862E-4
4.0020887E-4
-7.933085E-4
-0.001751666
7.164977E-4
0.004542674
0.0033309686
0.0010020561
-3.6000015E-4
-0.0023027626
-5.145548E-4
9.6393103E-4
-4.1497345E-4
-3.35482E-4
-0.0012073666
-0.0028531915
-0.0032603208
-0.0021320924
1.8249742E-4
-6.487321E-5
-0.0011206614
-0.001169529
-0.001006877
0.0011693047
0.002708668
0.00227039
0.002634867
0.0044818493
0.0025985914
-0.0050462987
-0.005925453
8.8809704E-4
0.0032493323
0.0030921188
0.0031935314
0.001747628
-3.0098046E-4
-0.0021817766
-0.0025387255
-0.00242675
-0.0013109159
6.945498E-5
3.4912542E-4
0.0030871388
0.0031525178
-0.0010187009
-0.001523139
-0.0026114832
-0.0060827713
-0.0051281946
-0.002424427
-0.0022489505
-0.001635435
9.628819E-4
0.0014410057
5.577362E-4
0.0028411723
0.0036964884
0.001965286
0.00404798
0.005878607
0.0044137198
0.004563692
0.0032909282
6.2395073E-4
6.6922803E-4
-4.0293895E-4
-8.1319397E-4
-6.278908E-4
-0.0036780236
-0.0031278708
-8.3065993E-4
-0.001209972
6.6589745E-4
7.808702E-4
-0.0017185201
-0.0014052258
-1.5704049E-4
2.0451947E-4
-0.0014675496
-0.0046279994
-0.0062187253
-0.0049187965
-0.002097604
-0.0010726287
3.0972858E-4
0.002364103
0.0013241819
0.0011555044
0.002378965
0.0011070253
-2.863697E-4
-1.8910269E-4
4.2591593E-4
0.0014789425
0.0020257104
7.245577E-4
-3.721663E-5
2.2645963E-4
-9.152534E-4
2.2403587E-4
9.42017E-4
-0.0011927778
0.0024867794
0.005050519
0.0012294601
0.0013923962
0.0023638422
0.0017005859
0.001187039
-0.0027175136
-0.0036295587
-4.2294044E-4
0.0018360433
0.0037861525
0.0021770194
-8.932873E-4
-0.0014052587
-0.0018289284
-9.14835E-4
0.0011787247
0.0018585258
8.395531E-5
-0.003006473
-0.0036744406
-0.0039854483
-0.0044947206
-0.0020119837
-5.411127E-4
-0.0013015867
-9.1051817E-4
4.3637303E-4
0.0018592088
0.0022234675
0.0010476166
-5.669259E-4
-5.6491606E-4
3.6701062E-4
-6.1996863E-4
-0.0012388668
-0.001268216
-0.0015599829
5.0160516E-4
9.468797E-4
-3.5089353E-4
0.0018203728
0.003539049
0.002650384
0.001540056
1.5321819E-4
-6.318912E-4
-1.4994826E-4
0.0013285964
0.0024572364
0.0027826854
0.0031542592
0.00240397
0.0020508058
0.0019849474
-0.001954744
-0.005488518
-0.0043725194
-0.0034518985
-0.0025534413
6.5376825E-4
0.0028774603
0.0043099835
0.0052942685
0.0026376972
-0.0018727297
-0.0036934568
-0.0031674185
-0.00332152
-0.0024227262
-8.647611E-5
-0.0016095483
-0.004244668
-0.002926519
-9.08044E-4
-8.905149E-5
1.7389443E-4
9.472311E-4
0.0022296568
0.0013724855
-5.1400164E-4
-0.0011830375
-0.0010638111
-8.5567817E-4
1.5256093E-4
0.0020791856
6.633188E-4
-0.0020482019
1.5690527E-4
0.0035346432
0.0035796866
8.562941E-4
-8.824954E-5
0.0025005355
0.0025182562
0.0026664261
0.0056186924
0.004605861
0.0018701716
8.2246633E-4
-7.0977985E-5
-1.6746671E-4
-0.001214571
-0.003723824
-0.0049329735
-0.0037718753
-0.0027780351
-0.0029111616
-0.0023192621
-0.0031738807
-0.0032966146
-3.6582985E-4
5.169876E-4
0.0014268121
0.002186187
-4.4897778E-4
-8.4541045E-4
-6.5953255E-4
-0.0021276255
-0.0012920804
-6.1291846E-4
2.5135642E-4
0.0021075145
0.0024739532
0.004015285
0.0054459274
0.0020065603
-0.0028887342
-0.001565337
0.0028736023
-2.1378079E-5
-0.0050868914
-0.0028100421
0.0012723958
0.0018591143
6.6760223E-4
0.0012112553
0.0036090515
0.0024970581
-7.7467563E-4
-0.001009032
7.941082E-4
0.0023355284
0.0016679948
-9.797917E-4
-0.0021660703
-7.9998875E-4
3.29026E-4
8.716286E-4
0.0037603865
0.004827895
2.8432492E-4
-0.004732394
-0.007104807
-0.0047468604
-0.0013519933
-0.0030790875
-0.0030340403
-0.0020119883
-0.0046201777
-0.0029394957
-9.069841E-4
-0.0026760844
-4.7539154E-4
0.0029256775
0.0031256492
0.0021468534
0.0017529629
0.0027572324
0.00240163
0.0016532567
0.0037758634
0.005944918
0.005399111
0.003485239
0.0029721272
0.0032341618
0.0015118951
-0.00164223
-0.0036474844
-0.002356193
1.0145468E-4
6.885338E-5
-8.7903073E-4
-6.220799E-4
-1.7087492E-4
-5.972894E-4
-0.0011570969
-0.0020592874
-0.0034897805
-0.0016657335
5.7435455E-4
-0.0021808904
-0.0037947223
-0.0028430198
-0.004061856
-0.0037184677
-7.848273E-4
7.517572E-4
4.8548053E-4
4.2602108E-4
7.407748E-4
-0.0014335022
-0.0030591602
-0.0010650328
-0.0015524001
-0.004095195
-0.002819431
3.4212347E-4
0.0028737127
0.004088465
0.0037306508
0.0042711366
0.004547593
0.0033986808
0.004257276
0.004100664
8.70233E-4
0.0012149767
0.004373423
0.0066275755
0.008936205
0.007403255
0.002617819
0.0012694953
6.0357543E-4
-0.0037965714
-0.0067797923
-0.0054424815
-0.00509652
-0.006407541
-0.006295443
-0.005978408
-0.004014052
-7.235336E-4
-5.058564E-4
-8.4741286E-4
-0.0010151694
-0.0032946058
-0.0034992124
-0.0021521298
-0.0020452137
-9.0262183E-4
-7.9262606E-4
-0.0015230686
-7.8632956E-4
-8.342488E-4
8.783612E-4
0.0022949323
-5.528158E-4
-3.2706E-4
0.0020430395
0.0026424718
0.0044063455
0.0028264849
-8.129115E-4
-9.973423E-4
-0.0010860238
-7.910813E-4
0.0012889173
0.0026400317
0.0028745471
0.004543366
0.007755674
0.007995705
0.005394259
0.0018346404
-1.4783369E-4
0.0031120833
0.004612855
8.910536E-4
-0.0020387685
-0.0020000807
7.520265E-4
0.0016671144
1.8708533E-4
-3.786495E-4
-0.0024758258
-0.005187623
-0.0077476497
-0.00857001
-0.006706191
-0.00839017
-0.009606276
-0.006030155
-0.0016744452
0.0023963081
0.0019236
9.67194E-5
0.0015475799
9.069351E-4
0.0010571211
0.0034396083
0.0032733234
0.0021721427
0.0016116147
0.0013437885
0.0012970429
0.0022650152
0.0030561776
0.0016360118
0.0012624629
6.1650405E-4
-0.0019080701
-0.0016821085
-3.420689E-4
-0.0016334181
-0.0042958353
-0.0047237063
-0.0010096682
0.0024489064
0.0014443378
-0.001291655
-0.0011106079
0.0013695712
0.0037473934
0.004837477
0.0037173384
0.003805844
0.0045129955
0.0032492
0.0039338614
0.0036408342
-1.0412148E-4
-0.0015632433
3.808511E-4
0.0040318915
0.0061782557
0.0049026636
0.0015068938
-0.0024392111
-0.005005312
-0.009284111
-0.0109514
-0.006019591
-0.008020113
-0.012725
-0.0062575038
1.6240055E-4
5.970142E-4
0.0020725357
0.002222482
-1.5715396E-4
3.598276E-4
0.0019011275
-2.7578167E-4
-0.0019406559
-0.0010446758
1.1289188E-4
0.0018799299