-0.0014161516
-0.0011636907
2.4538185E-4
2.1515165E-4
0.001813411
0.002575303
2.3860089E-4
6.9199706E-4
0.0023357342
0.0011600981
0.0010968158
9.969951E-4
-6.0334565E-5
1.2311256E-4
-1.8924564E-5
1.9148695E-4
3.4394168E-4
-4.4304604E-4
-0.0013119386
-0.0014908481
-8.49526E-4
-0.0031956653
-0.0025967106
0.0022193107
-0.001884467
-0.0050238306
0.0016289441
0.0041937097
0.0023196675
-7.377036E-5
-0.0015175769
0.0013256307
0.0012692928
-0.0018940333
-0.0024612108
-0.00211921
-5.866279E-4
9.414792E-4
0.0010065373
0.0025883685
0.0047087893
0.003734442
0.0010341113
3.065238E-4
-3.8587934E-4
-0.0031236566
-0.004016169
-0.002320559
-0.0018161762
-0.0031144945
-0.0030428409
-0.0012114758
-8.7657874E-4
-0.0011719024
-8.648674E-5
0.0016016369
0.0035095674
0.0031924034
0.0010962033
0.0013792434
0.0024312357
0.002087227
8.405874E-4
-2.3927554E-4
0.0013165871
0.0026554442
0.0018752967
0.0020899524
0.001074276
-0.0011157345
-0.0014027195
-9.263846E-4
0.0011669876
0.0028452887
0.0016538628
6.230175E-4
-0.0011516372
-0.0033673805
-0.0032855542
-0.0033630212
-0.004214649
-0.0038503064
-0.002139644
-0.0013461773
-0.003442584
-0.004689779
-0.0027440507
-9.0771343E-4
-3.9779407E-4
-4.538349E-4
-8.6376345E-4
-8.5974036E-4
-1.1130363E-4
0.0010916378
0.0033056475
0.004973537
0.0029805296
3.479096E-4
6.08796E-4
8.024314E-4
7.500255E-4
0.0027316113
0.0042901784
0.0037440802
0.0036239033
0.005852642
0.009000683
0.00993337
0.006971129
0.0023084464
-7.8517775E-4
-0.0029746469
-0.005384072
-0.0071679177
-0.0085346745
-0.008093905
-0.0049083736
-0.0030212223
-0.0038693864
-0.003714697
-0.0020618667
-0.0018278148
-0.0026139831
-0.0016391596
3.5003875E-4
6.866444E-4
-4.9062975E-4
-9.503123E-4
-3.955841E-4
-0.0011500905
-0.0019235146
-1.7864755E-4
0.0014752122
0.0026631271
0.0041360883
0.0032685078
0.0021668654
0.0030321337
0.0027429985
0.0013888017
0.0016985103
0.0025469163
0.0011133857
-0.0011447042
-0.0018941062
-0.0025322442
-0.0023174402
-5.225533E-4
1.426083E-4
0.0011138383
0.0030109156
0.0019457449
7.530592E-5
6.116616E-4
0.0014789505
0.002383531
0.0027074493
0.0018941902
0.0019552342
0.0011259884
-8.470678E-4
-0.0024836995
-0.00492324
-0.0048480392
-0.0024306304
-0.0021282074
-0.0016400852
3.137257E-4
0.0013449182
4.6049317E-4
-2.6126165E-4
7.2487147E-4
2.8250988E-5
-0.0010519905
4.9703463E-6
-3.0813552E-4
-0.0014208363
-0.0012543581
-0.0012241645
-0.0018947293
-0.0015509252
2.8500918E-4
-1.5299652E-4
-0.0016532512
-2.0773859E-4
0.0011411594
5.9065386E-4
-3.318711E-4
-0.0011688164
-0.0014512852
-0.0010577363
1.305162E-4
0.0019663447
0.0036346812
0.0037395784
0.0029968251
0.0032954197
0.0030740907
0.0014482641
-4.1262352E-5
6.8127795E-4
0.0031111294
0.0033521028
0.0022727484
0.0018306143
0.0017493771
0.0018530871
-2.8691627E-4
-0.0025417032
-0.002906437
-0.003570984
-0.0037281602
-0.0037953558
-0.0036489454
-0.0036932381
-0.003619318
-8.41163E-4
-8.391731E-4
-0.0027683747
-0.0019917493
-0.0026444085
-0.0012303869
0.001317712
4.672563E-4
0.0023294345
0.005041795
0.004861916
0.0018681568
-0.0023594543
-0.0011327111
4.1414646E-4
-2.1471278E-4
0.00215548
-0.00115805
-0.005807168
3.059082E-4
0.005893654
0.005394285
0.0053550685
0.003056192
-0.0017174907
-0.004237308
-0.003974606
-0.0016594438
-3.8947237E-6
-0.0010007536
-6.195743E-4
0.0025136075
0.0030086867
6.888621E-4
3.6566186E-4
9.0826396E-4
7.637071E-4
9.151714E-4
-8.9541683E-4
-0.0025758774
-3.855633E-4
8.5369305E-4
-0.0015517862
-0.003705438
-0.0027014888
5.099375E-4
0.0013734188
-3.8367903E-4
-0.001653206
-0.0023817485
-0.0016782108
-2.6803714E-4
-1.4285481E-4
2.7947195E-4
5.4659E-4
-6.106855E-4
-8.7505387E-4
9.485576E-4
0.0023004345
0.0016159381
0.0013189026
0.0017321765
0.0021390608
0.0030207306
0.0019823
5.453206E-4
4.54266E-4
-0.0010287369
-5.9464143E-4
0.0012904954
-3.1185348E-4
-9.06765E-4
6.7722495E-4
6.3154154E-4
-0.0010246612
-0.003386873
-0.0024119152
4.8643263E-4
-7.3010783E-4
-0.0026482374
-0.0016771166
8.0988066E-5
3.2760817E-4
-4.4185395E-4
4.7452693E-4
0.0010212085
1.3358233E-5
-2.7516522E-4
-5.2122105E-5
8.750726E-4
0.0012568298
9.959124E-4
0.0014021337
9.017407E-4
0.0013517527
0.0014973294
-0.0014203122
-0.0023255323
-0.001467431
-0.0019549418
-0.0016275876
-6.6731963E-4
2.1555119E-4
0.0013141496
0.0012863745
-2.0458897E-4
-1.8422738E-4
6.377473E-4
-0.0010286019
-8.429879E-4
3.4954378E-4
-6.537758E-4
0.0010554108
0.0027394777
0.0036722324
0.0047079003
7.6432567E-4
-7.917231E-4
0.0014269836
0.0011185908
9.0349367E-4
-0.0011451617
-0.001434767
6.5333565E-4
-0.0021538604
-0.0020898117
4.487751E-4
-0.0011557522
-0.0018060191
-0.002665655
-0.0033704948
-0.0018122061
-6.3181616E-4
2.1894371E-4
-6.707889E-4
-6.650474E-4
-9.732198E-5
-0.0030796623
-0.0029463451
4.4253122E-4
0.0019161819
0.0035509288
0.0033907332
0.0014657943
8.253388E-4
3.6588893E-4
5.3678965E-4
9.424632E-4
5.357737E-4
5.997859E-4
0.001835012
0.0030201974
0.0015478613
-6.560113E-4
-5.524003E-4
-7.179928E-4
-8.248438E-4
9.953121E-4
0.0015226089
2.2480704E-4
3.5851455E-4
0.0018632843
0.0012078466
-0.001451878
-0.0013806347
2.501715E-4
-3.1754747E-4
-0.0012568285
-0.002090407
-0.0026731323
-0.0019561953
-0.0021356484
-0.002410269
-0.0013051495
1.7502003E-5
0.0014338495
6.7485264E-4
-0.0018512675
-0.002129555
-8.982348E-4
-1.189053E-4
-8.598905E-5
-1.1666048E-4
7.547016E-4
0.001324953
7.1842835E-4
-3.3342384E-4
1.725967E-4
0.0019094467
0.0023338813
0.0028489674
0.003050311
0.0020998048
0.0025572476
0.0019557076
4.1113573E-4
0.0011523984
9.3762384E-4
-9.129949E-4
-0.0019346563
-0.0021503747
-0.0022270244
-0.0017806661
3.4734874E-4
0.0011043351
1.4853779E-4
-4.2438263E-4
-0.0024551582
-9.948858E-4
0.0025544085
6.5333553E-4
-2.2510879E-4
-0.0013560003
-0.004437003
3.4094547E-4
0.002060922
-0.0056465156
-0.005518115
0.0018018382
0.004433929
0.002767694
4.1292596E-4
-5.3387537E-4
-7.815777E-4
7.783256E-5
0.0021690703
7.1936427E-4
-0.0017083088
-1.48717E-4
9.808275E-4
-6.343474E-6
-1.4349828E-5
9.6847786E-4
5.2524224E-4
-0.0015740787
-0.0010710579
5.747543E-4
-6.1667647E-4
-0.001090036
-6.8859966E-4
-5.634296E-4
0.0014743872
0.0034505983
0.0034890324
0.0012256503
-8.394199E-4
2.5641613E-4
0.0013923305
5.0796947E-4
-0.002116095
-0.0021183193
0.0020059117
0.0012965112
-0.0013496308
7.0272875E-4
0.0020990004
0.002181365
7.729778E-4
-1.9289521E-4
0.0016966772
-8.879855E-4
-0.003531722
-9.3845086E-4
-0.0010745766
-0.0025053353
-0.0020533288
-7.487985E-4
0.0011867504
-6.8971136E-4
-0.0034772223
-0.0025109558
-0.0014413953
-4.6186795E-4
-2.0882161E-4
-0.0020653927
-0.0010059084
0.001699347
7.7954365E-4
1.7164148E-4
9.3461876E-4
-7.656084E-4
-6.973641E-4
0.0022338007
0.0027487564
0.0022652654
0.0019467721
8.070898E-4
8.7390456E-4
4.0794094E-4
-1.749312E-4
0.0027117925
0.0040725903
0.0017521098
0.001688629
0.0029896703
0.0021999576
3.2520285E-4
-0.001515837
-0.002435032
-0.0032131118
-0.0038225316
-0.0026380438
-0.0016886917
-0.0013084427
-6.0608414E-5
-4.5590394E-4
-0.0018463458
-0.001381158
-8.3191606E-4
-9.6930366E-4
-6.312563E-4
-3.331473E-4
6.847206E-5
6.3366734E-4
0.0011153643
0.0012807883
1.2279565E-4
3.1588497E-4
0.0017581135
-1.7011544E-4
-0.0011478739
4.6231435E-4
-8.1710884E-4
-6.503958E-4
0.0017850708
8.995644E-4
1.3121472E-4
0.001183115
0.0021644693
0.002950445
6.3700357E-4
-0.0030063444
-0.0032748806
-0.0022630978
-0.0016837805
5.482811E-4
0.0030420455
0.002830448
0.001847405
0.0021994226
0.0024445301
0.0012785426
-0.0011601881
-0.001800789
-4.2930018E-4
-0.0012440925
-0.0024513924
-0.0015708441
-3.3363057E-4
-4.2063966E-5
-0.001874017
-0.0027241516
-0.0016904433
-0.002467366
-0.0022394294
-5.6398456E-4
-6.1127E-4
-0.0014295947
-0.0019003454
8.0879196E-4
0.0036942686
0.002453499
0.0025796315
0.0033970354
0.0029963967
0.0044430583
0.003939275
0.002633216
0.0036890209
0.0026999083
-5.3905894E-4
-0.0029828988
-0.0029249997
-0.0013316356
-3.4065451E-4
0.0011616864
0.001850744
4.4761354E-4
-6.0497725E-4
-0.0019428005
-0.0047072223
-0.0058058565
-0.0044027474
-0.0037306615
-0.0029392685
-0.002040271
-0.0035143273
-0.0030982501
-4.5377732E-4
3.366257E-4
2.8847542E-4
-3.0730787E-4
0.0010965073
0.003899004
0.0025064594
0.0011022004
0.003523104
0.0051123085
0.0027693647
-0.0014292303
-0.002526035
-2.7305298E-4
0.001666928
0.0025593583
0.0042862175
0.005837162
0.0033784928
4.393024E-4
0.001620468
0.0027370476
5.530344E-4
-0.0013664308
-5.930513E-5
-9.970706E-4
-0.004409788
-0.0031512098
-0.0015619162
-0.0025714645
-0.0035235682
-0.0023738395
0.003488857
0.0013702115
-0.00858571
-0.0065915184
-3.1660052E-4
-2.2812103E-4
6.815366E-4
3.1073156E-4
-0.0015448284
-6.113359E-4
6.6359155E-4
-8.7307264E-5
-0.0022451992
-0.0026434734
1.05567065E-4
0.0023888818
0.0023732572
0.002782688
0.0032066512
0.0021386915
0.0024340053
0.0028886632
0.0013489448
-5.58355E-4
-0.0018938904
-7.4541464E-4
8.753451E-4
8.14372E-4
8.307319E-4
-1.863966E-5
6.1500515E-4
0.0029793729
0.0028302239
0.0025963578
0.0033125961
0.002170676
-6.1583205E-4
-0.0026188784
-0.0028495574
-0.0037847965
-0.0040412056
-0.0018082069
-9.409608E-4
-0.0017562318
-0.001307118
-5.131725E-4
-6.9697713E-4
6.836101E-4
0.0017164828
-6.5733504E-4
-0.0014375445
-0.0017866876
-0.0025649345
-3.6928846E-4
-0.0021334975
-0.0043150773
-7.69209E-4
2.9214384E-4
4.3636485E-4
8.4019825E-4
-1.7040766E-4
0.0029370508
0.0044710324
0.0018829606
0.0011658308
6.955561E-4
4.5073155E-4
5.2189064E-4
4.6491774E-4
0.0024656872
0.0033927604
0.0012398948
-0.0015309802
-0.0032707609
-0.004248619
-0.0043713613
-1.975422E-5
0.006186664
0.0067154607
0.0039072456
0.0029832004
0.0022782644
1.076077E-4
-6.680065E-4
-3.0531822E-4
-0.0018941836
-0.0030834398
-0.0046737413
-0.00718724
-0.0045353044
-0.0012997735
-0.0017876506
-8.836042E-4
-0.0010982212
-0.001206677
0.0019615865
0.0023696972
8.3957065E-4
-3.559063E-4
-0.0015402936
-6.6275283E-4
-0.0018063656
-0.0040914384
-0.0024612937
-3.0930914E-4
0.0011953927
0.0027393952
0.0029143356
0.0033695516
0.0051938747
0.0065513947
0.0042126216
-0.0010646015
-0.0040626777
-0.0034632094
-0.0013018509
9.3711395E-4
0.0019550617
0.0012982598
5.0702685E-4
3.481649E-5
-0.0019977484
-0.002224881
0.001398098
0.0019170182
-6.240789E-4
-1.9166544E-4
6.720251E-4
-3.7760515E-4
-1.0497864E-4
8.329099E-4
-4.1288373E-4
-0.0013171439
-3.2673968E-4
-3.1697628E-4
-3.510611E-4
-3.8253868E-4
-0.002697285
-0.003483929
-0.0018073887
-8.8561565E-4
-6.126387E-4
-0.001977917
-0.002533827
-5.488418E-4
-8.0770196E-4
-9.1960235E-4
0.001390197
0.0012333292
-0.0010829582
-0.0028238131
-0.0025057446
-3.9187408E-4
0.0034634604
0.009244398
0.009486078
0.0041153803
-3.090065E-4
-0.00614057
-0.007069632
0.0012385604
0.006398198
0.0065471884
0.0072736666
0.007073321
0.0052553304
7.811445E-4
-0.006005735
-0.010363678
-0.009584803
-0.006008845
-0.00422618
-0.004276115
-0.0028550946
-0.0018854662
-0.0031326253
-0.0024877796
-3.239285E-4
-7.670431E-4
-0.001244657
0.0010917425
0.00284604
7.3757354E-4
-0.0024693408
-0.002046605
3.5720938E-4
0.0011195929
0.0010045082
0.002659176
0.0077685732
0.012368477
0.009410427
6.3656893E-4
-0.0045216535
-0.0035349738
-8.3849265E-4
0.0015591406
0.002262595
9.701417E-4
-0.0026366313
-0.0073464504
-0.007103206
-0.005389816
-0.0063551217
-0.0029419772
0.0034992776
0.006449795
0.004355191
0.0012477759
6.240425E-4
-0.0027947032
-0.001124727
0.008909711
0.0064151436
-0.004780475
-0.0068800817
-0.0056767287
-0.0077641364
-0.01062733
-0.010472241
-0.0068156044
-6.3144934E-4
0.005974484
0.005564832
0.0014240032
5.595204E-4
9.921623E-5
0.0019165687
0.0063693314
0.0085932715
0.007935464
0.005542684
0.003854074
0.0013728889
-0.0014995176
6.7408115E-4
0.004341841
0.004731055
0.0024270888
-0.0015744098
-0.00530431
-0.007903243
-0.0071152104
-0.004614345
-0.0044643953
-0.0035521507
-0.0024231498
-7.6799304E-4
0.0025983644
-2.1799671E-4
-0.0035513253
0.0010916573
0.00394818
0.004371811
0.009346927
0.01476616
0.015784848
0.011779245
0.0037880267
-0.0053377873
-0.012310773
-0.016250417
-0.018122517
-0.018907
-0.020106643
-0.020311935
-0.019117357
-0.017669097
-0.012266752
-0.0031552396
0.0062801507
0.011002416
0.004094989
-0.004432991
-0.0062156003
-0.008006471
-0.0040133446
0.008974275
0.020488584
0.02702358
0.033013817
0.048163474
0.06730743
0.071532354
0.062316652
0.051339783
0.04193972
0.02947172
0.010423391
-0.010169945
-0.031188712
-0.045457765
-0.053395353
-0.072155386
-0.08898429
-0.08974864
-0.080925
-0.060306776
-0.04981623
-0.063100524
-0.060035355
-0.025846567
0.0054757986
0.028601833
0.055268805
0.052942034
0.017862521
0.002817203
0.01357911
0.03399301
0.058703884
0.05965393
0.040802423
0.029073222
0.034411628
0.061044034
0.07828931
0.06854516
0.061925933
0.050462965
0.014139852
-0.018155267
-0.053746667
-0.11567281
-0.15154096
-0.14033929
-0.1061861
-0.04273923
0.0054244236
0.011147493
0.018910239
0.020372313
0.016794043
0.04896599
0.1065499
0.15535513
0.1721502
0.15779684
0.12618537
0.07462876
-0.012331095
-0.11567498
-0.17153049
-0.18376307
-0.18596898
-0.14656886
-0.067202
0.0066449046
0.030600727
-0.008804934
-0.05721622
-0.08278076
-0.09373779
-0.08448609
-0.05753189
-0.03976003
-0.037340574
-0.004300061
0.038475197
0.032900244
0.027276788
0.07584516
0.16235653
0.2095065
0.1782937
0.14915146
0.16172868
0.19829462
0.20023918
0.10607031
0.02155767
0.0018090316
-0.046366744
-0.10501756
-0.10603546
-0.09015195
-0.1252993
-0.14333747
-0.07407502
-0.026485369
-0.048228297
-0.057766862
-0.017721135
0.020545993
-0.03404294
-0.124244295
-0.12945262
-0.07367294
-0.029559521
-0.035654012
-0.06710667
-0.09194912
-0.090402395
-0.011271154
0.07546856
0.086471684
0.10599516
0.1746062
0.20321082
0.14811663
0.06401346
-0.031895038
-0.12833855
-0.14899623
-0.08329582
0.044231527
0.16005747
0.18026559
0.1664208
0.12829968
0.06663458
0.026475772
-0.06915966
-0.1582783
-0.15192813
-0.1538333
-0.172955
-0.15521188
-0.09113413
-0.02380624
-0.002210618
0.042246506
0.093580455
0.076315776
0.0031761404
-0.093261525
-0.09352198
0.023608252
0.109158985
0.11243913
0.07550697
0.062111847
0.07691823
0.050855655
-0.021154528
-0.09285748
-0.11946803
-0.108543485
-0.07439513
0.0059686555
0.07852723
0.107108146
0.10996744
0.06553282
0.01009565
-0.009464947
-0.032319706
-0.100753084
-0.16590978
-0.12557231
-0.010114828
0.07704324
0.13172272
0.13616912
0.06682505
0.0192243
0.035969093
0.021836556
-0.030479144
-0.0582081
-0.07073187
-0.052333523
-0.0034470547
0.04158194
0.09272385
0.071001075
-0.06190179
-0.16102844
-0.16569886
-0.14753923
-0.1430762
-0.11167492
-0.0139588155
0.08378847
0.12799941
0.15233962
0.14911748
0.103972964
0.05937787
0.030944193
0.003783418
-0.009015443
9.634684E-4
0.0038103387
-0.01862453
-0.04246394
-0.04573821
-0.03547347
-0.014115773
0.015573115
0.035938255
0.055599764
0.070075035
0.052396454
0.027748736
0.013346861
-0.010656305
-0.0393298
-0.06157364
-0.0662149
-0.04844164
-0.027537003
-0.014335547
-0.0038247167
0.009511252
0.01573576
0.004991931
-0.0038562007
-0.0027599467
-0.0026343942
0.0019085564
0.009927858
0.011764642
0.011528314
0.0056782584
-0.009853892
-0.019976411
-0.020323766
-0.019080525
-0.016305113
-0.013996207
-0.007890901
0.010264929
0.030349009
0.042240676
0.045812726
0.04091855
0.029304624
0.011248296
-0.0066460804
-0.013585976
-0.010538471
-0.0039930646
-0.0026778334
-0.009054009
-0.013174004
-0.015056958
-0.020596229
-0.023962328
-0.017822305
-0.0038596073
0.008987025
0.017204244
0.023795465
0.025338136
0.018312762
0.011584881
0.016224751
0.024296835
0.021207195
0.011465562
0.005928278
0.0036451137
-0.0034416209
-0.014419784
-0.018612614
-0.017082503
-0.016658671
-0.014736135
-0.0074920226
0.003824911
0.009767112
0.004921892
-0.0018349276
-0.0051512783
-0.0094051
-0.013247345
-0.007969688
-7.512272E-4
-0.0069068386
-0.015645226
-0.015441889
-0.015654596
-0.016498698
-0.010451205
9.432568E-4
0.011306707
0.016686372
0.018348642
0.018860588
0.017078344
0.004218687
-0.012607569
-0.008032316
0.005170115
-0.0025747498
-0.013953808
-0.0048444886
0.011098334
0.011407353
-0.0011849259
-0.01263338
-0.02194907
-0.023812996
-0.017303081
-0.014479999
-0.0068426714
0.01061384
0.02426283
0.033203043
0.035645064
0.02666107
0.010077866
-0.0088541135
-0.023008868
-0.031568293
-0.037137967
-0.0430284
-0.0510621
-0.05130741
-0.047898114
-0.05039037
-0.04799981
-0.039424345
-0.031063551
-0.02192725
-0.014182946
-0.0107581755
-0.007035532
0.009032571
0.026911883
0.033083487
0.04742493
0.06487523
0.0638885
0.060062137
0.06347889
0.07294937
0.091057494
0.104914345
0.11085698
0.113222
0.102189325
0.08030792
0.048256017
-0.0058050784
-0.05175408
-0.06374088
-0.078879714
-0.10853034
-0.12527753
-0.12952454
-0.12483119
-0.10953213
-0.09477727
-0.08748438
-0.080346294
-0.06266911
-0.04179825
-0.030930068
-0.027718915
-0.02053038
-5.4163457E-4
0.019132363
0.028431498
0.04390836
0.064221814
0.07298075
0.07499487
0.074094005
0.0668133
0.062429897
0.06353399
0.059519976
0.049407657
0.036026653
0.022594983
0.011601794
0.0010906305
-0.0013489936
4.9134117E-4
-0.005314008
-0.013794094
-0.02487402
-0.027602697
-0.0142334895
-0.010900357
-0.01613148
-0.009613428
4.3253467E-4
0.0059127565
0.0034595584
-0.0059361896
-0.011794304
-0.012996346
-0.013618793
-0.013299942
-0.012088591
-0.010457672
-0.009373961
-0.014528705
-0.024315806
-0.026968423
-0.023759933
-0.020342888
-0.013866142
-0.006112135
-0.0011496851
5.4878456E-4
0.0016791038
0.0034846829
0.006485439
0.009397024
0.0054872753
0.0026486362
0.008467015
0.013743489
0.01813087
0.019205304
0.015303591
0.015393277
0.015289154
0.012297727
0.010429269
0.008670664
0.00638521
0.0016424924
-1.1740023E-4
0.0036676216
0.00674491
0.008701295
0.0063029025
1.339609E-4
-0.0058197794
-0.012113416
-0.012415397
-0.008607958
-0.0069709523
-0.0041232826
-0.0021793852
-0.0028065715
-0.0044072564
-0.005306705
-0.0016546504
0.0013148319
-2.0261876E-4
-0.0026029625
-0.0058522588
-0.006542393
-0.004098006
-0.004196126
-0.0033173894
0.0015929046
0.0059509366
0.0084271645
0.008008349
0.0042937435
0.0015170006
0.0013111186
0.0011001963
-6.0781185E-4
-0.002407693
-0.0031570175
-0.004330266
-0.0060863565
-0.0056375326
-0.0032650402
-0.002999449
-0.0040301206
-0.004384788
-0.0050809225
-0.002702953
3.2229233E-5
-0.0016957431
-5.0271614E-5
0.0033017576
0.0019522185
0.001539229
7.563559E-4
-0.0011043659
1.5179745E-4
5.321135E-4
1.2701565E-4
0.0015065824
0.0030705146
0.0032366063
0.0010453301
-8.173297E-4
-0.0016574033
-0.0017620388
-0.0010771396
-0.0014498373
5.417101E-4
0.0024388856
-6.0625433E-5
-6.3191046E-4
-4.297768E-4
-0.001169177
0.0013208486
0.0014906836
-0.002064531
-0.0028928285
-0.0014785709
-3.583945E-4
8.929667E-4
0.0045345505
0.0095832385
0.009640926
0.006332884
0.005482739
0.0014571251
-0.0063717496
-0.008015889
-0.005078584
-0.0041442956
-0.0033463803
-0.001710501
-0.0024768007
-0.0051102247
-0.0043293
-0.0011497897
-7.3789415E-6
-3.875151E-4
-0.0021127907
-0.0019264402
0.0013574921
0.0019107958
0.0015136864
0.0025403947
0.0011015969
-0.0010735947
3.8159327E-4
0.003376548
0.0033426557
0.0035997694
0.003547097
-0.0028046297
-0.002551832
0.009187131
0.013151623
0.0094945505
0.008063362
0.0030063537
-0.0033927038
-0.0039733886
-0.0032173088
-0.0033298838
-0.0017420687
1.7601842E-5
-2.8979764E-5
-0.0020912392
-0.004378684
-0.00505298
-0.005291346
-0.003947875
-5.0471275E-4
0.002445581
0.003718735
2.9143225E-4
-0.005176177
-0.0042383666
1.9063173E-4
4.9596076E-4
-0.0011006542
2.3416991E-5
6.505198E-4
-0.0012238505
-6.5610744E-4
0.0015442576
0.0028234127
0.0048589907
0.0056738863
0.0052424646
0.0048116012
0.003159252
0.0024399417
0.0025050526
0.0012729903
1.4843905E-4
-6.249307E-4
-0.002366888
-0.005168115
-0.00524252
-0.0014012752
3.358955E-4
5.923037E-4
0.002092503
4.0011283E-4
-0.0018187007
-0.0010561997
-0.0012486622
-6.4120285E-4
0.0016066347
0.0019531648
0.0018835384
0.0023034126
0.0034786863
0.003690019
-2.334664E-4
-0.0023174272
-0.0015694371
-0.0025844257
-0.001209691
6.663092E-4
7.8010693E-4
0.0028763085
0.0031963992
0.0034188288
0.0045888997
-0.0010332647
-0.006852366
-0.005294563
-0.0030413084
-0.002723863
-0.0017413314
-1.3706642E-4
1.09291825E-4
-4.1405368E-4
0.0010652127
0.0024106393
0.0029253736
0.005298501
0.00523317
2.2274118E-4
-0.002432832
1.4808532E-4
0.003026243
0.004469686
0.0040842704
7.822506E-4
-0.0021068684
-0.002771054
-0.0026907765
-0.0017747721
-0.001499755
-0.0010292121
0.0022223773
0.003647785
0.0012940972
6.0946663E-4
0.0016045395
0.0012024338
-2.4567518E-4
-0.0023778458
-0.0031443636
-0.0018321564
-0.0017682398
-0.0017834895
-8.118958E-4
-7.947153E-4
0.0010156683
0.00307467
0.0018130966
0.001689554
0.0025877324
7.23087E-4
-9.762822E-4
5.246507E-4
0.00293274
0.0017243443
-0.0010462886
-8.673388E-4
-0.0011364532
-0.001742375
5.678568E-4
0.0016249815
0.0010697347
6.182575E-4
-0.0015888918
-0.0015855699
5.057158E-4
-9.3066855E-4
-0.0021852967
-4.5999503E-4
8.93092E-4
9.2885754E-4
1.9421538E-4
8.061182E-4
0.0019817748
6.402036E-4
-0.0010229375
-0.0019287067
-0.002866843
-0.001593365
0.0016720978
0.003354278
0.0031025214
0.004208766
0.0056066103
0.004492361
0.0020253183
-0.0011152796
-0.003245493
-0.0028972563
-0.0010770941
2.556121E-4
-0.0016334343
-0.0029882782
-0.0013382648
-4.6398645E-4
5.302301E-4
0.0013739085
0.0016229342
0.0018377295
5.52226E-4
7.612493E-4
3.3226082E-4
-0.0014637028
-3.8853555E-4
-0.0017747896
-0.0038993466
-0.0023965873
-0.0015146565
3.0417793E-4
0.0012700893
-5.153086E-4
-6.303598E-4
-3.8979683E-4
-4.0703142E-4
-9.0806716E-5
5.8802497E-4
0.002111
0.0014562041
0.0015428623
0.0038163792
0.002047104
2.0781388E-4
0.0019526891
5.9179106E-6
-0.003137985
-8.9017453E-4
0.00171673
0.0024317016
0.0040005087
0.0048322054
0.0035407576
0.002110514
0.0030446535
0.0026067882
-4.2224882E-4
-0.0016201463
-0.0066494155
-0.01237684
-0.0074837366
-0.0019597143
-0.0024918057
-0.0016392398
4.9949007E-4
0.0013531299
0.001054506
8.2976656E-4
-2.0311255E-4
-0.0013001795
0.0014632228
0.0031208368
0.001905964
0.0028205484
0.0032097332
0.0027207483
0.002992146
0.0014842702
-0.0014792907
-0.0039916593
-0.004462062
-0.0036015618
-0.0027074728
6.831597E-4
0.0053092116
0.005040839
0.0010305854
7.942597E-4
0.0023765771
-6.9683086E-4
-0.0042939284
-0.004329065
-0.003376684
-0.0022284945
-5.5612647E-4
0.0010506262
0.0021635126
0.004463483
0.0072181257
0.0046810415
5.840736E-4
0.0023954266
0.0038406248
7.111155E-4
-0.0013207226
-0.002199816
-0.0051935688
-0.0074961437
-0.005103911
-0.0018825223
-0.0026681884
-0.0025034864
1.7647518E-4
3.0619957E-4
-0.0011325745
-0.0023854878
-0.0019229188
8.6403894E-4
0.0017620607
0.0013876567
9.5659416E-5
-0.002023717
2.5538754E-4
0.0025333546
0.0012576788
0.0021023457
0.0042887763
0.005203133
0.0042457185
0.0024933172
0.0028945608
0.0032511565
0.0017279832
-4.1878156E-4
-9.376721E-4
4.774115E-4
3.5283543E-4
6.6330016E-4
6.802178E-4
-0.002565364
-0.0030676133
-0.0018327195
-0.0021189281
-0.0022075253
-0.0038016548
-0.0030966378
-0.0015435645
-0.003568778
-0.002808341
-0.002043516
-0.003350601
-1.4299936E-4
0.0021233007
1.17271025E-4
-9.1942475E-4
-8.4598863E-4
-4.8014795E-4
6.984371E-4
0.002113547
0.0024176242
0.0010351845
-4.1232986E-4
0.0015276374
0.005933051
0.0070789563
0.007426504
0.008426107
0.005183491
0.0017241958
-8.703656E-4
-0.0043449798
-0.0038903456
-0.0012945277
0.0010861187
0.002183773
5.000783E-4
-3.420301E-4
-0.002509485
-0.0052080667
-0.0031413336
-0.0015322779
-0.003761028
-0.0068865735
-0.0065091327
-0.0023831166
-0.0018745785
-0.003206595
-0.0017213457
-0.0016153993
-0.0029342195
-0.0030854256
-0.0016561793
8.475229E-4
0.0023896263
0.0035123434
0.004206717
0.0036695353
0.003992317
0.00410626
0.0032743353
0.0046505583
0.005165965
0.0027583167
0.0024377222
0.0030944902
0.0040416988
0.0064419718
0.0038815169
-0.0018380033
-0.002741578
-1.0923849E-5
0.0013596012
-0.0019233397
-0.003807534
-1.756016E-4
-2.8897545E-4
-0.0038633633
-0.004881768
-0.0057680826
-0.0055619082
-0.0041886307
-0.002705578
2.828584E-4
2.9664612E-5
-0.0031433264
-0.0032748308
-0.0014765308
0.0015672442
0.0039204285
0.0023638369
0.0015308192
0.0017159276
3.4046048E-4
0.0021808716
0.004674012
0.0025307883
7.4986153E-4
2.1611206E-5
-0.0030757338
-0.0042023533
-0.0022836188
-0.0025002859
-0.0040654126
-0.0046755513
-0.0043440433
-8.265892E-4
0.002682458
6.6217675E-4
-0.0030500127
-0.0045796414
-0.005316021
-0.004269413
-6.789491E-4
0.0012017537
-2.577791E-4
6.7740487E-4
0.0033098084
0.0017518426
0.0031778368
0.010380558
0.010586079
0.006263113
0.00606934
3.504212E-4
-0.007505835
-0.003197475
0.0020082425
-1.4508548E-4
3.4428088E-4
9.3931385E-4
-0.001816072
-0.0017803585
-2.0519466E-4
6.019552E-5
-1.0580603E-4
-2.2385869E-4
0.0011644221
0.0038859106
0.00582255
0.0055614444
0.003923984
0.003100689
0.002834868
0.0025142038
0.0023538137
4.7479777E-4
-0.0036313373
-0.0071439757
-0.008188574
-0.008102647
-0.008616427
-0.008674708
-0.007792158
-0.007162496
-0.006821138
-0.0078008045
-0.009454512
-0.0099809505
-0.01172849
-0.012626054
-0.008437331
-0.002877706
0.0013214342
0.005237906
0.009027681
0.011945557
0.012701789
0.0135055
0.015059363
0.0154346945
0.016842525
0.017359972
0.013982066
0.011497744
0.0114547815
0.00980339
0.0057283575
0.0028472396
9.545851E-4
-0.0039715143
-0.0073416354
-0.006876527
-0.009185118
-0.010737769
-0.008185722
-0.008224984
-0.009319639
-0.00786979
-0.00821024
-0.01087695
-0.011842879
-0.009257075
-0.0057840683
-0.005021332
-0.0046355277
-0.0023941537
6.9257745E-5
0.0015499417
0.0011016009
0.0014321754
0.0036594584
0.0037800916
0.0026867392
0.002314641
0.0028770454
0.0045956033
0.0047796275
0.0040497812
0.0031392071
0.0011558478
1.8272625E-4
-5.7581946E-4
-9.6317433E-4
-2.0987976E-4
0.0014547182
0.004871127
0.0051100403
0.003494411
0.0038071892
0.0013158371
-3.2718477E-4
-8.071228E-4
-0.004014221
-0.0039007715
-0.0021103942
-5.45043E-4
0.0016155621
-4.1322324E-5
-0.0013226544
-0.0019044366
-0.0041595832
-0.0032631478
-0.0023855467
-0.0018334291
1.4424913E-4
-0.0013583977
-0.0017743105
0.0018579869
0.0035139765
0.003602875
0.004459156
0.0041225855
0.0022590552
0.0018601257
0.0029562095
0.0032038137
0.0027526561
5.979489E-4
-0.002472123
-0.0039233663
-0.005308593