-0.0031792843
-0.002827925
-0.002679972
-0.0039989296
-0.0022740802
-5.421363E-4
-0.0016517632
-0.0014195372
6.654243E-5
0.0018178277
0.0029996529
0.0031653407
0.003494328
0.00423865
0.005641983
0.0053294846
0.0030326312
6.506683E-4
-4.894239E-4
0.003485228
0.0078031593
0.006660547
0.0048855506
0.0030575688
-2.6419468E-4
-0.0035768696
-0.0068489574
-0.00824771
-0.0065742605
-0.0030067556
-0.001476003
-0.0032142042
-0.0037245709
-0.0030251301
-0.0014923898
0.001392485
0.002195438
0.0013460948
-3.4113528E-4
-0.0023733529
-0.001926309
-5.9363287E-4
1.6567826E-4
0.0011168354
0.0012204369
-3.7006798E-4
-0.002017644
-0.001337224
-4.554628E-4
-5.6491006E-4
-1.8534437E-4
-9.918924E-5
0.0013025792
0.0023761273
6.8569864E-4
2.663723E-4
5.1780575E-4
3.652799E-4
8.9467893E-4
0.0012650326
0.003336015
0.0039346893
0.0011193271
3.9338807E-4
0.0013474034
0.0019127112
0.002837263
0.0043132086
0.004480749
0.001300019
-9.2072604E-4
-0.0011414938
-0.0016471898
-5.653202E-4
-6.4462284E-4
-0.0028850415
-0.0038333528
-0.0034561486
-0.002293817
-0.0017184917
-0.00199505
-0.0026738928
-0.00362814
-0.0035772638
-0.0028680083
-4.8083555E-5
0.0018684501
-5.6134287E-4
-5.426585E-5
0.0018298599
-7.124069E-4
-0.0022598885
-0.0016826806
-4.8013008E-4
6.117014E-4
-8.449092E-4
-0.0012259036
4.8782144E-4
6.3730724E-4
9.2428614E-4
0.0025061357
0.0035780552
0.004746799
0.005096163
0.0038297977
0.005069345
0.0066673853
0.0033189917
-3.94254E-4
-0.0017264491
-0.0014878951
7.6824275E-4
-1.3848109E-4
-0.0032523982
-0.002400119
-7.597403E-4
-6.4666924E-4
-8.560503E-4
-7.958783E-4
-5.16692E-4
-0.0039765784
-0.0056608687
-0.0010237161
-0.0033753312
-0.009686729
-0.004725207
0.0027322369
0.0026728737
-7.429592E-4
-0.0021109453
-1.9192676E-5
-7.626372E-4
-0.0022682748
0.002965041
0.007517827
0.00642856
0.004193011
0.0023571467
0.0020506028
0.0024801285
0.0014564804
4.036504E-4
9.192854E-4
3.369024E-4
-0.0022637865
-8.0120564E-4
0.0029609448
0.0021456082
8.1391766E-4
-2.7392877E-4
-0.0034516735
-0.0038581633
-0.0024783
-0.002591534
-0.0027229374
-0.002622439
-0.0021266346
-0.0024758147
-0.0038981347
-0.002410502
0.0014670332
0.0020033652
-6.308183E-4
-9.401924E-4
-5.4940792E-5
-7.301327E-4
-6.705327E-4
4.266721E-5
0.0016133152
0.0039907675
0.0049378946
0.005495451
0.005352019
0.0053451573
0.006211563
0.0033235825
-3.522842E-4
-5.572874E-5
-1.6755672E-4
-0.0021649974
-0.0031992786
-0.003094068
-0.002629443
-0.0012277119
-3.159104E-4
-0.001474866
-0.0014301062
-3.3165986E-4
-0.0019321457
-0.004586588
-0.005441707
-0.003827977
-0.0015633776
-0.001271382
-0.001945745
-0.0014385222
2.3016486E-4
9.067336E-4
7.7896635E-4
0.0018194828
0.00168116
-2.3380762E-4
-0.0012352319
-0.0013208542
-4.4382608E-4
9.382438E-4
0.0012200924
0.0010914524
7.835949E-4
4.8233665E-4
0.0024407264
0.0039397255
0.0018872604
0.0014124766
0.0031153695
0.003109071
0.0025751446
0.0017020461
0.0016729201
0.0024198713
6.234314E-4
-0.001258091
-0.0014832226
5.80035E-4
0.0053859297
0.0055973832
2.5268647E-4
-0.0028890336
-0.0037892126
-0.005381902
-0.0059646307
-0.0050572264
-0.004453915
-0.0038312655
-0.0032682032
-0.0032919405
-0.0022160106
-9.820486E-4
-0.0011345416
-7.9189864E-4
8.061742E-4
0.0018536801
0.0016784641
0.0018705634
0.0017184771
6.353136E-4
8.214611E-4
0.001552881
0.0015037456
0.0012067023
0.0026863287
0.005562686
0.0046909726
0.0014083713
-0.0016253261
-0.004536168
-0.0035191304
-0.0019503986
-0.0023588166
3.0564988E-4
0.0034714665
0.0032485877
0.0014423745
0.0013025559
0.002261191
0.0016943343
0.0020732882
0.0015774455
-0.0016901016
-0.002313024
-1.6797855E-4
0.0012964077
5.3258875E-5
-0.001650989
-2.532311E-4
3.4165662E-4
-5.128558E-4
-9.7368425E-4
-0.0026691577
-0.0031200792
-0.002104675
-0.00230486
-0.0035370884
-0.004178284
-0.0023967903
-9.380511E-4
-0.0011825946
-2.975538E-4
5.5203975E-5
-9.2038285E-4
-2.1360914E-4
0.0023064113
0.0037493843
0.0027885183
0.0024638674
0.0033939523
0.0021932197
3.0078503E-4
9.169807E-4
0.002750891
0.0030464116
0.0013956381
7.720518E-4
0.0018190856
9.5518096E-4
-8.325189E-4
-7.9211406E-4
-0.001308626
-0.0023225273
-0.0015258776
-8.6077856E-4
-0.0015459233
-0.0020167693
-3.8294742E-4
0.0023855334
0.001939002
4.6789285E-4
0.0013179295
-6.9356157E-4
-0.004038398
-0.0027801797
-5.5251067E-4
4.4440103E-4
2.6399217E-4
-0.0013012525
0.0013095275
0.003715678
-0.0032359522
-0.008547541
-0.0035459124
9.6488564E-4
8.8803144E-4
0.0014693753
0.0026415405
0.0024735474
3.6208128E-4
-0.0020826096
-0.0023000524
-3.930109E-4
0.0027778582
0.004728644
0.004607301
0.004764019
0.0025095006
-0.0019299272
-0.0022158148
-4.923296E-5
4.0577858E-4
6.0688163E-4
0.0012932953
0.0012903099
5.104189E-4
-3.2700575E-4
-0.0022458327
-0.004443225
-0.004666605
-0.004256032
-0.0029041816
-6.0648035E-4
5.0812075E-4
5.605266E-4
-0.0011735125
-0.0012893209
0.0025176017
0.0035160212
0.0010163389
-3.5377327E-4
5.0823635E-4
0.0031334455
0.003909494
0.0023772265
0.0020544005
0.0031687662
0.0034230882
9.1645384E-4
-0.0016018644
-0.0012963254
-0.0011094534
-0.003269678
-0.0052193836
-0.0043145213
-0.0030035572
-0.00233379
-3.404306E-4
7.768432E-4
-3.2053467E-5
-0.0018304897
-0.0030349565
-0.001361787
-1.6285556E-4
-9.136312E-4
-6.053174E-4
0.0012464764
0.002801012
0.0010434067
-1.9236794E-4
0.0022118131
0.0026729272
0.0022042007
0.003044161
0.0025400426
0.0022228265
0.0027046667
0.002525522
0.0012337357
3.6775807E-4
0.0016952972
0.001623019
-0.0011837455
-0.0031973068
-0.0031478119
-0.0017249533
-5.116478E-4
9.4844385E-5
-2.2752659E-4
-0.0014457809
-0.0015880361
-0.0011715929
-8.9447375E-4
-0.0015957725
-0.0035973708
-0.0025530474
5.7974696E-4
6.895733E-4
-5.000235E-4
1.5413461E-4
8.6941675E-4
-6.9774105E-4
-0.0019971589
-0.0018783142
-0.0010726458
0.0018998225
0.0028881978
0.0017974443
0.0033876083
0.003577327
0.00278005
0.0029305876
0.0017478485
0.0022368848
0.0018134682
-5.663262E-4
-8.9128286E-4
-0.0016630094
-0.0016475033
-0.0016159764
-0.003312066
-0.001982455
-9.854983E-4
-0.0018516314
-0.0015722275
-0.0021540152
-0.0015506563
-4.2512073E-4
-0.0010204865
-2.8818316E-4
5.995505E-4
-3.0094857E-4
-0.001126182
2.936742E-4
0.0022021432
0.0019348853
0.0022130671
0.0025982258
0.0023868845
0.0041102944
0.0032500026
-5.831838E-4
-0.0011190684
-3.8095997E-4
-6.635085E-4
0.001252385
0.003159363
0.0013445956
-0.0014924037
-0.003344109
-0.003430158
-0.0013100121
-9.084116E-4
-0.0028412254
-0.0043362416
-0.004660663
-0.0026693286
2.3350236E-4
0.0021040603
0.0032548255
0.0032798068
0.002595346
0.002267159
0.002468307
0.0018610216
-5.494376E-4
-0.002490914
-0.0011383584
0.0010849179
-7.495633E-4
-0.0016843877
0.001721361
0.0011279996
-0.0020339396
-0.001996673
-7.5017556E-4
5.07074E-4
-1.4757013E-4
-1.33458E-6
0.0013642869
-3.3513494E-4
-4.1559333E-4
5.898022E-4
2.022246E-4
0.0015946317
0.0020380958
0.0020011633
0.0018483652
2.006559E-4
-5.050217E-4
-0.0021558465
-0.003334608
-0.0023851085
-7.396622E-4
0.0027072842
0.0034679577
6.2640273E-4
-0.0014649165
-0.0019098081
-8.555247E-4
-0.0012950614
-0.0017467435
-0.0023513322
-0.0050684325
-0.0026512414
-8.672722E-4
-0.0049169636
-0.0016516177
0.0051327986
0.0049948157
0.004957151
0.008554682
0.009723962
0.0050803134
-0.0011404513
-0.003815889
-0.0033034445
-7.869449E-4
0.0022573324
0.0019421972
-0.0016194606
-0.0024284816
-0.0015566107
-0.0026397614
-6.6423154E-4
0.0010709974
-0.00231931
-0.0034560566
-0.0027050641
-0.0035999676
-0.0024612094
-9.766935E-5
3.506032E-4
-7.6320965E-4
-0.0013511704
-0.0015016036
-0.0010616246
7.283675E-4
0.0010332105
0.0019143878
0.0045721163
0.004445657
0.002729882
6.508311E-4
-5.917953E-4
3.837657E-4
6.716057E-4
4.968991E-4
-4.8707798E-4
-9.0815936E-4
-7.4544164E-6
-0.0017612749
-0.0016150189
3.84215E-4
-4.6395424E-5
6.059172E-4
-1.4504128E-4
-0.0014999091
-0.0014069068
-0.0018906762
0.0020697715
0.0053337724
0.0027318408
0.0011770074
-6.3512334E-6
-2.4443583E-4
0.0010288645
-3.6273611E-4
-5.1385706E-4
0.0010450166
5.075165E-4
-4.9568387E-4
-7.265751E-4
-2.2526662E-4
-6.928402E-4
-0.0026403686
-0.002718418
-0.0012903475
7.0294E-5
9.60212E-4
-0.0012735563
-0.003556508
-0.0026551832
-0.0024367948
-0.0017541933
-2.0051732E-4
2.452174E-4
0.0021917643
0.0030574265
0.003913822
0.0063513475
0.0024949806
-0.0032070752
-0.003296586
-0.001573574
9.17163E-6
-1.281461E-4
-3.997275E-4
0.0016726811
0.0025863298
0.001754328
4.997797E-4
1.2961269E-4
0.0013476925
0.0012573709
-5.118837E-4
-6.070477E-4
9.40396E-4
8.9218316E-4
0.0011530194
0.001825084
-8.6925656E-4
-0.0023180079
-0.0022064624
-0.0029649124
-4.002104E-4
2.5527563E-4
-0.0021387744
-3.8156754E-4
0.0015312063
8.8690926E-4
4.059596E-5
-0.0016359348
-0.0038486673
-0.004693526
-0.0018102673
0.0013498815
4.2691306E-4
5.871863E-5
0.0022698266
0.0019408051
-6.6266954E-4
-6.610883E-4
9.283508E-4
0.0013398322
0.0020253167
0.0026969537
0.003284585
0.0057891104
0.006831276
0.003262946
-1.4390309E-4
-0.0011757197
-0.0036748596
-0.00646029
-0.005994964
-0.0036319776
-0.0021562749
-0.0018196469
-6.1451603E-4
9.3747023E-4
0.0010690868
-5.6547846E-4
-0.0022936827
4.885456E-5
0.0017040892
-0.0021629161
-0.0035504063
-0.0014924405
-3.7121915E-4
0.001610796
0.0035416814
0.003536591
0.0019094157
0.0021765018
0.0044993893
0.003176517
3.6320603E-4
-0.001504971
-0.0029622205
-0.0011883506
8.5653586E-4
4.86402E-4
-2.3839413E-4
6.529333E-5
1.0041089E-4
-0.002348721
-0.002454594
-7.523697E-5
8.6744357E-4
0.0030593167
0.0017625209
-0.0027237365
-0.0017874743
-1.0329424E-4
-0.0015705607
-0.0031318034
-0.0027848298
-2.3719792E-4
3.1521765E-4
8.771228E-4
0.00403538
0.003693763
5.54948E-4
-3.873452E-4
-0.0011648864
-0.0026676105
-0.0012370035
1.4733218E-4
-0.0018799197
-9.407283E-4
0.0011308627
0.0011567022
0.005229217
0.007179837
0.0029525082
-9.546253E-4
-0.0028540858
-1.2695417E-4
3.9982778E-4
-0.0033929397
5.025331E-4
0.0026136152
-0.00329629
-0.0038623014
-0.0014059559
-0.0015196971
-0.002075414
-0.0027145552
-0.0025230914
-0.0022235112
-9.805176E-4
8.3198195E-4
0.0012575752
0.0017499398
0.0016885723
0.001308616
0.0012467455
4.2784403E-4
3.4039572E-4
8.102621E-4
1.6027903E-4
-4.262114E-4
9.3339477E-4
0.0023260394
0.002160264
0.0013273797
2.7036408E-6
0.0022310198
0.0046877004
8.0845825E-4
-0.002081169
-0.0035952793
-0.0042682127
0.0011910693
0.0027625621
-0.0016347873
-0.0032809316
-0.0025073313
1.5611858E-4
0.0018715905
0.0012124842
8.560409E-4
0.0028487272
0.007522993
0.0073044444
0.0013611879
-0.004437369
-0.008812425
-0.008213656
-0.0051797424
-0.0027673307
9.6126995E-4
0.0022017318
5.545764E-4
-2.622255E-4
7.1856135E-5
-0.0017981302
-0.0042205118
-0.0020342236
-0.0019429572
-0.0033282114
-7.463174E-4
-0.0014197613
-0.002648341
-0.0018217005
-0.0010621932
0.0043788045
0.009252882
0.010016972
0.009425367
0.006211035
0.0011005255
-0.0045634867
-0.0055022337
-0.005035869
-0.007717177
-0.0038977338
-5.4701394E-4
-0.002296028
0.0027196293
0.006104605
0.003601318
0.0040283003
0.002958065
4.4606184E-4
0.0022420865
0.004105362
0.0027368793
0.0013005061
6.0550286E-4
0.0012449316
0.0039433325
0.002819556
-0.002110229
-0.0046502794
-0.0049412535
-0.0033748997
-0.0012232715
8.001769E-4
0.0023229346
-0.0010847041
-0.004797707
-0.003806336
-0.003451358
-0.0047981916
-0.004570466
-0.002293622
-1.2519024E-4
3.0580215E-4
-0.0018897348
-0.0052103116
-0.005134316
-0.0036980961
-8.81092E-4
0.004348956
0.004329644
0.0018454877
5.370112E-4
-0.0031423345
-0.005050327
-0.0056592254
-0.005117569
-0.0016408837
-0.0015982257
-0.004728217
-0.006483907
-0.002795558
0.0055414313
0.010772029
0.014625424
0.019068783
0.023351278
0.026205657
0.020557536
0.014303482
0.013200437
0.0069781835
0.001696627
0.0056030857
0.009930953
0.0057600746
-0.008862399
-0.026233308
-0.034109753
-0.030776763
-0.025447546
-0.023032518
-0.021170584
-0.021410502
-0.025097055
-0.024081578
-0.015662685
-0.012594291
-0.015621906
-0.01396074
-0.010546434
-0.002651852
0.0137870265
0.025240762
0.025636021
0.018196542
0.008536734
0.007186186
0.018706653
0.03608656
0.041786518
0.035326634
0.034961063
0.040690556
0.042908013
0.03402867
0.012239678
-0.0034701966
-0.004685682
-0.008072066
-0.01652545
-0.018693874
-0.017181786
-0.021328792
-0.029565655
-0.033873856
-0.029409025
-0.021497024
-0.016830841
-0.013119164
-0.018550418
-0.038252603
-0.04950383
-0.041174315
-0.024225708
-0.0027860175
0.01800765
0.030570848
0.033846
0.030693196
0.02327964
0.01465771
0.011566654
0.0035657217
-0.0142606115
-0.02303839
-0.026803441
-0.022971995
-0.0015829916
0.019597718
0.046439
0.06146485
0.037355307
0.018891122
0.018396627
0.02230819
0.039118394
0.03621709
0.0045964005
-0.025728434
-0.028088987
0.0036415325
0.019837914
0.01343685
0.022568736
0.027735202
0.008275548
-0.032020494
-0.081066735
-0.1064116
-0.08902596
-0.04545053
-0.01363999
-0.007194771
-0.013605971
-0.011581857
0.022551583
0.059366643
0.06003882
0.044430282
0.037190944
0.028605435
0.0012285666
-0.023110272
-0.02374752
-0.0039330563
0.050333265
0.08932211
0.06282623
0.027338628
-0.0072120274
-0.04957589
-0.058584556
-0.07765532
-0.11881742
-0.106322326
-0.06953366
-0.060451213
-0.07043039
-0.131924
-0.20386207
-0.1490344
0.010405189
0.122445084
0.17290583
0.2395377
0.31558663
0.3624843
0.34289134
0.21535555
0.04238566
-0.05961551
-0.08022144
-0.08938462
-0.11175655
-0.12755494
-0.12984864
-0.08085136
0.008413738
0.056003664
0.061860505
-2.4133219E-4
-0.121267706
-0.16045418
-0.13896638
-0.122439064
-0.10953425
-0.15290292
-0.16096325
-0.09488926
-0.07213447
-0.040521156
0.06086196
0.17240073
0.21851793
0.18784921
0.18897514
0.21150902
0.15233608
0.028846366
-0.090053044
-0.12098111
-0.06428133
0.001509992
0.04958247
0.08517456
0.12341064
0.10797322
0.0059246547
-0.10378468
-0.20039774
-0.22808826
-0.12938024
-0.034929868
-0.020472525
-0.009180077
0.010673585
-0.0101797385
-0.04460517
-0.040804487
0.0012873054
0.09433443
0.1946937
0.17069468
0.019000325
-0.10622833
-0.1476994
-0.16944204
-0.15345295
-0.10276487
-0.047552504
0.07672903
0.16665965
0.14557506
0.15512945
0.14768039
0.106532164
0.13084263
0.086777076
-0.06599086
-0.19455306
-0.23541532
-0.16506006
-0.06772979
-0.032994714
-0.038462617
-0.043586176
-0.032866202
-0.027327415
-0.008067022
0.051738802
0.12398015
0.21284148
0.2708429
0.19692732
0.056267183
-0.019138098
-0.07678072
-0.15776345
-0.14747436
-0.052506536
0.01440846
0.044022433
0.033362597
-0.020872584
-0.07274399
-0.085210465
-0.049634922
-0.010882151
4.357762E-4
0.0068921586
0.0029594589
-0.02860054
-0.075843565
-0.12039852
-0.14955522
-0.13696258
-0.0682745
0.013653867
0.072164685
0.11428954
0.14030467
0.13521473
0.10924005
0.10916511
0.13325489
0.116329946
0.047791187
-0.005730035
-0.009854739
-0.017754002
-0.058316886
-0.08977598
-0.09217568
-0.06306976
-0.021905355
-0.0033626263
0.010922583
0.024746096
0.018028291
0.0129502835
0.019410884
0.024233017
0.02196602
0.010988436
8.9358207E-4
-0.006537994
-0.014476331
-0.014608366
-0.008927973
-0.006611478
-0.009747816
-0.014227553
-0.013029373
-0.010683132
-0.008945141
-0.0018584516
-0.00481817
-0.018562099
-0.022085482
-0.024069682
-0.028669331
-0.024854215
-0.017687254
-0.007391717
0.004267936
0.0106146205
0.014069572
0.015968176
0.014802623
0.0064138956
-4.5878504E-4
0.0072504873
0.016176108
0.014151343
0.007833851
0.0049178596
0.00880418
0.015034298
0.018201508
0.017198564
0.016162055
0.019761471
0.021729238
0.02055442
0.019498948
0.014684354
0.011666552
0.014879547
0.015230762
0.009270278
0.002288705
-0.0032441695
-0.0109363105
-0.018430514
-0.01779108
-0.01096916
-0.0040594544
-0.002320177
-0.004792025
-0.0050874674
-0.011729691
-0.026309835
-0.03277502
-0.033255305
-0.034782726
-0.033225343
-0.02601077
-0.008809426
0.009598101
0.013064598
0.0072447006
0.004489785
0.008282104
0.014760275
0.015435775
0.009430083
0.0029337239
0.0042760335
0.015665201
0.025834305
0.031241428
0.037336197
0.03205356
0.005078234
-0.020671964
-0.025528077
-0.023727225
-0.025539815
-0.025762595
-0.023934748
-0.017842337
-0.009037577
-0.0034352893
0.001656142
0.0010415872
-0.013155656
-0.025813749
-0.02381768
-0.017176103
-0.0076844883
0.009014737
0.0202233
0.02642748
0.031162553
0.016864292
-0.0034528142
-0.008036321
-0.007691741
-0.0012805861
-5.663949E-4
-0.024168344
-0.037753094
-0.03173591
-0.03913588
-0.05293159
-0.05681411
-0.051240325
-0.03299945
-0.012680996
-4.991646E-4
0.01032826
0.01975094
0.02340484
0.02553956
0.027857814
0.036642153
0.05779614
0.07675747
0.08988674
0.101101264
0.101575874
0.10122072
0.0939298
0.06423915
0.044771988
0.045963787
0.041591737
0.013087214
-0.052545495
-0.11250659
-0.12410815
-0.12168828
-0.12411224
-0.1163452
-0.10071094
-0.08463988
-0.075476825
-0.07234475
-0.06731914
-0.058142643
-0.049064655
-0.04249342
-0.025262594
0.0043076365
0.02974123
0.046550553
0.05688699
0.06698121
0.07807732
0.082958914
0.08750028
0.0929156
0.08813872
0.069033116
0.046490364
0.03951945
0.039829455
0.0312017
0.021733383
0.007938167
-0.014281828
-0.029266773
-0.032454275
-0.030178111
-0.02954886
-0.031171054
-0.02738748
-0.020034904
-0.014118856
-0.011412727
-0.012684363
-0.01381527
-0.012718401
-0.009356946
-0.008361708
-0.012739461
-0.014226489
-0.013614567
-0.014932583
-0.015136568
-0.015425202
-0.011076144
-0.0040445593
-0.0043870937
-0.0046722726
-0.0014967876
-0.0018451881
-0.0029036142
-0.0011249324
6.075654E-4
0.0011915987
0.0053438637
0.010772117
0.01267883
0.01569352
0.015399009
0.0106320875
0.011214228
0.0124136815
0.011474861
0.011871336
0.0094890725
0.004738905
3.6481192E-4
5.8493443E-4
0.0046274294
0.004459276
0.0019342246
-0.002210987
-0.005972234
-0.0030732944
-0.0032159227
-0.007999645
-0.0059900987
-5.112557E-4
0.0016875572
6.352312E-4
2.6519605E-4
0.0023606115
0.0016882981
-0.0010218704
-0.0013392494
-9.761511E-4
-0.0012796671
-0.0015125882
-0.0016114868
-0.0014064019
-6.9820054E-4
1.9461787E-4
0.0014245459
0.0015429219
-0.0012206011
-0.0036946612
-0.004032996
-0.0033272195
-0.0022874414
-0.0031081755
-0.0042942087
-0.0037925164
-0.0020483187
3.3067446E-4
2.908287E-4
-4.756091E-4
-6.8359583E-4
-0.0025119442
-0.0027489099
-0.002614815
-0.0022422837
0.0011318444
0.0018418733
0.0013105958
0.002684641
0.0022617944
0.0022371162
0.0024690412
0.0016573601
0.0020122621
0.0014958878
9.5827377E-4
0.0028033252
0.003628005
0.001616677
4.004712E-4
0.0010439627
0.0017298247
0.0029695558
-0.0010654951
-0.009375962
-0.0070651416
-8.101986E-4
-0.0017880058
-1.16917945E-5
0.0027697575
0.0013360288
9.7369874E-4
-8.367862E-5
-0.0015637412
-0.0018957745
-0.0014524898
9.949289E-4
0.0011548214
2.1836592E-4
-1.4561665E-4
-0.0029862986
-0.0031684677
-0.0019427007
-0.002712514
-0.0012382544
0.0011899777
0.0047173444
0.0072426233
0.006245513
0.0080042565
0.008446689
0.0033309846
-0.0019279933
-0.0059204637
-0.006435817
-0.0056822863
-0.0052031567
-0.0022475438
-0.0018796176
-4.461214E-4
0.0059750224
0.008279838
0.005570793
0.001011604
-0.002310684
-0.0019680397
-0.0022501661
-0.002002657
-4.5327577E-4
-3.7808964E-4
-0.0012465888
-0.002878756
-0.0017052062
-4.668075E-5
-0.0016139975
-5.653229E-4
-1.3778721E-4
-0.0027020213
-0.0011905865
0.0018828526
0.0021575338
8.4842084E-4
-1.2637959E-4
-6.900633E-4
-0.00242202
-0.003216407
-0.0027605577
-0.0013833275
0.0014781576
0.0024828655
0.0026290247
0.0024135187
0.0010345693
0.0024561684
0.0032668882
0.0019275738
0.0032200625
0.0041229017
0.0034992928
0.0035374456
0.0030431359
0.0012970866
-0.0011463808
-0.0011101627
4.554832E-5
-0.0013269775
-0.0020343869
-0.0024103683
-0.003914116
-0.002498933
-3.424806E-5
-4.6110858E-4
-0.0015079908
-0.003021367
-0.0049912133
-0.0031244517
-6.7491987E-4
-0.0016460398
-0.001203695
-7.4295903E-4
-0.0010525401
0.0017712446
0.0011944341
-0.0021087884
9.116005E-5
0.002021683
0.0012636253
0.0026712792
0.003570084
0.0036664503
0.004454436
0.0035529262
0.0023639465
0.0016671488
5.917493E-4
4.9141125E-4
-0.0012562979
-0.0036432908
-0.001715198
4.638936E-4
3.6321758E-4
6.6156016E-4
0.0010972343
0.0015067201
9.559916E-4
7.9642097E-4
0.0014491866
-9.2436996E-4
-0.0030668217
-0.0022647155
-0.0010588234
-3.2923068E-4
-0.0012698424
-1.0290346E-4
0.0026132762
0.001079713
1.1258151E-4
1.7006602E-4
-0.0024441506
-0.003904961
-0.0028248767
0.0015030801
0.0038956078
-6.4463005E-4
-0.0027229558
-3.465514E-4
5.0046947E-4
4.8769252E-5
-0.001686587
-0.002637615
-0.003523699
-0.0038737806
0.001987053
0.004092512
-0.0026953125
-0.0011723597
0.008443538
0.010432248
0.006892318
0.0048176623
0.0016516955
-0.0034388641
-0.005031773
-7.2810584E-4
0.0030988476
0.0019516769
-1.7467262E-4
-6.601377E-4
-6.594913E-4
-1.2667164E-4
2.0258244E-4
-0.0011021537
-0.002823033
-0.002218493
4.205455E-4
9.7546744E-4
-9.263261E-4
-0.0015901694
-0.00171664
-0.0028142852
-0.0029449721
-0.0014273066
0.0010412337
0.0016168156
-3.0384838E-4
-4.6024397E-5
8.8751E-4
2.1825629E-4
0.0021285205
0.0043585952
0.003208571
8.610227E-4
-0.0015710185
-0.0026070457
-0.0017236422
-1.3567173E-4
0.0012764354
1.6402504E-4
-0.0015716722
-4.2149847E-4
0.0011583135
0.0011062442
7.723396E-4
9.841578E-4
9.3187724E-4
1.2603674E-4
-2.9270945E-4
-2.960333E-4
-2.341167E-4
1.113556E-4
-2.586491E-4
-0.0015282222
-0.0030083766
-0.0030829897
-2.0918089E-4
0.0026751158
0.002570542
0.0012305225
5.3915463E-4
5.268405E-4
8.246382E-4
4.4719275E-4
2.450709E-4
0.0014675697
5.522444E-4
-0.0024512764
-0.0020854617
-9.428061E-4
-0.0019206019
-4.1634782E-4
0.0033029572
0.003912885
0.0011772404
4.7809E-4
8.950931E-4
-0.0012018994
1.2550347E-4
0.003580432
0.0020218804
-5.841481E-4
-0.0018475908
-0.0027078993
-0.003787896
-0.0043825866
-0.0010534703
5.044171E-5
-0.0014213708
7.267999E-4
6.4083084E-4
0.0020994858
0.006930802
0.0039312458
-5.0311204E-4
-5.632884E-4
-0.001995377
-0.0027612476
-0.0022611504
-0.0020662565
-0.0017944144
-0.0013307715
5.501255E-4
0.0018025036
0.0018787143
0.0023968227
0.0024741122
0.0017127079
-0.0019339549
-0.0065471497
-0.005754867
-0.0020653398
-8.7353174E-4
-7.620259E-4
3.2416784E-4
0.0020236159
0.0029682775
0.002442758
0.0020440405
0.0015784387
-9.1081945E-4
-0.0027341915
-3.3765682E-4
0.0033933586
0.0042162924
0.0036234185
0.003283282
0.0021423579
0.0032128994
0.006274529
0.005620378
0.0028958893
-5.507348E-4
-0.0058639236
-0.0075419974
-0.0056976136
-0.0048144152
-0.0026124327
5.4889395E-5
-7.519186E-7
-1.239088E-4
-6.9122354E-4
-0.0027867048
-0.0011253476
0.0013976902
-6.682179E-4
-0.0014889194
-8.418988E-4
-0.0021164129
-0.0028430556
-0.0031200584
-0.001202981
0.0013310147
9.1235916E-4
0.0018020446
0.0022438294
4.1638134E-4
7.297999E-4
0.0017787021
0.00158416
2.119352E-4
-2.5608976E-4
4.7156357E-4
-5.15568E-4
2.1575E-4
0.0018882054
0.0017621022
0.0029318095
0.002482098
8.3520374E-4
0.0013778962
0.0014311046
9.1189117E-4
-9.89553E-4
-0.0028152182
-0.0010300037
2.8520026E-5
-7.990445E-4
1.0070089E-4
0.002088675
0.0028645769
0.001205958
-0.0014823831
-0.0028722808
-0.0021170494
-5.9953413E-4
-4.2047517E-4
-0.0010810258
-0.0011338368
-6.538003E-4
-0.0012137251
-0.0010122431
0.00164934
0.0026150127
0.0028787416
0.004004697
0.002671841
-2.2778139E-4
-0.0041813464
-0.0041523846
-5.7228437E-5
-0.00404471
-0.0078879995
-0.0021150447
0.0010536241
0.0012349981
0.0019033756
-2.1297802E-4
-0.0013621635
-0.0017276596
-0.0019116075
2.566277E-4
0.0016287472
0.0017556299
0.0017890582
0.001133654
0.0015346692
0.0033343837
0.0039083734
0.0025848632
0.0010383625
8.031414E-5
2.4370178E-4
6.872258E-5
-9.372336E-4
1.228411E-4
5.772286E-4
1.1494793E-4
0.0028253582
0.003154652
-9.6867915E-4
-0.0033911571
-0.0028269603
-9.604214E-4
-7.382674E-4
-0.0016021302
-0.0010072292
-5.090994E-4
1.7971131E-4
7.200142E-4
0.001045149
0.0021036628
0.0016444182
0.0018977906
0.0020516345
-0.001198467
-0.0019677796
-0.0016351643
-0.0048261895
-0.0056720767
-0.0028502787
7.366443E-4
0.0028085662
-1.869188E-4
-0.003409655
-0.001524942
-7.234057E-5
-0.001279225
-5.016E-4
9.844617E-4
0.0012852703
0.0026003316
0.002838652
9.890721E-4
3.253818E-4
9.6064457E-4
0.0010314041
6.17186E-5
3.7620257E-4
0.0017563321
5.720902E-4
-1.0435429E-4
0.0013416375
0.0015993312
0.0027724446
0.004592405
0.0030870463
-7.5716083E-4
-0.002332902
-2.890594E-4
9.914302E-4
0.0012686619
0.0011574731
-0.0019419729
-0.0034313896
-0.0020831502
-0.0021895121
-0.0016767434
5.793658E-5
9.954192E-4
-3.4447975E-4
-0.0035051669
-0.0040252237
-0.002507944
-0.0019071737
-0.0017540067
-0.0012567561
5.454546E-4
0.0015525843
3.5160762E-4
-0.0013397625
-0.0016703168
0.0011110917
0.0031580369
0.0028691536
0.004462179
0.0051783468
0.003030253
0.0017423639
0.0015729746
0.0032060998
0.00775237
0.009891633
0.0047078677
-0.0032538157
-0.008047661
-0.009382734
-0.007475436
-0.004727615
-0.0038461373
-0.0025517945
-0.0011841975
-0.0011524825
-1.3337542E-4
6.1580073E-4
-9.962464E-4
-0.0028355734
-0.0043332223
-0.0052288696
-0.002863621
9.848468E-4
0.0024886888
0.0032169023
0.004544593
0.0048882603
0.005175192
0.00571792
0.0030261031
-1.9425624E-4
9.707814E-4
0.0011150767
7.338398E-4
0.0041423975
0.003273168
-8.428458E-4
-0.0017855003
-0.0023864717
-0.0012724877
1.4135805E-5
-4.7776743E-4
-1.7961363E-4
-0.001030985
-5.984602E-4
-7.147173E-4
-0.0037686715
-0.0029121952
-0.002520663
-0.0030960958
0.0010719829
0.0023808088
8.02853E-4
8.281936E-4
1.8596346E-4
-6.3817936E-4
-0.0010882288
6.777517E-5
0.0010256284
-3.7179978E-4
-0.0019847646
-0.0036882218
-0.0033429938
-0.0026290852
-0.0032332523
-0.0010226518
7.689352E-5
2.172215E-4
0.0030419254
0.0034724663
0.0024704335
0.0017165904
-3.107327E-4
-2.093172E-4
0.002189788
0.0033017348
0.002230634
0.0020367461
0.003436335
0.0038293044
0.0025385444
-6.444388E-4
-0.0013989002
0.001800414
0.0030132302
0.001801293
-1.5834498E-4
-0.0016610129
-0.002134405
-0.0024945661
-8.3358074E-4
-3.788469E-4
-0.0021871396
-0.0028742945
-0.004247468
-0.0038848035
-0.001859543
-2.3813493E-4
7.792401E-4
-0.0042966222
-0.007126637
-0.0013632716
6.050062E-4
-1.8106562E-4
0.0018741584
0.0024219176
0.0020067196
0.0027697962
0.004775176
0.0044365376
3.021136E-4
-0.0016500988
-0.0018872407
-0.002735286
-9.289031E-4
0.001233926
0.0021112722
0.004970357
0.0056594154
0.002243012
0.0011698834
2.1534254E-4
-0.0036726103
-0.006280095
-0.006765614
-0.004182992
-0.0013107766
-7.423436E-4