-6.948523E-4
0.0017856084
0.0031368395
0.001591858
-2.2136701E-4
-0.0017027141
-0.0026141573
-9.630982E-4
1.6181482E-5
-0.0010645053
-0.0015859264
-0.0011637509
9.5792493E-4
0.002476355
0.0012999048
7.628752E-4
0.0010463526
3.4167845E-4
-3.9590205E-4
-5.9569423E-4
-4.258388E-4
8.610543E-5
6.065226E-5
-0.001349929
-0.0011767491
0.0011627774
6.0948473E-4
-9.2584715E-4
2.8756293E-4
7.1583263E-4
3.155887E-4
-5.307973E-5
-0.00201221
-0.0018275493
0.0017361703
0.0038012946
0.0023990495
-1.0633655E-4
-1.600083E-4
3.3192433E-4
-0.002016986
-0.0024612444
4.8605716E-4
0.0019609055
0.0016564055
3.313309E-4
-0.0011731358
-4.1278952E-4
0.0014670866
0.0014923688
-2.7357833E-4
-0.0011734389
-0.001110292
-0.001288619
-0.001437761
-0.0023530314
-0.001629796
9.95183E-4
7.829707E-4
-3.7636545E-7
1.993699E-4
-6.010896E-4
-4.0227102E-4
-7.460723E-5
-2.4120952E-4
-0.0011996536
-0.0027738353
-2.4324626E-4
0.0016711626
2.972932E-4
0.0022771119
0.0023754227
-1.8479633E-4
9.416868E-4
4.049307E-4
-5.921695E-4
0.0016633132
0.001066049
-0.0011373475
-6.068444E-4
2.2982329E-4
-3.0284576E-4
3.238221E-4
0.0021004528
0.0020531237
0.0030490246
0.0036349643
-4.1962546E-4
-0.0019387559
-5.831899E-4
-0.0025489014
-0.003863276
-0.002030285
-0.0010260552
-0.0015602976
9.271419E-4
0.0031782112
3.1458546E-4
-4.0984148E-4
4.435853E-4
8.8425135E-5
-1.787414E-4
-0.0061178147
-0.007990569
-6.274543E-4
0.0017812485
0.001460239
0.002625683
0.0030607407
0.0028873053
-1.01975915E-4
4.353234E-5
0.001507421
-5.319038E-5
0.0019446086
0.0022412017
-3.3988783E-4
2.3643913E-4
-2.7961665E-4
-0.0015223278
-3.10279E-4
0.002475108
0.002578308
-3.0502753E-4
-5.299501E-4
-0.0014351417
-0.0022529296
-1.8522028E-4
-0.0016000596
-0.0024343235
5.3781543E-5
7.3243637E-4
8.6246735E-5
-0.0015925051
-0.002031706
-2.0732137E-4
7.612596E-4
1.8346611E-4
1.5037642E-4
0.0027672648
0.0032070007
8.266295E-4
2.3028461E-4
-8.9802634E-4
-6.8753294E-4
3.1100275E-4
-0.0015862716
-0.001026228
5.933428E-4
-7.7114906E-5
-1.7617128E-4
-8.014324E-4
-4.8623627E-4
0.0011610244
-1.6019549E-4
-0.0014765782
5.485989E-4
0.0014653761
2.4847087E-4
9.1302703E-4
0.0024322036
0.0021074044
9.092238E-4
-2.5667413E-4
-0.0012307911
-0.0010908901
3.717834E-4
4.7820152E-4
-0.0011426343
-0.0014992509
-0.0013930761
-9.897981E-4
2.9984792E-4
2.1755027E-4
-2.7721815E-4
3.8146373E-4
3.5923492E-4
-0.0029353595
-0.0058552064
-0.0021238509
0.0021222283
0.0013866478
8.848246E-6
-0.0013830891
-0.0014994178
8.869362E-4
0.0025923185
0.002936468
0.0025393197
0.0022994431
0.0013412382
1.2793811E-4
0.0011026495
9.1754267E-4
1.4684063E-4
0.0019626427
0.0026707002
0.001245255
-8.9692295E-4
-0.002649601
-0.002145586
-2.0259645E-4
4.6675024E-4
-0.0012182457
-0.0011249376
7.887098E-4
2.3347049E-4
-6.1386556E-4
-0.001401983
-0.001965149
-0.0013353841
-0.0017984834
-5.986328E-4
1.3943154E-5
-0.0024725536
-0.0021769342
-0.0010213942
-1.8806772E-4
0.0010510643
3.8278822E-4
0.0011930857
0.0013484274
5.199784E-4
0.0020533502
9.830657E-4
2.2512105E-4
0.0015939393
5.583677E-4
0.0013599786
0.0023168486
6.665006E-5
-4.2348466E-4
7.808951E-4
0.0013610477
6.532066E-4
-8.2426483E-4
-0.0013878307
-0.0014821922
-2.4167883E-4
0.0010773081
1.5495773E-4
-6.543661E-5
1.5571254E-4
-9.340264E-4
-0.0010462881
-0.0012772321
-0.0020628497
-7.7384856E-4
2.8503445E-4
9.3092865E-5
5.924535E-4
-8.418287E-5
-0.001288538
-2.2596514E-4
0.0017105967
0.0018280932
2.9143426E-4
7.586086E-4
0.0012732599
-0.0012822677
-0.0011422557
7.09142E-4
3.277655E-4
0.001368197
7.652693E-4
-0.002820376
-0.0031733215
-0.0010296402
-2.3364875E-4
-9.270812E-4
-8.665366E-4
-1.2736785E-4
-8.769522E-4
-4.7737826E-4
0.0017991775
0.0023022187
0.0015145192
0.0015460366
0.001973203
0.0012983372
2.6102268E-4
0.0013089763
0.002894505
0.002131783
2.6182865E-4
-6.542938E-4
1.0903844E-5
0.0010864167
-2.774445E-4
-0.001967451
-4.006688E-4
9.742389E-4
-3.5912249E-6
-0.0011923624
-0.0016498958
-0.0014823945
-0.0024836008
-0.0032702873
-0.0021820054
-0.0031305414
-0.003914063
-0.0014592205
-6.548962E-4
-2.1192641E-4
0.0020780799
0.0017777542
0.0011788101
0.002328843
4.2278372E-4
-0.0021440906
-0.0012256964
2.739551E-4
6.3136563E-4
0.0010251346
0.002615483
0.0031830098
0.0021674344
0.004277664
0.0055300007
0.0014074174
-0.0020997466
-0.0027660355
-9.3134504E-4
0.0018304834
0.0013995267
-3.3980956E-5
-0.0017055548
-0.004138646
-0.002653384
0.0014326869
0.0026038832
0.0028535058
0.0050065923
0.004638453
0.0010798497
-0.0015694605
-0.004335559
-0.0059248274
-0.005031648
-0.0041260105
-0.002422286
-0.0019037179
-0.0022695444
-5.7141867E-4
4.9977698E-5
1.0076293E-4
4.307196E-4
1.3053384E-4
6.876897E-4
-4.3288112E-4
-0.0024624593
-0.002655673
-0.0020161576
5.738954E-7
0.0016591672
0.0017227688
0.0019590203
0.0024660013
0.0027842394
0.0021857284
0.0018978505
0.0026391565
0.0028998784
0.0043531717
0.006825952
0.0066161146
0.003721633
3.7954972E-4
-0.002071319
-0.0033376892
-0.0049951314
-0.005594293
-0.0022191417
2.931569E-4
-9.213877E-4
-0.0016955812
-0.0021281797
-0.002978639
-0.0036628668
-0.0041579944
-0.0034610145
-0.0031659703
-0.0022498677
8.103903E-5
3.035658E-5
-3.3022018E-4
0.0018822624
0.0035769716
0.002828051
0.0011839085
6.8965787E-4
0.002640267
0.0045047197
0.0019581376
-3.814337E-4
2.1274753E-4
6.140189E-4
0.0037932165
0.005186166
0.0029215824
0.0024021207
-0.0011693995
-0.0031692097
-0.0013917993
-5.666072E-4
0.0022861634
-0.0028975212
-0.009110867
-0.0050637196
-0.007919065
-0.008141677
8.035018E-4
8.4516645E-4
7.866865E-4
0.0037797578
0.004032192
0.0055754744
0.003521104
0.002118096
0.003261392
3.3702556E-5
-0.0010773647
0.0012257261
0.0024703932
0.0024607182
6.19145E-5
-6.8661285E-4
0.0013376365
8.2038867E-4
-0.0015707837
-0.002639465
-0.0027609756
-0.0026419351
-0.0033411828
-0.0042038467
-0.0029260009
-0.0025991062
-0.004280808
-0.0033899674
-4.0935187E-4
0.0018512867
0.0027145208
0.0036504364
0.005344253
0.0046704975
0.002531836
0.0016885677
0.0030975654
0.006028803
0.006139022
0.0047958703
0.0034532163
0.0016591634
0.004084475
0.00413726
-0.0028997483
-0.0053642318
-0.0036979513
-0.005496338
-0.008151355
-0.010567282
-0.011846348
-0.009503763
-0.006019859
-0.0037899497
-0.0023371684
-0.0010820809
2.1258199E-4
0.001689384
0.002819206
0.002693452
0.0036713565
0.007151167
0.008613864
0.0073188758
0.0046925643
5.4816145E-4
7.7661425E-5
0.0019085336
0.0020648725
0.008612751
0.01746757
0.013167667
3.3505206E-4
-0.006652278
-0.00581094
-0.0042664004
-0.005793005
-0.0070915422
-0.0075549837
-0.008494674
-0.007185131
-0.004921386
-0.0045343176
-0.0035356046
-0.0010567285
0.001270378
0.0011446298
-7.5085304E-4
0.0014059916
0.004626173
0.0029381034
1.5745501E-4
-0.0021871494
-0.0033259802
-0.0024436228
-9.838951E-5
0.007341359
0.010156141
0.0024879288
8.2502264E-4
0.0047191293
0.0028158247
-0.0020510904
-0.0045533353
-9.944733E-4
0.0020390595
8.639096E-4
0.002363776
0.0018006415
-4.1091675E-4
7.162168E-4
-1.6335434E-4
-6.048519E-4
-6.188534E-4
-0.0025052722
-0.0010724643
-7.180792E-4
-0.002800879
-0.0020130384
-9.7600644E-4
1.051118E-4
0.0010793874
-4.580521E-4
-0.001928021
-0.0023814312
-0.0017602241
-4.2642196E-4
-0.0010954817
-0.0016968987
-8.819155E-4
-0.0011931196
-3.431261E-5
0.0029749111
0.002916145
0.001458534
0.0027953219
0.0049699685
0.0024794303
-0.0030248787
-0.0029582419
8.880898E-5
0.0014744911
0.0034970911
0.0021324286
7.3010486E-4
0.0028496573
-0.0011824573
-0.0066273753
-0.0050114486
-0.0015855903
1.9931607E-4
-0.0012705522
-0.0022369728
6.097033E-4
0.0025894549
0.0031183627
0.002117262
0.0016328798
0.0026576577
-0.0010016222
-0.0045774146
-0.0035602201
-0.003442516
-0.0033885199
-0.0031195083
-0.0019300642
0.0027619265
0.005213499
0.0038731883
0.0035317396
0.0037782243
0.0026711316
9.770493E-4
9.270433E-4
0.0027420586
0.002108149
-0.0018581043
-0.003251021
-0.0027273674
-0.0028811465
0.0024975152
0.008818542
0.0054945354
2.0679929E-4
-2.8575843E-5
-0.0016963497
-0.0065857274
-0.0089882845
-0.0062864753
-0.0022826935
-0.0019836326
-0.0043046046
-0.0037932887
-0.0018312485
-0.002729114
-0.0018392738
0.001930633
0.0031999613
0.0032835205
0.003065813
0.0017095212
2.9840227E-4
-0.0022051996
-0.0022306123
0.0017237318
0.0036241184
0.0051820176
0.0086032925
0.008836579
0.0068778023
0.004760451
4.4006034E-4
-0.004604305
-0.0063071693
-0.0018860837
0.0027089051
0.0013466739
3.6164955E-5
-0.0017436353
-0.0065459027
-0.006282996
-0.002854586
-0.0011626363
3.2436269E-4
-5.787099E-4
-0.0011870068
8.430804E-4
0.001450799
-8.5414984E-5
-0.002296532
-0.0030181082
-0.0025333914
-0.0021933233
-7.4723695E-4
4.880224E-4
0.0011506059
0.0021625226
0.002625722
0.002283474
0.0015589338
0.0023814328
0.0028897363
-1.0182957E-4
-0.0024629415
-0.0010139091
4.5027267E-4
-0.0012049195
-0.002148673
-7.572826E-4
4.4007952E-4
0.0033699835
0.004366606
8.203247E-4
-4.4410405E-4
3.9709845E-5
-7.7954197E-4
-0.003446161
-0.0064300215
-0.0046073603
-0.0015273781
0.0012031166
0.00686245
0.01007849
0.009139531
0.0076340395
0.005627862
5.512818E-4
-0.006376294
-0.007990377
-0.007117509
-0.008729835
-0.006476883
-0.0011654038
0.0018892894
0.0043484773
0.0053402013
0.0027956262
-9.042565E-4
-0.0032090836
-0.0049469713
-0.0078521
-0.009085199
-0.006898642
-0.0050820466
-0.0015750843
0.004637187
0.0068895593
0.008044984
0.009389198
0.0057682
0.0034488474
0.0036836746
0.0032537386
0.0051813154
0.0041406173
-2.322174E-4
-6.740392E-4
-6.484137E-4
-0.0015801681
2.678677E-4
8.7797304E-4
-0.001936847
-0.002916112
-0.0026419589
-0.0035377764
-0.0028940416
-0.0029517803
-0.0038621791
-0.0030873022
-0.0033375314
-0.0023469708
6.7401567E-4
0.0015179919
-2.6929908E-4
-0.001851572
0.0020087461
0.0059963563
0.0032267002
0.0011463745
0.0020732642
0.0014816042
-6.180092E-4
-0.0012124394
4.5946243E-4
-2.466157E-4
-0.0030935495
-0.0051228325
-0.00514676
-0.0027640548
-0.00225772
-0.001221898
0.0025388733
0.0039825556
0.004487316
0.0033044384
2.0809064E-5
-3.8939973E-4
2.212452E-4
-4.25813E-4
-0.0011045292
4.9028833E-5
0.003573518
0.0060547506
0.0062547983
0.005626157
0.006127969
0.0060354527
0.0016577628
-0.002944076
-0.004746495
-0.0056859893
-0.005826241
-0.005660081
-0.0050149495
-0.0033948384
-0.001188921
-0.0016858763
-0.0066782692
-0.0075832177
-0.0030859408
-0.0016831823
-0.0011582754
0.0010546271
0.0020648846
0.0032342481
0.0042766267
0.0031707322
0.0011345102
6.298685E-4
0.003041253
0.005362021
0.005501917
0.0059832954
0.0038415939
-0.0019272914
-0.0025870868
-4.142364E-4
-0.0026735303
-0.0026596019
0.001157902
0.0011487566
-0.0017076976
-0.0018591499
9.416075E-5
6.0354152E-5
-0.001197883
-0.0028105031
-0.0048780814
-0.005100145
-0.0057381447
-0.0055605923
-0.0036033785
-0.0049305675
-0.0032962295
0.0027199083
0.0051620994
0.006264581
0.0047810026
2.9691333E-5
-0.0025815303
-0.0033218318
-7.408555E-4
0.0026327835
0.0013492284
-0.0011034322
-0.0024542303
-0.0059510884
-0.013412319
-0.016491184
-0.009112237
-0.0012935466
0.00469908
0.012610458
0.017608687
0.021603726
0.025730826
0.025983501
0.024768023
0.021179557
0.013083283
0.005964976
0.0025736443
-0.0023323835
-0.010906929
-0.017362742
-0.020186685
-0.021933995
-0.021234076
-0.018411543
-0.015187415
-0.012151151
-0.0093338685
-0.004760609
0.002426131
0.0108066425
0.015605272
0.012745751
0.0054064943
-0.0031999126
-0.011046399
-0.014427627
-0.014742466
-0.014069904
-0.0098165665
-0.0051834052
-0.006201991
-0.008609753
-0.008469988
-0.0066331048
-3.4617182E-4
0.0059584454
0.0064357063
0.006411433
0.0058247973
0.0010392511
-0.0039376905
-0.0017936386
0.011167036
0.018493228
0.0091002025
0.0058328817
0.014157948
0.015940255
0.021069514
0.03842537
0.048207566
0.04366264
0.03954195
0.041655976
0.032472055
6.3487963E-4
-0.02300862
-0.026790766
-0.051588763
-0.09010414
-0.0964477
-0.07943333
-0.052901983
-0.013614845
0.011812787
0.005416793
-0.014619496
-0.021039788
-0.0036640328
0.028498022
0.06027482
0.07001526
0.058308803
0.046591237
0.050648335
0.06654419
0.052634444
0.021429585
0.01598936
-0.0012526746
-0.024795286
-0.023083283
-0.03490686
-0.06640201
-0.096313536
-0.10659083
-0.093742214
-0.06919484
-0.029436987
-0.017075852
-0.03410354
-0.0392049
-0.037570376
0.009105924
0.066563986
0.06959497
0.080148354
0.09260516
0.07579646
0.058591135
0.039057843
0.032475192
0.041039277
0.057899237
0.07250318
0.07179003
0.08152765
0.053351097
-0.0055765784
-0.015747497
-0.063378505
-0.16232046
-0.19783272
-0.1828059
-0.14754064
-0.096790105
-0.06394165
-0.03672029
0.020618565
0.10851512
0.18132654
0.20038265
0.18217237
0.14125732
0.07808761
0.01818815
-0.051686138
-0.15041064
-0.18813941
-0.13569467
-0.08215552
-0.0063240794
0.12607357
0.22081898
0.19887917
0.05713413
-0.11584016
-0.21422513
-0.2545471
-0.23992352
-0.114032164
0.03089163
0.06181232
0.0419553
0.07106255
0.09677938
0.08126189
0.113814086
0.19355033
0.1948159
0.11591046
0.048122257
0.01984726
0.0047924602
-0.029918816
-0.060458835
-0.090745784
-0.13113065
-0.0873378
0.009629324
0.046694923
0.06097519
0.04453029
-0.072047904
-0.24363098
-0.37520772
-0.39816552
-0.28982425
-0.10595325
0.061977327
0.19070694
0.27860475
0.33064404
0.3974215
0.3821901
0.15824255
-0.13490549
-0.27791235
-0.22928531
-0.13615789
-0.091508746
-0.028530134
0.059466004
0.13524023
0.18434377
0.16942255
0.077309646
-0.020987216
-0.026035398
-0.0420968
-0.16852696
-0.26094925
-0.26038826
-0.17301534
-0.023254363
0.07585443
0.12842906
0.12257775
0.07630255
0.08305911
0.045144927
-0.014319356
0.04542823
0.115672715
0.119278565
0.13045426
0.16316888
0.1900429
0.173493
0.01742006
-0.23211761
-0.3020617
-0.17090729
-0.06822809
-0.028540013
-0.042349964
-0.13047412
-0.18443613
-0.13217571
-0.04621955
0.009966588
0.05794758
0.06374696
-0.0029703432
-0.057472363
-0.06684065
-0.053785343
-0.050219294
-0.07151
-0.040722612
0.048216738
0.113680445
0.14002678
0.16196848
0.17024457
0.120758615
0.09258476
0.10950199
0.03911782
-0.059337955
-0.068206586
-0.037312824
-0.01105992
-0.0035720917
-0.0039616125
0.0022925392
0.0051508667
0.016910603
0.024274345
0.017557712
0.009470464
-0.004775876
-0.015318835
-0.01516249
-0.0041816914
0.010676302
0.009566253
-0.007225772
-0.015920073
0.004954193
0.013256999
-0.014409447
-0.019420424
-0.020821607
-0.06298921
-0.09736778
-0.09360332
-0.071456395
-0.050294023
-0.028378006
-0.0011531435
0.009974404
-0.0034402476
-0.02644664
-0.036407672
-0.017040957
0.013573442
0.030983418
0.032830004
0.030333953
0.034139078
0.039916664
0.040690847
0.038738143
0.03922861
0.041778952
0.03940525
0.030518487
0.02364751
0.023703996
0.022351043
0.016706245
0.013932694
0.012916999
0.011029387
0.009337556
0.007781107
0.0054837163
-6.508562E-4
-0.008598313
-0.014729482
-0.01877171
-0.020372173
-0.021973483
-0.021523383
-0.01764631
-0.015755987
-0.015741382
-0.017728051
-0.020511039
-0.01862381
-0.015982931
-0.01322503
-0.00482547
0.0042729117
0.010591339
0.015024703
0.013742665
0.010614256
0.012297567
0.011865478
0.0013121694
-0.013954318
-0.02325465
-0.024428282
-0.018728232
-0.0038310667
0.014864925
0.029706467
0.039753333
0.04009043
0.02688372
0.0072271223
-0.005839568
-0.008435867
-0.017647317
-0.040285256
-0.05370114
-0.045792777
-0.028848007
-0.015160496
-0.005778328
0.0055804364
0.016891418
0.01836262
0.01026716
0.003923127
0.0054668784
-7.8037503E-4
-0.026708832
-0.050839897
-0.058658913
-0.056279954
-0.042982128
-0.02734647
-0.016404368
-5.088425E-4
0.016143342
0.026361318
0.03450686
0.039082617
0.037118807
0.033227537
0.032913197
0.027014818
0.008634831
-0.0011416728
0.0067214575
0.014907986
0.024987511
0.045341946
0.057480387
0.0469778
0.031463206
0.025863452
0.022627762
0.015969507
0.0048256037
-0.004140767
6.4584415E-4
0.0028858187
-0.011506473
-0.023420036
-0.032241855
-0.04245663
-0.03796744
-0.03885816
-0.06056266
-0.07261845
-0.07381404
-0.07149791
-0.054294936
-0.036979534
-0.024566352
-0.010442948
-0.0011494786
0.013484158
0.033535596
0.042551793
0.0369613
0.017905403
-0.002356533
-0.012023446
-0.0074928068
0.012128479
0.028429233
0.033213425
0.037422787
0.038574874
0.03626898
0.038921997
0.0442629
0.04000821
0.0259719
0.015538315
0.0061445613
-0.007507052
-0.018551651
-0.024676068
-0.02403384
-0.02010952
-0.013590824
-5.524987E-4
0.0048783193
0.0030351405
0.008041203
0.014455973
0.02192246
0.025373144
0.013076834
-0.0036000805
-0.018723045
-0.03011573
-0.026194908
-0.02018216
-0.025548715
-0.028313125
-0.022192245
-0.01746656
-0.022747831
-0.029149858
-0.018842276
-0.0011154356
0.0070019094
0.011691487
0.013424387
0.005422989
-0.0059401058
-0.012766151
-0.012053044
-0.0067733396
-0.0016140069
0.0046923254
0.010935463
0.014852239
0.020398285
0.028688993
0.030643769
0.021157697
0.010628018
0.0076402547
0.009365963
0.008818573
0.0017387059
-0.004089842
-0.0026249671
-4.333761E-4
-4.257514E-5
6.917276E-5
-5.1725464E-4
2.521571E-4
0.0028855281
0.0041346992
0.0024463397
-4.6429152E-4
-0.0035641405
-0.006299852
-0.007493235
-0.0062430045
-0.002485278
-9.039693E-4
-0.0031440312
-0.003834687
-0.0051471903
-0.00906368
-0.007521973
-0.0023471203
-0.001829369
-0.001069121
0.0014387534
3.716906E-4
3.1707896E-4
5.8729545E-4
-5.864922E-4
0.0023192787
0.0036063462
0.002377458
0.0014557389
-0.002689501
-0.0030964767
-0.0026678462
-0.0037719419
0.002173113
0.0033938987
-8.400391E-4
2.0293878E-4
-2.672322E-4
6.8304094E-4
0.0048553813
0.003933453
-0.0011895513
-0.0067234267
-0.007346771
-0.004275589
-0.0038736984
-0.0031995121
5.139125E-4
0.0039264937
0.0036288863
0.0017480201
0.0011375484
6.3992006E-4
1.371801E-4
-6.798575E-4
-4.371455E-5
0.0012626541
9.945297E-4
0.002374268
0.0011513343
-0.0014410566
0.0018065926
0.002720525
0.0013963607
0.0033376163
0.0016922583
-0.0020585447
-0.0019109839
0.0020527286
0.007762418
0.009700678
0.004061251
-0.0059124604
-0.01194317
-0.00967386
-0.004001804
-0.0017029351
-0.0021264772
3.7655587E-5
0.0045545576
0.0070233746
0.0056679696
0.0038628043
0.0020867295
-0.001536448
-0.0014517938
-0.0018074831
-0.0047048233
-3.1814905E-4
-7.564434E-4
-0.006909892
-0.0017533212
0.0014104918
-0.0015196091
0.002704441
0.0063810092
0.0026077211
-0.0036427064
-0.005400228
-0.0024226788
-1.6013047E-4
0.0012288742
6.636549E-4
-7.2626886E-4
7.0060615E-4
0.0035301636
0.00525438
0.004244258
0.0035376376
0.0026768325
-1.5461961E-4
-7.57689E-4
-0.0014183108
-5.809447E-4
0.0035648511
0.0028935177
-5.310956E-5
-0.0011347183
-0.002862058
-0.004026648
-0.0033323653
-0.0014429739
-0.0024769818
-0.003917548
-0.0012714702
-8.9201186E-4
-0.0025590244
-0.0019624324
-3.360222E-4
9.947501E-4
0.0011500716
0.004095117
0.007686534
0.0057647354
0.0032751723
0.0028417965
0.002399809
0.0015925426
-1.13017784E-4
-0.0014550299
-0.0024537528
-0.0030313332
-0.003254783
-0.0035344511
-0.0026628443
-0.002938114
-0.003401813
-0.0019452657
-0.0025336908
-0.003703486
-0.003693582
-0.0055519515
-0.005627927
-0.0017394108
-1.9908856E-4
-7.966385E-4
0.0026009278
0.0062854686
0.0066430373
0.008214286
0.010507026
0.012118986
0.011406049
0.0048554433
-0.0012668917
-0.0023890545
-6.1376445E-4
0.0023301
0.0030198796
0.004450129
0.0060706073
0.0031169322
0.0018422265
6.7441654E-4
-0.004446631
-0.007652425
-0.008810013
-0.0070049698
-0.005807723
-0.009856418
-0.009599357
-0.006685244
-0.006110591
-0.003443753
-0.003538117
-0.004344103
-0.0022079353
-0.0024404125
-0.0015302921
4.590394E-5
8.200809E-4
0.0047353576
0.007021084
0.0067406488
0.005731532
0.0033942019
0.0035854576
0.0049508587
0.004497043
0.0037798635
0.0036291447
0.0030452001
0.002012036
0.004358982
0.0077789915
0.007627563
0.0074785845
0.008009536
0.0058365194
-8.872627E-4
-0.006756066
-0.0055263513
-0.0051408694
-0.0061427676
-0.004072138
-0.007886753
-0.011005765
-0.004391648
-0.0010817996
-0.0039426126
-0.005299771
-0.0045650587
-0.0022648936
-7.158074E-4
2.9629571E-5
5.012528E-4
-0.0018244718
-0.0025973585
-1.5090345E-4
3.5923923E-4
0.0021823996
0.0058785346
0.0048044804
0.0013081084
-7.066086E-4
-9.5446134E-4
0.0011491199
0.002500325
0.0033112313
0.005425324
0.0076594874
0.011122166
0.0105464915
0.0029979865
-0.0017038233
-0.0027470116
-0.0052952953
-0.006523426
-0.0060838033
-0.004314265
-3.5561592E-4
0.0016693668
0.0012828009
0.0020159145
0.0026912994
0.0018555346
-4.218155E-5
-0.0020480955
-0.0012859654
-9.2531714E-5
-0.0024996253
-0.0033402718
-0.0015378229
-0.0029779894
-0.004529348
-0.0041590007
-0.006352169
-0.006331492
-7.335781E-4
0.0017808437
-2.0740202E-4
-7.431481E-4
1.15973395E-4
0.0020340171
0.0032093613
0.0012054875
8.897359E-4
0.003015346
0.005038802
0.0075845574
0.006969596
0.005248103
0.0059536123
0.0037384797
0.0018490284
0.0028882327
9.5502165E-4
6.482988E-4
0.0040058396
0.004441017
0.0035650295
0.0029611976
-0.0010492852
-0.0071997927
-0.008752732
-0.0056226
-0.0055518732
-0.0067120707
-0.0047941976
-0.0038501122
-0.0030722537
-0.0021133623
-0.0030065873
-0.0026945013
-0.002593366
-0.00283653
-0.0015396615
-0.0019322459
-0.0011032467
0.0010595176
1.559735E-4
7.319332E-4
0.0016956442
3.1135828E-4
0.0015267397
0.0024640723
8.5610116E-4
3.4179783E-4
8.4360316E-4
0.0027394558
0.004222896
0.0036905666
0.0024464238
1.01411584E-4
6.737009E-4
0.0055407593
0.0103756795
0.012075105
0.007006206
4.1854946E-4
-0.0014693823
-0.0012106837
0.0013874371
0.0026783587
6.754765E-4
-3.8834234E-5
-0.002008908
-0.004186485
-0.0040035504
-0.0046973736
-0.0040818783
-0.0023730914
-0.0034588156
-0.00665923
-0.008963898
-0.007510052
-0.0048790476
-0.004146317
-0.0036920533
-0.002350602
-4.5861516E-4
4.1804393E-4
6.353219E-4
9.959575E-4
8.8832644E-4
0.0021584672
0.0044615706
0.0045550033
0.0025130452
0.002104389
0.0033563944
0.00263799
0.0029403428
0.0038078309
8.564421E-4
-3.383676E-4
0.0012990962
0.001928037
0.00296899
0.0042882646
0.0057696993
0.004241133
-0.0010333008
-0.0034660767
-0.004004688
-0.003868644
-0.0010665235
0.0014635175
0.003673513
0.0045192237
0.0017349835
-0.0010506237
-0.0017372175
-0.0017969781
-0.0024125045
-0.0028053683
-0.002847436
-0.003727974
-0.0032243899
-0.0018309857
-0.003014791
-0.004655794
-0.0039663026
-0.0025716673
-0.0023603698
-0.0016913947
7.708446E-5
0.0014515124
0.0022935937
1.6427162E-4
-0.0024340295
3.5141394E-4
0.0030435082
0.0021838471
0.0020896818
0.00254999
0.0036676493
0.005667315
0.006489976
0.007236842
0.008599509
0.007307533
0.001238991
-0.0034841318
-9.1648265E-4
0.0015578729
-0.0022740478
-0.006226792
-0.0068727084
-0.0067717703
-0.005568488
-0.0035569773
-0.0036846716
-0.004447375
-0.0032448708
-0.0024760622
-0.0017427801
0.0011155921
0.0024247752
0.001893901
0.0024952746
0.0016920593
7.184859E-4
0.0017781722
8.3024276E-4
0.0010129827
0.0055043236
0.0063471445
0.002211818
-6.788581E-4
-0.0026634517
-0.0026197662
0.0038834373
0.0098624015
0.007820643
0.0026644408
-0.0049352525
-0.013262678
-0.013237679
-0.007588866
-0.0015978665
0.0027479136
0.00199776
0.0012863972
0.0015090685
5.298024E-4
0.0027600857
0.0044568414
0.003240227
0.0022434257
0.0010528079
0.0014336553
0.0011424808
-0.0026739286
-0.0045701964
-0.0016765123
0.0014416706
0.0011014432
-6.0574326E-4
-0.0024913156
-0.0038070057
-0.0027391894
-0.002942372
-0.0041335556
-0.0020280716
8.300351E-4
0.0020894478
0.0027297093
0.003546463
0.0030064622
3.8596936E-6
-4.1045394E-4
0.0025334153
0.0022469412
1.2416887E-4
0.001939244
0.0042874757
0.0038862051
0.0033576086
0.0019150814
1.4107906E-4
-0.0014665268
-0.0046226196
-0.00461667
-0.0023697356
-0.0020500585
-0.0017566168
-0.0030609288
-0.0037702397
-0.0012975727
8.031446E-4
0.0014757077
-5.807232E-4
-0.002010505
1.7783977E-6
5.1780796E-4
1.2349035E-4
3.6526486E-4
0.0010392311
0.002290194
9.4287755E-4
-1.1845448E-4
0.0016898155
0.0017691536
8.9833443E-4
0.0025893315
0.0035622995
0.0016251632
9.648218E-4
4.2713716E-4
-0.0027660036
-0.0036465153
-0.002002505
-0.001369411
-4.354887E-4
0.0014306187
0.0020763334
7.751863E-4
6.564565E-4
8.1526965E-4
-3.1478988E-4
9.46867E-4
0.0015093362
3.4388935E-4
0.0010912111
-0.0011814834
-0.005708276
-0.0061703282
-0.0037255716
-0.0018296792
-0.0021604276
-0.0012376715
0.002338573
0.003908374
0.0044102613
0.0069764
0.0075053014
5.3726236E-4
-0.0066556255
-0.0058459453
-0.00461045
-0.002640641
0.0035930518
0.0031255682
-3.7985944E-4
0.0013608484
7.834747E-4
-8.108731E-4
-1.1585648E-4
-0.0010319133
-6.03243E-4
0.0013372259
9.3003555E-4
2.6822445E-4
6.531271E-4
-5.8654754E-5
-0.0024808077
-0.004530412
-0.0040828944
-0.0012660975
0.0014640653
0.0022702366
0.0042061945
0.008246466
0.008395998
0.0041470234
8.2083204E-4
-0.0013465025
-0.0027829898
-0.002517638
-0.001466397
-1.2517205E-4
-0.0017337503
-0.006112395
-0.005498581
-0.0011633928
0.0012325005
0.0024560879
0.0011891923
-4.7127597E-4
4.5191273E-4
3.3539167E-4
-7.789928E-4
-0.0022545026
-0.0034468928
-0.0017346138
3.2261372E-4
0.0014456984
0.0012162769
-5.037037E-4
-4.865354E-4
-5.4120587E-4
3.67388E-4
0.003678214
0.0036870034
0.0036032319
0.0048453324
0.0019171498
-0.0010647764
-0.003255527
-0.0056514493
-0.0036602227
-0.0011111893
-0.0014091022
-0.0021597182
-0.0026491627
-0.0012294516
4.6751343E-4
7.1984535E-4
0.001660716
0.002524704
0.0028241936
0.0032555873
0.0027657514
4.7052858E-4
-0.002306447
-0.0016422785
0.0011401491
0.0018923754
0.0019342807
0.001695403
0.0012876297
0.001665187
0.0014632561
0.0021638635
0.0040131137
0.0037775806
0.0014670722
-0.0021275473
-0.0059427717
-0.006837005
-0.0041268924
-0.0014436826
-0.0011892956
-0.0014351989
-0.0023499941
-0.004493511
-0.003165648
2.478828E-4
-8.413461E-4
-0.001170165
0.0021479405
-9.3429565E-4
-0.0053770677
-4.6930922E-4
0.003938634
0.0029954
0.0020649564
6.095102E-4
8.3780556E-4
8.213134E-4
-0.0012225484
7.174936E-4
0.0021934467
0.0010249369
0.0026584002
0.0032776033
0.0018627786
4.558284E-4
-9.944976E-4
-5.0752198E-5
6.5366377E-4
2.8937968E-4
0.0015533587
0.0018251963
9.1874076E-4
-2.9953624E-4
-0.0021662738
-0.0016733846
8.773986E-4
0.0020714784
9.3266775E-4
-1.3007669E-4
0.001629206
0.0025213868
6.8446755E-4
7.767186E-4
0.0010461974
-0.0011155672
-0.0021787805
-0.002836263
-0.0038444458
-0.003013146
-0.0026021108
-0.003608754
-0.003874669
-0.0030856442
-0.0019238002
-9.904795E-4
1.6915805E-4
8.941665E-4
0.0013163874
0.0028439884
0.0021167868
-2.626905E-4