-9.801806E-4
0.0015050586
0.0026848114
0.00262449
0.004094279
0.006015064
0.0058873445
0.0046810023
0.0060923467
0.007601883
0.005854823
0.003459062
0.0022196854
5.0294306E-4
-0.00169312
-7.3678786E-4
8.224235E-4
-5.848619E-4
-0.002406414
-0.004752875
-0.0029926368
-2.55205E-4
-0.005912017
-0.0068226494
-0.0037054578
-0.006518478
-0.003119754
-0.0033866789
-0.007666941
-3.5635667E-4
-0.0022360461
-0.0048230872
0.004214887
-0.0016796178
-0.0037129615
0.00785218
0.007556724
0.004131661
0.0015547997
0.0018675971
0.0060424805
0.003715945
0.007450828
0.004470002
-0.008404414
-0.001630085
0.0034491555
-0.0025033876
-0.003659358
-0.0042383396
0.0039352817
0.005237547
8.199179E-4
0.01068471
0.003137507
-0.009239249
-0.002689558
-0.006167331
-0.004175515
0.0045020888
-0.0070338743
-0.0096907765
0.0038439117
0.0049331277
-8.3460874E-4
-4.584828E-4
-3.298583E-4
-9.4273075E-4
0.0012118992
3.0458352E-4
0.0017862152
0.0043696687
-5.716947E-4
-7.043912E-4
-8.023233E-5
-0.0011174583
0.0028632751
-0.0028683771
-0.0050508
5.640586E-4
-0.0031379417
8.37977E-4
0.005927423
0.0041630855
0.0070489766
0.0013562641
-0.0026635095
0.0011341806
-3.0732935E-4
6.78659E-4
-0.001769707
-0.0039787996
-0.0020543586
-0.008812768
-0.006883772
0.0017812779
0.001085615
0.0027976928
0.002881073
0.001289338
0.004887581
0.0030220246
-0.0021304393
-0.0037050468
-0.0023804307
1.6462304E-4
9.795192E-4
0.0011805572
5.578189E-4
7.600869E-5
0.0012187009
0.0018653705
0.0019584165
0.0010871557
5.536092E-4
3.257229E-4
-4.253686E-4
7.549655E-4
7.366372E-4
-0.0010285112
-0.0014434662
-0.0013085167
-8.3582134E-5
-1.9197381E-4
-0.0016082092
-6.309693E-4
-1.8613167E-5
-4.019209E-4
-4.894089E-4
-0.0018738019
-0.0025021604
-2.5217865E-5
0.0014311689
-5.721356E-4
-0.0010606546
3.501516E-4
-1.5072829E-4
1.9659645E-5
0.0019328863
0.0027210978
0.0025314388
0.0015921667
-9.715753E-4
-0.0019977556
2.5516486E-4
-3.1992786E-5
-0.0012011011
0.0010216661
9.2456996E-4
-2.2757235E-5
4.7284266E-4
-4.3979968E-4
2.7588403E-4
7.335582E-4
-6.8632384E-5
0.00110181
0.0017386795
0.0021082545
0.0023088073
4.8715022E-4
-0.002225868
-0.004665116
-0.004081638
-0.0020558469
-8.4850995E-4
0.0014528123
0.0021566262
0.001074303
3.2244768E-4
-0.0012169998
-0.00207447
-0.0023986988
-0.0017092568
9.683035E-4
0.0012370949
-8.8690314E-4
-0.0019215932
-0.0012547733
8.7829545E-4
0.0014893191
0.0011860853
0.0025760096
0.0022766448
6.868587E-4
7.6145364E-4
0.0015437042
0.002097587
3.980959E-4
-5.110841E-4
0.0014269318
-3.465276E-5
-0.0019900433
-0.0013809055
-0.0021187137
-0.0017537607
-0.001526439
-0.00169049
-1.3052559E-5
-3.658944E-4
-1.8805355E-5
0.0011767662
4.5461365E-4
6.8188756E-4
-5.3551776E-4
-9.2799106E-4
5.70485E-4
-6.7946455E-4
-4.0642192E-4
0.0011968898
0.0020276848
0.0035953666
0.0032328176
0.0019444796
5.1681115E-4
-0.0010342189
-0.0017754403
-0.0018566737
-6.62826E-4
-0.0015550304
-0.0014027519
0.0022117442
0.001901404
-7.157895E-4
-0.0023729606
-0.002755802
-0.0013551024
6.439149E-5
0.001605347
-0.001944827
-0.005631184
-0.0015887646
2.540434E-4
6.1765866E-4
0.0022829226
0.0011765226
0.0014726294
7.271925E-4
-2.8288612E-4
0.0010047931
7.845405E-4
0.0014915623
6.5121916E-4
-7.1936444E-4
8.9596614E-4
6.4769E-4
6.7836035E-4
-5.031988E-4
-0.0023846438
6.306926E-4
3.8507095E-4
-0.0011421762
0.002624015
0.0027527323
-0.0010001741
-0.0027507804
-0.0019059957
0.0014943564
0.00251128
4.8346753E-4
7.3501834E-4
5.3467107E-4
-0.0011035837
-3.7620292E-4
-8.9419016E-5
-1.5420282E-4
6.89576E-4
6.0518703E-4
0.0021307864
0.0028084673
3.0387213E-4
-0.0025004307
-0.0049833003
-0.0035783504
-0.0011116468
-0.0017462816
-9.174312E-4
3.919036E-5
4.6296057E-4
4.7692854E-4
-0.0018185033
-0.0019387152
-0.0012321085
-0.0012881997
-5.623918E-4
-0.0019119808
-0.0011638026
0.0031174256
0.0044724266
0.002674653
0.0018033466
0.0032980083
0.0029404466
8.370789E-4
0.0011307412
9.31172E-4
7.190569E-5
5.8335444E-4
4.3064088E-4
-8.6132926E-4
-0.0018209561
-7.3317403E-4
-3.6648492E-4
-9.795657E-4
7.125892E-4
3.6888337E-5
-0.0019151992
-6.146105E-4
-3.0497587E-4
-1.4047722E-4
5.2250037E-4
-7.929577E-4
-0.0010746043
-0.0010335987
-0.0019416315
-0.001925868
-0.0017066152
-5.853976E-4
0.0012269854
0.0013066569
5.0587364E-4
6.817406E-4
9.2240033E-4
1.1101885E-5
-4.3891062E-4
4.2062375E-4
8.779385E-4
2.5550445E-4
-4.9912883E-4
4.2020244E-4
0.0019502708
0.0013644643
6.286102E-4
0.0012054048
8.789626E-4
-5.880378E-4
-0.0014965455
-8.268112E-5
0.0028905917
0.0033050366
6.473688E-4
-7.2792417E-4
2.6332028E-4
4.400952E-4
-8.996917E-4
-0.0022770038
-0.0028229607
-0.002365579
-0.0024344204
-0.002180062
-5.4067106E-4
-5.578003E-4
-0.0013888611
-6.8759377E-4
3.8416212E-4
0.0015102323
0.0014874269
1.712102E-4
-8.840502E-4
-0.0019226981
-0.0014643682
0.0012583861
0.0030870915
0.0023148155
9.3349605E-4
6.434377E-4
9.23959E-4
6.0904515E-4
-0.0010067618
-6.67934E-4
0.001960924
0.0016463763
0.0012741716
0.0015363083
-9.3608507E-4
1.8285011E-4
0.002156155
-9.46579E-4
-0.0015128321
0.0014143141
0.002367128
4.786252E-4
-0.0021305596
-0.0025776927
-0.0019182407
-4.6993227E-4
6.6315825E-4
-5.838095E-4
-0.0013924696
-0.0013793712
-5.657022E-4
4.3146187E-4
-0.0012459827
-0.0025995052
-0.0031482435
-0.003611489
-0.001746655
4.52405E-6
0.0013709214
0.0012565462
-8.137035E-4
4.649788E-4
0.0018371403
9.308877E-4
9.789073E-4
3.600373E-4
0.0014463002
0.0034829706
0.0026325413
0.0020045482
8.2573143E-4
5.574281E-4
0.0038626336
0.004721539
0.0026696185
5.176868E-4
-0.0018516389
-0.0020274967
-4.322053E-4
7.127106E-4
7.4018445E-4
-7.894911E-4
-0.002703723
-0.0040305285
-0.0048882496
-0.004192867
-0.0017759003
-7.3727383E-4
6.5665785E-4
0.0029882393
-3.1890557E-4
-0.0016956881
0.0020468994
-0.003924115
-0.010291579
-0.0044277683
1.8688197E-4
9.517989E-4
0.003186902
0.003668613
0.0032380873
0.0032449213
0.0029527808
0.0024067198
0.0019151124
0.0016791677
9.220254E-4
5.794683E-4
1.241602E-4
-5.032029E-4
3.7076193E-4
-2.7208665E-4
-0.0013911136
3.1230648E-4
9.963546E-4
2.848191E-4
9.718056E-4
0.001396632
-7.5350414E-5
-0.0010935616
3.2454007E-4
-4.1637925E-4
-0.0036613997
-0.0030861439
-6.4213056E-4
6.618663E-4
0.0016861242
0.0010741272
9.5964014E-4
0.0018624694
0.0012429359
5.857151E-4
-5.452969E-4
-0.0018373033
-0.0013130114
-0.0014833398
-0.0019747745
-7.0612726E-4
-7.7681405E-5
-9.628749E-4
-0.0014746872
-0.0013423107
-0.0014692763
-0.0019416142
-0.0021473868
-5.9223647E-4
7.3472894E-4
-0.0017184308
-0.0018497105
0.0025301827
0.0031718253
0.0015608137
0.0016606067
0.0024144058
0.0034209047
0.0010313385
-0.0014401383
0.0010446975
0.0029021977
0.0017730326
4.352133E-4
0.0015062281
0.0040217573
0.0035662856
0.0014744202
-0.0015593731
-0.0045757964
-0.0024891794
0.0011121373
6.629934E-4
-0.001849245
-0.0031537297
-0.0028134012
-0.0027035023
-0.002135684
-0.0013850605
-0.002403656
-0.002356198
-9.773767E-4
-3.19256E-4
0.001290566
0.0022273886
0.0011859726
0.0011803029
0.0010892628
-7.7247874E-5
-6.4521434E-4
-0.002011766
-0.0016824107
0.0019442041
0.0027154034
0.0016315838
0.0024957852
0.0015975168
-6.741712E-4
-2.4468204E-4
0.0015433764
0.0010517804
-2.4812782E-4
6.904502E-4
0.0013337401
4.96152E-4
-4.6657972E-4
-0.0019138794
-0.0018426463
-2.2363914E-4
-6.6698645E-4
-0.0022903348
-0.001960435
-8.2602754E-4
1.0747837E-4
0.0017952615
0.0019290957
5.5162836E-4
-4.4042425E-4
-0.0014842614
1.7873288E-4
0.0016036744
-9.177457E-4
-6.7343883E-4
8.5094717E-4
-6.4416893E-4
-8.8485936E-4
-0.0010228484
-0.0013197482
2.9673733E-4
2.3661187E-4
1.6276736E-4
0.0023036734
0.0021182043
-2.3790012E-4
-0.0012207365
-0.001152326
-0.0012519645
-0.0012617824
-4.535829E-5
0.0010671392
7.746829E-4
0.0016695488
0.0019934773
1.0533093E-4
9.10129E-4
0.0020423806
-6.89386E-5
-0.0010447665
-2.2956876E-4
7.5472717E-4
8.970624E-4
-9.853016E-5
-8.0321444E-4
-0.0023585015
-0.0022931418
3.3717047E-4
2.2810465E-4
-0.0012729078
-0.0018761653
-0.0018570039
-5.1441113E-4
-9.7508804E-4
-0.002367054
-0.001033353
7.86255E-4
0.001016456
0.0012345038
0.0022941714
0.0016707911
8.8324165E-4
0.0019183137
8.939073E-4
0.0017841022
0.005206065
0.0025368538
-6.402329E-4
-4.9128645E-4
-0.0030481988
-0.004388441
-0.0025469437
-0.00111416
-2.733335E-4
5.5658433E-4
0.0023031249
0.0017622006
-0.0012163343
-0.002639719
-0.003240881
-7.789256E-4
0.002174811
8.7793544E-4
9.321185E-4
7.226313E-4
-0.0016957031
-0.0014757365
-2.7076146E-4
0.0026385493
0.0041232635
0.0012571716
0.0020419215
0.0034812375
0.0025008526
0.0015401393
-0.005147975
-0.009191313
-0.003909523
-0.0023817446
-0.003846407
-9.99717E-4
0.0017180886
0.0035331298
0.003376017
-0.0019937328
-0.005199253
-4.354929E-4
0.0040574833
0.0028465078
0.0020926753
0.0032858553
0.0020278185
7.387612E-4
4.5843184E-4
-0.0014886019
-0.0012027787
8.5551845E-4
4.860678E-4
6.9141964E-4
0.0012542508
3.3910098E-4
-5.318916E-4
-0.0010853852
-7.67866E-4
-0.0016423528
-0.003603147
-0.0040142653
-0.0030945225
9.428199E-4
0.003302244
3.025048E-4
-4.8780756E-4
-3.4293655E-4
-0.0017031198
-2.857516E-4
0.0010796067
0.001139236
0.0021887529
0.003947367
0.0049208305
0.0027999303
9.0160413E-4
0.0025121681
0.0038078467
0.0025038037
-3.2075163E-4
-0.0036715502
-0.0059117707
-0.004722321
-0.0022834106
-0.0032825863
-0.004274096
-0.002437259
-0.0019181508
-0.0015066562
3.941201E-4
4.5371178E-4
-1.1421056E-4
5.881844E-4
3.2242588E-4
-8.1153295E-4
-0.0011951996
-0.0023263337
-0.0041569876
-0.0029138436
5.5494136E-4
0.0029858127
0.0058456254
0.007354593
0.0059504015
0.0059804493
0.0040190723
-9.042356E-4
3.0642017E-4
0.003423836
0.00242679
0.0026195706
0.0014388115
-0.0020689229
-0.0022972538
-0.0021395888
-0.003335243
-0.004446788
-0.0063612857
-0.0060933176
-0.0031535656
-0.0018639179
-0.0024997487
-0.0021379003
1.1682554E-4
9.799117E-4
-2.3257792E-4
9.3556044E-4
0.0032301992
0.003367878
0.0029903774
0.0021752282
0.0020685007
0.0036483954
0.0035746
0.0017212899
-2.9220473E-4
-6.5231805E-5
0.0014656633
-0.001840803
-0.0032744075
0.0019313412
0.0036491451
0.0036608337
0.0044372827
0.0017188195
9.1279874E-4
-8.022376E-4
-0.007459759
-0.010941777
-0.010617318
-0.008391542
-0.0055914395
-0.005993786
-0.0041459915
0.0012799597
0.0023205173
7.286232E-4
0.002019088
0.004915626
0.0069403863
0.005746878
0.0022938142
2.7705883E-4
-8.377812E-4
-0.0017698214
-0.003586977
-0.006564439
-0.005381562
-7.520964E-4
0.0037623402
0.008316945
0.008493128
0.004256925
0.001105515
0.0015769255
0.005565265
0.007890084
0.0069013448
0.004555151
3.7674E-5
-0.0043714494
-0.007829726
-0.008292177
-0.004270221
-0.0030115861
-0.0029201128
1.5522183E-4
-2.4537486E-4
-0.0028966994
-0.0025634011
3.6671257E-4
0.004374227
0.006850736
0.008790815
0.010031934
0.005152695
-0.0049087764
-0.011862948
-0.011661828
-0.0076906565
-0.0028874313
-0.0010256178
-0.0046139476
-0.005971622
-0.0042819967
-0.004753684
-0.0022157922
7.790345E-4
-5.725329E-4
-8.816589E-4
-0.002617139
-0.005300674
-0.002468969
-4.665395E-4
-0.0034623458
-0.004198537
-5.012085E-4
0.0017327777
3.6551408E-4
-0.0025575794
-0.0046873637
7.621503E-4
0.01065816
0.012968659
0.012429709
0.01598857
0.018720139
0.020212928
0.023978608
0.028255295
0.027335763
0.020806395
0.009443192
-0.0057070665
-0.008832857
0.0035266727
0.008132236
-0.0034200582
-0.022706075
-0.04266196
-0.049799293
-0.04090399
-0.03152836
-0.026853567
-0.020617994
-0.012074241
-0.0025384617
0.00396495
0.0061620045
0.008778381
0.011046439
0.016807267
0.025622012
0.020006176
0.0032910903
-0.008322677
-0.017882679
-0.02062848
-0.011003724
-0.0013002711
0.0025607387
0.0021363758
0.010161165
0.0388436
0.06871221
0.07669365
0.052314226
0.0015763878
-0.040118583
-0.06442377
-0.08558075
-0.08665505
-0.068055704
-0.048502203
-0.020940036
0.013262409
0.04384157
0.07629736
0.10330848
0.09769877
0.067663155
0.044668194
0.002819356
-0.06044746
-0.07284259
-0.03984394
-0.019630441
-0.0052280617
0.017341593
0.040627148
0.04731433
0.023951638
-0.010050889
-0.03634397
-0.04171378
-0.02314365
-0.013155955
-0.017623557
-0.002797112
0.025284069
0.028353583
0.009166487
-0.010875415
-0.030382397
-0.04817245
-0.07741778
-0.10043744
-0.0739632
-0.03609104
-0.010287811
0.031675894
0.05784655
0.068149336
0.090961
0.07573753
0.01342674
-0.025806528
-0.019701181
0.0032398016
0.028510494
0.04111832
0.024382206
0.003413819
-0.0047667986
-0.021096468
-0.03738504
-0.028650636
0.0022914778
0.032152284
0.045673974
0.07376971
0.12300788
0.10672272
0.012971237
-0.039662834
-0.048661858
-0.090545766
-0.100570165
-0.042435594
-0.011590681
-0.031244274
-0.043830976
-0.03638168
-0.021267718
0.006284086
0.030040132
0.03680108
0.03955252
-2.2319972E-4
-0.07891193
-0.10531704
-0.07532096
-0.03627846
-0.015551915
-0.027713051
-0.028604371
-0.0054400824
0.02195131
0.0642708
0.105130345
0.11837228
0.096272275
0.08669008
0.11731106
0.09270956
0.016348306
0.023013333
0.107381776
0.11509566
-0.012758825
-0.10636807
-0.0528251
-0.010443006
-0.099868454
-0.18190427
-0.11042944
3.6466698E-4
0.0359905
0.060460813
0.028123211
-0.096063405
-0.18549113
-0.20617549
-0.18391675
-0.13314185
-0.09333111
-0.040953804
0.07398019
0.20521432
0.23885165
0.18794654
0.13989407
0.07558047
0.0073875263
-0.012446819
0.0033096403
0.017429274
-0.006619808
-0.029245729
-0.02466385
-0.016407251
0.03981392
0.12525284
0.17111579
0.15308769
0.09911663
0.0928994
0.03212437
-0.1722301
-0.30089465
-0.27241325
-0.20608754
-0.10821054
0.016049813
0.10189228
0.09373801
0.016112933
-0.02011845
0.0101716565
0.040208716
0.03795564
0.01298949
-0.021778803
-0.063531
-0.09785849
-0.10628924
-0.0898031
-0.04818273
0.02672127
0.1087161
0.1419834
0.12516075
0.09309619
0.045586832
-0.007133466
-0.027027046
-0.011582475
0.0032119062
0.012764777
0.030954866
0.019063963
-0.026929988
-0.043616313
-0.02990347
-0.021403665
-0.022221027
-0.024620643
-0.011159492
0.011458519
0.018525416
0.0024970877
-0.032136705
-0.047472753
-0.019100387
0.01187856
0.023811476
0.039858248
0.050588038
0.04207354
0.03653691
0.023888264
-0.0050646258
-0.0142361475
-0.007326021
0.0058197426
0.024015391
0.007977731
-0.02087291
-0.022698402
-0.017258367
-0.0064025866
-0.009107096
-0.041141294
-0.061414905
-0.061400324
-0.052703045
-0.036617614
-0.024179185
-0.013162903
-0.004618153
4.8386495E-4
0.008148499
0.015769206
0.023130734
0.026786065
0.029932933
0.031389546
0.018176727
0.0066857366
0.011888459
0.019929845
0.02110295
0.017020067
0.015373565
0.016508715
0.017126765
0.014843234
0.0021319138
-0.008932728
-0.005231003
0.0031609063
0.0104315225
0.011765297
0.007548885
0.0064832857
7.431031E-5
-0.012456673
-0.019252772
-0.02220742
-0.018383292
-0.011090689
-0.010303414
-0.0070197624
-0.0060523595
-0.012970959
-0.015126856
-0.020392444
-0.026435375
-0.018419763
-0.009003421
-0.0017238865
0.005730391
0.0065091457
0.008001771
0.011698388
0.0132163055
0.011771126
0.0074291993
0.013630823
0.031127648
0.042398676
0.043931007
0.04718082
0.050124384
0.026967945
-0.011767297
-0.026242875
-0.02688418
-0.035134338
-0.04464976
-0.050443273
-0.04715361
-0.03699802
-0.029491156
-0.027294178
-0.02460139
-0.01531274
-0.012505975
-0.021304892
-0.024251973
-0.014607666
0.00596244
0.032010905
0.049842704
0.05182123
0.047811218
0.04915285
0.045005202
0.03424505
0.026788905
0.005158697
-0.02604614
-0.031679906
-0.011337485
0.012788966
0.02308035
0.015916796
0.010613817
0.014547894
0.014616603
0.0064335098
-0.0044141496
-0.008181113
-0.003200085
-0.0029859932
-0.010075872
-0.0153198205
-0.01876713
-0.017349616
-0.007608897
4.9827155E-4
0.00393741
0.007180495
0.007616897
0.0011250688
-0.019186303
-0.04830958
-0.061434403
-0.054025423
-0.04585891
-0.044961926
-0.04426509
-0.033186708
-0.012716326
0.0068819565
0.022380598
0.02829207
0.025649266
0.022127833
0.011693273
0.005606434
0.022940468
0.044351198
0.052276753
0.06075776
0.07298286
0.071747296
0.057249326
0.043026377
0.025267024
6.8758073E-4
-0.023499088
-0.041991077
-0.04666007
-0.037560944
-0.02372683
-0.014162642
-0.015877081
-0.021459408
-0.026550045
-0.032734163
-0.030997775
-0.025686432
-0.023726266
-0.01794242
-0.011583407
-0.0063182143
0.0021176294
0.008413159
0.013609352
0.018977243
0.017643062
0.0134892715
0.011798346
0.010922106
0.0111035155
0.006403181
-0.0051833107
-0.011136
-0.008664247
-0.006873508
-0.0056949332
2.0513448E-4
0.0057324083
-6.170858E-4
-0.018559746
-0.033939954
-0.033080738
-0.018265802
-0.004520618
0.0051596337
0.013604936
0.014198487
0.010498867
0.011486877
0.01335764
0.014115162
0.017493844
0.020545596
0.017775742
0.012673785
0.010934991
0.009183508
0.0070157624
0.009118957
0.009620442
0.005415312
0.0058186967
0.006910108
-0.00391191
-0.020398686
-0.030447781
-0.030538026
-0.022689896
-0.01591031
-0.013555399
-0.01079701
-0.0071808426
-0.004553177
-0.003411213
-0.0016163064
0.0010456258
0.0018783114
0.002461014
0.0010639058
-0.0033809217
-0.0033341562
0.0015295548
0.003717514
0.0023876717
0.0038206682
0.008090316
0.0093291905
0.011292432
0.015665045
0.014255863
0.006047499
-7.316024E-4
0.0010642104
0.0042476547
-5.8762345E-4
-0.0071457145
-0.011443216
-0.013159704
-0.010255653
-0.0066678594
-0.0038951752
-0.002286186
-0.0017279257
-6.0892322E-5
0.0012155104
0.0024243044
0.0022629187
-1.7560167E-4
-3.208496E-4
-2.2534223E-4
-0.0018820587
-0.0018082696
-9.931555E-4
-0.0010812547
-4.4532197E-5
0.0024297298
0.002341549
0.0014001364
0.0040739896
0.0041913576
0.0021636533
0.0047777025
0.0034485986
-0.002910132
-0.0016928072
0.0012036973
-0.00250001
-0.004330065
-0.003770011
-0.0041822
-0.002374866
-5.953684E-4
0.0010354908
0.002999081
0.0022052175
0.0010768775
6.80739E-4
0.0010249183
0.001208471
-5.7554967E-4
-3.3305932E-4
0.0013437823
0.0036853682
0.0066282316
0.004864439
0.0025025953
0.001397046
-0.0018974702
-0.002494319
-7.31212E-4
-2.2370777E-4
-0.001200554
-0.0024474612
-0.0018371656
-0.0021218308
-0.0021028705
3.9439672E-4
9.620539E-4
-9.891336E-4
-0.0031522142
-0.0043141455
-0.004920876
-0.003505451
5.878261E-4
0.0010460552
-5.6210416E-4
9.7375055E-4
0.0025354053
0.0022630843
6.767611E-4
6.427648E-4
0.0026632336
0.0039765537
0.003948779
0.00106673
-5.997623E-4
5.443138E-4
5.7340186E-4
0.0027353652
0.0049640387
0.003763874
0.0020506382
0.0013749652
0.0030625272
0.0021681017
-5.8059243E-4
2.7651316E-4
-0.0023389948
-0.0060805343
-0.003897229
-0.0028842841
-0.005192141
-0.005575386
-0.0033325448
-0.0013087499
-1.1310013E-4
2.2131647E-4
-1.7952072E-4
0.0012611367
0.0010798414
-6.690618E-4
0.0010422581
0.0025970035
0.004239308
0.006190897
0.0051887636
0.004573459
0.003368269
0.0024427504
0.0039477055
0.0010231377
-0.003690656
-0.0015406125
0.0041023246
0.0036672526
-0.002769616
-0.006009198
-0.005522971
-0.004091567
-0.0034946427
-0.0055884104
-0.004618099
-0.0025824942
-0.0023460211
5.1338284E-4
0.001631091
-3.0292606E-4
-0.0023063316
-0.0024378109
7.612036E-4
0.0031909132
0.0062689413
0.009602122
0.009966082
0.006291119
-0.0011699715
-3.5992748E-4
0.0036162569
0.001917689
0.0025336174
-0.0010632282
-0.0021070887
0.0023833532
-1.823146E-4
-5.48425E-4
-0.0055055446
-0.010488637
1.9505368E-4
0.003989332
-0.0042864857
-0.010978794
-0.0035467646
0.008385074
-9.682131E-4
-0.0042827628
0.0041948757
0.0023331477
0.004347195
0.0018628254
-0.0042542885
-0.0055284207
-0.0092301285
-0.0019072003
0.0040275473
0.004207001
0.008044899
0.004036103
0.00625715
0.008585714
5.7485286E-4
3.104518E-4
-1.9863834E-5
-0.0043617715
-0.0069386857
-0.0041266014
0.0014560131
0.0022453219
0.009300514
0.0070827007
-0.0045236386
-6.7025324E-4
-0.00180195
-0.0027690246
0.002361591
-0.0029917606
0.0017758043
0.003152626
-0.005863465
0.0016088289
8.355077E-5
-0.0101563
-0.0013773948
9.812977E-4
-0.0066316957
-7.3209667E-4
9.695318E-4
-0.0073081804
-0.0023484356
0.0056324448
0.0029088515
-8.006138E-4
-0.0022158006
0.0020180738
0.006286771
0.0037248898
0.0035211102
0.00357634
0.0012500823
0.0015038613
0.0016238946
0.0010358155
8.1212044E-4
9.4711705E-4
9.6114236E-4
0.001510677
0.005042002
0.0054817908
-0.0018415975
-0.004938119
0.00172065
3.1845333E-4
-0.007413035
-0.005401458
-0.0073519163
-0.010039409
-6.1978376E-4
0.0025235896
0.0012371438
0.0022866204
-0.0014070726
-3.9507367E-4
0.0028915254
0.0019818838
0.0031215816
0.0033359842
1.5655655E-4
-0.0016301753
0.001506229
0.0044758567
0.0022784718
7.257957E-4
-1.6305076E-4
-0.002074936
-7.1959296E-4
0.0012415453
0.0011737966
8.038576E-4
-6.152529E-4
-0.0031729874
-0.0035969003
-0.0021827375
-0.0021748233
-0.0021449667
-0.0016909898
-0.0012887068
-3.708623E-4
1.5275617E-4
0.0021321934
0.003541341
0.0023472933
0.0028455819
0.0031044977
0.0018164231
0.0028952896
0.0032740023
-7.915658E-4
-0.0043030544
-0.001943404
0.0023468093
0.0041411705
0.0030921174
-0.001397314
-0.0039640837
-0.0029739477
-0.0030887062
-0.0012441981
0.0015400583
9.09164E-4
2.1579223E-4
-5.0724647E-4
-0.0023897244
-0.0033438518
-0.0033102443
-0.0018003116
0.0013523749
0.003081206
0.0016982274
1.9643392E-4
6.905053E-4
0.002791159
0.003972214
9.054842E-4
-7.434552E-4
0.0012741459
1.260417E-5
-0.0010119961
-1.0224412E-4
-0.001097424
-3.2957224E-4
-6.9861097E-4
-0.0027114358
-9.688832E-4
-5.3315936E-4
-0.001134758
2.565134E-4
-3.1612418E-4
-3.4267743E-4
9.834187E-4
9.1899623E-4
0.0013876805
0.0020937095
0.0017044196
0.001209865
0.0014353665
0.0010926615
-6.382752E-4
-0.0013181017
-9.4112335E-4
2.539397E-4
0.0021776624
0.0013607808
-6.1059126E-4
-9.19822E-4
-0.0012122695
-0.0017803414
-0.0021542837
-9.007549E-4
7.8046724E-4
-5.2590424E-4
-0.002565283
-0.0021927892
4.823961E-4
0.0024358176
0.0018745423
0.0013199832
8.017882E-4
3.7327755E-4
2.770208E-4
-2.9474296E-4
3.0009763E-4
-2.7735636E-4
-5.075346E-4
0.0025577734
0.0034472388
0.0028271647
2.920766E-4
-0.0024972435
0.0018688873
7.157994E-4
-0.007185982
-0.0045296326
-8.068731E-4
-0.003559437
-0.0037126932
-0.0018413038
0.0016593242
0.0040210374
0.0019725827
0.0012569835
0.0016197566
0.0015758699
0.0022199021
3.2420806E-4
-9.709731E-4
8.8225154E-4
5.379845E-4
-2.6122807E-5
0.0021423805
0.001989592
-2.0171674E-4
-4.5321905E-4
5.472382E-4
7.4550376E-4
-0.0018346122
-0.0037763917
-5.680613E-4
0.0022633215
0.0012406803
-1.12956506E-4
-0.001442255
-0.0016671258
-9.0135547E-4
-0.0017914679
-0.0015897802
2.7257725E-4
0.0012539121
0.0014449984
-5.2474247E-4
-0.0019738195
-0.0010166382
-0.0020663275
-0.0021334526
7.415116E-4
0.0018572953
0.002261015
0.002868825
0.0024529316
0.0012452917
7.3209306E-4
0.0016189355
-4.747614E-5
-0.0018238694
-6.242131E-4
-6.636481E-4
6.0422575E-5
7.236248E-4
1.3384764E-5
0.0016279598
7.771706E-4
-8.691663E-4
8.1072235E-4
5.169183E-4
-1.2174588E-4
1.8201034E-4
-7.1800995E-4
-0.002415096
-0.0035639014
-8.6745684E-4
0.0010506827
-8.2644145E-4
-0.0013818236
-8.995592E-4
1.3262407E-4
8.4844464E-4
7.6448155E-4
0.0020073263
0.001850397
8.849058E-4
1.0964279E-4
-0.0021701409
-0.0026219669
-0.0012216113
-2.1956353E-4
-8.464965E-4
-0.0025956866
-0.0013191752
7.397277E-4
0.0012497131
0.002023078
0.0017259163
0.0017459887
0.0016677493
-4.0868178E-4
-8.244974E-4
3.7493437E-4
0.0017826048
0.003879779
0.003487341
0.0023812035
0.0038892222
0.0026426269
-8.904506E-4
-8.7556156E-4
-8.6812145E-4
-0.0024343624
-0.0022788416
-0.0012408304
1.2636714E-6
-3.8232293E-4
-0.0038801704
-0.006322197
-0.0048696995
-0.0031033265
-0.0033509585
-0.002078143
-9.1020326E-4
-0.0019213521
-6.828665E-4
-6.8326175E-5
-0.0011081308
0.0014886475
0.0052204574
0.0064080833
0.004799132
0.0040515605
0.004247467
7.8940147E-4
-8.4223127E-4
-8.8380417E-4
-0.0023703142
4.9675687E-4
0.0012939075
-9.905022E-4
8.075249E-4
0.0010931467
0.0015501385
0.0036032544
0.0013485316
-3.5154962E-4
2.0333233E-4
-8.1280695E-4
-0.0016973334
-8.35453E-4
1.6159915E-4
-0.0011441804
-0.0018357675
-3.999788E-5
-2.604078E-4
-0.0015611337
-5.763267E-4
-3.598141E-5
-0.0016843128
-0.0020013845
-2.7899785E-4
-1.4905665E-4
-0.001247881
-0.0014888067
-0.001245923
-0.0016724342
-0.0030578533
-0.0030209357
-8.477669E-4
0.0018483616
0.002695045
-6.470787E-5
-0.0014722486
0.0010434635
0.002802923
0.002646524
0.0017935123
0.0011662948
0.0011270625
9.1091514E-4
8.049713E-4
7.373771E-4
0.0016463458
0.0036554057
0.004310957
0.0027514054
8.0405077E-4
0.0013083791
0.0013632401
-0.0010725759
-9.492801E-4
1.31619E-4
-0.0011373565
-0.003577434
-0.0059815617
-0.005059794
-0.003879726
-0.004225567
-0.0016934677
-6.061089E-4
-0.0017028985
-4.522621E-4
2.8633121E-5
-4.4195994E-4
1.8501833E-4
-3.276453E-5
-5.2353786E-4
-9.291007E-4
-0.0023636506
-1.8100074E-4
0.003814466
2.4484584E-4
-0.0021828224
0.003790675
0.007642653
0.009662638
0.011745461
0.010643793
0.00849113
0.002085817
-0.0061771558
-0.009255362
-0.00844774
-0.005615515
-0.0038567474
-0.0030628133
-0.0015668037
-8.2807045E-4
-4.6341398E-4
-0.0020846743
-0.002361827
2.5584523E-4
-0.0010312435
-0.002892983
-0.0015285349
-9.0140407E-4
-0.0020053922
-0.003086048
-0.0020706295
-0.0010052184
-1.4576606E-6
0.0023925158
0.003100537
0.0032791018
0.0034217364
0.0028127672
0.0033181452
0.0023471967
-3.303883E-4
-0.0018884223
-0.0011371055
9.95196E-4
6.166584E-4
-6.960457E-4
9.782847E-4
0.0040767537
0.004305996
0.0011464829
1.5851393E-4
0.0018455457
0.0018338553
-0.0012087962
-0.0026208952
0.0022186472
0.0023109354
-0.0047111292
-0.003978218
-2.1538413E-5
8.218418E-5
0.0012957228
4.0142404E-4
-0.0021669408
-0.0020779143
-0.0015351967
-0.0015120942
-0.0019014041
-0.0034617356
-0.0052084196
-0.003462637
2.1883307E-4
4.1948695E-4
2.925706E-4
9.5552666E-4
-3.470781E-4
-3.4975313E-4
7.5688335E-4
7.3360145E-4
7.7845313E-4
0.0013623368
0.0019090703
8.5462845E-4
-2.1707063E-4
2.8745373E-4
5.550442E-4
0.0013711652
0.0022423246
0.0016431749
0.0011270214
0.0013379633
0.0018867993
0.0016829623
8.980343E-4
5.756244E-4
9.038886E-6
4.4586064E-4
0.0018532448
0.002112288
0.0023326583
0.001737883
-7.6303777E-4
-0.0015361345
-8.403658E-4
-0.0023805723
-0.00469367
-0.0061128284
-0.0061716894
-0.0030825506
-7.702722E-4
-0.0010759226
0.0015651446
0.004108865
0.0015781043
1.3944309E-4
0.0018785305
9.908889E-4
-0.0015168629
-0.001433918
-0.0010843644
-0.0013981946
-0.001177985
-0.0020105701
-0.0010406958
0.00218246
0.0032247268
0.0041161715
0.0043381946
0.0017889192
9.406688E-4
5.7778676E-4
-0.002106646
-0.0030975144