-1.8315186E-4
0.0036987013
0.008164777
0.009475595
0.009024043
0.009544861
0.010728049
0.009768867
0.0068102027
0.003972056
0.0017267969
-1.0320312E-4
-0.0018379444
-0.0035897973
-0.005728762
-0.0076324684
-0.010013286
-0.0104564745
-0.007992552
-0.0048767747
-1.167749E-4
0.0027727075
0.004496931
0.009757749
0.010108567
0.005585161
0.0054117553
0.0067330906
0.0034449438
0.001519685
-3.0031495E-4
-0.0010426856
-0.0033921679
-0.0063311327
-0.0075248387
-0.008903286
-0.009764104
-0.009914922
-0.008110998
-0.005477593
-0.001262334
0.0028071485
0.004161372
0.0067127077
0.008711155
0.007524861
0.007378567
0.005595161
0.0052917553
0.0037036084
0.00235072
-2.692798E-4
-0.002788762
-0.005977727
-0.009016174
-0.011171733
-0.012692033
-0.009982851
-0.009231299
-0.006952634
-0.0039044872
1.0551269E-4
0.0028549952
0.0048892186
0.0068705543
0.010061372
0.008507449
0.0065687844
0.0033782667
0.0019753785
1.2537841E-4
-0.003384104
-0.0032135865
-0.005150181
-0.008036258
-0.009987075
-0.0104502635
-0.008788711
-0.008664788
-0.006966123
-0.0025232348
9.691357E-4
0.0048433593
0.005692324
2.9232423E-4
0.0070536598
0.007927366
0.006578701
0.0055052955
0.0026447778
0.001399519
-0.0013252222
-0.0035670751
-0.0038889283
-0.005877893
-0.00819397
-0.010054788
-0.010397976
-0.008014053
-0.0057630176
-0.0011777588
0.0017069824
0.0026240943
0.006183059
0.009863877
0.009864694
0.009815513
0.00830159
0.004625813
0.003597666
0.0016724073
-0.0029970752
-0.0053836694
-0.030578494
-0.03221043
-0.0033499121
-0.0033693945
-0.0036912477
-0.005287842
-0.0031173243
0.001747417
0.0043916404
0.006442976
0.010516165
0.011481724
0.010182542
0.0095133595
0.007927066
0.004451289
0.0029807715
0.0010231421
-0.0012215992
-0.0031910816
-0.005547676
-0.0067090113
-0.008185088
-0.010468276
-0.007691982
-0.0070133177
-0.005229912
-0.0011546533
0.0013300879
0.005126682
0.005765647
0.008071723
0.009410171
0.008688618
0.008414695
0.00708603
0.004560254
-1.0974609E-4
-0.0013144873
-5.568579E-4
-0.0028263403
-0.006095305
-0.008571382
-0.01037457
-0.009985388
-0.008641465
-0.0065928004
-0.0052793943
-0.0012641357
0.0019529761
0.0064843115
0.009102759
0.009241206
0.009852024
0.0069733593
0.0049299537
0.0036118065
0.002821289
0.0015760303
-0.0030534521
-0.004145305
-0.00570427
-0.008702718
-0.008628794
-0.00862487
-0.007950948
-0.0067822826
-0.003954136
3.6586425E-4
0.0039777174
0.0061966823
0.0069580176
0.0077117234
0.009140171
0.009540989
0.007664695
0.005431289
6.836597E-4
-8.387109E-4
-0.0027881933
-0.004722417
-0.0071137524
-0.008099829
-0.007443535
-0.008019612
-0.007473318
-0.0063722827
-0.0040541356
-2.7413573E-4
0.0043000877
0.0056366823
0.00870513
0.009143577
0.008509654
0.0090081
0.006719436
0.003901289
0.0015860302
-0.0062529347
-0.0024000464
-0.003169529
-0.0060484936
-0.0075821998
-0.008830647
-0.009751465
-0.008487541
-0.0047617652
-0.0051083593
-0.0022154711
0.0033640112
0.006625347
0.007699053
0.0066003883
0.008556465
0.0058954298
0.0046196533
0.004553877
5.0624757E-4
-0.001036123
-0.0029556055
-0.0048598293
-0.007423535
-0.008069612
-0.007703318
-0.0096041355
-0.009794953
-0.009093401
-0.008409478
-0.0039813304
0.0033681518
0.006959487
0.009227934
0.0088263815
0.007320088
0.0066414233
0.006532759
0.005419353
0.003811206
9.5357664E-4
-0.0026459058
-0.0046901293
-0.0063690944
-0.026472066
-0.037570596
-0.0058495607
-0.004183784
-0.002330896
0.0018138452
0.0027433275
0.004537551
0.008463628
0.011861558
0.012039487
0.011797417
0.010460606
0.009039053
0.008075129
0.005764094
0.0031435767
0.0014783179
-0.0036935352
-0.004407759
-0.0063967234
-0.0068080593
-0.007974136
-0.0077078417
-0.005976807
-0.0022239184
0.0012608228
0.0042450465
0.0066363816
0.009044829
0.009043276
0.008569353
0.005525947
0.0038378004
0.005976765
0.002333877
-7.0849364E-4
-7.3086424E-4
-0.0025879762
-0.0048522
-0.0075559057
-0.011691465
-0.009249913
-0.008255988
-0.007569695
-0.0046439185
-8.1628904E-4
0.0017384521
0.0047826758
0.0060116407
0.006922976
0.0077766823
0.00873513
0.006174094
0.004065947
0.0027554296
8.678003E-4
-0.0013369409
-0.0028664235
-0.004740647
-0.0070419824
-0.009562801
-0.011538359
-0.009166807
-0.0076905126
-0.0057294774
-0.00291896
0.0014657812
0.0038776342
0.0049642287
0.006835564
0.008641641
0.008407718
0.006799053
0.004443276
0.0030827587
5.051294E-4
-0.003164353
-0.007338059
-0.005767024
-0.008343101
-0.01144866
-0.011254218
-0.010979778
-0.009990595
-0.008236673
1.03327635E-4
0.004517551
0.007681257
0.008147334
0.009678151
0.008936599
0.007660305
0.007254011
0.006042976
0.0037048291
0.0022019409
-1.6805908E-4
-0.002365171
-0.003877024
-0.0061559887
-0.0077196946
-0.010030513
-0.00906896
-0.0073226662
-0.003734519
9.548096E-5
0.0021125928
0.0035044458
0.007408152
0.008916599
0.007480305
0.0064716404
0.005338235
0.0031077173
0.004861941
0.0020890527
-2.6094727E-4
-0.0017056884
-0.004549912
-0.007273618
-0.008892066
-0.009512884
-0.009753701
-0.007577407
-0.0052840016
-0.0016887427
0.001133628
0.0036454808
0.0058244457
0.0069357813
0.005874746
0.0065960814
0.006617417
0.0052340114
0.0026634936
0.0023106055
2.9060547E-4
-0.0041312478
-0.0062702126
-0.0077039185
-0.006575254
-0.008713701
-0.008942149
-0.0071858545
-0.0042200782
-0.0016148193
5.575513E-4
0.005686516
0.008062593
0.00870104
0.008437117
0.007710823
0.007334529
0.0057734936
0.0043377173
0.0020848291
-0.0016799121
-0.0041841357
-0.00505073
-0.0044749537
-0.007036289
-0.010579478
-0.009530296
-0.012980596
-0.04333572
-0.008944168
0.006234797
0.009965615
0.011743545
0.011509104
0.011827034
0.012214963
0.010328152
0.0042723753
0.0020894874
0.0050260816
0.0032955639
-1.9443604E-4
-0.0019415478
-0.0039834008
-0.009171848
-0.007485554
-0.00678689
-0.0061858543
-0.004370078
-0.00197719
5.051807E-4
0.0062941457
0.008430222
0.007623928
0.007927634
0.0095284525
0.00947927
0.0094700875
0.0067314235
0.0028409057
3.090576E-5
-4.6146484E-4
-0.005568059
-0.008696507
-0.008012583
-0.00928103
-0.009931848
-0.008417925
-0.0048321486
-0.0027616308
0.0025154809
0.008151557
0.011567117
0.011302676
0.009633494
0.009564311
0.010085129
0.0089635765
0.0039254297
0.002724912
0.001962024
-8.9034665E-4
-0.00424457
-0.005973535
-0.008559612
-0.01006043
-0.0073641357
-0.0044583594
-0.0031578417
-7.902124E-4
0.00275927
0.0043334938
0.006814829
0.0077985353
0.008674612
0.007318318
0.0060172826
0.003979136
0.001703877
-0.0010584936
-0.0020056055
-0.0036974584
-0.0066387937
-0.0084048705
-0.0090133175
-0.010296507
-0.011062065
-0.008428142
-0.0053647365
-0.0031742188
-7.2658935E-4
0.003925264
0.0060342285
0.007155564
0.00865164
0.009100088
0.007051423
0.0050680176
0.0034098707
6.822412E-4
-0.0020248706
-0.0022219825
-0.0051485766
-0.008104653
-0.008913101
-0.0074068066
-0.0077105127
-0.0074942186
-0.0061531835
-0.0019002954
2.3970459E-4
0.0040915576
0.0063905222
0.00891897
0.008475047
0.008231123
0.007224829
0.0053114234
0.0030009057
8.032764E-4
-0.0024838354
-0.0024609473
-0.005859912
-0.0055465065
-0.0077902125
-0.007423918
-0.009222366
-0.012652666
-0.012030596
-0.0051971897
-0.0028366724
-4.2904296E-4
0.00372281
0.007606516
0.009817334
0.009245781
0.006447117
0.002866599
-0.0016481421
0.0017465991
-5.340088E-5
-0.0026828833
-0.0061218482
-0.0056084422
-0.006689778
-0.007503484
-0.009794301
-0.009352749
-0.007616455
-0.004630679
1.0932129E-4
0.0031288038
0.0037206567
0.0075043626
0.010507551
0.01023074
0.009059187
0.008807634
0.0053742286
0.0050408226
0.0031803052
0.001987417
-6.549536E-4
-0.0031244361
-0.006043401
-0.0086794775
-0.008025554
-0.0052121487
-0.0055587427
-0.0027582252
-0.0012829663
0.0024341454
0.0046583693
0.0071197045
0.0075934106
0.007154746
0.007698452
0.008114529
0.005933494
0.0026006054
0.0024577172
-3.7228272E-4
-0.004216506
-0.0069778417
-0.0066791773
-0.0091476245
-0.010440813
-0.011226372
-0.009034819
-0.006936155
-0.0034180079
-0.0017827491
0.0016419921
3.2199218E-4
0.0055785864
0.008514663
0.0077083693
0.008204446
0.0066357814
0.004360005
0.0025671166
-0.0016976246
-0.0040194774
-0.0060384423
-0.0077921483
-0.009400596
-0.010833784
-0.009824602
-0.00969542
-0.007319126
-0.00531572
-0.0030552025
0.0013595385
0.006880874
0.00760458
0.008070657
0.008779104
0.00782281
0.0075065163
0.0076702223
0.004734446
0.0018791871
-0.0013155543
-0.0026950366
-0.006926372
-0.008212449
-0.008418526
-0.0074522314
-0.007968308
-0.0056249024
-0.006656238
-0.001860979
0.0053856154
0.0070669507
0.007800657
0.008336733
0.0058756983
0.004869922
0.009058369
0.0073920754
0.0050086696
3.3866943E-4
-0.0027608129
-0.006169778
-0.008435855
-0.008744302
-0.008220378
-0.009761197
-0.008227273
-0.0058262376
-0.0037280908
-8.704614E-4
0.003089021
0.0059379856
0.008484063
0.008170139
-0.0041940846
-0.029336538
0.0053200563
-0.005026538
-0.025164768
-0.02570537
-0.0033848512
0.005894114
0.0037159668
0.001400708
-6.929199E-5
4.930786E-4
-0.0021240332
7.883374E-4
0.0040901904
0.0067015258
0.009672344
0.013002644
0.014237685
0.012687986
0.012105916
0.010409104
0.008957551
0.0074912575
0.004235481
-8.468896E-4
-0.0029463721
-0.0017811133
-0.0049677077
-0.007029043
-0.00864512
-0.008521196
-0.006992532
-0.0058114966
-3.2149657E-4
0.0036403565
0.0071516917
0.011297251
0.015334663
0.015182075
0.0153094875
0.016571641
0.016793793
0.014751206
0.009239653
0.002416765
-0.0012479761
-0.005736941
-0.0069682766
-0.011603835
-0.012634136
-0.012944436
-0.012844737
-0.009133183
-0.00785689
-0.0033463722
0.0016683692
0.004412593
0.0071039284
0.0065652635
0.0039071166
0.007840822
0.007904529
0.0069458643
0.004720088
6.924585E-4
-7.399121E-4
-0.0051765065
-0.009677324
-0.012817625
-0.013660296
-0.01701482
-0.014659861
-0.012530161
-0.009810979
-0.006289944
-0.0044041676
1.2583252E-4
0.0057747974
0.007066133
0.00916458
0.008833027
0.0029225098
0.0021096217
-0.010833567
-0.027338909
-0.025349509
-0.008035586
0.0047386377
0.0021357494
-4.366211E-4
-7.189917E-4
4.933789E-4
9.057495E-4
1.8574951E-4
0.0021228613
0.0065541966
0.007115532
0.008191609
0.008567685
0.008083763
0.0056503564
0.0057293214
0.005898286
0.005837251
0.0029867333
-7.256372E-4
-0.002512749
-0.0027522314
-6.0460204E-4
0.0013601391
4.5250976E-4
3.0250975E-4
0.0032919922
0.00948281
0.014127851
0.018537117
0.021233493
0.0204375
0.016329654
0.011125213
0.0040570656
-3.9530516E-4
-0.0030447876
-0.0073584937
-0.0063474583
-0.0052140527
-0.0019111645
0.0011435767
0.0035354297
0.0045796535
0.004753877
0.005792842
0.005209436
0.005828401
0.0038902538
0.0011849952
0.0015997363
5.721069E-4
0.007645813
0.009506631
0.007550337
0.0051269312
0.004851155
0.005037749
0.0024748608
-5.975098E-4
-0.0059764744
-0.009727293
-0.010300481
-0.012820781
-0.013333452
-0.013043753
-0.012774053
-0.016616207
-0.021482583
-0.021721331
-0.020165337
-0.018774603
-0.014709644
-0.006960979
-0.0015857202
7.466504E-4
2.066504E-4
-9.557202E-4
-0.0011280908
2.2190918E-4
-0.0027475732
-0.0071589085
-0.009599727
-0.0061486913
-0.0030981738
-0.0038800268
-0.00386188
-0.001846621
0.0032828613
0.0037947143
0.006413679
0.008832127
0.00477635
1.463501E-4
0.0026558326
0.002675315
-0.0052212793
-0.0358327
-0.01448774
-0.0036795924
-0.0068609277
-0.005027522
0.0010848487
0.008773296
0.01842019
0.023916049
0.02560665
0.026089622
0.023253111
0.019914746
0.01574453
0.0065258644
6.8823487E-4
-1.1176513E-4
-0.0028512476
-0.0023783594
-0.0018731006
3.6689942E-4
0.00103927
-0.0027602124
-0.0077939183
-0.008992366
-0.010345554
-0.016115338
-0.022004085
-0.015883867
-0.0041357204
0.0058932444
0.01878251
0.031099705
0.04300483
0.056342624
0.06968072
0.083251484
0.09097596
0.08187199
0.0538403
0.01592008
-0.01291022
-0.03873112
-0.06040077
-0.06644938
-0.061723772
-0.056651566
-0.04324669
-0.02269781
-0.005434404
0.0057945605
0.0147319725
0.016474126
0.015381538
0.011587097
0.0070484327
0.007222139
0.0110276975
0.018254593
0.028262304
0.033036612
0.023882471
0.01033566
-0.004990935
-0.014938347
-0.02763606
-0.042418815
-0.05654661
-0.052882552
-0.03907582
-0.030580647
-0.031147841
-0.030142667
-0.018881932
-0.009340378
0.0019267334
0.009425181
0.008953628
0.016635781
0.03851668
0.05903159
0.06338072
0.055303775
0.048095495
0.040411137
0.049315225
0.070668064
0.09202728
0.108918644
0.11005475
0.094923444
0.057033613
6.361328E-5
-0.0408744
-0.07441909
-0.09408542
-0.07183062
-0.050429452
-0.03389613
-0.025436731
-0.008715178
0.015142234
0.029514687
0.02691003
0.028430112
0.024548342
0.020342348
0.01420739
0.013740061
0.043557554
0.09427388
0.10767288
0.084818386
0.049022477
0.011538034
0.0032775172
-0.007496189
-0.044616055
-0.07425837
-0.04631298
0.017853914
0.05912882
0.058381356
0.026734328
-0.015053083
-0.062277474
-0.10796647
-0.13701555
-0.13194041
-0.09700384
-0.06610245
-0.026195427
0.03725073
0.09519943
0.08432493
0.038515836
0.0076295435
-0.037066616
-0.09808479
-0.12678306
-0.11923761
-0.13313484
-0.16735111
-0.09657455
0.04011109
0.1616084
0.27169183
0.33224487
0.30395788
0.1839463
0.05601172
-0.091445126
-0.24330845
-0.33650574
-0.30559584
-0.24432155
-0.20064212
-0.15153863
-0.09155546
-0.011803393
0.09108345
0.17362869
0.25616232
0.3140485
0.2903588
0.20429887
0.1454164
0.110432506
0.04216526
-0.021823486
-0.05418417
-0.09032864
-0.1834347
-0.26831627
-0.25369278
-0.15247165
0.007069685
0.15587804
0.2117618
0.19853526
0.19435452
0.15603523
0.08942496
0.006273926
-0.039299347
-0.11547205
-0.20838633
-0.23779307
-0.2408793
-0.23480655
-0.19818765
-0.14654756
-0.10858892
-0.064742796
-0.023256281
-0.0096871
0.0102760885
0.0069674244
0.0038992774
0.015316689
0.014051731
-0.006187234
0.01676492
0.033149227
0.034898274
0.031877838
-0.01220009
-0.092521675
-0.16838032
-0.17797978
-0.107086405
-0.017350933
0.058221605
0.11797142
0.15566976
0.15987234
0.11507266
0.025333265
-0.01797363
-0.029576084
-0.029508537
-0.03890181
-0.042104565
-0.04457443
-0.07209963
-0.09286122
-0.07943013
-0.023995994
0.05517706
0.12546058
0.16770686
0.18493766
0.15556599
0.07523306
0.015010471
-0.005898494
-0.030083317
-0.093837276
-0.101797305
-0.07636674
-0.06878246
-0.053208403
-0.022899522
0.009238926
0.020052932
0.011558491
-0.0041033616
-0.016505515
-0.01638767
-0.020631675
-0.05173525
-0.06640386
-0.057444025
-0.045696262
-0.03442531
-0.022766428
-0.013729099
-0.008937546
-0.004914141
-0.003083623
-0.0045078467
-0.008443924
-0.004055776
-0.0030952587
-0.0026223706
-0.003261853
-0.0015765942
0.004747629
0.0038194824
-0.00297
-0.005738965
-0.007955042
-0.0057840063
-0.0034358595
-0.0017206005
-6.0058596E-7
4.8177002E-4
0.0012165112
0.002323623
0.0014683643
-2.6163575E-4
-0.0021887475
-0.0076424535
-0.012602754
-0.012240684
-0.011356243
-0.0074999486
-0.0044241725
0.0026029395
0.009963757
0.016735911
0.02289703
0.0265
0.028870083
0.03227202
0.034058698
0.03259063
0.029473087
0.025081316
0.024217175
0.021493552
0.015310965
0.011116523
0.004760747
0.0012354883
-0.0018892529
-0.0065005883
-0.009059035
-0.0134317065
-0.01563149
-0.023564978
-0.049591437
-0.011979368
-0.0011117383
-0.024889968
-0.01446501
-0.011480569
0.015719214
0.01864848
0.019860115
0.018397009
0.016899163
0.015206574
0.013216875
0.009395322
0.0071666576
0.0034085107
0.002727993
0.0018851049
0.003916958
0.0056635523
0.0076072584
0.011262817
0.013685488
0.017440012
0.018326906
0.01651906
0.015376472
0.012856772
0.0124870725
0.012175002
0.007828709
0.004732932
9.953027E-4
-0.002431809
-0.005740774
-0.00786448
-0.0068158153
-0.0064871507
-0.0053837453
-0.001980857
0.0011315136
0.0028909962
0.0065923315
0.011467891
0.014602932
0.013745603
0.015495386
0.014660427
0.01540784
0.012858139
0.01197607
0.010829258
0.0057682227
0.0035000758
0.0018048169
-0.0013799244
-0.004754148
-0.0070854835
-0.013508154
-0.0077018603
-0.003201343
8.865722E-5
0.002355769
0.0030752514
0.004729475
0.0046436987
0.0043679224
0.004862146
0.0019892578
-4.6311278E-4
-0.0042073363
-0.0072610425
-0.010091861
-0.0129421605
-0.014367202
-0.016899355
-0.01775625
-0.017440774
-0.015158186
-0.010751374
-0.0077850805
-0.0044093044
-3.193042E-4
0.0043049194
0.006706255
0.008182332
0.008890779
0.006852114
0.0065334495
0.0034053028
0.002774785
4.3715577E-4
-0.0013275854
-0.0047318093
-0.007205515
-0.008411592
-0.008760039
-0.011035598
-0.010708787
-0.008394863
-0.0051014577
-0.026744429
-0.02495266
0.0052039353
0.012664236
0.015191648
0.01570143
0.013964102
0.012494402
0.011489961
0.009510779
0.007966856
0.0049134498
0.0010458203
-1.2417969E-4
-4.665503E-4
-0.003958403
-0.0039502564
-0.00464448
-0.0018692212
0.0019778907
0.0049444847
0.0061734496
0.010546639
0.013489309
0.01368198
0.013604651
0.010477839
0.009538657
0.008847104
0.00784081
0.0051174047
0.0026568873
9.492578E-4
-0.002137854
-0.0023049659
-0.003936819
-0.0051934132
-0.005992378
-0.0048966017
-0.003146084
-7.184546E-4
0.0025886572
0.0056552514
0.009013698
0.011609258
0.011164817
0.010878005
0.0070893406
0.008215417
0.006426753
0.0034886058
0.0015033472
-0.0010190235
-0.008947471
-0.0075711766
-0.0069925124
-0.0089609595
-0.008657036
-0.0053536305
-0.0032431127
-6.311279E-5
0.0016016284
0.0058105933
0.007884299
0.007718005
0.007861711
0.008920158
0.007121494
0.006030459
0.006149424
0.0046436475
0.0022207592
-0.0011739819
-0.0030934643
-0.0050400584
-0.008146135
-0.007077471
-0.009125918
-0.0072196242
-0.0040014773
-3.9384764E-4
0.0032356349
0.007669341
0.0079130465
0.0084191235
0.009127571
0.008796018
0.008032095
0.005008689
0.0027181713
9.30542E-4
-0.0028789404
-0.001021311
-0.0017060522
-0.0035379052
-0.007891611
-0.013041912
-0.014306953
-0.008685401
-0.0068367356
-0.0025838476
0.0021332642
0.002370376
-0.009338072
-0.029078154
0.0077255517
0.013095852
0.012966152
0.008744599
0.0061035645
0.0050501586
0.0016648999
3.772705E-4
-5.151001E-4
-0.0021022118
-0.005771177
-0.006702512
-0.0065938476
-0.0037557008
-0.0014604419
4.519287E-4
0.004446152
0.005925117
0.008743565
0.0110491235
0.0122570535
0.009537871
0.007953947
0.007367654
0.0058366186
-0.022634499
-0.011952429
0.001272312
-7.2005857E-4
-0.005436653
-0.007620359
-0.0066316943
-0.0051982887
-0.0049948827
-0.0035267358
-0.0011291065
0.002950376
0.0049969703
0.0078006764
0.009661494
0.009692312
0.009100759
0.007754465
0.007618171
0.0056971363
0.0035689892
-5.133813E-4
-7.1575196E-4
-0.0028952344
-0.0041170875
-0.004901311
-0.007585017
-0.008071094
-0.00804717
-0.006458506
-0.0023456176
0.0013991236
0.0040609767
0.008507053
0.0128773535
0.010620542
0.0091089895
0.010029807
0.008155884
0.0035577368
0.0032172191
2.8721924E-4
-0.0022298926
-0.0048241164
-0.0054607103
-0.006379675
-0.008015752
-0.008401829
-0.0079055345
-0.0048897583
-9.121289E-4
0.0011826123
5.249829E-4
0.005081577
0.009230024
0.010040842
0.00984166
0.0096324785
0.006031443
0.003513296
0.0021904078
0.0023475196
-2.4248047E-4
-0.0046167043
-0.0044009276
-0.005979893
-0.006991228
-0.007184934
-0.00736864
-0.007964717
-0.005351311
-0.0015460523
0.0039158007
0.008331877
0.009922695
0.011388254
0.012528555
0.011404114
0.010467302
0.0068086376
0.0018957495
-0.0027037328
-0.006222698
-0.008078774
-0.008274851
-0.01106041
-0.010753599
-0.009704417
-0.010105235
-0.008883682
-0.007477388
-0.00278687
0.0012778711
0.002584983
0.006253948
0.0074076536
0.005866619
0.007167954
0.00766166
0.0055782543
0.0023553662
-7.270044E-4
-0.0019441162
-0.0042483397
-0.004954934
-0.006173899
-0.007247605
-0.0070089404
-0.004833164
-0.0024002758
-9.526465E-4
0.0012520947
0.0029015772
0.0065529128
0.008688989
0.0074026952
0.009401143
0.0075248484
0.008300926
0.0040227785
0.00243989
0.0020170019
-8.0536865E-4
-0.0032648512
-0.0069361865
-0.008904634
-0.0091430815
-0.0107462695
-0.009224717
-0.0062336815
-0.002823164
3.8920654E-4
0.005285801
0.0063147657
0.0074484716
0.008114548
0.008280625
0.008276702
0.006418037
0.0049346313
0.0013593725
8.8174315E-4
4.6411378E-4
-0.002472998
-0.005199592
-0.0075532985
-0.009664116
-0.008140193
-0.005839158
-0.0034610108
2.8989258E-5
0.0011737305
0.0057226955
0.008298772
0.00970959
0.010732778
0.010885967
0.007619673
0.007883379
0.006714714
0.004288938
-1.4106202E-4
-0.0028305445
-0.0051271385
-0.0064584743
-0.009056921
-0.01169248
-0.01206041
-0.01206834
-0.007742046
-0.0045762695
-0.0026657518
-0.0027352343
0.0045489892
0.008827437
0.00428166
0.0072153662
0.0065667015
0.0029661842
6.085547E-4
0.004080408
0.0014951489
-6.372217E-4
-0.001401963
-0.003553816
-0.006162781
-0.005609375
-0.005545969
-0.0051725633
-0.0055091577
-0.004905752
-9.2812255E-4
8.64248E-4
0.0054408424
0.00938929
0.010130107
0.0089185545
0.008024631
0.007025967
0.005012561
0.002549673
0.0012244141
-9.779566E-4
-0.0038498095
-0.004404033
-0.006332998
-0.009291445
-0.009049892
-0.0078035984
-0.005470193
-0.0030096753
5.0269533E-4
0.0038245483
0.006775884
0.00794196
0.008068037
0.007601743
0.007655449
0.0080115255
0.005810491
0.005547085
0.003418938
9.313086E-4
-0.0037605444
-0.003080027
-0.006168992
-0.008655068
-0.008221145
-0.008799592
-0.007020928
-0.0030304103
-0.0010727808
9.895898E-4
0.005166184
0.008252261
0.008880708
0.011246267
0.009857085
0.010220273
0.006791609
0.0033410913
0.0044853147
1.4531495E-4
-0.0027741676
-0.004448391
-0.0051449854
-0.0075786915
-0.006910027
-0.005556621
-0.005695586
-0.0045498097
-4.921802E-4
0.001482561
0.0027720435
0.0075157494
0.010778938
0.009659756
0.0071410914
0.0056276857
0.0051242798
0.0044585033
9.60874E-4
-2.1912597E-4
-0.0026262377
-0.0042904615
-0.0075241677
-0.0090326145
-0.0077363206
-0.010017139
-0.007790845
-0.0028003273
0.0025767847
0.0035386377
0.006439973
0.0077836793
0.009924497
0.010657686
0.009276133
0.0056127273
0.0050393213
0.0033788036
-4.035669E-4
-0.0029330493
-0.004787273
-0.003789126
-0.00505572
-0.0064270557
-0.009457873
-0.009728692
-0.007882398
-0.0037542505
-0.0013189916
9.933789E-4
0.0056923437
0.00810842
0.010451609
0.010534798
0.009545615
0.0076093213
0.0054859156
0.004800139
0.002567251
1.1725098E-4
-0.0016074902
-0.008193566
-0.009564385
-0.005560979
-0.006289944
-0.0068312795
-0.006410244
-0.0041520973
-0.0013568384
0.003092644
0.005931609
0.007675315
0.010788503
0.009809322
0.009610139
0.008566216
0.007779922
0.005506516
0.0010688867
-7.034839E-4
-0.0024005957
-0.0036924488
-0.0060314136
-0.0072851195
-0.008743566
-0.008992014
-0.0066933497
-0.0035852026
-6.875732E-4
0.0031119091
0.005880874
0.0059698387
0.008948286
0.008966734
0.0076304395
0.0072941454
0.008000222
0.006289187
0.00349104
-7.913306E-4
-0.0020184424
-0.0031679247
-0.0063268896
-0.007830596
-0.008939043
-0.007632749
-0.006291714
-0.0041235667
-0.0019106787
3.193213E-4
0.0032488038
0.0062277685
0.008243845
0.009624663
0.00828074
0.009039187
0.007332893
0.0042571165
0.0022142285
0.0025413404
-6.865967E-5
-0.003368142
-0.0050947363
-0.008933184
-0.010546372
-0.0096271895
-0.006386155
-0.0046903784
-0.0028398607
7.725098E-4
0.003414363
0.00829044
0.009731257
0.007927334
0.005916299
0.0068976344
0.004751858
-0.0067594773
-0.03752801
-0.007391714
0.0014330273
-0.0015617139
-9.440845E-4
-0.005260679
-0.009119126
-0.0071004615
-0.0051270556
-0.004088909
-0.0023860205
2.539795E-4
0.0056205736
0.010373762
0.011549321
0.011444881
0.010358069
0.007211775
0.00586074
0.0048649632
0.004709187
0.0014439282
-0.0023331835
-0.002712666
-0.0056816307
-0.009592448
-0.008750896
-0.0071022315
-0.005971196
-0.00417542
-0.0016201611
0.0013345801
0.003916433
0.0069677685
0.010400957
0.011718887
0.0096897045
0.008685782
0.0053523756
0.0035442286
1.5422852E-4
-0.0017605127
-0.0019876244
-0.0038794775
-0.006740813
-0.0068621486
-0.0063011134
-0.00812719
-0.008393266
-0.0044374904
-1.7490234E-5
1.6250976E-4
0.005429104
0.00780281
0.008991257
0.010364446
0.010227635
0.008623711
0.0065150466
0.006164011
0.0032834937
0.0018382348
-8.0413575E-4
-0.003073618
-0.006092583
-0.00903103
-0.008979478
-0.009610295
-0.00636926
-0.006278225
-0.003490078
-1.3007813E-4
0.0063588866
0.008957334
0.010570522
0.012438452
0.011524011
0.009232459
0.006663794
0.0024509057
9.032764E-4
-5.790942E-4
-0.0027085766
-0.0047928
-0.006824136
-0.0077078417
-0.009668659
-0.009287107
-0.009325555
-0.004157407
-0.0018821484
0.0010002222
0.0034320753
0.0074157813
0.009264229
0.009525047
0.010045865
0.0075595705
0.005998535
0.0025156469
0.0019427588
3.851294E-4
-0.0012996118
-0.0016343531
-0.00850043
-0.0134431
-0.006714436
-0.009082884
-0.006964219
-0.0045184423
-0.0026155543
0.001709187
0.0043434105
0.0077071167
0.008233193
0.0072468994
0.008292976
0.008469053
0.006490388
0.0068317237
0.0039735767
0.0012483179
-0.0014164234
-0.0032059057
-0.004157759
-0.0037096117
-0.007040947
-0.010604136
-0.0098849535
-0.009413401
-0.03554482
-0.020048825
0.008137251
0.010128069
0.012868369
0.011353929
0.013024229
0.0122521585
0.008960606
0.0061595705
0.0037914233
0.0022585352
-0.0011238354
-0.0027533178
-0.0044875415
-0.0077112475
-0.007844954
-0.009445772
-0.009466589
-0.0060555544
-7.879248E-4
0.002329187
0.0051057814
0.009014228
0.010317417
0.010168235
0.008024312
0.008620388
0.007464094
0.0050706887
0.0030801708
0.0018149121
-5.974585E-4
-0.004251682
-0.0056482763
-0.0075319824
-0.008378059
-0.0085041355
-0.0075078416
-0.005094436
-0.0032639185
-1.4391846E-4
0.002905564
0.005612158
0.008820605
0.008989053
0.00808513
0.0074988357
0.0052554295
0.0027749122
0.0018896533
7.620239E-4
-8.503467E-4
-0.0034721997
-0.006453535
-0.007907242
-0.008313318
-0.007377024
-0.0068583596
-0.006217324
-0.0055139186
-0.0011162891
0.0013784522
0.0071497876
0.009088235
0.009569053
0.010212242
0.007785947
0.0065172827
0.0042615063
3.2150635E-4
-0.0036703467
-0.0023574585
-0.0034393116
-0.004483535
-0.0063025
-0.008588577
-0.0078122825
-0.005478877
-0.0019659887
-9.0835936E-4
0.0010840113
0.004308235
0.0066195703
0.0068909056
0.008789353
0.009640171
0.0066615064
0.00460573
0.004007583
0.0020646949
-1.3530518E-4
-8.6767576E-4
-0.003989529
-0.007443235