-6.309668E-4
-0.001865708
-0.0018904492
-0.0037523021
-0.0043465258
-0.00546312
-0.0051097143
-0.0020668262
-0.002563938
-0.006222903
-0.014107944
-0.016027726
0.0048764967
0.007250203
0.006861538
0.006120503
0.003732356
0.0030818384
0.0038836915
0.0039755446
5.27915E-4
-6.344556E-4
-0.0016791967
-0.0044334205
-0.0019405322
-0.0021576441
-0.004471868
-0.005018462
-0.0032779444
-0.0035997974
-1.1979736E-4
0.0015749439
0.0043391674
0.004593391
0.0059323558
0.00563895
0.0041931737
0.0034250268
0.0031145092
0.0032339918
7.063623E-4
-1.3363769E-4
-0.0010260083
-5.983789E-4
-0.0029378613
-0.005064456
-0.0052110497
-0.0035529027
-0.0025200148
-0.0022971265
-8.7126464E-5
8.8524417E-4
0.0033947267
0.0072084325
0.0051950268
0.00408688
0.0021339918
0.001268733
0.0016634741
7.1584474E-4
-4.265259E-4
-0.001421267
-0.0016760083
-6.8837893E-4
-0.0031078614
-0.0039797146
-0.0035415674
-0.0053181616
-0.0043923855
3.7761475E-4
9.3998533E-4
-7.3238526E-4
5.1998533E-4
0.0026170972
0.0035589503
0.002386062
0.002383174
0.0031126563
0.0036345092
0.0021316211
-7.407495E-4
-0.0022178614
-0.002024973
-0.002352085
-0.0027615675
-0.00279105
-0.0042252736
-0.0039471267
-0.0031166088
-0.0013613501
-1.813501E-4
2.9864992E-4
0.0018857617
0.0037776148
0.0048318384
0.0041336915
0.0021408033
7.9317385E-4
6.1554444E-4
0.0016402856
0.0011350268
-4.4734374E-4
-0.001732085
-7.4445555E-4
-0.003013938
-0.0067752735
-0.0074589793
-0.0038508326
-0.0034003148
-0.0024474268
-9.897974E-4
-6.02168E-4
-4.8453858E-4
0.0026125733
-0.0010997973
-0.022018544
-0.0041527688
0.006658567
0.00408042
0.0033099023
0.0028693848
0.0029588672
6.212378E-4
-0.002605874
-0.003967727
-0.00352958
-0.002416692
-0.0027761743
-0.0034180274
3.9434325E-4
0.0011890845
0.0020361962
0.0031556787
0.005202273
0.0065636085
0.006484944
0.0059639085
0.0041557616
0.0021428736
8.8524417E-4
-7.871265E-4
-0.0019342382
-0.00209135
-0.0037532032
-0.006854539
-0.022143286
-0.022484405
-0.024460264
-0.014725305
-0.017049829
0.0013649121
0.005171506
0.008507583
0.00859366
0.009594478
0.010125295
0.0076290015
0.007965079
0.0068964134
0.004770637
0.0036624903
0.0024496021
0.0014343433
-4.8802735E-4
-6.603979E-4
-0.0022075097
-0.0036693627
-0.0028888453
-0.0015535865
-6.9595705E-4
-1.4595703E-4
0.0017087841
0.002145896
0.003937749
0.004261973
0.006433308
0.0065946435
0.0050012376
0.0032207202
0.0033902025
0.0014949439
-2.8505616E-4
-0.002412168
-0.0031816503
-0.004235874
-0.0025329858
-0.0038748388
-0.004106692
-0.0025938037
-0.0014285449
-0.0016832862
6.990845E-4
0.0035809374
0.004845161
0.0043093846
0.005495979
0.0053525735
0.0045867967
0.001281538
2.1153809E-4
4.239087E-4
-9.284619E-4
-0.0013332032
-0.0017679443
-0.0027874268
-0.0032469092
-0.0034587623
-0.0042029857
-0.0043472094
-0.002816692
-4.590625E-4
0.0017156787
0.0037875318
0.0059264963
0.006487832
0.0052344264
0.0051810206
0.005377615
0.0033570973
0.0043613208
0.0030708031
0.0013755445
0.001057915
1.791504E-5
-0.0018568261
-0.0016915674
-0.0029610498
-0.0030305323
-0.0039523854
-0.0028418677
-0.0022589795
-7.113501E-4
0.0026157617
0.003345244
0.003977097
0.005836062
0.0042602858
0.0034821387
0.002891621
-3.0837892E-4
-0.0020454908
-0.001400232
-0.0014049731
-0.0015697144
-0.0037915674
-0.0050581614
-0.0035700146
-0.0033694971
-0.002216609
-0.0015413502
-8.237207E-4
0.0011510205
0.0023381324
0.0029376147
0.0033170972
0.006126062
0.0073597683
0.005758733
0.0020258448
7.282153E-4
8.821533E-5
-0.0011041553
-0.0012488965
-5.912671E-4
-0.0017160083
-0.00258312
-0.0032426026
-0.0038644555
-0.002693938
-0.0016586792
-0.0014334205
-0.0015181616
-0.0014829028
0.0037289502
0.0068702856
0.0056368797
-7.354907E-4
-0.02263661
-0.0016213501
0.0048628733
0.0040347264
0.0036165796
0.0020736915
3.736914E-4
-0.0016410497
5.8950194E-5
-0.001335791
-0.0012905322
-8.729028E-4
-0.001637644
1.8235596E-4
5.847266E-4
0.0026018384
0.004546062
0.006075027
0.0061939918
0.005340586
0.0045448095
0.003084292
0.0022114038
0.001296145
-4.062256E-4
-7.8859617E-4
-0.0013033374
-0.0028128198
-0.0033623022
-0.0034041554
-0.0054707495
-0.003370232
-0.0015549732
-7.3734374E-4
0.0021797682
0.003431621
0.0049082153
0.0029176977
0.0029271801
0.0033866626
1.6662598E-5
0.0024737744
0.0011385157
3.1851564E-4
-9.3385496E-4
-0.0024809667
-0.0022080785
-0.0046123024
-0.006873638
-0.0053602317
-0.004052085
-0.003813938
-0.0012786792
-0.0031981617
-0.002717644
1.3235596E-4
0.0022394678
0.00313895
0.004763174
0.0044073975
0.004151621
0.0052782153
0.0037800684
0.0033995507
-2.1044922E-4
2.9550782E-5
-0.0010428198
-0.0043170433
-0.0040388964
-0.0021260083
-0.00200312
-0.0018578613
-0.0018326025
-0.0020697142
-0.0022768262
-0.0010991967
0.0017855444
0.0039373976
0.0032668798
-3.3120115E-5
1.8687989E-4
-6.054907E-4
0.0010168799
5.092505E-4
-6.931201E-4
-0.0010754907
-0.0022726026
-0.0017173437
-0.0020344555
-0.0035763085
-0.004700532
-0.0054371264
-0.005233721
-0.0035355738
-8.279443E-4
6.4442627E-4
0.002531538
0.0027110204
0.0036728736
-3.3712646E-4
-4.0949706E-4
0.004122356
0.0032918383
2.8183838E-4
-9.805323E-4
-0.0037423852
-0.0035842382
-0.0033637206
-0.0044579445
-0.0051245387
-0.002754021
-0.0033235033
-0.003382986
-0.0022100976
-1.1009766E-4
0.0015546435
0.003394126
0.003765979
0.0029954615
0.0027949437
0.003876797
0.0019039087
3.762793E-4
-0.0020108325
-0.0039926856
-0.0045169094
-0.0052835033
-0.0023706153
-0.0013453565
-0.0033972096
-0.0038390625
-0.0039409157
-0.003180398
-0.0011227685
-0.0011875097
0.0015072315
0.0038290846
0.005525679
0.0067470144
0.00778072
0.006379685
0.0042739087
0.0014186499
0.0020857616
0.0042499853
0.0019070972
-0.0014176441
-0.0032071264
-0.00441135
-0.0042255735
-0.0045897975
-0.004704021
-0.0017187622
-0.0016435034
4.088672E-4
0.002515979
0.0032654614
0.0056644264
0.00433865
0.0045928736
0.0017476147
-0.01989402
0.0012307202
0.0048149438
0.003946797
0.0025239086
0.0010462793
-0.0013884619
-0.0021355737
-0.0023126856
-0.0019697973
-8.1216794E-4
0.0011525733
0.0024696852
0.0040615383
0.0051081325
0.0051247263
0.006806062
0.0070973975
0.0051839915
0.0038158447
0.004037698
0.001622439
9.848096E-4
-0.0012299316
-0.002889414
-0.0041936375
-0.005310232
-0.0029797144
-0.004793938
-0.005660532
-0.0029800145
-9.723852E-4
-2.8238524E-4
0.001372356
0.0021694677
0.004966062
0.003677915
0.004652139
0.0060611037
0.006020068
0.004634292
0.0023314038
-0.0010309668
-9.033374E-4
-0.001065708
-0.0017804492
-0.0032899317
-0.0041317847
-0.0047660084
-0.0066873436
-0.005493938
-0.0044081616
-0.0011329028
8.994678E-4
0.0021465796
0.0039484324
0.0060273972
0.0058863624
0.0041482155
0.0033376978
0.0021348095
0.0019319213
1.3192139E-4
-0.0028175612
-0.0035694141
-0.005978379
-0.0019754907
-0.0027549732
-0.002532085
-0.003463938
-0.003765791
-0.0018605322
-3.205322E-4
0.001284209
0.0033536914
0.0036055443
0.005944509
0.006203474
0.0028729565
0.0048771803
0.006066145
0.0030856275
0.0021627392
0.0019398511
-3.8251953E-4
-0.0013472608
4.3510986E-4
-3.4890138E-5
-0.0037267432
-0.0065680784
-0.006749414
-0.00742312
-0.01288342
-0.025554022
0.002463091
0.008289168
0.008635244
0.006114209
0.0019013208
0.0023684327
0.0036202855
0.00503688
0.0045611034
0.0024982153
0.0025753272
-2.8467286E-4
-5.4704346E-4
0.0013876978
0.0023648096
0.0018795507
-4.728198E-4
-0.0020999317
-0.0021670435
-0.0020541553
-0.002331267
-0.0030707496
-4.6312012E-4
-2.9312013E-4
-3.3312012E-4
1.6687988E-4
4.392505E-4
-0.0024578613
-0.0040797144
-0.0036515673
-0.0037334205
-0.0040952736
-0.0020323852
-0.0033818677
-0.004696091
-0.0025232031
-0.0036850562
-0.0039069094
-1.3690918E-4
2.530908E-4
0.0011154615
0.0023925733
0.004176797
0.0045410204
0.0047152443
0.0050318385
0.0027013207
0.005347915
0.0027173974
0.0020445092
-8.278613E-4
-0.0014026025
5.5976806E-4
-8.8260253E-4
-0.0040344554
-0.003073938
-0.0023110497
-0.0026181617
-0.0011329028
0.0014318384
0.0018165796
0.0024236913
0.004867915
0.00616688
0.0062058447
0.0045100683
0.004534292
0.004568516
0.003287998
-8.0437254E-4
-0.002753855
-8.2622556E-4
-2.3622559E-4
3.1377442E-4
-6.8859616E-4
-0.0026880787
-0.0012828198
-0.001587561
-0.0010699317
-0.0012746728
0.0010376978
0.003549551
0.004141404
0.004123257
0.0041774805
0.0032569629
0.0025240746
0.005120669
0.0044048927
-0.001067478
-0.0013222193
-0.0018869605
-0.0019340722
-0.0033435547
-0.008199631
-0.0098604495
-0.012158379
-0.007852085
-0.0027215674
-0.0013863086
6.16062E-4
0.003857915
0.0027373976
0.00266688
0.0016216211
0.0014563623
0.0024034742
0.0047576977
0.0036695509
3.819214E-4
7.84292E-4
-3.25708E-4
-0.003497561
-0.0046317847
-0.004486008
-0.004530232
-0.0063491967
-0.0060081617
-0.0020952735
-6.2764407E-4
3.1235596E-4
0.0024494678
0.004393691
0.0038255444
0.004199768
0.003551621
0.0016163622
0.0039382153
0.004402439
0.0034742919
0.0010266626
-4.4570802E-4
3.0429199E-4
-7.080786E-4
-0.003017561
-0.003859414
-0.004021267
-0.0056378613
-0.0031573437
3.4265625E-4
3.9502684E-4
0.001289768
8.921387E-4
0.0010445092
0.0035763623
0.0047605857
0.00525718
0.0051237745
0.004347998
0.0029274805
6.5985107E-4
0.0018345923
-0.007539114
-0.02024312
-4.8549072E-4
-5.4786133E-4
-7.302319E-4
-0.0030897143
-0.0010320849
5.791504E-5
0.0015326563
0.0034245092
0.0070558446
0.00710718
0.004411404
0.0041956273
0.0046198512
0.004394075
0.0030935572
2.355713E-5
-0.0025235547
-0.0024106666
-0.0018554077
-0.001780149
-0.0036720019
-0.0057509667
-0.006662302
-0.007163638
-0.0059026023
-0.0019297143
0.00515688
0.005253474
0.0082395505
0.01189748
0.014652522
0.015149934
0.016992087
0.023625577
0.024793806
0.0182207
0.013753371
0.008891819
0.0031313014
-8.310693E-4
-0.0056576636
-0.017102187
-0.025722789
-0.024971018
-0.022269765
-0.015057177
-0.008413254
-0.0022603662
0.0032091162
0.0067804516
0.006851787
0.005238381
0.0022954931
-0.0037963598
-0.014081402
-0.022602519
-0.02625549
-0.022496609
-0.01430165
-0.009010098
-0.0026795801
0.007174126
0.015191538
0.023705026
0.02751037
0.022871487
0.0067728222
0.0015375635
-5.2480714E-4
-0.002471919
-0.0031314013
-0.0050879954
-0.008846443
-0.007830149
-0.007543855
-0.00640282
-0.0064441552
-0.0073778615
-0.013290532
-0.017847426
-0.013157727
-0.008463804
-0.0062227687
-0.004556992
-0.0056335866
-0.007989663
-0.007873369
7.290015E-4
0.008967449
0.016409602
0.024295462
0.031012656
0.036818817
0.039152086
0.03869299
0.047312338
0.05561776
0.053766076
0.04411357
0.024911799
-0.01211613
-0.027973842
-0.012534143
-0.015943926
-0.023035044
-0.027510386
-0.020644393
-0.0041786158
0.010634573
0.00831065
-0.009980168
-0.02606077
-0.03846167
-0.034420718
-0.016020501
0.015949283
0.06459315
0.09367711
0.09699055
0.09156739
0.070730224
0.04306535
0.008131429
-0.028638655
-0.03204822
-0.013630891
-0.005729856
-0.011887786
-0.020481791
-0.015399205
-0.009670022
-0.017464546
-0.036910705
-0.059397984
-0.061742373
-0.044882238
-0.023515727
0.004648496
0.034647543
0.055552967
0.060020246
0.04445011
0.029422566
0.022231314
0.025109543
0.014134585
0.025635185
0.06343432
0.105786204
0.12908158
0.08724657
0.028324278
-0.028365806
-0.07013627
-0.08675889
-0.1230153
-0.14517045
-0.18742837
-0.2100274
-0.1612847
-0.09462103
0.016371123
0.12159279
0.18209411
0.18565728
0.15380087
0.11328647
0.034945518
-0.074959174
-0.15564752
-0.15349875
-0.104848266
-0.06620688
-0.04133726
-0.019046526
-0.011522085
-0.009160533
-0.016180314
-0.03090751
-0.02589811
0.0041137426
0.041364126
0.061106145
0.04493838
0.030013205
0.032365143
0.022566259
0.01279656
0.05143776
0.093901716
0.107118346
0.092849925
0.08670255
0.03183211
-0.029710341
-0.027235683
-0.002685166
-0.011550725
-0.03346503
-0.04980149
-0.051702693
-0.06881842
-0.09041289
-0.11522559
-0.13536993
-0.13130242
-0.092904
-0.005540596
0.0954081
0.12950347
0.11667855
0.09945147
0.05345978
-0.015017631
-0.07292758
-0.06163197
-0.022220718
-0.036454506
-0.0877395
-0.112692714
-0.100618005
-0.069366105
-0.04208886
-0.011174416
0.041875966
0.0761854
0.07573246
0.060854476
0.07217205
0.07504675
0.097252555
0.1302103
0.13984886
0.13672794
0.116735384
0.06342451
-0.020599492
-0.06582574
-0.0701162
-0.11173705
-0.15279591
-0.14669581
-0.14889282
-0.13006057
-0.052596506
0.037079655
0.06258641
0.015143826
-0.010399363
-0.025769964
-0.07045043
-0.041933183
-0.039978825
-0.04419869
-0.06694967
-0.05488273
-0.014687771
5.445996E-4
-0.017429924
2.2007569E-4
0.0305249
0.053180844
0.039656483
-0.014678557
-0.032510493
-0.029212946
-0.036196735
-0.022155484
-0.016155265
-0.014080307
0.011505252
0.06131727
0.08699989
0.090664364
0.07481905
0.030303877
-0.054426808
-0.10887817
-0.066806786
0.0078569185
0.043844413
0.036438204
0.040496215
0.032228153
-0.016254002
-0.023717491
0.017567033
0.03620082
0.03773935
0.0473687
0.06555495
0.08380808
0.0870707
0.089882806
0.09370676
0.10035205
0.052707992
-0.007093345
-0.092452556
-0.1629246
-0.19435385
-0.16968724
-0.113302834
-0.093316786
-0.08942652
-0.09406284
-0.10563473
-0.104884245
-0.037982773
0.050123688
0.1564044
0.26083225
0.2873331
0.31722873
0.3115878
0.16540697
0.056844763
-0.0122931665
-0.18985818
-0.32395518
-0.2633025
-0.13296975
-0.0425225
0.022568619
0.056996413
0.025967015
-0.03299729
-0.060879312
-0.10106697
-0.12245101
-0.07693281
-0.018602077
0.042590678
0.05522373
-0.010147087
-0.042309843
-0.015629625
-0.053175565
-0.11734301
-0.13708209
-0.15954229
-0.14730455
-0.039497826
0.070072636
0.12445379
0.18165511
0.22537154
0.16953257
0.12629846
0.1249296
0.064011104
-0.01726342
-0.11815324
-0.15597159
-0.14864859
-0.1046381
-0.08465361
-0.07964253
-0.07103536
-0.06510923
-0.06013888
-0.058281418
-0.055726845
-0.051228043
-0.047827393
-0.044114888
-0.0404129
-0.029795354
-0.023006473
-0.02033048
-0.015800262
-0.0076939673
9.684033E-4
0.009699221
0.019680858
0.02904094
0.034177616
0.03996326
0.044493124
0.048857216
0.05314316
0.05342147
0.04974793
0.046784908
0.043572403
0.037560932
0.03288524
0.028435322
0.027863035
0.026266007
0.024624236
0.021190614
0.019159878
0.017926773
0.02002078
0.018930044
0.016962197
0.014477239
0.012467539
0.010810727
0.011256287
0.009054733
0.006263699
0.003053181
0.002200293
0.0032797754
2.297754E-4
-0.0037620775
0.0035297754
0.0074434816
0.0071971873
0.0053337817
0.0035056348
5.5634766E-5
-0.002161477
-0.0024685888
2.1411133E-5
0.0012361524
0.0016408935
0.0013656347
0.0022127465
0.0039945995
0.0025017115
0.0029511938
0.0032906763
0.0028001587
0.006771494
0.009812312
0.009030759
0.010793948
0.014068989
0.015508772
0.013471443
0.013224114
0.013426784
0.010107603
0.011483162
0.00965398
0.0071153147
0.0083913915
0.0058603566
0.005879321
0.0066006565
0.0059096217
0.0059485864
0.006489922
0.005596516
0.009014963
0.010668152
0.011856082
0.01048927
0.0085953465
0.007096682
0.004600906
0.0052575
0.0032169824
0.0032464648
0.0026559473
0.002363059
-6.694092E-5
-0.0033564232
-0.0033159058
-0.0028753881
-0.0025825
-0.0033419824
-0.0030414648
-2.1464844E-5
0.0015132764
0.0030027588
0.0026922412
0.0046964646
0.0030859474
0.002393059
0.0030025416
8.4491214E-4
-3.550879E-4
-0.0029445703
-0.0031040527
-0.0028435353
-0.0053401296
-0.0063090944
-0.009177541
-0.009658359
-0.008736807
-0.01585659
-0.032950897
-0.0048451195
5.1725097E-4
0.0026767333
0.004390957
0.004967551
0.0051541454
0.0041559986
0.002925481
9.978516E-4
0.0017625928
-6.197778E-4
-6.6214846E-4
5.785156E-5
-0.0016068897
-0.002746372
-0.0031358544
-0.0040977076
-0.0011824487
9.099219E-4
-3.2007814E-4
0.0011346631
0.0016994043
0.0011441455
0.0028336279
0.003785481
0.0047797044
0.0048239282
0.0015986694
1.7866943E-4
-7.133056E-5
7.6104E-4
9.834106E-4
-6.0895993E-4
-0.0017737012
-0.0027431836
-0.004577407
-0.0035392602
-0.004803484
-0.0036053369
-0.0018900781
-0.0015548193
0.0012199219
0.0030294042
0.0032388868
0.0045031104
0.004577334
0.0019544458
0.001489187
0.0030286694
0.0011334106
-0.0014513306
-0.003080813
-0.003592666
-0.005841631
-0.0044458546
-0.00709719
-0.008213267
-0.007526973
-0.0075406786
-0.006572014
-0.0043662377
-9.186084E-4
-9.70979E-4
0.0020061329
0.0023132446
0.0027527271
0.0028622095
0.0031316918
9.140625E-4
-0.0011283081
-0.0017430494
-0.0014177905
-0.0032072728
-0.003769126
-0.00420335
-0.0044975732
-0.005766538
-0.0069878735
-0.0062468383
-0.0055334326
-0.0020605444
-0.0019476563
1.7234375E-4
0.003414197
0.0029136792
0.0034855322
0.0039773853
0.0012021265
-2.8787352E-4
-0.0021449854
-0.0034168384
-0.0023939502
-0.0039558033
-0.0051423972
-0.0047266213
-0.004180845
-0.005617439
-0.0058664037
-0.0035482568
-0.001282998
-0.004277222
3.5277833E-4
0.004187002
0.006055967
0.006184932
0.0063538966
0.00452812
0.004099973
0.0030294557
0.0036813086
0.0036631615
0.0022102734
9.0264407E-4
-0.0023644678
-0.0058134324
-0.0041676564
-0.0031771387
-0.0028766212
-0.003638474
-0.0024855859
-0.0017103271
0.0010220434
0.0025191554
0.002346267
0.0011510083
-6.89917E-5
0.0014757495
0.0039276024
0.0027970849
0.0013618262
0.002078938
0.0016836792
3.136792E-4
3.036792E-4
-1.63208E-5
-0.0024734326
-0.0013381739
-0.0020152857
-7.5765623E-4
1.2234374E-4
4.7471435E-4
-1.2528565E-4
1.8471436E-4
0.0018894556
0.003278938
0.006077903
0.0066192383
0.0041634617
0.003425315
0.0018000562
6.3242676E-4
-8.2994386E-4
-0.0027194263
-0.0010017969
-7.841675E-4
-6.765381E-4
-0.0019636499
-0.003705503
-7.6787354E-4
-3.4787355E-4
-9.787353E-5
6.244971E-4
0.0028039794
0.004468203
0.0030376855
0.0012624267
0.0025095385
0.0021466503
0.0018513916
0.0019885034
-8.738672E-4
-5.762378E-4
-0.0025133495
-0.0038752027
-0.005081797
-0.011919727
-0.035191145
-0.010224333
6.180371E-4
0.0028375196
0.0057564843
0.005755449
0.0067067845
0.0078504905
0.009118938
0.008847386
0.0050939796
0.002783462
0.0019705738
3.8294433E-4
2.8294433E-4
6.2531495E-4
-0.0010670556
-0.0037389088
-0.0044131326
-0.004847356
-0.0034592089
-0.0041834326
-0.0018181738
-0.0041523976
-0.00286188
-0.0019389917
7.333789E-4
0.0031628613
0.004227085
0.004048938
0.0048831617
0.0040050144
0.0024821265
0.0036639795
0.0026110914
-0.0016136499
-0.0012283911
-0.0011631324
-0.001960244
-0.002647356
-0.0026244677
-0.0044986913
-0.0012634327
-0.0023305444
-6.8291504E-4
-0.0013776562
8.647144E-4
0.0032141968
0.0061331615
0.0055897557
0.0045839795
0.0050705737
0.0038024269
0.001877168
0.0017419092
-4.1046142E-4
-7.6283206E-4
-0.001959944
-0.0034417969
-0.0031512794
-0.0036831324
-0.0028726147
-0.0043568383
-0.0035086914
-0.0012234326
-9.1580325E-4
0.0024213085
0.0025684205
0.0041502733
0.0037821264
0.0036839794
0.003283462
0.0032829444
0.0020000562
0.0038019093
-8.809082E-5
-0.0030375733
-0.0037894263
-0.0045136497
-0.021030027
-0.023333516
-0.0010058862
-0.0014306274
-5.12998E-4
8.6937257E-4
0.003028855
0.003830708
0.003622561
0.0069738966
0.0052804905
0.0046547144
0.0052413084
0.005297903
0.0025050147
-4.3735595E-4
-5.2972656E-4
-7.7209715E-4
-8.6446776E-4
-0.0031139501
-0.004238174
-0.0016729151
-0.0017376563
7.234375E-5
-1.765625E-5
1.1234375E-4
-6.8002683E-4
4.1234374E-4
0.001817085
0.0049113086
0.005277903
0.0028773854
0.0030668676
0.0030863502
0.0013410914
5.1346194E-4
9.058325E-4
-6.165381E-4
-0.0019236499
-0.0043678735
-0.0033173559
-0.003469209
-0.003921062
-0.0018258032
-0.0018905444
-2.3054444E-4
9.918262E-4
0.0019389379
0.0023160498
0.0010084204
0.001050791
0.0041550146
0.0035368677
0.00297635
0.0020034618
5.9583253E-4
-3.441675E-4
5.682031E-4
-0.0026289087
-0.0025060205
-0.0042002443
-0.002467356
-0.0025544679
-0.003976321
-0.0027158032
-0.0013805444
-6.5291504E-4
0.0015818261
0.0034136793
0.004507903
0.003869756
0.0040216087
0.0042358325
0.0023029444
0.0025500562
2.7005616E-4
7.724268E-4
0.001187168
-3.8520264E-4
-0.0012699439
-0.0029794262
-0.002316538
-0.0026560205
-0.002725503
-2.6550292E-4
6.3686765E-4
0.00334635
0.005302944
0.0050795386
0.005206133
0.0062850975
0.0060540624
0.006535398
0.007229104
0.003530957
0.0018756982
0.00253281
0.0011151807
2.5180663E-5
-0.0013595605
-0.0025066724
-0.004190896
-0.003722749
-0.0022598607
-3.7986084E-4
-2.9986084E-4
-4.3223143E-4
0.0012525098
0.003414363
0.005230957
0.007904663
0.005311257
0.005880222
0.0045344457
0.003846299
0.0011810401
-1.4895997E-4
-7.7133055E-4
-0.0013660718
-0.003867925
-0.0042221486
-0.005268743
-0.0057077077
-0.005654302
-0.005560896
-0.009439344
-0.027947055
-0.0047312793
0.005375315
0.007951392
0.009439839
0.010040657
0.008426733
0.0063256985
0.0052722925
0.0046965163
0.002153628
-1.6637208E-4
-3.2637207E-4
-0.0021134838
-0.0026629663
-0.0035748193
-0.004469043
-0.0032085255
-0.0012432666
-0.0012180078
3.7199218E-4
0.002479104
0.003940957
0.0059199217
0.0047841454
0.0039959988
0.0037378515
0.002807334
0.0018720751
0.0012168164
1.6816406E-5
0.0022539282
-9.607178E-5
-0.0026331835
-0.002802666
-0.0018774072
-0.002524519
-0.0023916308
-0.0028111134
-0.0013058545
0.0022312573
0.0017259986
0.0019031103
0.0038449634
0.004249187
0.006248152
0.005244746
0.003816599
0.0031960816
0.003065564
0.0018103052
9.2267577E-4
-0.0028568066
-0.005413401
-0.0022505126
-0.0028899952
-0.0028594777
-0.0026489599
-0.004080813
-0.0030702953
-0.001102666
8.997046E-4
0.003139187
0.004503411
0.006894746
0.00507134
0.004365564
0.004909788
0.0044740112
0.0031334937
0.0029229762
0.0010853467
-0.0013693945
-0.0011941358
-0.0017688769
-0.0022559888
-0.00129073
-1.7072998E-4
5.927002E-5
9.927002E-5
7.616406E-4
0.002941123
0.0046953466
0.0058843116
0.008190388
0.0074440944
0.006113059
0.006302024
0.0048762476
0.0026133594
0.0025604712
-8.618994E-4
-0.004196123
-0.0033056054
-0.003235088
-0.0030245704
-0.0043787938
-0.006367759
-0.0066790944
-0.004343318
-0.0041875415
0.0023395703
0.0034614233
0.004515647
0.006124612
0.005071206
0.005760171
0.004052024
0.0029815063
0.00434573
0.0021228418
0.0010052124
-2.747876E-4
-0.0035766407
-0.005133235
-0.0031927172
-0.004516941
-0.004058794
-0.0048630177
-0.0022901294
-0.0032696119
-0.025297841
-0.009106289
0.0052903052
0.00589927
0.0067206053
0.0037724585
0.0013171997
0.0024043114
0.0035261645
0.0015809058
7.9327635E-4
-0.002716206
-0.0026333178
-0.0029928002
-0.0039146533
-0.0021317652
-0.0028312476
-0.0023783594
-0.0022354713
-5.978418E-4
4.2158204E-5
0.00244927
0.0051058643
0.005914829
0.0044890526
0.004373276
0.0042675
0.0024646118
0.0033740941
6.5646484E-4
9.6883543E-4
-6.2353513E-4
-0.0015482764
-0.0015330176
-0.0027725
-0.0045667235
-0.0045509473
-0.0025680591
-0.0040699122
-0.0010922827
0.001934829
0.002571941
0.0066232765
0.0047675
0.004974094
0.0054706885
0.0020978004
0.002574912
0.0010472827
-0.0013274585
-0.0034093114
-0.006710647
-0.0065119825
-0.006613318
-0.007949394
-0.0073931008
-0.0042273244
-0.008073401
-0.01209133
-0.015631113
-0.017575637
-0.0152730495
-0.009923867
3.761328E-4
0.012596433
0.018213328
0.021179704
0.01889897
0.016781123
0.013693794
0.010836982
0.008323059
0.006032024
9.143945E-4
-1.0560547E-4
0.0016591358
7.4150634E-4
6.53877E-4
0.0013386181
9.209888E-4
-0.0014937525
0.0014109887
0.0042052125
0.0056741773
0.0066255126
0.004609736
0.0040315893
0.0027010718
0.0025681837
0.002887666
7.9003663E-4
-0.0035618164
-0.0038536694
-0.0029331518
-0.0034150048
-0.003986858
-0.0028063403
-0.0038581933
-0.003177676
-0.0018947877
2.952124E-4
0.002202324
0.0030518067
0.0035636597
0.003153142
0.0038349952
0.0038868482
0.003428701
0.0018034424
6.95813E-4
0.0015505542
-0.0025165577
-0.004983152
-0.0031526343
-0.002459746
-0.0038415992
-0.004103452
-0.0037353053
-0.002052417
-0.0011347876
3.252124E-4
0.0034070655
0.0053236596
0.0055002538
0.0059392187
0.0043034423
0.004347666
0.003929519
0.0015442603
-3.0573976E-4
-5.381103E-4
-0.0012328515
-0.0036547047
-0.0071984106
-0.0041202637
-0.0019873756
-0.0031368579
-0.0031863404
-0.0025034521
-4.2582274E-4
5.7654787E-4
0.0024536597
0.002813142
0.005159736
0.0052363304
0.0035881836
0.0030576661
0.003849519
0.002046631
0.0012613721
4.4374267E-4
-8.386279E-4
-0.0026457398
-0.002835222
-0.0016999634
-0.0017047046
-0.002824187
-0.0025212988
-0.0032307813
-0.002457893
0.0024592187
0.0043634423
0.004317666
0.0050842604
0.0035061133
0.0021732252
0.0016379663
7.503369E-4
0.0019474487
6.2981935E-4
-0.0014349219
-0.0028844043
-0.0036862574
-0.0031057398
-0.0024928516
-0.0052894456
-0.00545604
-0.0038878932
-9.3026366E-4
-4.6263429E-4
-2.8263428E-4
-3.3263428E-4
-1.12634276E-4
0.0011197363
-0.0012150048
-0.0020721166
0.002064995
-0.004076858
-0.024132717
-0.009813535
2.6646483E-4
8.288355E-4
7.61206E-4
-8.7116455E-4
-0.0020282764
-4.90647E-4
4.9353028E-5
-5.530176E-4
-0.0023601295
-0.0028996118
-0.001744353
0.0013703882
0.004234612
0.007458318
0.007312024
0.0069833593
0.0058923243
0.0037041772
0.002081289
8.0365967E-4
-6.687109E-4
-3.8108154E-4
-0.0017258228
-0.0038076758
-0.0032571582
-0.004811382
-0.0058203465
-0.0038821998
-0.0026516821
-0.002428794
-2.0879395E-4
0.0012859473
0.0016006884
0.0025178003
0.0051543945
0.005490989
0.0036228418
0.001297583
0.0012523242
-2.5767577E-4
-9.000464E-4
-6.52417E-4
-0.0017271582
-0.004049011
-0.004693235
-0.0042474587
-0.0050140526
-0.005793018
-0.0026925
-0.0017572412
4.751294E-4
-1.2487061E-4
7.175E-4
0.0031169825
0.0054335766
0.005440171
0.005276765
0.0037386182
0.0022257299
6.7810056E-4
7.104712E-4
-5.118994E-4
-0.0018666406
-0.0030861231
-0.0047503468
-0.005136941
-0.005643535
-0.004897759
-0.0042619826
-9.7435305E-4
-0.0013290943
-0.0013038354
-3.0383546E-4
0.0025032763
0.006624612
0.0043588355
0.00516543
0.0023025414
9.149121E-4
3.249121E-4
-7.074585E-4
-0.002706941
-0.0031764233
-0.002363535
-0.0028630176
-0.004737241
-0.0041090944
-0.004293318
-0.003495171
-0.0018299121
-3.699121E-4
0.0014548291
0.0033543115
0.004578535
0.0045927586
0.0035946118
0.0030940943
0.0034359472
0.002003059
8.4542966E-4
-3.245703E-4
-0.0010469409
-0.003678794
-0.0052153883
-0.0052819825
-0.0057309475
-0.0069222827
-0.006953618
-0.0025007299
-7.2310056E-4
-3.754712E-4
8.768994E-4
0.0032663818
0.0042306054
0.004374829
0.0049314233
0.004725647
0.0028751295
0.0016298706
6.322412E-4
5.546118E-4
-9.077588E-4
-0.003579612
-0.005426206
-0.0070575415
-0.008673619
-0.004857842
-0.0033673241
-0.0033368065
-7.391772E-4
-0.0012639185
2.2608154E-4
0.0024631934
0.0052997875
0.0047440114
0.0037958643