-0.0012591456
-0.002728628
-0.0033481102
-1.7811035E-4
0.0014066309
0.0027661133
0.0033455957
0.0022327076
7.4507814E-4
4.5078126E-5
2.3507813E-4
-9.4921874E-5
-4.972925E-4
-0.0030867748
-0.0021838867
-0.0026009986
-0.0017357398
-0.0034675929
-0.001742334
-0.0028818164
-0.0023489282
-8.012988E-4
-0.009612117
-0.005538711
0.0026184008
0.0035802538
0.0027697363
0.0013744775
0.00269396
0.0010863306
8.587012E-4
7.3107175E-4
8.834424E-4
-0.0017112988
-0.0022784106
-0.0012831519
-0.0031326343
-0.0034844873
-0.002201599
-0.0017663403
-0.002493452
1.1654785E-4
0.001281289
8.0365967E-4
0.0010160303
0.0036578833
0.0035597363
0.0025368482
0.00212396
8.663306E-4
4.4870118E-4
-0.0019384107
-0.003047893
-0.002365005
-0.0019821166
-0.0011968579
-0.0029963404
-0.0029858227
-0.0024029345
-0.0021000465
-0.0020371582
-7.5952883E-4
1.1047119E-4
0.002117583
0.004411807
0.002941289
0.0030307714
0.0014955127
0.001550254
9.02539E-5
-0.0011944873
4.478833E-4
-0.0018992285
-0.002898711
-0.003860564
-0.0033200465
-0.0032695287
-0.0033090112
-0.0034308643
-0.002627976
-0.0029474585
-0.0016021997
1.7800294E-5
-2.521997E-4
2.278003E-4
3.2780028E-4
6.701709E-4
0.0016049121
-2.5087891E-5
-1.50878905E-5
1.7491211E-4
-0.0013598291
-0.002006941
-0.0032564234
-0.0020335352
-0.002630647
-0.0032501293
-0.005849094
-0.005868059
-0.0050946535
-0.0027041358
-0.0023312476
-0.0019683593
-0.0012331005
0.0012216406
0.0016963818
0.0021934938
0.0024506054
-0.0025265063
-0.00482073
-0.0026502125
-0.0023773243
-7.696948E-4
-0.001304436
-0.0010068066
-0.0032062891
-0.004230513
-0.005557107
-0.00407896
-0.0015737012
-0.0030731836
-6.955542E-4
-6.679248E-4
-1.6792481E-4
0.0011468164
0.0026239282
2.9392823E-4
-0.0023531837
-0.0017179248
9.207519E-5
-8.802954E-4
-5.22666E-4
-0.0015074072
-0.0031668895
-0.003988743
-0.0030282252
-0.0030577076
-0.0024648192
-0.002631931
-0.001989043
-0.0012937841
-0.0018485254
-7.80896E-4
0.0010514746
0.002670957
0.0026404394
0.0011751807
8.0755126E-4
2.2755127E-4
3.6755126E-4
1.4755127E-4
-7.7481935E-4
-0.0018695606
-0.003379043
-0.0022761547
-0.0029356373
-0.0037874903
-0.0029369728
-0.004681196
-0.00441542
-0.0015601611
-3.1016112E-4
-2.6016112E-4
-1.6016113E-4
0.00135458
0.002481692
0.001756433
0.002193545
0.0012582862
-3.8408447E-4
-0.0015688257
-0.0021659376
-0.00265542
-0.004027273
-0.003599126
-0.002346238
-0.0022733496
-0.0026404613
-0.0034623144
-0.0022294263
-0.0015141675
-4.8653808E-4
-2.9653808E-4
0.0014882032
0.0037700562
0.0030795385
0.003079021
0.0019661328
0.0030756153
0.0020827272
0.0012174683
6.498389E-4
0.0019769508
-0.0019601611
-0.004112014
-0.004226238
-0.0041380906
-0.0047323145
-0.0030617968
-0.0015965381
-0.00206365
-0.0013183911
-0.0021355029
-8.578735E-4
0.0029016088
0.0035034618
0.0021805738
0.0025576856
7.1005616E-4
2.0056152E-5
6.124268E-4
2.3242676E-4
-0.0013523145
-0.0020294262
-0.0028489088
-0.0041507618
-0.005077356
-0.00501395
-0.0049105445
-0.004784768
-0.0033442504
-0.0024313624
-0.0012261035
-0.0010384741
0.0018462671
0.0014410083
0.0028504906
0.0032899731
0.0016347143
0.0021818262
0.002628938
0.0016936793
1.736792E-4
-0.001181062
-0.0029905445
-0.0035723974
-0.005248992
-0.005445586
-0.005814551
-0.013687221
-0.009498039
-0.009196487
-0.008562564
-0.0017673047
0.004726919
0.0051235133
0.0046777367
0.005074331
0.0042785546
0.0035804077
0.00307989
0.0032393725
0.0018541138
6.264844E-4
-0.0013782568
-0.0026253688
-0.002904851
-0.0020219628
-0.0021190748
-0.001883816
-0.0024109278
-0.001795669
4.8670167E-4
0.0040285545
0.004472778
0.0033622608
0.0025593725
0.0015841138
0.001448855
-0.0021082568
-0.010601445
-7.6381594E-4
0.0010385547
-1.4144531E-4
-0.0015261865
-0.0024132982
-0.0012880395
-4.8041015E-4
-0.0014151514
-0.0028446338
-0.0019917456
-1.11745605E-4
0.0025253661
0.0037272193
0.0044814427
0.0032809253
0.0050175195
0.004161743
0.0012764843
-0.0012082568
-6.506274E-4
-2.7062744E-4
-5.42998E-4
-3.6299805E-4
-0.0018477392
-0.0015824805
-0.0017372217
-0.0020543335
-0.002803816
-0.0027032983
-9.0566895E-4
5.6670164E-4
8.670166E-5
0.002666184
0.0034680371
0.005707002
0.0045612254
0.0041030785
0.002942561
0.0024696728
0.001184414
3.6441407E-4
-0.0023026979
-0.0023598096
-0.002949292
-0.0033887743
-0.0019358862
-9.182568E-4
-0.0028177393
-0.0018724805
-0.0013072217
-0.0032167041
-0.0010990747
3.409253E-4
0.0015356665
0.002865149
0.0022822607
0.0024793725
0.0014741138
4.7648436E-4
1.3648438E-4
-9.858862E-4
-0.0037277392
-0.0033472218
-0.0034590748
-0.0019161865
-0.0020532983
-0.0034651514
-0.0031346339
-0.005531228
-0.005880193
-5.5256346E-4
9.198071E-4
0.0029992897
0.003148772
0.0016935131
0.002540625
0.0025477367
0.0029472192
0.0013119604
0.0022790723
0.0015138135
8.9618406E-4
-7.381592E-5
-0.0012785571
-0.0018232983
-0.00206041
-0.0016651513
-5.87522E-4
-0.002034634
-0.0023717456
-0.0014964868
-1.6648682E-4
0.002500625
0.0015853662
2.853662E-4
-8.4633786E-5
-0.001779375
-0.007723081
0.0018116601
0.002448772
0.0026582545
0.0018229956
0.0020401075
0.0021672193
6.895898E-4
-7.2278077E-4
-0.001597522
-8.1989256E-4
-2.498926E-4
0.0017848486
7.3721923E-4
7.195898E-4
-2.1041016E-4
0.0019667016
0.003046184
0.003678037
0.0043922607
0.0027017433
0.001958855
-4.2351562E-4
1.9648437E-4
6.48855E-4
-8.2351564E-4
-0.0011358862
-9.3825685E-4
-0.0010206274
-0.0011553686
-0.003114851
-0.002101963
-0.0020090747
-0.0025961865
-0.0014009278
0.0011438135
0.003063296
0.0032627783
0.0030522607
0.0036141137
0.0035759667
0.00340782
0.0012025611
-3.8980957E-4
-0.0037916626
-0.0040635155
-0.0037953686
-0.0023024804
-7.9485105E-4
-0.0016795923
-0.002536704
-0.0012514453
-4.338159E-4
-6.461865E-4
9.3813476E-5
0.0011885547
0.0025256665
0.0051222607
0.0026293725
0.0019664844
7.98855E-4
-4.0351562E-4
-6.1588624E-4
-0.0017706275
-0.0033501098
-0.0026895923
-0.002226704
-0.0014914453
-1.5144532E-4
2.8554687E-5
9.4092527E-4
0.0024980372
0.0018827784
0.0025798902
0.0037317432
0.002448855
0.0033383374
0.0030078199
0.0023149317
0.0020120435
8.8441407E-4
-0.0016903272
-0.0037621802
-0.0016169214
-0.0014516626
-8.240332E-4
-0.0022111451
-0.0025082568
-0.0022553687
-0.0012001098
-0.0017748511
-0.0027943335
-0.004468557
-0.0039204103
-0.0026798926
-0.0022070045
-5.99375E-4
0.0013053662
0.0015001075
-1.0989258E-4
6.12478E-4
0.0014172193
-2.7278077E-4
-7.151514E-4
-0.0019022631
-0.002559375
-0.0027588573
-0.0036607105
-0.004454934
-0.004096787
-0.0027362695
-0.0021733814
1.6661866E-4
2.4661864E-4
-3.9575197E-4
9.966186E-4
0.003236101
0.0020232128
0.003645066
0.0033445484
0.0018292896
0.0018640307
0.0019611425
1.1425782E-6
-0.0018735987
-0.0036454517
-0.0059844167
-0.0040362696
-0.0012710107
-0.0032804932
-0.0040223463
-0.0016470874
1.2912597E-5
8.29126E-5
0.0011676538
0.0018847656
0.002944248
0.0016289892
0.0024261011
0.0027355836
0.0019426954
0.0038845483
0.0031840308
0.001738772
0.0013435131
6.158838E-4
5.882544E-4
-0.0016664868
-0.001861228
-0.010274417
-0.006123381
0.002746101
0.0012308423
0.0032803246
0.0024374365
0.0026769189
0.0027764014
0.0030458837
0.0033853662
0.00446959
0.0020867016
0.0014414429
0.003603296
0.004045149
-3.5485107E-4
-1.04851075E-4
0.0012198901
4.8226074E-4
-8.401099E-4
-4.4248046E-4
-1.2248047E-4
-0.0011772217
-2.9722168E-4
0.0014475195
0.0023946313
0.004086484
0.0063154493
0.0073991553
0.00566812
0.005847085
0.007240791
0.0049073854
0.002014497
1.9449707E-4
1.449707E-5
-0.0016102442
-0.0035520971
-0.004596321
-0.006807656
-0.0076313624
-0.008367439
-0.007201145
-0.0050277393
-0.0043319627
-0.003693816
-0.0024109278
6.8144285E-4
0.0011138135
0.003033296
0.0026404078
0.0021975196
0.0014322607
-3.2773925E-4
-4.7010987E-4
-0.0019872217
-0.0048414455
-0.004895669
-0.0062346337
-0.006815969
-0.006987305
-0.008093381
-0.0074970876
-0.00323657
-0.0031760524
-0.002463164
-7.1553467E-4
0.0016392065
0.003058689
0.004010542
0.004374766
0.0042489893
0.004593213
0.0026303248
3.0324707E-5
3.503247E-4
-4.320459E-4
-0.0032115283
-3.9389892E-4
4.3847167E-4
-6.9389894E-4
-0.0012286401
-0.0016633814
-1.1338135E-4
0.0035684716
0.0029679541
0.003499807
0.005166401
0.005592996
0.0059119603
0.0060509252
0.004505149
0.0061741136
0.005410708
-0.0024664039
-0.0019135156
-0.0026406276
-0.00316011
-0.0042743334
-0.0045085573
-0.005145151
-0.0052217455
-0.0062207105
-0.0059296754
-0.0044338987
-0.003835752
-0.004962346
-0.0065336814
0.005582913
0.007846619
0.007810325
0.00680166
0.008107737
0.0077114427
0.005438037
0.0023051489
5.975195E-4
-0.0021795924
-0.006820928
-0.0079146335
-0.0073583396
-0.006869675
-0.00618864
-0.0047628637
-0.005129458
-0.0044836816
-0.0036155346
-0.0021726466
-3.8501708E-4
0.0013597241
0.0010220947
0.0025292065
0.0015739477
-3.8842286E-4
2.2157715E-4
2.7157716E-4
3.2157716E-4
-2.4842285E-4
-0.0011531641
-0.003645017
-0.0030744995
-5.468701E-4
5.155005E-4
0.0026949828
0.0015397241
0.0011020948
0.0020192065
0.0031386889
0.0018234302
0.0026529126
0.002832395
0.003744248
0.0038961011
0.003847954
0.0037298072
0.0021569189
0.0016516602
5.640308E-4
0.0018187719
-4.8359862E-4
-0.005240193
-0.0058691576
-0.0028286402
-0.0031381226
-0.004542346
-0.0029018286
-2.6182862E-4
0.0022652831
0.006374248
0.0057032127
0.006494548
0.0072782543
0.0072619603
0.006463296
0.003745149
0.0022622608
0.002921743
0.0046159667
0.0030754493
0.0027349317
5.4730225E-4
-0.001237439
-0.0043016626
-0.007997739
-0.008193816
-0.006555151
-0.0060541164
-0.0049507106
-5.9308106E-4
9.392896E-4
-8.071045E-5
6.5166014E-4
8.6403074E-4
-0.0015507104
-0.0050473046
-0.005403899
-0.0046181227
-0.004482346
-0.0018170874
0.0051195067
0.0066008423
0.006229807
0.0071711424
0.0062901075
-0.0022370045
-0.009727823
0.0011345483
0.005883513
0.005882478
0.0069738133
0.010207002
0.006355967
0.0047301906
0.009018637
0.009317085
0.00598605
0.008724497
0.0016392383
-0.00987158
-0.009642397
-0.008770845
-0.009941663
-0.008047739
-8.2010985E-4
0.002187002
0.0027864843
0.0108696725
0.02026368
0.025454279
0.033368587
0.037957117
0.039550386
0.03683655
0.033853225
0.027478566
0.019590203
0.00804628
-0.0015584619
-0.01015928
-0.016501432
-0.01945307
-0.018159963
-0.015057376
-0.019389011
-0.017703535
-0.011519094
-0.014796507
-0.024022365
-0.014819778
-0.013502449
-0.012502749
-0.0118706785
-0.013603349
-0.010968909
-0.005625503
-0.003517356
-0.0013720972
-0.0037839501
-0.0053305444
1.19455566E-4
0.0038813085
-0.0015034326
-0.014088474
-0.017242998
-0.019634634
-0.015504416
0.0018103247
0.021819072
0.035730492
0.03758902
0.031928588
0.01695074
-0.002076372
-0.02090275
-0.028382832
-0.022493951
-0.023197439
-0.017571963
-0.004043816
0.0017209253
-0.0019861865
-0.008302263
-0.014919675
-0.016741829
-0.020475835
-0.01844273
-0.0075064357
0.0016783057
0.010521494
0.012029423
0.0059083886
4.6075927E-4
-0.0037310938
-0.00828717
-0.016359324
-0.015386736
-0.010619924
-0.0050965184
0.0052000755
0.014737488
0.011353047
1.1304687E-4
-0.003908806
0.014646235
0.036952395
0.045737002
0.051398203
0.050094664
0.042679787
0.0280875
0.007921206
-0.0062777586
-0.0141228
-0.021751547
-0.034570597
-0.04480046
-0.037718993
-0.029541446
-0.024809675
-0.021778423
-0.009989241
0.004384983
0.02220373
0.03397041
0.03800894
0.035992727
0.032002293
0.010535481
-9.368897E-4
-0.01249719
-0.021133566
-0.012431497
0.0051950975
0.011420657
0.0037925097
0.0061014746
0.008607551
-7.8481936E-4
-0.0032643017
-0.0010966724
-0.0026337842
-0.014568825
-0.035027873
-0.042873
-0.030587822
-0.012508122
0.0023389892
0.01306929
0.027887002
0.051850572
0.066349186
0.05495224
0.03369892
0.011164477
0.013397149
0.029851973
0.031139167
0.02838925
0.029181704
0.01991334
0.012081269
0.021397647
0.024745876
0.012283806
-0.0059851585
-0.020821536
-0.003943389
0.0031760938
0.0038979468
0.019047212
0.03374389
0.040871903
0.026957244
0.004119097
-0.001978015
0.004968579
0.01333125
0.025951851
0.028371934
0.013924604
0.009725423
-0.01583436
-0.07258194
-0.098572485
-0.09629355
-0.09066803
-0.07733983
-0.05257577
-0.03452482
-0.02454068
0.0036711744
0.030808369
0.02754371
0.03251565
0.045117885
0.04677486
0.051356062
0.052692004
0.050630834
0.046987813
0.044155307
0.05502836
0.04883245
0.028472533
0.00768624
-0.014648802
-0.058491338
-0.045965943
0.0027535376
0.03843444
0.013507109
-0.019374527
-0.014479568
-0.02734491
-0.056372706
-0.05575813
-0.030432954
-0.0021000658
0.040295575
0.05400389
0.026496861
-0.015572922
-0.020656928
0.004197295
0.012235224
-0.0014995167
-0.046976496
-0.06780985
-0.059707128
-0.083840266
-0.09467659
-0.09276818
-0.062604934
-0.011460493
0.024315367
0.032999672
0.0064410083
-0.012839292
-0.017063815
-0.018993082
0.007390625
0.05554605
0.114966385
0.14736865
0.1453038
0.110189915
0.06530379
0.046960764
0.024006624
-0.02871346
-0.109959565
-0.15392317
-0.1507773
-0.11952185
-0.07029232
-0.015952097
0.003979756
0.0011944971
0.01657665
0.029129105
0.05716927
0.11342486
0.11373282
0.08081648
0.04372397
0.037330132
0.03402681
-0.017607715
-0.05556314
-0.06192753
-0.06712852
-0.062335275
-0.027572986
-0.010736174
-0.039369445
-0.035973236
0.0034386183
0.03175818
0.030775378
0.03860628
0.08850364
0.14893065
0.16010322
0.14638312
0.0929347
1.746997E-4
-0.077077106
-0.08559498
-0.044957217
-0.062523976
-0.07616341
-0.03967905
-0.026482021
-0.015771804
-0.022642922
-0.031260118
-0.0545708
-0.079822086
-0.09595315
-0.13292038
-0.117770195
-0.10392734
-0.05576276
-0.04812448
-0.095935546
-0.100460835
-0.07300079
-8.2315673E-4
0.042589597
0.033003904
0.0178108
-0.027424544
-0.05621997
-0.068865694
-0.077127494
-0.07257507
-0.08330584
-0.066956826
-0.03195639
0.02574421
0.0803855
0.10864686
0.13199171
0.13599843
0.111539274
0.067822635
0.018389527
0.011115085
0.014460127
0.04216288
0.075729944
0.041430324
-0.023793165
-0.060572814
-0.06051246
-0.04905655
-0.043554045
-0.040802058
-0.058434594
-0.08020588
-0.07568294
-0.04009858
-0.016188364
0.0057706004
0.026483571
0.018320465
0.005719431
-0.01352324
-0.019854875
-0.015332287
-0.019293923
-8.8629394E-4
0.020067712
0.03387439
0.04871611
0.047345456
0.0054420508
-0.034466997
-0.035198417
-0.025046645
-0.01832354
-0.02358703
-0.029459482
-0.02337297
-0.011228531
-0.004882754
0.007870953
0.02037496
0.023168446
0.014393489
0.008589566
0.0058685304
0.0034603833
0.0027398658
0.0046440894
0.0013688306
0.0025259424
0.014873355
0.026296325
0.028194038
0.025032269
0.018981533
0.016473686
0.012973987
0.0027534692
-0.016146313
-0.02104269
-0.014960103
-0.0012548438
0.009675974
0.01927761
0.02643058
0.031430148
0.037046306
0.035647724
0.025095955
0.0102491435
-0.0025479686
-0.011815898
-0.01399094
-0.004967534
0.007916172
0.017180696
0.019019961
0.021598708
0.022257457
0.023823315
0.03196288
0.03592667
0.031436235
0.026951578
0.01643373
0.008179807
0.0011345483
-0.0012501929
-0.003832046
-0.0064733815
-0.01161894
-0.008675017
-0.0036568702
-4.2924072E-4
0.0032702417
0.006531577
0.005870542
0.005739507
0.004946101
0.01024929
0.024145149
0.032307085
0.029469538
0.024917768
0.017722292
0.016232075
0.012962376
0.010875564
0.00759927
-8.631006E-4
-0.012913401
-0.018340295
-0.025320897
-0.03057572
-0.040191364
-0.04873545
-0.046742428
-0.041282814
-0.031702377
-0.022623496
-0.012793796
-0.0071875025
-0.004361726
-6.1726074E-5
0.004974868
0.0069762035
0.00867228
0.010143098
0.010988657
0.009689475
0.0075131813
0.0028826636
8.266357E-5
-9.29707E-4
-1.6970703E-4
0.003502146
0.003723999
0.008030076
0.010543264
0.011208823
0.011554383
0.011619941
0.009128389
0.009266836
0.0066281715
0.0013529126
-0.00326657
-0.0059555345
-0.0048997584
-0.004041611
-0.002588723
-0.0030582056
-0.0020153173
-0.0016300586
-0.0011347998
-0.0033966529
9.2571776E-4
0.001880459
0.0016352002
0.002172312
7.046826E-4
0.0010170533
0.0016317944
0.0050283885
0.0062473537
0.0056039477
0.004065801
0.001470542
0.0010429126
-0.0014018286
-0.003271311
-0.0018360523
-0.0031055347
-0.0041373875
-0.0045416113
-0.0052182055
-0.006819541
-0.0050461353
-0.0030456176
-0.0029851
-6.174707E-4
2.825293E-4
0.0015872705
0.003336753
0.004068606
0.0026057179
2.6571777E-4
-0.0010766528
-0.0021337646
-0.0038656176
-0.0030851
-0.0035369531
-0.0052635474
-0.0039954004
-0.0053219944
-0.0058609596
-0.0037428124
-0.0031322949
-0.0037341479
-0.0016888891
-0.0013736304
4.636963E-5
0.0018811108
-2.2888916E-4
-4.8125978E-4
-0.0020583717
-0.0011007421
-0.0016054834
-0.0027949659
-0.0043791896
-0.0060281544
-0.006257119
-0.0053037135
-0.0056826784
-0.005981643
-0.0066529787
-0.009543796
-0.008059873
-0.00881832
-0.013830991
-0.0089394385
-1.8943848E-4
5.729321E-4
0.0012176733
0.0036695264
0.0019066382
3.566382E-4
-5.3361815E-5
-0.0020304737
-0.0022975854
-0.0019546973
-0.0013594385
-0.0015641797
-0.0035160328
-0.0045102565
-0.0016949975
-0.0026421093
-0.0046863332
-0.003568186
-7.5055665E-4
7.51814E-4
7.441846E-4
-5.5818603E-4
0.0021589259
0.001453667
0.0017084082
0.00246552
0.002082632
0.001377373
7.737305E-5
-4.4499757E-4
-0.0012397388
-0.0026692213
-1.4922119E-4
0.0019978906
0.0021250024
0.0026321143
-0.0011202564
-0.0029297387
-0.0021068505
-0.0026339623
-0.004548186
-0.0028176685
-0.0013524097
0.0017623316
0.0025794434
0.0014141846
-2.3581543E-4
-0.0011705566
-0.0025876684
-0.0054842625
-0.003113745
-0.0025108568
-0.00397271
-0.0030821923
-0.002539304
-5.916748E-4
0.0012630664
0.0020201781
0.0015249194
0.0039967727
0.0050033666
0.0022904784
0.003039961
0.0050465553
0.0017812963
-9.810742E-4
-0.002148186
-0.0026476684
-0.0049642627
-0.0048484863
-0.008154563
-0.006363528
-0.0034953807
-0.004147234
-0.0030267164
-0.0037685693
-0.004080422
-0.0017251635
-0.0014599048
-0.0044941283
-0.0012988696
5.5350095E-4
0.0026206127
0.0026700953
0.0014548365
-0.0016499048
-5.122754E-4
-6.84646E-4
-0.0010970166
-0.0022941285
-0.0036259815
-0.0034078346
-0.003097317
-0.0043415404
-0.0043357643
-0.006104729
-0.0043889526
-0.0028384351
-8.908057E-4
1.4919434E-4
0.002006306
0.002483418
0.004145271
0.0047494946
0.0038413478
0.0017660889
9.884594E-4
-0.0014262818
-0.0010486523
-6.3102297E-4
-0.0013957642
-0.0013405053
-0.0017252465
2.8475342E-4
-0.0011499878
-0.001824729
-0.0011994703
0.001275271
0.0011900122
0.0010023828
0.0024494946
0.0040413477
0.004917942
0.0014526831
0.002329795
0.003971648
0.0024987597
0.001623501
-4.6499023E-5
0.0010358716
7.082422E-4
-0.0010341284
-0.0020412402
-9.536108E-4
-0.001768352
-0.0019654639
-0.0026225757
-0.0026920582
-0.0026515406
0.00107083
0.0016655712
0.0033350538
0.0048592775
0.0035811304
0.0027706127
0.0033500951
0.0034619481
0.0018066894
1.9668945E-4
3.8906006E-4
0.0022261718
4.1854248E-4
-5.638281E-4
-0.0018909399
-8.3331054E-4
-0.0012880517
-0.001312793
0.0027266894
5.7906006E-4
0.0016238013
0.0053803953
0.0048346194
0.004908843
0.004203066
0.00427729
0.0018620313
0.002179143
-3.3085694E-4
0.0015838842
0.0015586255
-0.0011037451
-0.0026008568
-0.0024279687
-0.0047921925
-0.005851157
-0.010314345
-0.008430422
-4.5279297E-4
0.0019243188
0.003616172
0.004118025
0.0042822487
0.0057412134
0.0057501784
0.005679143
0.0058281077
0.0048723314
0.003331814
0.0047060377
0.0064150025
0.0055915965
0.0058805617
0.0057695266
0.0067608617
0.0027403443
0.0022974561
0.0018421973
0.0016269385
-0.0016078027
-0.0030272852
-0.0013520264
-2.2026366E-5
2.3797364E-4
0.0017727149
-2.7285156E-5
-0.0010796557
-0.0012643969
-0.0023315088
-0.0023186207
-0.0015533618
-0.0019504736
-4.9284426E-4
-7.3521485E-4
-0.0024823267
-0.0022094385
-0.0025965504
-0.0030060327
-0.0013107739
0.0019463379
0.0019034497
0.0023805615
0.002970044
0.0042642676
0.0064032325
0.0054298267
0.0032393092
0.003451162
0.002528274
0.0025853857
8.2775636E-4
0.0027872387
0.0022843506
0.0011790917
0.0011114624
0.001083833
-3.985376E-4
-0.0014632788
-5.656494E-4
3.143506E-4
-3.7564943E-4
6.267212E-4
0.0014414624
0.0022285741
0.0018633155
3.6331543E-4
-1.9668457E-4
-9.790552E-4
4.0944826E-5
-3.5905518E-4
-4.8142578E-4
-0.001456167
-0.0031356495
-0.0057846145
-0.004598838
-0.003450691
-0.0029601734
-0.0029296558
-0.0022567676
-5.491382E-4
0.0021379737
0.0028474561
0.0024345678
0.005231162
0.005890127
0.0033896093
0.0026067211
0.002293833
0.0027233155
0.0020904273
0.0014651684
9.1753906E-4
0.0015022802
-8.2009035E-4
-7.4246095E-4
-0.0010448316
-0.0035066847
-0.0042509083
-0.0014756494
0.0014490918
0.0020862035
0.004350427
0.0043646507
0.0047488743
0.006397839
0.0056244335
0.0037262866
0.0022433985
8.0576906E-4
-3.6423095E-4
-9.3660154E-4
-0.002796084
-0.003897937
-0.0026450488
-0.00158979
-0.0022469019
-0.003658755
-0.003530608
-0.004022461
-0.0031119434
-4.4431398E-4
0.002202798
0.003564651
0.003506504
0.0029759863
0.0020730982
0.0042273216
0.0019044336
0.0015291749
0.0010115454
-0.0025955664
-0.0017803076
-8.226782E-4
-6.267822E-5
2.0732178E-4
-0.00189979
5.4258056E-4
-8.741943E-5
-0.0013621607
-0.0016669019
0.0012778393
0.0025849512
0.0035568043
0.003938657
0.0042928807
0.0035447339
0.0026218458
0.002901328
0.0024184398
0.0032079224
0.0027574047
0.0028868872
0.001973999
0.0012887402
-6.036304E-4
-0.0027631128
-0.005882078
-0.007978154
-0.0051547484
-0.0039266017
-0.0014813428
-4.9371336E-4
3.1628663E-4
0.0019133984
0.002982881
0.0027723634
0.002239475
0.0030489576
0.0036208106
0.0016355518
0.001280293
0.0011550342
-5.173364E-4
-0.0024244483
-0.0014491895
-0.0016939307
-0.003293413
-0.0026305248
-0.0016452661
-0.0011300073
-8.1237796E-4
2.1762207E-4
0.004059475
0.0056260694
0.0031355517
0.0033650342
0.0036968873
0.0018216284
-3.283716E-4
9.33999E-4
0.0010563696
7.487402E-4
-5.436304E-4
-0.0027731129
-0.001847854
-6.702246E-4
-9.125952E-4
-0.002109707
5.0266355E-4
-9.4970706E-4
-0.004936301
-0.01039949
-0.002788972
4.6339844E-4
0.002892881
0.0033623632
0.002089475
0.0018865869
7.089575E-4
0.0034608105
0.003130293
0.0013450342
0.0018597754
5.02146E-4
-0.0014125953
-0.0018073365
-0.0035391895
-0.0032886718
-0.0018734131
-8.157837E-4
-8.181543E-4
7.5421634E-4
0.0020413282
0.0040231813
0.005672146
0.007695852
0.007189558
0.004111411
0.002248523
0.0028480054
0.0011627466
6.051172E-4
0.0012398585
-3.401416E-4
-0.0014448828
-0.001299624
-0.0042538475
-0.0051704417
-0.0062094065
-0.005586001
-0.004210225
-0.0017149658
-1.8496581E-4
0.0018097754
0.0031492577
0.001333999
0.0031034814
0.0062224464
0.0028119287
0.00129667
0.0012014111
1.2141113E-4
0.0010537817
-0.0017909595
-0.0022180714
0.0014466699
-8.0570066E-4
-0.0017204419
-0.0014451831
-0.0012299243
0.0014848169
0.0020119287
0.003131411
0.0055580055
0.0052945996
0.0061435644
0.0053601586
0.005336753
0.0032562353
0.0032557177
0.0042499416
0.0015746827
-3.4531738E-4
-0.0015600586
-0.0016647998
-0.0044590235
-0.004883247
-0.0046674707
-0.0037793238
-6.0169434E-4
-4.1406494E-4
7.593506E-5
0.0016406763
0.0045849
0.005411494
0.0050180885
0.004512312
0.004256536
0.003316018
-2.3981933E-5
5.783887E-4
4.5075928E-4
5.031299E-4
2.1312988E-4
-0.0010992407
-0.0018863525
-0.004280576
-0.0017753174
-0.0013300586
-0.0014747998
-9.771704E-4
-4.717041E-5
0.0021199414
0.0018970532
2.4705322E-4
3.9942382E-4
0.0021265356
0.0020936474
0.004277871
0.002474983
4.7735352E-4
-3.526465E-4
-9.550171E-4
-4.073877E-4
-0.0015521289
-0.007555835
-0.011331394
-0.0014061353
2.0386475E-4
3.2386475E-4
3.3386474E-4
0.0023909765
0.0024080884
0.0035299414
0.004354165
0.005630759
0.004874983
0.0018097241
-0.0017250171
-0.0026644995
-0.002713982
-3.4398193E-4
1.1601807E-4
5.183887E-4
-0.0023487231
-0.003710576
-0.0028500585
-0.0025171705
-0.0016219117
-0.0014466528
-1.4665283E-4
0.0012780884
0.0021552
0.0026846826
0.0058736475
0.004667871
0.0038097242
0.003531577
0.0018563183
1.631836E-5
3.0631837E-4
1.631836E-5
-1.8368164E-4
-0.0010460522
-0.002453164
-0.003465017
-0.0035668702
-0.0029263524
-0.0015210938
-1.7109375E-4
-3.1109375E-4
0.0015436475
0.0014083887
0.0026155005
0.0030049828
0.0028644654
0.0038963184
0.0036681714
0.003317654
0.0036295068
0.0029289892
1.5898926E-4
-4.2338134E-4
4.7898927E-4
-3.5101073E-4
-2.1010743E-5
-0.0022881227
-0.0020552343
-0.0023723461
-6.747168E-4
-0.0023818286
-0.0018565698
-0.001151311
0.0015334302
0.004217654
0.0029871361
0.0010595068
3.1950683E-4
9.418774E-4
7.942481E-4
9.966186E-4
0.0017013599
0.0013961011
6.384717E-4
2.684717E-4
-0.0016662695
-1.0626953E-4
9.061011E-4
-0.0021410107
-5.733814E-4
0.0012913599
4.4373047E-4
0.0013084717
0.0012232129
0.0022303248
0.0022574365
0.0015121778
0.0022992895
0.0015540308
0.001608772
-5.435986E-4
-0.0019107105
-0.0014954517
-6.478223E-4
-0.002614934
-0.0022620459
-0.0013967871
-0.0019238989
-1.9389893E-4
2.7610108E-4
9.084717E-4
0.0021155835
0.0021826953
0.0049892897
0.0052558836
0.005122478
0.0022695898
0.003831443
0.0031609253
0.0027904077
0.0023575195
0.0014322607
-5.2010984E-4
-2.6010987E-4
-0.0014348511
-0.002631963
-0.0022990748
-0.0022261865
-7.285571E-4
1.5144287E-4
0.0012161841
0.0030256666
0.0052422606
0.006141226
0.0052478197
0.0070891553
0.0049457494
0.0035976025
0.0021747143
-7.8765623E-4
-0.0028571386
-0.0034189918
-0.0035108447
-0.0039326977
-0.00319218
-0.0046964036
-0.0061753686
-0.0057743336
-0.004838557
-0.010661745
-0.011397305
6.050659E-4
0.0029645483
0.0022416601
0.005128254
0.00660959
0.004956184
0.0028856664
0.0018927783
6.151489E-4
5.148926E-6
3.5514892E-4
-8.672217E-4
-4.395923E-4
-0.0017443335
-0.0018090747
-0.002648557
-0.002295669
-0.0013204102
4.0196045E-4
-1.0803955E-4
4.7433106E-4
0.0036961841
0.0028756666
0.002895149
0.0044293725
0.0039612255
0.0016559667
0.0025130785
0.0014078198
0.0011725611
5.6493166E-4
-2.1506836E-4
-0.004289292
-0.0043835156
-0.0016382568
-0.001452998
-0.0025901098
-0.0024872217
-8.395923E-4
-0.0011019629
-1.419629E-4
0.0029875196
0.0017322607
0.0024593726
0.003148855
0.0014335962
-5.587744E-4
-6.31145E-4
-2.3114502E-4
-2.7114502E-4
-6.835156E-4
-0.0010258863
-3.9825685E-4
-0.0024553686
-0.0037272216
-0.0046614455
-0.0033209277
-0.001735669
-0.0017904101
0.0016643311
0.0012890722
-2.0092774E-4
0.0034609253
0.0050875195
0.0057564843
0.0038483373
0.0021254492
0.0031249316
0.002784414
0.0014791553
-9.032153E-4
-0.0022703272
-0.0012850683
-0.0028545507
-0.0028140333
-0.0031035156
-0.003052998
-0.0022501098
-0.0020172216
7.351489E-4
-8.072217E-4
3.5277833E-4
0.0031322606
0.0041564843
0.0049230787
0.004847302
0.0043115257
0.004063379
0.0017881201
0.0012528613
8.1523194E-4
-0.0014495093
-5.318799E-4
4.4049072E-4
-0.0036813624