-2.5963134E-4
-0.0014343725
-0.0025814844
-0.0036533375
-0.0025004493
9.955078E-5
5.419214E-4
7.54292E-4
0.0027537744
0.004287998
0.004802222
0.005338816
0.003870669
0.0021477807
0.0023848927
0.0023220044
0.001014375
-7.679956E-4
-7.203662E-4
-7.0273684E-4
-4.9510744E-4
-0.0017598487
-0.0035117017
-0.004295925
-0.0035677783
-0.0010601489
-9.425195E-4
-8.251953E-5
0.0025945923
0.004358816
0.0021059278
0.001700669
0.0010030395
-0.0017217017
-4.8407225E-4
-0.0014688135
-0.0024959254
-0.0016006666
-0.0034001488
-0.0045543727
-0.005160967
-0.005177561
-0.006316526
-0.003848379
-3.183789E-4
9.162109E-5
-5.607495E-4
3.292505E-4
0.0028287328
0.0034905858
0.003472439
0.003414292
0.0016390332
1.690332E-4
0.0010814038
5.237744E-4
3.3377443E-4
-8.085962E-4
-0.0011009668
-0.0022080785
-0.003257561
-0.0023246729
-0.0036465258
-0.0044407495
-0.0010531201
-8.312012E-5
-6.054907E-4
-0.0027749732
-1.0497314E-4
0.0022521387
0.0031716211
0.0026811035
-3.2889648E-4
-0.0023060082
3.863623E-4
-1.636377E-4
-0.0039754906
-0.0057744556
-0.003153938
-0.0015486792
-0.0038005323
-0.0030700148
-0.0026271264
-0.0014718677
-8.542383E-4
-3.966089E-4
0.0012981324
0.0011328736
0.0025499854
0.004224209
0.0046284324
0.004892656
0.0030021386
0.0021192506
0.0013439917
0.0015787329
5.211035E-4
3.7110352E-4
-0.0026583788
-0.003970232
-0.0028897144
-0.0028091967
-0.0031486792
-0.0035605321
-0.002357644
-5.1001465E-4
0.0022070971
0.002614209
0.0043784324
0.0046026562
0.0065339915
0.0025111034
0.002830586
0.0024576976
0.0019448096
9.871802E-4
1.2718017E-4
-0.0018899316
-0.0034117848
-0.003171267
-0.0033507496
-0.0038226026
-0.003382085
-0.0020291968
-8.915674E-4
-9.156738E-5
-2.1567383E-5
7.0080324E-4
0.0032202858
0.0042145094
0.0035563624
0.002423474
0.0013582153
6.3058594E-4
-8.717847E-4
-0.0017665259
-0.0017612671
-0.0017060083
-9.783789E-4
-0.0028278613
-0.0035297144
-0.0030791967
-0.0047134203
-0.0034252733
-0.0029147558
-7.6712645E-4
0.0015576148
0.0011199854
7.1235595E-4
0.0023594678
0.0021165796
0.0016113208
0.0024584327
0.0014431739
0.001647915
0.0014326562
-0.001342085
-0.0013468262
-2.4682618E-4
-9.5919677E-4
-0.0033486793
-0.0028081615
-0.0017229029
-0.001427644
0.0011370971
0.0010194677
7.218384E-4
0.0012465796
0.003326062
0.0020331738
0.0026626564
0.0031721387
0.0023292506
0.0021263624
8.687329E-4
-0.0036431202
-0.004457344
-0.014082385
-0.0074760914
-0.0030755738
-0.0023426856
-0.0035645387
-0.002904021
-0.0025211328
-0.0019782446
-0.0011429859
-1.4298584E-4
0.002414126
0.002471238
0.0029707202
0.004884944
0.0032644263
0.00422865
0.0035105029
0.0014252441
5.876147E-4
-0.0014471265
-0.0014218676
-6.342383E-4
-0.00224135
-0.0028808324
-0.003150315
-0.0024974267
-0.0032669092
-0.0018916504
0.0019754614
0.0012802026
0.0013549438
0.0027844263
0.0038962793
0.0051728734
0.0050594676
0.0035313207
0.0030408031
4.2317383E-4
-4.191968E-4
-7.9196776E-5
4.080322E-5
-6.015674E-4
-0.0014763086
1.1369141E-4
-0.0018310498
-0.0021181616
-0.0021152734
-0.0026223853
-2.4238526E-4
8.699854E-4
0.0023170973
0.00392895
0.004153174
0.0014779151
0.0024550268
0.0019021387
3.7450928E-4
0.0016392504
0.0012439917
-0.0026954908
-0.0031749732
-0.0028244555
-0.0024815674
-0.0036634204
-0.0025405323
-0.0011129029
-6.752734E-4
-0.0011900146
-5.7238527E-4
-5.5475585E-4
0.0011399854
0.0028894679
0.0020465795
0.0017813208
0.0046055443
0.004589768
0.0028492506
0.0015839917
9.063623E-4
0.0010387329
-0.0014360083
-0.0010783789
-0.0027278613
-0.0030873436
-0.0032268262
-0.0035886792
-0.0031381617
-2.6816162E-4
-0.0012029029
-0.0019200146
8.5235597E-4
0.00501895
0.004343174
0.005309768
0.0043339916
0.0021411036
0.0024282152
0.0027376977
0.0022648096
5.6718016E-4
-4.1519044E-4
-0.0026846728
-0.004931267
-0.0026907495
-0.0020578613
-0.002424973
-0.0018897144
-1.8971435E-4
7.5265625E-4
0.0018873975
0.0023745093
0.002391621
0.002478733
0.003880586
0.0044948095
0.0034466626
0.003216145
0.0024232569
4.9562746E-4
-0.0021414843
-0.004215708
-0.0048299315
-0.0048041553
-0.0032236376
-0.0032131202
-0.0039949734
-0.0029644556
-0.003163938
-0.0028534203
-0.005440015
-0.014635056
-0.0014797974
0.0040720557
0.00538865
0.005375244
0.004599468
0.0031889502
0.0010813208
-3.8679198E-5
9.5369143E-4
5.66062E-4
6.062012E-6
3.76062E-4
-0.0017686792
-0.002225791
-0.002142903
-0.001807644
-3.0764405E-4
-0.0012823852
-6.2385254E-5
0.0025147265
0.0039665797
0.004250803
0.006309768
0.005688733
0.0033082154
0.0037200684
0.0032895508
7.1192137E-4
-0.0024251905
-0.0021123022
-9.7467285E-4
-0.0014194141
-0.0018541553
-0.0015688965
-0.0025560083
-0.0022131202
-0.002540232
-0.0027197143
0.0012050269
0.0020621386
0.0014368799
0.0031963624
0.0020934741
0.0027829565
3.7295654E-4
0.0011976977
0.001192439
2.6243896E-4
2.6243896E-4
-5.9993163E-4
-0.0024570434
-0.004171267
-0.004997861
-0.0034597144
-0.0021068263
-0.002213938
-0.0033634205
-0.002692903
-0.0013076441
5.6472654E-4
7.4726566E-5
0.0015694678
0.0027289502
0.0047931736
0.0043173973
0.00328688
-2.831201E-4
-0.0013678613
-2.8786133E-4
-0.0035397143
-0.0027091969
-0.0035110498
-0.0048652734
-0.0080813505
-0.006892686
-0.0020697974
-0.0030692797
-0.001284021
-5.363916E-4
0.0024407203
0.0014354615
-0.010907727
0.0023093848
0.0042036083
0.004767832
0.0058067967
0.0050033913
0.002080503
0.0012352441
8.8761473E-4
-0.0010947558
-0.0021918677
-0.0022889795
-0.002938462
-0.0014232032
-0.0026826856
-0.003312168
-0.0028916504
-2.165039E-5
0.0016830908
0.0016578321
0.0030773145
0.0044915383
0.0044157617
0.0046999855
0.0025270972
0.0016318384
0.0016065796
0.0017713208
-1.386792E-4
2.913208E-4
-6.110498E-4
-0.0030105321
-0.0017752735
-0.0025123854
-0.0022394971
-0.002096609
-0.0033260912
2.739087E-4
0.0021410205
0.0037628736
0.0039047266
0.005371321
0.0045555444
0.0019326563
0.0011773974
0.0024445092
0.0018792505
0.0012139917
-0.0011307495
-0.002890232
-0.0027897144
-0.0017944556
-0.0035063087
-0.0038381617
-0.0026152735
-0.0016800147
-2.1001465E-4
0.0014547266
0.0011594677
0.001804209
0.0023713207
0.004103174
0.0047873976
0.0039392505
0.0020663624
0.001118733
0.0012134741
2.4347412E-4
-0.0019236377
-0.0026931202
-0.0030026026
-0.0026097144
-0.0030491967
-0.0030386792
-0.002385791
-0.0050423853
-0.002169497
-2.3949707E-4
0.0016652441
0.0035870972
0.004881321
0.0029008032
0.004345027
0.0044792504
0.0038911034
0.003260586
0.0019276978
-6.046728E-4
-0.0014494141
9.0585934E-5
-0.0018341553
-0.0035860082
-0.0028954907
-0.001690232
-0.0024173437
-0.0010297144
-3.9208497E-4
3.7791504E-4
6.2028563E-4
0.0035721387
9.3450927E-4
0.0029339916
0.003975845
0.0032253272
0.0030048096
0.0023919214
0.0012066626
0.0017714038
-4.209668E-4
-0.0023680786
-0.003097561
-0.0017423022
-7.646729E-4
-0.001769414
-0.002536526
-0.0015612671
-0.0014660083
-0.00212312
-0.002020232
0.0015645092
0.004698733
0.003610586
0.0041948096
0.0042890334
0.002276145
9.485156E-4
8.7088626E-4
4.2325683E-4
-6.9911376E-4
0.0017456275
-1.5437255E-4
-0.0017091137
-0.0020862257
-0.0034780786
-0.002947561
-0.0043117846
-0.003271267
-0.002128379
0.0011763623
0.0015411035
0.0040129567
0.0035148095
0.0040266626
0.002696145
0.0019032569
0.001287998
0.0026474805
5.5985106E-4
-1.5014893E-4
-5.9251953E-4
-0.0021296313
-0.0027091138
-0.005265708
-0.004942302
-0.0039641554
-0.002451267
-0.0011460083
-0.0010783789
8.639917E-4
0.0029834742
0.0035253272
0.004359551
0.0034914038
0.0043056277
-0.0016991138
-0.015638897
7.110352E-5
0.0014358447
0.001350586
-0.0013541552
-0.0033136378
-0.0016483789
-0.0019254907
-0.001310232
-0.0017049732
-0.0017697144
-7.971436E-5
-3.6971437E-4
5.426562E-4
0.0018273975
0.0045016212
0.0047458448
0.0029453272
0.0036371802
0.004019033
0.002146145
5.385156E-4
8.108862E-4
4.9325684E-4
2.5325685E-4
-7.091138E-4
-0.0024262257
-0.004250449
-0.0052970434
-0.004391267
-0.0015660083
-0.0033854907
-0.005652085
-4.4445557E-4
0.0022526563
0.0029021387
0.0039939918
0.004168215
0.0040700682
0.0030895509
0.0010019214
0.0019690332
-3.109668E-4
-0.0037228197
-0.0030123023
-0.0028817847
-0.0023888964
-0.0020660083
-0.0024531202
-0.003954973
-0.002562085
-0.0016568261
7.4554444E-4
0.0014302856
0.0039021387
0.004876362
0.0051229564
0.005791921
0.004216145
0.0018908862
0.002257998
0.0018227393
9.3510986E-4
-0.0010072608
-0.003376743
-0.0034285963
-0.0038004492
-0.005157043
-0.004381267
-0.00359312
-0.002640232
-6.126025E-4
-6.049731E-4
0.0023521387
0.0032016211
3.016211E-4
0.0017763623
0.0031558448
0.003145327
0.0018600684
4.8243898E-4
0.0019995507
0.0020666625
-0.0023004492
-0.015820231
-0.006139197
-0.0019063086
-0.0022834204
-0.004907644
-0.0048718676
-0.00317135
-0.0018160914
-0.0012608325
2.6916747E-4
0.0019462793
0.0035481323
0.0064794677
0.0070908032
0.004465027
0.00390688
0.0030063624
0.0011287329
3.7873292E-4
-0.0013660083
-0.0027854908
-0.004229714
-0.004283938
-0.0030634203
-0.004417644
-0.0047718678
-0.0024389795
-5.613501E-4
-8.837207E-4
-1.237207E-4
0.0014610206
0.004365244
0.006054209
0.007287915
0.0071192505
0.0073929564
0.006724292
0.0054608863
0.0025379981
0.0017727392
0.0020698512
0.0012245923
-0.0027348902
-0.0037267432
-0.0038185962
-0.006027561
-0.0047317846
-0.0032512671
-5.736377E-4
0.0016411035
0.0023282154
0.0026576978
0.0062366626
0.007860369
0.004504592
0.0032140748
0.0042482982
0.004582522
0.0043567456
0.003006228
0.0043504518
0.0044346754
0.002451787
-0.0014429541
-0.0032624365
-0.00405429
-0.005570884
-0.0034027367
-0.001377478
-3.1747803E-4
-0.0018945899
0.0030848926
0.0057938574
0.0039157104
0.0041475636
0.003127046
0.0010794165
-0.0037924366
-0.002841919
-0.003893772
-0.007567478
-0.010640667
-0.014978078
-0.0155678615
-0.019699497
-0.027224839
-0.029979663
-0.025187893
-0.013530564
0.008917883
0.038768783
0.05846132
0.06605756
0.0581001
0.054430783
0.051601984
0.04395948
0.03303379
0.020467794
0.0067091286
-0.005577466
-0.013500136
-0.015197549
-0.013067849
-0.015225261
-0.024783492
-0.032415427
-0.04058344
-0.03796197
-0.023335459
-0.01337813
-0.009758947
-0.008897395
-0.00637636
-0.0034282128
0.0016965283
0.0029360107
0.006577346
0.011162905
0.014657947
0.01592773
0.014532771
0.010173589
0.0060425536
1.925537E-4
-0.0014921875
-0.0055987816
-0.0071501173
-0.0049267113
-0.0074604177
-0.009138864
-0.009167312
-0.0044915355
-0.004745759
-0.015003172
-0.020447178
-0.016409332
-0.008335408
0.0033940747
0.013796746
0.015756529
0.0138992
0.014846612
0.015114023
0.0104972115
0.006668547
6.0091796E-4
-0.0046533057
5.290649E-4
0.0062880297
0.016300183
0.031037377
0.04083539
0.03624918
0.035130598
0.042653352
0.0474227
0.040298343
0.019699978
0.016252132
-0.0063668336
-0.026199805
-0.030224629
-0.033488937
-0.027464278
-0.007005613
0.010537576
0.013480247
0.019109512
0.029211964
0.041292347
0.061314367
0.06566061
0.05003707
0.033201378
0.031410944
0.026193913
0.017088437
-0.008027639
-0.01359031
0.0014444311
0.008620508
-2.1949218E-4
-0.014444534
-0.033751212
-0.03859211
-0.014557153
0.011710776
0.023394264
0.01858353
-0.0057454347
-0.031435
-0.034241676
-0.023165166
-0.0129254665
-0.01566525
-0.021873996
-0.017018521
0.0072951857
0.040030826
0.07331078
0.09386473
0.0909392
0.07238678
0.086979404
0.11339499
0.07735679
-0.017587729
-0.0907422
-0.14807685
-0.18539764
-0.17495762
-0.1058095
-0.030484328
0.030330496
0.084956005
0.12043293
0.1270112
0.083061956
0.008338035
-0.050993167
-0.07872971
-0.065545954
-0.035207372
0.002802112
0.016644266
0.012422195
-0.0040396582
-0.025710259
-0.0042144824
-0.0094553
-0.06627391
-0.08515179
-0.044129286
-0.025699887
0.01000093
0.057421096
0.08865846
0.07039893
0.011124482
-0.006556853
0.009381594
-0.005015
-0.05325331
-0.11987024
-0.13073036
-0.06471422
0.010428962
0.056174386
0.06465826
0.07659769
0.07733949
0.08623974
0.082658134
0.030675331
-0.01660682
-0.025065051
-0.01149061
0.018066283
0.03020111
0.056056533
0.09282812
0.048499838
-0.023753652
-0.069601744
-0.048413467
0.006035498
0.055288553
0.06285531
0.07021578
0.15144227
0.2226816
0.23074463
0.17066039
0.031127585
-0.099052966
-0.16724686
-0.14881387
-0.15417749
-0.15283634
-0.113734305
-0.051585507
0.03240643
0.04950289
0.012973191
-0.0048810327
-0.0907955
-0.16045807
-0.2026034
-0.21319191
-0.20023012
-0.16724402
-0.1112225
-0.03701866
0.041944094
0.12412287
0.14255092
0.09711672
0.036942884
0.05684068
0.11104916
0.1355335
0.19705223
0.19784333
0.18887597
0.14830062
0.050389446
-0.07001102
-0.175441
-0.18959603
-0.18173733
-0.2043074
-0.17672212
-0.09223134
-0.030046161
0.008892285
0.07081512
0.067216106
0.05405679
0.043974284
0.028131997
0.016091779
-0.029380674
-0.011206233
0.050772596
0.05306854
-0.0049380544
-0.072918005
-0.08369114
-0.11537384
-0.071246676
0.032947626
0.05492068
-0.018276213
-0.11180706
-0.19693579
-0.15076992
-0.064311415
2.7858643E-4
0.050947417
0.085205294
0.10174533
0.15769078
0.14751305
0.05057188
-0.004432341
-0.008980788
-0.019030053
-0.04564229
-0.03639608
-0.0812221
-0.11859429
-0.10075958
-0.013722251
0.045982357
0.077024154
0.095885225
0.13619193
0.1779114
0.16313344
0.20072404
0.23672603
0.17716312
0.07198833
-0.0030911549
-0.15911135
-0.32293597
-0.34710646
-0.27589172
-0.1545977
-0.07291765
-0.03508669
-0.02232781
-0.018747075
-0.036260866
-0.05605629
-0.045308527
-0.04446839
-0.042673517
-0.028271228
-0.010884416
-0.012644717
-0.005441311
0.050105147
0.10948889
0.15137301
0.16542217
0.095663235
-0.03406344
-0.10862481
-0.09451114
-0.051052336
-0.03574375
-0.04874784
-0.036824003
-0.0011887427
0.01518867
0.02717401
0.040622026
0.0102652125
-0.0277025
-0.029824954
-0.037773483
-0.061847873
-0.049251962
-0.017968858
-0.012306787
-0.013679458
0.0047647655
0.026870107
0.04011575
0.022004496
0.010427685
-0.0071760206
-0.008612097
-0.030466922
-0.052450493
-0.037609022
-0.021737771
-0.018084666
-0.01748919
-0.011564748
-0.0073284544
-0.0060874196
-0.0059663844
-0.015323796
-0.03104099
-0.03443004
-0.024325898
0.007930178
0.034489226
0.038900126
0.04228288
0.04527512
0.036438905
0.026834248
0.023940107
0.023313597
0.026716568
0.022757685
0.010500874
0.00733458
0.007528286
0.0032477686
-0.007845937
-0.0114814965
-1.6149659E-4
0.011624062
0.013154362
0.00928281
0.010715999
0.012936299
0.005302893
0.0023100048
0.011405564
0.015745347
0.015442759
0.021429136
0.028849218
0.02614219
0.017516714
0.014171755
0.01859102
0.016403174
0.011761104
0.012971404
0.024157263
0.03383394
0.0372801
0.041380484
0.053046424
0.06566267
0.059629947
0.046856925
0.038337823
0.022418942
6.8131345E-4
-0.018305581
-0.03369226
-0.036436047
-0.04027169
-0.044381555
-0.038602456
-0.031069651
-0.02431551
-0.015935292
0.010837896
0.034466945
0.04311207
0.038142968
0.018582234
-0.014372808
-0.06396431
-0.095253006
-0.089072734
-0.07137557
-0.050212033
-0.037830565
-0.025098793
-0.0201228
-0.019394437
-0.0188037
-0.021060077
-0.023223568
-0.026486538
-0.02770425
-0.021962998
-0.012120928
-0.010141745
-0.013162046
-0.021218423
-0.006317388
0.011498172
0.017172696
0.022963813
0.023067303
0.02156605
0.016838202
0.00854428
0.001179021
-0.0048852027
-0.011070762
-0.015840545
-0.023624033
-0.029858857
-0.029601311
-0.025991911
-0.019161176
-0.010334365
-0.0068457006
-0.0023228126
6.0955813E-4
0.0047237817
0.009082229
0.012180159
0.012770459
0.009118906
0.0039507593
0.0017555004
0.0027349829
0.0021220946
8.7446533E-4
0.002131577
0.0027710595
6.634302E-4
9.858008E-4
0.001400542
0.0015152832
0.0026947656
0.0014695069
7.0187746E-4
-0.0019752344
-8.47605E-4
-5.099756E-4
-2.999756E-4
7.72395E-4
-1.7760498E-4
-8.7997556E-4
-9.975586E-6
-0.0020170873
-5.39458E-4
-7.618286E-4
-8.341992E-4
-0.0015489404
-0.0012536816
-0.003083164
-0.0037850172
-0.001952129
-3.521289E-4
0.0012226123
0.002589724
0.005888689
0.0070000244
0.0075037302
0.0074074366
0.007018772
0.0066101076
0.0035519605
-8.8041014E-4
-0.0013351514
3.4848632E-5
-0.0027446337
-0.0042888573
-0.005937822
-0.006386787
-0.008062864
-0.00745657
-0.0052131643
-0.004125017
-0.0056416113
-0.0029410936
-0.0019682057
-0.0010305762
6.817944E-4
0.0027412768
0.00415313
0.0031326122
0.001989724
7.9209474E-4
-0.0023150172
-0.0025221289
-0.0029216113
-0.004265835
-0.0047700587
-0.007011394
-0.005047988
-0.004532212
-0.0044464357
-0.003215918
-0.004560142
-0.0023672534
0.0010351172
0.002512229
0.0021593408
9.017114E-4
0.0015064527
0.0012311939
4.6356444E-4
-3.4643555E-4
-9.488062E-4
-0.0028782885
-0.0025954004
-0.0032048828
-0.005351477
-0.0046957005
-0.005112295
-0.00602126
-0.005287854
-0.0044820774
-0.00333156
-0.004565784
-0.0018905249
0.0017042164
0.0018289575
-1.9104248E-4
-0.0015757837
-0.0013705249
-0.0033900074
-0.0049066017
-0.0034584545
-0.002757937
-0.0022550488
-0.0023521606
-0.0034840137
-0.003925867
-0.0030553492
-0.0032648316
-0.0036166846
-0.0020637964
2.562036E-4
-1.3796387E-5
0.0021733155
0.004407539
0.0057265037
0.005845469
0.0039973217
0.0044915453
0.0038333985
0.0035852515
0.0021823633
2.3236328E-4
-2.4763672E-4
-0.0017323779
-9.947486E-4
-0.003064231
-0.0024213428
-0.003140825
-1.408252E-4
3.091748E-4
8.115454E-4
7.73916E-4
0.003515769
0.0024228808
0.0027323633
0.0026294752
0.005226069
0.0041379225
0.0028174047
-5.0496584E-4
-6.073364E-4
0.0017774048
-4.1496582E-4
-0.0012197071
-0.00415156
-0.0046857838
-0.003205266
-0.003717119
-0.0011918603
-9.94231E-4
-4.7660156E-4
0.002892881
0.0037847338
0.0028042162
0.00431844
0.0044526635
0.0040145167
9.368872E-4
8.492578E-4
3.1925782E-4
7.9162844E-4
-9.807422E-4
-0.0029802246
-0.0040620775
-0.0024991895
-0.0013939306
-0.0026410425
-0.0037828954
-0.002882378
-0.0014671191
1.9288086E-4
0.001837622
0.0030771045
0.003356587
0.0047608106
0.006369775
0.00584874
0.0052053346
0.004839558
0.004313782
0.0029232642
0.0017080053
4.9037597E-4
6.0274656E-4
-0.0011719946
-0.0031914772
-0.0021785889
-0.0016033301
-0.002090442
-2.204419E-4
0.00217667
0.0035385229
0.0032580055
0.004202229
0.0051488234
0.0041530468
0.0048572705
0.002966753
0.0032762354
0.002073347
0.002580459
8.928296E-4
0.0011975708
1.575708E-4
-0.0014971704
-0.0016819116
-0.0020490235
-0.0040308763
-0.0034627295
-0.0026098413
-0.0012245825
-5.469531E-4
9.954175E-4
0.0043196413
0.0037814942
0.0038833471
0.0040652
0.004389424
0.0028689064
0.0032083886
0.0015631298
0.001807871
0.0013026122
4.0498291E-4
-0.0047692405
-0.0043334644
-0.0049500586
-0.0058590234
-0.0025961353
-0.002413247
-6.856177E-4
0.0035562355
0.004450459
0.0025575708
0.0037894237
0.0041736476
0.004177871
0.0046120947
0.003101577
0.002518689
-1.2131104E-4
7.010596E-4
-0.0011636816
-0.012733982
-0.013286653
-0.0028861354
-0.004190359
-0.0030198414
-0.0029293238
-0.001564065
2.2593506E-4
0.0022330468
0.0015677881
0.004029641
0.0041938648
0.005110459
0.006731794
0.004376018
0.0024031298
0.0023502416
0.0015149829
3.9735352E-4
3.773535E-4
-0.0011250171
-0.0013097583
-0.0027292408
-0.003981094
-0.004265317
-0.0030247997
-0.0024619116
-0.0011766528
0.0012580884
0.0017728296
0.0016775707
0.0024146826
0.0020817944
0.0029012768
0.0031907593
0.0029002416
0.0021173535
0.0022044654
1.5446534E-4
-0.0012302758
-0.0028997583
-0.00250687
-0.0022039819
-0.0028634644
-0.0029229468
-0.0020900585
-0.0012847998
-0.001149541
7.728296E-4
0.0016375708
-1.324292E-4
0.001872312
0.0036141651
0.003586018
0.0041702418
0.0021173535
1.7735352E-4
8.597241E-4
8.972412E-5
4.5209474E-4
1.02094724E-4
-0.0023450172
-0.0029644994
-0.0012692407
1.5075928E-4
-5.316113E-4
-4.3398194E-4
0.0028155006
0.003074983
0.003806836
0.0030763184
0.0012710596
0.0018881714
0.0041100243
0.004694248
-2.0575196E-4
-8.5812254E-4
9.242481E-4
-1.9575196E-4
2.9424805E-4
4.2661864E-4
5.189893E-4
-0.0023581225
-0.0034999757
-0.00523657
-0.003918423
-0.0021555347
-3.8790528E-4
-0.0011102759
-9.326465E-4
0.0015220947
0.0043163183
0.0038481713
0.0050647655
0.0016895068
0.0029889892
0.0013137305
-5.8864016E-4
-0.0014733813
-0.0012481225
-0.002847605
-0.0026670874
-0.0032165698
-0.0019536817
-0.0011784228
-0.0026579052
-0.0028073876
1.426123E-4
9.549829E-4
4.6735353E-4
5.497241E-4
0.0038515772
0.0033710597
0.0036129125
0.003222395
0.0019195068
0.0024166186
0.0016613599
0.0017161011
1.6101074E-5
-0.0023710108
-0.0044352342
-0.0040070876
-0.016559241
-0.007552947
-0.0027724293
-0.0015271704
-0.0015819116
-0.0025290234
0.0015557178
0.0032952002
0.0045494237
0.0053960183
0.0042102416
0.0043744654
0.00575343
0.0034552831
0.002302395
0.0020795069
-8.1286376E-4
-0.0010252343
-0.0016199755
-0.0017447168
-3.747168E-4
-0.001309458
2.0541993E-5
-1.9458008E-5
-4.5182862E-4
1.6817139E-4
0.0038600245
0.0034618773
0.0037637304
0.0057726954
0.0061416603
0.0032311426
0.0018358838
3.6588378E-4
-5.064868E-4
3.858838E-4
-0.0028935985
-0.003083081
-0.0018901929
-0.0031396754
-0.0034515283
-0.0017462695
-0.0018010107
-0.0020881225
-0.0026352343
-6.523437E-5
0.0018895068
0.0051061013
0.0041479543
0.0047421777
0.0060411426
0.0056701074
0.004534331
0.0029838134
0.0016985547
3.2855468E-4
-0.0016361865
-0.0010985571
1.442871E-6
-0.002305669
-0.003737522
-0.0043017454
-0.0041035987
-0.0043578222
-0.0031673047
-2.2730468E-4
0.004114548
0.0049511427
0.005087737
0.0041395896
0.005386184
0.0046604075
0.0038422607
0.0020293726
-4.2299804E-4
-8.3536864E-4
3.3463136E-4
-0.0012101099
-0.0012648511
-0.0035867041
-0.0037285571
-0.0031580396
-0.0034998925
-0.0035417457
-0.0013164869
-9.288574E-4
-8.81228E-4
-1.8122802E-4
8.1114256E-4
0.0022682543
0.0018629956
0.0024201074
0.0020772193
0.0018943311
0.0017990723
-1.1092774E-4
-0.0024180396
-0.0024951515
-0.0020422633
-0.0028017457
-0.0025988575
-0.0024259693
-0.001983081
-8.4545166E-4
-8.778223E-4
-4.4019287E-4
5.121777E-4
0.0022392895
0.0040311427
0.004755366
0.00437959
0.005406184
0.0034180372
0.0037798902
0.002157002
7.793726E-4
-2.0062744E-4
-5.42998E-4
-3.6299805E-4
-4.4536864E-4
-0.002944851
-0.0043890746
-0.0041932985
-0.0019904103
9.589844E-6
6.6196045E-4
0.0030014429
0.003733296
0.003985149
0.003657002
0.0030164844
0.003145967
0.0033454492
0.0017301905
0.0021873023
6.2967284E-4
9.820434E-4
-6.2032713E-4
-6.6269777E-4
-0.001607439
-0.0023145508
-0.0027440332
-0.002511145
-0.0024482568
-0.0023153687
-3.9773926E-4
0.0017670019
0.0014117431
0.0037735961
0.00541019
0.0056791552
0.00621812
0.0035799732
0.002547085
0.0023641968
0.00346605
0.001690791
1.07910155E-5
0.0022779028
3.7790282E-4
-0.0032215796
-0.002801062
-0.004102915
-0.0031023975
-0.0029318798
-0.0023089917
-0.0013037329
0.0017310083
0.0028904907
0.0037923437
0.005008938
1.0893799E-4
-0.0011958032
0.002773679
0.0014584204
-7.157959E-5
9.842041E-5
0.0016731616
-4.59209E-4
-0.002546321
-0.0059952857
-0.0043695094
-0.002236621
-0.0024337329
-0.0013984741
-0.0085145505
-0.014851963
-6.543335E-4
0.0039975196
0.005124114
0.0046483376
0.0073720436
0.0041562673
0.006345232
0.0051418263
0.0030913085
0.0013060498
7.984204E-4
-3.215796E-4
-2.815796E-4
5.70791E-4
-0.0032986915
-0.005345286
-0.00509188
-0.003423733
-0.0011384741
0.0018062671
0.0024433788
0.003545232
0.0048894556
0.0043036793
0.0038255323
0.0028650146
0.002754497
0.0015692383
6.716089E-4
-0.0016331323
-0.0026202442
-0.002447356
-0.003729209
-0.0045034327
-0.003382915
-0.002280027
-0.0024371387
-0.0024342504
-0.0032837328
-0.0011484742
0.001146267
0.00359812
0.0044023436
0.0031918262
0.0031713087
0.0037131617
0.0021802734
3.8027344E-4
-2.2972656E-4
2.0027344E-4
1.5027344E-4
-0.0011744677
-0.0010468384
-9.49209E-4
-0.0021863207
-0.005182915
-0.007296621
-0.005053215
-1.5321533E-4
0.0025338966
0.003103379
0.0045776027
0.0048318263
0.0034836791
0.0036155323
0.0047897557
0.003411609
6.839795E-4
-6.983911E-4
-0.002475503
-0.0038373559
-0.0029068384
-0.0032063208
-0.0036181738
-0.0027376562
-0.001974768
-0.0016795093
-0.0029089916
-0.0022261036
4.1626708E-4
0.0014610083
0.0026081202
0.0051347143
0.0053413087
0.0037331616
0.003152644
0.003594497
-3.5550294E-4
6.868677E-4
0.0014416089
7.339795E-4
-4.983911E-4
-0.0026678736
-0.0035897265
-0.003179209
-0.004041062
-0.0033305443
-0.0025376563
-3.5765624E-4
1.7234375E-4
0.001527085
0.003398938
0.004283162
0.005209756
0.00519635
0.0029558325
2.583252E-5
-6.165381E-4
-7.489087E-4
-1.389087E-4
-0.0015936499
-0.0023307616
-0.0024478736
-0.0016826148
-0.0028020972
-0.0037139503
-0.001911062
-0.0010034327
8.48938E-4
0.0025360498
0.0022331616
0.0026002734
0.0037121265
0.0036939795
0.003033462
0.0033729444
0.0035047974
0.0010471679
8.5953856E-4
-1.20461424E-4
-0.001042832
-0.0014975732
-0.0027170556
-3.4705567E-4
-0.0023741676
-0.0034660206
-0.0021831323
-0.0031126149
-0.0025397267
-4.0209715E-4
0.0018126441
0.004566868
0.0044610915
0.004565315
0.0045695384
0.003129021
0.002046133
9.585034E-4
0.0011932446
7.8561524E-4
-0.0020114966
-0.002700979
-0.0023180908
-0.0025552027
-0.0052217967
-0.0063807615
-0.0063597267
-0.0046639503
-0.0018786914
9.736792E-4
0.0023507911
0.0029002735
0.0029397558
0.0038216088
0.0032510913
0.0027305738
8.829443E-4
8.4531493E-4
6.1768555E-4
-0.0013670557
-0.0025941674
-0.001096538
-0.00212365
-0.004125503
-0.0029049853
-0.0031244678
-0.0029839503
-0.002321062
-2.1106201E-4
8.513086E-4
-0.0015134326
0.0013313086
0.0038931617
0.002942644
0.0019997559
1.09755856E-4
-0.008728691
0.0018660498
0.005532644
0.0024797558
-0.002467356
-7.397266E-4
3.9264405E-4
-3.1735597E-4
-0.0020244678
-0.0035063208
-0.001191062
-6.234326E-4
3.88938E-4
5.313086E-4
0.0021384205
0.0035902734
0.004524497
0.004578721
0.0040805736
0.0024776855
0.0022847974
0.0017195386
4.619092E-4
6.1427976E-4
-0.0011280908
-0.0019952026
-0.003184685
-0.0031841674
-0.0023212794
-0.0037231324
-0.0029626146
-0.0010049853
-7.498535E-5
0.0010173853
0.0017021265
0.0036139796
0.0041458327
0.005372427
7.947974E-4
-0.010548391
0.0025887208
0.0034205737
5.7294435E-4
0.0011676855
0.0011524267
-1.1757324E-4
-1.7757324E-4
-0.0017423144
-8.846851E-4
-2.8468505E-4
-0.0016994262
-6.4179685E-4
2.1820313E-4
8.905737E-4
0.0022876856
0.0019247973
0.0031742798
0.0045285034
0.0040703565
0.0018550977
0.00334458
0.0015093213
0.0015940625
0.0010464331
-1.835669E-4
8.288037E-4
-9.135669E-4
-0.0019606787
-0.0022377905
-0.002707273
-0.0026767554
-0.002603867
-0.002000979
-0.0010033497
3.766504E-4
0.004320874
0.005067468
0.006156433
0.0068477686
0.005264363
0.0028138452
0.0018285864
0.0020556983
0.00210281