0.0020746826
0.0011694238
5.817944E-4
0.0014665356
-5.3464355E-5
-4.7583497E-4
-6.9820555E-4
-0.0022753174
-0.0029347998
-0.0020119117
-8.191162E-5
-0.0010042823
-0.0014190235
-4.7139404E-4
-0.0012161352
3.3864748E-5
-8.5850584E-4
-4.1087647E-4
0.0010314941
0.0017862354
0.002133347
0.0014780883
3.8045898E-4
-0.0016542822
-0.002361394
-2.6139405E-4
-1.3139404E-4
-9.637647E-4
-3.7646485E-6
-0.0024008765
-0.005477471
-0.016107254
-0.004541477
4.0089356E-4
0.0015856348
0.0029551173
0.0031945996
0.0036264525
0.0038983056
0.0046825293
0.0041043824
0.0030138649
0.0023909765
0.0010333472
0.0010957178
1.15717776E-4
-4.2665284E-4
-2.9665284E-4
-0.001871394
-0.0011237647
-7.0613524E-4
-0.001993247
-0.0019903588
-7.827295E-4
-0.0012074707
6.948999E-4
-4.474707E-4
5.348999E-4
0.0021220117
0.001206753
0.0014614941
5.338647E-4
6.0623535E-4
0.0015709766
-2.3902344E-4
-0.001081394
-4.9376464E-4
3.9860595E-4
-9.037646E-4
-0.0022308764
-0.0015456177
-0.0023927295
-0.0018574707
-2.474707E-4
-5.098413E-4
0.0013148999
0.0011896411
0.0026791235
0.0011338647
0.001248606
7.4097654E-4
0.0011033472
6.757178E-4
-1.8428222E-4
-8.428223E-5
5.980884E-4
-4.8428224E-4
-4.2665284E-4
-0.0028861354
-0.002083247
-0.0013079883
-8.103589E-4
-0.0018151001
-0.002282212
-9.345825E-4
-3.458252E-5
0.0016401587
0.0021272704
1.6727051E-4
3.572705E-4
0.0010296411
3.0964112E-4
-0.0010027295
-1.3272949E-4
7.096411E-4
-8.227295E-4
7.270508E-6
-4.8510008E-4
-0.0021322118
-0.0023693237
-0.0018740649
-0.0024611768
-0.0029406592
-0.0010230298
3.069702E-4
2.8697023E-4
-1.6302979E-4
4.6970214E-5
4.893408E-4
-5.5302976E-4
4.093408E-4
1.2934081E-4
-7.930298E-4
3.6697023E-4
3.6697023E-4
-8.0540037E-4
1.545996E-4
-0.0012301416
-0.0020972535
-0.0021043653
-0.0013691065
-0.003098589
-0.003790442
-0.0024075536
-0.0018946655
-0.0018917774
-8.8414794E-4
2.9585205E-4
0.0010682227
0.0019353345
0.0015200757
5.924463E-4
8.948169E-4
0.0012595581
0.0014842993
0.0010466699
-5.357007E-4
-0.0010680713
-8.5044187E-4
5.919287E-4
-0.0024951831
-0.0039370363
-0.0036988892
-0.003830742
-5.231128E-4
1.868872E-4
0.0010492578
3.6925782E-4
0.0011016284
0.0029711109
0.0011658521
2.1585205E-4
6.2822265E-4
0.0011105932
-3.1940674E-4
-0.0026988892
-0.0011112598
-0.0011460009
-0.0012807422
-0.0018654834
-0.0026125952
-7.0496585E-4
7.874048E-4
0.0011297754
7.52146E-4
0.0012868872
-9.3112794E-5
0.0011716284
4.2399904E-4
3.3399902E-4
0.0029234814
0.003392964
0.0016677051
3.770508E-5
5.300757E-4
2.1007568E-4
-9.992431E-5
-1.9992431E-4
-0.0022670361
-0.0018817773
-0.0024888893
-0.0026583716
-0.0010007422
-9.631128E-4
-0.001287854
-6.802246E-4
0.0014245166
0.0025416284
0.0013263696
4.0874025E-4
9.911108E-4
0.0028005932
0.0026700757
-1.1992432E-4
-0.0021270362
0.0010553345
9.877051E-4
-2.0229492E-4
4.6007568E-4
-2.1992432E-4
-9.422949E-4
-0.0017970362
-5.1940675E-4
-1.5940674E-4
3.1059326E-4
5.329639E-4
4.7533447E-4
0.0018200757
0.002779558
0.0031190405
0.0034708935
0.0036627466
0.0037845997
0.0020817113
6.2408205E-4
-0.0010182885
-0.0012730298
7.697022E-5
-0.0032525123
-0.0029719947
1.4800538E-4
1.6800537E-4
-8.443652E-4
-0.0018091064
-5.214771E-4
-7.038477E-4
-0.0019109595
-0.0054075536
-0.016107336
-0.00477156
0.0041402928
0.0044845166
0.003273999
0.002551111
7.1348145E-4
-7.6518554E-5
2.8348144E-4
-3.6651856E-4
-0.0013512598
-0.0029107423
-0.0030102246
-0.003289707
-0.002306819
-0.0042910427
-0.0016757837
-1.7578369E-4
0.0022413281
0.00236844
0.0021955518
2.2555176E-4
-1.5444824E-4
-1.9444824E-4
0.0010779224
0.001080293
-2.7970702E-4
6.029297E-5
-0.0020968188
-0.0023239306
-0.0017686719
-0.0024357836
-0.0019128955
-0.0013876368
3.123633E-4
9.947339E-4
1.2473388E-4
-0.0014000073
9.999268E-5
0.0019371045
2.471045E-4
-8.6526613E-4
-8.376367E-4
0.0030118458
0.0021689576
0.0018136987
0.0019808107
6.4318115E-4
0.0013679224
6.4029294E-4
-0.002306819
-6.291894E-4
-0.0011739307
-0.0017086719
5.1328127E-5
-0.0016234131
-4.857837E-4
2.442163E-4
0.0022513282
0.0017260694
0.0015908106
0.0020079224
0.0025650342
0.002162146
-2.77854E-4
9.645166E-4
2.145166E-4
-4.47854E-4
-0.0029673364
-0.002946819
-0.003428672
-0.0040205247
-0.0043947487
-0.0040866015
-0.0025537133
-0.0023308252
-0.002267937
-2.77937E-4
0.0013968042
0.0017815455
0.0018462866
0.0017410278
7.633984E-4
0.0018905102
6.3288084E-4
-9.994898E-4
-8.2186033E-4
7.2051026E-4
5.228809E-4
-0.0016718603
-6.9423096E-4
-0.0017289722
-0.0033384545
-0.002737937
-0.0015626783
-0.00198979
-0.0012745312
2.4546875E-4
1.2546875E-4
-6.2690186E-4
0.00233021
0.0044144336
0.0037662867
0.002685769
0.0031952516
0.0025823633
0.002429475
2.694751E-4
0.0017442163
0.0017589575
7.013281E-4
-7.6104247E-4
-1.9104248E-4
7.895752E-5
-1.6104248E-4
-0.0012457836
-2.557837E-4
3.865869E-4
1.8658691E-4
0.0012813282
0.0022084399
0.0026479224
0.0033874048
0.0038992579
0.001853999
0.0016887402
0.0017134815
0.001095852
-8.414795E-5
-9.7651855E-4
-5.888892E-4
7.1348145E-4
6.9585204E-4
-4.4651856E-4
3.4348146E-4
0.0012582226
5.305933E-4
-6.7177735E-4
0.0010805932
0.0028300758
0.0022571874
0.00272667
0.003978523
0.0023556347
0.0033651171
0.002372229
6.045996E-4
3.045996E-4
-0.001097771
-0.0012625122
-4.448828E-4
-4.0725342E-4
-0.0023343652
-0.002321477
-0.002588589
-3.1858886E-4
5.5378175E-4
5.6615233E-4
-3.0384766E-4
4.6152345E-5
5.2852294E-4
1.7852295E-4
0.0015232642
-2.1673585E-4
-2.0673584E-4
-2.4673584E-4
-1.3673583E-4
-1.7673583E-4
-0.0020838478
-0.0013885889
-0.00125333
-7.457007E-4
-7.180713E-4
-0.0021651832
-0.0028846655
-0.0013394067
0.0010529639
0.0018877051
0.0032771875
0.0022542994
0.0032337818
0.0028432643
0.003665117
0.002172229
0.0033217114
0.0020088232
0.0015635644
9.5593504E-4
-1.4406494E-4
-0.0015188062
-0.0012935473
-0.0015282886
-0.0021654004
-9.17771E-4
-3.17771E-4
-9.801416E-4
-0.002749624
7.427466E-4
0.0017174878
3.774878E-4
0.001222229
6.5459963E-4
-0.002784883
-0.0067162183
-0.01424126
-0.001566001
0.0016987403
0.0018334815
0.001025852
0.0019429639
0.0027224463
0.0019695582
0.00212667
0.0015514111
0.0017661523
6.6152345E-5
-0.0012385888
-0.0022657006
1.8429932E-4
8.166699E-4
0.003518523
0.0022956347
0.001750376
0.0018051172
9.674878E-4
-2.2512208E-5
0.001432229
9.545996E-4
-0.001047771
-0.0016725122
-3.325122E-4
-0.0010948828
-0.0014496241
-0.002076736
-0.001511477
-0.0028609594
-4.3333007E-4
4.7904052E-4
1.0904053E-4
7.6141115E-4
2.5141114E-4
-0.0010809595
-4.0333008E-4
8.9904055E-4
8.114111E-4
5.737817E-4
0.001488523
-1.3147705E-4
6.8522946E-5
5.852295E-5
-3.7147704E-4
-0.002338589
-0.0015033301
-5.257007E-4
8.429932E-5
-9.5807126E-4
-9.304419E-4
-4.4189454E-7
-0.0011228125
-8.151831E-4
8.371875E-4
0.0027166698
0.0029861524
0.0016808936
0.0017156347
0.0028751171
0.0011298584
0.0019869702
0.0011717115
-0.0011206592
-0.002277771
-0.0013625122
0.001362229
-0.0017225122
-0.0010948828
4.274878E-4
-0.0017772535
-0.0016519947
-0.0019291064
-0.0013138476
-1.6384765E-4
5.78523E-4
0.0011932642
7.0563477E-4
0.001420376
0.003562229
0.0023693407
5.6171144E-4
3.1711425E-5
-0.0012730298
8.697021E-5
-5.354004E-4
-6.17771E-4
-0.0018025122
-0.0015972534
-2.0725341E-4
-0.0028767358
-0.0047809593
-0.0037728124
-0.0020199243
0.0012048169
0.0010571874
0.0019842994
0.0011066699
-7.957007E-4
7.266699E-4
0.0010390405
8.314111E-4
-2.1858887E-4
-0.0018533301
-5.3330077E-5
-8.457007E-4
-0.0020828126
-0.0012975538
-0.0019046655
-0.0022117773
-0.0023588892
6.934815E-4
-9.6888916E-4
-0.002446001
-2.2600098E-4
-1.6600097E-4
8.4636966E-4
0.0043105935
0.004264817
0.0025819286
0.0027614112
0.0027108935
0.0011132641
0.0016080054
1.4800538E-4
9.0037595E-4
-0.0019367358
-0.001811477
-0.0019185889
-4.5095946E-4
8.8141114E-4
4.3378174E-4
1.3781739E-5
2.6378175E-4
0.001568523
0.0023856347
0.0016403759
0.0025474878
0.0036693409
0.0022964526
0.0012111939
4.6356444E-4
-9.188062E-4
-0.002405918
-0.0025130298
-9.954004E-4
-0.0015901416
-0.0034419945
-0.0022991064
-0.002678589
-0.0024657007
-0.0020928124
-7.3518313E-4
3.4816894E-5
0.0015895581
7.9192873E-4
0.0019090405
0.0015037818
0.001428523
0.0031080053
0.002677488
0.001362229
-0.0012025122
-0.002599624
-4.2199463E-4
-0.0013467359
-0.0021438478
-0.0013985889
-0.00157333
2.2666992E-4
3.2666992E-4
1.2666993E-4
-2.0333008E-4
5.590405E-4
0.0010114111
-1.5858887E-4
3.3141114E-4
0.002208523
0.0012732642
0.0011780054
-0.0018467358
-0.0017114771
-0.002098589
-8.409595E-4
-0.0010733301
-0.0014480713
-0.0012728125
-3.628125E-4
-6.651831E-4
-9.875537E-4
-0.0010799243
-2.1992432E-4
0.001414817
0.0013495581
5.819287E-4
0.0036837817
6.0615235E-4
0.004108005
0.004402229
0.0026517115
3.1171142E-4
-0.003317771
-0.0012825122
-0.0011348828
-0.001459624
-0.0011443653
-0.0020614772
-0.0022685889
-0.0019357007
-0.0017404419
8.719287E-4
0.00126667
0.0021037818
0.0018785229
-3.1147705E-4
-5.5384764E-4
0.0013308936
0.0013956347
-0.001891477
-0.002148589
-0.0031280713
-7.804419E-4
4.419287E-4
2.5192872E-4
0.0013366699
7.190405E-4
-1.0959473E-5
-6.333301E-4
-0.0027428125
-0.003022295
-0.0016370361
-0.0014417773
1.0822266E-4
2.9822264E-4
-2.6177734E-4
0.002667705
0.0025148168
4.971875E-4
0.0014819287
0.0021190406
0.0016337817
0.0017385229
-3.7384767E-4
-0.0037657006
-0.0023728125
-0.003052295
-0.0012070361
1.5296387E-4
3.5296386E-4
-0.002624148
-0.0022612598
-9.5363037E-4
-0.0015783716
-2.483716E-4
-0.0011307421
-0.0016954833
-0.0022425952
-7.849658E-4
7.374048E-4
-9.949658E-4
-0.0027744481
-0.00226156
-0.0024586718
-0.015828455
-0.00705979
-0.0011645312
4.0783937E-4
-2.6216064E-4
-0.0016069019
-0.0026463843
-0.0025734962
-0.0031329785
-0.004567202
5.2516843E-4
0.0040370217
0.003106504
0.0037183568
0.0025354687
4.7783935E-4
0.0030673218
0.001802063
5.644336E-4
8.268042E-4
-1.331958E-4
-0.0019803075
-0.0015950488
-0.00132979
7.6258054E-4
-8.9979003E-4
6.7258056E-4
0.0021896923
-2.1030761E-4
7.92063E-4
0.004053916
0.0020510277
-1.2897217E-4
4.7339842E-4
-4.7897216E-4
-7.713428E-4
8.5102784E-4
1.3102783E-4
-9.313428E-4
-9.237134E-4
-0.0020308252
-0.0018855664
-0.00444979
-0.0056363842
-0.0036782373
-0.0017229785
-0.002872461
-0.0029119432
-0.001979055
-0.0031785376
4.8383302E-4
0.0028733155
0.0036451684
0.0034770216
0.0040188744
0.0038007274
0.0038325805
0.002862063
0.0010944336
0.0020515453
0.0018362866
-1.7371337E-4
-0.0021708251
4.315454E-4
0.001103916
-0.0013908251
-0.0026403076
-0.0015150488
-8.374194E-4
0.0016573218
0.0022744336
0.0014591748
0.0018862867
0.0021333985
0.0023205103
0.0018552515
0.0010476221
6.0999265E-4
8.9992674E-5
-1.00007324E-4
8.223633E-4
0.001989475
4.6184572E-4
-0.0035300073
-0.0018747485
-0.0010171192
-6.594898E-4
-0.0014642309
-3.8660158E-4
0.0012081397
0.0024352514
0.0014199927
0.0022171044
0.0016218458
0.0022489575
0.00297844
0.0026355518
0.0025726636
0.0024397755
0.0014645166
-5.07854E-4
-0.0011325952
-7.3496584E-4
-0.0022620775
-0.0042863013
-0.0033357837
-0.0025928954
-0.0034547485
-0.0017494897
2.8051026E-4
0.0018452514
0.003034734
0.0012894751
0.0025865869
0.0032060693
0.0018931811
0.0013279223
0.0015726635
0.0011374048
0.001252146
1.5214599E-4
-0.0012225952
-0.002009707
-0.0029691895
-0.0014139307
8.3843997E-4
-8.156006E-5
-0.0022486718
-0.0023757836
-5.181543E-4
0.0015965869
0.0031560694
0.0016108105
0.004967405
0.0067887404
0.0050153346
0.004329558
0.0027190405
0.002908523
0.004110376
0.0026174877
0.001582229
-6.401416E-4
-0.0038419946
-0.0077557005
-0.016967854
-0.0051944484
-0.0131147485
-0.011220308
-0.0020474195
0.0016473217
0.0024344337
0.0018091748
0.001183916
0.0012486572
9.910278E-4
6.7339843E-4
0.0028728808
0.0035147339
0.0020218457
4.8421632E-4
-3.9815428E-4
-0.0010705249
-3.705249E-4
0.0010318457
7.942163E-4
-2.1578369E-4
-6.181543E-4
9.542163E-4
0.002321328
0.00260844
0.0023755517
0.0027750342
0.0032445167
0.0048287404
0.004882964
0.003884817
0.0041590407
0.003258523
0.0019856347
0.001390376
0.0047746
0.004006453
0.0020635645
6.3593505E-4
-0.0017788062
-0.0030982886
-0.004070142
-0.0014748828
-0.0026843653
-0.0016491065
-0.0021462182
-0.0027957007
-6.580713E-4
0.0019090405
0.003318523
0.0020856347
0.001770376
0.0014051172
-0.001499624
-0.0023067358
-0.0016714771
-0.0011338476
-0.0010662182
-0.0015409595
-0.002730442
-0.0015151831
6.481689E-5
0.0013195581
0.0036114112
0.0032208934
0.0010932642
5.456348E-4
6.380054E-4
0.0036998584
0.004314082
0.0032435644
0.0061025294
0.008128606
0.0066099414
0.0074536474
0.0073373537
0.008023431
0.009401877
0.009712695
0.010183513
0.011579072
0.011184631
0.01171019
0.014465232
0.016095014
0.01791191
0.019663544
0.013956216
0.0023833276
-0.008905119
-0.009223567
-0.010816756
-0.014111797
-0.013574468
-0.011550027
-0.009770845
-0.012621145
-0.013593816
-0.011239375
-0.007393081
-5.3081054E-5
0.008815366
0.016095148
0.024361009
0.029603463
0.032555398
0.030360222
0.025108453
0.018987717
0.0152651295
0.007951206
0.007854912
0.014529954
0.018819219
0.020423224
0.024349084
0.042744208
0.06287097
0.07223855
0.06964664
0.055732068
0.0376906
0.013473269
-0.003998584
-0.014613626
-0.027458968
-0.04321409
-0.053542405
-0.048916493
-0.037695024
-0.037101183
-0.04244394
-0.05065277
-0.04851449
-0.03045931
-0.012559612
-0.0053162063
-0.002243318
-0.003995171
-0.005641765
0.004100088
0.029702542
0.06016219
0.092191406
0.10740803
0.115540735
0.1216924
0.114622734
0.09696617
0.05134737
-0.015320041
-0.06975814
-0.08654076
-0.0913976
-0.114015564
-0.137397
-0.14429979
-0.12906517
-0.101112835
-0.06452433
-0.03551575
-0.014863164
0.0106800245
0.03125722
0.032299154
0.02899924
0.033635914
0.05557134
0.09142818
0.097463995
0.04563623
-0.011921702
-0.04825342
-0.057383586
-0.06307035
-0.08179637
-0.09042084
-0.075597905
-0.059232812
-0.041633196
-0.022944314
-0.014459356
-0.016039139
-0.023042627
-9.749976E-4
0.019134268
0.032186203
0.048297923
0.051831495
0.015468907
-0.043548588
-0.046725567
-0.023619056
-0.016038839
-0.007342544
-0.013192845
-0.01858211
-0.016504264
-0.0023113745
0.0043328493
0.012933149
0.004417373
-0.02897271
-0.05350102
-0.047720373
-0.032662306
-0.009310754
0.01799614
0.03909941
0.04345691
0.038960177
0.019401815
-0.012848486
-0.021937234
-0.017834129
-0.011942058
-0.003603911
0.00121083
-0.0046133935
-0.024129253
-0.03637304
-0.03540446
-0.0450467
-0.036912855
-0.022783974
-0.015341387
-0.0084274635
7.949072E-4
0.0045391307
0.008195207
0.008681284
0.010152102
0.012822403
0.014307444
0.014602485
0.012210415
0.009481233
0.011566792
0.011612351
0.011980281
0.0122982105
0.013198511
0.013931181
0.013191482
0.012319412
0.012909712
0.011525271
0.01027846
0.011164019
0.010547207
0.0049138013
0.0052703954
0.0058493605
0.0051759547
0.003927808
0.0023649195
0.0020720311
0.0049786256
0.0077223317
0.008770779
0.007404485
0.00702582
0.008391897
0.008237974
0.008836421
0.01027961
0.012407539
0.016249692
0.016861845
0.015269258
0.015859041
0.013951711
0.010022529
0.0016772705
-0.0054293238
-0.0062282886
-0.0073719947
-0.0107951835
-0.011843113
-0.013495783
-0.013348455
-0.010541643
-0.009170091
-0.004424314
-0.0014390552
0.005007539
0.011925469
0.015042881
0.015180293
0.015750075
0.014917488
0.010310676
0.0069520115
0.0024691236
-0.0026603588
-0.009078806
-0.013761477
-0.012991778
-0.014476819
-0.017521342
-0.013101643
-0.009742461
-0.007436167
-0.00347802
-0.0015427612
8.596094E-4
0.006348574
0.012488875
0.0138815455
0.011257105
0.010410293
0.010693481
0.006242446
0.0015271875
5.795581E-4
0.0018842993
2.0429931E-4
-0.0010580713
-0.0025651832
-0.005674148
-0.0070554833
-0.0071668187
-0.004018672
-0.0019957838
-0.0049623777
-0.003874231
0.0012905103
-0.0039413427
0.009469475
0.007733181
0.0036950342
-0.001649707
-0.005656301
-0.006667637
-0.0064189723
-0.0042031957
-0.0024003077
-0.0023874193
-0.0014421607
9.0020994E-4
0.0013849512
0.0011696924
8.9206296E-4
-6.5030763E-4
-3.076172E-7
0.001102063
7.744336E-4
0.0013391748
0.001163916
0.0022110278
0.0043552513
0.0037971046
0.0019442163
0.0012589575
9.895752E-5
-9.634131E-4
1.6658692E-4
-5.057837E-4
-4.581543E-4
4.442163E-4
1.5421631E-4
0.0012289576
8.413281E-4
-3.786719E-4
-9.310425E-4
0.0023560694
0.004780293
0.005616887
0.0048511107
0.0039529637
0.0031524464
0.00420667
0.005123264
0.0030427466
9.5511717E-4
4.974878E-4
-9.948828E-4
-0.0020419946
-8.9436525E-4
-6.8673585E-4
7.156348E-4
-0.002321477
-0.0016062183
-7.185889E-4
-0.0012033301
-8.457007E-4
0.0010266699
0.0023237818
0.0023208936
0.002800376
0.0033198583
0.003279341
0.0023664527
9.4882323E-4
0.0013935645
5.0593505E-4
9.0830564E-4
-7.0406497E-4
-0.0011488062
-0.0027282885
-0.0020254003
-0.0013301416
-0.003349624
-3.9199463E-4
0.0012627466
3.7511718E-4
0.0016098584
6.82229E-4
0.0024793409
8.717114E-4
-0.0010406591
-0.0016454004
-0.0013401416
0.0011745996
9.0697024E-4
4.1934082E-4
-0.0014654004
-0.0012301416
-0.003069624
-0.0047638477
-0.00292333
-0.002270442
-0.0024575538
-0.0025646656
-0.0023117773
-6.0414796E-4
8.1822264E-4
-1.4177735E-4
4.3059327E-4
9.829638E-4
0.0020000758
0.0022071875
0.00269667
0.0026337816
0.0015885229
0.0013432641
5.6563475E-4
-0.0017191065
-0.003378589
-0.003860442
-0.0030699244
-0.0035817774
-0.004566001
-0.0044302247
-0.0025373364
-1.6733643E-4
3.0266357E-4
-0.0014920776
-0.0013968189
-0.0013815601
-0.0016563013
-3.9867187E-4
-0.0010110425
-1.7104248E-4
8.413281E-4
-1.0867188E-4
-4.8671875E-5
-0.001543413
-0.0017881542
-3.081543E-4
-0.0011005249
-0.0024176368
-0.0013323779
-7.747485E-4
-0.0013794898
-5.918603E-4
0.0018128809
-3.3711913E-4
-4.5948973E-4
-6.7186035E-4
0.0017128809
7.2525145E-4
3.3525148E-4
0.0014599927
0.0013547338
-4.0763672E-4
-0.0014423779
-9.6474856E-4
-0.0017794898
-0.0010018604
-0.0016166016
-0.0019537134
-0.0014384546
-0.0018531958
-0.0032426782
-7.6504884E-4
0.0017896924
0.001122063
0.0018668042
0.0028062866
0.002965769
0.002492881
0.001837622
2.2762208E-4
-4.8474854E-4
1.3525147E-4
0.0010676221
-0.0021494897
-0.0034313428
-0.0028408251
-0.0027603076
-0.0034621607
-0.0010345313
-1.0453125E-4
-0.0030240137
-0.0030834961
1.5650391E-4
9.888745E-4
0.0018959864
0.003947839
-1.4216064E-4
-0.003201643
-0.00875009
-0.014175132
-3.2513184E-4
0.0032643506
0.0013290918
7.414624E-4
9.33833E-4
9.0620364E-4
-4.06167E-4
-0.0014609082
-0.0027103906
-0.002749873
4.1249755E-4
0.0012372388
0.0020143506
0.002963833
0.0030133154
0.0020304273
7.3279784E-4
0.0024299098
0.0022070215
-1.9297852E-4
7.3939207E-4
0.0013041333
8.41333E-5
-0.0012306079
7.717627E-4
8.441333E-4
-0.0019729785
-9.153491E-4
-4.2771973E-4
-4.7009034E-4
-0.0014348315
-1.1483154E-4
9.3753904E-4
4.0990967E-4
8.222803E-4
7.446509E-4
0.0015593921
0.002026504
0.0024036157
0.001658357
0.0016730982
0.0012578394
-2.7216066E-4
-0.0023892724
-0.0015340137
-2.2401367E-4
-0.0010963843
-0.0025634961
-0.0014382373
-0.001030608
0.0014641333
5.1650393E-4
0.0028659864
0.0016607275
5.7309814E-4
0.0038149513
0.0017696924
0.0020468042
0.002523916
0.0021810278
-2.3897216E-4
-0.002306084
-0.0030255665
-0.003155049
-0.003446902
-0.0020740137
-0.0015687549
-0.0036306079
-0.0027000904
-6.8246096E-4
-8.748315E-4
-1.4831543E-5
-3.7483155E-4
8.516846E-5
0.0021922803
0.0015070215
0.0013617626
0.0018888746
0.0020159862
6.6835695E-4
3.3835694E-4
-9.1643065E-5
-7.1401364E-4
-0.0022911255
-0.0020682374
-0.0015829785
-0.0016777198
-3.7771973E-4
-6.5009034E-4
-0.0018972021
-0.002044314
-7.666846E-4
-2.4668456E-4
0.0011880567
0.002907539
0.003989392
0.0037612452
0.0018659864
-4.1638428E-4
7.959863E-4
-6.963843E-4
-0.0012511255
1.988745E-4
4.887451E-5
-7.034961E-4
-7.258667E-4
-8.682373E-4
-0.002025349
-0.0013900903
-3.4009034E-4
-0.0019072022
-0.0015819434
0.0013727979
6.151685E-4
0.0011899096
0.0019870214
0.0014717627
8.341333E-4
0.0013888745
0.0011536158
-0.0017011255
-0.0012958667
-2.958667E-4
-9.282373E-4
-0.0021353492
-0.0010277197
-5.6009035E-4
-2.0009033E-4
-6.624609E-4
-4.2483155E-4
-3.5483154E-4
-0.0012695728
-7.519434E-4
-6.1943356E-5
0.0011727979
0.0018775391
0.002014651
0.0011393921
7.217627E-4
-4.906079E-4
-7.729785E-4
-0.0015777197
-0.0012224609
-0.0013672021
-7.3957274E-4
-0.001694314
-0.0012590552
-0.002006167
-0.0017009082
-0.0014356495
-5.7802E-4
-6.403906E-4
4.0197998E-4
0.0017567212
0.0012514624
6.43833E-4
0.0016285742
0.0036504273
0.0012251685
3.0516845E-4
0.0010075391
-0.0019695729
-0.0020966846
-0.0020737965
-0.0012485376
-9.809082E-4
-0.0015256495
-0.0028751318
-0.0026446143
-0.0016793555
-0.003018838
-0.0018959497
-6.283203E-4
7.240503E-4
6.564209E-4
0.0011711621
0.0018859033
0.0032053858
0.0036172387
0.0028667212
0.002163833
9.562036E-4
0.0010285742
2.1857422E-4
-8.1379636E-4
-3.337964E-4
2.0620361E-4
-6.16167E-4
-0.0023932788
-0.0019603907
-0.0014751318
-0.003556985
-0.001401726
-0.0017864673
-0.0034983202
4.0405028E-4
0.0014087915
-0.010194397
-0.0028338793
0.0015008618
6.732324E-4
-5.691382E-4
-0.008185215
-0.012665515
-0.010106333
-0.008372409
0.0017823315
0.0024094433
0.0013841846
0.0025812965
0.0025984081
0.0018531494
0.0032626318
0.0047668554
0.0053234496
0.0060924147
0.0047666384
0.004810862
0.0049050855
0.004179309
0.0019164209
3.6420897E-5
-1.635791E-4
-7.359497E-4
-0.001640691
-4.8306154E-4
-5.3543213E-4
-0.0010178027
0.0011145679
-2.6543214E-4
-8.5432126E-5
0.001629309
0.0011740503
6.764209E-4
9.087915E-4
0.0018735327
0.001398274
9.306445E-4
0.0013953857
0.001710127
0.0011548682
0.0010572388
-5.7513185E-4
1.2486817E-4
7.372388E-4
1.6723877E-4
-3.9513185E-4
-3.7513184E-4
-0.0011298731
-6.3224364E-4
4.9012696E-4
0.0010024975
7.9486816E-4
9.872387E-4
5.896094E-4
0.0011943505
8.067212E-4
0.002223833
0.0023009449
5.8331544E-4
-2.9668456E-4
4.3568603E-4
-1.04313964E-4
-7.431397E-5
-5.066846E-4
-0.0014514258
-4.737964E-4
7.2857423E-4
4.5094482E-4
9.7331544E-4
-4.5905518E-4
-0.0014437964
-5.3796386E-5
0.0015209449
0.0029604272
0.0024075392
0.003419392
0.0028788745
0.0020159862
-2.0401368E-4
-6.863843E-4
-2.6638428E-4
9.459863E-4
7.483569E-4
9.2072756E-4
3.0072755E-4
0.0012654688
0.0015802099
5.1258056E-4
5.0495117E-4
0.0012496924
8.02063E-4
8.206299E-5
4.844336E-4
0.0018691748
0.0010015455
0.0020386572
0.0023357691
0.0018928809
0.0035047338
0.0020618457
-9.605249E-4
5.718457E-4
0.0014165869
-0.0018281543
-0.0041723778
-0.0010547485
-0.0015994897
-0.0020766016
-0.004290825
-0.004102678
-0.004266902
-0.0029563843
-0.0012811255
-0.0020482372
5.1762694E-5
0.0019588745
4.6124513E-4
3.1124512E-4
-0.0014034961
-0.0031929784
-0.003262461
-0.003904314
-0.010417502
-0.012155432
-0.0011601733
2.3982667E-4
8.521973E-4
4.8456786E-4
-0.0043596555
-0.011635215
0.0033642675
0.0036261205
0.003335603
0.0047998265
0.005136421
0.0058353855
0.0042896094
0.0026067211
0.002533833
9.3620364E-4
0.0018409449
0.0022680566
6.9042726E-4
-0.0010019434
-3.8431396E-4
6.6805666E-4
0.0019051684
0.0016199097
7.822803E-4
7.9465087E-4
9.770215E-4
0.0015417627
0.0024188745
0.0012436158
0.0031430982
0.0018578394
0.0017925806
0.003242063
0.0027015454
0.001133916
0.0015586573
6.3102785E-4
-0.0015337134
-0.0012684546
-0.0022955665
-0.0018903076
-0.00265979
-0.0016845312
5.46875E-6
-6.7690184E-4
6.9546874E-4
2.9546875E-4
5.8783934E-4
0.0010102099
-8.979004E-5
-1.6979004E-4
0.0014949512
0.0018496924
1.7969239E-4
-1.9030762E-4
-0.0026074194
-0.0013521606
-9.2453125E-4
-0.0016592725
-0.0023463843
-0.0018011255
-0.0029306079
-0.0024977198
-0.0017124609
-0.0013072022
2.2279785E-4
8.0516847E-4
0.0014999097
-4.0090334E-5
0.0023770216
0.003226504
0.0031459862
0.0022530982
0.0010454687
5.9783936E-4
-0.0017069018
-5.1927246E-4
5.7309814E-4
3.8546874E-4
-7.5690186E-4
-0.0026040138
-0.0011787548
-0.0033882372
-0.0055248314
-0.0019819434
-0.004616167
-0.014731209
0.0010211621
0.0026082739
0.0034201269
0.005366721
0.004420945
0.0026604272
0.004394651
0.0031941333
5.965039E-4
1.265039E-4
4.4887452E-4
7.712451E-4
-4.011255E-4
-0.0021482373
-0.0016829785
1.6702148E-4
-0.0014577197
-8.700903E-4
-2.0090332E-5
0.0013446509
7.370215E-4
0.0011617627
0.0034536158
0.0025807275
0.0017254688
0.002714951
0.0041891746
0.0030886573
0.002135769
-0.0010466016
-1.5660156E-4
-8.2897214E-4
-0.0014037134
-0.0026208253
-0.0031003077
-0.0037121607
-0.0026416432
1.2835693E-4
6.2072754E-4
2.8072755E-4
0.0010530981
0.0012078393
0.002414951
0.002322063
0.0019691747
0.001623916
0.0012586572
0.0021257692
0.0018005102
7.4288086E-4
0.001227622
3.8999267E-4
-0.002117119
-0.002244231
-0.0022713428
-0.0032808252
-0.0018755664
-6.5566404E-5
2.044336E-4
-4.97937E-4
8.206299E-5
4.744336E-4
3.968042E-4
0.0014115454
-7.845459E-5
2.315454E-4
0.0014662866
-0.001066084
-0.0012808252
-0.0028103075
-0.0019274194
-0.0026769019
-0.0027163844
-0.0010287549
-7.111255E-4
-0.0018558668
-8.082373E-4
-0.0015429786
-9.553491E-4
3.346509E-4
-6.6771975E-4
4.3465086E-4
8.465088E-5
0.0011893921
0.0026488744
0.0019359863
-0.0020611256
-0.0027106078
-9.329785E-4
-9.053491E-4
-0.0013600903
-0.002137202
-0.0029766846
-0.0033861669
-0.0019132788
-0.00182802
-0.0032275023
-0.0029869848
-0.0026340967
4.382739E-4
0.0016030151
0.0010353858
7.7775633E-4
0.0025648682
9.872387E-4
2.5723877E-4
-6.851318E-4
-6.513183E-5
2.2486817E-4
-3.3513183E-4
-3.7750244E-4
4.0486816E-4
-3.9750244E-4
-0.0013022437
-0.0017769849
-9.893555E-4
7.8301516E-4
-8.793555E-4
1.5064453E-4
-3.3935547E-4
0.0010330151
0.0033024976
-1.17502444E-4
1.0249756E-4
0.0010048682
1.9486816E-4
0.0012396093
0.0017243506
0.0013590918
0.001323833
-0.0017109083
-0.00203802
-0.0016327612
-0.001979873
-0.0010322436
-0.0012969848
-0.0034088378
-0.001713579
-0.0010559497
1.440503E-4
6.964209E-4
0.0012111621
0.0017359033
0.0023530151
0.003404868
0.0019519799
0.004256204
0.002885686
0.0011804273
0.0017551684
-8.7720214E-4
-0.002014314
3.8805665E-4
1.4805664E-4
-0.0013166845
-2.1668457E-4
3.3331543E-4
-0.0010290552
-3.3905517E-4
5.0944825E-5
-7.014258E-4
2.8857423E-4
-5.737964E-4
0.0020833155
0.0040051686
0.002994651
0.001369392
0.0012841333
0.0020112451
3.4124512E-4
8.8361575E-4
-0.0012611254
-7.034961E-4
2.865039E-4
-0.0013782373
-0.0010506079
-4.829785E-4
-0.0011253491
-0.0010577197
5.446509E-4
0.0011693921
0.0018141333
0.004748357
0.0023854687
0.0026749512
0.0032144336
0.0015191748
-4.431958E-4
-7.955664E-4
5.268042E-4
2.168042E-4
3.468042E-4
5.391748E-4
-0.002047937
-0.002415049
-0.00161979
-6.8216067E-4
5.3021E-4
-6.921606E-4
-0.0040040137
-0.00786772
-0.015817503
-0.0024546143
0.001360127
0.0029796094
0.0040114624
0.0025685742
0.0016033155
0.0022404273
1.4042725E-4
-0.0010719433
-8.04314E-4
-6.8668457E-4
-3.790552E-4
-6.6142576E-4
-1.8142578E-4
8.109448E-4
-0.0010314258
0.0011109448
7.5331546E-4