-0.0030938038
-0.004238027
-0.0066293627
-0.0057883277
-0.006789663
-0.006108628
-0.0032581103
0.0011142603
0.0020013722
0.002458484
0.003950337
0.005799302
0.0059082666
0.0037001197
0.003189602
0.0032690845
0.0018838256
0.0011485668
3.285669E-4
-0.0023285449
-0.00571751
-0.006718845
-0.0056554396
-0.006234404
-0.0040362575
-0.0032857398
-0.0026328515
-0.0018275927
6.247778E-4
0.0029342603
0.0054908544
0.0074145608
0.006785896
0.0058848606
0.0033967139
0.001801455
-5.009155E-4
-0.0020880273
-0.0032175097
-0.0047517335
-0.0054083276
-0.005634922
-0.0044191456
-0.004453369
-0.005069963
-0.0038018164
-0.0036436694
-0.0020207812
0.0019063306
0.0022834423
0.0035952954
0.0050718896
0.005288484
0.005645078
0.003696931
0.002194043
9.664136E-4
2.0641358E-4
-0.0023806982
-0.0027201807
-4.7255127E-4
-0.0015672925
-0.0046615163
-0.00547811
-0.008786557
-0.008312634
-0.0037644873
-5.168579E-4
0.002010254
0.005196848
0.006405813
0.0066271485
0.004761372
0.002488484
0.003670337
0.0029198194
0.0018845606
3.9693117E-4
-8.654395E-4
-7.278101E-4
-9.101807E-4
-0.0022572924
-0.003286775
-0.005093369
-0.0052399635
-0.0031994458
-8.518164E-4
-0.0014665576
0.002380554
0.0036024072
0.0066937427
0.008149819
0.008315896
0.007339602
0.0050461963
0.0042404197
0.003702273
0.0018870141
-5.3535646E-4
-0.0012500976
-0.0028695802
-0.004001433
-0.005468027
-0.005034622
-0.002714104
-0.0026212158
-0.0018559571
2.4042969E-5
0.0025911548
0.0043353783
0.006796714
0.007952791
0.007134126
0.00566072
0.004484944
0.0032944262
0.0018591675
7.815381E-4
-0.0016432031
-0.002100315
-0.003942168
-0.0031016504
-0.0036035033
-0.004427727
-0.005594321
-0.006905657
-0.014783069
-0.0042672926
0.0040545603
0.004688784
0.0069201197
0.0062390845
0.006278049
0.005987014
0.0053936085
0.0031530908
6.309082E-5
-0.001974021
5.383496E-4
1.3834961E-4
-0.0015863916
-0.0025635033
-0.0033429859
-0.0024200976
-0.0016848389
-4.5720948E-4
2.1279053E-4
0.0019499024
0.0033993847
0.0048836083
0.0075673144
0.009798132
0.009036579
0.0072402856
0.0059892503
0.0048334743
0.0013882153
-1.7846679E-6
-5.641553E-4
-0.0010965259
-8.8889647E-4
-0.0023260084
-0.0013307495
-0.0035526026
-0.004466826
-0.002453938
-5.763086E-4
0.0011884326
0.003167915
0.0021850269
0.0057339915
0.006855327
0.0072790333
0.0059479983
0.004119851
0.002106963
0.0017517041
0.0011364453
-8.059253E-4
-4.482959E-4
-0.003570149
-0.003592002
-0.0043162256
-0.0047104494
-0.005749414
-0.0033188965
-0.0022560083
-5.983789E-4
0.002378733
0.005015327
0.0064766626
0.007910369
0.005116963
0.003678816
0.003610669
0.0026901513
9.32522E-4
5.548926E-4
-0.0015298487
-0.002949331
-0.003771184
-0.003463037
-0.0014377784
-0.0035196315
-0.0039814846
-0.0036533375
-0.0015180786
-2.1807861E-4
0.0018566626
0.003958516
0.0058774804
0.0077411863
0.007924893
0.006886228
0.0050928225
0.0027223048
0.0017270459
8.594165E-4
-4.829541E-4
-0.0030124364
-0.00441666
-0.0037285131
-0.004692737
-0.0044369604
-0.0036788136
-0.0029482958
-0.0016330371
7.793335E-4
6.617041E-4
0.0023888159
0.004010669
0.004997263
0.0053738574
0.0052404515
0.005457046
0.0022341576
-8.282129E-4
-8.205835E-4
-0.0023976953
-0.0037095484
-0.0030490307
-0.005345625
-0.0067669605
-0.006768296
-0.0067496314
-0.0049262256
-0.0045804493
-0.0018551904
-6.5756106E-4
0.0015071802
0.0027166626
0.0029761451
0.0046703685
0.0036322216
0.0016569629
-5.054077E-4
-0.0014201489
-8.425195E-4
-0.0036343725
-0.004788596
-0.006117561
-0.0056041554
-0.00613312
-0.008259197
-0.008807644
-0.0055042384
-0.0028737206
-0.0016884619
-7.608325E-4
0.0015439087
0.0031533912
0.0032628735
0.0038347265
0.00483895
0.0040408033
0.002007915
-3.9445556E-4
-0.0024915673
-0.0031410498
-0.005247644
-0.004984238
-0.007777944
-0.016500097
-0.0075438037
-0.0036656568
-0.0028651392
-0.0033846216
5.3774903E-4
0.0011324902
0.002099602
0.005758567
0.007029902
0.0067712376
0.006662573
0.0041244263
0.00418865
0.0011933912
-3.0660888E-4
-0.0027760912
-0.0031455737
-0.0020426856
-9.3505613E-4
-0.003926909
-0.0052635036
-0.0056400974
-0.0061390623
-0.0041309157
-0.003060398
-9.927686E-4
0.002736714
0.0062356787
0.006477014
0.0051836083
0.0027430907
0.0033525731
0.0033220556
-2.3794433E-4
2.6205566E-4
7.3442626E-4
-0.0027350562
-0.00486928
-0.0043635033
-0.004447727
-0.004851951
-0.0071132863
-0.0048175096
-0.0027069922
-0.0018317334
5.7063723E-4
0.0033901196
0.003029602
0.004163826
0.00541042
0.0062593846
0.004001238
0.001655979
2.5597902E-4
-0.0024611328
-0.0043753562
-0.0040972093
-0.005866174
-0.00706751
-0.005014104
-0.005673069
-0.0062920335
-0.005278628
-0.0029981104
-0.0013228515
0.0032566309
0.003718484
0.005325078
0.005664043
0.0060530077
0.005469602
0.0050561964
0.0043004197
7.5279054E-4
0.0012975318
0.0011299023
-0.0021972095
-0.0022143214
-0.002471433
-0.004295657
-0.005422251
-0.003934104
-0.0031535865
-0.0022206982
-0.0011230689
9.1930176E-4
0.0030287842
0.004673008
0.0066343434
0.005763308
0.003505161
0.0034570142
0.0035388672
0.0014836084
-1.263916E-4
4.65979E-4
-0.0011387622
-0.0051953564
-0.0056119505
-0.005138545
-0.00664988
-0.013382551
-0.01062574
-0.001490481
7.4188964E-4
0.0034337426
0.0069450783
0.005874043
0.007597749
0.0060367137
0.0051733083
0.0052799024
0.0029093847
0.0030588673
0.0015636084
-0.0014211328
-0.0021582446
-0.0038100977
-0.00269958
-0.001976692
-0.003878545
-0.004020398
-0.003452251
-0.0012569922
-1.3699218E-4
0.001357749
0.001974861
0.0033967139
0.0056856787
0.006667014
0.0086730905
0.007526797
0.005073391
0.0028028735
7.4524415E-4
-1.3475586E-4
-8.3712646E-4
-0.0012918677
-3.4186768E-4
-0.0011666089
-0.0015313501
-0.0019384619
-0.0014732031
0.001401538
0.0026610205
0.0038228736
0.0038547267
0.0047089504
0.005827915
0.00610688
0.0041711037
0.002780586
0.0021876977
-3.8467287E-4
-0.001339414
-0.0050060083
-0.004190232
-0.003512085
-0.003833938
-0.0052105323
-0.0072142384
-0.007145574
-0.004489797
-0.0028592797
-0.0010816504
-1.816504E-4
9.907202E-4
0.0049973144
0.0060662795
0.006295244
0.0050518382
0.0033313208
0.0021284325
5.208032E-4
-0.0023063086
-0.0026334205
-0.0034652734
-0.0036871266
-0.00416135
-0.005930315
-0.0065416503
-0.0053382446
-0.004432468
-0.0044866917
-0.0022738038
7.985669E-4
0.0024056786
0.003025161
0.004971755
0.00591072
0.0045649437
0.003506797
0.0028762794
0.0010586499
-0.0017760913
-0.0021232031
-0.002600315
-0.0049969093
-0.003998762
-0.004782986
-0.007536692
-0.0064180274
-0.0056769922
-0.005895957
-0.011641516
-0.0048957397
0.0016490015
0.006850337
0.006109302
0.0058182664
0.0073519726
0.004486196
0.0027356788
0.0025827906
0.002862273
0.0010446436
-0.0023324683
-0.0024695802
-0.0029190625
-0.003358545
-0.0032780273
-0.0041298806
-0.002296992
-0.0033264747
-0.0015812158
0.0014735254
0.0030030077
0.0053696022
0.0052561965
0.004078049
0.0054646437
0.003334126
0.0017188672
8.8867186E-5
-3.5113283E-4
-0.001355874
-0.0015506152
-0.0031700977
-0.0038219506
-0.0035938036
-0.0034756567
-0.003225139
-0.0036869922
-0.0015917334
-2.117334E-4
0.0019553783
0.004859602
0.0068709375
0.0074146437
0.00747835
0.0060573146
0.0056539085
0.005550503
0.0012052441
-0.0029342382
-0.004658462
-0.0053450563
-0.005874021
-0.007387727
-0.008736175
-0.010066993
-0.00868544
-0.007941516
-0.0067528514
-0.0035447045
-0.0015594458
-2.294458E-4
6.629248E-4
0.0011252954
0.0013900367
0.00424426
0.002481372
9.837426E-4
0.0012184839
7.908545E-4
1.4085449E-4
9.085449E-5
-0.0011638867
-0.0026309986
-0.004927593
-0.0039994456
-0.0043636695
-0.0028531519
-0.0019402637
8.5210695E-4
0.0050287014
0.0050552953
0.0062342603
0.0057032253
0.0066845603
0.0061135255
0.00572249
0.0039443434
-0.0027451392
-0.0029946216
-0.003234104
-0.0032035864
-0.0029830688
-0.0023001807
-0.0035520338
-0.0030315162
-0.00478574
-0.0043199635
-0.002097075
-6.294458E-4
5.329248E-4
0.0025300367
0.00449426
0.0069455956
0.006746931
0.0075706374
0.007624343
0.0033938256
8.961963E-4
-6.861743E-4
-0.002553286
-0.005802251
-0.004104104
-0.004888328
-0.0045325514
-0.004806775
-0.004943369
-0.0044275927
-0.004301816
-0.0026289283
-6.1129883E-4
0.002185813
0.004147666
0.0057766307
0.005745596
0.0039074486
0.0026969311
0.003958784
0.0029282665
0.0015730078
-6.9921875E-6
-8.6992186E-5
-0.0025741041
-0.0025612158
-0.0011235864
-8.45957E-4
-0.0018206983
-0.00260781
-0.002194922
3.9744872E-4
0.0034693019
0.005535896
0.005674861
0.007208567
0.0045527904
0.0013875318
-0.0015572095
-0.0031866918
-0.0043109157
-0.0048651393
-0.0055217333
-0.005950698
-0.004904922
-0.0036667748
-0.0022638866
7.984839E-4
-7.238867E-4
2.9611329E-4
-0.001348628
-0.0014133691
-7.1573973E-4
0.0013190014
0.0017637426
0.004367966
0.0033374487
0.0036793018
0.001194043
9.404297E-5
-0.0027354395
-0.0053420337
-0.0050786277
-0.0061875926
-0.0059665577
-0.0060855225
-0.0061744875
-0.006995823
-0.007027158
-0.0065884935
-0.0069898292
-0.004121682
-8.840527E-4
0.0015106885
0.0037325416
0.005519136
0.0067904713
0.0069418065
0.0062707714
0.0047249952
0.0046392186
0.0023963305
-1.4366943E-4
5.687012E-4
-0.0015960401
-0.0040878933
-0.0030673754
-0.0024644872
-0.0039763404
-0.0033158227
-0.0027153052
-0.002512417
6.499536E-4
0.0015946948
0.004981289
0.0065426244
0.007726331
0.009537148
0.0072808545
0.0053874487
0.0033869313
2.4693116E-4
5.8930175E-4
0.0014640429
0.0013687842
0.0010611548
8.435254E-4
0.0028930078
0.001867749
0.0049119727
0.00815805
0.005534644
-0.0042595803
0.004937014
0.005915979
0.007749685
0.009058133
0.007891838
0.004186062
-0.0011386792
-0.0030181615
-0.005384756
-0.0067260913
-0.0049526854
-0.006954021
-0.008270098
-0.008968545
-0.0058075096
-0.0036693627
-0.003981216
-0.0033206982
-0.0014054395
0.0015893017
0.0028987841
0.008324861
0.013707532
0.016177315
0.0134499855
0.012127915
0.011303474
0.0094419215
0.006220886
0.0012956274
-0.0026114844
-0.008047561
-0.016207343
-0.017041868
-0.014126909
-0.012174839
-0.011300398
-0.008656475
-0.007480181
-0.0063391454
-0.0044933693
-1.2336914E-4
0.0013813721
0.0016361133
-0.0011386279
1.3720703E-6
7.837427E-4
-0.0015709986
-0.0024781104
-0.0016028516
-9.0522214E-4
-2.9522215E-4
0.0028542602
0.0044484837
0.0021155956
0.0017403369
0.0016150781
-0.0011896631
-0.0012044043
0.003065078
0.007951154
0.009039602
0.0077433083
0.008961756
0.008137832
0.007891538
0.015731322
0.021247698
0.019309333
0.018146228
0.01590601
0.01211394
0.0097747585
0.0038766114
6.4898195E-4
0.0063879467
0.019187212
0.025497813
0.017172337
-0.0063166283
-0.020660635
-0.015630417
-0.007814123
-0.012644424
-0.022665542
-0.029417995
-0.02924045
-0.024698678
-0.020132685
-0.01979432
-0.015904104
-0.011569663
-0.0051262574
0.0010361132
0.0040879664
0.0032374486
0.0018421899
-6.901807E-4
-0.0024672926
0.0027321898
0.0056387843
0.005807749
0.0043119728
0.0037138257
0.009422273
0.007575979
0.003817832
0.0026573145
0.0035791674
-0.0011455737
-0.0034774267
-0.0029269091
-0.0054035033
-0.003102986
0.002134126
0.011712056
0.021258432
0.025679033
0.025287263
0.029609717
0.03048454
0.02334803
0.010621218
-0.0026358936
-0.014390935
-0.016903087
-0.011708647
-0.0075223534
-0.013202654
-0.017417178
-0.017291702
-0.018680967
-0.020897344
-0.013780015
0.0040418385
0.025512438
0.03919571
0.043693207
0.04637781
0.052061383
0.041851766
0.014386809
-0.0071645263
-0.019586163
-0.026046762
-0.031213958
-0.0397896
-0.0514108
-0.054461483
-0.04167187
-0.033648543
-0.036834706
-0.035978492
-0.029923318
-0.01650547
-0.0036773242
0.0045168996
0.015124312
0.024240172
0.019009436
0.01615922
3.2921875E-4
-0.0045650047
0.0030444774
0.024752708
0.041573092
0.04739244
0.05118364
0.053271953
0.041722335
0.020086342
-0.001890769
-0.029833222
-0.0468202
-0.044570066
-0.02986489
-0.011400449
-0.0036923022
0.009938516
0.03153808
0.043575577
0.04147596
0.014681001
-0.017653523
-0.037259683
-0.040887695
-0.03252963
-0.030606827
-0.023320315
-0.014525357
-0.007076692
0.005802273
0.020496279
0.03766481
0.05028364
0.052007213
0.037675742
0.011241301
0.009209748
-0.0062492164
-0.037165377
-0.044525243
-0.054365925
-0.0645898
-0.037988327
-0.0062572923
0.011538266
0.009909084
0.0024461963
0.006195161
0.034544207
0.06506808
0.07664751
0.07243509
0.05187866
0.015016074
-0.021802673
-0.032274608
-0.046911586
-0.0664602
-0.067853555
-0.050622385
-0.014347427
0.025020802
0.039084073
0.012372005
-0.009668813
-0.03514023
-0.0704707
-0.08169673
-0.024894953
0.04108306
0.057753224
0.045575462
0.039098732
0.03527015
-0.0074835545
-0.046810534
-0.06409203
-0.063391164
-0.044761032
-0.031470597
-0.035019644
-0.038138174
-0.04092619
-0.04447605
-0.04844777
-0.038056303
-0.019637937
-2.87937E-4
0.018478958
0.02819667
0.027614383
0.004538606
-0.0200554
-0.017299924
0.0076937815
0.01064697
0.0038088232
0.018938089
0.049704548
0.06869027
0.035181694
-0.0011630494
-0.0054896437
0.008666433
0.003878286
-0.0042459373
-0.018052831
-0.021991579
-0.034790628
-0.03786916
-0.024907388
-0.019166652
-0.018093547
-0.007887254
0.0046469704
0.0251952
0.042880327
0.057420492
0.060027767
0.054518454
0.026471423
-0.003068059
-0.028658142
-0.055863567
-0.02744891
0.02256221
0.07878875
0.12887412
0.13745558
0.11073405
0.06631267
0.0016974097
-0.077354394
-0.10450154
-0.10729816
-0.10083345
-0.0863137
-0.08332447
-0.07845101
-0.05956829
-0.035759706
-0.013602378
-0.0018371191
-5.994897E-4
0.007774216
0.03038904
0.046403646
0.057273813
0.04676079
-0.0045734327
-0.04567567
-0.054808725
-0.040114366
-0.021973113
-0.014728154
-0.022116901
-0.031004097
-0.018823361
-9.0573245E-4
0.0072179735
0.009728791
0.01152435
0.017218875
0.016491028
0.013943699
0.010836887
0.019728523
0.029943347
0.036007136
0.02929959
0.0022667018
-0.01375597
-0.0055225636
0.010540625
0.01811752
0.018636785
0.004411008
-0.00989981
-0.018406704
-0.012424634
-0.011792564
-0.0072062695
0.0037655835
0.006304548
0.0018692896
-0.0027501928
-0.0067815282
-0.004645752
-0.0058847168
-0.009875535
-0.0130658345
-0.015093247
-0.012543547
-0.009401995
-0.009170442
-0.0024275538
0.011358005
0.025798606
0.033252914
0.025703514
9.658838E-4
-0.014871528
-0.020275535
-0.021291912
-0.02261303
-0.018622294
-0.0127725955
-0.007326301
-0.0068376367
-0.0032071192
-0.0013318603
-6.186035E-5
-3.4186034E-4
0.0016228808
0.0036047339
0.0068560694
0.008522146
0.0066334815
0.0049700756
0.008366153
0.007909859
0.0109030465
0.012190976
0.003100459
3.70459E-4
-6.4191164E-4
-0.002781394
-0.0065327296
-0.003072212
0.0025249
0.0060638646
0.011791795
0.012812095
0.007675801
1.9580078E-4
0.0010481714
0.0078018773
0.018278772
0.024134632
0.029717086
0.03179665
0.028576734
0.020310739
0.006622075
-0.011173484
-0.021089861
-0.010503049
-0.009351497
-0.0059904614
-0.0074141673
-0.010847356
-0.007571062
-9.5343264E-4
0.004530791
0.006409756
0.011045315
0.021564063
0.026087034
0.018393928
0.005992893
-0.0040389597
-0.006167925
-0.0057768896
-0.0061158547
-0.008131932
-0.006753267
-0.009634084
-0.015783867
-0.015251279
-0.01407632
-0.012314251
-0.0124845505
-0.013697222
-0.0124051515
-0.010095969
-0.0054225633
0.0015221777
0.008980625
0.013120925
0.0150883375
0.019067602
0.02148398
0.017890874
0.0145259155
0.016988069
0.020612076
0.01841897
0.0060779345
-0.008198142
-0.020392148
-0.022713266
-0.020657273
-0.017804168
-0.016736321
-0.014873733
-0.00966455
-7.669214E-4
-6.1929197E-4
-0.003621145
-0.0033806274
-0.00269011
-7.8248046E-4
9.0989016E-4
-7.624805E-4
-0.001134851
-0.0014395923
3.504077E-4
-0.0027890748
-0.0025261866
-0.004952781
-0.006684116
-0.005793081
-0.0056096753
-0.006521011
-0.007744717
-0.0065060523
-0.0017507934
0.0041310596
0.004785283
0.0038571362
0.005806101
0.0071074367
0.005334031
0.007135366
0.0071990723
0.00910752
0.0085935965
0.0078073023
0.006468638
0.0032181202
-0.0016366211
-0.0019337329
-0.0048279567
-0.0064169215
-0.0066782567
-0.0045124805
-0.0020595924
-0.0023067042
5.556665E-4
0.0020827784
0.0038946313
0.006485967
0.005192561
0.0042067845
0.003968638
0.0023457494
3.1574952E-4
-0.0027037328
-0.00855981
-0.0076635154
-0.0016782568
-0.00404011
-0.0063890745
-0.0068604103
-0.007161746
-0.0064007104
-0.0021078223
-0.0012725635
-4.2563475E-5
0.003236919
0.0046111424
0.005700107
0.0077138133
0.008712261
0.009110708
0.007554414
0.0068957494
0.0054423437
0.0027918261
6.541968E-4
-0.0016405444
-0.00712188
-0.010955068
-0.010298257
-0.009386704
-0.008422781
-0.0076564867
-0.005373081
-0.0010754516
0.001006919
0.0018016602
0.0049582543
0.008334331
0.01046752
0.0071912254
0.003100708
0.0021678198
2.6781982E-4
-0.0011145507
-0.0024316625
-0.003331145
-0.0048353686
-0.0043295925
-0.005968557
-0.0070698927
-0.0057288576
-0.0039607105
-0.0019578224
4.8454833E-4
0.0015592895
0.003258772
0.003560625
0.0041648485
0.0045290724
0.0052856663
0.003275149
0.0019022607
2.7226075E-4
3.7463135E-4
3.1463135E-4
-0.0010877392
-0.0016924805
-0.0016672217
-9.895923E-4
-0.004253816
-0.003895669
-0.0017504102
-5.727808E-4
4.5958985E-4
0.0014843311
0.002491443
0.0044056666
0.0061746314
0.006775967
0.00371782
0.0023949316
0.0012296728
0.0016844141
0.0017791552
-2.3084473E-4
-0.0031803271
-0.0047945506
-0.006505886
-0.0043701096
-0.003481963
-0.0029914454
-0.0012561865
-0.002675669
-3.2566895E-4
0.0020214429
0.0028609254
0.0025280372
0.0026775196
0.005114114
0.005100708
0.0028301904
0.0022773023
-7.3506834E-4
-0.0012598096
-2.9980956E-4
-0.0013045508
-0.0030440332
-0.0037858863
-0.0040977392
-0.0052943337
-0.005100928
-0.0047951513
-0.0032246339
-0.0010170044
0.0020501073
0.004194331
0.005180925
0.00618989
0.0051564844
0.0040583373
0.00264782
0.0032573023
0.002184414
7.567847E-4
-5.321533E-5
-3.5321532E-4
-9.85586E-4
-0.0023426977
-0.0045169215
-0.005153516
-0.0042277393
-0.0058367043
-0.0025438159
-2.3381592E-4
0.0023732958
0.003535149
0.0045793727
0.005205967
0.0061349315
0.005581526
0.0029210083
0.004255232
0.003607085
0.0015018262
9.241968E-4
0.001428938
-0.0010334327
-0.011508992
-0.0031084742
7.7389646E-4
1.4389648E-4
-5.684741E-4
-0.001985586
1.1441406E-4
0.003966267
0.004780491
0.0057894555
0.004563679
0.0048979027
0.0047721267
0.003401609
0.003633462
0.0027429443
8.2531496E-4
-0.0028241675
-0.004578391
-0.0050649852
-0.0050015794
-0.004295803
-0.002292915
-0.003604768
-0.0049413624
-0.0028108447
-0.0011132153
-0.0012779565
0.0019991554
0.0025462671
0.002223379
0.0021704908
0.0019276026
0.0010399731
9.923438E-4
-0.0013723974
-0.0021895093
-0.0015642504
-1.8425049E-4
-5.566211E-4
-0.0027661035
-0.0025032153
-0.0031926977
-0.0060816626
-0.006442998
-0.0033124804
-9.548511E-4
8.975195E-4
0.0016122607
0.0041964846
0.00661782
0.007019155
0.0038910082
0.0036428613
0.0037747144
0.0015594555
6.8182615E-4
-8.173828E-6
5.041968E-4
3.3419678E-4
-0.002102915
-0.0031723974
-0.004466621
-0.005533215
-0.0037750683
-7.47439E-4
-3.8980957E-4
0.0019573022
0.0032567848
0.005013379
0.008029455
0.0072331615
0.0054097557
0.004091609
0.0018987207
2.987207E-4
-9.036499E-4
-0.0013383911
-0.0013931324
-3.7313232E-4
-5.5550295E-4
-0.0023126148
-0.0020797267
-0.0025768385
-0.0028763209
-4.5869141E-4
6.336792E-4
0.002160791
0.0050873854
0.004791609
0.0067729442
0.0061919093
0.004786133
0.0037279858
0.0011003565
7.2272704E-4
7.5509766E-4
-0.0017996435
-0.0017043848
-0.0033938673
-0.00369572
-0.004107573
-0.0018823144
-0.0040341676
-0.004458391
-0.002235503
-5.7787355E-4
0.0017868676
0.0035487206
0.0021058326
0.0041576857
0.003157168
0.00263428
0.0022113917
0.0011461328
0.0022732446
9.756152E-4
-0.0021014966
-0.0019886084
-0.0021757202
-0.0012704615
-0.0037123144
-0.0051389085
-0.0053855027
-0.0054420973
-0.002479209
-6.515796E-4
0.0012131616
0.0042373855
0.004821609
0.003603462
0.0048376857
0.0041195387
0.004603762
0.002000874
7.832446E-4
-3.675537E-5
-0.0017914965
-0.002850979
-0.006089944
-0.0046641673
-0.005380762
-0.005117356
-0.0030868384
-0.004221062
-0.004072915
-0.0049195094
-0.009850327
5.420435E-4
0.004816267
0.0064976024
0.006518938
0.003640791
3.40791E-4
-8.215796E-4
0.0012831616
5.0553225E-4
-2.4446778E-4
-0.001319209
-0.0020763208
-0.0029758033
-0.0050423974
-0.005068992
-0.005005586
-0.0026426977
-0.001377439
3.7256104E-4
0.0031620434
0.0033515259
0.0054081203
0.004812344
0.0038441967
9.365674E-4
2.3656739E-4
7.38938E-4
3.7893798E-4
-0.0013958032
-0.0010381738
-0.0021152857
-0.0029447682
-0.0021918798
-0.0044061034
-0.004380327
-0.0040621804
-0.002309292
6.830786E-4
0.0011878199
2.0781983E-4
0.0025949317
0.0047791554
0.004623379
0.0042976025
0.0016623437
0.001727085
7.8945555E-4
-8.32915E-4
-0.0025700268
-0.0029695092
-0.0023766211
-0.0035084742
-0.004080327
-0.0042645507
-0.005021145
-0.0047053685
-4.7773926E-4
3.7226075E-4
-4.7739257E-5
0.001487002
0.0051535964
0.005832561
0.003994414
0.0030638964
0.003373379
0.0022204907
-5.218799E-4
-3.218799E-4
-0.0011566211
-0.0025537328
-0.0020208447
-0.0022579567
-0.0040198094
-0.002959292
-0.0052558864
-0.0036977392
-0.0012124805
0.0014822608
0.0024193726
0.003208855
0.0033883373
0.0053049317
0.004569155
0.0036910083
0.0027804908
0.001415232
6.7760254E-4
-0.0015571386
-0.0023042504
-0.0054508448
-0.0072545507
-0.007548257
-0.0060272217
-0.0056961863
-0.0049727806
-0.0036946337
-0.0020117457
-0.0010741162
-6.5648684E-4
-0.008994934
4.7743652E-4
-0.0015973047
-0.002696787
0.006684548
0.0053411424
0.0042953664
0.00431959
0.0039214427
8.7381346E-4
-0.0013209278
-9.032983E-4
-0.0012880395
-0.0036098927
-0.003079375
-0.0031288574
-0.0030383398
-0.0022354517
-5.0782226E-4
0.001316919
0.0020740307
0.0026011425
0.0036929955
0.004167219
0.0037890722
0.0026785547
0.0022756665
0.0021127784
1.1277832E-4
-8.295923E-4
-0.0012143335
-0.0027538158
-0.003885669
-0.003657522
-0.0042017456
-0.0036235987
-0.0039954516
-0.0034773047
2.6953126E-6
2.6953126E-6
0.0029121777
0.0033416601
0.0045458837
0.0048801075
0.0040519605
0.0027514428
0.0018461841
5.785547E-4
0.0012632959
-9.490747E-4
-0.0035909277
-0.00313041
-0.0036222632
-0.004366487
-0.0031259693
-0.0024930811
-0.0028925636
-0.0026196754
-9.675293E-6
0.0016950659
0.0025421777
0.0029816602
0.004265884
0.0046401075
0.0029395898
0.0026890722
0.0016838135
-4.985571E-4
5.238135E-4
2.3381348E-4
-0.0020132985
-0.0038951514
-0.0035870045
-0.0030564868
-0.0029459693
-0.0018607104
-0.0035425634
-0.0027120458
0.0014426953
0.0018074366
0.0024545484
0.0038764013
0.0040582544
0.0037201075
0.0035219605
0.004806184
0.004880408
0.0018551489
0.0013098902
-5.624805E-4
-0.0020595924
-0.002286704
-5.090747E-4
-0.0020161865
-0.0048404103
-0.0039022632
-0.0028217456
-0.003281228
-1.5122803E-4
0.0028382544
0.004242478
0.0069638137
0.0041056667
0.0022027784
0.004337002
0.003478855
0.0014335962
5.359619E-5
7.259668E-4
0.001210708
-9.0166257E-4
-9.2403323E-4
-2.540332E-4
-0.0016887744
-0.0020958863
-0.0037477394
-0.0042719627
-0.0023990746
-0.0025761866
-0.0021332984
-8.7566895E-4
-0.0067270044
-0.0036988575
0.005017737
0.005816702
0.0059156665
0.0034175196
0.0013222607
-5.9010985E-4
-0.0014548511
-0.001981963
-0.0027714453
-0.0034832982
-0.0047075218
-0.0044317455
-0.0014264868
-0.0027059691
-0.004380193
-0.0018649341
3.7743652E-4
0.0018621777
0.0031616602
0.0067129955
0.0077667017
0.007932778
0.004837002
0.003668855
0.003930708
0.0011230786
-1.9692139E-4
-0.0020040332
-0.0013387745
-0.0019358862
-0.002642998
-0.0029424804
-0.0041143335
-0.0025914453
-0.0016461866
3.3813478E-5
0.0023609253
0.0053575197
0.0065788548
-2.2114502E-4
-0.0050177393
0.006261226
0.0067425612
0.004999155
0.0035610083
0.001073379
-0.0014613623
-9.137329E-4
-0.0011361035
-0.0012508447
-0.0025679565
-0.0053045508
-0.0032540332
-0.002141145
-0.0021782569
-1.1825684E-4
5.2411377E-4
4.264844E-4
0.0034083375
0.005957302
0.0064286375
0.007049973
0.005928938
0.0023860498
7.604981E-5
0.0017007911
7.831616E-4
-0.001089209
-0.0023163208
-0.0030258032
-0.0031852857
-0.0057142503
-0.005150845
-0.0037926978
-0.001587439
-3.8980957E-4
-5.9809572E-5
0.0022173023
0.0036891552
0.0039010083
0.0049276026
0.004561826
0.0043860497
0.001850791
9.531616E-4
0.0014679028
-6.244678E-4
-0.0022515797
-0.003041062
-0.003772915
-0.0053995093
-0.0046437327
-0.0034655859
-0.0024626977
-0.0023098097
-0.0023269213
-0.0013716626
0.0018830786
0.004297302
0.005816267
0.0058152317
0.0019623437
2.6234376E-4
0.003061826
0.002258938
5.2130857E-4
-0.0015334326
-0.0021605445
-0.002830027
-0.0038718798
-0.0024389918
-0.0023661035
-0.002845586
-0.0031350683
-0.002784551
-0.001129292
0.0011754492
0.002532561
0.0041567846
0.005233379
0.005389973
0.004141826
0.00424605
0.001160791
-0.0011639502
-8.763208E-4
-2.763208E-4
-5.886914E-4
-0.0020558033
-0.009324251
-0.013746921
-7.89292E-4
-0.0013440332
-0.002591145
-9.735156E-4
-2.1351562E-4
-6.958862E-4
0.0014188549
0.003830708
0.005849673
0.005356267
0.0047304905
0.0042947144
0.0051813084
0.003340791
-1.4920898E-4
-0.0017439502
-0.0026734327
-6.358032E-4
6.165674E-4
-0.002672915
-0.0036447681
-0.005081362
-0.005950327
-0.0031098095
-6.5218017E-4
-2.2180177E-5
0.001252561
0.0020996728
0.0027091552
0.004723379
0.004969973
0.0027694555
0.0021965674
0.0018213086
3.813086E-4
-8.61062E-4
3.893799E-5
-0.0017858032
-0.0033452855
-0.002864768
-0.003736621
-0.0036184741
-0.0028479565
-0.0018226977
-0.0011250684
-1.3506836E-4
0.0023520435
0.0031015258
0.0036433788
0.0047076023
0.005014197
0.0047084205
0.0036402734
0.002929756
4.8212646E-4
2.2126465E-5
-0.0010102441
-0.0035520971
-0.0030515797
-0.0037934326
-0.0017781738
-0.0024652856
-0.002994768
-0.0021718799
-0.0011766211
-0.0014013624
8.410083E-4
0.0021181202
0.0030976026
0.0037494556
0.004283679
0.0052202735
0.0023273854
0.0018721265
0.0016068676
2.5686767E-4
-8.313233E-5
-0.0013178735
-0.004502097
-0.004216321
-0.001381062
-0.0021481737
-0.0034200267
-0.00389188
5.8120117E-5
4.8049074E-4
0.0034423438
0.0035941969
0.0032236793
0.004197903
0.003809756
0.003941609
0.0025387206
-2.812793E-4
-0.0021083911
-5.507617E-4
-0.002700244
-0.0016549854
-0.0014797265
-0.0024368383
-0.0020339503
-0.0027134325
-0.002772915
-0.0015176563
-3.4765626E-4
0.001777085
0.0026041968
0.005010791
0.003422644
0.004866868
0.005533462
0.0023605737
0.0011753149
4.6768555E-4
-1.4231446E-4
-0.0012670556
-0.0017017969
-0.0045060203
-0.004410244
-0.004514468
-0.007940545
-0.008958992
-0.007392698
-0.0058916626
-0.0037635157
-0.0014482568
2.7174316E-4
0.0029212255
0.0034730786
0.0058120433
0.004746267
0.0033857494
0.002705232
0.0011699732
-4.9239746E-4
-2.9239745E-4