-1.9826416E-4
-0.001905376
-2.1537597E-4
-1.4537598E-4
-0.0022324878
-0.0011048584
-8.37229E-4
-0.0031367114
-0.0023338231
-0.0018585644
1.8143555E-4
0.0016561768
6.0854736E-4
0.0011832885
0.003132771
0.002109883
3.9225342E-4
0.0021093653
0.0014841064
2.6410643E-4
9.564771E-4
-0.0010558936
-0.0024630055
-0.0022701172
-0.002347229
-0.0035090821
-0.003760935
-0.0032604174
-0.0030198998
-0.0025470117
5.2988282E-5
0.0016077295
0.0012424707
0.001877212
0.0025943238
0.0036461768
0.0047804005
0.0019675123
7.4988283E-4
-0.0018448584
-5.37229E-4
-5.595996E-4
-0.0010519702
-0.002289082
-0.0032985643
-0.0024356763
-0.003957529
-0.0039993823
-0.0033188649
-0.0035807178
-0.0029502
-0.0017349414
0.0017097997
0.0028992821
7.7165285E-4
0.001216394
0.0024535058
0.0033029884
0.0018377295
0.0015224707
0.0012572119
-7.278808E-5
-0.003624641
-0.0030741235
-0.0020812354
-0.0024883472
-0.0030778295
-0.003959683
-0.0022867944
-0.0017815357
-0.0017862768
-5.0864747E-4
3.5135253E-4
0.0023384644
0.0033379467
0.0020250585
0.0018297998
0.0022369116
0.0035587647
0.0022958764
0.0018606177
0.0019177295
-5.646411E-4
-0.0033041236
-0.0022012354
-0.0025683471
-0.0035202003
-0.0036820532
-0.0028315356
-0.0035633887
-0.003212871
-0.0029923534
-2.8235352E-4
6.700171E-4
6.1238767E-4
-3.376123E-4
-7.299829E-4
-9.023535E-4
-0.0038142065
-0.006685542
-0.006656877
-0.007900584
-0.0073342896
-0.006515625
-0.0059445896
-0.005601184
-0.0051877783
-0.0036196313
-5.12002E-4
-5.5437256E-4
0.0011503686
0.003119851
0.0036817042
0.003653557
0.005882522
0.0057214866
0.005318081
0.0047723046
5.346753E-4
-0.0021824364
-0.010735625
-0.019517262
-3.9963136E-4
0.0020874804
0.003236963
0.0010893334
5.9333495E-5
-6.830371E-4
4.696289E-5
9.593335E-4
0.0014840747
0.0020211865
0.0037330396
0.0042772633
0.005836228
0.005665193
0.0057041575
0.005030752
0.0047649755
0.003124458
0.00262157
0.0022886817
-4.131836E-5
-0.0010836889
-0.0016384302
-0.002265542
-0.0015002833
-0.0032197656
-0.004203989
-0.0010563598
3.8601074E-4
0.0010483813
0.0013831225
0.002832605
0.0032820874
0.0058110524
0.005910017
0.0029294996
0.004373723
5.5609376E-4
3.609375E-5
-0.0013286475
-0.0041205003
-0.0026376124
-0.0025447241
-0.0040765773
-0.0055631716
-0.004457395
-0.0048916186
-0.0012863599
-0.001831101
-0.0013358423
6.765283E-4
-0.0016782129
8.641577E-4
0.0031336402
0.0029431225
0.0026202344
0.0012749756
4.873462E-4
0.0010397168
0.001134458
-0.0024126538
-0.0011350244
-3.7502442E-4
-0.0025121362
-0.0034639894
-0.004198213
-0.0039800657
-0.0031195483
-0.0036614013
-0.0026285131
2.2148681E-4
7.838574E-4
9.7622804E-4
0.0031857104
0.004239934
0.0029494164
0.0015341577
6.2652834E-4
0.0015212696
-0.0022358422
-0.0032853247
-0.0016800659
-0.0017548071
-0.0036166601
-0.0029261427
-0.003175625
-0.0023927367
-0.001497478
-0.0010198486
-2.2984864E-4
9.1252197E-4
0.0029120045
0.0025491163
-0.0010932544
9.674561E-5
0.0018814869
0.001666228
-4.6614258E-4
-0.0017108838
-0.003952737
-0.015612519
-0.02673549
-0.004087344
-0.001482085
-0.0025291967
-0.0022963085
-0.003125791
-8.981616E-4
-7.7053224E-4
2.5946778E-4
0.001794209
0.0044184327
0.0051950268
0.0047992505
0.0039611035
0.0046153273
0.00343718
0.0011719214
0.0011566626
-7.85708E-4
-6.080786E-4
-1.4807862E-4
-0.0016028198
-0.0031323023
-0.0034741552
-0.002621267
-0.002378379
-0.0016431201
-0.0045473436
-0.0026568263
-0.0014015674
0.0025855445
0.004539768
0.0042239917
0.005300586
0.0028300683
0.0017148096
0.003204292
7.666626E-4
-1.533374E-4
-8.65708E-4
-0.0014004492
-0.0016151904
-0.002884673
-0.0026841552
-0.0035360083
-0.0032054908
-0.0029549731
-0.002572085
5.4028566E-4
0.0038321386
0.0035939917
0.0045682155
0.006449551
0.0060785157
0.006649851
0.0043040747
0.0020611866
2.9118653E-4
-0.0010111841
-0.0028906665
-0.0028501488
-0.0025872607
-0.0026567432
-0.0047609666
-0.0046351906
-0.004951785
-0.004546008
-0.0017507495
-5.0749513E-5
-6.0312013E-4
9.992504E-4
0.0030087328
0.0031682153
0.0036600684
0.003961921
0.0016066626
3.790332E-4
-3.709668E-4
-4.933374E-4
-0.0023804493
-0.0028199316
-0.002939414
-0.0026788965
-0.0028783788
-0.003670232
-0.003642085
-0.003793938
-0.0022310498
-0.0010334204
-1.0342041E-4
0.0011189502
0.0029084326
0.0034302857
0.002809768
0.0014445093
5.468799E-4
-0.0027426025
-0.003172085
-7.7445555E-4
-0.0014091968
-0.012729497
-0.023732986
-0.0030624683
-0.0016072094
4.951611E-4
-5.1720947E-4
1.4279052E-4
-3.4720948E-4
2.6279053E-4
0.0021899024
0.0029893848
0.0038612378
0.0033807203
0.0042449436
0.0040967967
0.0021939087
1.2390869E-4
0.0012986499
-2.713501E-4
-0.0017360913
-0.0013008325
-0.0025679443
-0.0024650563
-0.002592168
-0.0045763915
-0.0037182446
-0.0024453565
-0.0031948388
-0.0015795801
5.5279053E-4
0.0018675317
0.0026570142
0.003908867
0.0035907202
0.002457832
0.002084944
6.2731444E-4
7.3144533E-6
0.0014620557
-0.0014526856
-0.003342168
-0.0030516505
-0.0029711328
-0.0025482445
-0.0014329859
-8.353564E-4
-0.0025824683
-0.0018372094
9.951611E-4
0.0018899024
0.0018646435
0.002664126
0.0020612378
5.036084E-4
0.0036554614
0.003184944
0.0027344262
0.0013491674
-5.1320315E-4
-9.855737E-4
-0.001230315
-0.0015250562
-0.001972168
-0.0020792799
-8.016504E-4
-0.0014163916
-0.0024035035
-6.15874E-4
3.6412597E-4
0.0016988672
0.0038807201
0.004012573
0.0054991674
0.004593391
0.0028128736
0.002932356
5.847266E-4
4.0709716E-4
-9.4527344E-4
-0.0018900146
-0.0027294972
-0.0026889795
-0.0040008323
-0.0049374267
-0.0030269092
-0.0034887623
-0.004040615
-0.002247727
-0.0015424682
5.8990234E-4
0.002457014
0.002604126
2.6412596E-4
0.0013888672
0.0040807202
0.0031202026
0.0019673144
-0.0025597974
-0.0035016504
-0.0017463916
-0.0019335034
-0.0017282446
-0.003157727
-0.007311433
-0.010534622
-0.0044888454
-7.912158E-4
-0.001145957
-0.0020930688
-0.00160781
9.145606E-4
0.002704043
0.0026535254
0.002873008
0.0033924903
0.002529602
0.0017543433
8.4671384E-4
3.6713867E-5
5.090845E-4
-0.0017856568
-0.002765139
-0.004399363
-0.0059183277
-0.005574922
-0.0028544043
-0.0052909986
-0.0037228516
-0.008228928
-0.024164788
-0.0015295288
0.004484695
0.00602366
0.005300254
0.0043944777
0.0028639599
-0.007759746
-0.014897158
0.0021099537
0.0024170654
0.002916548
5.689185E-4
-8.0345216E-4
5.1891844E-4
-8.7345217E-4
-7.2582276E-4
3.5417726E-4
3.2417724E-4
9.7654783E-4
0.0024036597
0.0041778833
0.0038697363
0.0051263305
0.004870554
0.004504778
0.0020518897
0.0018066309
0.0012413721
0.0014361133
-2.388672E-5
-0.0015886279
-0.0020657398
-0.0044399635
-0.004444187
-0.00379604
-0.0042302636
-0.0030497462
6.9262454E-4
2.3262452E-4
0.0010549951
0.002342107
0.0016568481
0.00254396
0.003655813
0.0028952954
0.0017900366
0.0036918896
0.0028213721
-2.3862792E-4
4.937427E-4
2.3374267E-4
-0.0036481104
-0.0033675928
-0.0027770752
-8.694458E-4
-2.294458E-4
-0.0020065575
8.85813E-4
-2.4418702E-4
1.8581298E-4
0.0016405542
0.0030700366
0.005636631
0.0057155956
0.007459302
0.005645896
0.0038977491
0.0023248608
7.9723145E-4
-0.0011151391
-5.3750974E-4
-8.198804E-4
-0.001072251
1.5774902E-4
8.2011963E-4
-1.4988038E-4
-0.0019069922
2.9300782E-4
8.4537844E-4
0.0012401196
-5.988037E-5
0.0026372315
0.003196714
0.0023238256
0.002883308
0.0032427905
0.0012475317
4.0990234E-4
4.9227296E-4
-0.0010400977
-0.0024272094
-0.0025143214
-0.002531433
-0.0018261743
-0.0033656568
-0.0035675098
-0.0032469921
-0.002334104
-5.0647464E-4
1.352539E-5
1.7352539E-4
0.0022606372
0.0027901197
0.0038819727
-7.6039793E-4
-2.4039795E-4
2.9960205E-4
-8.0276857E-4
-4.1513916E-4
-0.002352251
-8.546216E-4
4.97749E-4
-6.346216E-4
-0.0021417334
-0.005258328
-0.0034301807
-0.0028496631
-0.0028291454
-0.0020062574
-4.2862794E-4
3.1137207E-4
0.0014161132
-1.4388672E-4
-7.3625735E-4
-1.9625733E-4
0.0017484839
-3.2151613E-4
0.0011732251
0.0010955957
-0.0018291455
-0.0017738867
-0.0022809985
-0.0050975927
-0.005284187
-0.0033736695
-0.0028431518
-0.004949746
-0.0043239696
-0.0023010815
-9.3345216E-4
1.6547852E-5
0.0013812891
0.0033107714
0.0026378834
0.0032873657
0.0018521069
8.9447753E-4
-0.0011502637
-0.0029597462
-0.002206858
-0.0033987109
-0.0043029347
-0.0043171584
-0.0045313817
-0.0038632348
-0.0048174583
-0.0037093116
-0.0027987938
-0.0010911645
-9.0353517E-4
2.9646483E-4
0.0022935767
0.0042578005
0.0027072828
4.496533E-4
-0.020594353
-0.0091628
0.001861941
0.0016166822
0.002473794
7.3616457E-4
5.7853514E-4
-0.001556206
-0.0031256885
-0.0057646534
-0.006735989
-0.0030854712
-0.002622583
-0.0030320655
0.0010503052
0.002217417
0.0024545288
0.0032340111
0.004658235
0.0045624585
0.0042266822
0.0047009056
0.0032203882
0.0015851294
-6.672412E-4
-0.002434353
-0.0030838354
-0.0018085766
-0.0035904297
-0.0056993947
-0.005958359
-0.0035802124
-0.0017249536
-0.0024920655
-0.0018568067
9.5556397E-4
0.002382676
0.001767417
0.0047716405
0.004715864
0.0029553466
4.677173E-4
7.0008787E-4
-1.7991211E-4
3.400879E-4
6.624585E-4
1.4245849E-4
-3.775415E-4
-0.0021846534
-0.0033941357
-0.003323618
-0.0036854711
-0.002442583
-0.0010749536
-1.6495361E-4
0.0031245288
0.005521123
0.006350088
0.0047543114
0.0036061646
0.0025932763
0.002440388
0.0026598705
-3.825E-4
-1.825E-4
7.398706E-4
-1.401294E-4
-0.0010625
-0.002389612
-0.004091465
-0.0047656884
-0.002855171
-0.0032946533
-0.0015893945
0.0027000878
0.0030895702
0.002546682
0.0044009057
0.0046051294
0.004639353
0.004915947
0.0034478004
-0.0013969409
-0.0046511646
-0.009159612
-0.009238059
-0.008154136
-0.009222583
-0.00833866
-0.0058276244
-0.0061665894
-0.0066879247
-0.005504519
-0.0016892602
0.0010231104
0.0018078516
0.003257334
0.0045915577
0.00333104
0.0029205224
0.0014752636
-0.0018194775
-0.0014942187
-0.0010765893
2.6341065E-4
-0.0018013306
-0.003330813
-0.0048150364
-0.0045792605
-0.002266372
-0.005562966
-0.0070843017
-0.003956155
-0.001380896
2.7910402E-4
0.0014038453
-0.001600896
-0.0047451197
-0.018924385
-0.0031738672
0.0056750975
0.0081511745
0.009641992
0.008318068
0.008614145
0.0076178517
0.0062668165
0.0037086695
-0.0011660717
-0.001390813
2.1918702E-4
9.515576E-4
9.0392824E-4
-0.001740813
-0.0047150366
-0.00464926
-0.0035611133
-0.0027705957
-0.002730078
2.9921875E-5
0.001184663
0.0010070337
0.0010494043
0.0015041456
0.0012388867
-0.0010534839
-0.0047477074
-0.00326719
-0.003829043
-0.0045632664
-0.003162749
-0.0024298609
-0.0044440846
-0.0026735668
-0.0014783081
-3.2830812E-4
7.240625E-4
0.002993545
0.0010659156
8.1828615E-4
1.08286134E-4
0.0014930273
7.053979E-4
7.7776855E-4
-8.4460207E-4
-0.0031340844
-0.0024011964
-0.0024583081
-0.003810161
-0.002487273
-0.0019643847
-0.001649126
-0.0019062378
-2.0623779E-4
0.0027232447
0.0024703564
0.002669839
0.005566433
0.0066277687
0.0075514745
0.0077851806
0.0060841455
0.004518369
0.0012031103
0.001105481
-0.002011631
-0.005588225
-0.0035100782
-0.004926672
-0.0032361548
-0.0027256373
-0.0012203784
9.621582E-6
0.0021367334
0.003066216
0.0021433276
0.0020704395
0.002959922
0.0024370337
3.894043E-4
-0.001185337
-0.0021624488
-0.00163719
5.651807E-4
9.775512E-4
-9.7481936E-4
-0.0016695606
-0.0029090429
-0.0021461549
-1.3615479E-4
0.0010762159
-0.001900896
-0.0066122315
-0.008288308
-0.0030877905
-5.1016116E-4
4.622095E-4
0.005268804
0.00785251
0.009973328
0.007867034
-1.629663E-4
-0.007816672
-0.00960749
-0.010490678
-0.017465202
-0.023951063
-0.025591662
-0.026074633
-0.028312346
-0.022363465
-0.008329541
0.005919424
0.017193947
0.031363513
0.041523896
0.045546133
0.04744548
0.035356898
0.0134895705
-0.0020475416
0.0010948291
0.0133875
0.02391336
0.023316849
0.013609519
-0.003562334
-0.01998397
-0.021470347
-0.018799612
-0.016601766
-0.01802866
-0.02475689
-0.028024603
-0.019666238
-0.007569944
-0.0021970556
-0.016439209
-0.044509076
-0.052382648
-0.047251996
-0.022923112
0.013239558
0.042202312
0.064423814
0.066302426
0.05300837
0.047607716
0.020021724
-0.011533836
-0.013966506
-0.010769695
-0.021006072
-0.026809042
-0.035620462
-0.03492951
-0.017926404
0.010276785
0.03198635
0.041256733
0.030983929
0.022315046
0.025263276
0.01590306
-0.003548794
-0.0205428
-0.033629477
-0.030484302
-0.013966973
0.012350957
0.032030523
0.039143793
0.035957582
0.0664162
0.10232623
0.12838922
0.14478439
0.1250879
0.073880225
-0.017214296
-0.08364744
-0.097283244
-0.09588431
-0.087629296
-0.07549636
-0.05345467
-0.02308816
0.0073255445
0.013888216
0.014523257
0.023626745
0.034795795
0.034894843
0.035043888
7.8625977E-4
-0.06128576
-0.081761785
-0.027779497
0.054021187
0.084406696
0.03391337
-0.060686275
-0.07618571
-0.045970313
-0.040928327
-0.058973234
-0.049277324
-0.026560295
-0.010403484
-0.02103986
-0.029592315
0.019459322
0.06287608
0.05582151
0.014566548
-0.0119713815
-0.0358128
-0.05899771
-0.110213816
-0.14029475
-0.12698302
-0.08952511
-0.05882002
-0.030877214
0.013987827
0.04150821
0.047707558
0.058020096
0.08790509
0.11555779
0.1385716
0.12675987
0.10495938
0.074524075
0.04411157
0.034610618
0.026083589
-0.08722903
-0.12076833
-0.026048928
0.029915895
0.037312057
0.01749658
0.0060755443
8.5791503E-4
-0.048673805
-0.07493849
-0.039151765
0.008254312
0.06871004
0.13069016
0.11743759
0.0897697
0.086542316
-0.03382436
-0.14569189
-0.17233239
-0.17629473
-0.075871795
0.06142022
0.16011278
0.17385803
0.14273608
0.029158527
-0.09806965
-0.116917096
-0.11834928
-0.118881464
-0.09402542
-0.08684804
-0.109251775
-0.08817914
-0.032221075
-4.4344482E-4
0.00619552
0.0019026318
-9.197388E-4
-0.0065610744
-0.006310039
0.0051665553
0.016918708
0.016270861
0.026613833
0.035435252
0.03387193
0.021078305
0.012738606
0.0044228295
-0.0062261354
-0.0038479883
-4.903589E-4
0.0024267528
0.008112829
0.014717871
0.032479808
0.044549674
0.03566109
0.028208803
0.01891807
0.012115998
0.023399487
0.04290461
0.053292926
0.08146895
0.121810615
0.15468659
0.123293
0.07400532
-0.0072683864
-0.08380152
-0.11677897
-0.09238818
-0.059485458
-0.03678162
-0.034440666
-0.061262686
-0.08459819
-0.0717734
-0.053261712
-0.03355602
-0.025114251
-0.016746404
-0.0095472215
-0.006888557
-0.007632263
-0.0030217457
0.008746701
0.025877303
0.041990057
0.035141475
0.0154588865
-0.02207986
-0.040225502
-0.041775886
-0.023991745
-0.0041659693
0.0041782544
2.682544E-4
0.0024853663
0.006174331
0.008240407
0.01541782
0.028265532
0.03297984
0.011847769
-0.004556455
-0.0032059376
-0.0020230494
-0.007696755
-0.011432314
-0.012260244
-0.010833433
-6.758032E-4
0.011139756
0.01747428
0.013316951
0.0046511744
0.0077948803
0.02463311
0.030257935
0.017784828
-0.0044193943
-0.009490212
-0.0072439183
-0.0054905126
-0.0080065895
-0.009065037
-0.0077387425
-0.00846482
-0.007990896
-0.006329861
-0.0048140846
-0.0037059374
-0.021754686
-0.0038365382
0.00980428
0.005380874
0.0018756152
-1.3438477E-4
0.001972727
0.0014374682
5.598389E-4
-0.0014449024
2.4509765E-4
-3.3490235E-4
-0.0032343848
-0.0067657204
-0.008281797
-0.0075255027
-0.007269209
-0.008045286
-0.008641362
-0.0071950685
-0.004669292
-0.0021364037
-0.001161145
0.0010512256
0.003290708
0.0046849316
0.007808638
0.010189456
0.012859756
0.014064797
0.010497985
0.008996433
0.00816251
0.0044867336
0.0014214746
-7.70896E-4
-0.0039127492
-0.006271714
-0.005368308
-0.0053549022
-0.0070662377
-0.009617056
-0.0093955025
-0.00810158
-0.009180027
-0.009098474
-0.0070098094
-0.0062087746
-0.0061177392
-0.0075914455
-0.008557522
-0.008845969
-0.008704416
-0.0057233814
-0.0035852343
-0.004087087
-0.0030465699
-0.0043107932
-0.004795017
-0.0023921288
-0.0029716112
-0.004465835
-0.0023429468
-0.001277688
0.0010246827
0.0023617945
0.002981277
0.0023283886
0.0024055005
8.078711E-4
-0.0010944995
-0.0039963527
-0.0010287232
-8.5109373E-4
-0.0023882056
-0.0028876879
-0.0034595411
-0.0020166528
-9.990234E-4
-8.902344E-5
-6.902344E-5
0.0017457177
0.0039075706
0.004914165
0.004228389
0.006489724
0.0068910597
0.0047052833
0.0012600244
-0.0019470874
-0.0019941991
-0.001971311
-0.0019284228
-0.0030779052
-0.0049144994
-0.0058434643
-0.00784717
-0.009425618
-0.009516436
-0.0072401417
-0.004414365
-0.0040462185
-0.005955183
-0.0067465184
-0.006005483
-0.004899707
-0.009278154
-0.022196902
0.0013578393
0.004732063
0.0031315454
0.0033510278
0.003692881
0.0044171046
0.004701328
0.0070926636
0.0043068873
4.1925782E-4
-0.004194966
-0.005893931
-0.0047281543
-0.0038800074
-0.0012447486
9.1762206E-4
0.0012123632
0.0025594751
0.002446587
0.0037084399
0.0052650343
0.0036268872
0.0014616285
0.0012963696
-1.4363037E-4
-0.0019807422
-0.0011231127
-4.454834E-4
-0.0026325951
-0.0017173365
5.3503417E-4
0.002342146
0.0030916284
0.0023887402
0.0029682226
0.004934817
0.009273265
0.009964082
0.0101449
0.007418606
0.003690459
1.0045899E-4
-0.0022766527
-0.0022237645
-0.0045979884
-0.004742212
-0.0043364353
-0.00498303
-0.005259624
-0.005156218
-0.004450442
-0.0047446657
-0.003314148
-0.0032736303
-0.0030431128
-2.2311279E-4
7.9925783E-4
0.0023063696
0.0017911108
0.0034729638
0.0032224462
0.0049066697
0.005053264
0.002300376
-9.962403E-5
2.5037598E-4
1.4037598E-4
-6.519946E-4
-2.9199463E-4
-0.0010043653
-0.002171477
-9.638477E-4
-6.262183E-4
0.001458523
0.0012932642
0.0017180054
4.0037598E-4
0.0011351171
0.0034869702
0.002294082
0.0026635644
6.2593503E-4
0.0019630468
2.6304688E-4
-5.993237E-4
-0.0010116943
-0.0013064356
-0.0011288062
-0.0013435474
-0.0019406591
-0.0013554004
-0.0019825122
-0.0014072534
-5.09624E-4
3.0037598E-4
0.0011751172
0.0016898584
0.0031093408
0.0075130467
0.005219641
0.004021494
0.0035333473
0.0030128297
0.0018375708
-0.0030919116
-0.0025390235
-4.3139403E-4
-9.7376463E-4
-1.0376465E-4
-0.0015085059
-0.001193247
-8.556177E-4
-0.0017503588
-2.703589E-4
5.920117E-4
0.0013067529
0.0016814942
0.0046157176
0.005322312
0.0032917943
0.0032712768
0.00382313
0.0022102417
4.8261232E-4
-7.797583E-4
-8.421289E-4
-0.0011868702
1.9312988E-4
-0.002363982
-0.0029834644
-0.004287688
-0.0060966527
-0.0027661351
-0.0012208765
6.414941E-4
8.4386475E-4
0.003143347
0.0044675707
0.0036494238
0.0030389063
-0.01935273
-0.0050893235
0.0054572704
0.0045914943
0.002398606
0.0014333471
0.001960459
0.0017952002
5.975708E-4
-9.247998E-4
-2.947998E-4
-4.671704E-4
-8.7954104E-4
-1.7954102E-4
0.0020075708
0.0030670532
0.0029765356
0.003386018
0.004610242
0.0040020947
0.0028215772
0.002568689
0.0012434302
0.0015981714
0.001120542
-6.218286E-4
-9.5419923E-4
-6.8656984E-4
-0.001551311
-0.0011760523
1.1394775E-4
-6.6842284E-4
-9.907935E-4
-6.031641E-4
-0.0011255346
0.0018692065
0.0019063184
0.0018910596
0.0035229125
0.003332395
9.647656E-4
7.0713623E-4
0.0022242481
-5.5751952E-5
-0.0018704932
-2.2049317E-4
-0.0014752344
-0.0019023462
-0.0036241992
-0.004178423
-0.0026679053
-9.102759E-4
-0.0016950171
-9.873877E-4
6.449829E-4
0.0020120947
0.0023792065
0.002838689
0.005175283
0.0068566184
0.0045408425
0.0027303246
0.0022874365
8.743652E-5
-1.1256347E-4
1.7743652E-4
-4.249341E-4
-0.0022920459
-0.0026191578
-0.0014938989
-0.0027933815
-0.0052299756
-0.002799458
-0.0011218286
-1.8182861E-4
-5.0419924E-4
0.001460542
0.0033400245
0.001022395
2.3950195E-6
0.0020295067
0.0018342481
4.2661864E-4
-3.0338136E-4
-0.0012281225
3.3187744E-4
7.187744E-5
-6.404932E-4
-0.002497605
-0.0025247168
-0.0020018285
-0.0037136816
-0.003173164
-0.0054397583
-0.0020968702
-2.3687012E-4
0.0022702417
0.004946836
0.003708689
0.0032181714
0.0018729126
0.0015676538
9.7002444E-4
0.0023071363
0.0012718774
-3.7812255E-4
-0.0020852343
-0.0021123462
-0.0040441994
-0.002551311
-0.0018360523
-0.0051126466
-0.0048268703
-0.005583464
-0.004607688
6.146826E-4
0.0019517945
0.004466018
0.006024983
0.005491577
0.005058171
0.0032476538
0.001742395
0.0018171362
3.2713622E-4
7.5950683E-4
0.001444248
-0.0015104931
-0.001977605
-0.0018723462
-0.0028818287
-0.003011311
-0.0012260523
-0.0010584228
8.1394776E-4
0.0019310595
0.0018258007
0.0035976537
0.004149507
0.00385136
0.003953213
0.003495066
0.0013998072
5.121777E-4
-0.0019049341
-0.003496787
-0.0033562696
-0.0021933813
-0.0011481226
-0.0026152343
-0.0017899756
-0.0020770873
-0.0025941993
-0.0015789404
6.105957E-5
0.0011334302
4.558008E-4
0.001510542
0.0020276539
0.0025947657
0.0024918774
0.0026713598
0.0028108424
0.0015155835
-0.026899759
-0.011075317
0.0013694238
5.117944E-4
-9.305762E-4
-8.8294677E-4
-0.0010253174
-8.77688E-4
-5.200586E-4
-3.100586E-4
-0.0011124292
0.0029570532
0.0027665356
0.0023236475
0.0036155004
0.0050820946
0.004606318
0.004360542
0.0032600244
0.001052395
4.2476563E-4
0.0016995069
-2.2049317E-4
-0.0028199756
-0.0023170875
-0.00283657
-0.0030460523
1.1394775E-4
-1.8605225E-4
-0.0017107935
-0.0012055347
9.4683596E-4
-8.7553466E-4
-0.0018302759
0.0044939476
0.0060329125
0.0060318774
0.0037337304
0.0013984716
0.001593213
9.321289E-5
8.755835E-4
-5.967871E-4
-0.002273899
6.484717E-4
-6.138989E-4
-0.0021210108
-0.001415752
-0.0025128638
-0.0027123461
-0.0011770874
-3.89458E-4
7.0541995E-5
0.0024676537
0.0025747656
0.0042689894
0.004573213
0.004145066
0.0029545482
9.6691895E-4
8.9928956E-4
2.9289551E-5
-0.0012454516
-0.0024625636
-0.0024496752
-0.0035815283
-0.0016362695
-0.0017210108
-0.001765752
-0.0020328637
-0.0010252343
-7.523438E-5
0.0012095069
0.00370136
0.003833213
0.0019903248
0.002699807
0.00393166
0.0027611426
0.0012658838
3.588379E-5
-0.0013888574
-0.01582864
-0.028056353
-0.006035317
-0.0020824291
-6.647998E-4
-8.971704E-4
-8.99541E-4
-0.0013542823
-0.002081394
0.0016033471
0.002560459
0.003902312
0.004206536
0.0055031297
0.0065044654
0.0057834303
0.004687654
0.0030071363
0.0035989892
0.0019061011
-0.0011386401
-9.0101076E-4
-0.001335752
-0.0012204931
-0.002447605
-0.0019447168
-0.001539458
-0.0013941992
0.0011081714
2.981714E-4
8.4054196E-4
0.003522395
0.003804248
0.0024213598
0.0017461011
0.0022932128
0.0021403248
0.0017250659
0.0022421777
0.001436919
0.0014916601
-0.001483081
-0.0030925635
-0.0037944166
-0.0044586402
-0.0045028636
-0.0035047168
-0.001649458
2.70542E-4
0.0013652832
0.0014800244
0.002849507
0.001584248
0.0012989893
0.0033784716
0.0022855834
0.0017603247
7.526953E-4
-0.0061162696
-0.004580493
-0.002387605
-1.9760498E-4
-0.0011199756
-0.002839458
-0.0028189404
-0.0013536817
-0.0012784229
-2.1842285E-4
0.0015263184
4.9868895E-4
0.0014134302
0.001980542
0.003842395
0.0028018774
0.0030613597
0.0026284717
0.0021055834
4.879541E-4
5.503247E-4
6.0324706E-5
-2.596753E-4
3.6032472E-4
-8.920459E-4
-0.0022891578
-0.003971011
-0.0035728638
-0.004387087
-0.004181311
-0.0037331642
-0.0020402758
-6.026465E-4
0.002916836
0.004008689
0.005045283
0.002312395
0.002209507
0.001844248
0.0016489893
0.0013137305
4.7610106E-4
-8.962695E-4
-0.0018810107
-0.0034428637
-0.003994717
-0.0058936817
-0.0052102758
-0.0023173876
-0.0018021289
-0.0021092407
-0.0013239819
5.8838865E-4
0.0018831299
0.0019202417
0.0027597242
0.002286836
0.0031463183
0.0029558009
0.0036676538
0.0023947656
7.3713623E-4
-2.6286376E-4
-0.0025199756
-6.023462E-4
-3.747168E-4
-0.001529458
-4.818286E-4
-0.0014365698
-0.001631311
-0.0015360522
7.9631835E-4
0.0014710595
0.0025681714
0.0034400243
0.004834248
0.0051308423
0.0049674367
0.0019645484
9.569189E-4
0.0014816602
0.0011964013
0.0014311426
-1.8857421E-5
-0.0014235986
-0.0015683399
-0.001853081
-0.0023301928
-0.0027896753
-9.720459E-4
-9.744165E-4
-0.0013091577
-0.0019162695
0.0016684717
0.003317954
0.0052545485
0.0036764015
6.48772E-4
8.877197E-5
4.1114257E-4
-0.0011635986
-0.008269675
-0.029252129
-0.007895835
-0.0028453174
5.270532E-4
4.3942383E-4
-0.0010429468
-0.001187688
-0.0019447998
-0.0021519116
0.0012028296
0.0017875708
0.0044817943
0.0037036475
0.0015083887
0.004502612
0.005109207
0.003268689
0.0017934302
-0.001231311
-0.002028423
-5.0079345E-4
-0.0018355347
-0.003035017
-0.0020921289
-0.0027616112
-0.001978723
-0.0018634644
-8.7583496E-4
3.3416503E-4
0.0030536475
0.0034955004
0.004489724
0.003911577
0.004235801
0.0043500243
0.004464248
0.005110842
0.004525066
0.0021621778
-3.2782226E-4
-4.5019286E-4
-0.0023973046
-0.0019644166
-2.744165E-4
-0.0015991577
-0.0030086401
-0.004302864
-0.0044870875
-0.0020741993
-7.8656984E-4
0.0015181714
0.0021252832
1.052832E-4
-0.001859458
0.0021676538
0.0029371362
2.1713623E-4
-1.2863769E-5
-0.0011976049
-0.0029770874
-0.0034689405
-0.004553164
-0.0031726465
-0.00450687
-0.0029663525
-0.0028658349
-0.003477688
-0.0031071703
-0.0022542821
-0.0016790235
0.0024580883
0.0031375708
0.0027870531
0.004471277
0.0047655003
0.004909724
0.0036115772
0.0015563184
7.38689E-4
3.1868895E-4
-0.0020184228
-0.001883164
-0.0029026465
-0.002682129
-0.0043063527
-0.002765835
-0.0015605761
-0.0011553174
-0.0021324293
-0.002369541
0.001957571
0.0029070533
0.0015317944
0.0030512768
0.0040431297
0.0031926122
0.002189724
0.0010720948
-0.0031373878
-0.008695835
-0.026258806
-0.009709624
-0.006018589
-0.024616819
-0.0033363013
0.0019608105
0.004565034
0.0037468872
0.0030563697
0.0042505935
0.0049771876
0.004781411
0.0066227466
0.0062517114
0.004365935
0.0042601586
0.005626753
0.0046309764
0.0041852
0.0031846827
0.0020017945
0.0013965357
-6.65835E-4
-0.003477688
-0.0033471703
-0.003006653
-0.001451394
-0.0014661353
-3.7850585E-4
0.0017362353
0.0018009766
0.002940459
0.003902312
0.0042465357
0.0048907595
0.004012612
0.0034444653
0.0027939477
0.0016486889
0.0015334302
0.0010758007
-9.765698E-4
-0.0023636816
-0.0037555348
-0.0032650172
-0.0017997583
-0.0016244996
-0.0015192407
-0.0015839819
0.0011807593
0.002047871
0.0015426123
-2.073877E-4
0.0022697242
0.0032092065
5.3157716E-4
-0.004090276
-0.001535017
-9.501709E-5
-0.0010473877
-0.0018844996
-0.0026416113
-0.0033510937
-0.0031805763
-5.329468E-4
-0.0026724292
-0.002339541
-0.0032290234
-0.0025461353
-6.3850585E-4
4.7386475E-4
0.0022809766
0.0034528296
0.0042270534
0.004601277
0.004947871
0.0018426123
0.001989724
0.0017144653
4.0683593E-4
-0.0010755346
-0.0011079053
-7.2027586E-4
-0.001595017
-0.0023021288
-0.003473982
-0.0032834643
-0.0029729467
-0.0029324293
-0.0011571704
6.752002E-4
3.052002E-4
6.475708E-4
0.0027770533
0.0018917944
0.0012265356
0.0021236474
0.0035355005
0.0022326123
-0.0019644995
-0.0041263527
-0.003175835
-0.0025529468
-0.002752429
-0.0045566526
-0.02357014
-0.023806
0.0010263696
0.0025234814
0.002972964
0.0047271876
0.0057061524
0.006737488
0.008163565
0.0079596415
0.0056786058
0.004030459
0.0010728296
-6.4954103E-4
-0.0011019117
-0.0016666529
-6.8902347E-4
-5.6139403E-4
-0.0016361353
-0.0015408765
-0.0019279883
-0.0027674707
-0.001462212
-2.211914E-6
0.0016325293
0.0011572705
0.0020343824
0.002511494
0.002128606
0.0030480884