-0.003380066
-0.0024971778
-0.0035890308
-0.0035308837
-5.932544E-4
4.2911622E-4
9.914868E-4
9.338574E-4
0.0019709691
0.002208081
0.0030775634
0.0035294164
0.003148899
0.0013836401
0.002610752
6.5312255E-4
-0.0015816187
-0.0012263599
-0.001681101
-0.0027705836
-0.0020376954
-0.0012424365
-0.0023395484
-0.00201666
1.03339844E-4
4.6571044E-4
1.4571045E-4
1.9571045E-4
9.1808103E-4
0.0033475636
0.0038994164
0.0020965284
0.0018312695
6.0364016E-4
1.8364014E-4
-4.7873048E-4
-0.0016634717
-0.0024305836
-0.0045048073
-0.0026542896
-0.0040561426
-0.0016708837
-0.001275625
-0.0012703663
-0.002507478
-0.0014122193
8.101514E-4
0.001002522
0.0021796338
0.0042538573
0.0034957104
0.0025628223
0.0031323046
0.0035841577
9.7652833E-4
2.5652832E-4
-0.002712954
-0.004797178
-0.0064385133
-0.004632737
-0.00384459
-0.0035764428
-0.0019535546
-0.0030830372
-0.0019301489
9.0222165E-4
0.0013669629
0.0010893334
0.0020764454
0.002553557
0.0035354102
0.0031748926
0.003214375
0.0027438574
1.3385742E-4
-6.385132E-4
-0.0014932544
-0.0023003663
-5.927368E-4
-0.001337478
-0.0030669605
-0.0073606665
-0.019229932
-0.0014346729
0.0011800684
6.5243896E-4
7.548096E-4
9.871802E-4
0.0032566625
0.0036485156
0.0046427394
0.0036845922
0.004408816
0.0017935571
4.9592776E-4
-8.464429E-4
-0.001191184
-0.0011559253
-0.002233037
-0.0016677784
-0.0018725195
-0.0018996313
-0.0025767433
-0.002523855
-0.0032333373
-8.35708E-4
2.2429199E-4
6.066626E-4
-7.65708E-4
8.266626E-4
0.0026337744
0.0021808862
0.0011356274
0.0034474805
0.0024345922
0.001126963
-0.0010054078
-0.0023225194
-0.0012372608
4.6510986E-4
-8.489014E-5
-0.002072002
-3.5200195E-4
-3.4200196E-4
-0.0012867432
-4.9911375E-4
2.9088624E-4
9.1325684E-4
0.0013079981
0.0025651099
0.0020622218
2.3222168E-4
-9.3014893E-4
-9.025195E-4
0.0011322217
5.345923E-4
-1.1540772E-4
-0.0010277784
-0.0030572608
-0.0029267431
-0.0027862256
-0.002785708
-0.0028551905
-0.0013799317
-0.0017846728
-0.0016694141
-7.017847E-4
5.805859E-4
9.829565E-4
2.0295654E-4
7.4532715E-4
9.2769775E-4
-0.002369414
-0.0042536375
-0.006574973
-0.006373938
-0.0014486792
-8.610498E-4
4.213208E-4
0.0025084326
0.003367915
0.0044221384
0.0037139917
0.005660586
0.008456662
0.00893511
0.008813557
0.008239633
0.008475711
0.0076794163
0.0040812697
0.003350752
0.003902605
0.0027320874
0.0016068286
0.0022339404
7.394043E-5
-0.0015908008
-0.0021279126
-0.0019150244
-0.0023021363
-0.0056387302
-0.005335325
-0.0048395484
-0.0041114013
-0.005690366
-0.01686252
-0.011708079
-1.7807861E-4
0.0015266626
3.166626E-4
4.690332E-4
0.0011537744
3.96145E-4
-0.0010762255
-0.0019833373
-0.004247561
-0.0064288964
-0.0062478613
-0.005696826
-0.00513342
-0.004357644
-0.004029497
-0.0030289795
-0.003388462
-0.0030879444
-9.3031494E-4
-2.2031493E-4
0.002356797
0.0027862792
0.0010586499
0.0022557618
0.0013305029
-4.4186768E-4
-0.00286135
-0.002458462
-0.0034003148
-0.0024574269
-0.001822168
-7.1453856E-4
-7.469092E-4
-0.0029663916
-0.0045506153
-0.0029700976
-0.0025772094
-0.0019843213
-0.0015890625
-5.014331E-4
0.001133308
0.00228042
0.0032499023
0.0037617553
0.0032612379
0.003683091
0.0029425733
4.8494386E-4
0.001519685
1.9968506E-4
-0.004404539
-0.0041687624
-0.001985874
-0.004087727
-0.0055143214
-0.0050709154
-0.0043151393
-2.1513917E-4
-1.0513916E-4
7.472314E-4
0.0021543433
0.0021714552
0.002328567
7.109375E-4
0.00292042
0.0033299024
0.0021070142
3.1701417E-4
-0.0011577271
-0.0012424682
-1.1246826E-4
-0.0013272095
-0.0020043212
-0.0034461743
-0.0048403977
-0.0056369924
-0.005865957
-0.00343781
6.218994E-5
3.7218994E-4
0.0018269311
0.0029964135
0.0021035254
0.0037753785
0.0023824903
0.002219602
0.0031590844
0.0018438257
-0.0012409155
9.084472E-6
2.0908448E-4
-2.4091553E-4
-0.0014256567
-0.0027451392
-0.0012398803
-4.9225095E-4
6.7749024E-5
6.201196E-4
0.0022072315
0.003196714
0.005705679
0.0072593847
0.0057983496
0.004964944
0.0038867968
0.0026862794
0.0018933911
8.057617E-4
-5.766089E-4
-3.0660888E-4
-6.489795E-4
-0.0018537208
-0.0018184619
-0.0028979443
-0.0014126855
-0.0018674268
-6.197974E-4
8.025732E-4
0.0014873145
0.0019144262
0.0031539088
0.0033733912
0.002200503
7.328735E-4
-2.8712646E-4
-4.2949707E-4
-0.0014642383
-0.0012589794
-0.0025360913
-0.002423203
-0.002110315
-0.0017250562
-0.00420928
-0.0056782444
-0.0038900976
-0.004254321
-0.0016490625
-0.0036609154
-0.0026080273
-0.0016327685
-0.0014575098
-0.0023346215
-4.621582E-6
-9.269922E-4
-5.493628E-4
7.930078E-4
-0.0013617334
-0.0029112159
-0.0023383277
-0.0034901807
-0.003209663
-0.0029191454
-0.0051457398
-0.0049099633
-0.005616558
-0.0040884106
-0.003217893
-0.0037797461
-0.00484397
-0.0030534521
4.0891845E-4
5.012891E-4
0.0010836597
4.6603027E-4
-6.863403E-4
-0.0039181933
-0.0023253052
-0.0030047875
-0.0022618994
-0.002911382
-0.0038932348
-0.007296941
-0.0069282763
-0.012106206
-0.020140212
-0.0060791774
-0.002406289
-1.4628907E-4
8.371094E-5
0.0011260816
0.0038179345
0.0020550464
0.0014597876
0.0023368995
0.0022540113
0.002511123
0.0016758642
2.3586425E-4
-2.0413574E-4
-0.001548877
-0.0023459888
-0.003035471
-0.004159695
-0.0044639185
-0.0049605127
-0.0028799952
-0.0017447363
-0.0037765894
-0.0012913306
-9.937012E-4
-5.3701173E-5
1.9629883E-4
0.00120104
3.8341063E-4
0.0017981519
8.0052245E-4
0.0011752637
2.7526368E-4
-4.0710694E-4
-0.0018918482
-0.0018365893
-0.0030960718
-0.0043602954
-0.0039621484
-0.0050687427
-0.0038205958
-7.729663E-4
0.0011417749
-6.405957E-4
-6.229663E-4
0.0011194043
0.0015141455
0.0033536279
0.0015183692
0.0011431103
0.0014778515
0.0023849634
0.0014897046
-3.102954E-4
-0.0016650367
-0.0021221484
-0.0011968897
-0.0016216309
-0.0031311132
-0.0014558545
-3.882251E-4
-0.0013529663
-5.8533694E-4
0.0010770337
0.0018517749
0.0022688867
0.0017836279
0.0029431104
0.004757334
0.0044815578
0.0040534106
0.0026005225
3.9289307E-4
-0.0014118481
2.9815186E-4
-6.3421874E-4
-0.00160896
-0.004050813
-0.0055274074
-0.0048916307
-0.003953484
-0.0026929663
-0.0027424488
-8.1481936E-4
0.0012899219
0.0024570336
0.0015217749
0.0020288867
0.0033783691
0.0034902222
0.0032497046
0.0024768163
-7.355542E-4
-0.0018702954
4.120752E-4
-0.0026250365
-0.004931631
-0.003683484
-0.005280078
-0.0049966723
-0.0038185255
-0.0040303785
-0.0018851196
-0.0013998608
-0.0019469727
0.0010553979
0.0022025097
0.003271992
0.001989104
8.714746E-4
0.0015562158
2.762158E-4
-0.0014985254
-4.70896E-4
-0.0029303783
-0.0038922315
-0.0037340845
-0.0030735668
-0.00411542
-0.0061643845
-0.0043786084
-0.0034104614
-0.004294685
-0.0032941676
-5.465381E-4
8.958325E-4
3.9820312E-4
-6.741675E-4
0.0012405737
0.0028800562
5.5242673E-4
-0.0014623145
3.9005614E-4
-5.323145E-4
-0.0027017968
-0.00404365
-0.005620244
-0.0053668385
-0.0038886913
-0.003088174
-0.003810027
-0.0031995093
-0.0037913623
-0.0020384742
-0.0015432154
2.9678468E-4
0.0024438964
0.0017986377
0.001273379
0.0012281201
0.0013928614
0.001125232
8.6760253E-4
7.0997316E-4
-2.6002686E-4
-0.0018147681
-0.004006621
-0.0048808446
-0.0018355859
-0.0021426978
-0.0037445507
-0.0026540332
-0.0017287744
-0.0013035156
5.48855E-4
9.4122556E-4
8.635962E-4
0.002380708
0.0046049315
0.005521526
0.0049681203
0.0027376025
0.0014823438
2.8234374E-4
-0.0018223975
-0.0025695092
-0.0026589916
-0.0028884741
-0.008264551
-0.006565886
-0.0032753686
-0.003184851
-0.002201963
-0.0010243335
-4.167041E-4
0.0019304077
0.0028498902
0.0023870019
0.0031764845
0.0019035962
0.002320708
0.0027401904
0.0016649317
-0.00209218
-0.002289292
-0.005455886
-0.007229592
-0.0050661867
-0.0049127806
-0.0045170044
-0.0029964868
-0.005353081
-0.0010954516
5.4691895E-4
-0.0014378222
-0.004212046
-0.003843899
-0.0015186401
-3.6864015E-4
0.0010537305
4.3610108E-4
3.5610108E-4
3.5610108E-4
-7.362695E-4
-0.0047904933
-0.018367387
-0.0016721289
-2.1289063E-6
4.902417E-4
-0.0015844995
-3.8687012E-4
-7.4924075E-4
5.931299E-4
0.001457871
0.0019149829
0.0029144653
0.0028239477
0.00309343
0.0036952833
0.0037071363
0.002414248
0.0015189892
8.7135984E-4
4.4373047E-4
7.6610106E-4
-2.738989E-4
-0.0031233814
-0.0016281225
-8.004932E-4
-0.0011652344
-0.0026547168
-0.0021818287
-3.318286E-4
-3.618286E-4
-2.818286E-4
-1.5182862E-4
0.0022452832
0.0032047657
0.0036466187
0.0043908423
0.004265066
0.0021721777
0.0025492895
8.1166014E-4
-0.001273081
-0.0028125634
-0.0014273047
-0.0043715285
-0.0032210108
-0.0030404932
-0.0033899755
-0.002729458
-0.0032089404
-0.0012636817
-0.0011160523
0.001408689
0.0033881713
0.0035100244
0.002969507
0.0035613598
0.0029908423
0.0012555835
-4.416504E-6
-0.0010767871
-0.0016515283
-0.0015862696
-5.8864016E-4
-0.002615752
-0.0031752344
-0.0035470873
-0.0033165698
-0.0022536817
-7.1605225E-4
-2.3605225E-4
3.1394776E-4
0.001758689
0.004020542
0.003412395
9.7476563E-4
0.0011071363
0.001984248
0.0010666186
0.0012313599
-2.3864013E-4
-0.0015633814
-4.3575195E-4
-0.002182864
-0.001347605
-0.0029870875
-0.0014818286
-0.0020589405
-0.0027584229
-0.0012131641
-0.0010255347
-0.0011502759
-0.0013650171
0.0033644654
0.00629343
0.0051100245
0.006118989
0.004010842
0.0018755835
4.5583496E-5
3.655835E-4
-2.844165E-4
-0.0014091578
-0.0024362695
-0.003115752
-0.0032052344
-0.0023023463
-0.003674199
-0.002021311
-0.0011560522
-0.0019331641
-0.0019802758
7.9209474E-4
0.0027015773
0.0038334301
0.0049200244
0.0050366186
0.0034684716
0.0023155834
4.279541E-4
-0.0021991576
-0.0036410107
-0.004305234
-0.002612346
-6.647168E-4
-0.001539458
-0.0019365698
-5.7894044E-4
0.0016758008
0.0020129126
8.5528323E-4
6.976538E-4
1.976538E-4
0.001832395
0.0039842483
0.0041984715
0.004892695
0.0053992895
0.0050858837
0.0031653661
0.001942478
3.8484862E-4
0.0011295899
-5.327808E-4
-1.7278077E-4
-0.002662263
-0.0032817456
-0.0035835986
-0.0025007105
-0.0020178223
9.5454836E-4
8.9691894E-4
-7.308106E-5
0.0014816602
0.0036235133
0.0036153663
0.0040572193
0.0031967016
0.003938555
0.001883296
0.0012180371
-3.943335E-4
-0.0013090747
-0.0023461864
-0.0029856688
-0.019327305
-0.008493382
2.7661867E-4
-0.0016381226
-0.002997605
-0.0014623462
0.001272395
0.0026518775
-4.5049316E-4
-3.7049316E-4
0.0041837306
0.004217954
0.0027074364
0.0023245483
1.5454834E-4
-0.0022425635
-0.0019496753
-3.6967528E-4
-0.0021367872
-0.0010191577
-1.5915772E-4
-0.0021462694
-0.0037481226
-0.003337605
3.239502E-5
5.9476565E-4
5.671362E-4
0.0021642481
-2.5575195E-4
2.6424805E-4
0.0043884716
0.005095066
0.0041692895
0.0013540308
4.964014E-4
9.640137E-5
-6.3598636E-5
-4.9596926E-4
-0.0010683398
-0.0022054517
-0.003084934
-0.0010973046
3.7506592E-4
1.15065915E-4
0.0011074365
3.2743652E-4
-0.0020996754
0.0031098071
0.002026919
0.0029264013
0.0033958838
0.0037077367
0.0028972193
0.0013919604
5.4433104E-4
0.0010667016
9.990722E-4
-8.5329835E-4
-0.0019504102
-0.002017522
-0.0011422632
-0.002519375
-0.0012641163
-7.5648684E-4
-0.0026459692
-0.002393081
-1.4308105E-4
0.0018816602
0.0032511426
0.003190625
0.0030201075
0.0034319605
0.003191443
0.0030309253
5.732959E-4
3.332959E-4
1.232959E-4
-0.0011190748
-0.0027285572
-0.0017832983
-0.00264041
-0.002637522
-0.0013022632
-0.0026617455
-0.0017764869
0.0012582544
6.00625E-4
0.003892478
0.0044967015
0.0037885546
0.0038904077
0.0036022607
0.0038241139
0.0038959668
0.001230708
-3.79292E-4
-0.002256404
-0.0034482568
-0.0029677392
-0.0033272216
-0.0021643336
-0.0015090747
-0.0027785571
-0.0037204102
-0.0037722632
-0.002219375
-0.0017041162
9.588379E-5
0.0019029956
0.0044372194
0.0058561843
0.0069175195
0.0063564843
0.0064178198
0.007231526
0.009199973
0.0068713087
0.0018860498
-0.002111062
-0.0026381738
-0.0031276562
-0.0053042504
-0.002653733
0.0011910083
0.004705232
0.0048894556
0.0054260497
0.0064173853
0.0032068677
-2.7313232E-4
-0.0014478735
-0.0075715794
-0.010192397
-0.017939292
-0.013901963
-0.005518557
-0.0032180396
-0.002967522
-0.003969375
-3.9174562E-4
6.00625E-4
-0.0013041162
-0.0029535987
-0.0049078222
-0.005886787
-0.0052133813
-0.0038152344
-2.5523436E-4
0.0018695068
0.0062184716
0.005515066
0.0037769189
0.0017916602
0.0027411426
0.005277737
0.005624331
0.0068856664
0.006144631
0.004638855
0.0056554493
0.006124414
0.002631526
-2.7847412E-4
-0.0031779564
-0.0060969214
-0.008292998
-0.010856187
-0.017150711
-0.013613381
-0.008589458
0.0030300245
0.026362995
0.04370049
0.064934365
0.08183039
0.0844659
0.073978215
0.05192179
0.027447129
0.006468464
-0.012961836
-0.03067903
-0.044878896
-0.051752467
-0.055717893
-0.055923317
-0.043940812
-0.027436154
-0.014111197
0.00865488
0.019636516
0.027521858
0.0400375
0.041347884
0.0614099
0.08854726
0.09876781
0.079056725
0.03326103
-0.017765861
-0.06066551
-0.031385075
0.05355324
0.17337848
0.26394582
0.2810577
0.2640774
0.18678294
0.07431526
-0.045226984
-0.15674007
-0.23224784
-0.25148726
-0.28230387
-0.2612941
-0.19303097
-0.11522367
-0.0637728
-0.017577324
0.036648836
0.049292926
0.0039047778
-0.050424054
-0.09315564
-0.12737627
-0.13876246
-0.14742473
-0.13789855
-0.10717518
-0.06716616
-0.022587277
0.024378581
0.06065823
0.0774724
0.07852895
0.054922
0.0253426
-0.0096082175
-0.046495195
-0.050434027
-0.04128441
-0.024350269
-0.020134276
-0.010035093
0.005833872
0.019585507
0.024873737
0.02901382
0.04011946
0.03148903
0.025087258
0.030012082
0.019783719
0.030600913
0.07132375
0.1499255
0.26114574
0.36608547
0.38883632
0.36604607
0.31940883
0.25117826
0.13493259
-6.0977536E-4
-0.13752122
-0.25857198
-0.35961038
-0.35738167
-0.22330338
-0.11138186
-0.019433491
0.070226975
0.08551485
0.04381235
-0.032259587
-0.14103289
-0.22997355
-0.22109814
-0.19474976
-0.16113469
-0.1230811
-0.09834929
-0.07558635
-0.04402384
0.021774907
0.09325649
0.14286454
0.14006309
0.1024955
0.04821722
-0.019754417
-0.03126161
0.0065997243
6.420947E-4
0.0017468359
-0.003935017
-0.017079541
-0.0020766528
-0.003448506
-0.024586735
-0.038687635
-0.046222243
-0.03487129
-0.042524047
-0.046158653
-0.023934511
4.2785887E-4
0.013078159
0.019559795
0.027927507
0.03768604
0.044405904
0.05557133
0.07453602
0.08270679
0.08563466
0.07747883
0.06527271
0.033557013
0.037063174
0.042285927
0.016768081
-0.019343555
-0.033497863
-0.031015055
-0.014852468
-0.007456174
-0.026629146
-0.053235088
-0.047564436
-0.028884519
-0.022395637
-0.01580542
-0.010248608
-0.008867056
-0.0058060205
-6.4839114E-4
-0.0028678735
-0.009156321
0.01370635
0.026469322
0.028689405
0.035420824
0.023074312
0.009102759
0.033197064
0.035718486
2.6848388E-4
-0.020085523
-0.024773752
-0.026306724
-0.014491765
-0.011047324
-0.012817625
-0.011583184
-0.009884002
-0.0080500785
-0.006129043
-0.005948008
-0.0066093435
-0.0061183083
-0.0042125317
-8.4490236E-4
-4.4727296E-4
-0.0016620142
-0.0022191259
0.0023579858
0.0032674682
0.00251458
0.0048088036
0.004583027
0.0033125097
0.0043267333
0.0034385864
6.4095703E-4
0.0013356983
7.8806886E-4
1.6806884E-4
-0.0010243017
-0.0024714135
-0.002770896
-0.0017856372
-8.180078E-4
0.0016967334
0.0028362158
0.0037980687
0.0028675513
0.0028870336
0.00786074
0.0117286695
0.008214746
0.0053113406
0.0018760816
0.0045103054
0.0055968994
0.003006382
-0.0027231006
-0.0073868064
-0.007098142
-0.0071594776
-0.006680813
-0.0050874073
-0.004491631
-0.0042058546
-0.004730078
-0.00226719
-6.5956055E-4
3.6043944E-4
-3.8193114E-4
2.6806883E-4
0.0027075512
0.0040294044
0.0031688868
0.0022359986
5.083691E-4
-2.8163087E-4
1.0836914E-4
-7.140015E-4
-0.002743484
-0.0029129663
-0.002240078
-0.0038719312
-0.004013784
-0.0039756373
-0.002632749
-0.0033222314
-0.003011714
-0.0014564551
-5.088257E-4
5.035449E-4
9.2591555E-4
0.0034477685
0.0011525098
2.0250976E-4
0.003414363
0.0020214745
8.638452E-4
-4.085254E-4
-0.0019256372
-0.0055722315
-0.0071235667
-0.009152014
-0.005568608
-0.0052852025
-0.0041470556
-0.0036689087
-0.0045931325
-0.002270244
-5.6261476E-4
1.5738525E-4
0.002064497
0.0012992383
4.416089E-4
6.339795E-4
7.063501E-4
0.0011910913
0.0030905737
0.0016553149
4.4768554E-4
8.1005617E-4
5.2242674E-4
-0.0011099438
-0.0024070556
-0.0027065382
-0.0015612793
-0.0033407616
-0.0028902441
-0.0031297265
-0.0020068383
0.004557385
-0.0016573559
0.004074497
0.01746902
0.018548286
0.013983328
0.005459922
-0.0031895605
-0.008808007
-0.01526542
-0.016125202
-0.014360244
-0.011195803
-0.0077195093
-0.006820845
-0.00577981
-9.621802E-4
0.001732561
0.0028220434
0.0031315258
0.0047157495
0.0048799734
0.002617085
-5.291504E-5
-3.5291503E-4
-0.0071342504
-0.020015886
-0.0032253687
-5.7773927E-4
-0.0029472217
-0.0037290747
-0.0032485572
-0.0031780396
-0.003137522
-0.0043117455
-0.0044259694
-0.0037878223
-0.004242046
-0.005911011
-0.0031504931
-0.001977605
9.947657E-4
0.003034248
0.0026637304
0.002683213
0.0038750658
0.0045192894
0.0041111424
0.0036129956
0.002692478
-1.5752198E-4
-0.0012422631
-0.005188857
-0.009889675
-0.008728122
-0.0058670873
-0.0047013112
-0.0049879053
-0.004129758
-0.0028192408
-4.916113E-4
-0.0013763525
-0.0011910937
4.1127685E-4
0.0020083888
0.0025055006
-1.4499512E-5
-0.0016692408
-4.0161132E-4
-8.5398194E-4
-2.9398192E-4
-0.0025410939
-0.004505317
-0.00403717
-0.0023342823
-0.002101394
-3.3139405E-4
0.0012533471
0.0010757177
6.8808836E-4
0.0035199414
0.004734165
0.0031236475
0.0025807593
0.0035626122
0.0031020946
0.0025692065
0.0018239478
7.863184E-4
7.4868894E-4
3.8105957E-4
8.134302E-4
2.8343018E-4
2.534302E-4
-3.165698E-4
-0.001751311
-0.002278423
-0.0022755347
-8.6790527E-4
0.0020692064
0.0019663183
0.0016010596
0.002700542
0.0019176538
-3.234619E-5
5.500244E-4
-9.523462E-4
-0.002229458
-0.0031989405
-0.0035407934
-0.0039326465
-0.0028221288
-0.0040839817
-0.003655835
-0.0043700584
-0.0058690235
-0.0038508764
-0.0025879883
-9.303589E-4
0.0012143824
0.0032838648
0.0019309765
0.0029004589
0.0020075708
0.0028370533
0.0018317944
-0.0012629468
-0.0030224293
-4.3479982E-4
5.875708E-4
-0.001919541
-0.0034513942
-0.0028808764
-0.0024179884
-2.0798828E-4
-0.0023251001
-0.0027245826
-0.0011169531
3.7541747E-4
-1.1458252E-4
0.0011801587
0.0022772704
7.296411E-4
0.0014943823
1.4438233E-4
0.0011367529
0.0017914941
-5.808765E-4
3.8149414E-4
-8.0087647E-4
-0.0014056177
-0.0031351
-0.0029745826
-0.0026740648
-0.0029235473
-0.0040154005
-0.0024225123
-0.0010348829
-6.172534E-4
0.0024698584
0.004314082
0.004508306
0.0040901587
0.0057791234
0.0035409767
0.0011757178
5.180884E-4
-0.0011142822
-5.166528E-4
-0.003788506
-0.0050051003
-0.0030945826
-0.0026740648
-0.0031135473
-0.0025206592
-0.0049972534
-0.0061262185
-0.015766
-0.0071773366
0.0021897755
0.0025568872
0.0032063697
0.0038182226
0.005154817
0.0053114113
0.0038532643
0.002450376
0.0027398583
1.298584E-4
-0.0016548828
-0.001489624
-0.003561477
-0.0015762183
8.6615235E-4
-3.7621826E-4
4.378174E-5
3.378174E-5
5.1615236E-4
0.002023264
0.0020603759
0.0025274877
0.00304697
0.0038288233
0.0036106762
0.0041025295
0.0034643824
6.867529E-4
0.0026862354
0.002343347
0.002480459
-3.1954102E-4
-4.7191163E-4
-0.0012466528
-2.1665283E-4
8.2571775E-4
-0.0012090234
-0.0012237646
-3.5376466E-4
0.001118606
0.0018957178
0.0020728295
0.0025899415
0.0036317944
0.0018565357
0.002746018
7.983887E-4
-9.339819E-4
-1.13981936E-4
9.083887E-4
2.8388671E-5
-0.0024887233
-0.0027282056
-0.0017029467
-0.0031824291
-3.424292E-4
3.575708E-4
0.001292312
7.5468264E-4
1.5468262E-4
0.0018394238
0.0032989061
0.0045831297
0.005569724
0.008095801
0.0060047656
0.0063837306
0.006412695
0.0053492896
0.0044635134
0.0015682544
-0.0013264868
-0.001601228
-0.0020683398
-0.0021854516
-0.0039373045
-0.0023044166
1.955835E-4
-7.767871E-4
0.0010455835
0.0016303248
0.0015950659
0.0031845483
0.004188772
0.004070625
0.0045048487
0.0036867016
0.0027161841
0.002203296
0.0023504077
9.3277835E-4
-0.0016319628
-0.001356704
-0.0032561866
-0.00476041
-0.0027998926
-0.003319375
-0.0020064868
-0.001831228
-0.0029807105
-0.0021478222
-0.012435752
-0.0057447166
0.005914248
0.005280842
0.0049574366
0.0032569189
0.0022040308
6.403076E-5
0.0023611425
0.0014958838
-7.5648684E-4
-7.188574E-4
-3.0885742E-4
-0.0022659693
-0.0034678222
-0.0013125634
-6.7493407E-4
0.0015698072
0.002146919
0.0033664014
0.0037682543
0.0049348488
0.004789072
0.0051656663
0.0039475197
0.0026146313
0.004478855
0.004203079
0.0018878198
0.001652561
2.9256105E-4
-7.098096E-4
-0.0011545508
-9.469214E-4
-1.3692139E-4
-0.001009292
-4.416626E-4
2.483374E-4
1.18337404E-4
6.90708E-4
0.0013154492
0.0010078198
0.0030573022
0.0036691553
0.0019962671
0.0017110083
0.0015357495
0.0010381201
5.304907E-4
-0.0018442505
-3.742505E-4
-0.0014889917
-0.0017537329
-0.0020608448
-8.432153E-4
-2.0321533E-4
-4.6558594E-4
-5.1795656E-4
7.8441406E-4
0.0025515258
0.0025186378
0.00323812
0.001955232
0.0020823437
0.0029118261
0.0030113086
0.0018984204
5.2079104E-4
3.20791E-4
-9.0157957E-4
-0.0015363208
-0.001551062
-0.0020381738
-0.0016429151
-0.0016376562
-0.0030571388
-0.0013318799
-0.0012066211
2.033789E-4
0.003555232
0.0026847143
0.0029741968
0.0023313086
0.0026084203
0.0025555321
0.0034873853
0.0021144971
0.002491609
-4.407617E-4
-0.0028602441
-0.002077356
-0.0032868383
-0.0037386913
-0.0029881739
-0.0033376561
-0.0027471387
-0.0024842506
-7.4250485E-5
-5.266211E-4
-0.0019037329
-0.003885586
-3.3558594E-4
0.0013991552
0.0027686376
0.0026457496
0.004169973
0.0036018263
0.0033813086
0.0014560499
-3.739502E-4
-9.763208E-4
-0.001171062
-0.0015358032
-0.002592915
-0.0011152857
-5.576562E-4
-0.0016923974
-0.0018571387
-0.0013618799
-0.001356621
1.7337891E-4
0.0017481201
0.0032576025
0.0043518264
0.00459605
0.0023431617
0.002712644
0.0025697558
0.001274497
0.002121609
3.616089E-4
-0.0025255028
-0.0018102442
-0.0026797266
-0.0025168385
1.6316162E-4
-4.7920897E-4
-5.315796E-4
0.0012331617
4.4553223E-4
9.279028E-4
0.0027973852
0.0032668677
0.0012316089
0.0017163501
2.963501E-4
0.0013610913
-4.012793E-4
-4.836499E-4
-8.860205E-4
-0.0010183911
-0.0016031323
-0.0013978735
-0.0020249854
-0.0051515796
-0.005418174
-0.0022752855
-4.2765625E-4
0.0015070849
0.0030065675
0.0034784204
0.0039202734
0.004624497
0.0029539794
0.0022310913
0.0037129442
0.0024800561
4.1242674E-4
5.1479734E-4
-3.2520265E-4
-0.0022723144
-0.0010246851
-0.0021517968
-0.0030012792
-0.0026407617
-0.0025978736
-6.502441E-4
-9.5261476E-4
-0.001497356
-0.0015620971
0.001762644
0.003634497
0.0026216088
0.0022287208
0.0024958325
0.0039976854
0.0043019094
0.0029713917
0.0023585034
2.8503418E-5
-0.0018562378
-0.001250979
0.0028885035
0.0021256153
1.5615235E-5
-7.8675535E-4
-0.0022638673
-0.001940979
-0.0017757202
0.0010766503
5.29021E-4
0.0015237622
0.0012485035
4.20874E-4
-0.005778091
-0.016077874
8.244971E-4
0.0053010914
0.0038229444
3.6294432E-4
-0.0011294263
-8.4179686E-4
-3.6179688E-4
-0.0025289087
-0.0010512793
-5.936499E-4
6.687207E-4
7.410913E-4
0.0015058325
0.0012905737
0.0016353149
0.0029447973
0.0032742799
0.003816133
0.0039279857
0.0028574683
0.00200458
6.969507E-4
0.0012716919
-0.0010506787
-0.005107273
-0.0049638674
-0.01728839
-0.012146321
-0.013748991
-0.007612698
0.0010296728
0.0032391553
0.0038210084
0.0038828612
0.004807085
0.0049013086
0.004905532
0.0052221264
0.0057210913
0.004225315
0.0026647975
-2.5520264E-4
-5.4757326E-4
-3.7994384E-4
-0.0014046851
-0.0018394262
-0.0027789087
-0.0025560204
-0.002875503
-0.0010378736
0.0013768676
-1.4313232E-4
-3.1313233E-4
4.492383E-4
0.00214635
0.003668203
0.0038300562
0.0042542797
0.0034861327
0.0023332445
0.0034550976
0.00313458
6.469507E-4
2.2695068E-4
3.7932128E-4
-0.0022877904
-0.002907273
-0.0033767554
-0.0038086085
-0.004322832
-0.0033723144
-0.0014470557
-8.705566E-5
-0.0019541674
-5.565381E-4
5.858325E-4
8.882031E-4
0.0029676855
0.004831909
0.0043961327
0.0024232445
0.0027827271
6.5509765E-4
-2.2490234E-4
1.4509766E-4
-0.0017996435
-0.002779126
-0.0014838672
8.085034E-4
-6.3386717E-4
-0.0016286084
6.037622E-4
5.561328E-4
7.613281E-5
-5.2623777E-4
6.3613284E-4
0.001480874
0.0033903564
0.0040022093
-5.7016115E-4
-0.0011349024
0.0017498388
0.0022969507
0.0011416919
2.416919E-4
-8.406787E-4
-8.5304934E-4
-8.654199E-4
3.245801E-4
0.0010469507
-3.030493E-4
-0.0012477905
-0.0013025317
-0.001347273
0.0021898388
0.0025969506
0.0017016919
0.0022788036
0.0018859155
0.0016606568
0.0025277685
0.003357251
5.796216E-4
-0.0022674901
-0.005776455
-0.002423567
-0.00339542
-0.0041696434
-0.004193867
-0.0027033496
-0.0013280908
-9.0046145E-4
-7.42832E-4
2.8716796E-4
0.0010195386
0.003169021
0.003610874
0.0037627271
0.0027922094
0.004266433
0.0023535448
0.0012982861
3.7828615E-4
-0.001326455
-4.2882568E-4
-7.411963E-4
-0.0028506787
-0.004614902
-0.004399126
-0.004070979
-0.0032004614
-0.0027399438
-0.0019170557
-0.0025441675
-0.0025012793
-8.736499E-4
0.0033358326
0.0035176855
0.002757168
7.095386E-4
0.002649021
0.0020961328
0.001690874
5.1324465E-4
-0.0035786084
-0.0021457202
-0.0031952027
-0.003334685
-0.0028441674
-0.0037860204
-0.0038978735
-0.0018949853
8.7738526E-4
7.5975584E-4
9.921264E-4
0.0040539796
0.002853462
0.0027729443
0.0017376855
0.003277168
0.0031666504
5.19021E-4
2.89021E-4
-0.0010433496
-0.0013980909
-0.001362832
-0.0026623146
-0.0028217968
-0.0015165381
-7.489087E-4
-0.0012136499
5.487207E-4
4.210913E-4
0.0015958325
0.0022029444
0.0021500562
0.002117168
0.0029466504
-0.0014680908
-0.014143133
0.0033263501
0.004480574
0.001235315
2.4531494E-4
0.0016000562
-9.923144E-4
-0.0016270557
-8.7942625E-4
-0.002326538
1.5346191E-4
-9.589087E-4
1.4109131E-4
0.0012858325
0.0011905737
0.0024976856
0.004891909
0.004356133
0.0038879858
0.0047222096
0.0050088037
0.0038206568
0.0020277686
0.0019748805
7.47251E-4
3.7250975E-5
-9.1511966E-4
1.2488037E-4
-8.0749026E-4
-8.8986085E-4
-0.0019469727
-0.0016617138
-0.0013464551
-4.688257E-4
-3.088257E-4
5.1354495E-4
0.0016782861
0.0013830273
2.2302734E-4
0.0010853979
0.0014901392
0.002377251
0.0013919922
0.0012767334
3.67334E-5
-9.4563724E-4
-7.480078E-4
-0.0024751197
-0.0037569727
-0.0035388258
-0.0039006786
-0.004434902
-0.0021420142
-0.001919126
-0.0032686084
-0.0014433496
0.0017013917
0.0023385035
0.004702727
0.0035045801
0.0018193213
0.0010616919
3.316919E-4
7.1691895E-5
3.116919E-4
-0.0014230494
-0.0012677906
-0.0014025318
4.898389E-4
-0.002327273
-0.0028067555
-2.5675536E-4
2.5324462E-4
7.156152E-4
0.0014703565
0.0013350977
0.0034669507
0.0040788036
0.002958286
0.0037901392
0.003921992
0.0017467334
-6.956372E-4
-0.0036974903
-0.012837791
-0.018877055
-3.8942628E-4
-1.942627E-5
-0.0017141675
-0.0017589087
-0.00145365
-4.160205E-4
-4.602051E-5
8.063501E-4
0.0015410914
0.0026182032
0.002625315
0.0022724268
0.001677168
0.0029166504
0.0028661329
0.0017008741
0.0015456153
0.0011079859
-2.2201416E-4