-0.008636074
-0.0044902978
-0.0049068923
-0.004301116
-0.0032205982
-0.0018553394
-6.9770997E-4
-5.1008054E-4
9.6229004E-4
0.0016470313
0.002024143
4.5651366E-4
-9.558569E-4
-0.0023629689
-0.0044471924
-0.0051137866
-0.0040456397
-0.0058146045
-0.0054311985
-0.0043154224
-0.004289646
-0.0045938697
-0.004518093
-0.0026775757
-0.0020946874
6.476831E-4
0.0015424243
0.0031119068
0.0017366479
6.4901856E-4
4.9018556E-5
-0.0014757226
-0.0042099464
-0.0032094286
-0.0048636524
-0.006072617
-0.005781582
-0.0064205467
-0.008236623
-0.006035588
-0.0054021827
-0.0057911472
-0.005287742
-0.005104336
-0.003896189
-0.0032156713
-0.0014304126
-0.0015451538
-0.001849895
-4.3226563E-4
-0.0013370068
-0.0019041187
-0.002793601
-0.0032130836
-0.0038949365
-0.0051915306
-0.005618125
-0.005514719
-0.0038865723
-0.0050231665
-0.00446739
-0.0048516137
-0.0037834668
-0.00394532
-0.0031948022
-0.0012795435
0.002709939
0.004051792
0.0050583864
0.0029878686
9.4023923E-4
-9.976074E-5
-0.001164502
-1.4501953E-5
-0.0042287256
-0.0073124315
-0.007998508
-0.008776955
-0.008985403
-0.0082114795
-0.010072297
-0.0075960034
-0.004860227
-0.00367208
-0.0016368213
5.8554934E-4
0.0013402905
0.0012850318
-4.1733886E-4
5.350317E-4
0.001799773
-0.0014349683
-0.0029344507
-0.0037763037
-0.005142898
-0.003664751
-0.003696604
-0.006235569
-0.0064969044
-0.00674824
-0.007009575
-0.0052761696
-0.004830393
-0.004062246
-5.546167E-4
-8.069873E-4
-3.069873E-4
-9.493579E-4
-0.0011840991
-0.0019212109
-0.0026383228
-0.0041725463
-0.00425677
-0.0046309936
-0.0058299587
-0.0062989234
-0.0054955175
-0.004769741
-0.0071734474
-0.0064647826
-0.006656118
-0.0055027124
-0.004246936
-0.0030064185
-5.6418456E-5
0.0011483227
1.9832276E-4
-0.0013164184
-0.0040182713
-0.003317754
-0.0021348656
-0.004399089
-0.0056780544
-0.006297019
-0.009055466
-0.018964732
-0.031221926
-0.010205115
-0.007268821
-0.005595415
-0.00628438
-0.006435715
-0.0037975684
-0.0027670509
-0.001451792
6.005786E-4
9.729492E-4
0.0035948022
0.002501914
0.0010642847
5.7665526E-4
-3.1334473E-4
1.3665528E-4
-0.0019504565
-0.0036523095
-0.004876533
-0.005755498
-0.0056520924
-0.008078169
-0.0057871337
-0.0048513575
-0.0052679516
-0.0043021752
-0.0040940284
-0.0034058813
-0.002512993
-4.0536377E-4
-1.7536376E-4
-0.0010877344
-8.40105E-4
2.0989502E-4
-0.0013948462
-0.0029143286
-0.0044685523
-0.003910405
-0.0034222582
-0.0049788523
-0.006710188
-0.0069515235
-0.0062904884
-0.0072341943
-0.0060331593
-0.0053597535
-0.0057287184
-0.004872942
-0.0033124243
-0.0018895362
-0.001926648
-0.003908501
-2.0850098E-4
-5.708716E-4
-0.0024279833
-0.004672207
-0.0052688015
-0.0038906543
-0.0050872485
-0.0039391015
-0.0034509546
-0.0036028076
-0.0035746607
-0.0047788844
-0.006297849
-0.0052144434
-0.004308667
-0.0019557788
-7.9814944E-4
0.0012965918
0.001221333
0.0032908155
0.0054474096
0.0021645215
-4.4784913E-4
-0.0024449609
-0.0030644434
-0.0024915552
-0.003913408
-0.005490002
-0.0061589675
-0.0056655616
-0.0052221557
-0.006493491
-0.006032456
-0.0046866797
-0.0033985327
-0.0018956446
-0.0010080151
2.8198486E-4
0.0011367261
4.6726072E-5
-6.556445E-4
-2.2564453E-4
-0.0015903858
-0.0022874975
-0.0016722388
-0.0040140916
-0.0041883155
-0.0062272805
-0.009305728
-0.006487063
-0.0058360277
-0.0060249926
-0.004759216
-0.0053058104
-0.006757146
-0.006508481
-0.026691454
-0.011497011
0.0039548413
0.006153806
0.00484803
0.0042722533
0.0041141063
-0.0010482642
-0.0030877467
-0.003317229
-0.0045714527
-0.004938047
-0.0037498998
-0.004936494
-0.0035183472
-0.006217312
-0.007943389
-0.005339983
-0.0026370948
-0.0018418359
7.5053464E-4
-4.0183595E-4
0.0012229052
0.0010752758
5.476465E-4
-0.0012270947
-0.0025942065
-0.003173689
-0.0045779124
-0.005184507
-0.0067058424
-0.007941919
-0.009020366
-0.012038296
-0.012026225
-0.011391785
-0.012129715
-0.0127300145
-0.011957944
-0.011925874
-0.011541433
-0.011196992
-0.012547293
-0.012155222
-0.01041841
-0.009076858
-0.0070981933
-0.004662417
-0.0031718994
-4.0427002E-4
3.4573E-4
7.581006E-4
0.0023452125
-0.0017895288
0.0036223242
0.004876548
0.0062755127
0.00835159
0.0077552954
0.009646113
0.010279302
0.012649602
0.016119385
0.017003909
0.016686061
0.016768215
0.014965627
0.014220669
0.01345334
0.01194127
0.011899199
0.009830017
0.011887947
0.011975876
0.009866694
0.008482771
0.008981219
0.008779665
0.010120483
0.012458413
0.014213455
0.014528496
0.015235908
0.0146209495
0.01391362
0.0124615505
0.010814738
0.0068360744
0.005995039
0.0048592626
0.0050958567
0.0043800804
0.003249563
0.003611416
0.0025285278
0.0013032691
0.0014380103
0.001885122
0.0017898633
0.0018546045
0.0016793457
-0.0019077661
-0.021936513
-0.0045007374
0.0048734862
0.0051300805
-0.0037517725
-0.020615779
-0.018442674
-0.00806875
0.0066025853
0.00554918
0.0031486622
7.310327E-4
-7.9133786E-4
-2.313379E-4
3.810327E-4
5.434033E-4
6.4577395E-4
0.0016805151
0.002307627
0.005564221
0.0065755565
0.0056621507
0.0046063745
0.003345857
0.0029153393
0.0023724511
-3.2754883E-4
-2.7754882E-4
-0.00132229
-0.004104143
-0.0057331077
-0.0054297023
-0.0027391845
-0.0012139258
-0.0024110377
-0.0010534083
-0.0018181495
-9.2052005E-4
0.0025665918
0.003066074
0.0041079274
0.001975039
0.002542151
0.0039040039
0.004105857
0.0023029686
-4.0940187E-4
-0.0020265137
-0.0027659961
-0.0029854786
-0.002674961
-0.0033444434
-0.0038062963
-0.0038981494
-0.0036800024
-0.0018647437
-6.4711424E-4
-0.0022142262
-0.0060031908
-0.0010655615
9.168091E-4
-2.2319092E-4
0.0012315502
0.0011562915
6.286621E-4
6.010327E-4
-0.0031684497
-0.0029879322
-0.002165044
-0.003676897
-0.0046711206
-0.005657715
-0.0056966795
-0.0063556447
-0.00663698
-0.0048812036
-0.003380686
-0.0015454273
8.269434E-4
5.1931397E-4
0.003601167
0.0032106494
0.005447244
0.0041814675
0.0026409498
-1.4905029E-4
4.933203E-4
-8.390503E-4
-0.002236162
-0.0031956446
-0.005322239
-0.0039140917
-0.005380686
-0.00494728
-0.005866245
-0.0066075805
-0.0046318043
-0.001938916
-6.412866E-4
1.0871338E-4
0.0025558253
-0.001218916
-0.0042231395
9.0923096E-4
-1.7076904E-4
4.2160155E-4
-3.4839843E-4
-0.0014631397
-0.0022102515
-0.003309734
-0.003641587
-0.00382344
-0.0044276635
-0.0049842577
-0.0044784816
-0.004832705
-0.0032521875
-0.0019892994
-0.0057782643
-0.030013088
-0.0050896825
0.0037721705
0.006723506
0.0060224705
0.0042166943
0.0024738063
0.002580918
-1.7908202E-4
-0.0016838233
-0.0014585644
-0.0019356763
-0.002072788
-0.0019098999
-0.0033493824
-0.0045436057
-0.0045078294
-0.0024849414
-9.27312E-4
0.0010850586
0.003094541
0.004066394
0.0031558764
0.002735359
0.0028348414
0.0017495825
2.0958252E-4
-2.8041747E-4
-0.0013751587
-0.0026422704
-0.0025693823
-0.0019064941
-0.0020836059
-0.003435459
-0.0032749414
-0.0037967945
-0.0021439062
-0.002001018
-0.0010133886
-5.157593E-4
0.0012889819
0.0023860938
0.0036179468
0.005484541
0.005311135
0.0050577293
0.002857212
0.0013119532
-3.480469E-4
-0.0024851586
-0.004147012
-0.0040188646
-0.0057978295
-0.008163907
-0.0024410181
-0.0029005005
-0.002659983
-7.523535E-4
9.800171E-4
0.0035918702
0.004426094
0.0038579467
0.0039298
0.0037916529
0.0032311352
0.0025882472
0.0014829882
7.453589E-4
3.653589E-4
-0.0013893823
-0.0026164942
-0.002203606
-0.0023207178
-0.0037425708
-0.004256794
-0.0039686477
-0.00299813
-0.0016828711
-7.452417E-4
-0.0011599829
0.0026371288
0.0031666113
0.0029060938
0.0042803176
0.0018650586
-0.0018796826
-0.019511318
-0.021027695
-0.0013924366
9.299341E-4
9.523047E-4
0.0012070459
3.670459E-4
-1.6295411E-4
-0.002310066
-0.0022371777
-0.0010695483
-3.3954834E-4
4.2282225E-4
0.0035146752
0.0038565283
0.006527864
0.005014458
0.005281052
0.0033505347
0.0026800171
0.0017247583
-7.876123E-4
-0.002074724
-0.002491836
-0.0013165772
-0.0021936889
-0.0021308009
-0.0022079125
-0.003087395
-0.0029468774
-0.0016116187
-0.0015163599
-1.0635986E-4
0.0014883813
0.0030578638
0.0035897167
0.0036515698
0.0029210523
0.0038929053
0.004797129
0.0027566114
0.0016513525
0.0015060938
9.2846435E-4
-0.0018162768
-0.00376813
-0.0044923536
-0.002741836
-0.004103689
-0.0042579127
-0.003287395
-7.197656E-4
8.1260497E-4
3.5260498E-4
0.0012273462
0.001954458
0.0045186817
0.0063676466
0.00462187
0.002548982
0.0021060938
-8.462769E-4
-0.0016410181
-0.0014857593
-0.002602871
-0.004034724
-0.0040265773
-0.0030860596
-0.0041179126
-0.0047621364
-0.00456636
-0.0026034717
-0.0015982129
2.9178712E-4
0.0017565283
0.0033860106
0.0035878639
0.0043120873
0.0034639405
0.0021510522
0.0013557934
-0.0019213184
-0.0017260596
-0.0021331713
-0.0028226539
-0.0038045067
-0.0044887303
-0.004772954
-0.004677178
-0.0041090306
-0.0022661425
-3.3614258E-4
-0.002855625
-0.0030151075
-3.1510743E-4
0.0025320044
0.0020491162
0.0035209693
0.0031604518
0.0026375635
0.0016123047
-8.200659E-4
-0.0028095483
-0.00262666
-0.0018414013
-0.0021485132
-0.0028279957
-0.0047022193
-0.0025793312
-0.0045635547
-0.0024606665
-0.0010130372
-0.002630149
-0.0018048901
3.6510985E-4
0.001839851
0.0027293335
0.002648816
0.0024059277
0.0020730395
1.0303955E-4
3.3039552E-5
4.2541017E-4
-1.04589846E-4
-8.2696043E-4
-0.0024040723
-0.0036859254
-0.0031254077
-0.0016501489
-0.0014048901
-0.0012996313
-0.0020167432
-0.0015814843
4.8088623E-4
0.0010732568
0.00349511
0.0030845923
0.0024217041
0.0052282983
0.0028877808
0.0019648925
3.148926E-4
1.1489258E-4
-0.0017598487
-0.0024169604
-0.0013817017
5.9066893E-4
5.1303953E-4
0.0011977807
0.0012125219
3.6252197E-4
0.0017772631
0.004139116
0.0053157103
0.0064570457
0.0071807518
0.005427346
0.006096311
0.005612905
0.0049194996
0.0050860937
0.004530317
0.0024374293
6.597998E-4
-0.0011849414
-0.0011496826
-0.003079165
-0.002456277
-0.0030757594
-0.0030552417
-0.0023423536
-0.0012170947
2.1290527E-4
0.0024100172
0.0031694996
0.0034313526
0.005497947
0.0043521705
0.0036740236
0.0031335058
0.0026829883
-2.7011718E-5
3.0298828E-4
6.353589E-4
-6.4701174E-4
-0.003186494
-0.0038083473
-0.0027578296
-0.0021549414
-0.0037367945
-0.0022839063
-4.8627687E-4
-7.1864744E-4
3.7135254E-4
0.0014060937
0.001180835
0.0045150584
0.007026394
0.006185359
0.0051819533
0.002419065
3.3906495E-4
4.906494E-5
-8.3330565E-4
-0.002802788
-0.0031522706
-9.346411E-4
-0.0026417528
-0.0022988648
-0.001683606
-0.0029530884
-0.0036549415
-5.27312E-4
-6.896826E-4
-3.6968262E-4
0.0013350586
0.004249282
0.005778247
0.0042124707
0.0031419531
2.1195313E-4
-0.0020451588
-0.002854641
-0.0028341236
-0.0016088648
-0.0048330883
-0.006052053
-0.0054086475
-0.004452871
-0.0049094656
-0.0050760596
-0.0037079125
-0.0025350244
-9.67395E-4
0.0029320875
0.0057310523
0.0051676463
0.006086611
0.0032260937
0.0021532055
0.0022403174
3.0317382E-5
-0.006751018
-0.02714636
-0.0025434718
0.0016612696
0.0010836401
-1.7635987E-4
3.5364015E-4
-5.5873045E-4
-0.0010411011
-6.7347166E-4
-8.358423E-4
-6.584229E-5
0.0010965284
0.00232364
0.0039154934
0.0026449757
0.0010773462
9.097168E-4
9.520874E-4
-4.802832E-4
-7.226538E-4
-3.426538E-4
-0.001667395
-0.002334507
-0.0044387304
-0.0039205835
-0.0039024365
-0.0040942896
-0.003163772
-0.002240884
-0.0023779955
1.0200439E-4
0.0036438573
0.004298081
0.0052146753
0.0056312694
0.004365493
0.0032749756
9.973462E-4
0.0027268287
0.0036686817
0.004512905
0.0042171287
0.0015318701
-6.205005E-4
-0.002709983
-0.0022170946
-0.001591836
-0.0032413183
-0.0026184302
-5.8080076E-4
-2.1080078E-4
7.3156983E-4
-5.308008E-4
-0.0049050245
-0.0055116187
-0.0039334716
-0.0039353245
-0.0041895485
-0.00256666
-0.0015314014
-0.0018861425
-7.785132E-4
-3.0851318E-4
-0.004512737
-0.005671702
-0.0015364429
7.1592774E-4
0.0035277808
0.0075014867
0.011899416
0.01713394
0.018733205
0.016325358
0.008051435
-0.0065599
-0.007403606
-0.010256794
-0.008855241
-0.0061742067
-0.00439843
-0.002495542
-0.0023526538
-0.0028121362
-0.0030516186
-0.003261101
-0.005277695
-0.0066390308
-0.008025107
-0.009233555
-0.0070848903
-0.004349114
-0.0025762257
-6.485962E-4
6.140381E-5
-4.859619E-5
4.7377442E-4
4.8614503E-4
0.0047203684
0.0064817043
0.0017164453
-0.0025606665
-0.0050872606
-0.0059962254
-0.0076499316
-0.006581267
-0.0067526028
-0.0114281615
-0.017742686
-0.025060916
-0.03083811
-0.0032275927
0.0037442602
0.006233225
0.010034043
0.011279602
0.0137722725
0.016042056
0.01741658
0.015313991
0.01049718
0.0036690333
-9.0966794E-5
8.90332E-5
0.003960886
0.0053574806
0.004361704
0.0028811865
-0.0024559253
-0.009414373
-0.012774673
-0.006696008
-0.0012907495
0.0021363623
0.004690586
0.0066819214
0.0052085156
0.004182739
0.0051893336
0.0061082984
0.007772004
0.009340452
0.009641269
0.008287346
0.008865793
0.010208982
0.01094217
0.0023992823
-0.009781536
-0.0108147245
-0.0058436887
-0.0019608007
0.0059781643
0.0139932055
0.011841135
-0.0029383472
-0.0112039065
-0.01594369
-0.011931619
-0.005588213
9.341577E-4
0.0042983815
0.0031378637
0.0024449755
-0.0050316188
-0.018630885
-0.028930968
-0.02926342
-0.0065347557
0.018894508
0.045799118
0.07197432
0.066955306
0.0440028
0.005479397
-0.017725127
0.003656726
0.047266074
0.072733656
0.080537304
0.07975859
0.07249617
0.056643967
0.003605818
-0.019275818
-0.009636636
0.0018381055
0.01905737
0.03987301
0.038061544
0.0022686548
-0.045643583
-0.09483228
-0.08786727
-0.054357953
-0.027935663
-0.0053222585
0.008423818
0.009012266
0.049066354
0.121328026
0.19461964
0.17733674
0.17197722
0.2061044
0.21663477
0.19143453
0.12781516
0.026005764
-0.08374737
-0.20161033
-0.24755788
-0.2204801
-0.17807956
-0.13462153
-0.10786053
-0.11062664
-0.13782808
-0.23990194
-0.20751385
-0.03214579
0.13008195
0.19326884
0.19221096
0.18780124
0.15840907
0.10116673
0.08683935
0.051740553
-0.010432636
-0.07712444
-0.1504262
-0.19035359
-0.18893623
-0.16463302
-0.14647292
-0.13399252
-0.12177419
-0.06802754
-0.006858877
0.037999652
0.0858599
0.123116314
0.1696697
0.19163182
0.13277906
-0.028761026
-0.12171269
-0.076934494
-0.009162942
0.0069183935
-0.035623025
-0.06307215
-0.00551875
0.072128825
0.07921774
0.008123819
-0.024002042
-0.028692124
-0.050670955
-0.062697716
-0.039130986
-0.060350634
-0.098941185
-0.11833337
-0.108002365
-0.07483706
-0.047044035
-0.05815657
-0.056181993
0.01628016
0.15219902
0.20427908
0.1894741
0.095302805
0.07375512
0.032989427
-0.07407289
-0.1176927
-0.09001481
-0.07133765
-0.100702934
-0.096274
-0.052467573
0.008588503
0.040456515
0.023510005
0.010080823
0.007194529
0.0020216405
0.0060106055
0.014898018
-5.7435303E-4
-0.027852066
-0.018258959
0.014476081
0.021342458
0.04055047
0.069698565
0.057768732
0.028196445
0.0069177807
0.005494375
0.0010567456
0.0039185984
-0.0070327367
-0.01651489
-0.019194156
-0.016806308
-0.0062352736
0.00489895
0.02327244
0.047271788
0.0661404
0.058412936
0.060232587
0.033929262
-0.0015554785
0.008350598
0.006149563
-0.029502891
-0.057443056
-0.040541068
-0.023956928
-0.019308565
-0.013148865
0.0016658765
0.015023288
0.016705442
0.014310484
0.009701301
0.01112686
9.99231E-4
-0.01273107
-0.0090895165
-6.3188723E-4
0.0063670776
0.020381084
0.022532202
-4.5016845E-4
-0.015047581
-0.01230551
-0.0054721045
-0.0012368457
-5.292163E-4
7.531543E-4
0.0033726366
0.0043068603
0.0025939723
-8.9839846E-4
-2.6839843E-4
0.0011239721
0.0022710839
0.004152937
0.0070342724
0.006995608
0.0066269436
0.006405908
0.0049925023
0.0032419849
0.0014667261
-0.0013880151
-0.0046722386
-0.0058012037
-0.0035830566
-0.00441728
-0.0032667627
-5.791333E-4
-1.91333E-5
-9.91333E-5
-0.0012038745
-3.738745E-4
-0.0018909863
0.0015537549
0.0031932374
0.002210349
0.0032298316
8.7220216E-4
-3.3779786E-4
-0.0018325391
-9.1490964E-4
9.77461E-4
8.746094E-5
-9.949097E-4
-0.0013996509
-0.0011220215
-0.003111504
-0.006220469
-0.008748916
-0.008414993
-0.007698699
-0.004672922
-0.0035447753
3.452246E-4
6.575952E-4
0.0029270777
0.0067584133
0.005827378
0.0047616013
0.0034434546
5.858252E-4
-0.004076028
-0.006867363
-0.008945811
-0.0116813695
-0.010574558
-0.010035376
-0.010176194
-0.009444641
-0.009023088
-0.008609165
-0.0069005005
-0.002679983
-0.0021170948
-0.005533689
-0.0024308008
9.6156984E-4
0.0024086817
0.0024657934
0.0013405347
0.0016552759
-9.472412E-5
4.4764648E-4
9.600171E-4
1.7089846E-8
8.823877E-4
0.0037142406
0.0073679467
0.005624541
0.003396394
0.005442988
0.0039648414
5.372119E-4
-0.006231753
-0.0093002
-0.01177813
-0.009978948
-0.008085025
-0.0070663597
-0.005685325
-0.0034471778
-0.001881919
-0.0050485134
-0.0031479956
-0.0044022193
-0.0060111843
-0.005720149
-0.0042943726
-0.0053809667
-0.0030704492
-0.002097561
-0.0013523023
0.0029971802
0.0050637745
0.008589851
0.0128001515
0.014315193
0.016174976
0.01673713
0.011805058
0.006906394
0.0026858766
-0.0031536059
-0.011751535
-0.014586577
-0.011052136
-0.008508213
-0.007501919
-0.005498513
-0.0037703663
8.7200437E-4
0.0037138574
0.005340452
0.0034323046
2.2230469E-4
-0.0027671778
-0.0041190307
-0.005185625
-0.0070569604
-0.008373037
-0.0074767433
-0.00871519
-0.010096008
-0.008684455
-0.0071981614
-0.006899497
-0.008495574
-0.008874021
-0.01158958
-0.01174751
-0.011765439
-0.008211516
-0.0032809984
1.1900147E-4
-8.9336914E-4
-0.022794487
-0.0064134523
0.0028660302
0.005924995
0.0041592186
0.00131396
0.0025410717
0.0040729246
0.0024900367
-6.12334E-4
3.7666017E-5
-2.6233398E-4
-0.0011347046
-0.0026018163
-0.0040436694
-0.0018884107
4.0395997E-4
0.0020210717
0.0033405542
0.0049871486
0.0069584837
0.00855456
0.006695896
0.006174861
0.0042290846
0.0021661962
0.0011709376
-0.0013138037
-0.0018485449
-0.0015632862
-0.0010456567
0.0010367138
0.0012614551
-2.485449E-4
-6.009155E-4
0.0013938256
9.861963E-4
1.5619629E-4
0.0035280492
0.004702273
0.0024193847
0.0024464966
9.288672E-4
0.002505979
0.0026554614
0.0023525732
5.2494387E-4
9.494385E-5
-0.0039569093
-0.0051935036
-0.0053400975
-0.008066175
-0.008272251
-0.007525957
-0.0056325514
-0.0036844043
-0.0016791455
-0.0020262573
-2.6625732E-4
0.0015484839
0.0027479662
0.00422219
0.0025393018
0.0012340429
0.0010664136
-6.15957E-4
-0.00357781
-0.002564922
-0.0017296631
-0.0011744043
-0.002001516
-0.0027209986
-0.0017057398
-0.0027352222
-0.0031747045
-0.0026318163
-0.0025289282
-8.5129886E-4
0.0014134424
0.001125813
0.0018405542
0.0013752955
-7.770752E-4
-7.294458E-4
2.405542E-4
-0.0022065577
-0.0020636695
-0.0017784106
-0.0020955224
-0.002755005
-0.0039168578
-0.0051334524
-0.0049600466
-0.002447158
-0.0041613816
-0.0055079763
-0.002475088
-5.474585E-4
6.949121E-4
6.572827E-4
0.0043515065
0.0033609888
6.098877E-5
0.0033804711
0.002217583
6.699536E-4
-3.0004638E-4
-0.0011647876
-2.547876E-4
-0.0019318995
-0.0023790111
-0.0033684936
-0.0039403467
-0.0039721997
-0.0027816822
-0.0018664233
-0.0017211646
-0.0011135351
3.4646483E-4
0.0019135766
0.003163059
0.004637283
0.0039491355
0.0016338769
-0.0017608643
-0.002517976
-0.003779829
-0.0012045703
-0.0017593115
-0.0022564232
-0.0025535352
-0.002620647
-0.0021477588
-0.0047919825
-0.0037238353
-0.0013385767
1.1142334E-4
8.4379397E-4
0.0017585352
0.0054051294
0.004539353
0.0048835767
0.0062325415
0.0042467653
0.0028262476
0.00286573
0.0017004712
6.028418E-4
-0.0015818994
-0.0020290113
-0.0029784937
-0.003057976
-0.0014527172
-6.8508787E-4
-0.0021621997
-0.0015069409
-5.793115E-4
5.6305906E-4
0.0026625416
0.0053691356
0.004010989
0.004102842
0.005069436
0.0024765478
-0.009361899
-0.017706424
0.005450171
0.0028896534
0.0014443946
4.0676515E-4
-9.656055E-4
-2.7560547E-4
-1.5605468E-5
7.2676514E-4
0.0010791357
0.001713877
-7.7849365E-4
2.6150636E-4
0.0029309888
0.0029604712
0.004734695
0.0044389185
0.0052255127
0.006686848
0.004691072
-7.2129886E-4
-7.7366945E-4
0.0012810718
3.9344237E-4
-0.0019536694
-0.0028231519
-0.0026302636
-0.0019573756
-0.0016221167
-0.0018068579
-0.0022639697
-0.001548711
3.1289062E-5
0.0017360302
0.0028355126
0.004549736
0.00475396
0.0048781834
0.004182407
0.0053190016
0.002768484
0.0010208545
-4.9145507E-5
-0.0016038867
-0.0010362574
-0.0038581104
-0.006417075
-0.0055836695
-0.006222634
-0.004436858
-0.003708711
-0.0018734521
-8.345215E-5
2.2654785E-4
0.0025236597
0.0018284009
0.005424995
0.00597396
0.0043481835
0.0037200367
0.0035618898
0.0021990014
-7.533691E-4
-0.0011157397
-0.0045699636
-0.0020770752
-0.0016718165
-0.0033512989
-0.0042355224
-0.004809746
-0.004151599
-0.0014863403
1.1365967E-4
0.0017084009
0.0023255127
0.0036973658
0.00515396
0.0043381834
0.004162407
0.0036442603
0.001991372
-2.5862793E-4
4.8374268E-4
6.661133E-4
-0.0020809986
-0.004425222
-0.0043194457
-0.00500604
-0.0063950047
-0.022386122
-0.02044013
2.898706E-4
0.003029353
0.003991206
0.0046454296
0.006806765
0.0065281005
0.0039299536
0.0041418066
0.00480603
0.004600254
0.0033197363
0.0018444775
9.6684817E-4
9.684815E-5
-0.0025902637
1.5973633E-4
0.0011544776
7.9684815E-4
-0.0022902638
-0.0023073754
-0.0020744873
-1.4487305E-5
1.555127E-4
1.655127E-4
0.004097366
0.004129219
0.0033287012
0.0033281837
0.0022952955
6.47666E-4
4.3003663E-4
-0.0026694457
-0.0044336696
-0.0029031518
-0.0023302636
-0.0016650049
-0.0025021166
-0.0026715992
-0.001928711
-8.0108154E-4
-0.0019881933
-0.0016829346
7.5943605E-4
0.0014341773
2.3417725E-4
0.004588401
0.005184995
0.004609219
0.0031287011
0.0013734424
1.2344238E-4
7.8581297E-4
-2.54187E-4
-0.0013389282
-0.0015036694
-0.0019407813
-0.0018155224
-0.0015902637
-0.0021573754
-0.0015821167
-0.0011668579
-4.192285E-4
9.831421E-4
0.0017478833
4.702539E-4
0.0012149952
0.0028144775
0.0020215893
0.0017663306
5.287012E-4
-0.0023884107
-0.0022755226
-0.0021826343
-0.0030221166
-0.0024092286
-0.002918711
-0.003800564
-0.0044847876
-0.0037066406
-0.002796123
-0.0018908642
-5.3323485E-4
-0.0015579761
-1.1797607E-4
7.843945E-4
0.0014291358
0.001223877
0.00353573
0.0025228418
0.001497583
3.37583E-4
0.0011723242
-3.3767577E-4
-0.0010300464
-0.00443427
-0.007697976
-0.0031074586
-0.0034893116
-0.002848794
-0.0017835351
-0.0018482764
-0.0012030175
-0.0011377588
6.346118E-4
0.0013893531
0.0014940943
0.0030335768
0.0021706885
8.830591E-4
0.0013078003
9.601709E-4
2.701709E-4
1.301709E-4
-5.321997E-4
-0.0010645703
-0.0015893115
-0.0039111646
-0.0046753883
-0.004429612
-0.0034314648
-0.0023185767
1.6142333E-4
0.0011861646
-2.1383545E-4
3.6616455E-4
0.0010085352
0.0010209058
0.001795647
9.980176E-4
2.4801758E-4
0.0024451294
0.0012098706
-0.0011648706
-0.0022919825
-0.0025790941
-0.0026985768
-0.005195171
-0.0063041355
-0.0040259887
-0.0043602125
-0.0027196947
-0.0011320654
0.0013526757
0.001707417
0.00370927
0.0031687524
0.0049953465
0.0038971996
0.0017319409
0.0019490528
0.0025661646
8.0853514E-4
-8.138355E-4
-0.0023809473
-0.0012756885
-0.0013704296
-0.01217836
-0.022187106
-4.7947755E-4
0.003060005
0.003451858
0.0015565992
0.0010689697
0.0022760816
0.0037279346
0.005484529
0.0074682347
0.0056971996
0.0046314234
0.0017761645
-4.0620606E-4
0.0011161645
0.0013309057
7.3327636E-4
-1.1672363E-4
-0.0011814649
-0.0020385766
-0.0035104298
-0.002919912
-0.002087024
9.297607E-5
0.002100088
0.0018748291
7.271997E-4
0.0024243116
0.0054209055
0.004082759
6.251294E-4
-5.472412E-4
-1.5724121E-4
-0.0017519824
-0.0016267237
-0.0016514648
-0.0028809472
-0.0039428
-0.004287024
-0.0033065064
-0.00430073
-0.004132583
-0.0016973242
-0.0016420655
-0.0011668067
-8.391772E-4
-2.8917726E-4
0.0010131934
0.004357417
0.00352927
0.0030987523
0.0034606054
0.0039124587
-2.7541504E-5
-0.0010299121
-0.0017146533
-0.0026841357
-0.0035859887
-5.8835937E-4
-0.0020254713
-0.0014402124
-0.0037320654
-0.004286289
-0.0025234008
-0.0027128833
-0.0033923658
0.0012823755
0.002681858
0.004746082
0.0022331933
3.1319336E-4
0.0021603052
0.002507417
3.997876E-4
-0.0023973242
-0.0018720655
-0.0016868067
-0.0013915478
-0.0024086598
-0.0044028834
-0.0054694777
-0.0039913305
-0.0039631836
-0.003292666
-0.002329778
-5.2214845E-4
7.0022215E-4
0.0030197045
0.0041315574
0.00274104
0.0028005224
0.0025176343
0.0016523754
0.0014771167
-0.002129995
-0.0045642187
-0.0056831837
-0.019534819
-0.020318825
-0.0016135669
-0.0025306786
-0.0025277906
-0.0024049024
-0.0023220142
0.001572727
0.0011574683
-7.949023E-4
0.0014898388
0.00181458
0.0045588035
0.006960139
0.0032696216
0.0021567333
0.0020838452
9.862158E-4
2.762158E-4
-0.001990896
-9.232666E-4
-0.0016780078
-0.0022751195
-0.002764602
-0.0021017138
-0.0016564551
-8.988257E-4
-4.811963E-4
-5.3356687E-4
4.488037E-4
0.0016335449
0.0023206568
0.005287251
0.0030567334
9.1910403E-4
3.39104E-4
-1.0895996E-5
3.8147462E-4
-0.0017132666
-0.0011680078
-0.0024051196
-0.002714602
-0.002421714
-0.0031411962
-0.0031806787
-0.0037925318
-0.0036143847
-0.005070979
-0.0027004615
0.002879021
0.003480874
0.0032703565
0.0044745803
0.004608804
0.0043230276
0.0038748803
7.488037E-5
-8.474902E-4
-0.002064602
-0.002581714
-0.0024288257
-0.0036006786
-0.0048249024
-0.0037267553
-0.004270979
-0.005037573
-0.0039894264
-0.0027289088
-0.0026983912
-0.0014231324
-6.7550293E-4
0.0014792383
0.0040010912
0.004012944
0.002010056
0.0015347974
0.0011071679
-9.283203E-5
-0.002209944
-0.0024170557
-0.0034789087
-0.0027583912
-0.0034202442
-0.0050668386
-0.0061058034
-0.0065971385
-0.0048813624
-0.0015761035
2.9389648E-4
-2.6103515E-5
-3.9847413E-4
0.0022786376
0.0027881202
0.001955232
5.5760256E-4
-3.2239745E-4
0.0019847143
0.0018494555
-8.1291504E-4
-0.0011776562
-0.0032971387
-0.0058461037
-0.0041579567
-0.0017426978
-0.001557439
-0.0032569214
-0.002866404
5.959668E-4
3.759668E-4
3.5966797E-5
0.0058649317
0.005511526
0.005760491
0.0063394555
0.0058684205
0.0030779028
0.0028673853
0.0026868677
0.0012016089
7.7397947E-4
0.0013187208
0.001333462
8.8583253E-4
-9.665381E-4
-4.6538087E-5
-0.0028860206
-0.0026431323
0.0011916088
0.0014563501
0.004680574
0.0068719094
0.006300874
0.0052674683
0.006246433
0.005493027
0.0036248805
0.0018396216
7.019922E-4
-0.0028074903
-0.0029569727
-0.0014517138
-0.0012764551
-0.0010788257
-0.002698308
-0.0034001612
-0.0018649023
6.574683E-4
-1.2253174E-4
8.9983887E-4
-0.013120461
-0.012378391
0.005820574
0.0064319093
0.005850874
0.005879839
0.005828804
0.0056777685
0.0034296217
0.003109104
0.0027185865
0.0016933277
3.1332765E-4
-0.0016614136
-7.237842E-4
-0.0026732667
-0.003062749
-0.0012074902
-0.0013222315
6.201392E-4
0.002597251
0.0016019922
0.0033914747
0.004445698
0.0039975513
0.0033770336
0.005003628
0.0025607396
-1.4926026E-4
5.3311035E-4
-0.0038087426
-0.0018858545
-0.0010482251
-0.0036900782
-0.00229719
-4.4956055E-4
-4.5193115E-4
-0.0017966724
-0.0028661548
-0.002885637
-2.956372E-4
0.001699104
0.0030285865
0.006127551
0.004361775
0.0033712573
0.0023983691
0.0041925926
0.0023397047
-2.0029541E-4
-0.0021374072
-0.0016221484