8.225415E-4
2.5415038E-6
0.0022296533
0.0018843946
2.9439453E-4
-3.5560547E-4
-5.979761E-4
2.8202392E-4
4.7439453E-4
1.6439453E-4
-0.0029750878
-0.0027745704
-0.001126941
-0.0017916821
-0.0044759056
-0.0025530176
-6.5538817E-4
0.001289353
0.0010217236
3.3172363E-4
0.0011564648
0.0015212061
0.0030706886
0.003180171
0.0015249121
-7.508789E-5
-0.0016498291
-0.0044140527
-0.004838276
-0.0020653883
-0.0012801294
-4.025E-4
-0.0020996118
-0.0048138355
-0.0053004296
-0.0027799122
-0.0019670238
-0.0024041357
6.582349E-4
0.0033877173
0.0031271996
0.004731423
0.004155647
0.0037575
0.004069353
0.0036812061
0.0021383178
5.606885E-4
-2.2931152E-4
-4.8168213E-4
-0.002258794
-0.0043330174
-0.004367241
-0.0033267236
-0.0026038354
-0.0024609473
-0.0013656885
0.0013790528
9.214233E-4
4.3379393E-4
0.0027032765
0.0044975
0.0042517236
0.004245947
0.0039878003
0.0043420237
0.0022891357
-4.0323485E-4
-7.1560545E-4
-0.0011703466
-0.0017750879
-0.0010574585
-0.0012121997
-0.0025093115
-0.0035411646
-0.0023982765
0.0014664648
0.001371206
5.535767E-4
0.0017683179
0.0031078004
0.004242024
0.004153877
0.0032733593
0.0022804711
5.528418E-4
-3.471582E-4
3.228418E-4
-3.471582E-4
2.841797E-6
-0.0014918994
-0.0030613819
-0.0036832348
-0.003565088
-0.0032745702
-0.004026423
-0.0027659058
1.0409424E-4
9.064648E-4
0.0022335767
0.0022806884
0.0022678003
0.0028272828
0.0020343945
0.003203877
0.0014186181
-4.3375243E-4
-5.6612305E-4
-0.0018008642
-0.0020079762
-5.503467E-4
-0.002719829
-0.0031293116
-0.002928794
-0.004040647
-0.0046448708
-0.004209094
-0.0014838354
6.2853517E-4
0.001905647
0.0021327587
0.0022698706
0.004174094
0.0041783177
0.003440171
7.2254153E-4
0.0022596533
2.5965332E-4
-0.0019074585
-0.0012721997
-0.0043764235
-0.0074101295
-0.0040819827
-0.0039738356
-0.0037356885
-0.005412283
-0.0066936184
-0.0069749537
-0.011010513
-0.007464219
-0.0020813306
-0.009339778
0.0030397046
0.005426299
0.0048405225
0.004654746
0.0046489695
0.0027484521
0.0016531934
0.0019603053
-4.9206545E-4
-0.002941548
-0.0019586596
-0.0022357714
-0.0039676246
-0.0033271068
-0.0013518481
-0.0010542187
-1.9421875E-4
7.4815186E-4
0.0025652638
0.0022623756
0.0037242286
0.0035360816
0.0011284521
0.0015231933
1.3193359E-5
-2.4680665E-4
4.5556398E-4
7.0793455E-4
-0.0020591773
-5.9177248E-5
-9.3154784E-4
-0.0013762891
-0.002533401
-0.0022705127
7.5185794E-4
5.942285E-4
7.165991E-4
8.5896975E-4
0.0019660816
0.003335564
0.003967417
0.005114011
0.0056506055
0.0040624584
0.0023795704
0.0015643116
0.0017090527
-9.0947266E-5
-0.0013456885
-9.880591E-4
0.0011043116
-0.0024428002
-0.0038346534
-0.0030241357
-0.0015888769
2.1112304E-4
0.0019782349
8.6060545E-4
4.3297608E-4
0.0026424585
0.003261941
0.0029014233
0.0013961645
0.0013809057
3.0090575E-4
4.1327637E-4
7.8564696E-4
-6.767236E-4
-0.0018714649
-0.0024385767
-0.0024156885
-0.0034675414
-0.0028870238
-0.0022541357
-0.0025012475
-0.0011236182
6.6381835E-5
0.001771123
0.0012958642
0.0029453468
0.0032848292
0.003966682
0.0037485352
0.0013632764
0.0022703882
8.927588E-4
-0.002534353
-0.0027338355
-0.0038456884
-0.006284653
-0.00821073
-0.0063796947
-0.003621548
-0.0016062891
-0.002513401
-6.757715E-4
1.7422851E-4
-0.0011505127
0.0030589697
0.0035808228
0.005187417
0.0054140114
0.0028634937
0.0029829761
0.0023300878
9.524585E-4
-2.0754151E-4
-0.0018222827
-0.001817024
-0.0018617652
-0.0015665063
-4.8887695E-4
-4.8124755E-4
-8.1247555E-5
-8.9361815E-4
-0.0013883593
-2.3835938E-4
7.6401123E-4
0.0040158643
0.004380088
0.003581941
0.0023190528
0.001253794
0.0011985352
8.509058E-4
8.732764E-4
-0.0019038355
-0.002733318
-0.0047275415
-0.0027070239
-0.0016517651
-0.002068877
-3.1887696E-4
-0.0019059888
6.463818E-4
6.5875245E-4
-4.1361817E-4
-1.8361816E-4
0.0022434937
0.0043577175
0.0050243116
0.004288535
0.0037103882
0.0032698705
0.002949353
0.0012440942
-3.3590576E-4
-0.0020430177
-2.0301758E-4
-6.453882E-4
-0.0011401294
-0.0025072412
-0.0030867236
-0.0025538355
-0.0016485767
-0.0023256885
-6.980591E-4
-1.6805908E-4
0.0011766822
0.0028161646
0.0036480175
0.0034698707
0.002739353
0.0032288355
0.0015535767
1.3357666E-4
7.359473E-4
-1.2405273E-4
-0.001528794
-6.311645E-4
-8.6353516E-4
-0.001990647
-0.0019277588
-6.801294E-4
-8.225E-4
-7.4487063E-4
0.0011275
0.002144612
0.0035864648
0.0024235765
0.0043878
0.004442024
0.0026091358
0.0032086181
0.00215573
0.0020528417
-6.895288E-4
-4.218994E-4
-0.0028113818
-0.001726123
-0.0015708642
-0.0037927174
-0.0027321996
-0.0016969409
-0.0010493115
7.6305907E-4
0.0014378002
0.0024049121
0.0027343945
0.002763877
0.0020109888
0.0037528418
0.0037946948
0.001609436
8.918066E-4
0.0023389184
1.3891846E-4
-0.002970564
-0.0026700464
-9.12417E-4
-0.0017871582
-0.0027766407
-0.0014413819
-0.0012861231
-7.0849364E-4
-1.4849365E-4
-0.002757976
-0.0028874585
-0.0026445703
-0.001066941
-0.003448794
-0.011946724
-1.6723632E-5
0.0021903883
0.0036522413
2.0224121E-4
-0.0011325
-0.0019796118
8.327588E-4
3.627588E-4
-4.196118E-4
-0.0010519824
-9.6435304E-4
-0.0012690942
-0.0012038355
4.5853516E-4
0.002205647
0.0025727588
0.004909353
0.0040012063
0.004123059
0.005962024
0.005268618
0.003740471
0.0050770654
0.0036889184
0.0024660302
0.0011084009
-2.5159912E-4
7.807715E-4
0.0017155127
-4.768579E-4
-0.0017315991
-0.0031110814
-0.0036829347
-0.0020700465
-0.0016147876
-7.271582E-4
0.0022999537
0.0025270653
0.0026141773
0.0037560302
0.0031155127
0.0021426245
6.949951E-4
-0.0022721167
-0.002961599
-0.0034334522
-0.0037053053
-0.0035271582
-0.0027966406
-0.0025437525
-0.0040356056
-0.0038274585
-0.0024545703
-0.002271682
-9.240527E-4
-5.2642333E-4
0.0022106885
0.0030801708
0.0036520239
0.005288618
0.0016533594
0.0015081005
0.0016728418
4.352124E-4
-3.547876E-4
-0.0013495288
-0.0036913818
-0.0019184937
-0.0018332349
-0.0019803466
-0.002769829
-0.0036916821
-0.0029311646
-0.0014859057
-0.001480647
-0.0012353882
0.001529353
0.004233577
0.002763059
0.0023801709
0.0025872828
0.003366765
0.0033986182
0.0014533594
0.0019804712
1.804712E-4
-0.00173427
-0.0021013818
-0.0026508642
-0.0027603467
-0.0021974584
-0.002886941
-0.0019840528
-9.064233E-4
-0.0037682764
-0.0020353883
-3.7775878E-4
0.0017869824
0.0036188355
0.0041006883
0.0023478002
0.0011725415
7.649121E-4
-2.8508788E-4
-2.8508788E-4
3.1491212E-4
-9.074585E-4
-0.0023545702
-0.0016593115
-6.8168214E-4
-0.002408794
-0.0041530174
-0.0013477588
-9.301294E-4
-0.0012248706
-2.448706E-4
0.0014098706
0.0014546118
0.001659353
0.0023364648
0.0021135767
0.002983059
0.0017378003
-0.0012869409
-0.0035687939
-0.0030282764
-0.0028377587
-0.0035596117
-0.0025267235
-0.0018214649
-0.0033809473
-0.0033704296
-0.0019775415
-0.0016922827
-0.0025793945
2.5060546E-4
0.0016453466
0.0018500879
0.0026895704
0.0030090527
0.0042232764
0.0024603882
0.0036822413
0.0034340941
0.002401206
-7.879394E-5
-0.0016635351
-0.0010759057
-0.0021030176
-0.0042072413
-0.0035190943
-0.0032485768
-0.0034804298
-0.0012951709
-0.0015399121
-0.012660213
-0.0018349537
0.0067763817
0.005885347
0.005371941
0.0052985353
0.004462759
0.0031622413
0.0018869825
0.0021640942
2.1409424E-4
-0.0012706469
-3.6064698E-4
-0.0017553882
-0.0045996117
-0.0039914646
-0.0023985766
-0.0014733179
-0.0025904297
-0.001245171
-8.375415E-4
-1.275415E-4
2.624585E-4
0.0019295703
0.002496682
0.0029961646
0.002805647
0.0013703882
0.0011027588
0.0010851295
-4.572412E-4
-0.001914353
-0.0040962063
-0.0029956885
-0.0017804297
-0.0019375415
-0.0031670239
-0.0024341356
-3.5413573E-4
-2.5413575E-4
9.782348E-4
0.0021153467
0.0018300879
0.0015948291
0.002181941
0.0044961646
0.003275647
0.0024727588
0.0027522412
0.0029617236
0.0015864648
-8.7590574E-4
-0.0036377588
-0.0047319825
-0.0049785767
-0.0037104296
-0.004384653
-0.004468877
-0.0013236181
1.4638183E-4
0.001741123
4.4349366E-4
0.0018282349
0.0035500878
0.0041643116
0.0043185353
0.004682759
0.0036046118
3.346118E-4
-0.0018201293
-8.012939E-5
7.2224124E-4
0.0010446118
-0.0010177587
-0.0012125
2.75E-5
-0.0011248706
-0.0021419823
-0.0035138354
-0.0028133178
-0.0023604296
-0.0012851709
0.0013395703
0.0019266821
0.0024337939
0.0032432764
0.002230388
0.0018651295
1.651294E-4
-0.0012696118
-7.8198244E-4
-0.0018067237
-0.0019338354
-0.0015585767
-0.0020356884
-0.0035475416
-0.0048917653
-0.0051783593
-0.004362583
-0.010855772
-0.010186589
0.002832893
0.004154746
0.00562134
0.0071026757
0.0064540114
0.0055206055
0.0036724585
0.0030219408
0.0021090528
8.0142333E-4
4.142334E-5
-9.109473E-4
-6.9331785E-4
-0.0015880591
-8.504297E-4
-8.728003E-4
5.7199708E-5
6.995703E-4
8.319409E-4
8.543115E-4
0.0014390528
0.0027385352
0.0030680175
0.0020551295
3.751294E-4
0.0012198706
0.0015246118
0.0022617236
0.0022288354
-0.0013059058
-0.0028453881
-6.677588E-4
-0.0017325
-0.0029419824
-0.0017267236
-0.002806206
-0.0033656885
-0.0025028002
-0.0018175415
9.148291E-4
0.002121941
0.0029014233
0.004505647
0.005552241
0.004486465
0.0019735766
0.0022406885
0.0033901709
0.0012249121
-6.174585E-4
-2.474585E-4
-9.74585E-5
-6.598291E-4
-0.002436941
-0.0062759058
-0.0064148707
-0.005321465
-0.0046356884
-0.0025128003
0.001451941
6.343115E-4
6.0668215E-4
0.002133794
0.003805647
0.0033851294
0.0041569825
0.004151206
0.0023283178
7.7068846E-4
-3.9168212E-4
-0.001958794
-0.0011735351
-7.359058E-4
-4.2827637E-4
-6.60647E-4
2.9353027E-5
-0.0013953882
-2.453882E-4
-7.877588E-4
-5.101294E-4
6.422412E-4
0.0010046118
0.001699353
0.0049359472
0.005764912
0.0033543946
0.0031538769
3.1387695E-4
-0.0020032348
-0.0014179761
-0.0010703467
-0.0014050879
-0.0010174585
-0.003186941
-0.004118794
-0.0021659057
-0.001870647
-9.064697E-5
0.0016040943
9.1646484E-4
5.388355E-4
0.0019059472
0.0029654298
0.0038072828
0.0047615063
0.0040733595
0.002240471
-1.3952881E-4
-6.718994E-4
0.0010504712
-7.618994E-4
-0.0015866406
-0.0018813818
-0.0019284936
-0.0033479761
-0.0027674586
-8.198291E-4
-0.0015245703
2.3542969E-4
2.3542969E-4
0.0023325414
0.0018172828
8.2965335E-4
2.7965332E-4
0.0028791358
0.00519573
0.0024028418
0.001377583
0.0015923242
0.0010146948
-0.0011300464
-0.0018647875
-0.005191382
-0.008719829
-0.018599095
-0.007945171
-0.0033246533
-0.002041765
-0.0014565063
-6.5887696E-4
0.0012458642
0.002602976
0.0042471997
0.0057961647
0.0078098704
0.0045140944
0.0024912062
0.0014559473
0.002343059
0.0022801708
-8.621997E-4
-0.0010745703
-0.0038164232
-0.004320647
-0.0016553882
-3.877588E-4
-0.0026872412
-0.0032967236
-1.4672363E-4
0.0011380176
4.0038818E-4
0.0022375
0.0025046119
0.0030740942
0.0033959472
0.0029754296
0.0037172828
0.0019143946
0.002683877
0.0019609889
-2.7901123E-4
-5.413818E-4
-0.001846123
-0.0019332349
-0.001727976
-0.0026574584
-0.0017421998
-3.621997E-4
3.901709E-4
0.0018972827
0.0035191358
0.003288618
0.004752842
0.002692324
0.002339436
0.002146548
0.0012712891
0.0015060303
0.0015007715
0.0010831421
0.0033526246
0.0024897363
-3.4026368E-4
-6.826343E-4
-0.002359746
-0.0017444873
-0.0014792285
-0.0016639697
-0.0023410816
1.8918457E-5
0.0026784008
0.0020555127
0.003264995
0.0038168482
0.004281072
0.0043152953
0.0035571484
0.0017518896
1.9188965E-4
-8.1048097E-4
-0.0028699634
-0.0027094458
-0.0022165575
-0.00338604
-0.003767893
-0.004009746
-0.0027292285
-0.0018963403
1.9365967E-4
0.0018084008
0.0023555127
0.0020126244
0.0027821069
0.0042863307
0.0053529246
0.004124778
0.0016195191
0.0016942603
0.0010566309
-3.3691406E-6
-0.0011157397
-0.0028152221
-0.0012199634
-0.001082334
-0.003664187
-0.0050207814
-0.004022634
-0.0017373755
-1.4737548E-4
9.549951E-4
1.0499512E-4
-0.0016097461
5.9262454E-4
0.0020197362
0.0017144775
0.0015092187
0.0013739599
0.0024410717
0.0030005542
0.0032200366
0.003279519
7.318896E-4
-0.0019652222
-0.0027947046
-0.002704187
-6.9655763E-4
-0.0013112988
-0.0024184107
-0.0015131518
0.00236396
0.0017987011
6.7107176E-4
0.0021581836
0.0035800366
0.003099519
0.0014842602
0.0022413721
0.002338484
-2.1516113E-5
-2.0151612E-4
2.7848387E-4
-3.0151612E-4
-0.002198628
-0.0046028513
-0.003152334
-0.002479446
-0.0045136693
-0.0030331519
-0.0023702637
-0.0020673755
-0.0012021167
8.302539E-4
0.0010726245
0.0019197363
0.0035415892
0.003983442
0.0037452953
0.0035571484
3.6714843E-4
-3.2851563E-5
-1.7285156E-4
-2.3285157E-4
-0.0013975928
-6.759277E-5
8.6477783E-4
-0.0012199634
-0.001002334
-0.0014470752
-0.0014018164
-8.84187E-4
-4.565576E-4
1.2344238E-4
0.0022505543
0.0037724073
0.002579519
0.0017042602
9.066309E-4
-2.6336915E-4
0.0013213721
6.437427E-4
-0.0024933692
-0.003995222
-0.003867075
-0.002324187
-0.001981299
-0.0023384106
-0.0021755225
-9.478931E-4
-6.3026365E-4
5.121069E-4
0.0020192186
0.004283442
0.005200037
0.0050966307
0.0015013721
-2.1862793E-4
-0.0020657398
1.8426025E-4
8.7663083E-4
0.001711372
0.003973225
0.002430337
-3.820337E-4
-0.0015667749
-0.003938628
-0.004975222
-0.0029247047
-0.004168928
-0.006147893
-0.011123452
0.001861289
0.0070926244
0.008658702
0.006730037
0.0029595192
0.0011018896
0.0012266309
0.003998484
0.00722219
-0.0011525513
-0.011750481
-0.005749446
0.012108484
0.027273826
0.032335762
0.0322577
0.022698816
0.015818598
0.018667864
0.014492906
0.01892217
0.0379807
0.043558195
0.05573362
0.081829645
0.09247886
0.079177774
0.0636169
0.069135
0.0895771
0.09967002
0.08583027
0.08319104
0.09160788
0.08491339
0.10359816
0.120015085
0.14103839
0.17819786
0.18199918
0.13672826
0.06529212
0.07641155
0.122475594
0.1541792
0.1490462
0.092405416
-0.029307036
-0.123625815
-0.18468662
-0.23867573
-0.24132432
-0.20989335
-0.2452838
-0.3033068
-0.2646465
-0.16543566
-0.056743447
-0.0038453003
0.03627849
0.013421159
-0.054449525
-0.113185115
-0.20991415
-0.26960045
-0.28791365
-0.24252461
-0.14555214
-0.07156735
-0.08935708
-0.13015482
-0.13974339
-0.120922685
-0.088610046
-0.05759021
-0.043085333
-0.04349283
-0.034229506
-0.018076401
0.020819975
0.07678178
0.10603366
0.12880903
0.15320027
0.14705254
0.101290196
0.044730064
-0.008898384
-0.018757649
0.008268428
0.0392817
0.047891047
0.030365871
0.02258699
0.04897108
0.056156505
0.06466038
0.096693814
0.094300136
0.06676875
0.068894476
0.048716195
0.08385933
0.11887152
0.14140482
0.08951692
0.009847742
-0.036998417
-0.057768583
-0.10572047
-0.10724709
-0.07957601
-0.057386175
-0.022064922
0.008793525
0.015400938
-0.020703068
-0.056830864
-0.047520213
-0.017424736
-0.0028342188
0.025846383
0.026699353
0.018818619
0.019197883
0.029200338
0.054953393
0.08676601
0.078752555
0.030577378
-0.008198699
-0.019370334
-0.0020974462
0.006663889
-0.026619082
-0.066527694
-0.07662713
-0.068310484
-0.04880457
-0.034773618
-0.017880512
0.0026065991
0.01463164
0.02366513
0.030179953
0.025340553
0.008466631
-0.007907075
-0.0142621165
-0.01657427
-0.013456941
-0.009255388
-0.004509612
-8.219824E-4
0.0024751294
0.0055717234
0.0059206886
0.0053372825
0.007840989
0.009249436
0.010562625
0.008678701
0.009629519
0.010100337
0.010443525
0.011259085
0.010139902
0.009760721
0.010111538
0.007997614
0.0059065796
0.004320803
0.0038826563
9.0502686E-4
-0.0019320849
1.791504E-5
-3.1208497E-4
-8.644556E-4
5.4791506E-4
-0.0027215674
-7.13938E-4
6.062012E-6
2.76062E-4
0.002143174
0.0026402855
0.0042645093
0.005823474
0.0045176977
0.0010100683
-3.993164E-5
0.004404292
0.0056608864
0.0028503686
7.4273924E-4
-2.2726074E-4
-0.007943338
-0.018280232
-0.012398162
-0.007651868
-0.0057608327
-0.0048550563
-0.0055316505
-0.0034335034
8.488672E-4
-0.010924322
-0.0018290625
0.0022980494
8.204199E-4
-0.0015343213
-0.0010666919
8.256787E-4
0.0016704199
0.0013051612
-0.0016795801
-0.0048338035
-0.0059227687
-0.0045769922
-0.002054104
-1.84104E-4
0.0023430078
0.006584343
0.006063308
0.0071546435
0.0073083495
0.008314426
0.008350503
0.005487097
8.594678E-4
-0.001917644
-0.0031771264
-0.00468135
-0.005257944
-0.0055145384
-0.0059135035
-0.006012468
-0.006593804
-0.0041880272
-0.0016727685
0.0010996021
0.0046038255
0.0073475316
0.008083608
0.0076873144
0.005726279
0.0054128733
3.4287354E-4
-0.00450135
-0.0052379444
-0.0053945384
-0.003936392
-0.003255874
-0.003927727
-0.00346958
-0.0030290624
-0.0020261742
-0.0012109155
-2.0091553E-4
0.003028567
0.0042827907
0.004577014
0.008223091
0.009643909
0.0019310205
-0.009569798
-0.0141048385
-0.016144622
-0.016966775
-0.014581816
-0.0108950045
-0.00583397
-0.0034058227
-0.0041600466
-0.006199011
-0.006377976
-0.0059469407
-0.0050835353
-0.0033630177
-0.0033025
-0.0012172412
-0.0011519825
0.0038898706
0.006991206
0.003503059
-7.093115E-4
-0.0049035354
-0.007939612
-0.005386206
-0.005665171
-0.006284136
-0.00513073
-0.0042249537
-0.0063139186
-0.0057028835
-0.004587107
-0.0050537013
-0.0066150366
-0.008351114
-0.0055177077
-0.00274719
5.1518064E-4
0.002994663
0.004126516
0.006365481
0.007659187
0.006058152
0.0070294873
0.0038013402
0.004185564
0.0043497877
0.0035716407
0.003141123
1.3112304E-4
1.1230469E-6
-0.0017736182
-0.0026831005
-0.003192583
-0.0030720655
-0.0022491773
-0.0038910303
-0.0016357715
-3.3577147E-4
9.5659913E-4
0.0013213403
8.4371096E-4
0.0018384522
0.0027679345
0.002837417
0.0023845288
0.0020916406
7.164063E-5
-0.00108073
-8.431006E-4
-8.354712E-4
-9.978418E-4
-0.0010202124
-0.0013549536
-0.0020620655
-0.0023291772
1.1082275E-4
0.001135564
8.9793454E-4
9.3030516E-4
0.0028997876
0.00329927
0.0037911232
0.004142976
0.0033524586
0.0012071998
-0.002089912
2.7008788E-4
-5.622827E-4
-0.0022793945
-0.0011841358
-0.002893618
-0.0051702126
-0.0077439183
-0.0071752537
-0.0061442186
-0.005300813
-4.931836E-4
3.8918701E-4
-5.531836E-4
4.5918702E-4
0.0024462987
0.0020234108
0.0036652638
0.0035671168
0.0016418579
0.0022589697
-0.0010134008
-0.0020405126
-0.0034223658
-0.0018071069
-0.00382896
-0.003750813
-0.0048850365
-0.00453926
-0.002016372
-3.9874268E-4
-8.411133E-4
-0.0012358545
3.9651612E-4
0.002053628
0.003975481
0.0020125927
0.0032420752
0.0043562986
0.0027757813
0.0010981519
7.4052246E-4
2.5052245E-4
-0.0019065894
-0.0023837013
-0.0027631836
-0.0057321484
-0.004396372
-0.0023834838
-0.0022505957
-4.0595703E-5
0.0013941455
-3.158545E-4
-5.282251E-4
0.0042459983
0.004750222
0.0029997046
0.0024968165
8.6816406E-5
-0.0058021485
-0.016874302
-0.0029137842
0.001160957
-9.7141357E-4
-0.0013561548
-4.485254E-4
4.147461E-5
5.938452E-4
6.462158E-4
7.385864E-4
7.7095703E-4
0.0022480688
0.0024451807
0.0020522925
0.0028117748
0.0027712574
0.0019383691
0.0024854809
0.003437334
0.0042615575
0.0021286695
-6.133057E-5
0.0011834106
0.003012893
0.0014776343
-0.001267107
-0.0018318482
-0.0015265894
-7.0895994E-4
-6.213306E-4
-1.8133057E-4
2.2866944E-4
0.0036405225
0.0023776342
0.0027971168
0.005303711
0.006202676
0.0061416407
0.0056706057
0.0031500878
0.0022971998
5.395703E-4
-3.104297E-4
-0.0012351709
-5.075415E-4
-0.003117024
-0.0022241357
-0.0038459888
-0.0048502125
-0.004374436
-8.168066E-4
-5.4917723E-4
-3.9177245E-5
0.002790305
0.004514529
0.0060234936
0.006734829
0.0069261645
0.004320388
0.0026798707
0.0023969824
0.0015017237
-0.0013230175
-7.753882E-4
1.4611816E-5
-9.6775877E-4
-0.0015025
-0.0026919823
-0.0022490942
-0.0015738355
-7.4620603E-4
5.461646E-4
1.4616454E-4
8.6853513E-4
9.3090575E-4
0.001555647
0.0025427588
0.0032822413
0.002209353
0.0024664649
0.0020935766
3.6357666E-4
-0.0011511645
-8.8353513E-4
-0.0016682764
-0.0027077587
-0.0029572411
-0.0039790943
-0.0030685766
-8.209473E-4
-0.0010833179
0.0011514233
0.0016161646
0.002805647
0.0037275
0.004089353
0.0051359474
0.0036178003
0.0018725415
7.25415E-5
5.549121E-4
-0.0017098291
-0.0028393115
-0.0023864233
-0.0019435352
-0.0028630176
-0.0032025
-0.0013872412
-0.0030767235
-0.0043609473
-0.0018880591
-4.404297E-4
0.0011943115
9.366821E-4
0.0032961646
0.003255647
0.0045498707
0.0020969824
0.0015017237
0.0039635766
0.0022406885
2.0688476E-5
-0.0020064234
-0.002053535
-2.0353515E-4
-0.0018382764
-7.20647E-4
6.717236E-4
-0.0013430176
-7.053882E-4
-9.777588E-4
0.0013769824
0.0016217236
0.0042059473
0.0042001707
0.0057491357
0.004583359
0.0035952125
0.0011299537
-5.72417E-4
7.583008E-6
0.0013523243
-4.200464E-4
-0.0039118994
-0.004696123
-0.0056850878
-0.0149325
-0.0132028
7.199707E-6
-2.4280029E-4
3.271997E-4
5.695703E-4
-1.1042969E-4
0.0015043116
0.0034961645
0.0034980176
0.0036298707
0.002929353
0.0027888354
0.0036906884
0.0013654297
0.0010178003
0.0011525415
0.0017572828
0.0019643945
0.0019415064
0.0012762476
-3.375244E-5
-0.0014684936
-0.002937976
-7.203467E-4
-5.127173E-4
-7.050879E-4
-1.8508789E-4
0.0019720239
0.0016767652
0.0030762476
0.0032657299
0.0023728418
0.001287583
-0.0016871582
-2.7158203E-5
0.0019199536
1.2995361E-4
-8.42417E-4
-0.0026418995
-0.0024090111
-7.1138184E-4
-0.0013361231
-0.0015708642
-0.0011656055
3.4394532E-5
6.0676516E-4
5.9913576E-4
-3.8086425E-4
0.0036609888
0.0035528417
0.0025099537
0.0017946948
0.0024618066
0.0024989184
0.0012736596
-3.5634034E-4
-0.0027758228
-0.005242417
-0.0033618994
-0.002941382
-0.0030008643
-0.002347976
2.9202393E-4
-0.0011527173
-0.0017374585
-0.0040093116
-0.0017640528
0.0012306885
9.330591E-4
0.0018478003
0.0021649122
0.0013196534
1.1965332E-4
3.965332E-5
-7.827173E-4
-1.02717284E-4
-4.750879E-4
-0.0010374585
-0.0013821997
-0.002701682
-0.0034235353
-0.0035953883
-0.0033548707
-0.0017196118
-2.9961183E-4
5.427588E-4
0.0024098705
0.0021969825
0.003266465
0.0030259474
0.0040678005
0.0053543947
0.003313877
0.0020309887
8.2335935E-4
6.7573E-4
-3.1427003E-4
-0.003996123
-0.006055088
-0.0031245702
-0.0028740529
-0.0025811645
-0.0022282763
-0.0023953882
-0.0017401294
1.598706E-4
7.122412E-4
0.0018669824
0.0030764649
0.0018935767
0.0019806884
0.0029301709
0.0033896533
0.0015843945
0.0012991357
0.0010915063
4.3387696E-4
-8.284937E-4
-8.1086427E-4
-0.0022479761
-0.0028674584
-5.398291E-4
-0.0016045703
-2.0457031E-4
-0.0015493116
-0.002978794
-0.003780647
-0.0024577589
0.0015669825
0.0033064648
0.0030459473
0.0019530591
0.0033225415
0.0018072827
-1.1271729E-4
5.796533E-4
-3.3034667E-4
-5.127173E-4
1.7282715E-5
-4.2717285E-5
-0.0025098291
-0.0014745704
-0.0017893115
-2.5931152E-4
8.130591E-4
4.1542968E-4
-3.045703E-4
9.278003E-4
0.0018325415
0.0037343944
0.002963877
0.0028433595
9.6573E-4
-9.666406E-4
-9.664062E-5
-0.0010890112
-0.008827458
-0.017181983
-0.0039038355
-0.0038856885
-0.0053922827
-0.0011470239
-0.0015917651
-0.0031012476
2.4875245E-4
0.0010911231
6.0349365E-4
0.0021906055
0.0036724585
0.003251941
0.005940906
0.004032759
0.0021098705
0.0019169825
-0.0011053882
-3.253882E-4
4.7698242E-4
-0.0013377587
-0.0020048707
-1.348706E-4
-5.872412E-4
-0.0017619825
-0.0021890942
-0.0015138354
-8.1620604E-4
-7.985767E-4
7.537939E-4
4.0616456E-4
0.0014309058
0.0026280177
0.004069871
0.0021069825
0.0016917236
0.0020088356
0.0022159473
0.0022930591
-5.193115E-4
-0.0021864234
-0.0024635352
-0.0033730175
-0.0031425
-0.0019496118
-7.019824E-4
1.4801759E-4
-1.8198242E-4
3.8017577E-5
3.0801757E-4
0.0014927587
0.0031322413
0.0040240944
0.0049206885
0.0048449123
0.0028443944
0.0018915064
0.0019086181
0.00196573
0.0010681006
-0.0012366406
-0.003216123
-0.0027156055
-0.0016403467
-0.0040021995
-0.0038340527
-0.002723535
-0.0017282764
-0.0027677587
0.0010346118
0.001719353
0.0026588354
0.0018535766
0.0036854297
0.0038572827
0.0038991356
0.0025162476
7.4861816E-4
6.509888E-4
-1.2901123E-4
1.098877E-5
-0.0011437525
-0.0015284936
-0.0015132348
-0.001497976
-0.002465088
-0.0030445703
-0.0015893115
-0.0014640527
-6.2642334E-4
7.357666E-5
0.0017583179
0.0023954296
0.0014101709
0.0012149122
-3.050879E-4
-7.774585E-4
-0.0014521996
-0.004566423
-0.015183835
-0.00521043
6.319409E-4
0.0022090527
-3.4094727E-4
-0.0015156885
-0.0029251708
-0.0020222827
-7.046533E-4
2.534668E-5
0.0017600879
0.0031895703
0.0031890527
0.0026485352
0.003930388
0.0031598706
0.0020169825
0.0019740942
0.0028335766
0.0024506885
0.0011130591
0.0016978002
-0.001236941
-0.0020940527
-0.0021011645
-0.0018459058
-0.0032253882
-0.003777241
-0.0041190945
-0.0012038355
0.0018409058
0.0026603881
0.0022075
3.575E-4
0.0033869825
0.005643577
0.0038554296
0.0023425415
7.1491214E-4
-6.874585E-4
-0.0017621997
-3.021997E-4
-5.945703E-4
-0.0030140528
-0.0043082763
-0.0016230176
-0.0021801293
-0.002187241
-0.0014219824
-0.0021190941
-3.7909424E-4
0.0028503882
0.0027998707
0.0024069825
0.0018017236
0.0025588355
0.0036606884
0.003190171
0.0033396534
6.5202394E-4
3.0202392E-4
-0.0010503466
-0.0014550879
-0.0022821997
-0.003281682
-0.0027811646
-0.0045553884
-0.0030448707
-1.948706E-4
-8.072412E-4
-0.0011919824
9.6038816E-4
0.0015851294
8.075E-4
0.0030169825
0.004541206
0.0014159472
0.001983059
0.0022301709
-2.398291E-4
-0.0020769408
-0.0026240528
-0.002783535
-0.004015388
-0.0038872412
-0.0028067236
-0.0036685767
-0.002718059
-0.0023451708
-7.275415E-4
5.648291E-4
5.471997E-4
0.0017019409
0.0025890528
0.0034209057
0.0028903882
-0.001564353
-2.4353027E-5
0.0023827588
7.351294E-4
7.975E-4
-8.548706E-4
-0.002734353
-0.0031538354
-0.0037456886
-0.0013704296
-0.001475171
-4.575415E-4
-0.0014622827
-0.0015470239
1.2976074E-5
4.553467E-4
0.0013000879
0.0019571998
0.0024643114
0.0024214233
0.0026709058
0.001165647
0.0010280176
8.903882E-4
-4.9611815E-5
-0.001324353
-0.003656206
-0.0032656884
-0.006897024
-0.00725073
-0.0063796947
-0.005136289
-0.0022834009
-0.0010757715
-4.981421E-4
0.0010442286
0.0019313403
0.0024484522
0.0010008228
7.3319336E-4
2.2319336E-4
-1.7680664E-4
6.2556396E-4
6.579346E-4
-2.8206542E-4
-7.0443604E-4
-0.0031639184
-0.0026410304
-0.0013957715
-9.3814207E-4
-9.305127E-4
-0.0016652539
-0.016377408
-0.0066387425
0.0019183691
0.0019154809
0.0032749635
0.004389187
0.00411104
0.0032405225
0.0035723755
0.0038742286
0.0034060816
0.0020631934
6.9556397E-4
-7.2680664E-4
-0.002986289
-0.004078142
-0.003959995
-0.004414219
-0.0037560717
-0.0024731837
-0.0022502954
-0.0026274072
-0.0012421485
6.502222E-4
0.002377334
0.0030568163
0.0016915576
0.0016162988
0.0023634105
0.003052893
0.0017276342
0.0018223755
0.0011047461
-0.0014899952
-7.2236574E-4
-1.8236572E-4
-0.0019594776
-0.0026489599
-0.0020460717
-0.001190813
-8.131836E-4
-3.755542E-4
6.968164E-4
-9.655542E-4
3.344458E-4
0.001569187
0.0013939282
0.0010362988
0.0010286694
0.0026681519
0.0028876343
9.700049E-4
-4.5236573E-4
-0.001267107
-0.0017218482
-0.0017065894
-0.0015913305
-0.002890813
-0.0028102954
-0.0015350366
-0.0010274072
-0.0028568897
2.8311036E-4
0.0015078515
0.0012325927
0.001267334
0.0020144458
0.0024215577
0.0038934106
0.0012081518
-6.0421875E-4
-7.065894E-4
-0.0049731834
-0.0022702955
-0.0020274073
-0.002304519
-0.0023916308
-0.0021187428
-0.0032482252
-0.0016429663
-7.1533694E-4