0.0045945216
0.008380598
0.008606675
0.009777493
0.00921594
0.010006757
0.010037576
0.008896023
0.0048202467
0.003069729
0.0025368407
-2.5315917E-4
-0.0033426415
-0.006593977
-0.0070453123
-0.00899376
-0.009402207
-0.012862507
-0.011028066
-0.008054143
-0.008310219
-0.0070415554
-0.0068328907
-0.0071765967
-0.0047508203
-0.004385044
-0.003996897
-0.0043311208
-0.0042953445
-0.0047495677
-0.004956162
-0.0069574974
-0.0076012034
-0.009249651
-0.008928098
-0.008946545
-0.011402104
-0.0077058105
-0.006477146
-0.0056661107
-0.007469817
-0.0050864113
-0.002593523
-0.0019406348
-0.0019177466
-0.0013324878
-0.0029719702
-0.013997012
-0.0060259765
8.4023435E-5
-3.8834717E-4
-0.002305459
-0.0018925708
-0.001517312
6.950586E-4
-0.0014096826
1.7031738E-4
8.82688E-4
8.550586E-4
6.374292E-4
4.997998E-4
-2.702002E-4
8.121704E-4
0.0019792821
0.0018240234
0.0025311352
0.0031806177
0.005117212
0.004923806
4.6617675E-4
-0.012031753
0.0026353588
0.0030348413
0.0016595825
0.0017243237
6.9669436E-4
0.0017514356
0.0012461768
0.0011309179
0.0020580299
0.0029775123
0.0031369946
0.0058059595
0.006334924
0.00714626
0.006757595
0.0043218187
0.003723672
0.0041978955
0.0038097485
6.8211916E-4
-6.902515E-4
-8.7262207E-4
-0.0022497338
-0.008465811
-0.009546628
-0.007992705
-0.0055992994
-0.0055758934
-0.0025530055
-0.0017777466
-2.1774658E-4
0.0032217358
0.0043159593
0.0056225536
0.005529148
0.005968113
0.005634707
0.00394656
0.0029460425
0.0029755249
0.0042397487
0.004663972
0.0031234545
0.003302937
0.004157161
0.0015619019
0.001476643
0.002313755
0.0018484961
0.002575608
0.0042498317
0.0041540554
0.00604302
0.0070343553
0.0076080617
0.008384138
0.0073078442
0.0055344384
0.0036662915
0.0047405153
0.0053971093
0.004671333
0.0027908154
0.0015355566
0.0036174096
0.004351633
0.002078745
-1.0125488E-4
0.0015934863
0.0025405982
0.0052871923
0.0067385277
0.0070198635
0.0072135692
0.0073872753
0.00608624
8.8861084E-4
0.0036104638
0.005067058
0.0024041699
0.0012289111
-0.00125583
-3.4583008E-4
-2.0583007E-4
-0.0026029418
-0.0017576831
-0.0016524243
7.5756834E-6
4.299463E-4
2.499463E-4
0.0021970582
0.0033765405
0.0018112818
0.0026607641
0.0038926173
0.0027620995
-4.2027098E-4
7.720996E-4
0.0023992115
9.71582E-4
-0.0043026414
-0.006603977
-0.007497683
-0.00866376
-0.019765396
-0.004319619
5.7275145E-4
-3.0724853E-4
0.0012874927
7.3986326E-4
8.122339E-4
0.0037040869
0.0044983104
0.004222534
0.006111499
0.003433352
0.002160464
6.7283446E-4
2.2283447E-4
-9.195361E-4
1.3046387E-4
-3.6953614E-4
-0.0027990185
-0.0040108715
-0.0041527245
-0.0040645776
-0.004921172
-0.007694878
-0.0061738426
-0.001538584
2.1416015E-5
3.1141602E-4
0.0019385278
0.001573269
0.0021303808
0.0021374926
0.0023846044
7.669751E-4
6.193457E-4
0.0012440869
0.0018388281
0.0027783106
0.002797793
0.0029272754
0.0025343872
0.0017491285
-7.732422E-4
-0.002620354
-0.0023174658
-7.0983643E-4
-4.3220705E-4
5.001636E-4
-0.0010222071
6.901636E-4
0.0014749048
0.0024020167
0.0013667578
0.001251499
0.0010238696
-0.0022832423
-0.0043674656
-0.0036093188
-0.003831172
-0.0051377662
-0.00441199
-0.004636213
-0.0035080663
-0.0029575487
-0.0030770313
-0.0017117724
1.3822754E-4
0.0019653393
0.002302451
0.0027119336
0.003201416
0.0044856397
0.0020427515
4.1512208E-4
7.4749265E-4
0.0019746046
0.0017893458
2.893457E-4
-0.0016353955
-0.0012601367
-0.001724878
-7.772485E-4
-0.0010496192
-0.001976731
4.4563966E-4
3.7801024E-4
5.5038085E-4
0.0013151221
0.0024822338
0.003444087
0.00408594
0.0067772754
0.004901499
0.0052380934
0.0010904638
-0.0010819067
0.0029575757
0.002827058
0.0015617993
0.0025289112
0.0017536524
0.002280764
2.6076415E-4
1.6076416E-4
-3.2923583E-4
0.0022578759
0.003409729
0.0049039526
0.0042781765
0.0039700293
0.0036818823
0.006443218
0.0048074415
0.0027069238
0.003478777
0.0027882592
0.0018830005
0.002972483
0.0028719653
0.004416189
0.0047904127
0.002639895
-7.4247556E-4
-0.0042566992
-0.0055132937
-0.004969888
-0.005276482
-0.0047907056
-7.730762E-4
0.001781665
0.0015064062
0.002193518
0.0015882592
6.406299E-4
-0.001896482
-0.0031159644
-0.0031854468
-0.0040673
-0.005043894
-0.0054904884
-0.0030599707
-0.0057989354
-0.020472942
-0.013225613
-0.0023327246
-7.250952E-4
4.972754E-4
0.0012120166
0.002891499
0.003483352
0.002590464
0.0032199463
0.0018146875
3.246875E-4
-3.553125E-4
-8.476831E-4
1.5231689E-4
-6.600537E-4
-0.0015147949
-0.0028442773
-0.0018790185
-0.0018437598
-0.0031532422
-0.002620354
-0.0030798365
-0.0023169483
-0.0015016894
4.5068114E-4
1.9068115E-4
-9.2168944E-4
0.0012630518
0.0020501637
0.002649646
0.0012443872
-9.779833E-4
-0.0013427247
0.001039646
7.964599E-5
-0.0025874658
-0.001702207
-0.0014569482
-0.0028764307
-0.0036382836
-0.0041401368
-0.001434878
-0.0018796191
-3.4961913E-4
0.0011027515
0.0020798633
0.0027393457
0.0036711986
0.005347793
0.0044220164
0.002641499
0.002258611
0.001463352
3.5335205E-4
-4.3901856E-4
-7.3138915E-4
-0.0014061304
-0.0014008716
-0.002840354
-0.0025474657
-0.0021445777
-0.0014593188
-0.0019064307
-6.430664E-6
0.0014583105
0.004272534
0.0049091284
0.0037409815
0.004375205
0.0052017993
0.003923652
0.001980764
0.001997876
0.002384988
-3.650122E-4
-0.0025121241
-0.0045963475
-0.0044505713
-0.0018053125
-0.002824795
-0.0022719067
-0.0010742773
-5.7664793E-4
6.3572265E-4
-2.0427734E-4
0.003075205
0.0052117994
0.0069431346
0.007686841
0.0037186937
0.003580547
0.0041547706
0.0023018823
-2.8117676E-5
-0.0025952295
-0.0024523414
-0.0028018237
-0.0026413063
-0.001968418
-0.0022355297
-8.5790036E-4
3.220996E-4
-3.679004E-4
4.2447023E-4
0.0010868409
0.005223435
0.0057824
0.0053289942
0.004353218
0.0028527002
7.950708E-4
-0.0013196705
-0.01132523
-0.014882642
0.0011320997
-6.20271E-4
-0.0011650122
-0.0012997534
-0.002759236
-0.0024463476
-0.0026458302
-0.0014705713
-0.0012053126
-0.0010376831
-0.0017624244
0.0014723169
0.00363417
0.0029836523
0.002280764
0.0027202466
0.002699729
0.003561582
0.0029710645
5.934351E-4
-0.0027560473
-0.0020631591
-0.0011379004
-0.0026050122
-0.0010773828
-7.397534E-4
6.126172E-4
6.549878E-4
0.001539729
0.0020768407
0.0024939526
0.002713435
0.0010858057
8.4817625E-4
0.0030676587
5.800293E-4
-0.002809453
-0.002156565
-0.0024036767
-0.0040455298
-0.003837383
-0.0058463477
-0.005042942
-0.005499536
-0.002596648
-0.0022637597
-0.004990354
-0.0048145778
-0.0057635424
-0.007084878
-0.0038567309
-4.6910156E-4
0.0017456396
0.0026427514
0.002862234
0.0027017163
0.0017964576
9.388281E-4
-0.0011035425
-6.559131E-4
-0.0014206542
-0.0017653955
-2.0539551E-4
-0.0024125073
-0.0035343603
-0.0030738427
-0.0033333253
-0.002390437
-0.0012551782
-1.3517823E-4
-4.9754884E-4
0.0016571924
0.0015719336
0.0015566748
0.0033961572
0.0050627515
0.0043669753
0.0046011987
0.0022983106
1.7831054E-4
-0.0012064306
-0.0015111719
8.8119874E-4
1.0119873E-4
5.035693E-4
-8.788013E-4
-0.0012135425
-1.1354248E-4
2.3645752E-4
-6.959131E-4
7.4086915E-5
0.0023211988
0.0040130517
0.0032325343
0.002119646
0.0031791285
0.0029186108
0.0028180932
0.0029675758
2.3757569E-4
-1.0242432E-4
-3.6242433E-4
9.999463E-4
0.0016846874
0.0011994287
-8.929419E-4
-8.353125E-4
0.00326417
0.004016023
0.0018907641
0.0032502466
0.005196841
0.006618176
0.006829512
0.0056884764
0.0047527
0.0038445531
2.3455323E-4
0.0021916651
0.0012364063
-0.0021807055
1.1929443E-4
2.6929443E-4
-0.0040625585
-0.016894711
-0.013257382
-0.0023044946
1.5505371E-5
0.0040973583
0.006236323
0.009054771
0.007878477
0.006869812
0.008335888
0.008874336
0.007328042
0.004212266
0.0030017481
0.0018864892
0.002393601
0.0010559717
-0.0010163989
-9.887696E-4
-0.0017935107
-0.0035353638
-0.0021924756
-0.0024795874
-0.0025866993
-0.002423811
-0.002510923
-9.7329344E-4
-6.8566407E-4
0.0017490771
6.5144774E-4
4.6381835E-4
0.0013385596
0.0020356714
0.0014604126
-0.0021366992
-0.0028661815
-0.0021532935
-0.0016480347
-0.0023751464
-0.00441937
-0.0049035936
-0.0048178174
-0.0022349292
-0.0040967823
-0.0017015234
0.0012132177
0.001337959
0.0012327002
-7.996704E-4
0.0010027002
0.0012374414
-0.0014172998
-3.2729981E-4
-0.0033867822
-0.0016215234
-7.73894E-4
8.610596E-5
-6.5626466E-4
0.001056106
-4.9626466E-4
-6.9863524E-4
-7.8635254E-5
7.637353E-4
-9.626465E-5
-0.0010286353
9.237354E-4
0.001136106
0.0019032178
0.0019603295
0.0025174415
0.004271665
0.00574063
0.0053872243
0.0051238183
0.0036356715
0.0041375244
0.0028570069
0.001431748
-2.8251952E-5
-6.9062255E-4
5.3174805E-4
7.5411866E-4
-0.0020729932
-0.0014977343
-0.001070105
-0.0011024756
-0.0014272168
-8.595874E-4
-2.9587402E-5
0.0021475244
0.0026446362
0.00426886
0.003990713
0.0015254541
0.0023925658
-8.998047E-4
-6.721753E-4
-4.445459E-4
-0.0010869165
-0.0013216577
-9.2402834E-4
-0.00252114
-0.007344846
-0.019876482
-0.006747817
0.0014969239
0.0022540356
0.002753518
0.0043077418
0.0036495947
0.0042638183
0.0037356713
0.0031651538
0.001699895
0.0018246362
9.570068E-4
0.0010593774
-7.7299314E-4
-0.0020001049
-0.0044343285
-0.002953811
-0.0010461817
-4.0855224E-4
-0.0019756642
-0.0015604052
9.719653E-4
0.0025490772
0.002286189
6.5855955E-4
0.0036304125
0.007844118
0.0072978246
0.0059067896
0.0044110133
0.0015257543
-0.0013989868
-0.0024660986
-0.004440322
-0.005669287
-0.0066106226
-0.007031958
-0.0045661815
-0.0037180346
-0.0045122583
-0.00220937
-0.001986482
-0.0014112232
2.8877685E-4
0.0021458887
0.002795371
0.0027948534
0.0024419653
0.0031214477
0.0023885595
0.0021156713
0.0018404126
-3.81958E-4
-3.4195802E-4
-4.943286E-4
-3.7669923E-4
-0.002413811
-0.002140923
-0.003562776
-0.00503937
-0.003861223
-0.0012259644
-0.0012707056
-0.0018654468
7.455322E-5
0.0015292944
0.0021564062
0.0028558886
0.0033953711
0.0043195947
0.0020567065
-3.4329345E-4
1.2670654E-4
4.6907715E-4
-6.732935E-4
-0.0075069997
-0.007963076
-0.004034929
-0.006003894
-0.0066252295
-0.006606565
-0.0054231593
-0.0040450124
-0.002012124
-3.6212403E-4
0.0019549879
0.001549729
0.0021268409
0.0024239526
0.002733435
0.002170547
0.0017552881
3.776587E-4
-8.6471194E-4
-0.0031441944
-0.002341306
-0.002018418
-0.0013731592
-0.0014679004
-0.0011726416
-0.0034344946
3.1550537E-4
0.0018402466
0.0037020997
0.0040539526
0.0047581764
0.0036000293
0.004214253
0.0058132177
0.0044574416
0.0033569238
0.0019340357
9.3640626E-4
0.0014811475
0.0025182592
0.002315371
0.0031848536
0.0056214477
0.0044056713
0.0035275244
0.0023746362
0.0033841187
0.004688342
0.0026154541
5.178247E-4
-0.0015669165
-0.0035187695
-0.005005364
-0.0027648462
-0.0013495875
-9.0195803E-4
-0.0016266992
-0.002233811
-0.0033632934
-2.0329346E-4
-0.0011380346
-0.0036898877
-0.004624111
-0.0054707057
-0.006982041
-0.0043462645
-0.0017110058
3.2899415E-4
3.899414E-5
5.113647E-4
0.0021184767
1.7847656E-4
0.0024555884
0.0039074416
0.0052340357
0.0057530003
0.0010953711
-3.546289E-4
-9.469995E-4
-0.0126673
-0.019268936
-3.1893555E-4
0.0012058057
0.0022229175
0.0020600292
0.0016047705
0.0034166235
0.005153218
0.007816924
0.008683001
0.0086190775
0.0035209302
-4.7144043E-4
7.309302E-4
0.001908042
-4.1958006E-5
-8.6432864E-4
-0.0017590699
-0.001313811
-0.0024909228
-0.0023080346
-0.0026975172
-0.0019846288
-0.0019917407
-6.541113E-4
-1.5411133E-4
0.0021530006
0.0033624829
0.0043767067
0.007900412
0.009651231
0.009149678
0.008838125
0.011373684
0.012483984
0.011941914
0.009400361
0.006801697
0.002851179
-0.0026159326
-0.00871438
-0.007888086
-0.008014163
-0.0020212745
-0.0017960157
-0.0022331274
-5.954981E-4
-0.0010978687
-0.0014726098
2.3739014E-4
-0.0018173511
-0.0030268335
-6.892041E-4
-5.315747E-4
-1.715747E-4
0.0011931665
5.755371E-4
0.002142649
0.0024197607
9.5213135E-4
2.1213134E-4
-0.002647351
-0.001974463
-0.0033639453
-0.0041557983
-0.0014405396
0.0015542017
0.0025013136
0.0060902783
0.007913984
0.0106371725
0.011232732
0.012873032
0.011558591
0.006387556
0.0018522973
-3.4770265E-4
-0.0013824438
-0.0032019264
-0.0023490381
-0.0035908911
-0.005929856
-0.005978821
-0.0044730445
-0.004507268
-0.004019121
-0.008595197
-0.009726016
-0.013196316
-0.010107134
-0.0059760986
-0.004500322
-7.926929E-4
3.5730712E-4
-0.0027721752
-0.0010145459
-0.0031040283
-0.006725364
-0.0068866992
-0.010197517
-0.0067788525
-0.0061278176
-0.0026349293
-7.772998E-4
-0.0019744115
-0.0016891528
0.002467959
0.005564553
0.005703518
0.0052701123
0.00947093
0.009551748
0.007605454
0.005684419
0.0026415307
-0.002645581
-0.005262175
-0.0053687696
-0.009287217
-0.011482776
-0.014687818
-0.012035747
-0.009806565
-0.0098373825
-0.0131076835
-0.013067983
-0.012508283
-0.010391472
-0.0034133252
6.190454E-4
0.0018737867
0.0036456396
0.003255122
0.0036469752
0.0044011986
0.004415422
0.0022825343
-2.2746582E-4
-0.0025645776
-0.006505913
-0.00799199
-0.01284229
-0.014457332
-0.017904226
-0.01881349
-0.013063791
-0.0077374973
-0.0010498682
0.0026372436
0.004201467
0.0027709496
-0.0037809033
-0.010454092
-0.014931504
-0.0184084
-0.020954775
-0.025555376
-0.02935783
-0.021986578
-0.0033260596
0.008340017
0.008176094
0.0036979467
-0.013834724
-0.03174429
-0.02565489
-0.043040015
-0.052655958
-0.056201383
-0.053789694
-0.04117008
-0.023173567
0.0075301393
0.05048897
0.08989107
0.10317584
0.09559691
0.08346005
0.056647845
0.02000948
-0.0012052612
0.013597409
0.06396891
0.10429605
0.115928754
0.057268925
-0.006962412
-0.038080942
-0.0885683
-0.114808634
-0.119493194
-0.113951154
-0.042926278
0.027269065
0.026792036
-0.0029274463
-0.026630418
-0.01745494
0.016757213
0.054427896
0.097733706
0.1082927
0.09414902
0.07704083
0.03855173
-0.0024653834
-0.0040472364
0.02156151
0.027486853
0.009467671
-0.035773747
-0.08996585
-0.116753295
-0.12759392
-0.12785456
-0.10838355
-0.08187958
-0.05202315
-0.020207157
-5.9952884E-4
0.0011952124
-0.0059737526
-0.012451682
-0.01025487
-0.003996724
-0.0019038355
0.0012709057
0.0041851294
0.010328318
0.0145833595
0.019404994
0.021603743
0.02218249
0.02469072
0.02480895
0.02471718
0.022528298
0.022299416
0.024135277
0.021361653
0.018570919
0.012248848
0.011194407
0.015371819
0.017146343
0.019397978
0.020794356
0.01700888
0.01302918
0.0106623685
0.012462668
0.009503487
0.00457771
0.0033871925
0.002986675
0.005643269
0.008981716
0.010194905
0.001439646
-0.017264878
-0.0020419897
-0.0033414722
0.012488828
0.013821499
0.011547058
0.007880764
0.004102617
0.005961582
0.006070547
0.007894253
0.010747441
0.012145371
0.012675672
0.011391231
0.008027307
0.004491531
0.0037733838
0.0023804957
0.0010728663
0.0010952369
-0.0015895044
-0.0040513575
-0.0029708399
-0.0037826928
-0.0045469166
-0.00454114
-0.0030906226
-0.0012953638
-8.177344E-4
3.9463624E-4
0.0016993774
0.0031488598
0.0015936011
0.0010759716
0.0014907129
0.0010930835
0.0016078247
0.0023249364
-5.0634767E-6
-0.0022421754
-0.0023392872
-0.0035211402
-0.0056577343
-0.004831958
-0.003853811
-0.0030332934
-0.004287517
-0.00406937
-0.003401223
-0.0015459644
4.4640625E-4
0.0052530007
0.004497224
0.0049938182
0.008419895
0.008505972
0.005632566
0.0042767897
0.0014015308
0.001626272
1.5627197E-4
7.486426E-4
0.0018957544
0.0011604956
-0.0016742456
-0.0018489868
-0.001473728
-0.0016384693
-8.3083985E-4
6.6153076E-4
6.8390137E-4
0.0020310131
0.0033804956
0.0024576075
5.19978E-4
-0.0010523925
-0.0015571337
-0.0025242455
-0.002843728
-0.0042279516
-0.0058469167
-0.006498252
-0.007171958
-0.007725664
-0.006134629
-0.007438335
-0.0063273
-0.007138635
-0.006749971
-0.0046641943
-0.004116047
-3.5604736E-4
-1.8604736E-4
6.263232E-4
-0.0010060474
-0.0058750124
-0.008291089
-0.011819019
-0.022940136
-0.0061991015
-0.0023362134
-0.003175696
-0.0033351781
-0.0032546606
-0.003314143
-0.0022112548
-0.0027607372
-0.0035925903
-0.0029220728
-0.001716814
-7.0918456E-4
2.0815429E-5
0.0018979273
0.002195039
0.0023221509
0.001446892
-5.654785E-4
-0.003034961
-0.003506814
-0.0044110375
-0.0075347438
-0.008460821
-0.021689568
-0.011897498
-0.0038093505
-0.004243574
-0.002120686
-7.3305663E-4
0.002374055
0.0034259083
0.0016706494
0.002920132
0.0041119847
0.0031714672
0.0017662084
0.0025033203
0.0025104322
0.002587544
4.3991455E-4
-6.6245603E-4
-7.448267E-4
-4.3719728E-4
-3.7956788E-4
3.5043212E-4
3.5043212E-4
-9.019385E-4
3.1806153E-4
8.904321E-4
0.0013251733
0.0018099146
0.0021870264
0.0024641382
0.0056407326
0.004764956
0.0024220678
0.001616809
9.191797E-4
-9.031909E-4
-0.0012079321
-8.2030275E-4
-0.0018550439
-0.003566897
-0.0022040089
-0.00167875
-0.001955862
-0.001560603
-0.0018977148
-0.001162456
8.0991455E-4
8.7228516E-4
0.0017370264
0.0026565087
0.0035383618
0.0037102147
0.0035620679
-3.8030272E-4
0.0016044385
0.0037162914
0.0020934034
-5.3896726E-4
-0.0032184497
-0.0030879322
-0.002005044
-0.0022621558
-0.001346897
-0.0020740088
-0.00117875
-7.211206E-4
-4.734912E-4
9.488794E-4
0.0033983618
0.0033178441
0.0017725854
0.0023596974
0.0037415503
8.039209E-4
-0.0015708203
-0.0029303026
-0.0043545263
-0.0072482326
-0.0033277147
-0.0030871972
-0.0027366797
-0.005653274
-0.005549868
-0.003701721
-0.001988833
-0.0017435742
-8.459448E-4
0.0011164257
0.0019735375
0.0017882788
0.0035901319
0.0016348731
7.4724364E-4
-2.2756347E-5
0.003066726
9.790966E-4
3.0909668E-4
0.0024562085
0.0019633204
-3.366797E-4
-5.190503E-4
-0.0027785327
-0.0041627563
-0.0050693504
-0.0059083155
-0.0077120215
-0.008860469
-0.007634175
-0.005070769
-0.010553958
-0.018220851
-0.0030503345
-4.0270507E-4
-8.150757E-4
-4.4744628E-4
1.7255371E-4
-0.0013021874
-0.00285167
-0.0038135229
-0.0054301172
-0.0033095996
-0.004223823
-0.0025809351
-0.0020880469
-0.0030775294
-8.898999E-4
-8.522705E-4
-0.0025193824
-6.9175294E-4
0.005284841
0.004709065
0.0042932886
0.0051898826
0.005446477
0.004840701
0.0036025536
0.001767295
-1.4270507E-4
-9.350757E-4
-0.0013398168
-0.001264558
-0.0012092993
-5.416699E-4
-0.0016364112
-3.3641115E-4
-5.6411132E-5
0.0013983301
0.003430183
0.004072036
0.0048062596
0.005122854
0.0058518187
0.006703154
0.0049597486
0.004893972
0.004065825
0.0015905664
0.0019476783
-7.046924E-4
-9.17063E-4
-7.094336E-4
-0.0022465454
-6.6891604E-4
1.0839844E-6
8.234546E-4
0.0025705665
0.0035624194
0.0049990136
0.007140349
0.0064916844
0.006310649
0.0038325025
0.0038243555
0.0014190967
6.214673E-4
2.714673E-4
-0.0030680152
-0.005394609
-0.009263056
-0.011730987
-0.006612322
-0.005648916
-0.0051055104
-0.005814475
-0.005381069
-0.006882405
-0.0038942578
-0.0019113696
-0.0010737402
-0.0013984814
-0.0014732226
-0.0016979639
-0.0034098169
-0.0064211525
-0.0049277465
-0.005074341
-0.005833306
-0.0055699
-0.007873606
-0.008489682
-0.0097005
-0.01186843
-0.010921619
-0.0108348075
-0.011420366
-0.009208813
-0.006600149
-0.0064814845
-0.004895708
-0.004007561
-0.0029470434
-0.0013117846
-0.0040136375
-0.0042378614
-0.0019449731
-0.0024020849
-0.0025291967
-0.001643938
-0.00212105
-0.0033105323
-0.0031800147
-0.0023771264
-0.0011194971
5.128735E-4
-8.9949707E-4
-0.0026689796
-0.0018337207
0.0018010205
0.0040628733
0.0032823558
0.00532895
0.007995027
0.007508733
0.005495327
0.005061921
0.004616145
0.0030156274
0.0035274804
0.0037193336
0.0035711864
0.0040130396
0.0035448927
0.0044791163
0.0052657104
0.004159934
0.0027494165
0.0027688988
0.006387864
0.00852394
0.008070017
0.0078437235
0.0077974293
0.008775877
0.007117212
0.003879065
0.003870918
0.004895142
0.0048993654
0.0045735887
0.0047178124
0.0054444065
0.0038162598
0.0033257422
0.0047899657
0.00566656
0.004790784
0.0039126365
0.002882119
0.0038639721
0.006012937
0.0066442722
0.006845608
0.003667461
0.0057064258
0.0047306493
0.0030501317
0.0026172437
0.0014119849
-5.403857E-4
-0.0025074976
-0.00311698
-0.003988833
-0.0060277977
-0.006689133
-0.02092551
-0.007749216
-0.0010615869
0.0016331543
0.0017078955
0.0038397484
0.0040816017
0.003351084
0.0018881958
0.001202937
0.0014176782
5.800488E-4
-8.123218E-4
-0.0026918042
-0.0037536572
-0.0048778807
-0.005564475
-0.0044786986
-0.0040305518
-0.0041647754
-0.004278999
-0.003800852
-7.085205E-5
0.0020062597
0.001761001
0.003992854
0.0046170778
0.0037189308
0.004383154
0.004697378
0.0027668604
0.0014216015
-9.4076904E-4
-0.0019078809
-0.0020949927
-0.0018197339
-8.821045E-4
-0.0018768457
-0.0020039575
-0.0025410694
-0.0030705517
-0.0046047755
-0.0025618873
-3.1887208E-5
9.004834E-4
0.0035523365
0.00458656
0.006165525
0.00636449
0.0063034547
0.0040453076
0.0034871607
4.2953124E-4
-0.0012552099
0.003576643
5.290137E-4
-9.633569E-4
-8.0572756E-4
-0.00313521
-7.5758056E-4
3.7479005E-4
-9.875805E-4
-0.0014323217
5.000488E-4
0.005116643
0.0054732375
0.0055198316
0.0062187966
0.0057777613
0.0049643554
0.004848579
0.003540432
0.0031399145
0.0012646557
1.4655761E-5
-0.0017600855
-0.0034619386
-0.0036237915
-0.002653274
-0.003445127
-0.0015998682
-8.3223876E-4
0.0012825024
5.250244E-5
0.0013872436
0.0040190965
0.005535691
0.0065670265
0.0053836205
0.0040654736
0.0023625854
0.0024696973
0.0011320679
9.244385E-4
-0.0026426734
2.5732667E-4
-3.8504394E-4
-0.0021621557
-0.0043063792
-0.006427715
-0.005354309
-0.006283274
-0.017567798
-0.006689133
0.0017756079
0.003607461
0.005574055
0.0067553907
0.0043896143
0.0034614673
0.0023685792
0.0024156908
0.0019128027
5.851733E-4
4.6754396E-4
-7.448267E-4
-0.0012895679
-0.0013143091
-0.0028637915
-0.0032732738
-0.0025403858
-0.0022174974
-0.0013522388
3.9013184E-4
0.0014648731
0.003566726
0.0042309496
0.0034004322
0.0030499145
0.002929397
0.0031188794
0.0018336206
9.959912E-4
3.7599122E-4
-0.00130875
-9.611206E-4
-0.0023082325
-0.0036100855
-0.002979568
-0.0031090502
-0.0028285328
-0.001673274
-1.3327392E-4
-7.856445E-4
0.0010267261
0.0014814673
0.002328579
0.002005691
0.0020128028
8.5517333E-4
7.4754393E-4
0.0015222852
-3.9008545E-4
-6.008545E-5
-0.0012948266
-0.0024019384
-0.0022090503
-0.002546162
-0.0038980152
-0.0046822387
-0.004074092
-0.0020012036
-0.0017659449
-4.0831542E-4
-1.2831543E-4
2.4168457E-4
0.0014164258
0.0020435376
0.0015482788
0.00174302
0.0031925025
3.7250243E-4
-1.9749756E-4
-0.0022446094
-0.0033340917
-0.0028835742
-0.002370686
-0.003652539
-0.003794392
-0.0033038745
-0.0034557276
-0.0024728393
-9.6520997E-4
3.7716064E-4
-2.3283936E-4
4.8953126E-4
9.419019E-4
0.0034837548
0.0029332372
0.0012279785
0.0030374608
0.0011722022
-0.0014025391
-0.002219651
-0.0020767627
-0.0026862451
-0.0038780982
-0.003509951
-0.0035218042
-0.0069131395
-0.002982622
-0.003824475
-0.001941587
-0.0018263281
6.3671876E-5
0.0015884131
0.0016431543
0.0037850074
0.004369231
0.003551084
0.0029505664
0.003000049
3.8004882E-4
2.5004882E-4
1.4004883E-4
-1.0995117E-4
-9.123218E-4
-2.0232178E-4
-0.0026394336
-0.004001287
-0.0036331397
-0.0026202514
-0.0012949926
4.4737794E-4
0.0031168603
0.0040287133
0.004682937
0.0022500488
-1.6995118E-4
-0.012980252
-0.006409216
0.0038126367
0.0031721191
0.0014468604
0.0014016016
-0.0010907691
-0.002467881
-0.018957146
-0.010097964
1.8203614E-4
0.0019891479
5.815186E-4
-0.0011208521
0.0019062598
0.0035981128
0.0027075952
0.0051341895
0.0050207837
0.0045050075
0.0038668604
0.0016616016
0.0012463428
0.002835825
0.0032753076
-4.692383E-6
-0.0016094336
-2.794336E-4
-6.018042E-4
-0.0010641748
-0.0015289161
-0.0024960279
-0.0026455102
-0.002182622
-0.0014673633
6.7500735E-4
6.2737794E-4
0.0011821191
0.003793972
0.0049205665
0.0036624195
0.0037542724
0.0024013843
0.0019184961
5.408667E-4
-6.6150393E-4
-0.0031409864
-0.0034828393
-0.0012675805
-0.0016523218
-0.0025194336
-0.002798916
-0.0029383984
-8.4076903E-4
-0.0022278808
-0.0024449928
0.002212119
0.0032516015
0.004605825
0.0036876781
9.600488E-4
6.8241946E-4
5.5479E-4
4.8716064E-4
-3.2839354E-5
-0.0026623218
-0.0048365453
-0.002716028
-0.0021031396
-0.0014778809
-0.0023749927
-0.0035068458
-0.0014915869
-0.0012163281
-0.0014410693
-0.0012558105
-0.0012105517
0.00202656
0.005113154
0.004607378
0.0020944898
0.0015692309
0.0029787135
9.8713375E-5
7.8713376E-5
-4.0365724E-4
-0.001980769
-0.0016455102
-0.0038173632
-0.004161587
-0.00410344
-0.0019605518
-0.0026800341
-0.002197146
7.552246E-4
-5.27146E-4
-3.57146E-4
0.0013275952
0.004271819
0.0064331545
0.004817378
0.004089231
0.0019363428
9.087134E-4
-2.9128662E-4
-0.0011136573
-0.0012283984
-6.9076905E-4
-0.003542622
-0.0049068457
-0.0030763282
-0.003788181
-0.0030276636
-0.0018724048
-5.247754E-4
-8.477539E-5
0.0017599658
0.0024770775
0.0028965601
0.004720784
0.003200266
0.002417378
0.0014421191
0.0013168603
6.9923094E-4
-0.0025778809
-0.0031573633
-0.002454475
-0.0026839576
-0.00301344
-0.0013381812
-0.0034200342
-0.0036818872
-0.0030413696
-0.0010237403
1.2625977E-4
0.001301001
0.0016957421
0.0028352246
0.0048394483
0.0032289308
0.0012236718
7.160425E-4
1.4604248E-4
1.9604249E-4
-0.0010163281
-9.086987E-4
-3.5869874E-4
-5.110693E-4
-0.0015158105
-0.0026852929
-0.0022924049
-6.147754E-4
-0.0018695166
5.04834E-5
0.0034123363
0.0036641895
0.0039960425
0.002955525
0.0031050073
0.0024421192
0.0023992308
0.0026463429
0.0014210839
-0.0013336572
-0.0012683985
2.6160156E-4
-0.0018031397
-0.0022902514
-0.003129734
-0.0042539574
-0.0039958106
-0.0025429223
-0.0039847754
-0.0029842579
-7.566284E-4
0.0017181128
0.003959966
0.0024970777
-0.001035293
-0.00842137
-0.014286411
0.0018083301
0.0041401833
0.0027496656
0.002859148
0.0017338891
-2.0611084E-4
-1.3611084E-4
0.0018786304
-3.3136964E-4
-0.002740852
-5.632227E-4
0.0020838892
0.002271001
0.0019681128
0.0025352247
0.0035070777
0.0049536717
0.003985525
0.0031650073
0.0019321191
9.5448975E-4
0.0010868603
-4.3139647E-5
-6.155103E-4
-0.0015402514
-0.0034121044
-0.0039939573
-0.0039458107
-0.004097664
-0.0038095166
-6.718872E-4
-9.342578E-4
-0.0030537401
0.0010286304
2.3863037E-4
0.001001001
0.0026181128
0.0033999658
0.0025970777
0.0023741894
0.0017389307
0.0030384131
6.9078367E-4
-3.792163E-4
-0.0011339575
-0.0024110693
-0.0030405517
-0.0034124048
-0.0029818872
-0.004356111
-0.0022632226
-0.0016179639
-0.001382705
7.294922E-6
0.0012020362
0.0030415186
0.003321001
0.0033004833
0.0023875951
0.0014223364
0.001074707
-3.5292967E-5
-4.0766358E-4
-2.5766357E-4
-0.0014824048
-0.001137146
-0.0020742577
-0.001368999
-0.0029384815
-0.004232705
-0.0028421874
-0.0040240404
-0.0036258935
-0.0020030055
0.0018317358
0.003983589
0.0047278125
0.0055344068
0.005231001
0.0048952247
0.003134707
0.0013894483
4.944824E-5
-1.6055176E-4
8.9181884E-4
-0.0014229224
-0.0017076635
-0.0018824048
-0.0031418873
-0.002308999
-0.0017437403
-6.261108E-4
5.1625975E-4
-2.2374024E-4
-2.4374023E-4
0.001341001
0.0031404833
0.0034423363
0.0039841896
0.0010565601
1.6656006E-4
-1.0343994E-4
-1.7343994E-4
-0.0016381812
-0.0014629223
-0.002460034
-0.0028895165
-0.0022166285