-9.125195E-4
-7.1489013E-4
-0.0010372608
7.251099E-4
0.0045693335
6.117041E-4
-0.010039113
-9.4148435E-4
0.0017932568
0.0028227393
0.0028922218
0.0010545923
0.0012793335
-6.730371E-4
-0.004327261
-0.0019043726
-0.0011891138
-0.001873855
-0.0020609668
-0.003300449
-0.002117561
2.4389649E-6
0.0025695509
0.0030990331
0.002586145
0.0015808862
0.002347998
0.0033374804
0.004731704
0.0030211865
-5.711841E-4
-0.0016459253
-0.001088296
-0.0011206665
-0.0019477783
-0.0020948902
-0.0021420019
-0.0032814844
-0.0034933374
-0.0033951905
-0.0012999317
5.72439E-4
2.1243897E-4
-2.2756103E-4
5.948096E-4
0.002804292
0.004268516
0.0017432568
0.0024803686
0.0026174805
0.0010398511
0.0013945923
4.4592285E-5
-0.0026025195
-0.003142002
-0.0042662257
-0.002775708
-0.0014104493
-0.0014551905
-0.0019323023
-6.5467285E-4
8.2769775E-4
6.100684E-4
0.0017648096
0.002934292
0.003996145
0.003807998
0.004019851
0.0039717043
0.0019188159
2.0881592E-4
7.911865E-4
6.9355714E-4
-0.0015511841
-3.2118408E-4
-0.0010535547
-0.0010459253
-0.0014106665
-0.0036525195
-0.002962002
-0.0016267431
-9.391138E-4
0.0011956275
0.0022127393
0.0034645924
0.0031940746
0.0029935571
0.0027330394
0.0013877808
0.0023048925
0.003174375
0.0012291162
-8.232544E-4
-0.0027927367
-0.00366459
-0.0038464428
-0.003818296
-0.0030177783
-0.0040496313
-0.0032891138
-0.0023462255
-0.0016909668
-8.233374E-4
2.366626E-4
0.0038685156
0.003397998
0.0027474805
0.003146963
2.069629E-4
0.0028864453
0.0031759278
0.001290669
-0.0012640723
-0.004198296
-0.0070496313
-0.006368596
-0.0044128196
-0.0022999316
-0.0018970434
-0.0022341553
-0.002321267
-0.0010436377
5.987329E-4
0.0018834742
0.0037353272
0.0040871804
0.004501404
0.0034932569
0.0018579981
0.0028674805
0.0016622217
9.845922E-4
-7.677783E-4
-0.0012025195
-0.0036843726
-0.003103855
-0.0025609669
-0.0029704492
-0.0038623023
-0.0035141553
-0.002511267
-0.010844456
-0.0035663086
0.0024208033
0.0034426562
0.0054792506
0.0050258446
0.0056848098
0.0036266625
0.0019637744
-2.3622559E-4
-3.762256E-4
-6.285962E-4
-9.609668E-4
-6.933374E-4
-0.0015580786
-0.002707561
-0.0036294141
-0.003451267
-0.0030607495
-0.0010731202
6.8798827E-6
2.568799E-4
3.7687988E-4
0.0021439916
0.003153474
0.0016582153
-6.178467E-5
0.002045327
0.0013500684
6.006836E-5
-5.993164E-5
-9.93164E-6
-6.823022E-4
-4.1467286E-4
-0.001369414
3.1058595E-4
-4.5178467E-4
-0.0017065259
-0.0018312671
-7.136377E-4
6.3623047E-6
0.0011911035
0.0023082152
0.0034400683
0.0037719214
0.0049885157
0.00512511
0.005351704
0.0035235572
0.0012282983
-2.8170165E-4
-1.7170166E-4
-0.0010540723
-9.2644285E-4
-3.5644288E-4
-0.0016411841
-0.0011135547
-0.0021406666
-0.0018054077
-0.0010977783
-6.501489E-4
-0.0013648901
5.9748045E-4
0.0025745924
0.0034264454
0.004580669
0.0022977807
-0.0013569605
4.0541016E-4
0.0016801513
0.0013848926
3.489258E-5
-0.0019122192
-0.0046364428
-0.005303037
-0.002350149
-0.0018848901
-0.0041067433
-0.0034885963
-0.002415708
-7.580786E-4
6.0429197E-4
-0.004117561
-0.0071388963
0.0047253272
0.0055719214
0.0040137745
0.005390369
0.0035722216
0.0010845923
0.0019017041
-7.8295896E-5
-9.006665E-4
-0.0011130371
-7.654077E-4
-0.001460149
-0.0020472608
-7.496313E-4
-0.0016543726
-0.002793855
-0.004145708
-0.0029051905
6.6718017E-4
0.002184292
0.004508516
0.004242739
0.0040945923
0.0037264454
0.0037482984
0.0015730396
-2.4696044E-4
-3.0696046E-4
-0.0012217016
-0.0014064428
-0.0022135547
-0.0025306665
-0.0035225195
-0.0023996313
-0.0034514845
-0.0040233373
-7.45708E-4
0.0012890332
9.914038E-4
-6.109668E-4
0.0030685156
0.0045127394
0.003954592
0.002191704
0.002208816
0.0019059278
0.0021230394
-6.9604494E-6
-0.0014017017
-0.0021788136
-0.0036406666
-0.0016154078
-0.0021125195
-0.0041143727
-0.0034262256
-0.0011709668
7.314038E-4
8.337744E-4
3.3774413E-5
0.0017585156
0.0015932568
0.0036651099
0.0031745923
0.0018793335
0.0023364453
0.0027459278
4.7829835E-4
-1.0170166E-4
-0.0025788136
-0.005225408
-0.0036172608
-0.002826743
-0.0038785962
-0.0031880785
-0.0036399316
-0.0021270434
-0.0012617847
-7.0415525E-4
-1.7415527E-4
0.0011182154
0.0017529565
0.005049551
0.0043537742
0.0025908863
0.0014656275
-0.0020614844
-0.0036433374
6.590332E-4
-2.809668E-4
-0.0018880786
-0.0017328198
-0.0015675611
-0.0021846727
-0.0012394141
-0.0028088966
-0.0033383789
-1.083789E-4
-5.307495E-4
7.816211E-4
0.0033711034
0.0034529564
0.0035348097
0.0036266625
0.0047308863
0.0040727393
0.0015274804
3.8985108E-4
3.1985107E-4
-3.0148925E-5
-0.0017748901
-0.002362002
-0.0030414844
-0.0040433374
-9.85708E-4
-0.0017804492
-0.0018851904
0.0011495508
0.0024766626
0.003016145
0.0044903685
0.004504592
0.004548816
0.0052354103
0.004329634
0.0044538574
0.0018785986
0.0014733399
0.0015980811
0.0022951928
0.0011175635
-0.003241919
-0.0033414015
-0.0032908837
-0.0026703663
-0.002027478
-0.00197459
-1.2458985E-4
5.9778075E-4
2.3778077E-4
5.2015134E-4
0.0031396337
0.005356228
0.0046204515
0.0037623048
-1.0769531E-4
-0.0011424365
0.0011299341
8.523047E-4
-6.500659E-4
-0.0023771778
-0.0026866603
-0.0030361426
-0.0022232544
-0.0013779956
-0.003147478
-6.3984864E-4
8.02522E-4
0.0019396337
0.0032791162
0.002626228
0.003588081
0.0049646753
0.0037565283
0.0039083813
0.0033578638
0.0036997169
0.001604458
3.54458E-4
4.468286E-4
-0.002230283
-0.004002136
-0.0047963597
-0.0026458423
-6.982129E-4
-0.0019053248
-0.0011176954
-9.7695316E-5
0.0010346753
0.0013394165
0.0024065282
0.0026660108
0.0039878637
0.0028673462
0.0027568287
0.0043310523
0.004155276
1.2527588E-4
-0.0015594653
-0.003961318
-0.0049079126
-0.003147395
-0.013280066
-0.011625625
-0.0027751075
-0.0021622193
-0.0014269605
-8.8933104E-4
4.6303956E-4
1.3303955E-4
0.0020101513
0.004434375
0.005340969
0.0046751928
0.004931787
0.0037736401
0.0031531225
0.0013878638
0.0017626049
0.0010749756
-0.0015197656
-0.0022468774
-0.0031863598
-0.0029658424
-0.0031853246
-0.004379548
-0.0029790308
-8.1140135E-4
-0.0011661425
-4.885132E-4
9.2385744E-4
0.0023609693
0.0038028222
0.0015875634
0.0034794165
0.0039812694
0.0021383814
0.001030752
-1.5924804E-4
-0.0013639893
-2.7398925E-4
-0.0032734717
-0.0045976955
-0.0033671777
-0.0033466602
-0.0049832542
-0.004277478
-0.004059331
-0.0028988135
0.0018359277
0.0018506689
0.0019977808
0.003117263
0.0029167456
0.0022838574
0.0017285986
0.0010809692
-5.2140135E-4
1.8598634E-5
0.0012333399
-0.002243772
-0.004055625
-0.003727478
-0.003609331
-0.0035111841
-0.0032206664
-0.0029401488
-0.0010425196
-7.1489013E-4
-7.7726075E-4
0.0035145923
0.0036564453
0.0033159277
0.0025230395
0.0026101514
0.0039420044
0.0038938574
0.0011885987
-0.0013161426
-0.0020332544
-0.0014379956
-0.0012027369
-0.0038245898
-0.0071459254
-0.0082720015
-0.005458596
-0.002055708
-4.280786E-4
-1.7807861E-4
0.0020690332
0.0029385157
0.0039703688
0.0042145923
0.0053811865
0.00467541
0.0021225219
-9.747803E-5
-5.0984864E-4
2.4015136E-4
6.8252196E-4
-6.7984866E-4
-0.0011222193
-0.0019293311
-0.003521184
-0.0046854075
-0.00311489
-6.4726075E-4
0.0012174805
-1.7251953E-4
0.0013322217
0.0028817041
0.0033511866
0.0059201512
0.004194375
0.0045385985
0.002758081
0.0014928223
-6.717774E-5
-5.3954835E-4
-0.0012242895
-0.0022314014
-0.0019985132
-0.002325625
-0.0023327367
-0.0047869603
-0.0040888134
-0.002938296
-0.0019454077
-0.0015501489
6.522217E-4
0.0024493334
0.0024764454
0.0017011865
0.003320669
0.003422522
0.0026620044
0.0015367456
6.1911624E-4
-7.832544E-4
-1.932544E-4
-2.832544E-4
-0.002060366
-0.0034222193
-0.0034740723
-0.0034759252
-0.0012706665
-0.0037225196
-0.002942002
-0.0018567431
5.4562744E-4
0.0031351098
0.0024822217
0.002991704
0.003813557
0.0034854102
0.002462522
0.0022296337
4.620044E-4
-0.0019951074
-0.0020922192
-8.7458984E-4
-0.0026540724
-0.004308296
-0.004010149
-0.0023772607
-0.0026567432
-0.0029262255
-0.002655708
-0.0016404492
1.5955078E-4
0.0021766627
0.002916145
0.003877998
0.003919851
0.0031493334
0.0034111866
0.0016759278
8.6829835E-4
-3.0170166E-4
-0.003171184
-0.0031506666
-0.003260149
-0.0044843727
-0.002983855
-0.0016585962
-0.0032380787
-0.0025851903
-0.0015499316
-0.0013046728
0.0012700683
0.004264292
0.0048585157
0.00523511
0.003626963
0.004098816
0.0034506689
0.0016554102
0.0012301514
-0.0010722192
-0.002229331
-4.6170165E-4
-0.0032411842
-0.003863037
-0.00363489
-0.004789114
-0.0028585962
-0.0018733374
-0.0024504492
-0.0016651904
4.8718016E-4
9.795508E-4
2.1955078E-4
9.419214E-4
0.0016366626
0.0021037743
0.0024608863
0.002257998
0.0033974806
0.0023245923
3.969629E-4
-3.430371E-4
-0.006012002
-0.012582302
-0.0014370434
-0.0011194141
-0.0015141553
-0.0027336378
-3.636377E-4
6.087329E-4
9.3110354E-4
0.0020182154
0.004272439
0.0044066627
0.004200886
0.0050274804
0.0040493333
0.0020364453
0.0018935571
-3.8881347E-4
-1.3881347E-4
9.035571E-4
6.659277E-4
-7.6644286E-4
-0.0027959254
-0.0024330372
-0.0040348903
-0.004026743
-0.0018814844
-0.0011462256
0.001076145
0.0022832567
0.0023703687
0.0044545922
0.0035164454
0.004048298
0.0039901515
0.002709634
-1.03662105E-5
-0.0012851075
-0.001077478
-0.0015322192
-0.0033017017
-0.003221184
-0.0036030372
-0.0038548901
-0.003906743
-0.002203855
-0.003795708
-4.570801E-5
0.0013890332
0.001916145
0.003407998
0.0029374806
0.0040093334
0.0066706687
0.0053872634
0.0026867457
0.0027762281
0.0019433398
8.0571044E-4
-4.1666016E-4
-0.001933772
-4.2614256E-4
-0.0022332545
-0.0018279956
-0.003187478
-0.0030469603
-0.002646443
7.5592776E-4
9.782984E-4
0.001080669
0.0030901514
0.004534375
0.003946228
0.003548081
0.004119934
0.0042541577
0.0023512696
-8.4110105E-4
3.388989E-4
-2.611011E-4
-0.0043153246
-0.003997178
-0.0045214016
-0.004555625
-0.0069369604
-0.006828296
-0.0070596314
-0.0077133374
-0.014378379
-7.807495E-4
0.0032587328
0.005395327
0.0065966626
0.0048608864
0.0016156274
0.0012503687
1.3036866E-4
5.2273925E-4
-2.0726075E-4
-0.0019543725
-0.0024314844
-3.614844E-4
-0.0024585961
-0.0016833374
-0.0015380786
-0.0016928199
-2.1281982E-4
8.7180175E-5
0.002364292
0.0043685157
0.0037303686
0.0032898511
0.0032493335
0.003108816
7.511865E-4
0.0022582985
0.0025254101
-6.3696044E-4
-0.0016217016
-0.003171184
-0.0028706666
-0.0017954077
-0.0025525196
-0.0020996314
-0.0010620019
-0.0018667432
-0.0010391137
7.088623E-5
0.0015256274
0.0034874806
0.0053940746
0.005540669
0.0047348924
0.005621487
0.006070452
0.0035923047
0.0013470459
-4.053247E-4
-0.003184807
-0.002181919
-0.0023290308
-0.0030085132
-0.0036703662
-0.0018451074
-0.0021322193
-0.002249331
-0.0015240723
-2.6407227E-4
0.001410669
0.0010430396
1.13039554E-4
1.7303955E-4
0.0018477808
0.002907263
0.001924375
0.004126228
0.0043204515
0.0041646753
0.0036065283
0.0012512695
0.0011760107
4.1838136E-4
-0.0013663599
-0.0020834717
-0.002672954
-0.0022000659
-0.0028395483
-0.0027390309
7.3333987E-4
0.0032428224
0.0026623048
0.0021594164
-4.929541E-4
-0.0032324365
-0.0039042896
-0.004508513
-0.0026779957
-0.0019551073
-0.0024322192
-0.004376443
-0.0047106664
-0.003140149
-0.0045143724
-0.006465708
-0.0067270435
-0.0026765259
-0.0025636377
-0.001608379
-8.207495E-4
-0.0014354907
0.0030739917
0.0033134741
0.0052500684
0.006229033
0.0048732567
0.0062822215
0.0057711867
0.0038730395
0.002802522
7.3489256E-4
-0.0019622191
-0.0034240722
-0.0031135548
-0.0015582959
-0.0019254077
1.2459229E-4
7.769629E-4
0.0017617041
0.0031211865
0.00458541
0.007981487
0.009892304
0.010355493
0.0069368286
0.0040886817
1.5868164E-4
-0.0022884302
-0.0030979125
-0.0037197657
-0.00512636
-0.009527178
-0.010310366
-0.008676443
-0.0082925195
-0.0054691136
-0.0032385963
-9.809668E-4
0.001906145
0.0043803686
0.004504592
0.0040164455
0.004380669
0.0034001514
1.5015136E-4
3.2015136E-4
0.0021872632
0.0018820044
3.520044E-4
0.0025991162
-7.088379E-5
-9.832544E-4
-0.001125625
-6.579956E-4
-0.0018851074
-0.00323459
-0.0038864429
-0.00918489
-0.007858596
-8.859619E-5
0.001556145
0.002153257
0.0027427392
0.0012874805
0.0028169628
0.0031864452
0.0022635572
-6.442871E-6
-0.0024835547
-0.0024806666
-0.0022177782
-8.801489E-4
-3.8251953E-4
5.8985106E-4
-3.0148925E-5
0.002196963
0.0036088158
0.0027982984
0.0017330395
-0.0017417016
-0.0033911841
-0.003823037
-0.0033425195
-0.0016072608
4.2510987E-4
-0.0015996314
-3.9200197E-4
8.403687E-4
0.0018551098
0.001459851
2.1985108E-4
-0.0010225195
-0.0017272608
-0.0021743726
-0.0034162255
-0.0024433373
-0.006924673
-0.014029714
-0.014184756
-0.015764538
-0.01343721
-0.01370988
-0.010150698
-0.0049072923
-0.009698111
0.0039137425
0.011249302
0.011254861
0.006426196
0.0012009375
-0.0024461744
-0.005132769
-0.006854104
-0.010194922
-0.014942334
-0.015129746
-0.0084258225
0.0031036597
0.008752107
0.012230037
0.01588982
0.017424343
0.011309902
0.006641238
0.0041854614
0.0036673145
0.0063162795
0.0029657618
-0.0011989794
-0.0035108326
-0.011146392
-0.016036175
-0.017640699
-0.023704186
-0.022172935
-0.008619011
0.0044352124
0.009253659
0.01341633
0.013126631
-0.007827075
-0.026600046
-0.015669828
0.0120381005
0.057970636
0.095119335
0.11025544
0.12013237
0.13618907
0.12092838
0.06758936
0.008717805
-0.03361887
-0.06388038
-0.054451056
-0.012911357
0.010211831
0.029614285
0.054094967
0.05153617
0.031405736
0.013818406
-0.0050781886
-0.04001383
-0.064475335
-0.06122735
-0.06174174
-0.06319087
-0.052936815
-0.053222757
-0.06437426
-0.059129164
-0.011514724
0.058650184
0.117649995
0.14709227
0.12148393
0.071799144
0.029521594
-0.024494264
-0.07269184
-0.08563972
-0.07053019
-0.037688717
-0.011796648
-0.020500654
-0.035772074
-0.04469194
-0.057342105
-0.07092494
-0.07734674
-0.07399906
-0.055002116
-0.020616123
0.0065452126
0.019104477
0.005061072
-0.018958194
-0.03266013
-0.042162884
-0.050129343
-0.04405684
-0.024885068
-0.0077287746
-0.0023758863
-0.018302782
-0.019864416
-0.014169458
-0.008987905
-0.0074816113
-0.0065529468
8.6942385E-4
0.010682613
0.014327654
0.012607954
0.01881722
0.021113597
0.016555749
0.011813679
0.0030931616
-1.683838E-5
0.011721091
0.022149839
0.023753328
0.013083628
0.02816134
0.017565865
0.0036477172
-0.0070536183
-0.0048278417
-0.006609177
-0.0041410304
-7.434009E-4
0.0012313403
5.8371096E-4
0.003655564
0.006666899
0.006818235
0.007791941
0.009050388
0.009671206
0.0052978
0.002364912
0.0025820239
0.0046762475
0.0060452125
0.0050118067
0.005498401
0.005084995
0.0040268484
0.00215396
0.0018087012
9.910718E-4
8.734424E-4
3.4344237E-4
-5.789282E-4
-0.0012936695
5.387012E-4
0.0039405543
0.0034824072
0.0030218896
0.0044961134
0.0042303368
0.0048645604
0.007928266
0.008926714
0.010849902
0.012990203
0.013442874
0.013855545
0.010528733
0.008664809
0.0044790334
0.0011837744
-0.002905708
-0.0045399317
-0.008446008
-0.013338679
-0.0155384615
-0.015205874
-0.015735656
-0.01623781
-0.013530481
-0.01148604
-0.013798711
-0.014403752
-0.011209312
-0.009670129
-0.008006206
-0.009294653
-0.010155471
-0.008201548
-0.009059995
-0.009870813
-0.010604002
-0.0075577074
-0.0059266724
-0.0059556374
-0.006124602
-0.0025617138
8.0065674E-4
0.0018877685
7.1013917E-4
6.8250974E-4
0.001257251
0.0016019922
5.943628E-4
-0.0010480079
-7.800781E-5
6.4436276E-4
0.001459104
0.0022062159
0.0020033277
-7.59043E-4
6.095703E-5
0.0015256982
0.00263281
0.0031222925
0.0052588866
0.006650222
0.01015104
0.013753711
0.012011641
0.009592459
0.010955647
0.0096364645
0.009867283
0.00914573
0.008091806
0.007765513
0.00825159
0.0072752954
0.004339519
0.0031490014
0.0025261133
0.0017508545
0.0028303368
0.0048545604
0.0073782667
0.0059172316
0.0037890845
0.0037909376
0.005487532
0.0064488673
0.0055754613
0.008923909
0.007577615
0.005594209
0.0044984324
0.0023855444
0.0036773975
0.00321688
0.0032063622
9.987329E-4
0.0018634741
0.0018482154
0.0011429565
0.0038748095
0.0048290333
0.0040008863
0.0051274803
0.0075311866
0.009269633
0.011035193
0.012705493
0.011963422
0.011761352
0.0089398
0.0056887646
0.0041106176
0.0028101
0.0022572118
0.0026666943
0.0020438062
0.0013985473
0.0023856591
0.0012904004
0.0024275123
0.0017522534
0.0011369946
0.0035588476
0.007090183
0.007493889
0.0065652244
0.00659656
0.0058355248
0.0045897486
0.0036816015
0.0033410839
0.0033805664
0.0014553076
2.5530762E-4
-4.27063E-4
-0.0021241747
-0.0019412866
-0.0026283984
-0.0034502514
-0.0035921044
-0.0042263283
-0.003508181
-0.0018029223
8.3944824E-4
0.0018841894
0.0026013013
0.0013860425
0.0020631542
0.0027326366
0.0024197486
9.3211915E-4
-9.502515E-4
-0.0032997339
-0.0032792164
-0.0024563281
-0.0027958106
-0.0023329223
-0.0051895166
-0.005266111
-0.0013208521
-0.002107964
-0.0044221873
-0.0029016698
-1.21669924E-4
9.407007E-4
0.0011954419
0.0021525538
-7.744629E-5
-0.0013321874
2.078125E-4
-8.445581E-4
3.554419E-4
-1.945581E-4
-0.003416411
-0.0029258935
-0.002925376
-0.005764341
-0.0056633055
-0.0046875295
-0.0056641237
-0.0034459766
-0.002955459
-0.0024625708
-0.0028020532
-0.0011867945
1.6320556E-4
-2.4679443E-4
0.0019903174
0.0015850586
0.0012497999
-3.002002E-4
-9.020019E-5
-0.0030896827
-0.0054562767
-0.005162871
-0.0037747242
-0.003836577
-0.004880801
-0.0047750245
-0.004189248
-0.004873472
-0.003262954
-0.0013176954
-1.5769531E-4
0.0018570459
0.003568899
0.003710752
0.0027502344
0.002367346
0.0015220874
-4.302832E-4
-0.0013650244
-0.0061139893
-0.014589031
-0.0021161425
-0.0017008837
-0.0026179957
-0.0034998485
-0.0021069604
-0.0032364428
-0.001621184
-8.635547E-4
-1.635547E-4
6.644531E-5
0.0023835571
0.0044477805
0.0063567455
0.0061957105
0.005352305
0.0053188987
0.004110752
0.0023278638
0.0020849756
3.5497558E-4
-0.0028645068
-0.0033739894
-0.0033234716
-0.0028229542
-0.003834807
-0.0054914015
-0.0034008839
-0.001675625
-0.0017303663
-0.0014551075
1.8489257E-4
0.0019520044
0.0019591162
0.0032685986
0.0033480811
4.4045167E-4
-2.6954833E-4
-3.9191893E-4
-1.3191895E-4
4.8081056E-5
-0.0015066601
-0.0028261426
-0.0010485132
-0.0027479955
-0.0035498487
-0.003379331
-0.002306443
-0.0015611841
8.815918E-6
5.311865E-4
0.0021282984
0.0028477807
0.0034396339
0.0026591162
0.002416228
0.0028557105
0.0023828223
0.0010851929
2.7519287E-4
-6.4717775E-4
-0.001861919
-0.0041661425
-0.005542737
-0.0048169605
-0.0042911842
-0.0049577784
-0.0032072607
-0.0025243727
-3.7674318E-4
0.0016279981
0.0011927392
0.0012274805
0.0057964455
0.008012522
0.005771487
0.00402334
0.0028528222
0.0029523047
3.946753E-4
4.5704588E-4
-0.002020066
-0.0028395483
-0.0028790308
-0.0023161427
8.96228E-4
-0.002150884
-0.001225625
2.54375E-4
0.0022214868
0.0031309691
0.004205193
0.0043394165
0.002908899
0.0032683813
0.0025454932
0.0016902344
-6.976562E-5
-0.0022768774
-0.006908213
-0.0059271776
-0.006528513
-0.004542737
-0.0043669604
-0.0035388134
-0.003308296
-0.0033277783
-0.004532002
-0.004073855
-0.0011685962
-6.309668E-4
0.0010814038
0.0044456273
0.006034592
0.0065659275
0.0044701514
0.0018972632
0.0014520044
0.0015667456
0.0014414868
9.338574E-4
-8.685132E-4
-2.885132E-4
-0.002435625
-0.0018103662
-0.002337478
-0.0030669605
-0.0012617017
0.0014430395
0.0014277807
0.0043520043
0.0049985987
0.0044128224
0.0054994165
0.005286011
0.0044802343
0.0026073463
0.0028368286
-3.7317138E-4
-5.45542E-4
-7.479126E-4
-8.702832E-4
-0.0014650244
-0.0021221363
-0.006903472
-0.005610066
-0.0020671778
-0.0015819189
8.081055E-6
9.2045165E-4
7.2282227E-4
0.0016775635
9.599341E-4
0.005938899
0.0047931224
0.0043573463
0.00490157
0.0042057936
0.0034076464
0.0016523877
5.947583E-4
-0.001719983
-0.0025570947
-0.0025842066
-0.0025913185
-0.004103171
-0.0025002833
-0.002497395
-0.0016321362
-5.745068E-4
0.0013002343
0.0021973462
0.0038691992
0.0035610523
0.0053576464
0.00458187
0.003773723
0.002570835
7.4320554E-4
0.0014679468
7.2031736E-4
-1.09682616E-4
-0.0021167945
-0.0020339063
-0.0019210181
-0.0010533887
-4.2575927E-4
-0.0035376123
-0.0014523536
2.0764649E-4
0.0024047582
0.0033142408
0.005040835
0.005427429
0.0053140232
0.0038658765
0.0037277294
0.0019148414
-9.475293E-4
-0.0034993824
-0.0034012354
-0.0012359766
-0.003315459
-0.003567312
-0.0023644238
-0.0041062767
-0.0040081297
-0.0019752416
-0.0011076123
0.0013171289
0.0013518701
0.001928982
0.0014737231
0.0020708349
0.0017855762
0.002032688
0.0034021705
0.0034040234
4.9639406E-4
-9.959766E-4
-0.0018407177
-0.0034125708
-0.0031020532
-0.002479165
-0.0046333885
-0.0037252416
-0.007198948
-0.0056779124
-0.0011926538
-0.0025497656
-7.9765625E-5
0.0013449755
0.0011497168
0.0020068286
0.0029463111
0.0042105345
0.0019976464
0.0015123877
0.0019594994
-3.828711E-4
-0.0019099829
-0.005226577
-0.0044308007
-0.0035826538
-0.0025297657
-0.0017045068
-0.00407636
-0.0058553247
-0.001400066
-0.0028395483
1.9045165E-4
0.0031299342
0.0018346753
0.0050112694
0.0049678637
0.0036997169
0.0027191993
4.7156983E-4
5.9394044E-4
-4.884302E-4
-0.0016631713
-0.0035950243
-0.0027345067
-0.0042287307
-0.004222954
-0.0037548072
-0.0033842896
-0.0016590308
-5.2140135E-4
3.3859862E-4
9.809693E-4
0.0021280812
0.002345193
0.0036370459
0.0047512697
0.0036231226
4.7549317E-4
0.002032605
0.0027220873
0.0012568287
3.0682862E-4
-9.65542E-4
-0.0018702832
-0.002237395
-0.0042116186
-0.0049982127
-0.003650066
-0.0010624365
4.7993407E-4
0.0012246753
3.146753E-4
0.0014794165
0.00457364
0.0042378637
0.0033573462
0.0031368285
0.0018815699
-6.843018E-5
0.0026386816
-1.2131836E-4
9.868164E-5
-0.00254843
-0.002135542
-0.0016502832
-0.002297395
-0.0031168775
-0.0037187305
-0.0045429543
-0.0035448072
-0.0017495484
0.0011228223
0.0031023046
0.0026917872
0.0025888989
0.0046031224
0.0039649755
0.002884458
0.0011291992
-0.001375542
-0.0011802833
-0.0010926538
-0.0025397656
-0.0026068774
-0.0027863597
-0.0046605836
-0.002790066
-0.003851919
-0.003663772
-0.0027932543
-0.0018079956
-0.0012027369
-0.001597478
8.6489256E-4
0.0037467456
0.0042009694
0.004525193
0.0035470459
0.0015117871
3.017871E-4
-0.0013129541
-0.0016776953
-0.0034595483
-0.0051461426
-0.0046403664
-0.0052369605
-0.0040188134
-0.002808296
-0.0029477782
-0.0026448902
-0.002122002
-0.0010943726
9.17998E-4
0.004049851
0.0049064453
0.0029559277
0.00294541
0.0037672631
0.002124375
0.0011891162
-0.001485625
-0.0014203662
-0.0013551074
-0.0011298486
-0.0032793311
-0.0042035547
-0.0034954078
-0.0036272607
-0.0045314846
-0.0030109668
-0.001875708
-5.780786E-4
-0.0010204492
0.004031404
0.0057203686
0.0035522217
0.0037540747
0.0022011865
7.9355715E-4
0.0026830395
8.554102E-4
7.541016E-5
-3.0458983E-4
-0.0024217016
-0.003111184
-0.0024382959
-0.0017530371
-0.0043572607
-0.0029467433
-9.791137E-4
0.0011232569
0.0020403687
0.0034222216
0.0035840748
0.005370669
0.003852522
0.0026420043
0.0028114868
6.438574E-4
-4.485132E-4
-5.2088377E-4
-3.5088378E-4
-2.3088379E-4
-0.0021979955
-0.003037478
-0.003699331
-0.0032488136
-0.0019759254
-0.0028954076
-0.001540149
-5.4251956E-4
-5.8489013E-4
8.474805E-4
0.0012722217
0.0032817042
0.003843557
0.002250669
0.0010730396
5.3039552E-5
1.5303955E-4
1.8303955E-4
-3.4696044E-4
-0.0018940723
-0.0031535546
-0.0025606665
-0.0032201489
-0.003572002
-0.0026814844
-0.0033209668
-0.0028004493
-9.3281985E-4
-3.9519044E-4
-1.519043E-5
0.0025519214
0.0038937745
0.0040356275
0.0024727392
0.002109851
0.0020969629
-1.3303712E-4
-8.5540774E-4
-0.0024025196
-0.0037843725
-0.003003855
-0.0027933375
-0.0021404491
-0.002367561
-0.004211785
-0.0058607496
-0.0039826026
-0.0020397143
-0.001012085
0.0016526562
1.3265625E-4
7.0502685E-4
0.0042592506
0.0040611033
0.004865327
0.0032948095
0.0017995508
0.001554292
-7.380786E-4
-0.0012128198
-3.0281983E-4
1.07180174E-4
-0.0019899316
-0.002909414
-0.0028088966
-0.0038007495
-6.931201E-4
-0.0010554907
-0.0025526024
1.3739747E-4
0.0022445093
0.0028639918
0.0047882153
0.0028176978
0.003549551
0.002819033
6.814038E-4
-1.1859619E-4
-0.001915708
-0.003897561
-0.0052241553
-0.00638312
-0.006112085
-0.010345274
-0.018332168
-0.0049087624
-8.4113283E-4
-0.0010735034
2.3649658E-4
0.0010188671
0.0028383497
0.0016130909
0.0021002027
0.0034420558
0.003983909
0.002923391
0.002480503
-9.949707E-5
-6.9186767E-4
-0.0021889794
-0.002748462
-0.0019255737
-0.0027050562
-0.002602168
-0.0032216504
-0.004735874
-0.0029853564
-0.001087727
1.4227295E-4
2.2227295E-4
0.0010646435
0.004358867
0.005707832
0.005254426
0.0033939087
0.0021610204
5.833911E-4
-1.6608887E-5
-3.466089E-4
-0.0031760912
-0.0035279444
-0.004402168
-0.0052187624
-0.004862986
-0.00502958
-0.0043638037
-0.0047180275
-0.001030398
-0.0010227686
0.0010396021
0.003581455
0.00606042
0.0045246435
0.004961238
0.0053678323
0.0016525732
0.0015573144
0.0017420556
5.0442625E-4
1.6442627E-4
3.3442627E-4
3.6442626E-4
1.4426269E-5
-0.004107427
-0.005294021
-0.0046382444
-0.003097727
-0.0046519507
-0.0022290626
-8.314331E-4
6.409375E-4
0.0021680493
0.0013627905
6.5516116E-4
0.0013399023
3.9227295E-4
3.7464357E-4
0.0018093848
6.217554E-4
-0.0013829859
-0.0029624682
-0.004074321
-0.004288545
-0.0032880274
-0.0050446214
-0.005501216
-0.003963069
-0.0014778101
-7.810058E-6
9.6456055E-4
0.0037464136
0.0048206374
0.0054472312
0.004421455
0.0032509374
0.0015856787
0.0013404199
-4.9195066E-4
5.4041995E-4
7.5279054E-4
-0.0019543213
-0.0025214332
-0.0013061743
-0.002583286
-0.0037551392
-0.002172251
5.7749025E-5
-8.946216E-4
-3.4462157E-4
0.0019824903
0.0041967137
0.0042009377
0.0024880492
0.0038699023
0.0025470143
0.0032764967
0.0023836084
-3.63916E-5
-0.0011511329
-3.935034E-4
-4.85874E-4
-3.1587403E-4
-0.0020729857
-0.001577727
-0.0023148388
-0.0032243212
-0.0023314331
-0.0012561743
-0.0023032862
-4.7565674E-4
0.0034961964
0.0051327907
0.0054693846
0.0059383498
0.0058073145
0.0039091674
0.0026062792
2.762793E-4
-0.0017384619
-0.0020955738
-0.001830315
-0.0018874267
-0.0037392797
-0.0033687623
-0.002345874
-0.004650098
-0.0032995802
-0.0020566918
-5.690625E-4
0.0014756788
0.0025027904
0.0036346435
0.0037264966
0.00466072
0.004834944
0.0042691673
0.0034510205
0.0023581323
0.0011428735
-0.0013418677
-0.00270135
-0.0027008324
-0.0026379444
-0.004652168
-0.0025592798
-0.001594021
2.25979E-4
8.783496E-4
0.0011930908
4.554614E-4
-3.8690917E-4
0.0032525733
0.0050591673
0.0038110204
0.0020281323
3.8132323E-5
-0.0016566089
-2.2660888E-4
3.533911E-4
6.957617E-4
-0.00230135
-0.002488462
-0.0038003149
-0.015197727
-0.005534321
-0.0077080275
-0.011013586
9.587842E-4
0.0040806374
0.0032001196
0.002809602
0.0059985667
0.0049551614
0.0067564966
0.00455072
0.003972573
0.0041244263
0.0037062792
0.0022633912
0.0016381324
-8.842383E-4
-0.0028037208
-0.0026732031
-7.055737E-4
-0.002935056
-0.003566909
-0.0031663915
-0.0016011328
-2.8113282E-4
0.0012836084
0.0015283496
0.0025954614
0.004689685
0.0036215382
0.003533391
0.0024105029
6.3287356E-4
-5.494971E-4
-0.0019566088
-0.0020137208
-0.0018584619
-0.0028379443
-0.0036397974