0.0036734228
0.0046876464
0.0043718703
0.0016066113
9.589819E-4
-4.8338866E-4
-0.0023105005
-0.0011852417
-0.0027347242
-0.004798948
-0.0062879124
-0.0043221363
-0.0050887302
-0.002828213
-0.003440066
-7.0065915E-5
0.0019570459
0.003998899
0.0027383813
0.0031678637
0.005364458
0.0047586816
0.003950535
0.0034523876
0.0022394995
0.0011642408
4.6661132E-4
-8.2575926E-4
-0.0053323535
-0.004938948
-0.0040108007
-0.0048450246
-0.0033968776
-8.9924806E-4
-6.9248046E-5
-0.0012539893
3.601074E-5
0.0034278638
0.0043120873
0.0041239406
0.0040057935
0.0037176465
6.9001707E-4
-0.0027394653
-0.0012542065
-0.0023913183
-0.0026808009
-0.005297395
-0.0063863597
-0.0065176953
-0.006779031
-0.0056779957
-0.0041398485
-0.0023069605
-0.0020840722
-0.0025711842
-9.6355466E-4
0.0013311865
0.0018359277
0.00303541
0.002632522
0.0014272631
9.696338E-4
-6.0273684E-4
-9.251074E-4
-1.0510742E-4
-0.0011898486
-0.003209331
-0.003831184
-0.0036830371
-0.00347489
-0.0045691137
-0.005365708
-0.0066270432
-0.0054236376
-0.0046678614
-0.004332085
-0.0021791968
-0.012017126
0.0036147265
0.007116062
0.0047902856
0.0035321387
0.002921621
6.139917E-4
-1.60083E-5
-0.0018207495
-0.002700232
-0.0015049732
-0.0029844556
-0.0020515674
-0.0018863085
-0.0023634203
-1.934204E-4
-7.55791E-4
4.465796E-4
0.0025336915
0.0023008033
0.004595027
0.0035368798
0.0032763623
0.0034582154
0.0022453272
1.3532715E-4
-0.0024017848
-0.003231267
-0.0052978615
-0.004432085
-0.003963938
-0.0044781617
-0.003357644
-0.0028071264
-0.0021442382
-0.0010166089
-9.389795E-4
8.433911E-4
0.002630503
6.028735E-4
-7.712647E-5
0.0025899853
0.0038118383
0.0017865796
0.0025036915
2.236914E-4
-0.0019834205
-0.0024105322
-0.0015452735
-0.0028847558
-0.0048489794
-0.0040608323
-0.004957427
-0.0035192799
-0.0036411327
-0.001565874
-0.0010982447
0.0012564965
0.0023536084
0.0019007202
0.0050373143
0.005583909
0.0043781325
0.0031176147
0.0023847267
0.0024918383
5.183838E-5
-6.905322E-4
-8.529028E-4
-0.0012176441
-0.0024447558
-0.0025418678
-0.0038237206
-0.0036755737
-0.0018203149
-0.0027097974
-0.0030392797
-0.0010516504
0.0012530908
0.0024202026
0.002719685
0.003811538
0.0030510204
0.002760503
0.0025276148
0.001712356
8.0472656E-4
6.170972E-4
-0.0030423852
-0.0035642383
-0.004208462
-0.0024855738
-0.002715056
-0.0040169093
-9.092798E-4
-0.002728762
-0.0041206153
-6.829858E-4
5.7938474E-4
0.0026064967
0.0045807203
0.0051373146
0.004361538
0.0033410206
0.0013957617
0.0019428736
0.0015676147
-5.647559E-4
-0.0017294971
-0.002306609
-0.0020537206
-0.0018884619
-0.0033379444
-0.0053645386
-0.003936392
-0.0015011329
-3.711328E-4
3.4886718E-4
0.0018036084
0.0030030909
0.0032125732
0.0034744262
0.0031439087
0.0022510204
-6.613501E-4
-0.0017160913
-0.0024332032
-0.0016979444
-0.0014726856
-0.0023697973
-0.00296928
-0.0059282444
-0.004984839
-0.004016692
-0.0029561743
-0.0033256568
-0.0034575097
-0.0028369923
7.053784E-4
0.0012001196
3.2011964E-4
0.002659602
0.0041738255
0.0038256787
0.0028551612
0.0030446434
0.0012193847
9.3175535E-4
0.0026288673
0.0014336084
-5.087622E-4
-0.0015435034
-0.0022506153
-0.016862769
-0.0060917335
7.82666E-5
0.0016230078
0.0020901195
0.002949602
0.004213826
0.004568049
0.0050746435
0.0053712376
0.0046154615
0.004319685
0.0016844262
-3.7794435E-4
-0.0012726856
-0.0025797973
-0.004174021
-0.0010963916
-0.0024735034
-0.004407727
-0.00372958
-0.004111433
-0.0020185448
-0.0019956566
-0.0011803979
-0.0015251392
-9.575098E-4
0.002139602
0.0033890845
0.0013638256
5.461963E-4
5.785669E-4
0.0013133081
0.0011356787
7.180493E-4
-0.0012166919
-0.0022338037
-0.0040756566
-0.003125139
-0.0028446217
-0.0041264747
-0.0024335864
-0.0029230688
-0.0022801806
-0.0015649219
3.4507812E-4
0.0018498193
0.0025169312
0.004601155
0.0058401194
0.0059290845
0.004283308
0.0015180493
6.804199E-4
0.0016551611
0.0011599023
-0.0010724682
-0.00238958
-0.0030190626
-0.003158545
-0.0028180273
-0.0026575099
-0.001252251
-0.0012569922
-0.0018617334
0.0011930078
0.0023701196
0.0022872314
0.004241455
0.003893308
0.0032127905
0.004197014
0.0041612377
8.636084E-4
-9.087622E-4
-4.011328E-4
-2.0113282E-4
-0.0020582445
-0.0038400977
-0.00275958
-0.0049961745
-0.0035480272
-0.0033998804
-2.7988036E-4
-6.82251E-4
-2.2250977E-5
0.003569602
0.0045638257
0.004198049
0.004602273
0.003814126
0.0032036083
0.0034454614
0.0028949438
0.001669685
0.0012044263
-2.7557372E-4
-0.0033750562
-0.0048892796
-0.004935874
-0.005042468
-0.016734622
-0.011972551
-0.0125128515
-0.008951299
-0.008537375
-0.0072410814
0.0020460302
0.008874478
0.010045296
0.009433743
0.0073874486
0.006518784
0.0052353786
0.0034572314
0.0029967139
0.0022338256
0.0013585669
9.209375E-4
-3.914331E-4
-0.002128545
-0.0031480272
-0.0018727685
-5.351392E-4
1.8486084E-4
0.001309602
0.0024167139
0.003638567
0.0030680492
0.0027875318
0.003037014
0.0029464965
0.003375979
0.0028754615
-9.969092E-4
-0.0014116504
-0.0029511328
-0.001435874
-0.0017206152
-0.0027200975
-0.0031995801
-0.002226692
-0.0018914331
-2.614331E-4
6.409375E-4
6.333081E-4
0.0013880493
0.0031375317
0.0035093848
0.0046136086
0.004687832
0.0030273146
0.0022544262
-1.1557373E-4
-0.0022926854
-0.0018474268
-0.0044416506
-0.0069029857
-0.0030224682
-0.00207958
-0.0034014331
-0.002578545
-0.0031480272
-8.0039795E-4
0.0010019727
6.843433E-4
0.0036661963
0.00484042
0.0045046434
0.0023417554
0.0027112379
0.003713091
0.0016578321
6.9020264E-4
-7.72168E-4
-0.0012569092
-0.0015916504
-0.0022787622
-0.002535874
-0.003917727
-0.0049143215
-0.0035261742
-0.004440398
-0.005666992
-0.011292552
-0.013745222
0.0024518897
0.0036537426
0.005300337
0.005106931
0.0040587843
0.0038506372
0.0032901196
5.6249026E-4
-6.498804E-4
-0.0025169922
-0.0028264746
-0.0025635865
-0.0031730689
-0.0042972923
-0.0040691453
-0.002688628
-0.004020481
-0.0033399633
-0.0032294458
-1.094458E-4
0.0018876661
0.0012724072
0.0036842602
0.004908484
0.005015078
0.003946931
0.002404043
9.5641357E-4
7.587842E-4
3.387842E-4
-6.835864E-4
-0.0012183277
-0.0047125514
-0.0032020337
-0.0021191456
-0.0031086279
-0.0036504809
-6.6285155E-4
-7.652222E-4
-0.0011275928
-0.0022447046
-0.0023118164
-1.418164E-4
0.004172407
0.006411372
0.002188484
-7.138867E-4
-5.762573E-4
-5.8862794E-4
-0.0026357397
-0.0019928515
-0.002982334
-0.003674187
-0.00359604
-0.0033255224
-0.0023226342
-0.0012873755
6.749951E-4
0.0017397363
0.0018844776
0.0022815894
0.004375813
0.004590037
0.0038118896
0.0035037426
0.0016384838
0.0027279663
0.0014427075
0.0010650781
0.00196219
0.0016169312
6.9311523E-6
-4.3543946E-4
-0.0027249218
-0.0031144044
-0.0029738867
-0.0029833692
-0.0016381104
-7.0048094E-4
-0.0010828516
-9.7522215E-4
0.0023518896
0.0056708544
0.0043850783
0.0049616722
0.004295896
0.0015106372
-0.001644104
-0.003705957
-0.00342781
-0.0018949219
-0.0032944044
-0.0028738866
-0.0036257398
-0.0036675928
-0.005124187
-0.004608411
-0.0018855225
5.6684815E-4
0.0026663307
6.087012E-4
4.2107177E-4
0.001225813
0.0044400366
0.0038418896
0.0014566309
0.0010890014
0.0018137427
9.261133E-4
2.661133E-4
-0.002843369
-0.0027228515
-0.0039847046
-0.0042489283
-0.0033184106
-0.0020055224
-0.0023226342
-0.0013573755
2.3262452E-4
-4.7375488E-5
8.349951E-4
0.002432107
0.00408396
0.0057329247
0.0047071483
0.0037990015
9.813721E-4
7.137207E-5
4.137207E-5
-0.0013233691
-0.001990481
-0.0021575927
-0.0023947046
-0.0041365577
-0.0017912989
-0.0020384106
-0.0022255224
-0.0016002636
-0.0034421168
-0.0022992285
0.0020478833
0.004242107
0.00368396
0.003885813
0.0019329248
0.0019100367
0.0010324073
0.002329519
0.0017342602
-6.3811033E-4
-0.0014628515
-1.4285157E-4
-0.0012675928
-0.0019247046
-0.0025218164
-0.002871299
-0.0031307812
-0.0034726344
-0.0026721167
3.902539E-4
3.702539E-4
8.726245E-4
0.0023197364
0.0027992188
0.0024863305
0.0017810718
0.001195813
0.0016905542
-0.0025365576
-0.004550781
-0.0073844874
-0.005753452
-0.004095305
-0.004239529
-0.010682717
-0.017367242
-0.0027767236
-0.0011290943
3.4090577E-4
0.0031403883
0.004032241
0.003974094
0.0065054297
0.005242024
0.0052486183
0.0049552126
0.0040570656
0.0033665479
0.0048207715
0.0010331421
0.0016478833
9.502539E-4
-7.521167E-4
-0.0014068579
-0.0015715992
-0.0031410817
-0.0039029345
-7.353052E-4
0.001289436
0.0018341773
0.0029736597
0.0024807714
0.0012355127
0.004952107
0.00357396
0.0024910718
0.003652925
0.0030224072
2.4240723E-4
-3.4759278E-4
-0.0019047046
-0.0014594458
-0.001474187
-0.0026412988
-0.0022684108
-0.0014431519
-0.0022902638
-0.0027797462
-0.0014244873
-3.044873E-4
5.7788333E-4
0.002434995
0.004629219
0.005035813
0.0031152954
0.0019824072
0.0017771485
3.5714844E-4
0.0022842602
8.1663084E-4
-0.002030481
-9.928516E-4
-0.0024699634
-0.0028694458
-0.0028989282
-0.0036607813
-0.0017755225
-0.0016902636
-0.0010626343
0.0022744776
0.00325396
0.0021110717
0.0033705542
0.004674778
0.005341372
0.005037966
0.002365078
8.507812E-5
-0.0021920337
-0.0034738868
-0.0029633692
-0.0020904809
-0.0013952221
-0.002562334
-0.0031818163
-0.004968411
-0.004462634
-0.001959746
-0.0014944873
0.0022526246
0.0025797363
0.0033892188
0.0045834426
0.005872407
0.006321372
0.0043955958
0.002735078
0.0011498193
1.19819335E-4
-7.2255125E-4
-0.0036844043
-0.0034662574
-0.0036781104
-0.0030375929
-0.001822334
-4.247046E-4
-0.0011894458
-5.818164E-4
3.181836E-4
0.0013829248
0.001757666
3.3766602E-4
7.500366E-4
0.00400189
0.005468484
0.0023155957
6.179663E-4
-0.0022891455
-0.0012438868
-9.462573E-4
-0.0012009986
-0.0016857397
-0.001640481
-0.0011352221
-0.002152334
-0.0024294457
-0.008325523
-0.0074092285
-0.0036310814
-0.003400564
-5.429346E-4
2.7706544E-4
0.0022041772
0.0026736597
0.003083142
-5.685791E-5
0.0016578833
-0.0011868579
-0.014271899
-0.014146941
-0.0023340527
-0.0013287939
-0.0021959057
-0.0020730176
-0.0020401294
-0.0025072412
-0.0028067236
-0.0018414649
8.535157E-6
0.0032680177
0.005464612
0.0058635767
0.0062925415
0.0062415064
0.0028809889
-0.0018237524
-0.0050503467
-0.005386941
-0.0049011647
-0.005027759
-0.0047619822
-0.0035038355
-0.0046680593
-0.004622283
-0.004134136
-0.004358359
-0.0052949535
-0.003264436
-0.0016091772
0.001205564
0.004037417
0.0046116407
0.004998235
0.0063771997
0.007018535
0.0071098707
0.0048540942
0.0037559473
0.0032354298
-1.5457031E-4
-0.0040464234
-0.0041482765
-0.002827759
-0.0025848707
-3.448706E-4
-0.0024719825
-0.0024690942
-8.2146487E-4
7.909058E-4
0.0010532764
0.001135647
0.0017003882
0.0032898707
0.007081206
0.007967283
0.007740989
0.005137583
0.0027570655
0.002666548
0.0015212891
6.136597E-4
-0.0017610815
-0.0011758228
-0.001130564
-0.0016853051
-9.576758E-4
-0.0010300464
-4.7241698E-4
0.0011623242
0.002519436
0.0052660303
0.0078397365
0.008255813
0.0074995193
0.007883225
0.00617219
0.003854043
0.0011887841
-0.0045654397
-0.006796775
-0.0062857396
-0.0063047046
-0.005051299
-0.0037331518
-0.0032426342
-0.0031821167
-0.0022292286
-0.002778711
-0.003460564
-0.0019776758
1.4232422E-4
0.001919436
0.0029689185
0.003118401
0.0046926243
0.002882107
0.0027815893
-6.5078126E-4
-0.0049573756
-0.015697159
-0.0067684934
-0.0013032348
-2.1323486E-4
-0.0018579761
-0.0034598291
-0.005738794
-0.0062077586
-0.005054353
-0.0021814648
5.0090573E-4
0.0023780176
0.0053046118
0.006625947
0.005674912
0.0027543944
-2.7560547E-4
6.167651E-4
3.7676515E-4
-0.001727976
-0.0031174584
-0.0024045703
-0.0027740528
-0.001758794
-0.0015835351
-0.0017782764
-0.0041401293
-0.004514353
-0.003796206
-0.0021333178
-0.0020304297
-0.0036322826
8.200879E-4
0.0029595704
0.004111423
0.004155647
0.0064969826
0.0061859475
0.0050225416
0.0021096533
0.0035515064
0.0022886181
-0.001296123
-0.0012908643
-0.0052274587
-0.005164053
-0.0025011646
-0.0020482764
-0.0018530176
-0.0020801295
-0.0027096118
-0.001334353
0.0021527589
0.0027822412
0.0011369825
4.5935303E-4
0.0042235767
0.007407283
0.006978618
0.004572842
0.0027523243
0.0043465476
0.003758401
0.0022255126
0.002744995
0.00581396
0.0046981834
1.681836E-4
-0.0027512987
-0.004003152
-0.004919746
-0.009940564
-0.011858494
-0.00865457
-0.0021016821
0.0042725415
0.0076462477
0.007982324
0.0051689185
0.002788401
0.0010707715
-0.0011539697
-0.0058829347
-0.010736123
-0.014983535
-0.012573835
-0.008599912
-0.0050965063
-0.0011288769
0.0043853465
0.0038071997
1.9719971E-4
0.0027266822
0.0026761645
-2.0383544E-4
-0.002833318
-0.0012380591
-0.0016728003
-0.0018775415
-0.0078312475
-0.013243918
-0.01527133
-0.015651112
-0.00808719
-0.0020643019
-0.001619043
-0.0027885253
-0.0036603785
-0.0024974903
-0.003989343
-0.0051659374
-0.0018006787
0.001021692
0.0014564331
0.0033982862
0.0027277686
0.0018848804
7.3725096E-4
0.0020443627
0.0030738453
-3.0615478E-4
-8.585254E-4
-0.0022656373
-0.0025827491
4.396216E-4
3.919922E-4
-3.903784E-4
7.419922E-4
0.002399104
0.0045733275
0.0076770335
0.013289705
0.018386599
0.021032976
0.020829353
0.02099573
0.017752625
0.011688184
0.0071295192
0.0015342602
-0.009204187
-0.019275824
-0.0210422
-0.022613319
-0.019904954
-0.01909422
-0.02804193
-0.03609572
-0.018412614
-0.005359209
0.007874497
0.011350056
0.005939021
-0.0011357202
0.0010966504
0.010319839
0.016671993
0.017676516
0.016146298
0.009917117
0.0060860817
0.006607417
0.005696382
0.014171423
0.025009653
0.018206548
0.012094477
0.030961672
0.049558133
0.06354726
0.07879381
0.0952825
0.13222736
0.15927756
0.14938694
0.10279934
0.05202291
0.02448877
-0.008287307
-0.030132132
-0.035133548
-0.04813527
-0.057165433
-0.0448953
-0.016267454
-0.046102062
-0.052155633
-0.026438603
-0.028938686
-0.036592476
-0.004436699
0.039738942
0.039994586
0.00621355
-0.032940757
-0.07539782
-0.0851857
-0.08735069
-0.08910042
-0.07772459
-0.05204816
-0.06157255
-0.07501724
-0.08179326
-0.062700026
-0.020966403
0.0073773023
0.021313678
0.012021609
-0.018025286
-0.036609076
-0.04552131
-0.040046953
-0.02087333
-0.014870742
-0.0132434135
-0.0052400073
-9.823779E-4
-0.0029218604
-0.01131742
-0.016489573
-0.011035132
-0.0075188377
-0.007492544
-0.003924397
-0.0018591381
-0.0012338794
0.0012508618
0.0020179737
0.005604568
0.007025903
0.010539092
0.008837539
0.007281245
0.007864951
0.010055769
0.010006587
0.008422663
0.00794874
0.0068600755
0.0058390405
0.005435635
0.008481711
0.0107448995
0.009695718
0.0058146827
0.008290759
0.008486836
0.003858689
0.003460542
0.0026900244
0.0016147656
0.0013995068
0.0034613598
0.0066126953
0.008871143
0.0096119605
0.008068037
0.0051446315
0.0037064843
0.0035683373
0.0020354493
0.0032949317
0.0039667846
0.0026338964
0.0024310083
0.00222812
0.0015428613
0.001969973
0.0032094556
0.0044136792
0.0034055323
0.0040973853
0.0034692383
0.0029287208
0.008224797
0.007166133
-0.002300979
-0.016983133
-0.029023215
-0.034109894
-0.03702605
-0.03797458
-0.033268888
-0.02490712
-0.020651126
-0.01771565
-0.015073062
-0.014558103
-0.011093662
-0.0062326267
-6.6499755E-4
0.0077687083
0.012276638
0.014531679
0.015761463
0.018508356
0.020072363
0.02113874
0.02351223
0.018761493
0.014546536
0.014211577
0.014828989
0.011986919
0.012444848
0.008510925
0.007554631
0.008733079
0.008791526
0.008557603
8.6997316E-4
0.0017747143
0.013979756
0.013332427
0.011047985
0.011193545
0.012191474
0.011207034
0.012757334
0.013220005
0.014215047
0.014982458
0.01609224
0.015712025
0.014407066
0.012887366
0.009558183
0.0075718896
0.0074855955
0.007016931
0.0048811547
0.001605896
0.0011506372
-5.617334E-4
-0.0026612158
-0.003453069
-0.007656775
-0.011994705
-0.011590264
-0.013170564
-0.015790347
-0.01738487
-0.015744653
-0.016986806
-0.020280814
-0.018880079
-0.020544084
-0.020860462
-0.020414468
-0.021050844
-0.020907221
-0.019848857
-0.017795753
-0.014400793
-0.0090492405
-0.0058082053
-0.0021153174
0.0025817945
0.0066131297
0.009493948
0.0121018775
0.01481929
0.015529072
0.018065967
0.019185232
0.015995014
0.015854798
0.018231692
0.018520957
0.01514837
0.01393104
0.017827934
0.0186172
0.019358836
0.020875212
0.020189218
0.019138483
0.018065378
0.016457532
0.0152349435
0.014569986
0.012137915
0.011083474
0.0069648097
0.0055814036
0.005207998
0.004742222
0.006883557
0.006322522
0.005771487
0.007225193
0.007528899
0.007822605
0.008298682
0.0098495
0.009357947
0.009918764
0.0068101003
0.0026695826
0.0013643238
0.001149065
-0.0010233057
-0.0047875294
-0.014722571
-0.0029020533
-0.0011867945
-0.0017415356
-0.0022486474
-0.004562871
-0.0011252417
0.00208187
0.0025689818
0.0046532056
0.0046674293
0.0052940235
0.0039358763
0.0022129882
0.0017777295
-6.2270505E-5
-9.646411E-4
-0.002321753
-0.0028412354
-0.0041130884
-0.0049496824
-0.005506277
-0.0048605003
-0.0052270945
-0.005483689
-0.005200283
-0.0037921362
-0.0028316188
-0.0024587305
6.2364014E-4
5.6601077E-4
0.0021431225
-5.687744E-5
-0.0018416187
-0.0024587305
-1.7873046E-4
-0.0026882128
-0.005827178
-0.008093255
-0.006282219
-0.005871184
-0.0076948903
-0.009053337
-0.0072270436
-0.006336008
-0.0053426027
-0.004406826
-0.0027563085
-7.586792E-4
-2.186792E-4
8.13208E-5
0.0033608032
0.0030902857
0.002769768
0.0027592506
9.116211E-4
-2.8378907E-5
5.1621093E-5
7.439917E-4
-1.860083E-4
7.563623E-4
4.187329E-4
7.3110353E-4
-9.512671E-4
-0.002618379
-7.207495E-4
-7.4951174E-7
0.002778733
0.006367698
0.005404292
0.0047685155
0.00493511
0.0048093335
0.0040011867
0.0040130396
0.0012077808
7.9015136E-4
-0.003109331
-0.0058182958
-0.00541489
-0.0035567433
-0.0064580785
-0.0062670433
-0.005846008
-0.0049526026
-0.0039244555
-0.002843938
-8.563086E-4
2.0369141E-4
0.0011884326
0.0036202855
0.006571621
0.0067329565
0.005429551
0.003571404
0.0031108863
0.0026603686
9.1273925E-4
-0.001502002
-0.0020291137
-0.0037809669
-0.005487561
-0.0065488964
-0.00489312
-0.004217344
-0.0042415676
-0.0036634204
-0.0025905322
-0.003982385
-0.009753203
-0.0031426856
0.0063462793
0.0060652443
0.003787097
0.0045313207
0.0042755445
0.002955027
0.0010373974
0.0022345092
-5.5490724E-5
-7.4786134E-4
-0.0024349731
-0.0033044557
-0.007015791
-0.007519497
-0.005978462
-0.0016532032
-9.655737E-4
1.8442627E-4
0.0020615382
0.004153391
0.0053499853
0.00620895
0.005025544
0.0033050268
0.0013897681
2.7976808E-4
5.1213865E-4
-9.90232E-4
-0.0029797144
-0.0029391968
-0.0046234205
-0.004167644
-0.004721868
-0.005158462
-0.005435056
-0.0028845386
-0.0017592798
-0.0020963915
3.136084E-4
0.0021807202
0.0029602027
0.002979685
0.005176279
0.0038581323
0.001090503
5.128735E-4
-0.003376609
-0.0031860913
-0.0016708325
-0.002710315
-0.004012168
-0.0041963914
-0.005032986
-0.0043872097
-0.0020843213
-0.001036692
7.756787E-4
0.0019527905
0.0026399023
0.004051755
0.0058607203
0.0068720556
0.008278132
0.0063270973
0.0018518384
3.6183838E-4
0.0026713207
3.213208E-4
-8.1104983E-4
-0.0014257911
-6.4816163E-4
6.183838E-5
-3.3816163E-4
-2.6816162E-4
-6.205322E-4
0.0019865795
0.0039184326
0.0046126563
0.006261621
0.008750068
0.007813774
0.007989851
0.009098298
0.0073320046
0.0072457106
0.006807046
0.0044812695
0.0036331227
0.0024002343
0.0027297167
0.0032491991
0.0015939404
-3.0605958E-4
-4.784302E-4
3.1569823E-5
0.0033710522
0.004715276
0.0041794996
0.0045737233
0.0042579467
0.0040698
0.0059987647
0.0063577294
0.0053843237
0.006905659
0.0064869947
0.004901218
0.00251833
1.1833008E-4
-7.340405E-4
-0.0015387817
-0.001213523
-0.0020706349
-0.003562488
-0.0031019703
-0.001899082
-0.0018638233
7.185474E-4
0.0039604004
0.0017851416
0.0010975122
0.0049441066
0.002833589
7.3595945E-4
0.0017207006
-8.2166994E-4
-0.0011864111
-1.1641113E-4
-0.0031858936
-0.012423824
-0.011009382
-0.0027688649
-0.0014936059
-0.0017783472
-0.001985459
-0.0012502002
-7.525708E-4
6.997998E-4
0.0038716528
0.003423506
8.6587644E-4
4.9824704E-4
0.0030277295
0.005044324
0.0019114355
0.0016561768
3.7854735E-4
-7.1382325E-4
-6.4619386E-4
-0.001360935
-0.0030104176
-0.004214641
-0.005903606
-0.005702571
-0.0047167945
-0.0036486476
-0.0012633887
0.001068982
0.0023860938
0.0032055762
0.0042797998
0.005286394
0.0048606177
0.0032501002
0.002057212
9.895825E-4
8.119531E-4
3.1195313E-4
-6.704175E-4
-0.0017951587
-7.775293E-4
-0.0016922705
-0.0020493823
-0.002296494
-0.0017512353
-3.2123536E-4
0.0013635058
0.0019106177
0.0045848414
0.0039966945
0.0049232887
0.0063122534
0.0047664773
0.006375442
0.0043296656
0.0021167772
-1.7322265E-4
-0.0012279638
4.8440674E-4
-0.0018803345
-0.0017950757
-6.1744626E-4
-0.0029369288
-0.0028364111
-1.6641113E-4
-0.0011911524
-0.0015358935
0.0012288477
0.0028783302
0.0042925538
0.005629148
0.006248113
0.0032475952
0.00590656
0.0066178953
0.0046621193
0.0026416015
0.0013263428
-2.3365722E-4
1.6634277E-4
0.0011287134
6.01084E-4
5.1083985E-5
2.6108397E-4
5.334546E-4
1.334546E-4
0.0019105664
0.00437479
0.0041890135
0.0038608667
0.0058798315
0.006571167
0.004635391
0.0036472436
0.0021443556
0.0018890967
0.0013238379
0.0016685791
3.185791E-4
-0.0018361621
-0.0027456444
-0.002645127
-0.00343698
-0.0025540919
-0.001718833
-7.312036E-4
0.0011735376
0.0018382788
0.0042025023
0.0047467262
0.0054333205
0.005772285
0.0068536205
0.0041254736
0.0012702148
1.10214845E-4
3.7021484E-4
0.0017549561
-2.8504393E-4
-0.0022221557
-0.001436897
-0.0024440088
-0.0024211206
-0.0035829737
-0.003112456
-0.0029319385
3.8061524E-5
0.0017328027
0.0018075439
0.003989397
0.007173103
0.0064844387
0.004838662
0.006679998
0.0031194799
0.0017942212
0.0015889624
-1.710376E-4
-0.0023581495
-0.0025952612
-0.0016400025
-0.0016347436
-0.0039265966
-0.0048608202
-0.0038626734
-0.0027621558
-6.5452635E-4
0.0023325854
0.0017873266
0.0011720678
0.0029615504
0.004765774
0.0048699975
0.005446592
0.0040384447
0.001883186
0.0017979272
0.002225039
0.002272151
1.2215087E-4
-8.702197E-4
-0.0026173315
-0.0030768139
-0.0030562964
-0.0029557787
-0.00169052
-0.0025476317
4.2473877E-4
3.6473878E-4
-3.9763184E-4
0.0035242212
0.0052508153
0.004325039
0.0028545214
-2.854785E-4
-0.0045697023
-0.004763926
-0.014811338
-0.008327414
-0.0049016383
-0.0032611205
-0.0021782324
-9.4060303E-4
-0.0024777148
-0.001622456
-4.1482667E-4
-0.0010871972
-6.4956787E-4
9.0280274E-4
0.0036946558
0.0059836204
0.006664956
0.0063439207
0.003675774
0.0022928857
0.0021399977
0.0013847387
-4.0763183E-4
-0.0020047436
-0.0013294849
-0.001724226
-0.003506079
-0.0043803025
-0.0034621558
-0.0025092675
-0.0015540088
-7.463794E-4
-7.6379394E-5
1.13620605E-4
0.002783103
0.0053796973
0.0056162914
0.0055628857
0.003964739
0.003906592
0.0027160742
0.0019331861
9.955566E-4
-0.0011791845
-0.0013639258
-0.0041781496
-0.004782373
-0.005008967
-0.0032084498
-0.0014531909
-0.0012079321
-0.002325044
-0.0015597851
0.0019773266
0.0037191797
0.0062481444
0.0062271096
0.0049737035
0.003063186
0.0025402978
3.6029785E-4
-6.7207275E-4
-0.003001555
-0.0031710376
-0.0018757788
-0.003427632
-0.0048518553
-0.0035237086
-0.0039155614
-0.002895044
-0.0028845263
-0.0015692676
-0.0012240087
1.4599122E-4
0.002393103
0.0028925855
0.0030720679
0.0034239208
0.0047981446
0.0035999976
8.423682E-4
-0.0017723731
-0.0012671143
1.1288574E-4
-0.002344226
-0.0030837085
-0.004227932
-0.004119785
-0.0044340086
-0.004055862
-0.0024229737
-0.0048671975
-0.004451421
-8.037915E-4
0.0022633204
0.0012180615
0.002737544
0.0031470263
0.00434125
0.0053578443
0.002624956
-9.774145E-4
-0.0025545263
-0.0017392676
-0.0020463795
-0.004250603
-0.003982456
-0.00471668
-0.0040685325
-0.0036603857
-0.0038222389
-0.0022693507
-0.0012340918
0.0011306495
0.0019877611
0.0029472436
0.0042314674
0.0053080614
0.0058470266
0.00470125
0.0012959912
0.0015407325
6.03103E-4
-8.9926756E-4
-0.0012240087
-0.0021211207
-0.0021882325
-0.0016429736
-0.0015877149
-0.0030671973
-0.0021643091
-0.002051421
-9.037915E-4
4.185791E-4
0.0016733203
0.0032128028
0.0033322852
0.0051288796
0.004353103
-4.6896974E-5
6.4547366E-4
-0.0012392675
-0.0020363794
-0.0025534912
-0.0035753443
-0.002032456
-0.0017471972
-0.0037990503
-0.0036609033
-0.0034227564
-0.0026422387
-0.0020093506
-5.817212E-4
4.006494E-4
0.0020277612
0.004581985
0.00574095
0.0041428027
0.0041546556
0.0029441381
0.0014788794
0.0032183619
0.0014131031
-0.0012816382
-0.0034734912
-0.0018682324
-0.0020053443
-0.001912456
-0.0028519384
-0.0023090502
-4.414209E-4
0.0021756908
0.0031451734
0.004137026
0.0031865088
0.0047607324
0.0054473267
0.0056039207
0.0067852563
0.0054818504
0.0023589623
6.6133303E-4
5.133301E-5
-5.710376E-4
-0.0012057788
-3.7577882E-4
-0.0022928906
-0.0032923731
-0.003424226
-0.003596079
-0.0047703027
-0.0023574145
8.9495606E-4
0.0019620678
0.001326809
0.003408662
0.004362886
0.0039847386
0.0038365917
0.0037984448
-0.0016662964
4.3703614E-5
-6.88667E-4
-2.98667E-4
3.21333E-4
-0.0032981494
-0.0075318553
-0.01734638
-0.010549568
-0.0029690503
-0.0012637915
-0.0013985328
-0.001533274
-6.256445E-4
0.0010867261
0.0049933204
0.004507544
0.0052041383
0.0055607324
0.0019178443
-6.9452636E-4
4.3784422E-4
0.0031173266
8.6969725E-4
-0.001465044
-0.0024721557
-0.0026092676
-0.0023563793
-0.0037882323
-0.004802456
-0.0032919385
-0.0018990503
-0.0018337915
-1.337915E-4
0.0011409497
0.0017556909
0.0029451733
0.004799397
0.00414125
0.0028607324
0.0011954736
1.8547363E-4
-5.2689697E-4
-4.3926758E-4
-0.00270875
-0.0023558617
-0.0025829736
-0.0026200854
-0.0022371972
-0.0036490504
-0.0012437915
2.762085E-4
4.585791E-4
7.809497E-4
0.0014356909
9.1806153E-4
0.0031475439
0.0046417676
0.00326125
0.0023483618
0.0037102147
0.0042344383
0.0021915503
0.0012462916
0.0010386622
-5.437085E-4
-0.0020408202
-0.0028703026
-0.0046245265
-0.0033963793
-0.0037482325
-0.006909568
-0.005898533
-0.001853274
-0.0011480151
0.0010843555
0.0038462086
0.004962803
0.0047070263
0.0028365087
0.0026436206
0.004095474
-3.2452637E-4
-0.0019416382
-5.940088E-4
-0.0023411205
-0.0059900857
-0.004834309
-0.002511421
-0.003963274
-0.0026727563
-0.002209868
2.0013184E-4
4.3250245E-4
8.3487306E-4
0.0012196143
0.0015643555
0.0040862085
0.0056128027
0.004817026
0.0038288794
0.0027183618
3.7836182E-4
-0.0013163794
0.0010759912
5.599121E-5
-0.0024011205
-0.002880603
-0.0048548267
-0.0045190505
-0.0033685328
-0.0018856445
-0.0021227563
0.0014019848
0.0012067261
0.0027962085
0.0034280615
0.0034999147
0.004484138
0.0037459913
0.004690215
0.0025373267
0.0013320679
2.9206788E-4
-7.9030276E-4
-1.00302736E-4
3.6969726E-4
-0.0032197852
-0.004011638
-0.004255862
-0.0031653442
-0.0036371972
-0.0013619384
7.806152E-5
-3.9430909E-4
0.0014704322
0.0029299145
0.0033493969
0.0047236206
0.004227844
0.0029573266
0.0018120678
-1.8793214E-4
-8.1030274E-4
-0.0012550439
-0.0010074145
-0.002676897
-0.005443491
-0.0052400855
-0.0053366795
-0.0062756445
-0.013538316
-0.0087767625
1.732373E-4