4.9465575E-4
-0.0016500854
-0.0017748267
-0.0037666797
-0.004260903
-0.0052574975
-0.0059764623
-0.005915427
-0.004499651
-0.0025767628
6.156079E-4
0.0022727198
0.0025598316
0.005286426
0.003788279
0.0026577613
0.0038896143
0.0050462084
0.0029456909
-6.1667967E-4
-0.0027361622
-0.003978015
-0.0051746094
-0.004388833
-0.003580686
-0.003462539
-0.005681504
-0.0041857273
-0.0020628395
-0.0012175805
0.0012071606
0.0037390136
0.0063179787
0.006619314
0.006298279
0.0051548732
0.0017096143
0.0019467261
0.0011714672
-0.0010909033
-0.0010632739
-1.9327393E-4
-0.0016780151
-0.0028674975
-0.004231721
-0.006010686
-0.008046763
-0.0060657277
-0.0018004688
-8.828394E-4
0.0011419018
0.0038537548
0.00617272
0.007376426
0.0067577614
0.0065290965
0.006660432
0.006239397
0.0048836204
0.002833103
0.0015478443
7.002148E-4
-0.001966897
-0.0027263793
-0.006135344
-0.0067366795
-0.0042709033
-0.0033603858
-0.0032998682
-0.0027293507
-3.917212E-4
4.106494E-4
0.0034825024
0.0068138377
0.007837544
0.00759125
0.003823103
-0.008222974
-0.0012977149
0.0033017676
0.0010941381
-0.001130603
-0.0015253442
-0.0019924561
-0.004144309
-0.002481421
-0.0047056447
-0.005152239
-0.007133574
-0.004457798
-9.3016843E-4
0.0030593139
0.004243538
0.006904873
0.0065062083
0.0059051733
0.006646509
0.003998362
0.0026578442
0.0017025855
0.0018373267
9.996973E-4
-3.2030273E-4
-0.0014850439
-0.0027545264
-0.0031040087
-0.0046682325
-0.004412456
-0.0033919385
-0.0028314209
5.209497E-4
0.001685691
0.0042899144
0.004674138
0.0034259912
0.004390215
0.0042744386
0.0017691797
7.515503E-4
6.139209E-4
-0.0011508203
-0.002447932
-0.0033997851
-0.004424009
-0.0043982323
-0.0036000854
-0.0049866796
-0.0034785327
-0.0020256445
-0.0023127564
5.0961424E-4
0.0016743555
0.003183838
0.0059228027
0.0064341384
0.0055507324
0.004494956
0.0036468091
0.0015515503
-0.0030879322
1.2206787E-4
-6.003027E-4
-0.0035921559
-0.00510875
-0.005535344
-0.005914309
-0.0064956443
-0.0057846094
-0.004338833
-0.0029483153
-0.0015730567
-2.0305664E-4
0.0017616845
0.0057506496
0.006319614
0.006248579
0.0055051735
0.0055317674
0.0024188794
5.3125E-4
0.0020783618
-1.21638186E-4
-0.00245875
-0.004040603
-0.006319568
-0.007703274
-0.00864935
-0.016241504
-0.01947314
-0.0027226221
6.7974854E-4
0.0048639723
0.006332937
0.0052995314
0.006378496
0.007522202
0.0055487966
0.006417761
0.0034896142
0.002576726
0.0018214673
-2.1853272E-4
-0.001273274
-0.0025803857
-0.0043146093
-0.0034864624
-0.0037183154
-0.00525491
-0.0030043921
-6.267627E-4
0.0021603492
0.0032198315
0.005166426
0.0066377614
0.008493838
0.009614656
0.008853103
0.00825918
0.0058881445
0.002647627
0.0025547387
0.0019518506
0.0023889623
-0.0010334082
-7.557788E-4
-0.0012905201
-0.0048347437
-0.0041989675
-0.0033184497
-0.001153191
3.4680907E-4
0.002483921
0.0028234033
0.0028928858
0.0057018506
0.0059708157
0.006652151
0.0053487453
0.002615857
0.0017205982
0.00243771
-7.9466065E-4
-0.0021017725
-0.0036336256
-0.0063025905
-0.0075562964
-0.008934744
-0.006846079
-0.0054026735
-0.0034345263
-0.0019516381
-0.0010740088
0.0034978443
0.006266809
0.007992886
0.007716592
0.0062455568
0.0062145214
0.0049911155
0.0023882275
0.0021853393
-5.770312E-4
-0.0042512547
-0.0028607373
-0.002497849
-0.0054744435
-0.006995779
-0.005552373
-0.0050389674
-0.0037208204
-7.731909E-4
6.791797E-4
0.0015139208
0.0031234033
0.006604739
0.005743704
0.005230298
0.005809263
0.004503486
0.0017382276
-1.1177246E-4
-0.0011965137
-0.0025436254
-0.0056825904
-0.0055391844
-0.0054757786
-0.007619485
-0.0074031907
-0.005039785
-0.0028992675
-0.0020963794
0.0010759912
0.0032954735
0.005302068
0.0068534035
0.005732368
0.0027018506
0.0034437035
0.0020608155
0.0024179271
0.0013026685
-0.0016720728
-0.0045562964
-0.00419052
-0.0034423731
-0.004206597
-0.0058755614
-0.0071792677
-0.0060082325
-0.0035700854
-0.0022471973
-4.3956787E-4
5.328027E-4
0.0011051734
0.0032646558
0.0037565087
0.0046907323
0.004444956
0.0036768091
0.0019839208
6.762915E-4
1.1629151E-4
-0.0012584497
-0.004322673
-0.0032921557
-0.004666379
-0.0060053444
-0.0066466797
-0.005193274
-0.0027827565
-0.002059868
2.2013184E-4
-1.0986816E-4
0.0024172436
0.0019243555
0.0018290967
0.0024362085
0.004570432
0.0037222852
8.4465573E-4
-1.8534424E-4
-0.0016200854
-0.004434309
-0.0064656446
-0.0146306865
-0.016332839
-0.004537063
-0.003808916
-0.00563551
-0.0051121046
-0.0024092162
8.831543E-4
0.0031126367
0.0044868602
0.004191084
0.005117678
0.006809014
0.0057679787
0.003357461
0.0025545727
0.0024816846
7.340552E-4
-0.0032454273
-0.0051420215
-0.0023391333
-0.0038509862
-0.005789951
-0.0063989162
-0.0047131395
-0.002732622
-0.002479734
-2.7973388E-4
0.003532119
0.0045063426
0.0060953074
0.007991385
0.005900349
0.0043945727
0.0025316845
0.0022187964
7.11167E-4
-3.812036E-4
-0.0022983155
-0.002657798
-0.0047320216
-0.0049086157
-0.0060275807
-0.004611804
-0.0039736573
-0.002110769
-7.8313967E-4
2.7686034E-4
0.0031763427
0.0049005663
0.0058495314
0.006460867
0.005027461
0.005154055
0.0029835375
2.835376E-4
0.0024806494
6.4941406E-7
-0.0024064623
-0.004680686
-0.003612539
-0.0057615037
-0.005690469
-0.0042246925
-0.0053212866
-0.0053778808
-0.004914475
-2.744751E-4
0.0021126368
0.0043268604
0.004571084
0.004947678
0.0056042722
0.005350867
0.005397461
0.003859314
0.0019464258
0.001161167
0.0015259082
-0.0033735742
-0.0036954272
-0.0026225392
-0.002199651
-0.0049362453
-0.004650469
-0.0036323217
-0.0024394337
7.52937E-4
0.0030324194
0.005459014
0.00752272
0.007988797
0.0074025025
0.0066938377
0.0032333203
7.856909E-4
-0.002011421
-0.005018015
-0.00600698
-0.008293057
-0.018582322
-0.009370769
-0.004834993
-0.005261587
-0.00384344
-0.0028529223
-0.0013276635
-3.0766358E-4
0.0021294483
0.0055760425
0.006677378
0.008483455
0.0062824194
0.0069837547
0.005130349
0.0017950904
0.0011174609
6.998315E-4
-0.0015849096
-0.0023020215
-0.004436245
-0.0038680981
-0.0032975806
-0.0051941746
-0.005270769
-0.0041549928
-0.0028444752
-1.444751E-4
0.0018802661
0.0031097485
0.0037316016
0.0056905663
0.006671902
0.005318496
0.0020656078
0.0016503491
0.0014650903
0.0013198316
0.0011222021
-4.2016845E-4
-0.005036763
-0.005123357
-0.006382322
-0.0045965454
-0.004690769
-0.0042049927
-4.7736327E-4
0.0017773779
0.003829231
0.003881084
0.0022281958
0.003400049
0.005136643
0.0060956078
0.0044998317
0.0042640553
0.002031167
-1.58833E-4
1.81167E-4
-0.0013535742
-0.002180686
-0.002387798
-0.0034896508
-0.0050662453
-0.004008098
-0.0011428393
-8.9520996E-4
-8.675806E-4
0.0021095313
0.0056784963
0.006147461
0.0050040553
0.00616302
0.008189097
0.007100432
0.0033099146
0.0022870263
0.0026865087
0.00164125
4.836206E-4
-0.00100875
-0.003630603
-0.003592456
-0.0027919384
-0.0034637915
-0.002763274
-0.003395127
6.1724364E-4
0.0035890967
0.0047333203
0.0050199144
0.0057388796
0.005265474
0.0057544387
0.0039262916
0.0019934033
0.0028028858
0.0023099976
0.0021271093
1.5710937E-4
-0.0016976318
-0.0014923731
-0.0026418555
-0.004796079
-0.0048203026
-0.004132156
-0.0014468969
3.23103E-4
0.0027525853
0.0015273266
0.0038391796
0.005225774
0.0065171095
0.0061060744
0.0042902976
0.001855039
0.0014897803
0.0018445215
-5.9784914E-4
-0.002324961
-0.0021020728
-0.003241555
-0.00593052
-0.0065218555
-0.006463191
-0.005359785
-0.0032892677
-0.0018140088
9.083618E-4
7.607324E-4
0.0038025854
0.006853921
0.0055405153
0.0050371094
0.004331333
0.0023984448
0.0010008154
0.0010631861
-2.5681398E-4
-0.0024039259
-0.0030734083
-0.0055200025
-0.004314226
-0.0030237085
-0.0040155617
-0.0061845263
-0.0039863796
-7.6875E-4
0.0022483617
0.0059873266
0.0061462917
0.0062652566
0.006104221
0.0060831863
0.0033326684
0.002702151
0.0018468921
0.0011716333
4.140039E-4
-0.002093108
-0.0063520726
-0.013584743
-0.01917401
-0.005520603
-0.0031300855
-0.0022271972
-0.0027666797
-0.0020437916
-0.0018785327
9.738379E-4
0.0042180615
0.0040899147
0.0041117677
0.005038362
0.004994956
0.003926809
0.0028262916
0.0034381445
6.705151E-4
-9.918555E-4
-5.742261E-4
-0.0015389672
-2.3896729E-4
-0.002336079
-0.0018108203
-0.0021679322
-8.8030274E-4
4.1206786E-4
8.8443846E-4
-5.779321E-4
0.0016968091
0.0066081444
0.0059671095
0.0055137035
0.0043379273
0.0027574096
2.2740966E-4
-3.1259033E-4
-0.001969702
-0.0026491845
-0.0022462965
-0.0017510375
-0.0022881494
-0.0034100024
-0.003289485
-0.005316079
-0.0047803028
-0.0019674145
7.449561E-4
0.0021120678
0.0037539208
0.0033134033
0.004407627
0.005504221
-3.9814942E-4
-0.0030176318
-0.0019247436
-0.0024118554
-0.0022789673
-8.813379E-4
-0.0015260791
-0.0037579322
-0.0034297851
-0.0039416384
-0.0032611205
-0.0025682324
-0.0021553442
-1.2534423E-4
0.0030841383
0.0033536206
0.0060525853
0.006843921
0.007125256
0.0051318505
0.0050684446
0.0051250393
0.003826892
0.0012016332
-9.5073733E-4
-0.0028602197
-0.005166814
-0.006355779
-0.0053523732
-0.006301338
-0.005317932
-0.0048621558
-0.0033416383
-0.00193875
0.0011559912
0.0041578445
0.0055044387
0.006945774
0.0047399974
0.0023871094
0.0016518505
0.0012865918
-0.011961338
-0.0030108204
7.215503E-4
-1.8449708E-5
-9.708203E-4
-6.631909E-4
-0.0018279321
-0.0043421555
-0.001636897
-5.0926756E-4
-3.3926757E-4
0.0012454736
0.003114956
0.0032844385
0.004618662
0.004110515
0.00593948
0.0053460742
0.0053726686
0.002662151
-0.0021049608
-0.0031044434
-0.004991038
-0.005657632
-0.0047218553
-0.0045460793
-0.0075097852
-0.008085862
-0.0049100854
-0.0034219385
-0.0014166797
-0.001191421
2.585791E-4
0.002435691
0.003597544
0.003929397
0.0046736207
0.003293103
0.0018178442
0.0023749562
1.2495606E-4
3.8732667E-4
4.4969725E-4
6.9206784E-4
-1.8793214E-4
-0.0014626733
-0.004256897
-0.006095862
-0.0059848265
-0.009173274
-0.00762698
-0.005333574
-0.0051401686
-0.0012049096
6.2746095E-4
0.0029669434
0.0075206496
0.006369614
0.0038414672
0.0011662085
2.762085E-4
3.885791E-4
-0.0026409032
-0.004525127
-0.005621721
-0.0073454273
-0.008973874
-0.0058328393
-0.0060418043
-0.0052983984
-0.0032178808
-3.3788086E-4
0.0030916017
0.002771084
0.005740049
0.006941384
0.008297461
0.0059864256
0.0061753904
0.0040272437
0.002916726
0.003608579
0.0014633203
-0.001741421
-0.003653274
-0.0041574975
-0.0035193507
-0.0023064625
-0.0019035742
-0.0038254273
-0.0053820214
-0.004846245
-0.0029857275
5.8664306E-4
0.0025937548
0.005130349
0.0065616844
0.0059806495
0.0038725024
0.0031719848
0.0034438379
-8.185327E-4
-9.909034E-4
-0.004745127
-0.005141721
-0.004745945
-0.00598491
-0.008130986
-0.009029433
-0.009640251
-0.013352922
-0.016735075
-8.274463E-4
0.0034944068
0.0060233716
0.009051818
0.009882636
0.007736343
0.0072400486
0.007333755
0.00569272
0.005369314
0.005545908
0.0037377612
-0.0032617212
-0.0067830565
-0.007866763
-0.006588098
-0.0046323217
-0.0056712865
-0.0065026223
-0.0048268456
-0.002786328
9.960425E-4
0.0025431544
0.005912119
0.006091084
0.0052876784
0.0054342723
0.0039561256
0.0021832373
-5.891333E-4
-6.115039E-4
-0.0018662451
-4.6861573E-4
-0.0022957276
-0.0040875804
-0.0039594336
-0.0055860276
-0.0041802516
-0.003249734
-0.0012844751
2.455249E-4
0.0024826368
0.00398449
0.004056343
0.0058653075
0.0051919017
0.0032113842
0.0028708668
0.0022279785
0.0017127197
-4.6965087E-4
-7.520215E-4
3.2797852E-4
-0.0016767627
-0.0026862451
-0.004520469
-0.0030199513
-0.0032294337
-0.007020769
-0.008889216
-0.005988181
-0.0038100341
-0.0011347753
0.0022923364
0.0030418187
0.0043360423
0.005112637
0.00403449
0.0044587133
0.0021758252
6.781958E-4
-0.002298916
-0.0028783984
-0.0022355102
-0.0034173634
-0.0039292164
-0.002296328
-0.0011910694
-0.0018658106
5.065601E-4
8.889307E-4
-0.00112344
-0.0031629223
-7.5529295E-4
-6.529297E-5
0.0017394483
-5.0292234E-4
-0.0017076635
-0.0020947754
-0.0033442578
-0.005360852
-0.00994167
-0.0120995995
-0.011827529
-0.011643088
-0.005862053
-0.0015267944
0.0014079468
0.0028974293
0.0030069116
0.0033987646
0.0057277293
0.008173807
0.010796995
0.011734924
0.010208113
0.00823419
0.0074078953
0.004682119
-0.007661587
-0.009512405
0.0014023364
0.0012070776
0.0019741894
0.0022113014
-0.0026981812
-0.004192405
-0.0048266286
-0.007942705
-0.0064540403
-0.003183523
-0.0016082642
0.0031412183
0.0074149244
0.008723372
0.009181819
0.005950784
4.331543E-4
-0.003116328
-0.005652922
-0.005731887
-0.0039437404
-0.004507964
-0.0051945583
-0.005151152
-0.006140117
-0.0070614526
-0.0060604173
-0.005077012
-0.004108865
3.7113525E-4
0.004235359
0.006776694
0.013649365
0.014284407
0.009915224
8.2759524E-4
-0.014759817
-0.025500417
-0.031047612
-0.03522903
-0.040987045
-0.042399798
-0.04035544
-0.03642923
-0.029571682
-0.011517242
0.006604094
0.014509136
0.013391807
0.008930254
0.0047244774
-0.0040473756
-0.021976123
-0.040061764
-0.046938743
-0.048340462
-0.05128166
-0.04755101
-0.033455316
-0.014912729
0.008493347
0.025343947
0.037350107
0.03918338
0.021089755
0.013100056
0.010233245
-1.7675538E-4
-0.010027573
-0.0076212795
-0.0036831324
0.006468203
0.031847768
0.072585344
0.10562723
0.10808623
0.10500574
0.10044103
0.08388417
0.059581447
0.035142865
0.007376572
-0.013346098
-0.031805664
-0.037171822
-0.041302208
-0.036115997
-0.033320304
-0.03506935
-0.014714392
0.03981125
0.08287202
0.10676627
0.12923165
0.14048257
0.16277462
0.17704935
0.17160748
0.145915
0.13205986
0.13201472
0.058679625
-0.014857788
-0.044647653
-0.04818937
-0.0760688
-0.1263547
-0.12516822
-0.07948713
-0.028617213
-0.038085744
-0.09654918
-0.13777062
-0.16860928
-0.18195058
-0.18622613
-0.18189745
-0.16906846
-0.14968784
-0.14798248
-0.15543082
-0.15395443
-0.13161692
-0.09846509
-0.07057556
-0.049289647
-0.034738697
-0.024656925
-0.0111024855
0.003276997
0.013057297
0.021756046
0.02991087
0.033545177
0.037371334
0.04074935
0.04171973
0.039965373
0.036339164
0.03393584
0.032797776
0.031264972
0.031854536
0.03019936
0.027454702
0.027180044
0.026020644
0.024988875
0.024024734
0.023158222
0.02223697
0.022958089
0.025106318
0.02627929
0.028829373
0.029691827
0.027669538
0.021455916
0.020719921
0.02227867
0.021857416
0.019829053
0.015948836
0.009749654
0.0032191358
0.001183877
8.7624753E-4
0.0013609888
0.0024781006
0.0058270656
0.008623142
0.009241589
0.011327148
0.01458219
0.01301249
0.01159805
0.011663608
0.0103667965
0.008745244
0.005994209
0.0033136914
0.0027931738
0.0023502856
0.0010126563
-0.001602085
-5.944556E-4
-0.0017791968
-0.001503938
-0.0011486792
0.0033808032
0.0063797683
0.008645845
0.009334292
0.010657481
0.009095928
0.005482522
-0.005434072
0.0060048928
0.00910334
0.007637046
0.007370752
0.0047349758
0.0035768286
0.0036186816
0.0011310523
0.0019181641
5.205347E-4
0.0019576466
0.0037694995
0.006940835
0.0094616525
0.011057212
0.015184624
0.014259665
0.013722337
0.014477378
0.011682937
0.008069013
0.004945608
0.003777461
9.998316E-4
6.922021E-4
-0.0015125391
-0.0068938746
-0.010597063
-0.013207363
-0.018274257
-0.016184041
-0.008912488
-0.0020595996
0.007774106
0.012382036
0.014157077
0.013369748
0.011515307
0.009926125
0.0056650904
0.002262202
-0.001212539
-0.0014572802
-0.0027667626
-0.0034086157
-0.0063775806
-0.006908916
-0.0076026223
-0.008058699
-0.0087471455
-0.008553223
-0.00886167
-0.0065330053
-0.0023701172
2.598828E-4
0.0031793653
0.00566833
0.0061372947
0.00629626
0.004912854
0.003484707
0.0021418189
-3.6818115E-4
-0.0027076635
-0.0063166283
-0.007057964
-0.0063169287
-0.006848264
-0.009356711
-0.008042788
-0.0073164944
-0.011062053
-0.011759983
-0.00854606
-0.008012136
-0.0054087304
-0.001051101
4.8126953E-4
7.0364017E-4
0.002490752
0.0044049756
0.004709199
0.006338164
0.0030276466
0.0025647583
5.971289E-4
-0.002499983
-0.005206577
-0.008002654
-0.011278213
-0.014725625
-0.015323037
-0.011558596
-0.010631785
-0.008287861
-0.0021749733
0.0019821387
0.0020092505
0.0035811034
0.0013858448
-0.0017188964
-0.0050754906
-0.0037573439
-0.0038891968
-0.0063981614
-0.005034756
-0.0047889794
-0.0057079443
-0.0072816503
-0.006370615
-0.00569958
-0.004623804
-0.0020109154
-0.0013956567
0.001961455
0.00578042
0.008346496
0.008312574
0.0086086495
0.008104727
0.006586062
0.003607915
0.0016026562
9.5502683E-4
-3.4497314E-4
-0.0015897143
-0.0041015674
-0.004185791
-0.005724756
-0.006033721
-0.0045679444
-0.015405357
-0.009556174
-1.5617431E-4
0.0032933082
0.0054199025
0.0067712376
0.007634944
0.0048691677
0.0033586498
1.386499E-4
-0.0010437208
-0.0024908325
-0.002920315
-0.005396909
-0.0067282445
-0.0063072094
-0.006448545
-0.0090169925
-0.008423069
-0.007726775
-0.007330481
-0.0047047045
-0.0019118164
2.2818359E-4
0.0019052954
0.0037471484
0.004511372
0.005277966
0.00485219
5.8456056E-4
-7.1781006E-4
-1.5781006E-4
-0.003639663
-0.0050662574
-0.00407811
-0.006237075
-0.0068784105
-0.0068597463
-0.008808194
-0.006699529
-0.0047237524
-0.0022708643
-0.0015756055
-4.7797608E-4
0.0014867651
0.003418618
0.0051552122
0.0054918067
0.0024589184
0.0019560303
0.0014807715
-0.0015639698
-5.0634035E-4
-6.340332E-6
-6.687109E-4
2.5128905E-4
-6.1108154E-4
-8.5345213E-4
-9.1582275E-4
-0.0010681933
5.5417727E-4
0.0023812891
0.004645513
0.0077592186
0.011264778
0.013065078
0.011690637
0.010813826
0.010667014
0.008343091
0.007556797
0.007350503
0.0067918384
0.0034936913
0.0013984327
0.002657915
0.0032173975
0.0016321386
5.7450926E-4
0.0011492505
0.003338733
0.0045829564
0.006934292
0.0089327395
0.013073039
0.01322571
0.009916528
0.011714458
0.0141995
0.01336217
0.012882471
0.010445659
0.0073393653
0.006550701
0.0042449245
0.002172036
0.0014767774
-0.008499299
-0.006570635
-0.008156711
0.0053898827
0.0081359595
0.008734407
0.010195225
0.012605525
0.014210566
0.0147879785
0.01398302
0.012733321
0.012533621
0.010114439
0.008852886
0.006704221
0.0028737036
-4.6866699E-4
-9.310376E-4
-0.0015757788
-0.0031952611
-0.0063542263
-0.004066079
-0.002643191
-0.0027526733
-0.001035044
7.373267E-4
0.0025044384
0.003263921
0.0028934034
0.0028728857
0.0018999976
3.1999755E-4
-0.0015247436
-6.1711424E-4
-0.0023942261
-0.0047984496
-0.0061574145
-0.00685875
-0.0068700854
-0.0076837917
-0.008772239
-0.008018316
-0.0063172802
-0.0032367627
0.0010356079
0.0018303491
0.0017250903
0.0037169433
0.004531167
0.00367302
0.0027925025
0.004606726
0.0028462084
0.0017009497
5.633203E-4
-5.990503E-4
-0.0016537915
-0.005490386
-0.00524698
-0.0053135743
-0.0056201685
-0.0042443923
-0.004488616
-2.6861572E-4
0.0010537549
9.761255E-4
0.0039079785
0.006829314
0.0063982788
0.006559614
0.0073833205
0.0053899144
0.0023170263
0.0032765088
3.365088E-4
-0.0032629736
-0.005369568
-0.0028090503
-0.0038409033
-0.0063098683
-0.006188833
-0.0056454274
-0.0033349097
-7.572803E-4
5.7509035E-4
0.002322202
0.004054055
0.006715391
0.006996726
0.0068080616
0.0053746556
0.0047188792
0.0041731033
0.0015278442
-8.8452635E-4
-0.0025816383
-0.006802974
-0.0046671974
-0.004471421
-0.005088015
-0.004652239
-0.0044664624
-0.004720686
-0.0018877978
2.9220214E-4
0.0028416845
0.004825908
0.0064472435
0.006948579
0.004852803
0.0025499146
0.0027993969
0.0019365088
0.0023036206
0.0022807324
-0.0022663793
-0.004530603
-0.0057295677
-0.0071732737
-0.004929868
-0.0038817213
-0.0028612036
-7.635742E-4
-5.1594485E-4
6.1642576E-4
0.0019735375
0.0035153907
0.0063343556
0.007095691
0.007429397
0.0055159912
0.0036378442
0.002504956
0.0010373266
-5.550439E-4
-0.0010574146
-0.0014921557
-0.0021892677
-0.00315875
-0.0049453443
-0.0030248268
-0.0034766798
-0.0022137915
-0.0011685328
0.0012562085
0.0030356909
0.0043799146
0.00671125
0.006150215
0.005596809
0.0048710327
0.003220515
0.0047847386
0.0021318507
0.0010142212
-0.0010681495
-0.0025852611
-0.002152373
-0.003674226
-0.003496079
-0.0044503026
-0.005166897
-0.005343491
-0.002340603
0.0013741382
0.0028836206
0.0036754736
0.0056844386
0.0071781445
0.005354739
0.006353704
0.005300298
0.005346892
0.0035687452
0.002005857
0.0017705981
8.3296874E-4
-0.002484143
-0.0058031077
-0.007336814
-0.0059757787
-0.004912373
-0.0053389673
-0.0041308203
-9.031909E-4
0.0011815503
0.0017262915
0.0024534033
0.0049699973
0.0071937037
0.00795978
0.004624004
0.0044882274
0.00275771
6.000806E-4
2.5008057E-4
-0.0018746606
-0.0062136254
-0.008159702
-0.0086457785
-0.0057547437
-0.006546079
-0.0053226734
-0.004166897
-0.0016116382
9.307324E-4
0.0015854737
0.0029549561
0.0059739207
0.0070352564
0.0059542214
0.004258445
0.0044726683
0.0022897802
0.0012645215
-0.0020625903
-0.004446814
-0.0048010377
-0.0040128906
-0.004317114
-0.0052337083
-0.0058026733
-0.0027821558
-0.0020192675
-9.416382E-4
0.0032678442
0.0055044387
0.006313403
0.006514739
0.005471333
0.004917927
0.0036697802
0.0016945215
9.468921E-4
0.0026763745
0.0012411157
-0.0012236255
-0.0023407373
-0.002067849
-0.0027873316
-0.0053339256
-0.007537632
-0.0064489674
-0.007170303
-0.0044345264
-4.5689696E-4
0.002450215
0.0057491795
0.0058381446
0.0059771095
0.004901333
0.0037131861
0.0021502979
1.7029785E-4
-0.0012244433
-0.001066814
-0.0026439258
-0.0039557787
-0.0041800025
-0.004384226
-0.0056308205
-0.0052974145
-0.0041492674
-0.00283875
-7.311206E-4
0.0020059913
0.004270215
0.0041544386
0.0038562915
0.0053128856
0.003974739
0.0046389624
0.0050455565
0.0010379272
-8.4444333E-4
-5.66814E-4
-0.0020939258
-0.0035657787
-0.0015805201
-0.0028800024
-0.006418967
-0.007170303
-0.00877875
-0.014976162
-0.007329868
2.8013185E-4
0.0010925025
0.0057014674
0.008387544
0.008423621
0.007164956
0.0057339207
0.004115774
0.0025128857
0.001887627
0.0013723682
2.9236817E-4
-0.0026347437
-0.005601338
-0.0046355617
-0.0053421557
-0.00507875
-0.003610603
-0.003662456
-4.6482665E-4
0.0012599146
0.0037417675
0.0056683617
0.0049125855
0.0072062914
0.0061852564
0.00433948
0.0032289624
0.0013637036
-4.08667E-4
-0.0012634082
-0.0034252612
-0.002632373
-0.0029818555
-0.0024989673
-0.004663191
-0.006112156
-0.0043363795
-0.0022734911
-0.0013282325
1.7675782E-6
0.0037436206
0.004537844
0.005776809
0.0067081447
0.0049547385
0.003044221
0.0013189624
-6.10376E-5
-9.934081E-4
-0.0015381494
-0.0040800027
-0.005426597
-0.005643191
-0.0051297853
-0.004654009
-0.0075377147
-0.0061566797
-0.005633274
-0.0016080152
0.0019490967
0.0019462085
0.004630432
0.0065217675
0.0060107326
0.0054373266
0.0055539208
0.0032434033
0.004177627
0.00409948
0.0022465917
1.165918E-4
-0.0011257788
-0.0021028905
-0.0036347436
-0.002954226
-0.0042584497
-0.0058874143
-0.0061863796
-0.0017811207
-5.2349124E-4
6.488794E-4
0.0031683617
0.005424956
0.0042991797
0.0042534033
0.0024605151
7.7288575E-4
-7.711426E-5
5.6525634E-4
-4.4743654E-5
-0.0022618554
-0.002651338
-0.0059103025
-0.006781638
-0.0073853442
-0.006224309
-0.0065156445
-0.0051022386
-0.004256462
-8.08833E-4
0.0043053906
0.005181985
0.0068633202
0.006252285
0.008448361
0.007192068
0.0041762916
0.004820515
0.002187627
2.7626953E-5
-0.009200821
-0.0144058615
-0.0059848265
-0.0042690504
-0.004223274
-0.0063222386
-0.005548833
-0.0016835742
-2.2357421E-4
0.001181167
0.00400302
0.005781985
0.004023838
0.005420432
0.0066517675
0.0073154736
0.0040373267
6.1969727E-4
9.120679E-4
0.0010144385
-0.0011403027
-0.0031697853
-0.0028392675
-0.004483491
-0.004767715
-0.003929568
-0.0041937917
-0.0020409033
-1.1090332E-4
0.0016338379
0.0033833203
0.004687544
0.0065688794
0.008857327
0.008663403
0.0071047386
0.0056937034
0.0021408154
2.0081543E-4
2.2081543E-4
-0.0014439258
-0.001718667
-0.00394052
-0.004604744
-0.0044989674
-0.0040308204
-0.0013655615
-0.0022526733
-0.0019597851
-6.521558E-4
0.0039796974
0.0032191796
0.0063881446
0.0034699976
0.0038118507
0.0051884446
0.0038202978
0.0030697803
0.0011645214
9.4521485E-5
-0.0022225904
-0.0012473315
-0.003236814
-0.003478667
-0.00415052
-0.0050171143
-0.004621338
-0.001316079
-0.0013208203
6.115503E-4
0.0023786621
0.0042228857
0.006844221
0.008110298
0.007714004
0.0060629686
0.005449563
0.004081416
0.0013661572
2.6615724E-4
-0.0028433253
-0.002050437
-0.00351229
-0.003654143
-0.0044083665
-0.0039702198
-0.0044744434
-0.0023015551
-2.1555175E-5
-7.739258E-4
3.0607422E-4
0.001943186
0.003875039
-0.0015597021
-0.00964052
0.003821333
0.005920298
0.0062092626
0.0017240039
0.0018911157
9.234863E-4
-0.0016812548
-0.0033707372
-0.006189702
-0.007623408
-0.0071347435
-0.0058237086
-0.0022108203
-1.308203E-4
0.0012339209
0.0026934033
0.004317627
0.007341333
0.008337409
0.008563486
0.006222451
0.006241416
0.0029108985
0.0012856396
-4.4360353E-5
-0.0019414722
-0.002478584
-0.0022256959
-0.0034075489
-0.0036594018
-0.0040712547
-0.001865996
-0.0038278492
-0.0028473316
4.5503906E-4
0.002152151
0.003874004
0.006965339
0.006124304
0.0076480103
0.006026975
0.00620594
0.0055425344
0.0034943873
0.0028938695
0.0018386109
2.0861084E-4
-9.1375975E-4
-0.0034756127
-0.002675095
-0.0033745777
-0.004056431
-0.002645913
-0.0016306543
-0.0017953955
3.769751E-4
0.0019440869
0.00405594
0.008332017
0.008048093
0.0078818
0.0054583936
0.0043226173
0.0028320996
1.02099606E-4
9.544702E-4
-0.0019926417
-0.0025697534
-0.0025468653
-0.004481089
-0.0048553124
-0.0039371657
-0.003086648
-2.3664795E-4
9.5572264E-4
0.0014104638
0.0034223169
0.0043265405
0.005273135
0.0063821
0.0061210645
0.004215288
0.0027947705
0.0019318823
9.1425295E-4
-0.0018604883
-0.0033399707
-0.0028294532
-0.003561306
-0.0046455297
-0.0035073827
-0.0032968652
-0.0022239771
-9.7634766E-4
3.3652344E-5
6.6602294E-4
0.0039878758
0.005976841
0.0052134353
0.008009512
0.008165589
0.005352183
0.002811665
5.4403563E-4
0.0011064062
-1.8359374E-4
-0.0061925584
-0.0072362646
-0.0048704883
-0.0037923413
-0.004034194
-0.0030136767
-0.001398418
0.0028710645
0.002790547
0.0032700293
0.0052366233
0.0060655884
0.006726924
0.00788063
0.0086367065
0.007992784
0.004557007
0.00352886
-9.335107E-4
-9.3588134E-4
-0.0022029933
-0.0031024755
-0.002751958
-0.0027214405
-0.0036532935
-0.0036451465
-0.00469937
-0.002376482
9.3518065E-5
0.0027130004
0.0029624829
0.0050990772
0.005758042
0.005004636
0.0066859717
0.0061149364
0.00428916
0.0035910131
0.002408125
6.704956E-4
-2.895044E-4
-0.002838987
-0.0029084692
-0.0016932104
-0.0028326928
-0.003444546
-0.007228252
-0.013280923
0.0022061889
0.003828042
0.006077007
0.007750713
0.0083467895
0.007098125
0.0063070897
0.0068884254
0.006449761
0.004916355
0.0029558374
0.0017205786
4.6294922E-4
-3.894214E-4
-0.0018141626
-0.0031436451
-0.004477869
-0.003257351
-0.0017520923
-7.6446286E-4
8.079077E-4
0.0038497606
0.004976355
0.0058153197
0.007659026
0.006770361