0.0014411353
0.0037229883
0.004114841
0.0030343237
0.0024014355
0.0018661767
-0.0011261938
-0.0035180468
-0.0027775292
-0.0032370116
-0.0037088648
-0.0036707178
-0.0022078296
-0.0024549414
-0.0017696826
-0.0011444238
-0.001809165
-5.7153567E-4
0.002485576
0.0044397996
0.0064187646
0.0070701
0.0028595824
0.0025466944
0.0012514355
3.2143554E-4
-0.0010909351
-0.0027804174
-0.0039922707
-0.0040041236
-0.0037159766
-0.0038878296
-0.0059867944
-0.004291018
-0.01497843
-0.01117399
-3.3989258E-5
0.0033054932
0.0043197167
0.0057886816
0.0054752757
0.007608982
0.0067503173
0.004204541
0.0024316527
-5.307178E-4
6.4165285E-4
1.5165283E-4
-4.0071778E-4
-0.0020578296
-0.0017625708
-0.0023296827
-0.003289165
-0.0031286476
-0.0038705005
-0.0014452417
-1.852417E-4
9.471289E-4
4.2949952E-4
0.0038013526
0.0036832055
0.003122688
0.0044269115
0.0032063941
0.0015311353
0.0011458765
-1.4412354E-4
-0.002643606
-0.0015283471
-0.0018730884
-0.0024102002
-0.004032053
-0.0041762767
-0.0039481297
-0.0038299828
-0.0011023536
-8.1472413E-4
5.276465E-4
0.0017923877
0.0024894995
0.0014542408
0.0022313525
0.0019684643
-0.0011139063
-9.6627686E-4
9.3609374E-4
2.8609374E-4
-0.0018586474
-0.0026057593
-0.002362871
-0.0047370945
-0.005613689
-0.0055402834
-0.0052268775
-0.0039887303
-0.0010011011
5.512695E-4
0.0021583813
0.0020354933
0.0036773463
0.0031668285
0.0024039405
0.002883423
0.0024405348
0.0022976466
2.576465E-4
-0.003061836
-0.003593689
-0.0032731714
-0.0029326538
-0.0041968776
-0.007108213
-0.006529548
-0.0049561425
-0.004670366
-0.002117478
5.2521973E-5
-8.898486E-4
0.0021172632
0.004761487
0.0035833397
0.0016880811
0.0032875636
0.003377046
5.994165E-4
-1.4058349E-4
-0.0020576953
-0.0028271778
-0.00324666
-0.0033985132
-0.002025625
-0.0031051075
-0.004259331
-0.0074330373
-0.005069631
-0.0035914844
-0.0014162256
0.0013585156
0.0018432569
0.0023903686
0.0058693336
0.0051159277
0.0021130396
6.3541014E-4
0.0012401514
2.0151367E-5
-8.422192E-4
-0.0017669605
-0.003376443
-0.0019635546
-0.0021606665
-0.0039025196
-0.0022196313
-0.002646743
-0.004300967
-0.0060099317
-0.004344155
3.9821534E-4
0.0022153272
0.006374292
0.0059132567
0.005249851
0.0045940746
0.0028135572
0.0015682983
-2.0170167E-4
1.2829834E-4
-0.0015364429
-0.0027059254
-0.0016806665
-0.0010730372
-2.303711E-5
-0.0015377783
-0.0016325195
-0.0019396313
7.7273924E-4
0.0017474805
0.0019845923
0.0029440748
0.0045282985
0.0050948923
0.005131487
0.0031109692
0.0014157104
-6.1666017E-4
3.0333985E-4
5.7571044E-4
7.3808106E-4
-4.7428955E-4
-0.002843772
-0.0019408838
-0.0018979956
-0.0035098486
-0.002719331
-0.004463555
-0.0026730371
-0.0011254078
0.0023117042
0.0032411865
0.003030669
0.0046948926
0.005371487
0.0056704516
0.0044946754
0.0017294165
6.1178714E-4
-0.0023353247
-0.0024224366
-9.5480715E-4
-0.0033742895
-0.0035161425
-0.0039979955
-0.00513459
-0.0040864428
-0.0019835548
3.3644532E-4
7.7881594E-4
0.0015435572
5.8592774E-4
0.0034677808
0.005264375
0.0031738575
0.0028533398
0.0021104517
-6.8191893E-4
9.6045167E-4
5.628223E-4
-1.2717773E-4
-0.0026466602
-0.0030361426
-0.0038779955
-0.0046422193
-0.0038840722
-0.004448296
-0.0025654077
-5.077783E-4
5.545923E-4
0.0030340748
0.0024811865
0.003120669
0.005217263
0.0052938573
0.0036257105
0.0022828223
-3.9954833E-4
-0.001041919
-0.0012366602
-0.002223772
-0.003975625
-0.0041998485
-0.0061588134
-0.009227261
-0.0073309666
-0.0042651906
-0.0039670435
-0.0020441553
2.6584472E-4
7.282153E-4
0.0015529565
0.0017876978
0.0026971803
0.0037990331
0.0029785156
0.002957998
0.003999851
0.002476963
-3.2303712E-4
-0.0014677783
-0.0036696314
-0.0038714844
-0.0035233374
-0.0032128198
-0.0026199317
-0.0044541555
-0.0038460083
-0.0018931201
-0.0072468263
-0.010992385
0.0036394678
0.0066908034
0.005959768
0.0069511035
0.0026182153
1.8215333E-5
8.6058595E-4
0.0022576977
0.0012124389
-2.5756104E-4
-9.899316E-4
-0.0012546729
-0.0033641553
-0.0036360084
-0.0031254906
-0.0025126026
-4.0497314E-4
1.2502685E-4
6.6739746E-4
0.0020445092
0.0036563624
0.004590586
0.005899551
0.0048737745
0.0032432568
0.0030827392
2.9273925E-4
-0.001452002
-2.8200194E-4
-8.5437257E-4
-0.003083855
-0.0029533375
-0.0048775612
-0.0048117847
-0.004928379
-0.004070232
-0.0028097143
-0.0012944556
7.57915E-4
0.0018026562
0.0027321386
0.0058111036
0.0083271805
0.0054437746
0.0050403685
0.004804592
0.0029240747
-3.559253E-4
-0.002323037
-0.0013777784
-0.0018325195
-0.0022296314
-0.004423855
-0.004478079
-0.0021051904
-0.0037570435
-0.0037888964
-0.0016636377
-6.860083E-4
8.163623E-4
0.0010987329
0.0026982154
0.0035500685
0.004484292
0.003666145
0.0027456274
0.0011903687
8.7273924E-4
0.0015974805
-0.0015372607
-0.0022443726
-7.6674315E-4
-0.002133855
-0.004155708
-0.0023528198
-0.003554673
-0.0022017846
-0.0019588964
2.7110352E-4
0.0012258447
0.0047700685
0.006481404
0.0070727393
0.0069440748
0.005120669
0.003412522
0.0013372632
0.0014820044
1.320044E-4
4.14375E-4
-0.0016903662
-0.002267478
-0.0032569605
-0.004511184
-0.0049477783
-0.0039496315
-0.0031391138
-0.001753855
0.0012008862
0.0034727394
0.004346963
0.0032864453
0.0038082984
0.0035601514
0.003972004
0.0019791161
-1.0883789E-5
-0.001535625
-0.0021027368
-1.7273682E-4
-0.001147478
-0.00259459
-0.0023317016
-0.0031811842
-0.0029106664
-0.0034225194
-0.0033320019
-0.0017967431
-0.002113855
0.0012108863
0.0033203687
0.0040722215
0.0042964453
0.0054330397
0.004929634
0.005506228
0.003918081
0.0029175635
0.0018946753
6.070459E-4
-3.329541E-4
-0.0019400659
-0.0033895483
-0.0037714015
-0.004325625
-0.0043298486
-0.0013345898
-6.3696044E-4
1.5303955E-4
0.0018577807
0.0035596339
0.005116228
0.004138081
0.004372305
0.0038541576
0.0040360107
0.0031354933
2.8549315E-4
-1.8450683E-4
-0.0021616186
-0.0023687305
-0.0013234717
-0.0012582128
-0.0021553247
-0.0026324366
-0.00447666
-0.0032561426
-0.0019332544
-0.0020403662
-0.0012351074
4.672632E-4
0.0032867456
0.003336228
0.0049004517
0.0060694166
0.00485364
0.0030531227
-0.005865842
-0.009104289
0.0042099343
0.003491787
5.0415774E-4
-5.2821287E-4
-4.805835E-4
-0.0013553248
-0.0029948072
-0.00354666
-0.0032261426
-7.8851316E-4
0.001586228
0.0019433398
0.004979934
0.00751364
0.0065049757
0.0063239406
0.004158164
0.0020352758
0.0011600171
6.323877E-4
2.823877E-4
1.12387694E-4
-0.0015823535
-6.647241E-4
-6.8709475E-4
-0.0019442065
-0.0019213184
-0.0028308008
-0.003502654
-9.950245E-4
4.673462E-4
0.0032968286
0.0067081642
0.0068394993
0.006440835
0.0041550584
0.005251653
0.0019687647
8.8764646E-5
-9.7360596E-4
-0.0029430883
-0.0029425707
-0.0030620531
-0.0030615355
-0.0045357593
-0.0030252417
-0.0031047242
-0.0038165771
-0.0014913183
-7.0368894E-4
0.0014710523
0.0026905346
0.003400017
0.004294241
0.005230835
0.004937429
0.0026669116
0.0019540235
0.0013687647
-9.3360594E-4
-1.4360595E-4
-0.0033330885
-0.007104424
-0.0029739062
-0.0038257593
-0.005744724
-0.0055913185
-0.005057913
-0.002837395
5.249756E-4
0.0014197167
0.0020568287
0.004501052
0.0037829052
0.0053794994
0.006570835
0.0053374292
0.0039792825
0.0029087646
0.0014835058
-0.0014412353
-0.0018359766
-8.083472E-4
-0.0011630884
-0.0029825708
-0.0027020532
-0.0030615355
-0.0020986474
-8.4101805E-4
-5.8338867E-4
6.3898193E-4
3.2898193E-4
1.6898193E-4
0.0014937231
0.004287947
0.0048521706
0.002971653
0.0025487647
0.003358247
0.0029277294
5.7729492E-5
-0.0034941235
-0.017518647
-0.005747612
-1.476123E-4
-0.0011523535
-5.847241E-4
-7.670947E-4
-0.0022842064
2.0579346E-4
0.0021829053
0.0010052759
0.0024123876
0.0047566113
0.0054032058
0.0054997997
0.0037616529
0.0042258766
0.0045501003
0.0017048413
-4.875293E-4
4.948413E-4
0.0015495825
-8.927881E-4
-0.004084641
-0.0041364944
-0.004380718
-0.0041325707
-0.0017673121
0.0010550586
0.0012997998
0.0025469116
0.004631135
0.0056701
0.0065414356
0.0051780296
0.0046022534
0.0011869946
0.0015817358
3.2173583E-4
3.1173584E-4
-2.6826415E-4
3.5173583E-4
-3.9063476E-4
-0.002720117
-0.002177229
-0.0027867113
-0.0074804174
-0.0073941234
-0.0023612354
-5.93606E-4
9.3876466E-4
0.003128247
0.0035001
0.0037919532
0.0045361766
0.0046504005
0.0013551416
-1.248584E-4
-0.0013995996
-0.0023767115
-0.0022638233
-0.002100935
-0.002278047
-0.0016327881
-0.0017975293
-0.0036493824
-0.0041512353
-0.0040730885
-0.0022902002
3.497998E-4
0.001544541
0.0015192822
0.0032487647
0.0028582471
0.0033777296
0.0021448412
0.0011395825
7.319531E-4
0.0018466944
2.6694335E-5
-0.0016680469
-0.0011927881
-0.0020199
-0.003931753
-0.0032112354
-0.002468347
-0.0031978297
-0.003287312
-9.896826E-4
0.0019674292
0.004049282
0.0035811353
0.0028406177
0.0059895827
0.0046538063
0.006352771
0.004786995
0.0022441065
2.2410645E-4
3.4410643E-4
3.4410643E-4
-1.8589356E-4
-0.003295376
-0.0031148584
-0.002664341
-0.0031038232
-0.004388047
-0.005434641
-0.0026541236
3.9824707E-4
-2.3175293E-4
0.0032077294
0.0036395825
0.0015543237
-0.0023027882
-0.013565459
0.0013192822
0.0039211353
-8.864746E-6
-0.0020359766
-0.002925459
1.1454101E-4
-3.978296E-4
-0.0022049414
-0.0021620532
-0.0022391651
-0.002056277
-0.0020633887
-5.6575926E-4
-5.8812986E-4
0.0010642407
0.0029937231
0.004447947
0.0040797996
0.0039216527
0.0019487647
0.0026258766
0.002705359
0.0015501
-3.0989992E-4
-5.522705E-4
-0.0017970117
-0.0032864942
-0.004370718
-0.0046049412
-0.0039267945
-0.0040286477
-0.0013633887
8.9898193E-4
7.213525E-4
0.0017660938
0.002915576
0.0032150587
0.004299282
0.0044335057
0.0057124705
0.004626694
0.0029961767
0.001380918
1.0091797E-4
-0.001986194
-0.001880935
-0.002158047
-0.0048822705
-0.0053088646
-0.004935459
-0.0050020535
-0.0036339064
-0.0027633887
-0.0016281299
-0.0019552417
4.471289E-4
0.0030166113
0.004250835
0.003942688
0.0033021704
0.0030216528
0.0027811353
0.0014658765
-7.4649416E-4
-0.0028359767
-0.0014707177
-6.330884E-4
-2.4308838E-4
-0.0020602
-0.0017749415
-0.0018796826
-0.0017744239
4.6794678E-4
0.0027374292
0.0027569116
0.0038487646
0.004402988
0.004157212
0.0044114357
0.0038232885
0.0041451417
0.0011275122
7.998828E-4
0.001444624
-0.0016301172
-0.0049867113
-0.0041485643
-0.004622788
-0.0048470115
-0.0033764942
-0.002433606
-0.0020707177
1.6928223E-4
3.5928222E-4
-0.001155459
0.003536394
0.0049829884
0.006454324
0.0035361769
0.0011309179
-6.0145266E-4
-4.1382323E-4
0.0014209179
3.5091798E-4
7.0917966E-5
6.2328856E-4
-5.6908204E-4
-0.016098864
-0.0059078294
-7.902002E-4
-0.0016549414
-0.001127312
-2.97312E-4
7.450586E-4
0.0010374292
0.0017321705
0.0022792823
0.0052758763
0.0060348413
0.0037266943
0.002083806
2.3380615E-4
0.0010861767
0.0023732886
4.5565917E-4
-0.0025914526
-0.002960935
-0.003572788
-0.0027622704
-0.0041541234
-0.009564942
-0.0114205
-0.008738948
-0.005035542
-0.0030650245
-0.0018697656
0.004174458
0.0066357935
0.0075894995
0.0054960935
0.004962688
0.0045569115
0.0033863941
0.0027358765
-0.0018888648
-0.005115459
-0.0053420532
-0.005941018
-0.0055376124
-0.004801836
-0.003623689
-0.0016684302
3.2156982E-4
0.0021486816
0.0036605347
0.0028600171
0.0018247582
0.0029442408
0.0024513525
0.0011137231
0.0014484643
0.0017332055
0.0013379467
0.001372688
8.850586E-4
-3.2494141E-4
-0.0011696826
-6.520532E-4
8.603174E-4
-1.9682617E-5
-0.0055862768
-0.0062652417
-0.0041270945
-0.0024542066
-0.0024013184
2.5868163E-4
0.003378164
0.00751187
0.006380835
0.005197429
0.0056040236
0.0023111352
-6.1123533E-4
-0.002700718
-0.004102571
-0.005119165
-0.00604813
-0.008756577
-0.0082226535
-0.0063116187
-0.0063405833
-0.0039324365
-0.002821919
-0.0011042895
0.0022228223
0.0013675635
7.4993406E-4
0.0015846753
0.0016194165
7.7178713E-4
3.4178712E-4
0.0017265283
-2.1347168E-4
-0.0017582129
2.178711E-5
-6.305835E-4
-0.0017953247
-0.0012200659
1.3993408E-4
0.0011546753
6.070459E-4
-2.229541E-4
-0.0016876953
-0.0017124366
-0.0014371778
-8.2954834E-4
0.0034523048
0.007426011
0.008242087
0.006633423
0.0060323877
0.0074760937
0.0072998
0.0060087647
0.0049453587
-4.870117E-4
-0.0066583473
-0.0077420534
-0.00809813
-0.009868948
-0.010974507
-0.008360583
-0.0043148072
-0.0011271777
0.0039946754
0.0027641577
-0.0029153246
-0.0022924365
9.799341E-4
0.0035117872
0.0031612695
0.0060202344
0.008978682
0.0097395
0.0071732057
0.0012979468
-8.4442383E-4
-8.9679443E-4
-0.0033986475
-0.004452871
-0.005921836
-0.007215542
-0.0060645067
-0.0040663597
-0.0042505837
-0.0022476953
0.002951787
0.00385364
-0.0014011011
-0.0014458423
3.7652833E-4
0.0012112695
-4.7110108E-4
-0.0047553247
-0.013075625
-0.015433037
-0.012040967
-0.0084970435
-0.006608379
-0.004552603
-0.002892085
-0.0024191968
-0.0021063087
-5.486792E-4
-6.8104983E-4
3.089502E-4
0.0010013208
0.0030508032
0.0035026562
0.0047168797
0.0045711035
0.004875327
0.009836145
0.0115217045
0.012179634
0.010200452
0.005227046
-0.0031824366
-0.010555625
-0.01811252
-0.02406838
-0.033562686
-0.0406307
-0.048824787
-0.057444952
-0.0600446
-0.056130026
-0.045622263
-0.037008423
-0.036654584
-0.021410959
0.0057980055
0.026680976
0.039494246
0.04169463
0.037793163
0.025593761
0.02265488
0.025243111
0.026196081
0.020050088
0.009218535
0.0063775
-9.048706E-4
-0.016357023
-0.026812365
-0.04227512
-0.06306188
-0.08525976
-0.09177897
-0.07259655
-0.027954264
0.021132113
0.05888702
0.07095986
0.060389508
0.0309967
0.0022438136
-0.021574935
-0.016317088
0.02111929
0.068765014
0.094351344
0.11742879
0.14961816
0.17879
0.14911701
0.08019829
0.018345185
-0.009023261
-0.02220201
-0.077343814
-0.10925755
-0.092296764
-0.056944557
-0.02635753
0.018821735
0.06658035
0.057350516
0.038431417
0.024839645
0.021758394
0.018385287
0.011590847
0.018800111
0.024515972
0.025476573
0.0115821315
-0.013118169
-0.042320922
-0.056438718
-0.067159705
-0.07770387
-0.077015676
-0.069966145
-0.057928678
-0.04938277
-0.042035524
-0.032005087
-0.024603318
-0.019092582
-0.014959995
-0.0115755545
-0.010388743
-0.012316672
-0.012736972
-0.009807791
-0.008023867
-0.004898091
-0.0058170557
-0.0027065382
2.3346192E-4
0.0023105738
0.0032500562
0.00470428
0.005300874
0.0027003565
5.827271E-4
0.0018998389
0.0041540624
0.004428286
0.005937251
0.007890957
0.012148887
0.01626104
0.017195564
0.018514829
0.019266466
0.0195381
0.020412106
0.018611372
0.016353525
0.015503308
0.013915979
0.012283909
0.010577098
0.009305544
0.00690688
0.0071482155
0.0060371803
0.0066185156
0.006899851
0.0069711865
0.0094620045
0.010495193
0.010858381
0.0115739405
0.010947129
0.010620317
0.008858765
0.010701953
0.009100401
0.008026477
0.0067978124
0.0062867776
0.0054933717
0.0034952245
0.005161819
0.003823672
0.0025307836
0.0020678956
0.0013726368
0.001827378
0.0047016013
0.007555308
0.009476125
0.0074698315
0.008065908
0.0077496143
0.0068009496
0.007152285
0.0071136206
0.004287844
0.0035396973
0.0040615504
0.0016762915
7.9866213E-4
-5.2370847E-4
-0.0022908202
-0.004465044
-0.003716897
-0.0023840088
-0.0028934912
-0.0014682324
0.00294125
0.0033707325
0.0055573266
0.005013921
0.005772886
0.0047471095
0.0018918506
0.0010942211
0.001891333
-0.0018834082
-0.0033328906
-0.0021000025
-0.0037518556
-0.0059808204
-0.004265044
-0.0046892674
-0.0043834914
-0.0053400854
-0.0032895678
-0.0018866797
-0.0020937915
-0.0014685327
0.0013662085
0.0034080616
0.0044522854
0.004756509
0.00154125
0.0011136206
-9.6379394E-5
-0.0012211206
-0.0020482324
-0.0028677147
-0.0046019387
-0.0038637915
-0.004608015
-0.0056046094
-0.0059835743
-0.0048077977
-0.0033996508
4.6271973E-4
0.0025298316
8.222021E-4
0.0042764256
0.00541302
0.0030625025
0.0012672436
-8.275635E-5
-9.1512693E-4
-0.0023222389
-0.0026717212
-0.0051783156
-0.00536491
-0.0049115038
-0.0042257276
-0.00278521
-0.0027146924
-0.004648916
-0.0021260278
-0.0020031396
-6.6551025E-4
-0.0034073633
-0.0050039575
-0.0023410693
-2.1106933E-4
0.0015536719
-0.011754258
0.0013204834
0.005869448
0.0037913013
0.0013660425
-2.1395752E-4
-0.0012386987
-0.0015234399
-8.458106E-4
-0.0017505517
-0.0025276635
-0.002717146
-0.002404258
-0.0026637402
-0.0011684814
-4.1085205E-4
2.4914794E-4
0.0014438891
0.002611001
0.007184707
0.0056936718
0.005650266
0.005959231
0.003551084
0.004495308
0.0047295312
0.0024866431
8.490137E-4
-5.633569E-4
-0.0027828394
-0.004257063
-0.0042912867
-0.005037881
-0.0037497338
-0.0017444751
1.5524902E-5
6.478955E-4
9.402661E-4
0.0022273778
0.0026668604
0.0022739721
1.6397217E-4
-0.001570769
-0.0041949926
-0.0039268457
-0.0065581813
-0.006047146
-0.0068684816
-0.006819817
-0.007853523
-0.0086296
-0.007783306
-0.006504641
-0.0065359767
-0.0048302
-0.0029696827
-0.002869165
-0.0028586474
1.3135254E-4
0.003290835
0.0016955761
8.5794675E-4
-0.0010244239
-0.0033962769
-0.0026757594
-0.0036176124
-0.005756577
-0.004590801
-0.004947395
-0.0052639893
-0.0054305834
-0.004704807
-0.0067361426
-0.006497478
-0.0056640725
-0.0045882957
-0.0022254076
1.5459229E-4
0.0020617042
0.004395928
0.0033977807
0.001712522
1.1252197E-4
-7.0984865E-4
-0.0011645899
-0.0023417016
-0.003923555
-0.0059425198
-0.0072962255
-0.006487561
-0.007963638
-0.007024973
-0.0040568262
-0.00451105
-0.006792385
-0.0038542382
0.0028052442
0.003977097
0.004701321
0.005407915
0.004482139
0.0027216212
6.939917E-4
-0.0026554908
-0.0031449732
-0.005743938
-0.006342903
-0.0048071262
-0.0036189796
-0.0056355735
-0.0058445386
-0.003184021
-0.003675874
-0.0020429858
-0.0015977271
-3.6772704E-4
5.7464355E-4
0.002674126
0.0033636084
0.0052802027
0.0063791675
0.005678132
0.004802356
0.0018894678
-0.0020076442
-0.002504756
-0.0021718678
-0.0011342383
-3.7423827E-4
-4.466089E-4
9.257617E-4
-0.0011389795
-0.0019260913
-4.584619E-4
0.0011239087
0.0023710206
0.003270503
0.003462356
0.003684209
0.005813174
0.00732688
0.007470586
0.007584292
0.005430886
0.0036627392
0.002609851
-8.2251953E-4
-1.0251953E-4
-9.5489016E-4
-0.0030543725
-0.0021314844
-5.53855E-4
-0.0014885962
-4.809668E-4
0.0013737744
0.0030932568
0.001357998
9.003687E-4
0.0025274805
0.004411704
0.006290669
0.0058796336
0.0032391162
3.291162E-4
-6.7325437E-4
6.291162E-4
-0.0026603662
-0.0029798485
-0.0036217016
-0.0039035548
-0.0047877785
-0.004672002
-0.0045062257
-0.003085708
-0.0017504492
0.001434292
5.066626E-4
0.002776145
0.0041803685
0.0023274804
0.0055240747
0.0053306688
0.005277263
0.003659116
0.0028785986
4.909692E-4
-0.0013737719
-0.0011985132
-0.0012732544
-0.0024203663
-0.0039822194
-0.003964072
-0.0025111842
-0.0013259253
1.8407471E-4
-3.059253E-4
1.640747E-4
0.0033135572
0.005972522
0.008208599
0.008394675
0.0057836403
0.0036154932
0.0033049756
0.0025820874
0.001134458
-2.95542E-4
-0.0027650243
-0.0035568774
-0.00274636
-0.0020234718
-0.0014582128
-0.0025253247
-0.0020524366
-0.0015871777
-2.9717773E-4
0.0018575635
0.0025746753
0.0038865283
0.0054331226
0.0045973463
0.0051339404
0.0018586817
5.210522E-4
6.1342283E-4
-0.002273689
-0.004267913
-0.007169248
-0.0070505836
-0.0051871776
-0.007028513
-0.007422219
-0.006141184
-0.0066725197
-0.007816225
-0.0074199317
-0.0036717847
-0.0011965259
0.0012182153
3.3821532E-4
0.001120586
7.2295655E-4
2.2295654E-4
3.4295654E-4
-0.0011194141
-7.017847E-4
-7.0415525E-4
-0.0015188964
-0.0018436377
-0.0020807495
-0.0024778612
-0.0021749733
-0.0034668262
-0.0054034204
-0.004867644
-0.0027071266
-0.013539798
-0.0012845385
0.0051220558
0.0063710203
0.006842356
0.0066936915
0.005190286
0.0036321387
0.002951621
0.0026611036
0.0017458447
-1.4415527E-4
0.0018929566
-7.8941404E-4
-4.5178467E-4
-3.9415527E-4
0.0010082154
0.0022153272
0.0019024389
0.0022495508
0.0038114039
0.005377998
0.0071193334
0.0077730394
0.007856745
0.006898081
0.005997046
0.0029265282
0.0021236402
0.0014383814
0.0013931226
-0.0010992481
-6.3161866E-4
5.838135E-5
-9.7398926E-4
-0.0014987305
-0.0016434717
-0.003052954
0.0011917871
0.0032912695
0.002680752
0.003762605
0.0045968285
0.003396311
0.0059752758
0.0068366113
0.0036984643
7.9083495E-4
3.1083496E-4
-5.815356E-4
-0.0021186476
-0.0016933887
-0.002662871
-0.0033823536
-0.004426577
-0.0034484302
-0.002185542
3.3445802E-4
-6.879126E-4
0.0012768286
0.002896311
0.006165276
0.007348982
0.007222688
0.0071640234
0.005802988
0.005701953
0.0068632886
0.005539883
0.0048641064
0.0011364771
-0.0013782642
-7.006348E-4
-1.0063477E-4
-0.001205376
-0.0019424878
-0.001757229
-2.17229E-4
-3.795996E-4
0.001082771
0.0029622535
0.0036741064
0.0045383302
0.006027295
0.007561001
0.007644707
0.007928413
0.0054550073
0.0030544898
1.1448975E-4
-0.0011902514
-0.0032597338
-9.521045E-4
-1.221045E-4
3.278955E-4
2.578955E-4
-8.144751E-4
-0.0016192163
7.231543E-4
0.0010355249
0.0032750072
0.0036368603
0.0049134544
0.0057324194
0.006261384
0.0050879787
0.0034698315
0.0038816845
0.0038135375
0.0015082788
0.00161302
-0.0012917212
-0.0028312036
-0.0016659448
-0.0022530567
-0.0041872803
-0.0032967627
-0.0037486157
-0.0017733569
-2.6335692E-4
0.0023837548
0.0042979787
0.003257461
0.0030869434
0.004591167
0.0031506494
0.0025977613
0.0029072436
5.6961423E-4
-7.0275634E-4
-0.0013374976
-0.0019346094
-0.002864092
-0.001518833
-0.0020659447
-0.0033654273
-0.002522539
-8.1490964E-4
-5.490967E-5
-6.4728025E-4
-0.0015920214
0.002727461
0.004149314
0.0031787965
0.0035706493
0.0027301318
-1.7986816E-4
-0.0068912036
-0.0076849097
-0.0044691334
-0.009579951
0.0016647901
0.003486643
-7.857275E-4
0.001036643
-4.5572754E-4
-0.0024428393
-0.0014375806
-6.299512E-4
0.0019071606
0.0037290137
0.0058579785
0.0058069434
0.0062959082
0.0065172436
0.005563838
0.004960432
0.0033199145
0.002959397
0.0024965089
0.00167125
0.0012259912
-0.00116875
-0.002135862
-0.0013806031
-0.0028900853
-0.002789568
-0.0016043091
-0.0011990503
-2.990503E-4
0.0014656909
0.0023528028
0.005529397
0.00394125
0.0051278444
0.005726809
0.006295774
0.0043899976
0.0035318506
0.0045060744
0.0032755567
0.0016002979
5.4266845E-4
-0.0017920728
-0.0037739258
-0.00548052
-0.008276597
-0.009577415
-0.00648875
-0.0031582324
3.8413817E-4
4.565088E-4
0.003908362
0.0043125856
0.0051691798
0.005645774
0.0050023682
0.0033918505
0.0014065919
1.365918E-4
9.489624E-4
-8.034082E-4
-0.0026828905
-0.0016576318
-0.0031471143
-0.0032265966
-0.0035084498
-0.003157932
-0.0013926734
8.6969725E-4
0.001906809
0.0013315503
0.0036434033
0.005852368
0.005731333
0.005780298
0.0034821508
0.003694004
0.0028234862
0.0014682276
3.822754E-5
-6.741431E-4
-0.0026412548
-7.736255E-4
-0.0017383667
-0.0031178491
-0.0041620727
-0.0020991846
-6.3155516E-4
0.0019155566
0.003075039
0.0027345214
0.0017292626
0.0036811158
0.0062500807
0.0072037866
0.00476801
0.0028974926
3.998633E-4
2.986328E-5
-2.3013672E-4
-0.0053967307
-0.0070380666
-0.0149854785
-0.007479185
-0.0013339258
-0.0031634083
-0.00198052
0.0011442212
0.0016489624
6.6133303E-4
0.002228445
0.0057474095
0.006478745
0.008684821
0.006616157
0.004480381
0.0045746043
0.002894087
0.0011488281
-4.5354248E-4
-0.0013682836
-0.0014630249
-0.0020101366
1.6986328E-4
-0.0015048779
-0.0033843603
-0.0035362134
-0.002243325
-0.0017780664
3.843042E-4
0.0023614161
0.0053280103
0.007731716
0.0074954224
0.006456758
0.0067680934
0.0049346876
0.00284417
0.0019812817
0.001216023
-4.8634765E-4
-0.0027958301
-0.002162942
-0.0024500538
-0.0044542775
-0.0033237597
-0.0025908716
-0.0019279834
3.20166E-5
0.0018567578
0.0021938696
0.004468093
0.004282317
0.005168911
0.003980764
0.004937358
0.002776841
0.0026663232
0.0015110645
3.3106445E-4
-4.8130614E-4
-0.0015960473
-0.0026755298
-0.0026126415
-0.0013773828
-0.0026144946
-0.0038263476
-0.0018310889
-5.034595E-4
4.1891114E-4
4.6128174E-4
0.0010636523
0.0032931347
0.004969729
0.0048239524
0.003153435
0.004417659
0.003087141
0.0037689942
0.0012337354
-3.3626464E-4
-0.0018933765
-0.0025304882
-0.004154712
-0.0032541943
-0.0031736768
-0.0026107887
-0.003120271
-3.50271E-4
-1.60271E-4
5.820996E-4
0.0026292114
0.0049758055
0.0049223998
0.003494253
0.003736106
0.00466033
0.0025974414
0.0028869237
0.001671665
-0.0021654468
-5.878174E-4
-4.2018798E-4
-0.0014349292
-6.472998E-4
-0.0029967823
-0.0015415235
-0.0010738941
-0.0013986352
8.937353E-4
0.003955588
0.0048798122
0.0043240357
0.0058030006
0.006984336
0.0067056715
0.0054522655
0.004044119
0.002833601
3.759717E-4
-0.0014487696
-0.0023358813
-0.001018252
-0.0017129931
-0.003974846
-0.0043490697
-0.0026461817
-0.004028035
-0.0058869994
-0.0011193701
0.0020577416
0.002917224
0.003489077
0.0053456714
0.005934636
0.0050012306
0.0020783423
0.0017330835
0.001105454
5.378247E-4
-0.0013869165
-0.002886399
-0.0031258813
-0.0028953638
-0.0026024757
-0.0017872168
-0.0023243285
-0.0011590698
-1.5906982E-4
0.0014256714
0.0025127833
0.0036046363
0.0054912306
0.005567825
0.0041296775
0.005436272
0.003668125
0.0018528663
-5.7133788E-5
9.952368E-4
-1.6476319E-4
-9.271338E-4
-2.071338E-4
-0.0022042457
-0.002953728
-0.0018384693
-0.004020322
-0.0023474342
7.256592E-5
-1.1743408E-4
0.0018273072
0.002044419
0.004046272
0.0053428663
0.0048970897
0.0044413134
0.004535537
2.755371E-4
1.9553711E-4
-8.368335E-4
-0.0021339452
-0.0015886865
-0.0016834277
-0.0032829102
-0.0028523926
-0.004476616
-0.0051832106
-0.0027026928
-7.0506346E-4
0.0013496777
0.0026267895
0.0020539013
0.0034157543
0.0059147193
0.0045589427
0.0041407957
0.0014555372
0.0018702783
0.0019073902
0.0017521314
0.0013068726
-0.0024902392
-0.005849204
-0.005958169
-0.003480022
-0.0022471338
-0.0028166163
-5.689868E-4
-8.986816E-6
0.001938125
0.003649978
0.0030994604
0.004723684
0.006212649
0.007216355
0.0046005785
0.003050061
0.003571914
0.002029026
0.0013037671
-2.862329E-4
-0.0017109741
-5.6334474E-4
-0.0017280859
-0.0021251978
-0.0028346803
-0.0035865332
-1.165332E-4
0.001888208
5.8057863E-4
0.0017453198
0.0042095436
0.00836562
0.008391697
0.006763032
0.006131997
0.0053285914
0.004352815
0.0051794094
0.0026488916
0.002828374
6.007446E-4
5.231152E-4
5.454858E-4
-0.0016292554
-0.0026887378
-7.211084E-4
1.288916E-4
0.0012836328
0.0018907447
0.0026078564
0.005154451
0.004818674
0.0039605275
0.0062794923
0.0053360863
0.0034179394
0.0031774219
0.0026245336
0.001679275
0.0010816455
6.164551E-5
-9.507251E-4
-0.0035225782
-0.0027120605
-0.0022091724
-0.0024862841
-0.0012610254
2.5897461E-4
2.889746E-4
0.0018237159
0.0022708275
0.0030603101
0.005809275
0.004945869
0.0037477221
0.003579575
0.0029990575
0.0015237988
-6.201172E-6
4.3798827E-5
-0.001963313
-3.73313E-4
-0.0011156836
-0.0018104248
-0.0022875366
-0.0017822778
-0.0029517603
-0.0047059837
-0.0022130958
-0.0010054663
0.0017692749
0.0043934984
0.0052100928
0.0047443165
0.0040461696
0.0040180227
0.0020051342
4.2750489E-4
-0.0013772363
-0.0017419775
-0.0010943481
-0.00200146
-0.003763313
-0.0043675364
-0.0048017604
-0.0029712426
-0.003030725
-0.002127837
-0.0021349487