0.011294253
0.012422183
0.012230112
0.013442784
0.014187825
0.012518125
0.011033684
0.010094502
0.01010532
0.008371397
-0.0038704565
-0.0058394214
0.009441396
0.010814585
0.009985403
0.009556221
0.009597039
0.011542598
0.012912898
0.013935569
0.01448061
0.015680393
0.016462546
0.013725217
0.012815517
0.012033448
0.009544265
0.007397971
0.006196936
0.0054235305
0.0033530127
0.001687754
0.0013024951
5.1486574E-4
-9.575049E-4
-8.5987546E-4
0.0017548657
0.0035767187
0.004098572
0.0035304248
0.0046246485
0.0035965014
0.004710725
0.003852578
0.0027420605
0.0034839136
0.0018910253
-0.0010113452
-0.0012760864
-0.0043003103
-0.0067716455
-0.00557824
-0.005614834
-0.005241428
-0.0069527635
-0.0054893577
-0.0054759523
-0.004057805
-0.002354917
-9.772877E-4
0.0012574536
0.0035193067
0.005135901
0.0040377537
0.0022048657
-4.5750488E-4
-0.0035193579
-0.0013340991
-0.0027535816
-0.005300176
-0.0062491405
-0.0059681055
-0.0054546995
-0.0068960353
-0.006265
-0.006033965
-0.0045381887
-0.004172412
-0.001909524
9.728467E-4
0.003272329
0.0045065526
0.0047107763
0.005557371
0.0050839647
0.0019210767
5.6344725E-4
1.5344727E-4
3.8581787E-4
-9.6655276E-4
-0.0030360352
-0.002283147
-0.003455
-0.0046892236
-0.005515818
-0.0046200417
-0.0021871533
-0.0013318945
0.0015428467
0.0026523292
0.003514182
0.0053007766
0.005799741
0.0054463353
0.004170559
0.002127671
-7.23291E-5
-4.4469972E-4
-5.170703E-4
-0.002194182
-0.006023147
-0.003505
-0.0022421118
-0.0026715943
-0.0030610766
-0.0035929298
-0.0034747827
-0.0010771534
5.652173E-4
0.0018899585
0.004544182
0.0067955176
0.008621594
0.0055481885
0.0026976708
0.0025547827
2.4782716E-5
-8.875879E-4
-0.0024446996
-0.0024018115
-0.0024589233
-0.0033584058
-0.0033178881
-0.0053344825
-0.007095818
-0.009124265
-0.0073679714
-0.0066693067
-0.0049035302
-5.359009E-4
5.164697E-4
0.0039183227
0.005154917
0.0046191406
0.0013738818
-4.5848876E-4
-5.608594E-4
-0.0015756006
-0.0023327123
-0.0018898242
-0.0036716773
-0.0034535304
-0.0049201245
-0.008146201
-0.005665166
-0.007628872
-0.018475767
-0.0040576197
2.238037E-5
0.0017671216
0.003316604
0.0034984571
0.00408031
0.005666904
0.006275869
0.004790093
0.0036119458
0.00538854
0.004242764
0.0034146167
0.0010769874
6.793579E-4
7.317285E-4
-5.806421E-4
0.0014240991
7.764697E-4
9.988403E-4
0.0029283226
0.0044225464
0.0054791407
0.0072228466
0.008941294
0.007715
0.008863447
0.008821894
0.008077972
0.0038598243
0.0036116773
0.004735901
-0.0017688404
2.4115967E-4
0.0012259008
6.682715E-4
0.0019953833
6.377539E-4
8.701245E-4
0.0019472364
0.0036590893
0.004663313
0.0064446484
0.010317837
0.008653914
0.0061828783
0.008658955
0.0065002907
0.0049968846
0.003828738
8.811084E-4
0.0013458496
0.0010482202
0.0014529615
-3.470386E-4
-9.494092E-4
-0.001966521
-0.0031960034
-0.003245486
-0.001580227
9.0214354E-4
0.0018892554
0.0031087378
0.0037805908
0.0047248146
0.0056114085
0.0041132616
0.0030127442
0.0027722265
7.545972E-4
-9.277734E-4
-0.0029572558
-0.003639109
-0.0046133325
-0.0056399265
-0.0070112622
-0.0068525975
-0.0073863035
-0.006957639
-0.006416604
-0.0057955687
-0.0042797923
-0.0027892748
-0.0017740161
-0.003975869
-0.0035177222
-0.0028772047
-0.0035990577
-0.004483281
-0.006362246
-0.0069635813
-0.0076072877
-0.012967587
-0.013982629
-0.01250293
-0.014477971
-0.016310124
-0.016832277
-0.019883914
-0.021220291
-0.029252743
-0.01833964
-0.0072433446
-0.004125198
-0.001789939
0.0010524316
3.5243164E-4
-0.001019939
1.1006103E-4
0.004384285
0.0045885085
0.004752732
0.0033222144
0.0027916967
0.0030311793
0.002558291
0.0032277734
0.0017825146
0.0024296264
0.002659109
0.003440962
0.0061399266
0.006691262
0.008057339
0.0069886744
0.0051152688
0.008843716
0.008159792
0.0073634987
0.0058724633
0.0056190575
0.0049456516
0.005392246
0.0041964697
0.0024735816
0.0017483227
0.0037701759
0.0031796582
0.0026991407
0.003278623
0.003570476
0.0051270705
0.0057960353
0.005905
0.008211076
0.007724783
0.008140859
0.0071521946
0.00574116
0.004795383
0.002142495
4.848657E-4
0.0012396069
9.4197755E-4
7.0434815E-4
-4.8802246E-4
-5.0039304E-4
0.0014043482
5.7671877E-4
-0.0013080224
9.3434815E-4
0.0037562011
0.0029856835
0.0048199072
0.006258872
0.0062578367
0.0068191723
0.004633396
0.0044776197
0.002977102
0.0017818433
0.001908955
-3.710449E-4
-0.0016457861
-3.7578613E-4
-0.0015705273
-0.0018876392
-0.0016423804
-0.0028418628
-5.342334E-4
2.757666E-4
9.381372E-4
0.002575249
0.003407102
0.003788955
0.0035808082
0.0054774024
0.0038892555
0.0030987377
0.001303479
2.13479E-4
-7.288916E-4
4.33479E-4
-0.0016112622
-0.0017760034
-0.003245486
-0.004107339
-0.0045615626
-0.003241045
-0.0020981568
-0.0021252686
-0.004559492
-0.0031189746
0.004155249
0.005271843
0.005870808
0.0076645142
0.0064858496
0.0058048144
0.0038466675
0.0011814086
0.0011561499
0.0019532617
-6.891089E-4
-0.0027185914
-0.0033280738
-0.0012128149
-0.0017375562
-7.799268E-4
9.007324E-5
3.6007323E-4
0.0014648144
0.0024519262
0.00438615
0.003658003
0.0045422264
0.007023562
0.0052501564
0.0031596387
0.0019467504
0.0011091211
7.014917E-4
-0.0012832495
-0.0030327318
-0.005741697
-0.005468291
-0.003940144
-0.0059891087
-0.0021662207
-3.6622072E-4
5.361499E-4
0.0024532618
0.002802744
0.0041669677
0.0062259324
0.0070072683
-0.007206438
-0.0010588086
0.005950156
0.00460438
0.0010467505
-4.7562012E-4
-0.0032751025
-0.003094585
-0.003636438
-0.003408291
-0.0046725147
-0.00660385
-0.007387556
-0.007721262
-0.0049878564
-0.003237339
-0.0021144508
5.679199E-4
0.0012326612
0.0015074024
7.7977293E-4
0.0014445141
6.3688477E-4
0.001131626
0.0032711085
0.0025682203
0.0016929614
0.0014777026
0.0011624439
0.001547185
3.0718505E-4
-7.9518557E-4
-5.518555E-5
-0.0014899267
5.5244385E-4
0.0035442968
0.001679038
0.0027585204
0.004472744
0.004426968
0.003958821
0.0026883031
0.0027677857
0.0020848974
0.0016996387
-2.4036133E-4
-0.0037822144
6.101563E-4
-2.0984375E-4
-0.0031193262
-0.0037111791
-0.0054177735
-0.0049943677
-0.0031338502
-0.0030233325
-0.0030828149
-9.2518557E-4
-2.5518556E-4
3.9718507E-4
0.004611409
0.0038932618
0.0040251147
0.0038469678
0.0028264502
0.001973562
1.3356202E-4
-1.1643799E-4
-0.0010288086
-0.003168291
-0.0010206617
-0.0023277735
-0.0037996264
-0.0034014795
-0.0013462207
-8.585913E-4
5.137793E-4
0.0018485205
0.0035303736
0.004184597
0.0052511916
0.0056077857
0.00525438
0.0037262328
0.0025633448
8.257153E-4
-9.2665525E-4
-0.0031361377
-0.0026032496
-0.0016679907
-0.0023251025
-4.7747314E-4
-2.3747314E-4
-0.002334585
-0.0030540675
-0.0026011793
1.388208E-4
0.0032483032
0.0039001564
0.0038020094
0.005740974
0.0051475684
0.004291792
0.0025089039
0.0023060157
2.5601563E-4
-9.46355E-4
-0.0010587256
-0.0038305786
-0.0036124317
-0.0047366554
-0.0025937671
-0.002440879
-0.0030203613
-0.0026374732
-0.002144585
-9.5695554E-4
-0.0021840674
-0.0011388086
0.003040674
0.004082527
0.0029620093
0.0032514918
0.0012062329
8.986035E-4
5.1097415E-4
-0.001403767
-0.0013885082
-4.108789E-4
-0.0017856201
-0.0025427318
-0.0019298438
-0.0035416968
-0.0026811792
-0.0028806615
-0.0019477734
-5.2014407E-4
8.3222653E-4
0.0015769678
0.0039888206
0.0043430445
0.0065743797
0.006685715
0.004739939
0.003911792
0.0016365332
7.489038E-4
2.8903809E-5
-1.0961915E-6
-0.0030005786
-0.0025776904
-0.0019048023
-0.002131914
-0.0029213964
-0.0021685082
-0.0036003613
-0.002077473
0.0029520092
0.0052586035
0.0059375684
0.005294163
0.0025512744
-4.3109618E-4
-0.0147385085
-2.985083E-4
0.0063604563
0.0050370507
0.0034289039
0.001143645
1.364502E-5
-7.787256E-4
7.03645E-4
-0.0014210962
-0.002378208
-7.505786E-4
-9.929492E-4
-0.0011676904
0.0014370508
0.001741792
0.0048060156
0.0041478686
0.0044820923
0.0035539453
0.0029434278
0.0021505395
0.0018252807
0.001820022
8.4239256E-4
-0.0012023486
-0.0011147192
-9.4708987E-4
-0.001521831
-0.0010042017
-7.0657226E-4
-0.002473684
-8.560547E-4
0.0015786865
0.0033681688
0.0046523926
0.005268987
0.0061079515
0.005474546
0.003476399
0.003688252
0.0029277343
0.0035695874
7.61958E-4
0.0012966992
7.3906983E-4
-0.0010033008
-0.0024804126
-0.0040722657
-0.00528886
-0.005395454
-0.0031749366
-0.0050915307
-0.001536272
0.0018084692
0.002315581
0.0026750634
0.0026321753
0.0022792872
0.00344114
0.001998252
8.825195E-5
0.0014129932
3.0299317E-4
-0.0010093774
-5.0174806E-4
-0.0010841186
-0.0011388599
-0.001513601
-6.3597166E-4
-8.983423E-4
-0.0020354541
-4.378247E-4
1.921753E-4
5.345459E-4
0.0021716577
0.0048058815
0.0058448464
0.0053014406
0.0049080346
0.0038698877
0.00300937
-3.3062987E-4
6.1174075E-4
9.041113E-4
-0.0018206299
-0.0010030005
-0.0018877417
-0.0035095948
-0.0038414476
-0.0038433007
-0.0024204126
3.595874E-4
0.0015043286
2.1432861E-4
-0.0019427832
0.0010195874
0.006288552
0.0068698875
0.0048941113
0.0029135938
-1.2640624E-4
-0.0051830006
-0.014388042
2.6195802E-4
0.0016166993
0.002423811
0.0026432935
1.0329346E-4
4.8566406E-4
-0.0013990771
-0.002586189
-0.0019933009
-8.856714E-4
0.0012490698
0.0031385522
0.004150405
0.0052169994
0.006305964
0.0055925585
0.0048967823
0.0037586351
4.7100586E-4
-0.0010713647
-6.7373534E-4
-2.1373536E-4
-0.0025908472
-0.0041027004
-0.006594036
-0.0073877415
-0.0036795947
-0.0026490772
-0.004153301
-0.0024004127
4.51958E-4
0.0013666992
0.002033811
0.003505664
0.005222258
0.006081223
0.0034330762
0.002020188
1.0018799E-4
-3.3981202E-4
-0.0013045532
-0.0037364063
-0.0026458886
-0.0030353712
-0.004639595
-0.0061885593
-0.007572266
-0.0055088596
-0.0048930836
-0.002782566
-0.0021896777
-0.001494419
-2.6441895E-4
0.0018503222
0.004844546
0.0065458813
0.004500105
0.002157217
0.0033066992
0.001963811
-0.0011409302
-0.0031104125
-0.0038822656
-0.0028217481
-0.0031112304
-0.0036730834
-0.0037549366
-0.003064419
-0.0028639014
-0.0015186425
2.813574E-4
7.43728E-4
0.0019408398
0.0044050636
0.0061140284
0.0041982518
0.0029077344
0.0033272167
0.0029266991
0.0015014404
-2.3855957E-4
-0.0012033008
-0.0026404127
-0.0035022656
-0.0045164893
-0.0053430833
-0.0035349366
-0.00479916
-0.004081013
-0.002298125
-0.0015628663
-7.286621E-5
0.0027466163
0.0012113574
0.00335084
0.0035026928
0.0023498046
0.0023869164
1.869165E-4
-0.004767307
-0.0036191603
-0.004533384
-0.0056723487
-0.006773684
-0.0052502784
-0.004824502
-0.006073467
-0.005620061
-0.0065913964
-0.01703592
-0.0077896263
0.0023374853
0.004151709
0.0059806737
0.006512009
0.004346233
0.0030257152
0.002152827
4.4519774E-4
-9.871728E-4
-8.095435E-4
-0.0024066553
-0.002343767
-0.0016985083
-0.0024056202
-0.0019627318
-4.0510253E-4
5.489746E-5
-3.1510254E-4
0.0015096386
0.0043638623
0.0037757154
0.0054423097
0.007143645
0.0070349807
0.0049815746
0.0030510572
0.0018157983
3.1579833E-4
-0.0013589428
-0.0024260548
-0.0012607959
-0.003612649
-0.003474502
-0.005621096
-0.0049176905
-0.016127473
-0.011313032
-5.2540284E-4
0.0018093383
0.00260645
0.0039383033
0.006407268
0.0067786034
0.0078123095
0.006863645
0.005230239
0.0032697218
7.920923E-4
-0.0011002783
-0.0034321314
-0.0039639845
-0.003343467
-0.001228208
-0.0026453198
-0.0045395433
-0.0036213964
-0.003160879
-0.0027803613
-0.0042645847
-0.0059835496
-0.0045777736
-0.0014625146
0.0034893383
0.006450674
0.008286751
0.0072404565
0.0059494213
0.0031689038
7.890381E-5
-7.634668E-4
-0.0015482081
-0.0027476905
-0.0041395435
-0.0037513964
-0.0061403615
-0.006841697
-0.008387773
-0.008736221
-0.0063051856
-0.0031946679
0.0012900733
0.0030295555
0.007130891
0.012621191
0.013283863
0.010417051
0.0069483863
0.0050149807
-7.0739014E-4
-0.0064287256
-0.010149543
-0.011495102
-0.009655921
-0.010349109
-0.008195185
-0.0053717797
-0.0045560035
-0.0031454859
-0.0014902271
-0.0022073388
-0.0059263036
-0.006537639
-7.6000975E-4
0.0011547315
0.002834214
0.0036060668
0.0044902903
0.0075239968
0.0074877026
0.0072314087
0.008117486
0.0049540796
-2.0592041E-4
-0.0077596265
-0.011135185
-0.012213116
-0.01809001
-0.020244015
-0.014229057
-0.0050756517
-0.0033051344
4.4723632E-4
0.0024543481
9.4671873E-4
3.7908935E-4
-0.0019380224
-0.008986469
-0.0245447
-0.0018294409
0.008146636
0.010329824
0.012227754
0.011765684
0.0057446486
0.0030841308
0.0034659838
0.0010683545
-0.0010740161
0.0017207251
-9.516455E-4
-0.0049382397
-0.0079943165
-0.008110393
-0.0064917286
-0.003221211
-0.0010935816
-0.0013083228
-0.001793064
-0.0016778052
-0.0014425464
-0.0026396583
-0.004473882
-0.0057128468
-0.003252329
-0.0044465526
-0.0045307763
-0.0040026293
-0.0029621117
-0.0024292236
-0.0020463355
7.9603516E-4
0.0035378882
0.007311594
0.009462412
0.008760859
0.010374048
0.009834866
0.0054314598
0.0043256837
0.0024027955
-0.0017019458
-0.0037637989
-0.0031532813
-0.004707505
-0.0038493578
-0.004081211
-0.0047354344
-0.0057443995
-0.008060476
-0.013030777
-0.014245817
-0.0162256
-0.019287236
-0.018254131
-0.016826285
-0.018433178
-0.013285849
-0.004540073
0.001834668
0.008570745
0.010673933
0.0039757863
0.0029452685
-0.0011294726
-0.011987402
-0.016017186
-0.019708822
-0.021415198
-0.019224463
-0.019436099
-0.009446916
0.0061120484
0.02798976
0.043877255
0.05880216
0.06356129
0.06028094
0.039334215
0.0028036963
-0.03312061
-0.06093263
-0.055878054
-0.028918138
0.0024389746
0.039232247
0.07956116
0.11403912
0.13345872
0.15330996
0.16446674
0.14564428
0.10247667
0.05948395
0.040791962
0.063963465
0.081619486
0.06026914
0.01434418
-0.028303532
-0.04548577
-0.026578741
-0.0241646
-0.032898907
-0.0070102415
-0.007643948
-0.048738036
-0.11187889
-0.15937908
-0.17048484
-0.15777029
-0.13438226
-0.09005437
-0.047873717
-0.009362163
0.02996266
0.0659689
0.091325745
0.094112076
0.06038172
0.041119736
0.025820335
-0.010512854
-0.03242479
-0.0404228
-0.064596675
-0.10146434
-0.122528374
-0.13712983
-0.14107312
-0.13932931
-0.12771995
-0.096833386
-0.072790965
-0.05455165
-0.03901492
-0.024470782
-0.012438711
-0.004995305
-2.953052E-4
0.0046889186
0.0098497365
0.014444778
0.018041672
0.019493308
0.018832574
0.019484209
0.020118216
0.019167481
0.021886228
0.02556683
0.02878691
0.030664107
0.031041302
0.030586125
0.03270806
0.029470515
0.028660597
0.0255712
0.02463943
0.024065288
0.020759294
0.017543819
0.016455973
0.016698126
0.015115537
0.013378208
0.011443767
0.0070051025
2.4510254E-4
-7.072681E-4
0.013285403
0.015202815
0.016714968
0.017219491
0.015539275
0.016119057
0.015838841
0.013241511
0.010744699
0.010757888
0.009366335
0.0060253004
0.0038971533
0.0049337475
0.0043179714
0.0049945656
0.004228789
0.004353013
0.004387236
0.0054438305
0.0073975367
0.004954131
0.0051707253
0.0064720605
0.007033396
0.007227102
0.0046313256
0.00494792
0.0045921435
0.002751626
4.3399658E-4
7.063672E-4
6.187378E-4
2.2873779E-4
-0.0012160034
-0.0013307446
0.0011539966
-0.0011407447
-1.6074463E-4
0.002436367
0.002433479
0.0016082202
0.0012029614
0.004257185
0.0049114088
0.0025685206
0.0019356323
0.0011303736
-0.0014243677
-0.00309385
-0.0017585913
-0.0033980738
-0.005514668
-0.005541262
-0.007344968
-0.006876304
-0.005522898
-0.005659492
-0.0065608276
-0.0062197926
-0.003239275
1.907251E-4
4.430957E-4
3.3095705E-5
1.0309571E-4
9.954663E-4
0.0019625782
-4.7979248E-4
-0.0019469043
-0.0011716455
-0.0020087573
-0.0032882397
-0.005084834
-0.0052114283
-0.0053180223
-0.006699358
-0.0071006934
-0.0076743993
-0.006393364
-0.0074370704
-0.006376035
-0.0031755175
3.044824E-4
0.0016192236
5.9223632E-5
5.2159425E-4
-6.840576E-5
1.11594236E-4
4.4396485E-4
-4.6840575E-4
-0.0023755175
-0.003215
-0.005281594
-0.006020559
-0.0032600416
-0.0024171532
-0.001019524
-3.3952392E-4
0.0014252173
0.0027246997
0.0034865527
0.005373147
0.005812112
0.007013447
0.008099524
0.00792323
0.005509824
0.0035416773
0.0016764185
5.7878904E-4
5.611597E-4
-1.6884033E-4
-0.0012035816
-0.0016783228
-0.0030578051
-0.0045620287
-0.0039038819
-0.0011986231
1.3769532E-6
-5.009936E-4
0.0018337476
0.0033956005
0.0059445654
0.006945901
0.007519607
0.007693313
0.005469907
0.002497019
0.0019441309
5.2650145E-4
8.0887205E-4
-7.6349854E-4
-2.9349854E-4
9.3887205E-4
7.0124265E-4
1.5124268E-4
5.436133E-4
0.0038054662
0.00461969
0.0045039137
0.0021510255
4.73396E-4
-8.589746E-4
-9.813452E-4
-0.002158457
-0.0028379394
-0.003027422
-0.0027169043
-0.0035287573
-0.0035206103
-0.0033400927
-0.0047443165
-0.0055209105
-0.0052275048
-0.004934099
-0.003935952
-0.004870176
-0.007031511
-0.007937588
-0.006518923
-0.004623147
-0.004115
-0.0021221119
-0.0020292236
-0.0012839648
-0.0031934474
-0.0053400416
-0.0060690064
-0.0052956007
-0.005552195
-0.005368789
-0.006107754
-0.0069590895
-0.007955166
-0.008471243
-0.0076549486
-0.0066962843
-0.00737999
-0.0062689553
-0.005305549
-0.0040874025
-0.0013221436
0.0013725976
0.0035544506
0.004578674
0.0046428978
0.0025000097
1.8000977E-4
-8.023608E-4
-0.0014671021
-0.003638955
-0.0064202906
-0.0055368845
-0.005643479
-0.005510073
-0.0049666674
-0.007098003
-0.006096968
-0.0027664502
-4.888208E-4
-2.488208E-4
-2.988208E-4
-0.001883562
-3.33562E-4
-0.012663863
6.985083E-4
0.0029479908
-9.743799E-4
-0.0016591211
-0.0012438623
-0.0020809742
-0.0035928271
-0.0038746803
-0.0054312744
-0.005337869
-0.0044420925
-0.0049186866
-0.005245281
-0.0040071337
-0.0021342456
-4.266162E-4
0.001488125
0.0032576073
0.0036194604
0.005998425
0.004342649
0.0024197607
0.0023668725
1.6687256E-4
5.792432E-4
7.2161376E-4
-0.0016231275
-0.0017778686
-0.0012826099
-0.0029420923
-0.0017868335
-0.0025739453
-0.0019810572
-0.0014257983
-0.0016605395
5.6183105E-4
0.002568943
0.0016236841
0.0026731666
0.0041550198
0.004859243
0.0029187256
0.0014034668
0.001748208
3.68208E-4
1.68208E-4
-5.541626E-4
-0.0025712745
-0.0018760157
-0.0023631274
-0.0025302393
-0.0024173511
-0.002034463
-7.5683347E-4
0.0024902783
0.0036121313
0.0010445019
0.005241096
0.0068524317
0.009573249
0.009774067
0.0071754027
0.005531997
0.005408591
0.0036404443
8.0281496E-4
0.0018175561
7.2992675E-4
-6.324439E-4
-0.0017071851
-6.7955564E-4
5.528149E-4
-0.0018819263
-8.142969E-4
0.0010180738
0.0019351855
0.0016399268
0.0043941503
0.0058731153
0.006624451
0.006895786
0.0067171217
0.004801345
0.004103198
0.00191031
-1.1968994E-4
0.0018750513
9.474219E-4
5.597925E-4
-7.125781E-4
-0.0024096898
-0.0024568017
-0.003538655
-0.005065249
-0.0027447315
3.9763917E-4
0.001974751
0.0021818627
0.0026089747
0.0012137159
-5.686548E-4
0.0018460865
-4.8628417E-4
-0.002313396
-0.0028028784
2.7121581E-5
-8.4524904E-4
-0.011340808
-0.012521109
-0.001113479
-0.0029429614
-0.0038548145
-0.004981409
-0.0042056325
-0.002322744
-8.251147E-4
6.4725586E-4
7.3962647E-4
0.0022367383
0.0024938502
0.001970962
0.0021380738
6.4044434E-4
0.001062815
-0.0030466674
-0.0030461499
-0.0030156323
-0.0052922266
-0.006553562
-0.0071648974
-0.0077786036
-0.0076823095
-0.006963645
-0.005420239
-0.0032497216
8.426489E-4
0.0027521313
0.0034139843
0.0055705784
0.007041914
0.004766138
0.0064774733
0.0054340675
0.00305355
0.0057425145
0.0039243675
0.00332385
0.0033833326
0.0022204444
0.0012451855
-7.0718507E-4
-0.0012219263
-0.0017666675
0.0011057032
0.002632815
0.0046870387
0.0062660035
0.00845208
0.009502898
0.010626086
0.010659275
0.009227722
0.009046169
0.0071775047
0.00629647
0.0038783227
0.0038901758
0.0027196582
0.00195677
0.0024038819
0.0027933642
0.001980476
-1.8952393E-4
-2.2952392E-4
0.002207588
0.0019446997
0.0047089234
0.0074826293
0.009051077
0.008939524
0.008727971
0.005746936
0.00495353
0.0049501243
0.0041419775
0.0025890893
-4.8328124E-4
-0.0016380225
-0.0025951343
-0.0036569873
-0.0050935815
-0.0036154345
-0.005212029
-0.0024191407
-0.0010015112
6.7085936E-4
0.0018556006
0.004299824
0.0053364183
0.004760642
0.003892495
0.0019696068
4.1197753E-4
0.0019190894
0.0014738305
0.0020709424
-6.714282E-4
-0.0010737989
-9.2616945E-4
-0.0029156518
-0.0037375048
-0.001812246
-0.002119358
-0.0014040992
-2.4409912E-4
-9.164697E-4
-5.388403E-4
0.0013159008
0.004912495
0.0069238306
0.0060627954
0.004237019
0.003708872
0.0038407252
0.003932578
0.0020496899
2.0968994E-4
-5.0268066E-4
-0.0014774218
-0.0019045337
-0.0025016456
-0.003221128
-0.0021282397
-0.0026053516
1.2464843E-4
-9.477222E-4
-8.9009275E-4
0.0028193896
0.0023465015
0.0030759838
0.0032754664
0.0031649487
0.0038768018
0.005263396
0.003665249
0.0018399903
1.6999024E-4
-5.0009767E-5
-9.1238035E-4
-0.0031818629
-0.003401345
-0.0018260864
-8.38457E-4
-0.002155569
7.9680176E-4
0.0013415429
0.0023686548
0.0021757665
0.0019828784
0.0014776196
0.0012623608
6.4473145E-4
0.0013594726
0.0012542139
7.1658444E-4
0.001068955
-9.734155E-4
-0.0011157861
-0.0017405273
-0.0025576393
-0.0016923804
-0.006893716
-0.01898298
-0.0026524633
4.753662E-5
9.4990723E-4
0.0029293897
0.0057783546
0.00715969
0.0064186547
0.00647999
0.004854214
0.0033960668
0.0059750318
0.0038968849
0.0026863671
0.0012911084
0.0015958496
6.882202E-4
-7.541504E-4
-0.001026521
-0.0011288916
-0.0017236328
-0.0032831153
-0.0013178565
6.0451415E-4
0.0014092553
0.0019063671
0.002023479
0.0033529615
0.0033424438
0.0031319263
0.0036137793
0.002390891
7.032617E-4
-0.0024938502
-0.0033133326
-0.0011480737
-0.0018528149
-0.0022399267
-0.00455415
-0.0025412622
-0.0016660034
-0.004210227
-0.0016249683
6.6740235E-4
0.0020945142
0.0031039966
0.005190591
0.0042748144
0.004349038
0.003940891
0.0041551148
0.0019022266
0.0016669678
4.4933837E-4
-8.430322E-4
-0.0020201441
-9.025147E-4
-0.0011472559
-0.004139109
-0.005085703
-0.0038175562
-0.0047517796
-0.001866521
-7.488916E-4
0.0013258496
0.0016605909
0.003872444
0.005289038
0.004573262
0.0045774854
0.0014922266
0.0010045972
1.2459717E-4
-0.0017501441
-0.0033196264
-0.00434385
-0.0028433325
-0.0040351856
-0.0059741503
-0.005743115
-0.003984968
-0.004429192
-0.0040110447
-0.0019181567
-3.4815673E-4
-0.00405001
8.7236083E-4
0.003934214
0.004026067
0.0022931788
7.4554933E-4
0.0018102905
8.726611E-4
4.5503172E-4
-2.7496828E-4
-0.0013797095
-0.002879192
-0.0020663037
-0.0023234156
-0.0026305274
-0.0039623803
-0.0024694921
-0.0014642334
5.681372E-4
0.0013828784
0.0012976197
0.0024047315
0.0041265846
0.0035684374
0.0038002906
0.004224514
0.0026439966
1.4399659E-4
-6.48374E-4
-0.0022254859
-0.003657339
-0.003829192
-0.003551045
-0.0017457862
-0.0022728979
-0.004527122
-0.0018818628
-3.318628E-4
7.805078E-4
0.001495249
0.0013499903
0.0035918432
0.004186067
0.00383792
0.0027374025
0.0024345142
0.0012592553
6.61626E-4
-9.0074464E-4
-0.0013854859
-0.0044497093
-0.0047539333
-0.0052805273
-0.005447122
-0.005123716
-0.005872681
-0.004989275
-0.0025963867
-0.0022934985
-8.9586916E-4
3.6413086E-4
-8.586914E-5
0.0014988721
0.0048330957
0.0023402076
0.0016749487
0.0028644311
0.002011543
6.839136E-4
-9.0845703E-4
-0.0015931983
-0.00237031
-0.004102163
-0.0027216454
-0.0025287573
-0.00405061
-0.004324834
-0.0021019457
-0.0010243164
-0.005010911
-0.014655952
4.0641846E-4
0.0028159008
0.0052424953
0.005569089
0.0037109423
-5.914282E-4
7.0094236E-4
-1.6905762E-4
-9.814282E-4
-5.1428222E-5
-0.00250854
-0.0032080226
-0.003237505
-0.0045417286
-0.0039035815
-0.0038754346
-0.0034572876
-0.0024243994
1.5560059E-4
-1.0439941E-4
0.003395083
0.005241677
0.004775901
0.0051724953
0.0049690893
0.0023562012
0.0016009423
0.0017456836
-0.0014990576
-0.00267854
-0.0032980226
-0.0017227636
-8.1513426E-4
-0.004739358
-0.0043135816
-0.0020006935
-0.0020178051
-0.002124917
-3.972876E-4
0.0018374536
0.0022045653
0.0035264185
0.0037282715
0.0031377538
0.0027972364
0.002354348
0.0020214599
0.0019585718
0.0010009424
-8.214282E-4
-0.00197854
-0.0026580226
-0.0017227636
-0.0020998756
-0.002949358
-0.0033688403
-0.0032183228
-0.0017430639
3.9930665E-4
7.7167724E-4
0.0029711598
0.002740642
0.0034001246
0.003109607
0.0020267188
0.0014614599
0.0014462011
-9.361694E-4
8.062012E-4
-4.5616942E-4
-0.0029456518
-0.0027351342
-0.0051017287
-0.009070176
-0.00499677
-0.0027562524
-0.0040381053
-0.0035299584
-0.002679441
5.429297E-4
0.0017576709
0.0012524121
-0.0052241823
-0.0131544825
-5.6685304E-4
0.003955
0.004169224
0.002678706
0.002385818
-4.7655273E-4
-6.9892337E-4
-0.0015536646
-4.7603514E-4
-0.0014107764
-0.0014255176
-0.0024226294
-0.0032821118
-0.003553965
-7.5633544E-4
-2.6335449E-5
3.2366454E-4
0.0020607763
0.002690259
0.0035721117
0.0035139648
0.0033234472
1.9344727E-4
5.758179E-4
7.581787E-5
0.0025229296
1.0292969E-4
-0.0017418115
-0.0016565528
-0.0033060352
-0.004330259
-0.0035621119
-0.0022492236
-0.0013039649
1.4603516E-4
0.0010384058
0.0024355175
0.003065
0.003576853
0.006035818
0.005562412
0.005129006
0.0038108593
1.4085938E-4
-0.0012738819
-0.0024509938
-0.0029104762
-0.0031799586
-0.0043141823
-0.0044684056
-0.0045526293
-0.0049292236
-0.0050458177
-0.0025229296
-7.1530027E-4
0.0012594409
0.0031889232
0.0037507764
0.0051073707
0.0062463353
0.00542293
0.006544265
0.00585323
0.0025903417
-0.0016143994
-0.0033938817
-0.005130476
-0.00521707
-0.004881294
-0.0028607764
-0.0037626293
-0.004326853
-0.0027963354
-0.0013310766
-0.0014358179
-6.581885E-4
-2.8188477E-5
0.0025689234
0.0036207763
0.0039726296
0.0039844825
0.004848706
0.0024358178
0.0011181885
0.0013329297
-0.001099441
-0.0012041822
-6.0655276E-4
-0.001851294
-0.0022184057
-0.0033278882
-0.005956853
-0.0044810767
-0.002900559
-0.0017653003
-1.3530029E-4
0.001129441
0.003621294
0.004103147
0.0028726293
0.0037844824
0.004538706
0.003540559
0.0026700415
0.0010124121
-0.0020546997
-0.0016694409
-0.0042136647
-0.0036255175
-0.0022326293
-0.003172112
-0.0035739648
-0.0030734472
-0.0028029296
-0.0013176709
5.546997E-4
0.0010070703
0.004271294
0.0044455174
0.004159741
0.0030792237
0.0036610768
0.0022581886
0.0016929297
0.0011776709
0.0012024121
-0.0013023291
-0.0033018116
-0.0040836646
-0.0039755176
-0.004279741
-0.0048339646
-0.003675818
-0.0028553002
-0.0015100415
-7.024121E-4
0.0022646997
0.0029841822
0.0030136646
0.002713147
0.0042473706
0.0034592235
7.2159426E-4
2.0159424E-4
1.6159423E-4
-8.4077637E-4
-5.73147E-4
-0.0017378882
-0.004592112
-0.005198706
-0.0032281885
-0.0024253002
-0.0033747826
-0.0025618945
4.810547E-5
0.0018328467
0.0034946997
0.0034065528
0.005493147
0.0046273707
0.005623965
0.005470559
0.0034624122
0.0025395239
-3.604761E-4
-0.0013352173
-0.0013799585
-0.0016846997
-0.0035265528
-0.001871294
-0.0023884058
-0.0042426293
-0.0020297412
-0.0017844824
-0.0029339648
-0.0021610768
-5.9344724E-4
5.6892337E-4
0.0025160352
0.0032655175
0.004449741
0.0042239646
0.0026434474
0.002350559
0.0018253003
0.0011300415
0.001032412
-6.299585E-4
-0.0038118116
-0.004556035
-0.0044402587
-0.003942112
-0.0045763357