0.004009045
0.0027385277
0.0024956397
-5.1673094E-4
1.2326904E-4
-2.6673096E-4
-0.0026662133
-0.0015609546
-0.0041028075
-0.0062317722
-0.0057207374
-0.0019678492
-8.1021973E-4
3.3978026E-4
0.0010521509
0.0033716334
0.006140598
0.0043848217
0.0033966748
0.0041185278
0.003860381
0.0021274926
0.0012522339
-0.0017025074
-0.0054191016
-0.004323325
-0.0043875487
-0.0044417726
-0.0068431078
-0.0064120726
-0.0056186668
-0.005205261
-0.0033347437
-0.0023718555
2.3814454E-4
0.002877627
0.00398948
0.005828445
0.0041626683
0.0012474096
0.0017221508
3.0215087E-4
-3.1784913E-4
-0.002494961
-0.003636814
-0.004118667
-0.0046328907
-0.0062218555
-0.008007932
-0.0051645264
-0.006555862
-0.0035177148
-1.7714843E-5
-8.1008545E-4
7.7228516E-4
0.0031717676
0.004335991
0.004740215
0.004092068
0.005368662
0.0050052563
0.0031547388
0.0020218506
0.0021289624
-2.110376E-4
-0.0035228906
-0.004737114
-0.004371338
-0.005577932
-0.004382156
-0.0036940088
-0.0034058618
-0.0031553442
-6.5771485E-4
7.6465576E-4
0.0027641382
0.0054207323
0.005719697
0.005688662
0.005977627
0.0066689625
0.0036808155
0.0017855567
-4.5681396E-4
-0.0012515552
-0.0035134081
-0.0034552612
-0.0026847436
-0.0029142261
-0.0051808204
-0.0069821556
-0.0036940088
-0.0022711207
-5.634912E-4
6.5087893E-6
4.588794E-4
0.0017436206
0.003183103
-4.1926757E-4
0.0015654736
0.003937327
0.0038091796
-0.0033703027
-0.008646379
-0.0011711206
-0.0011858618
-0.0026853443
-0.004589568
-0.003821421
-0.0038532738
-0.003395127
-0.005131721
-0.002448833
-2.2883301E-4
-8.833008E-6
0.00386302
0.006381985
0.005488579
0.003980432
0.0031499146
0.0018146557
0.0019017676
4.441382E-4
-0.001340603
-0.0018853443
-0.0033048266
-0.0028743092
-0.005040903
-0.005909868
-0.0032193505
-0.002718833
-0.003660686
-0.0026801685
-0.0010825391
-5.3490966E-4
0.0031745727
0.004578796
0.0034006494
0.0041748732
0.0032343555
8.967261E-4
-6.0564454E-4
2.0435547E-4
5.267261E-4
-0.0032427562
-0.0040246095
-0.0031040919
-0.0043783155
-0.004762539
-0.0051191333
-0.004140986
-0.0050275805
-0.0012623218
3.1767823E-4
0.00245479
0.0028542725
0.0036561254
6.6849607E-4
0.002115608
0.0024527197
0.0016274609
0.0017422022
2.4220215E-4
-2.3779785E-4
-7.8016846E-4
-0.0012349096
-0.0020120214
-0.0035938744
-0.0034157275
-0.0035275805
-0.004301804
-0.002458916
-3.58916E-4
2.71084E-4
0.003402937
0.004637161
0.006788496
0.0052150902
0.0035569433
0.0040587964
0.005747761
0.0037996143
0.002546726
0.0031062085
0.0012409497
-0.0014337915
-0.0026109032
-0.004152756
-0.00431698
-0.0021740918
-0.0031635743
-5.259448E-4
-3.2594483E-4
6.7642576E-4
0.0032159083
0.0040577613
0.0051643555
0.0062833205
0.0026628028
0.0012275439
0.0029870265
0.0021841382
0.0010965088
0.0019336207
-3.363794E-4
-0.0014811206
-0.0011458618
-0.0033353441
-0.0040671974
-0.006126162
-0.0044703856
-0.001615127
-5.774976E-4
7.448731E-4
0.0024419848
0.0025890968
-0.0062598684
0.0025672438
0.0062962086
0.0058851736
0.0029946559
0.0044888793
0.0030283618
6.9073244E-4
5.73103E-4
-8.792676E-4
-0.0023463794
-0.002715862
-0.0023129736
-0.0037048266
-0.0019819385
-0.0022490502
-0.0026885327
-6.109033E-4
0.0025062086
0.0035380616
0.0039799144
0.005748879
0.0061078444
0.0042420677
0.0031415503
0.0011762915
0.0028057739
8.577393E-5
-0.0012189673
-8.813379E-4
-0.0023084497
-0.0045926734
-0.004476897
-0.0030463794
-0.0030058618
-0.0018106031
-3.5060302E-4
-7.929736E-4
0.0015417676
0.0034836207
0.004407844
0.0030373267
0.0024244385
0.0034562915
0.0036781444
0.003307627
0.0025447388
0.00171948
-0.0014052612
-0.0012000024
-5.000244E-5
-0.0019771142
-0.0043913377
-0.005407932
-0.0031774146
-0.0021345264
-0.0015792676
-8.116382E-4
-1.7163818E-4
0.0025354736
0.003144956
0.003886809
0.0046710325
0.0044752564
0.0039471094
7.4948E-4
-9.828906E-4
-0.0011676318
-0.0024247437
-0.0022318554
-9.5422607E-4
-0.0032837086
-0.0034755615
-0.0023726732
-0.0026421559
-0.0024692675
-0.0023663794
-0.0016011206
0.0014736207
0.0022707323
0.004454956
0.003536809
0.0052634035
0.0051199975
0.0040818504
0.0013765917
-0.00208052
-0.010141338
-0.0048155617
-0.0020426733
-0.005681638
-0.0068829735
-0.0066743093
-0.005420903
-0.004315127
-0.0011798681
-0.00230698
-1.5697998E-4
0.0027525024
0.0032119849
0.0042462084
0.006927544
0.005124138
0.0065754736
0.0056520677
0.0047862916
0.002845774
6.781445E-4
-6.9422607E-4
-0.0011489673
-0.0038208202
-0.004665044
-0.004096897
-0.005073491
-0.004867715
-0.0032871973
-9.3956786E-4
-1.8956787E-4
7.0280273E-4
8.0517336E-4
0.0033946557
0.005793621
0.006444956
0.0050915503
0.0022886621
0.002275774
6.2814454E-4
-6.6422607E-4
-0.0014089673
-0.0031984497
-0.0047126734
-0.004626897
-0.0044311206
-0.003350603
-0.0046748267
-0.0043690503
-0.0032285326
1.8146729E-4
0.002168579
0.0025756909
0.0024628027
0.005219397
0.006188362
0.005544956
0.0016196973
6.120679E-4
2.7206787E-4
1.3206787E-4
-0.0029774145
-0.0037292675
-0.006158232
-0.0074219387
-0.006783274
-0.00806935
-0.008295427
-0.0065267626
-0.005153357
-0.0016780981
-4.3046876E-4
0.0011342724
0.0028137548
0.003795608
0.0042498317
0.004684055
0.002101167
-3.48833E-4
0.0011035376
3.435376E-4
-7.68833E-4
-0.0014535742
-0.001960686
-0.003972539
-0.004074392
-0.0031238745
-0.0040057274
-0.0035175805
-0.0026246924
-0.0023518042
0.001512937
0.00393479
0.004156643
0.003968496
0.00482272
0.0036845726
0.0023216845
0.0024587964
0.0016535376
-5.88833E-4
-0.0017135742
-0.0029730566
-0.0058920216
-0.003131504
-0.0022686156
-0.0045128395
-0.0034946923
-0.0037165454
-0.0025336572
-1.4365722E-4
0.0027258252
0.0043800487
0.005006643
0.0046408665
0.0048850905
0.006374055
0.0054806494
0.0028201318
0.0022072436
0.0015119849
-0.0013827564
-0.0036546094
-0.002111721
-0.004003574
-0.0058125393
-0.0052691335
-0.0050457274
-0.0034575805
1.2419434E-5
0.0012371606
-2.3283936E-4
-1.4283936E-4
2.5716063E-4
0.0022842726
0.0054408666
0.0060198316
-0.0035420214
-0.008990468
1.6953125E-4
0.002066643
4.6901367E-4
3.3901367E-4
-7.033569E-4
-0.0016580982
-0.004039951
-0.0041741747
-0.0042583984
-0.0024155104
-0.0027749927
-0.0012697339
0.0021673779
0.003849231
0.0048334547
0.0058424193
0.0064213844
0.0069527198
0.0063116844
0.0021187963
-0.0019383155
-0.011203875
-0.0016586158
8.937549E-4
-3.2624512E-4
-0.002523357
-0.0020504687
-0.0028799511
-0.004244175
-0.0033036573
-2.3365722E-4
6.487134E-4
4.1108398E-4
0.0033505664
0.005497161
0.0064684963
0.006649832
0.005166426
0.0031059082
0.0026430201
0.0018477612
9.4013184E-4
-8.3223876E-4
-0.003414092
-0.0031035743
-0.0027930567
-0.0043772804
-0.0039091334
-0.004573357
-0.0045975805
-0.0059165456
-0.0059755105
-4.1788086E-4
0.0013368604
0.001099231
0.0014139721
0.002451084
0.0031605663
9.02937E-4
0.0011253076
0.0016400488
0.0010324194
-2.7580567E-5
-0.0021246923
-0.0049712867
-0.0046255104
-0.0033749926
-0.005251587
-0.00395344
-0.0026429223
-0.0019800342
-5.4240477E-4
0.0013723364
0.0014470776
0.0040589306
0.0056678955
0.006599231
0.0066805664
0.008026643
0.0052632373
0.0053798314
0.0034816845
0.0016164258
-4.8594482E-4
-0.0024230566
-0.0018377978
-0.003599651
-0.0043838746
-0.0040057274
-0.005282322
-0.0042365454
-0.0022036573
-8.9602784E-4
-0.0030055102
-0.0013602515
0.0015944898
0.0010168604
-0.0023302515
-0.0022873632
0.0027821192
0.0035139723
0.0037358252
0.0045500486
0.0027595311
1.0953125E-4
-0.0014852099
-0.0023823217
-0.0024994337
-0.0024265454
-0.0019336572
-0.0028031396
-0.0010955102
0.0026116015
0.0035634546
0.0023205664
3.705664E-4
0.002307678
0.0017824194
0.0017871606
0.0031266431
0.002523755
0.005010349
0.005719314
0.0026264258
3.7642577E-4
1.16425785E-4
-0.002080686
-0.0026601686
-0.0038620215
-0.004236245
-0.0032857275
-0.0017704688
-4.8283936E-4
7.7953126E-4
-5.228394E-4
-2.6283934E-4
0.0012219019
0.003533755
0.0025708666
0.001305608
-4.267627E-4
-5.791333E-4
5.832373E-4
-0.001651504
-0.0022586158
-0.0024557274
-0.00277521
-0.0049518044
-0.0034436572
-0.0020607691
-0.0023278808
0.0013868604
0.0027863428
0.0020134547
0.0043676784
0.006156643
0.0059056077
0.003427461
0.0035493139
0.0029687963
9.81167E-4
-0.0010412036
-0.0014059448
-4.5831542E-4
-0.0018730566
-0.00402491
-0.0047591333
-0.0077528395
-0.01255314
-0.016505294
-0.0053118872
-5.1887208E-5
-1.7188721E-4
-9.542578E-4
0.0018304834
0.0053270776
0.006488413
0.005555007
0.004489231
0.0029087134
0.0025858253
0.002432937
0.0015976782
-4.9469236E-4
-4.87063E-4
-0.0023241749
-0.0041160276
-0.005662622
-0.0043968456
-0.003336328
-0.0033858106
-0.0014805518
-7.229224E-4
0.0012218188
0.0028013012
0.0054078954
0.0075916015
0.007112937
0.0043071606
0.003286643
0.0027461255
0.0024832373
0.002060349
3.803491E-4
-0.0031191334
-0.0040109865
-0.0041552098
-0.0025623217
-0.0041541746
-0.005060769
-0.004977363
-0.005726328
-0.0059452928
-0.0024424049
0.001954707
0.00364656
0.0033360424
0.0022431542
0.0016678955
-2.721045E-4
-0.0020292164
-0.0031086986
-0.0022858107
-0.0030852929
-0.0050818874
-0.004416111
-0.0017208521
-0.0031003344
-0.0034021875
-0.0021892993
-0.0010016699
2.8833008E-4
-8.1669925E-5
9.707007E-4
0.002760183
0.0044844067
0.0048786304
0.0049452246
0.005341819
0.003853672
0.003685525
0.0044897487
0.0018844898
-0.002462622
-0.0087910695
-0.013001369
-0.016061153
-0.018068047
-0.014633088
-0.004887312
0.004084541
0.0055011353
0.002168247
0.0025453588
0.0045495825
0.0073632887
0.0072469944
0.008453071
0.008489148
0.0045333714
0.0036752247
0.0023123363
1.2233642E-4
-1.9766357E-4
-0.0016824048
-0.0033818872
-0.004826111
-0.005382705
-0.009101152
-0.01013197
-0.009992789
-0.003654641
-0.009625459
-0.0031349414
0.0046892823
0.009397729
0.010178547
0.009166995
0.0057859593
0.0038978125
5.001831E-4
-0.0015145581
-0.0014892993
-2.9299317E-5
7.630713E-4
4.954419E-4
-0.0024116698
-0.0042858934
-0.002985376
-0.0014801172
-2.1011718E-4
3.822534E-4
0.0023493653
0.0032888476
0.004483071
0.005952036
0.009210483
0.011666043
0.00937449
0.009795307
0.008341384
0.0052679786
0.003247461
9.7460936E-5
-8.8490965E-4
-0.0028843922
-0.0049809865
-0.0069623217
-0.007938398
-0.0075621046
-0.009772922
-0.011048482
-0.015928265
-0.015095676
-0.011131235
-0.0100220535
-0.012409983
-0.014737395
-0.010470583
-0.0039924365
0.0074412697
0.017665794
0.025164023
0.028874107
0.026889449
0.024837678
0.018616943
0.012477243
0.0019643554
-0.010598833
-0.014946245
-0.011391805
-0.004386028
0.0011163427
0.0037281958
-0.002008916
-0.0065802513
-0.0100110695
-0.011246628
-0.0134393
-0.0124996
-0.005276194
-0.0025233056
-0.0068546413
-0.019486276
-0.02839636
-0.034093037
-0.02972549
-0.013045791
-0.007279497
-0.012347427
-0.008473503
-0.0017582446
0.009752573
0.03337688
0.058991786
0.063240916
0.0544716
0.051232804
0.039446075
0.025806675
0.017551199
0.010072016
1.720166E-4
0.0023491285
0.004213352
-0.005775613
-0.018524878
-0.02767259
-0.03849349
-0.045185726
-0.046220336
-0.044330202
-0.029092655
-0.005711619
0.015245793
0.041906178
0.0558016
0.05774177
0.057721935
0.05830447
0.054767523
0.040023167
0.027368508
0.009789326
-0.015278086
-0.026361058
-0.019362694
-0.0047869165
-0.0011316577
-0.0032511402
-0.01247144
-0.010464629
-0.0018493701
-0.0021264818
3.8588868E-4
-0.0040259645
-0.020549972
-0.018739237
0.005699729
0.0264027
0.04645968
0.05322562
0.03791415
0.032156087
0.036019877
0.044449743
0.043334864
0.020028872
-0.0069224634
-0.024830693
-0.038351595
-0.04507383
-0.038464732
-0.025835332
-0.02166408
-0.017108604
-0.006769939
-0.003481792
-0.008577868
-0.013038169
-0.022216916
-0.02954937
-0.039835013
-0.054025695
-0.060515344
-0.05347366
-0.038434558
-0.024540417
-0.014165459
0.0017792822
0.026009884
0.033224188
0.042699315
0.05658711
0.0363809
0.011236457
-7.0591306E-4
-0.013026213
-0.011151773
0.0073719337
0.01954357
0.031833135
0.047090113
0.067241095
0.073643416
0.06895914
0.044981375
0.021980124
0.0018248657
-0.02045914
-0.055502195
-0.061154213
-0.025434814
0.01892445
0.04900854
0.042231295
0.006120259
-0.031619307
-0.049363397
-0.059088305
-0.04952476
-0.037753295
-0.05702109
-0.09563216
-0.09945507
-0.08427058
-0.053948898
-0.0331032
-0.010776391
0.021832356
0.04288748
0.07232506
0.10316983
0.11150068
0.091097526
0.07943644
0.08785143
0.06834478
0.00918323
-0.04992323
-0.05921814
-0.047537487
-0.029559938
-0.021998687
-0.01772321
-0.029745664
-0.038846564
-0.04611117
-0.057511337
-0.048443057
-0.023808915
-1.9891602E-4
0.026574055
0.037902586
0.021901334
0.013354004
0.018230898
0.035009947
0.052675888
0.062832646
0.0730726
0.057342764
0.027980477
-8.7189453E-4
-0.03027672
-0.05155792
-0.045290157
-0.020966534
-0.020050539
-0.027928252
-0.038839154
-0.05671695
-0.06455845
-0.03846935
-0.0346484
-0.018315293
-0.008171369
-0.0057703345
0.014594707
0.027480049
0.052453622
0.10361839
0.14640829
0.14202397
0.14354438
0.12117368
0.040219318
-0.0223618
-0.048033517
-0.060050797
-0.059448075
-0.030785268
-0.045527507
-0.0694656
-0.052841544
-0.03266348
-0.025854079
-0.028644163
-0.051695365
-0.043190487
0.0114950705
0.08006635
0.09372031
0.057822846
0.051264048
0.01585383
-0.044163663
-0.10527318
-0.11601825
-0.0734382
-0.019057466
0.028812617
0.088519976
0.16110492
0.21027395
0.24542439
0.2547733
0.21103469
0.030469509
-0.1356472
-0.164834
-0.1233204
-0.13139288
-0.15315412
-0.17099987
-0.15822533
-0.08491084
-0.034849886
-0.023885747
-0.048237465
-0.0711003
-0.06685129
0.013231385
0.0796803
0.10966404
0.12545756
0.07198276
0.008098841
-0.041431542
-0.07872809
-0.027163427
0.049863033
0.09904358
0.06035323
0.023024349
0.011992278
0.036156066
0.069504164
0.05915907
0.052172642
0.033849318
0.0041835424
-0.048128176
-0.037264336
-0.02997916
-0.068834886
-0.09345884
-0.09446517
-0.10059046
-0.07677226
-0.006211223
0.06737976
0.06697074
0.026183715
-0.0119542135
-0.0069955494
0.041194834
0.07569189
-0.003217588
-0.118077405
-0.17016079
-0.18192211
-0.17409971
-0.15058146
-0.07852801
-0.007541714
-0.0023588256
-0.001483567
0.051547635
0.064019136
0.040134776
0.010237967
-0.04154242
-0.084195554
-0.09849373
-0.09677717
-0.06667578
-0.014923195
0.027422147
0.057592314
0.09495101
0.09170785
0.04984431
0.0075580175
-0.017416507
-0.008522583
0.018916681
0.017701207
0.008667283
0.017711807
0.0185087
0.0053952956
-0.025935305
-0.047504652
-0.043369778
-0.032301713
-0.03134891
-0.025969509
-0.008025586
0.01971605
0.03807458
0.04792393
0.059851207
0.051914778
0.02625775
0.01466279
0.013975461
0.014992873
0.0122008035
0.0110363625
0.016588517
0.01856778
0.014152822
0.0039346754
2.3467529E-4
-0.001310066
-0.003961919
-0.0026714015
0.0036804518
0.0077841575
-4.5842284E-5
-0.006437178
-0.009777996
-0.0085440725
-0.006403037
-0.0052996315
-0.0063985963
-0.00513519
0.0055314037
0.0044456273
5.57998E-4
0.005224592
0.017229116
0.028286828
0.034495875
0.038166776
0.037132937
0.036086727
0.031133922
0.019635556
0.009364004
0.0061329687
0.0063119335
0.0020790454
-0.0055575487
-0.012967849
-0.014422891
-0.018129785
-0.01678194
-0.020685945
-0.028396027
-0.031445593
-0.025303824
-0.017658347
-0.011043906
-0.0056405007
0.009397947
0.02709329
0.020517295
0.007181001
-0.0013537402
-0.002280852
-0.0024979638
-0.0016627051
0.0069186306
0.014746043
0.017220566
0.015560349
0.010693538
0.0123214675
0.017525991
0.02549659
0.029229045
0.03074624
0.0373824
0.04114041
0.03776894
0.023030061
0.0017248022
-0.01607498
-0.016477134
-0.014532175
-0.01821907
-0.026682042
-0.041934796
-0.055017848
-0.056063276
-0.04567551
-0.031282704
-0.01891197
-0.01261227
-0.006763606
-0.0030230884
-0.0029025709
-8.5494143E-4
0.0063240235
0.011881953
0.010305142
0.0073088477
0.0059278123
0.0013325537
-0.0021745581
-0.0035564112
-0.003918264
-0.0018830054
0.0013817358
0.003593589
0.00114833
-0.0032011524
-0.00982197
-0.015249383
-0.019421019
-0.020335024
-0.0139476955
-0.008633772
-0.008902219
-0.011840149
-0.009178597
-0.006107561
-0.007963638
-0.009072085
-0.004286309
-2.763086E-4
0.0052102855
0.008126362
0.007982439
0.009330886
0.011888816
0.011836746
0.010749934
0.008396011
0.005292605
0.003584458
0.0031839404
-0.004710283
-0.009008731
-0.004212954
-0.010756142
-0.0039679958
-0.0010903662
-5.527368E-4
-3.627368E-4
0.0011820043
0.0031014867
0.0045357104
0.0070070457
0.0071483813
0.0073420876
0.0074857934
0.00837187
0.005618464
0.004542688
0.003594541
0.0018692822
-7.1777345E-7
1.6928223E-4
2.4928222E-4
-0.0026902002
-0.0030396825
-0.0039715357
-0.003171018
-1.5101807E-4
0.0030484644
0.0052650585
0.0055016526
0.0062406175
0.006931953
0.005568547
0.0031980297
0.0028175123
0.0031169946
2.4699463E-4
-0.0015777466
-0.0022848584
-0.0038067114
-0.0055633057
-0.0046875295
-0.0050241235
-0.006725459
-0.0070767943
-0.005795759
-0.0061947242
-0.0018094653
8.629053E-4
0.0015576464
0.0023247583
0.004858982
0.0070603173
0.006631653
0.0046558767
0.0037577294
0.0012324707
7.548413E-4
3.972119E-4
-0.0015675293
-0.0027070118
-0.0033564942
-0.0033859767
-0.0034678297
-0.0041820533
-0.0035439061
-0.0028733886
-0.0012281298
6.242407E-4
0.001408982
0.0026060937
0.0043803174
0.0057292823
0.004071135
0.0031006178
0.0040724706
0.0025895825
-0.0016351587
-0.0026422704
-0.003031753
-0.003743606
-0.0054602004
-0.0056667943
-0.0053833886
-0.005359983
-0.0033994652
-0.004021318
-0.0010836889
-3.3688964E-5
0.0021934228
0.0022305346
0.005287129
0.006206094
0.0058750585
0.0055216528
0.0045258766
0.0024629883
0.0015577294
-7.8464113E-4
-0.0048688645
-0.0044630882
-0.0039749416
-0.0071662767
-0.008122354
-0.0063613183
-0.0028208008
-0.001675542
-0.003627395
-0.0015821363
0.0025549757
0.00505157
0.005780535
0.0048047584
0.0031242408
0.003323723
0.002270835
0.0031403173
0.0024274292
-1.325708E-4
-0.0024596825
-0.003179165
-0.00588813
-0.0051647243
-0.005883689
-0.005330283
-0.0036121362
-0.002299248
0.0010831226
0.0011878638
0.0027573463
0.005846311
0.0053429054
0.0035947582
0.004248982
0.005345576
0.004047429
0.0032669117
0.0015716528
8.440234E-4
4.0234377E-6
-0.0019430884
-0.012341018
-0.0050976123
-0.0027570948
-0.0032165772
-0.0038684302
-0.002645542
8.768286E-4
0.0040286817
0.004392905
0.00575187
0.0077055763
0.007829282
0.0074429885
0.006011953
0.005078547
0.0015232885
1.3288574E-5
5.856592E-4
7.180298E-4
-7.043408E-4
-0.0020114526
-0.0023485646
-0.0024756764
-0.0040075295
-0.0028770117
-0.003396494
-5.3886476E-4
7.7350583E-4
0.0024106177
0.0042648413
0.004299065
0.004130918
0.0050675124
0.0053641065
0.0052307006
0.0036725537
0.0010349243
4.8729492E-4
5.7966553E-4
-0.0010827051
-0.0027821874
-0.0020892993
-0.0030987817
-0.0041630054
-0.004517229
-0.0032167113
-9.49082E-4
6.632886E-4
0.003022771
0.007686477
0.007590183
0.008998631
0.008244707
0.007688413
0.005505007
0.0026021192
0.002259231
0.0017939722
3.4397218E-4
-7.6839846E-4
-0.0017331396
-0.0059321043
-0.0049586985
-0.00133344
-0.0010158105
-6.081812E-4
0.0011341894
0.0026113014
0.0032507838
0.004815007
0.0057239723
0.0074876784
0.008756125
0.0062950905
0.0060340553
0.0030235376
0.0018082788
6.406494E-4
-4.9350587E-5
-0.0023064625
-0.002825945
-0.0021030565
-0.0020301684
-0.0041120215
-0.0035738745
-0.0011786157
5.037549E-4
6.961255E-4
0.0022332373
0.0030427198
0.004796943
0.004631167
0.00392302
-0.004471204
0.00489302
0.0050696144
0.0031090968
0.003088579
0.0016233203
1.4332031E-4
-0.001651421
-0.0029109034
-0.0027803858
-0.0037122387
-0.0027917211
-0.0016664624
5.35376E-5
0.0020406493
0.0035625023
0.004716726
0.008282803
0.007174138
0.004608362
0.0047425856
0.0036944384
0.0021715502
0.0010139209
0.0016686621
5.3103274E-4
-5.3133786E-4
-0.0013960791
-0.0028855614
-0.003185044
-0.0030845264
-0.00441875
-0.0022658617
-5.282324E-4
5.341382E-4
0.0031536205
0.0058525857
0.010315774
0.009876592
0.008725039
0.008521115
0.0061100805
0.0021171924
-0.0015475488
-0.00187229
-0.0014270312
-0.002054143
-0.0011365137
-0.0038783667
-0.009166814
-0.009155261
-0.0066865967
-0.005303191
-0.0026526733
9.732666E-5
0.0010496973
0.0035115504
0.0055581443
0.0070794798
0.0068108155
0.0050174096
0.004171633
0.004195857
0.0010882275
-9.941431E-4
-0.0011365137
-0.0037483666
-0.0040702196
-0.0036920728
-0.0017668139
-0.0046210377
-0.006902373
-0.0026918554
6.2051514E-4
-1.4948487E-4
0.0010128857
0.003392368
0.006201333
0.0072650393
0.0057440037
0.0058229687
0.004597192
0.0017619336
6.043042E-4
6.666748E-4
-9.3325194E-5
-4.156958E-4
-0.0019928077
-0.0037546607
-0.003996514
-0.005163108
-0.005319702
-0.0038015551
-5.439258E-4
-1.8392577E-4
0.0029555566
0.002925039
0.0049216333
0.0056382273
0.0032077099
0.003579563
0.004966157
0.0052427514
0.002982234
0.0018469751
-6.653955E-4
-0.0026025074
-0.0017572485
-0.0018819898
-0.0022991016
-0.0037309546
-0.004235178
-0.0032846606
-0.0020317724
3.2822753E-4
0.0024553393
0.0035171923
0.005726157
0.006415122
0.005874087
0.0057830517
0.0045872754
0.0039791283
0.0027286108
-6.9375976E-4
-0.005140354
-0.0055969483
-0.004521172
-0.0045753955
-0.0052319895
-0.005648584
-0.0042728074
-0.0025899194
-0.00113229
-5.2290037E-5
0.0030371924
0.0032266749
0.003738528
0.005275122
0.005221716
0.007093052
0.0060320166
0.0035838697
0.0025409814
0.0024280932
0.0029375756
1.7757568E-4
-5.247949E-4
-0.0019619067
-0.0044061304
-0.004730354
-0.0030798365
-0.0026593187
-0.00117406
-0.006383025
-0.0026425074
0.0061264574
0.006517793
0.007861499
0.008417576
0.008896023
0.008222099
0.0060910643
0.0025981762
8.305469E-4
5.629175E-4
-0.0014518237
-0.0010941944
-0.0034260473
-0.0056126416
-0.004336865
-0.00631583
-0.007759536
-0.007373242
-0.004035095
4.672754E-4
0.0011720166
0.0034338697
0.0033133521
0.004217576
0.00537417
0.0048183934
0.0026155054
0.0020126172
4.149878E-4
2.849878E-4
5.773584E-4
-0.0012873828
-0.0036392359
-0.0044034594
-0.005360054
-0.0030595362
-0.0031390185
-0.003058501
-0.0026679833
0.0013867578
0.0035186107
0.0050952053
0.0055917995
0.0056383936
0.005364988
0.0047692116
0.0054158056
0.0037976587
0.0021247705
-1.0522949E-4
-0.0011299707
-0.0027294531
-0.0048036766
-0.005430271
-0.005556865
-0.00581583
-0.005242424
-0.0033819068
-0.0010142773
8.680933E-4
0.0032675758
0.0057065403
0.0082626175
0.009943435
0.0130837355
0.0140987765
0.013371448
0.012099378
0.0106025655
0.009311013
0.0064423485
0.0018894605
0.0013042017
-0.0054923925
-0.018109286
-0.026462259
-0.022041006
-0.012791306
-0.007185012
-0.004589236
-9.916065E-4
0.0025455053
0.0052720997
0.0063210647
0.004905288
0.0044295117
0.0024566236
0.0018413648
0.0014361059
-9.262646E-4
-7.6264645E-5
-9.786353E-4
-0.0030081177
-0.0039099706
-0.0010923413
-7.6471193E-4
-0.0025118238
-0.003983677
-0.0036555298
4.4684083E-4
-0.002080271
-6.226416E-4
0.009105805
0.009354253
0.010527441
0.0065387767
0.0025058887
0.003285371
8.777417E-4
3.077417E-4
4.701123E-4
2.1011231E-4
-0.0011546289
-0.0043288525
-0.004343076
-0.0039549293
-0.002562041
-0.0013267823
0.001637959
0.0011103296
0.0014750708
0.0057340357
0.0062030004
0.004707224
0.0050138184
0.004768042
0.0038098951
0.0010422657
-5.10105E-4
-0.0011348462
-0.002081958
-0.0031114405
-0.0034732935
-0.004387517
-0.0054741115
-0.0057730763
-0.0043773
-0.0022544116
-0.0017691528
-2.5915285E-4
0.0024279589
0.003469812
0.0059887767
0.0047530006
0.004207224
0.0033567066
9.390772E-4
6.6144776E-4
5.1447754E-5
-1.6855224E-4
-0.0014332935
-0.0023804053
-0.00593937
-0.0072430763
-0.008049153
-0.0068904883
-0.006339453
-0.0043036765
-0.0028331592
-5.315918E-5
0.0021239526
0.0040558055
0.0051124
0.0059113647
0.008067441
0.004711665
0.0040635183
0.003845371
0.002032483
0.0010148535
-8.5751707E-4
-0.0011722583
-0.0033917406
-0.0051283347
-0.00646967
-0.0057186354
-0.0034804882
-0.0022176001
-0.002164712
0.0011600293
0.004101882
0.0053684767
0.0063874414
0.006708777
0.0060677417
0.0045819655
0.0029114478
9.6381834E-4
8.8618894E-4
-0.0014985523
-0.0022456641
-0.0022927758
-0.0043169996
-0.0055935937
-0.0074173
-0.0067386352
-0.002585747
-0.0028452296
-2.552295E-4
0.0021018824
0.0033713647
0.0043655885
0.0049721827
0.005238777
0.005235371
0.004589595
0.0033790772
0.00348093
2.8093017E-4
-0.0024961818
-0.0034880347
-0.0017427759
-0.0042069997
-0.006788335
-0.007552041
-0.007375747
-0.0077594533
-0.0068607884
-0.003200271
-0.0016150122
-8.501221E-5
0.0024920995
0.003301582
0.003893435
0.0038752882
0.0010576587
8.400293E-4
-6.023413E-4
0.0013523999
-0.0014023413
-0.0033718238
-0.003111306
-0.0033707886
-0.0055173826
-0.0068187183
-0.0052853124
-0.0037171654
-0.004521389
-0.0018561303
5.3624023E-4
-5.3759766E-5
0.0020333522
0.0050799465
0.0054165404
0.0059155053
-2.0449463E-4
-0.00648583
0.0036160229
0.0033655055
3.550537E-5
-0.0012192358
-0.0010416064
-0.0028310888
-0.003772942
-0.003864795
-0.0052313893
-0.005437983
-0.0023150952
-6.474658E-4
2.7253418E-4
0.0033920165
0.0054186108
0.0062575755
0.006698911
0.005727876
0.0050844704
0.0038463234
-7.7604735E-4
-3.5604736E-4
-0.0012107886
-0.0015755298
-7.879004E-4
-0.0033473829
-0.0032868653
-0.004661089
-0.0042753126
-0.0038771655
-0.0033166478
-0.0017813891
-0.001938501
-0.0032179833
0.0019591283
0.005055723
0.0059346873
0.005371282
0.003350764
0.0030802465
0.002919729
-3.70271E-4
-9.226416E-4
-0.0015173828
-0.0029768653
-0.0049534594
-0.005982424
-0.0068437597
-0.007847466
-0.0065288013
-0.0050953957
-0.003184878
-3.9724854E-4
0.0022698634
0.004644087
0.005100681
0.005929646
0.0057686106
0.004130464
0.0019775757
0.0011723168
0.0010246875
1.846875E-4
-4.476831E-4
-0.0026247948
-0.0045690187
-0.0038908715
-0.0051774657
-0.0035493188
-0.003531172
-0.0037830248
-0.0047472487
-0.0036291017
-2.3910156E-4
0.0035927515
0.0060917162
0.00470594
0.0043301634
0.0034520165
0.0021891284
-0.0023079833
-0.011703542
-0.0034853956
-5.377661E-4
-0.0017925074
-0.0030619898
-0.0043662135
-0.005675178
-0.0064865137
-0.0061854785
-0.003224961
-0.0027644434
-0.0013291846
0.0012255566
0.0034374096
0.0059963744
0.0075100805
0.005416675
0.005273269
0.002630381
7.527515E-4
0.0013474927
-2.5250734E-4
-0.0019296191
-0.0027491015
-0.0039809546
-0.0076046605
-0.008320738
-0.006019702
-0.0070310375
-0.0067623733
-0.0028018556
-2.2185547E-4
5.0051516E-4
0.0016652563
0.0036771095
0.006618445
0.0075621507
0.005328745
0.0028682274
0.0015429688
0.0029424513
-0.0018322901
-0.0030117724
-0.0034012548
-0.005017849
-0.006256814
-0.005603408
-0.004857632
-0.005404226
-0.00488845
-0.0046626735
-0.002049785
7.0214846E-5
0.0023373268