0.0033296973
0.0025168092
0.002193921
4.462915E-4
-3.3708497E-5
2.662915E-4
-6.860791E-4
-0.0016508204
-9.631909E-4
-0.0031126733
-0.0034545264
-0.0015292675
-2.9267578E-5
4.6310303E-4
0.0025002148
0.0031496973
0.0028891796
0.0043334034
0.004447627
0.0024347387
0.0023818505
7.042212E-4
6.665918E-4
-4.657788E-4
-4.381494E-4
8.8422117E-4
0.0011989624
0.0021160743
-6.262964E-4
-0.0031257789
-0.0033252612
-0.0011600024
-1.1000244E-4
0.0024871093
0.0015618505
0.0038937037
0.0038855567
0.0023126684
0.0021097802
0.0020468922
0.002254004
0.0011887451
-5.736255E-4
-0.0019307373
-0.0021478492
-0.002294961
-0.0021120727
-0.0017068139
-0.0031762964
-0.0065376316
-0.0045118555
-0.004276079
-0.001933191
3.991797E-4
8.815503E-4
0.0014862915
0.0014210327
0.0012957739
0.0021128857
0.0031223681
0.00252948
-8.928906E-4
-0.003052373
-0.0011047437
-2.8474364E-4
-0.0024618555
-0.0055984496
-0.0061774147
-0.00678875
-0.011194309
-0.010095127
-1.5126953E-5
-2.1512696E-4
0.0012696142
4.6198486E-4
1.21984864E-4
0.0020590967
0.0021562085
0.0024933203
0.0017880616
0.002887544
0.0017822852
-1.9771485E-4
-0.0018024561
-0.0015971973
-0.002144309
-0.0027237914
-9.961621E-4
-0.0016809034
-0.0029603858
-0.0029098683
-0.0020969799
-0.0010993506
7.6302E-4
0.0019501318
0.0020172438
0.0025543554
0.002693838
0.003685691
0.0014104322
0.002417544
0.0019646557
0.0015093969
-0.0014353442
-0.0016700855
-9.82456E-4
-0.0024395678
-0.0027390502
-0.0027485327
-0.0025756445
-0.0017103858
-0.0015951269
-0.0015998682
4.3250245E-4
0.0026919849
0.0021490967
0.0019962084
0.0012009497
0.0030604322
0.0020475439
-4.1482667E-4
0.002332285
2.2228516E-4
-0.0039595678
-4.219385E-4
-3.3193847E-4
-0.0014866797
-0.0021937916
-0.003053274
-0.0011780151
3.1198486E-4
-6.3038577E-4
-0.0010427564
-2.3275634E-4
-0.0011574975
-0.0018522388
5.5013184E-4
0.0019572435
0.0021943555
0.0025514674
0.0032709497
-2.990503E-4
-0.0012737915
-0.0025309033
-0.002528015
-0.0022251268
-0.0018298682
-0.0033993507
-0.0034512037
-0.002980686
-0.003802539
-0.0033120215
-0.0013667627
4.8560792E-4
4.379785E-4
0.0016327198
0.003112202
0.0027516845
0.002661167
0.0026082788
0.0032477612
8.7013183E-4
-8.522388E-4
-5.9460936E-4
-7.6698E-4
-0.0020540918
-0.0038159448
-0.0024530566
-0.002882539
-0.0013972803
-0.002314392
-0.001911504
-4.0387452E-4
-6.562451E-4
-3.4624513E-4
4.2612548E-4
0.0013108667
0.0018756079
0.0013103491
8.0271973E-4
-1.6728028E-4
-2.1728028E-4
-0.0013320214
-0.0016767627
1.632373E-4
-0.0018215039
-0.0024286157
-0.0011433569
-0.0030828393
-0.004587063
-0.0033865455
-0.0026660278
-0.001250769
-0.0015055103
-0.002192622
-0.002539734
-0.0013944751
-0.0070658107
-0.006577146
0.0033823363
0.00438656
0.0037784132
0.003870266
0.0011550073
-0.0017297339
-0.0024768456
-0.002666328
-0.00195344
-0.0026105517
-0.0045547755
-0.004188999
-0.0017037402
-0.002600852
-0.001957964
0.0010744068
0.0010867773
0.0017115185
0.0024086304
0.0025557422
0.002062854
0.0013275952
8.0996583E-4
8.1233645E-4
-7.500342E-4
-4.8240478E-4
-8.647754E-4
-0.0033942577
-0.0046384814
-0.0033779638
-0.0015727051
-0.002599817
-0.001844558
-0.0026640405
-2.3404053E-4
0.0017107007
0.0010930713
6.254419E-4
0.0015401831
0.001907295
0.0019644068
0.001299148
9.815185E-4
-0.0010008521
4.9147948E-5
-0.0016855933
-0.0017903345
-0.002839817
-0.0036716699
-0.0042158933
-0.0041177464
-0.002837229
-0.0032667115
-0.0039585643
-0.0035004176
6.1195315E-4
0.0018466944
0.003918547
0.0024556592
0.0035175122
0.0030569946
0.0014217359
0.0022788476
5.212183E-4
-1.8781739E-5
-0.001613523
-0.0015182642
-0.0032877466
-0.002957229
-0.0022843408
-0.0052909353
-0.005627529
-0.0029570118
-0.0019341236
4.7824706E-4
2.4824706E-4
0.0014229883
2.2298828E-4
6.853589E-4
0.0025024707
0.0025695825
8.3195313E-4
7.843237E-4
-0.0014604175
-0.0010827881
-0.0013775293
-0.0029770117
-0.0046012355
-0.0040730885
-0.0032625708
-0.0032620532
-0.0033815356
-0.0014162769
-5.3864747E-4
4.1352538E-5
-0.0015633886
-1.8338868E-4
0.001028982
0.0010513526
0.0020184643
0.0023255763
6.779468E-4
-9.944239E-4
-8.6679443E-4
-1.7679443E-4
5.7557615E-4
-6.1679445E-4
-0.0013915356
-0.0014562769
-0.0019133887
-0.004417612
-0.001049983
-7.0235354E-4
-0.003041836
-0.0023589476
-0.0014036889
-0.003785542
-1.5541993E-5
8.568286E-4
0.0023739405
0.0020710523
7.6342287E-4
2.6342284E-4
-0.002553689
-0.0041579125
-0.0036297657
-0.00556636
-0.005292954
-0.003964807
-0.0016595484
-0.0031390307
-0.0030285132
-0.0018332544
-5.25625E-4
0.0017491162
0.002276228
0.00229334
0.001318081
0.0019651928
0.0033346752
0.0020117871
0.0015965283
0.0016612696
-3.8730468E-5
-0.0020158424
-0.0015205835
-0.0025476953
-0.0030271776
-0.00293666
-0.0032861426
-0.002905625
-0.008301701
-0.008047778
0.0010145922
0.0018493335
2.6933348E-4
0.0012040747
0.0021411865
0.0038630397
0.002812522
0.0030020045
0.0023491161
5.1148684E-4
1.11486814E-4
1.7148681E-4
-8.308838E-4
-0.0024679955
-0.0023551073
-0.001087478
-0.0030069605
-0.0039788135
-0.0022759254
-0.0015806665
-5.130371E-4
-8.2540774E-4
-7.577783E-4
-0.0013725195
-0.0012772607
0.0028022216
0.0023193336
0.0015640747
0.0011164453
6.088159E-4
0.0010311865
-0.0016435547
-0.0011059253
-0.0028654076
-0.0019625195
-0.0012072608
-0.0024743725
-0.003363855
-0.0022709668
-0.0029504492
-0.0027099317
-0.0013746729
-5.970434E-4
-4.5941406E-4
0.0018976978
0.001302439
0.0028919214
0.0012666626
3.066626E-4
9.6662596E-5
3.366626E-4
-0.0019404492
-0.0034223022
-0.0033517848
-0.0018888965
-0.0017436377
-0.0040354906
-0.003194973
-0.003986826
-0.00458105
-0.0041852733
-0.0018600146
-4.5238525E-4
5.5998535E-4
0.001082356
0.0013670971
6.8946776E-4
4.318384E-4
0.0019489502
8.813208E-4
2.013208E-4
-0.0010710498
-0.0025581617
-0.0027976441
-0.002014756
-0.001569497
-0.0024066088
-0.0020537206
-0.001638462
-8.008325E-4
-0.0012455737
-0.011853503
-0.0064848387
0.0013599023
4.2227295E-4
0.004044126
0.0055607203
0.0026502027
0.0026373144
0.0013920557
5.0442625E-4
-0.001550315
-0.0015550562
6.7731447E-4
4.9968506E-4
-0.0012050562
-0.0030745387
-0.0039463914
-0.0042506154
-0.0054572094
-0.0038490626
-3.690625E-4
-0.0018638037
-0.010144621
-0.0010369922
0.0013077491
0.0024248608
0.003996714
0.005243308
0.00262042
0.0019875318
5.5990234E-4
-7.5246824E-4
6.8990234E-4
-0.0014448388
-3.6483887E-4
-9.772094E-4
-0.003146692
-0.0032261743
-0.0021232862
-0.0018080274
2.5197267E-4
-3.1802733E-4
6.543433E-4
0.0017890845
0.0026485668
0.0030480493
0.0033175317
0.0038493848
0.0031588671
0.002225979
5.4834964E-4
5.7072024E-4
9.1309083E-4
-3.7927978E-4
-0.001294021
-0.0020811327
-0.001505874
-0.002282986
-0.0024200976
-0.0015048388
-0.0019119506
-1.11950685E-4
4.8041993E-4
0.0019775317
0.0025446436
0.0038964965
0.0041607204
0.002167832
4.2020265E-4
0.0012849439
0.0027944262
-4.557373E-5
-9.979444E-4
-0.0038397973
-0.0063687623
-0.0034906152
-0.0028100978
-0.00337958
-0.0030790626
-0.002678545
-7.609155E-4
-2.8091553E-4
-4.932861E-4
0.0023238256
0.0018785669
0.0030180493
0.0041399025
0.002247014
0.0027264967
0.0020336085
-0.0017011329
-8.1132814E-5
1.4886718E-4
-7.235034E-4
-4.9587403E-4
-0.0022929858
-0.0022600978
-0.00285958
-0.0020966919
-0.0019638038
-0.001378545
-0.0015532861
-0.0014080274
0.0017367139
0.0022938256
0.0046680495
0.004522273
0.003744126
0.0023712378
3.836084E-4
-5.487622E-4
-2.987622E-4
-6.8113283E-4
-0.0011335034
-0.0013882447
-0.0020253565
-0.0038872096
-0.0037090625
-0.0038909155
-0.0023180274
-0.0016827686
-0.0018998804
-1.5988036E-4
0.0015148609
0.001719602
0.0032890844
0.004183308
0.0022404199
0.0018451611
2.5161133E-5
2.5516114E-4
4.975317E-4
8.7990233E-4
6.1227294E-4
-0.0020748388
-0.0025219508
-0.0014766919
-0.0026038038
-0.0026409156
-0.0010832861
-3.5328613E-4
0.0023838256
0.0021409376
0.0034927905
0.0034646436
0.0011170142
6.5938476E-4
4.4175537E-4
-0.0046224683
-0.0070438036
0.0014009374
0.0010833081
8.556787E-4
-8.432129E-5
2.2567871E-4
0.0015104199
-4.8195067E-4
-0.0010343213
-4.266919E-4
0.0010556787
7.980493E-4
1.4804932E-4
0.0020251612
0.0022022729
0.0023293847
0.0028988672
0.00413072
0.004464944
0.0032544262
0.00419865
0.0026057616
4.5813233E-4
5.205029E-4
3.6050292E-4
7.428735E-4
-0.0022542384
-0.0024413501
-0.0043155737
-0.0027050562
-0.002032168
-8.545386E-4
-3.1453857E-4
4.5783204E-4
6.7020266E-4
8.7257323E-4
0.0034744262
0.0050010206
0.0059499852
0.0053465795
0.002936062
-0.0015986792
-0.0034905323
-0.0036323853
-0.0042266087
-0.0042008325
-0.0050674267
-0.005044021
-0.0028935035
-0.0017082447
-9.1061526E-4
-0.002527727
-9.7727054E-5
0.0012370142
0.002164126
0.0044983495
0.0034602026
0.0037920556
0.0042762794
0.002103391
0.0011381323
-7.1423827E-4
-0.0027537206
-0.0014584619
-0.0016132031
-0.0022103149
-0.003442168
-0.003974021
-0.0028635035
-0.004477727
-0.0030672094
-0.0018319507
8.104199E-4
0.0038222729
0.0026517555
0.0029812378
0.0033607201
0.0038725731
0.002479685
0.0018244262
0.0015491674
-0.0012855737
-9.0794434E-4
2.2055665E-5
-0.0038397973
-0.0054963916
-0.005512986
-0.00507958
-0.005998545
-0.0064175096
-0.0026446215
-6.469922E-4
1.1300781E-4
0.001577749
0.0026472313
0.0044714552
0.0063204197
0.005057014
0.002514126
0.0012288672
0.001885979
5.683496E-4
-0.0020287621
-3.5876222E-4
-0.0012635035
-0.0025406152
-0.0026500977
-0.0035019508
-9.343213E-4
-0.002471433
-5.638037E-4
0.00489042
0.0071017556
0.009190203
0.012288133
0.010781321
0.009682138
0.006983474
0.001980586
-5.0178467E-4
1.7821533E-4
3.821533E-5
-0.0026388965
-0.002918379
-0.006287344
-0.010340532
-0.009318979
-0.012346909
-0.01264721
-0.002866692
-0.0016114331
0.0014333081
0.0037951611
0.0049417554
0.0061107203
0.006229685
0.007423391
0.007477097
0.008243174
0.009171621
0.008740068
0.0055066627
-9.33374E-5
-0.004277561
-0.008113638
-0.009674456
-0.010677644
-0.008816091
-0.0051026857
-0.0038745385
-0.0037963917
-0.0048606154
-0.00632958
-0.0028690626
0.0015256787
0.0024627906
8.551611E-4
0.0013399023
0.002217014
0.002244126
0.002101238
2.112378E-4
8.236084E-4
0.0033430909
0.0032725732
0.0031620557
0.0015467969
-0.0016779443
-6.0031493E-4
0.0012544263
0.0022115381
0.0033110206
0.0039928737
0.002962356
0.0021794678
0.0037513208
0.0022284326
0.004162656
0.0033121386
0.0040439917
0.0051905857
0.00490718
0.0037590333
0.0017237744
0.0014485156
-6.53855E-4
-0.0028033373
-0.0038351903
-4.2756103E-4
0.0014771802
7.595508E-4
0.0028290332
0.006610369
0.0075340746
0.0042582983
0.004262522
0.003874375
0.0051709693
0.0034628222
0.001949934
-8.824365E-4
-0.003301919
-0.004153772
-0.0043279957
-0.0034598487
-0.003359331
-0.0023164428
3.5355712E-4
0.0012282983
0.0031477807
0.005544375
0.010175193
0.014140234
0.016982388
0.019704023
0.015973806
0.012151736
0.0044259597
-0.005230635
-0.0071219704
-0.0027214526
0.0041004005
0.009388847
0.0120267775
0.01490419
0.01253449
0.011010049
0.012307978
0.0101187965
0.0016635376
-0.0061854273
-0.013085728
-0.017390251
-0.021006629
-0.020783005
-0.01876227
-0.016122052
-0.013954724
-0.009865542
-0.005924507
-0.0069958423
-0.005804807
-0.0043590306
-0.005585625
-0.0024227367
-5.151074E-4
-0.0019022193
-0.0029017017
-0.008047778
0.0045964452
0.012374375
0.017248899
0.018145794
0.02084217
0.020346176
0.019225443
0.015915224
0.013217895
0.014875308
0.01494272
0.015682502
0.018871767
0.013384438
0.011942368
0.01448741
0.0131577095
0.009858528
0.016850682
0.026623653
0.03562507
0.039860714
0.037479244
0.025449844
0.017174367
0.01489178
0.003201262
-0.019088004
-0.03479705
-0.030391876
-0.024217734
-0.023943594
-0.025221825
-0.029394276
-0.022915395
-3.753955E-4
0.012232535
0.009783352
0.0075570582
0.0036789111
-0.0010334594
-0.008229536
-0.011105095
-0.014882508
-0.012672808
-0.0063317725
0.0019753394
0.018524604
0.023015723
0.016195506
0.011713435
0.0033229175
-0.010250271
-0.026403243
-0.024781473
0.005315122
0.03331943
0.055734854
0.07229243
0.06821579
0.03921906
0.037385218
0.0290353
-0.003174182
-0.019475818
-0.023509307
-0.027967019
-0.047896367
-0.05399468
-0.06166907
-0.06863479
-0.05819733
-0.038428232
-0.013560903
0.0143341385
0.04939823
0.0779024
0.09649584
0.11714328
0.11948784
0.07903675
0.031966317
-0.012261614
-0.055987038
-0.08066069
-0.073410645
-0.068344
-0.051335197
-0.028625282
-0.012735581
0.0068357545
0.028375838
0.037321996
0.023615485
0.011231045
-0.0055155493
-0.022616668
-0.03956994
-0.05379825
-0.054851305
-0.034890354
-0.014967766
0.022913352
0.025091583
8.7395264E-4
0.007187659
0.034244336
0.021523083
-0.0086529935
0.012364936
0.041142948
0.08974505
0.07664448
0.0020815942
-0.007954482
-0.01967612
-0.07055658
-0.087019205
-0.072676785
-0.04628139
-0.023214879
0.027732834
0.037368994
0.028589077
0.0044033006
-0.02448256
-0.0272579
-0.019509535
0.0118083935
0.023531882
0.05719205
0.099212594
0.112785816
0.11410378
0.11673123
0.07139643
0.0063153957
-0.022465723
-0.09168257
-0.17951678
-0.23299691
-0.17966112
-0.071476325
-0.0072100344
0.028940048
0.10210008
0.14977945
0.14347987
0.077341676
0.02911413
0.0025012426
-0.050337587
-0.078814134
-0.076523565
-0.05888847
-0.057268634
-0.04045665
-0.031876214
-0.050465044
-0.07293499
-0.105566874
-0.1201438
-0.09951673
-0.07931564
-0.033652313
0.016439838
0.081063494
0.14596102
0.16726492
0.1234937
0.08865106
0.07323101
0.013923684
-0.042479068
-0.05181264
-0.09083711
-0.14896412
-0.17585647
-0.12937185
-0.05236542
-0.017529944
5.6242675E-4
0.018541692
0.013121992
-0.0072917137
-0.052315287
-0.083678424
-0.057258587
-0.022919707
0.017284816
0.048456535
0.085144415
0.12604031
0.13052042
0.09634386
0.020207863
-0.04219489
-0.089094624
-0.071489826
-0.0026793114
0.07504538
0.10282778
0.04979424
0.017578764
-0.01687339
-0.09967631
-0.14739858
-0.12816158
-0.08991368
-0.053029623
-0.022370743
0.008595334
0.030622529
0.040560544
0.06120256
0.07020303
0.07030349
0.06352262
0.04379012
0.010843308
-0.017031215
-0.035212636
-0.026395606
-0.016075388
-0.0031648707
0.017239653
0.02069366
-5.5871095E-4
-0.015366123
-0.0086322
-0.0059711644
-0.01853043
-0.018367324
-0.014072366
-0.0022794774
-0.008195554
-0.024521414
-0.036135204
-0.040010843
-0.039354116
-0.024562346
-0.015842129
-0.013032429
-0.002529541
0.005909424
0.008505501
0.020209506
0.02909196
0.02429782
0.015657602
0.005064197
-0.007819509
-0.016209291
-0.019910928
-0.009941746
-0.0036835987
-0.0073173046
-0.00707864
0.0025484718
0.016370624
0.036554415
0.048396133
0.04797785
0.03637164
0.016483793
0.0072275
0.004069353
0.0027988355
0.011234394
0.014791806
0.013304478
0.0063534426
-0.0034284107
-0.017582934
-0.014840347
-0.008366424
-0.0057853884
0.001539353
0.005968318
0.0022354296
-0.0054911645
-0.011296724
-0.0109499125
-0.007203618
5.4875243E-4
0.010681941
0.0114275
0.009698318
0.012898618
0.011334177
0.0027036597
-0.0031858229
-0.0034076758
0.0030618066
0.005018401
0.008604477
0.012132407
0.014849819
0.008718266
-1.11733396E-4
-0.004205957
-0.007739663
-0.009560481
-0.009398928
-0.006397893
-0.0016826342
-0.002629746
-0.0064410814
-0.0045953053
0.0073084007
0.008886849
0.0056134425
-0.0047707814
-0.017475305
-0.022656424
-0.02000806
-0.017834954
-0.02076896
-0.02539956
-0.024617791
-0.019409426
-0.01689158
-0.015458992
-0.0057679564
0.002991526
0.014556567
0.035227984
0.059132893
0.06596914
0.05426982
0.033726495
0.021142874
0.022393992
0.029166445
0.040724456
0.058729365
0.07446405
0.06844978
0.04875387
0.022864988
-0.015332424
-0.046889402
-0.06015905
-0.07024952
-0.07665895
-0.06675756
-0.056535356
-0.05432604
-0.04728539
-0.03980103
-0.032040596
-0.01934223
-0.0027817138
0.015918069
0.0380366
0.05204017
0.054560855
0.051774427
0.04282955
0.016431704
-0.016770449
-0.024568679
-0.021075057
-0.019266691
-0.01026988
-0.01105544
-0.024491299
-0.03934457
-0.054767624
-0.063606754
-0.05690455
-0.03874545
-0.0218242
-0.012062129
-0.0018568701
0.007816836
0.010350024
0.012650325
0.0019674366
-0.016764717
-0.026307687
-0.020021694
-0.012631995
-0.0065333303
-0.001900442
0.0016642993
0.0034161524
0.0050727464
0.0057717115
0.009060158
0.012058089
0.011553647
0.010736836
0.011944765
0.012042696
0.0095535135
0.0054201074
0.004474331
0.005993296
0.00500989
0.005768855
0.0067501906
0.0063691554
0.004553379
0.0048276028
0.0046418263
0.0031813085
0.0041031614
0.004817385
0.008513462
0.0059324265
0.0034342797
0.003696133
0.0022232446
-1.9675537E-4
-0.0018714966
-0.0017762377
-0.0032657203
-0.0011080909
-0.001832832
-7.652026E-4
2.2479736E-4
6.27168E-4
0.0014019092
0.002069021
0.0019261328
0.0031356153
0.0055522094
0.005901174
0.0053577684
0.0038396216
0.0060785864
0.0055251806
0.004107034
5.094043E-4
1.694043E-4
-9.629663E-4
-0.0019400781
-0.0024271898
-0.0031466724
-0.004250896
-0.003482749
-0.003784602
-7.1697263E-4
2.4302735E-4
0.0013677685
0.0017025098
0.0047067334
0.004450957
0.00395281
0.004727034
0.0046812575
0.0022783692
0.002165481
0.0024825928
6.259277E-5
-0.002034519
-5.7688967E-4
-0.0010592602
-0.0028187428
-0.004442966
-0.002390078
-0.0019671898
-0.0030266724
-0.0021437842
5.621582E-5
0.001260957
0.0031304394
0.0034522924
0.0028117748
0.0042359987
0.002745481
8.9785154E-4
-2.7214843E-4
-0.0014568897
-0.0014416309
-0.0036034838
-0.004065337
-0.0024024488
-0.0020795607
-0.0038714136
-0.0025785253
-0.0029480078
-0.001602749
-0.0016774902
-0.0033069726
1.8302734E-4
0.0013477686
0.002647251
0.003939104
0.0032485863
0.0025756983
0.0027651808
0.0011999218
4.0229247E-4
0.0016470337
-3.629663E-4
-0.002420078
-0.0037219313
-0.002119043
-0.0021661548
-0.0019432666
-5.056372E-4
0.001159104
-0.0010232666
-0.002642749
0.0012519922
0.0032514746
0.0025585864
0.0010909571
0.0018756982
0.0020028101
-0.0015019311
-6.243018E-4
0.0016204395
-0.0017443018
-0.003323784
-0.0033332666
-0.005029861
-0.0025569727
-0.0018417139
-0.0070030494
-0.011428609
-0.0015633496
0.001019021
0.0015837622
0.0032832446
0.0039150976
0.004026951
0.0052135447
0.0047877687
0.0038796216
0.0048238453
0.002050957
1.6095703E-4
9.0332766E-4
9.2569826E-4
-2.2430175E-4
-0.0036061548
-0.0022232665
-7.556372E-4
-0.0016803785
-2.603784E-4
2.4962157E-4
-2.7037843E-4
0.0015543628
0.0019514746
0.002920957
0.0026604393
0.0034422926
0.0015370337
0.0030265162
0.0029159985
0.0020031102
0.0013878515
-5.1451905E-4
-0.0010568897
-0.0021940016
-0.0036158545
-0.0018905957
-0.0031400782
-0.003451931
-0.002229043
-7.0141355E-4
-3.8141359E-4
-5.837842E-4
3.1621582E-4
0.001540957
0.0032104393
0.002869922
0.0045141457
0.0040459987
0.0020931105
4.0548097E-4
1.05480955E-4
-2.3451904E-4
5.8785157E-4
-2.6214845E-4
-0.0029416308
-0.0027511134
-0.0031305957
-0.0035324488
-0.0026519313
-0.0010543017
0.0014104395
2.6043944E-4
0.002919922
0.005356516
0.0045507397
0.004614963
0.004359187
0.005015781
0.0033252637
0.0027447462
0.002411858
6.1422854E-4
-0.0012805127
-6.828833E-4
-2.428833E-4
-1.628833E-4
-0.0017776245
-0.0010599951
-5.723657E-4
-0.0010147364
7.0763426E-4
0.002614746
0.003726599
0.0034384523
0.005667417
0.0059763817
0.0061753467
0.0034271998
9.395703E-4
-6.9280027E-4
-0.0033922826
-0.00938073
5.116406E-4
0.0012463818
0.001491123
2.7112305E-4
-9.3124754E-4
-1.01247555E-4
-7.836182E-4
7.638184E-5
-1.03618164E-4
0.001461123
0.0031906054
0.0035324586
0.0024995704
0.0040914235
0.0030009057
0.0031203881
0.0028998705
0.0016746118
0.0021417236
3.2172364E-4
-0.0012030175
-0.0020601293
-0.0022572412
-0.0017919824
-0.0022790942
-0.0015538355
-0.002833318
-0.0041051707
-0.0038970239
-8.7023924E-5
0.003484829
0.0031443115
0.0034361645
0.0036980177
0.0028575
0.003859353
0.0011740943
0.0020912061
0.0015159473
-1.6405273E-4
0.0015606885
2.6068848E-4
-5.8168214E-4
-0.002628794
-9.211645E-4
-0.0011959057
-0.0011182764
-0.0013530175
0.0018017236
0.002821206
0.0013959473
0.0042601707
0.005086765
0.00594573
0.004759954
0.004926548
0.0046807714
0.0030602538
0.0018749951
2.4995117E-5
0.001942107
-7.902637E-4
-0.0026273755
-0.0046715993
-0.004255823
-0.0029253052
-0.0028247875
-0.0013995288
2.0047119E-4
0.0013852124
-6.971582E-4
0.001207583
0.003669436
0.0018241772
0.0014789185
0.0020260303
0.0029155128
0.0018002539
6.2262453E-4
-5.597461E-4
-6.121167E-4
-0.003051599
-0.002498711
-0.0031781935
-0.0026976757
-0.001292417
-0.0025395288
-0.00180427
0.0014604712
0.002437583
0.0028070654
0.004271289
0.0026707714
0.0031902539
0.0048544775
0.0040663304
0.0024934423
0.0013081837
4.505542E-4
2.505542E-4
-9.445801E-6
-0.0010718164
-0.0036936693
-0.0015084107
-0.0011331518
-0.0019302637
-0.0021973755
-0.0023944874
-0.0032739697
-7.463403E-4
0.0016384008
0.0027278834
0.0036097362
0.0029792187
0.0027487013
0.0037905541
0.003502407
0.0016971484
0.0010095191
-1.10480956E-4
-2.2048096E-4
-0.0021775928
-0.007088928
-0.011214487
-0.020578494
-0.012658794
1.3120605E-4
0.0021683178
0.0033678003
0.0052643945
0.0042686183
0.0049252124
0.0077089183
0.006990254
0.0050668484
0.0049834424
0.0054900367
0.00481426
0.002511372
0.0011761133
-3.1388673E-4
6.384839E-4
0.0023155957
8.179663E-4
-4.944043E-4
-0.0016291455
-0.0019162573
5.9611327E-4
0.0027555956
0.0029850781
0.00247219
0.0030116723
0.0052882666
0.005244861
0.0046790843
0.0034409375
6.733081E-4
-0.0016914331
-0.0031909156
-0.008326992
3.330078E-4
7.853784E-4
3.553784E-4
-0.0011393628
-9.617334E-4
-3.617334E-4
-1.417334E-4
0.0011306372
0.0016053785
0.0015501196
0.002799602
0.0046338257
0.0035556788
0.0030651612
0.0030446434
0.0021217554
0.0030112378
0.001525979
8.0834964E-4
0.0011830908
5.754614E-4
-9.169092E-4
-9.1927976E-4
-9.216504E-4
-0.0030311327
-0.0030406152
-0.0012253565
-0.0015000977
-0.0011024682
-0.0013472094
-3.3720947E-4
-1.6720947E-4
0.002792273
0.003784126
0.0026436085
0.00238072
7.5309083E-4
0.001787832
0.0016725733
-3.7742677E-4
-5.197974E-4
-0.0013745385
-0.0018392798
-0.0023863916
-0.004148245
-0.0046824683
-0.0011248388
-4.6720947E-4
-0.0030666918
-0.0032261743
0.0014085668
0.0028180494
0.0029675318
0.004361755
0.00590072
0.004694944
0.001889685
3.9205566E-4
-2.8794433E-4
-0.0013726855
-0.0011374267
-0.001182168
-0.0018992798
-0.003571133
-0.003772986
-0.0018877271
-0.0015524683
-6.2483887E-4
-0.0013495801
0.0010527906
0.0019599022
0.0024670141
0.004311238
0.0041654613
0.0023425731
0.0014073144
-5.4505613E-4
-4.974268E-4
-0.0022545385
-0.0072282446
-0.0024553565
3.7464357E-4
-0.0019124682
-0.0022295802
-0.0025566919
-0.0016314331
-0.001998545
-0.0022556568
-1.5565674E-4
0.002031455
0.002508567
0.0022956787
0.0011280493
0.004472273
0.004908867
0.0036507202
0.0028802026
8.9257327E-4
0.0014573145
7.4968504E-4
0.002016797
5.5916747E-4
2.9916747E-4
-0.003080315
-0.0041545387
-0.0038163916
-0.002665874
-3.6587403E-4
-5.5824465E-4
2.0175538E-4
0.0020588671
0.0017936084
0.003073091
0.0028925731
0.0037044263
0.0039062793
0.002553391
0.0018381323
0.0013428736
-9.4949704E-4
-0.0015542383
-3.966089E-4
-0.0019137207
-0.004777944
-0.0072516506
-0.0071953563
-0.0036272095
-0.003056692
-9.590625E-4
-3.814331E-4
-6.143311E-5
6.509375E-4
0.00311042
0.003742273
0.0031817553
0.0029312377
0.001275979
0.0014107202
-0.001194021
-0.0027835034
-0.0017582446
-0.0038900976
-0.0047843214
-0.0030538037
-0.004798027
-0.004302251
-5.446216E-4
-6.769922E-4
-0.0015617334
-0.001104104
0.0011182666
0.0016930078
0.0027924902
0.0035443432
0.0031738258
0.0018085669
0.0018233081
0.0013380493
0.002195161
3.0516114E-4
-5.272095E-4
-0.0013719507
-0.0025490625
-0.002978545
-0.0026680273
-0.0030675097
-0.0028569922
-0.002434104
-0.0015188452
-6.884521E-5
0.001565896
0.0032753784
0.0039972314
0.0034590845
0.004783308
0.0018480493
-2.519507E-4
0.0019651612
-2.5483887E-4
2.5516114E-4
-0.00145958
-0.0020566918
-6.390625E-4
5.833081E-4
-1.566919E-4
-0.0016814331
-0.0029009155
-0.0025380272
-0.0017227685
4.5960204E-4
4.0197265E-4
0.0011967139
0.0021238257
0.0037756788
0.0047799023
0.0037817555
0.0022288673
0.0027583495
0.0013830909
5.3090822E-5
-1.690918E-5
2.309082E-5
4.309082E-5
-7.392798E-4
-2.7927977E-4
-4.5165038E-4
-0.0015763916
-0.0021935033
5.088672E-4
2.9886718E-4
9.412378E-4
0.0018983496
0.0025154615
0.0027749438
0.0037767969
0.00386865
0.003440503
0.0014952441
0.0011276148
4.1998536E-4
1.2998535E-4
2.9998535E-4
-3.1001464E-4
-0.0014847559
-0.0026742383
-0.004668462
-0.003570315
-0.0013550562
5.5731443E-4
-7.2505616E-4
0.0012696851
0.0020267968
0.0026862794
0.0032257617
0.0038776149
0.0021247265
0.0018194678
-6.0532228E-5
-3.3053223E-4
-5.7290285E-4
-2.8290282E-4
-0.0011052735
-0.004679497
-0.0048837205
-0.0017984619
-0.0024455737
-0.002965056
-0.002092168
-0.005128762
-0.010401951
-0.004968545
-2.485449E-4
6.738257E-4
0.0011361963
0.0035580492
0.0029375318
0.002707014
0.0027864967
0.0016712378
0.0027707203
0.0012254614
-8.069092E-4
4.1546143E-4
-0.0014792798
-0.001694021
-0.0025511328
-0.0025482445
-0.0024953564
2.3464355E-4
-6.4772705E-4
0.0021193847
0.0019464965
0.0024636085
0.002733091
0.005199685
0.003791538
0.0029310205
0.0022281322
0.0021652442
0.0030847266
6.170972E-4
-8.652734E-4
-6.527344E-5
4.7265626E-6
-0.0018000146
-0.004744238
-0.0033960913
-0.0020732032
-0.0010855737
1.4426269E-5
0.0020615382
0.0026810204
0.002690503
0.0028899855
0.0036218383
0.0032313208
0.0036731737
7.255444E-4
3.5544435E-5
-0.0026115675
-7.83938E-4
-5.563086E-4
-0.002665791
-0.003567644
-0.005746609
-0.0046308325
-0.0024879444
-0.0039097974
-0.004194021
-5.163916E-4
0.0013783496
0.0014730908
0.0025802027
0.0025373145
0.0034591674
0.0039610206
0.003220503
0.0030799853
0.0012147266
-3.1527344E-4
5.2709715E-4
-2.7290283E-4
-0.0013076441
-0.0012323853
1.6761475E-4
-8.947559E-4
-0.001719497
-0.0014142382
-0.0024813502
-0.0010337207
-1.237207E-4
0.0016510205
0.0020481322
0.001995244
0.0030747266
0.003234209
0.0012489501
0.0013636914
0.001076062
0.0013008033
4.8317382E-4
-0.0011415674
-0.00276105
-0.0024981615
-0.005504756
-0.003676609
-0.0033160914
-0.0036279443
-0.0020950562
-4.7742674E-4
-0.0012621679
3.7832033E-5
-0.0022692797
-0.0060082446
0.004235979
0.004380203
0.0038220556
0.0028215381
0.00260865
2.586499E-4
-0.001968462
-0.0014732031
-0.0026526856
-0.0036845386
-0.0037363917
-0.002935874
-0.0023529858
-7.9535646E-4
-7.6772703E-4
-7.500977E-4
-7.724683E-4
0.0010599024
0.002367014
0.0026764965
0.003255979
0.0010083496
0.0017830909
0.0024102028
0.0012649439
-8.174268E-4
-0.0035992798
-0.0042435033
-0.0019206152
-0.002037727
-0.0021248388
-0.0018695801
-0.0015943213
-0.0012090625
-6.014331E-4
-9.138037E-4
-4.380371E-5
0.002483308
0.0028027906